DATATYPE	 IR Spectrum
XYUNITS	 Wavenumber;Absorbance
DECIMALSYMBOL	 .
649.954535365105000	 0.152726419696835
650.187493979931000	 0.154053199713982
650.420452594757000	 0.155768446815484
650.653411209583000	 0.157838429024076
650.886369824409000	 0.160074104947003
651.119328439236000	 0.162210205043391
651.352287054062000	 0.164040666470516
651.585245668888000	 0.165539150762119
651.818204283714000	 0.166889382417742
652.051162898541000	 0.168400260147711
652.284121513367000	 0.170354345735562
652.517080128193000	 0.172875124458961
652.750038743019000	 0.175879262771720
652.982997357845000	 0.179133590234799
653.215955972672000	 0.182387947459794
653.448914587498000	 0.185514164340704
653.681873202324000	 0.188569918399450
653.914831817150000	 0.191747351170573
654.147790431976000	 0.195239302742502
654.380749046803000	 0.199103940595317
654.613707661629000	 0.203202644967611
654.846666276455000	 0.207244134348769
655.079624891281000	 0.210914261860009
655.312583506107000	 0.214021636507600
655.545542120934000	 0.216572124019945
655.778500735760000	 0.218726474644203
656.011459350586000	 0.220672704014105
656.244417965412000	 0.222496818779636
656.477376580238000	 0.224128187853054
656.710335195065000	 0.225386683466977
656.943293809891000	 0.226099233049411
657.176252424717000	 0.226209951909064
657.409211039543000	 0.225808665221944
657.642169654369000	 0.225057267157923
657.875128269196000	 0.224064725149272
658.108086884022000	 0.222794050710125
658.341045498848000	 0.221061334537398
658.574004113674000	 0.218631714846956
658.806962728500000	 0.215359579168106
659.039921343327000	 0.211288319036625
659.272879958153000	 0.206645370765984
659.505838572979000	 0.201736430073840
659.738797187805000	 0.196807303504072
659.971755802631000	 0.191953886037924
660.204714417458000	 0.187122754656910
660.437673032284000	 0.182191878525833
660.670631647110000	 0.177080439552510
660.903590261936000	 0.171824132817332
661.136548876762000	 0.166576131193283
661.369507491589000	 0.161541899681213
661.602466106415000	 0.156893716446328
661.835424721241000	 0.152713413858794
662.068383336067000	 0.148986872772159
662.301341950893000	 0.145643472871752
662.534300565720000	 0.142612463623812
662.767259180546000	 0.139862417921329
663.000217795372000	 0.137402744525709
663.233176410198000	 0.135251590623925
663.466135025024000	 0.133395287092406
663.699093639851000	 0.131767098865269
663.932052254677000	 0.130258805906493
664.165010869503000	 0.128758241642359
664.397969484329000	 0.127190036927444
664.630928099155000	 0.125534167292424
664.863886713982000	 0.123811116553217
665.096845328808000	 0.122045532900660
665.329803943634000	 0.120235483360773
665.562762558460000	 0.118350728876310
665.795721173286000	 0.116364145305154
666.028679788113000	 0.114299100912382
666.261638402939000	 0.112266893047639
666.494597017765000	 0.110477721860932
666.727555632591000	 0.109225792868700
666.960514247417000	 0.108854255942912
667.193472862244000	 0.109685195095732
667.426431477070000	 0.111861366034067
667.659390091896000	 0.115057997779926
667.892348706722000	 0.118251983198810
668.125307321548000	 0.120088239385478
668.358265936375000	 0.119883534734743
668.591224551201000	 0.118077412701768
668.824183166027000	 0.115595488877552
669.057141780853000	 0.113138153788492
669.290100395679000	 0.111009532946456
669.523059010506000	 0.109250219891910
669.756017625332000	 0.107797152928677
669.988976240158000	 0.106588833158934
670.221934854984000	 0.105613944966356
670.454893469810000	 0.104911016099111
670.687852084637000	 0.104531655408178
670.920810699463000	 0.104491330444466
671.153769314289000	 0.104735991871094
671.386727929115000	 0.105143161601122
671.619686543942000	 0.105558971042379
671.852645158768000	 0.105855634362660
672.085603773594000	 0.105981259331648
672.318562388420000	 0.105973682663237
672.551521003246000	 0.105928970253140
672.784479618072000	 0.105943440397704
673.017438232899000	 0.106063216942558
673.250396847725000	 0.106267575806754
673.483355462551000	 0.106491856678009
673.716314077377000	 0.106675619638271
673.949272692204000	 0.106808705444948
674.182231307030000	 0.106947812035205
674.415189921856000	 0.107193023645872
674.648148536682000	 0.107638445675711
674.881107151508000	 0.108325313928946
675.114065766335000	 0.109221332200674
675.347024381161000	 0.110234355794496
675.579982995987000	 0.111252231683368
675.812941610813000	 0.112188426428306
676.045900225639000	 0.113009550733995
676.278858840466000	 0.113731131201067
676.511817455292000	 0.114388100635391
676.744776070118000	 0.115001950948805
676.977734684944000	 0.115566267287723
677.210693299770000	 0.116058758563398
677.443651914597000	 0.116470645165545
677.676610529423000	 0.116832584981655
677.909569144249000	 0.117217260552150
678.142527759075000	 0.117713530926446
678.375486373901000	 0.118386126007879
678.608444988728000	 0.119244163053693
678.841403603554000	 0.120236207505238
679.074362218380000	 0.121275176132120
679.307320833206000	 0.122281026271191
679.540279448032000	 0.123218795194236
679.773238062859000	 0.124110333903174
680.006196677685000	 0.125012809870364
680.239155292511000	 0.125977613876379
680.472113907337000	 0.127014974068028
680.705072522163000	 0.128085224443762
680.938031136990000	 0.129122131420136
681.170989751816000	 0.130075776851775
681.403948366642000	 0.130950219587697
681.636906981468000	 0.131812193627017
681.869865596294000	 0.132763785457560
682.102824211121000	 0.133894300111439
682.335782825947000	 0.135238395180291
682.568741440773000	 0.136762552805274
682.801700055599000	 0.138386157773529
683.034658670426000	 0.140025739041347
683.267617285252000	 0.141638172432167
683.500575900078000	 0.143237868413500
683.733534514904000	 0.144877755801845
683.966493129730000	 0.146606319200131
684.199451744556000	 0.148427435583565
684.432410359383000	 0.150287491092662
684.665368974209000	 0.152098722092080
684.898327589035000	 0.153787484578103
685.131286203861000	 0.155340337458508
685.364244818687000	 0.156819443427085
685.597203433514000	 0.158336262114659
685.830162048340000	 0.159998439434356
686.063120663166000	 0.161860429360885
686.296079277992000	 0.163904668476722
686.529037892818000	 0.166062748386807
686.761996507645000	 0.168265086592093
686.994955122471000	 0.170491606646489
687.227913737297000	 0.172793656112681
687.460872352123000	 0.175273404678296
687.693830966949000	 0.178032564368314
687.926789581776000	 0.181119748984489
688.159748196602000	 0.184505076957598
688.392706811428000	 0.188095398226561
688.625665426254000	 0.191782396435134
688.858624041080000	 0.195496950722155
689.091582655907000	 0.199236733314994
689.324541270733000	 0.203047878589754
689.557499885559000	 0.206969267648717
689.790458500385000	 0.210970307093519
690.023417115211000	 0.214916069171091
690.256375730038000	 0.218578518060976
690.489334344864000	 0.221688230006785
690.722292959690000	 0.223997993453048
690.955251574516000	 0.225321566197533
691.188210189343000	 0.225528035008648
691.421168804169000	 0.224506404558883
691.654127418995000	 0.222140095422473
691.887086033821000	 0.218326188235320
692.120044648647000	 0.213041535410637
692.353003263474000	 0.206418615078875
692.585961878300000	 0.198776712676324
692.818920493126000	 0.190576728449345
693.051879107952000	 0.182317408276711
693.284837722778000	 0.174427057705268
693.517796337605000	 0.167200319276419
693.750754952431000	 0.160795634517635
693.983713567257000	 0.155275714997276
694.216672182083000	 0.150658601087603
694.449630796909000	 0.146951056129623
694.682589411736000	 0.144152230932455
694.915548026562000	 0.142234633030415
695.148506641388000	 0.141121596296278
695.381465256214000	 0.140680350884898
695.614423871040000	 0.140740099279290
695.847382485867000	 0.141131457859894
696.080341100693000	 0.141731931651938
696.313299715519000	 0.142496020778971
696.546258330345000	 0.143453273098548
696.779216945171000	 0.144673634833434
697.012175559998000	 0.146217613503126
697.245134174824000	 0.148096638535932
697.478092789650000	 0.150262560906448
697.711051404476000	 0.152630062232963
697.944010019302000	 0.155119471571238
698.176968634128000	 0.157696416623188
698.409927248955000	 0.160385048353771
698.642885863781000	 0.163245733866167
698.875844478607000	 0.166328710673406
699.108803093433000	 0.169628695981594
699.341761708260000	 0.173064193393330
699.574720323086000	 0.176492007094011
699.807678937912000	 0.179749491650330
700.040637552738000	 0.182701840226933
700.273596167564000	 0.185267685399443
700.506554782391000	 0.187408871133683
700.739513397217000	 0.189093487380309
700.972472012043000	 0.190259151902641
701.205430626869000	 0.190803664539744
701.438389241695000	 0.190613036819025
701.671347856522000	 0.189612864785364
701.904306471348000	 0.187812087332514
702.137265086174000	 0.185310548023181
702.370223701000000	 0.182264458637593
702.603182315826000	 0.178831211024030
702.836140930653000	 0.175126482743096
703.069099545479000	 0.171215659631792
703.302058160305000	 0.167138637420686
703.535016775131000	 0.162947321174042
703.767975389957000	 0.158729168646094
704.000934004784000	 0.154600790242067
704.233892619610000	 0.150676145730362
704.466851234436000	 0.147030241752869
704.699809849262000	 0.143680741062785
704.932768464088000	 0.140597676897192
705.165727078915000	 0.137734930899314
705.398685693741000	 0.135065330868465
705.631644308567000	 0.132599427136140
705.864602923393000	 0.130377445723740
706.097561538219000	 0.128439907906514
706.330520153046000	 0.126795055655764
706.563478767872000	 0.125402588316391
706.796437382698000	 0.124183590432249
707.029395997524000	 0.123052348436920
707.262354612350000	 0.121953949555939
707.495313227177000	 0.120887540172612
707.728271842003000	 0.119901996255952
707.961230456829000	 0.119065935565948
708.194189071655000	 0.118428292776412
708.427147686482000	 0.117990042285344
708.660106301308000	 0.117700693508016
708.893064916134000	 0.117480291719816
709.126023530960000	 0.117255270482498
709.358982145786000	 0.116989727024498
709.591940760612000	 0.116696293337888
709.824899375439000	 0.116422417360255
710.057857990265000	 0.116221682236561
710.290816605091000	 0.116126791881537
710.523775219917000	 0.116137620497713
710.756733834744000	 0.116227944550894
710.989692449570000	 0.116364243716992
711.222651064396000	 0.116524149327917
711.455609679222000	 0.116703554913854
711.688568294048000	 0.116909477901758
711.921526908875000	 0.117145392588130
712.154485523701000	 0.117400439135987
712.387444138527000	 0.117650890668767
712.620402753353000	 0.117873961323497
712.853361368179000	 0.118065525097253
713.086319983006000	 0.118249635302503
713.319278597832000	 0.118471773945872
713.552237212658000	 0.118777690138791
713.785195827484000	 0.119189008913778
714.018154442310000	 0.119689275200212
714.251113057137000	 0.120228677961475
714.484071671963000	 0.120745921922091
714.717030286789000	 0.121196374481630
714.949988901615000	 0.121571332179720
715.182947516441000	 0.121897414617579
715.415906131268000	 0.122216553289170
715.648864746094000	 0.122558715804874
715.881823360920000	 0.122923539071142
716.114781975746000	 0.123281427831091
716.347740590572000	 0.123593493884221
716.580699205399000	 0.123838942688860
716.813657820225000	 0.124033560826274
717.046616435051000	 0.124227343050543
717.279575049877000	 0.124481538410174
717.512533664703000	 0.124837873982204
717.745492279530000	 0.125297202540504
717.978450894356000	 0.125819311030744
718.211409509182000	 0.126344319569475
718.444368124008000	 0.126824778678566
718.677326738834000	 0.127251348006195
718.910285353661000	 0.127657709670625
719.143243968487000	 0.128101835051569
719.376202583313000	 0.128634171565208
719.609161198139000	 0.129270099419982
719.842119812965000	 0.129980841613305
720.075078427792000	 0.130707048353985
720.308037042618000	 0.131387704133660
720.540995657444000	 0.131988711432475
720.773954272270000	 0.132515270128921
721.006912887096000	 0.133001785632678
721.239871501923000	 0.133487013910241
721.472830116749000	 0.133990551052623
721.705788731575000	 0.134504307355160
721.938747346401000	 0.135002494637443
722.171705961227000	 0.135462854172662
722.404664576054000	 0.135885829575777
722.637623190880000	 0.136299878262343
722.870581805706000	 0.136749522185974
723.103540420532000	 0.137273264500786
723.336499035358000	 0.137884448056384
723.569457650185000	 0.138565969913551
723.802416265011000	 0.139281427055874
724.035374879837000	 0.139995845926962
724.268333494663000	 0.140693724829329
724.501292109489000	 0.141383848443910
724.734250724316000	 0.142088634645929
724.967209339142000	 0.142825596008791
725.200167953968000	 0.143593355651582
725.433126568794000	 0.144371568815432
725.666085183620000	 0.145135322945762
725.899043798447000	 0.145875345561352
726.132002413273000	 0.146610953863753
726.364961028099000	 0.147386223767453
726.597919642925000	 0.148249872374456
726.830878257751000	 0.149229650591331
727.063836872578000	 0.150315931374023
727.296795487404000	 0.151464468700226
727.529754102230000	 0.152617987529780
727.762712717056000	 0.153735722807008
727.995671331882000	 0.154814736522810
728.228629946709000	 0.155890526312504
728.461588561535000	 0.157016041624691
728.694547176361000	 0.158230890157391
728.927505791187000	 0.159538174862487
729.160464406013000	 0.160901995087123
729.393423020840000	 0.162267300306876
729.626381635666000	 0.163591527737599
729.859340250492000	 0.164870465360551
730.092298865318000	 0.166143459901750
730.325257480145000	 0.167474856951710
730.558216094971000	 0.168922437480239
730.791174709797000	 0.170510794942617
731.024133324623000	 0.172224247887046
731.257091939449000	 0.174022784375552
731.490050554276000	 0.175871771365413
731.723009169102000	 0.177768192826160
731.955967783928000	 0.179747857256537
732.188926398754000	 0.181869257506631
732.421885013580000	 0.184183821481613
732.654843628407000	 0.186710162785119
732.887802243233000	 0.189427354699516
733.120760858059000	 0.192291523074521
733.353719472885000	 0.195266935453795
733.586678087711000	 0.198353795707455
733.819636702538000	 0.201595705572584
734.052595317364000	 0.205061078339890
734.285553932190000	 0.208808136975831
734.518512547016000	 0.212852651954782
734.751471161842000	 0.217155878048590
734.984429776669000	 0.221638955748918
735.217388391495000	 0.226215139151488
735.450347006321000	 0.230819823165966
735.683305621147000	 0.235417542981958
735.916264235973000	 0.239977406286634
736.149222850800000	 0.244427452742752
736.382181465626000	 0.248612496987853
736.615140080452000	 0.252280950733972
736.848098695278000	 0.255113538334511
737.081057310104000	 0.256786058735919
737.314015924931000	 0.257039215860626
737.546974539757000	 0.255723820257950
737.779933154583000	 0.252806022246505
738.012891769409000	 0.248344571592265
738.245850384235000	 0.242468679310918
738.478808999062000	 0.235377505648280
738.711767613888000	 0.227357680611565
738.944726228714000	 0.218793797440084
739.177684843540000	 0.210145662227885
739.410643458366000	 0.201886650484360
739.643602073193000	 0.194423896652579
739.876560688019000	 0.188033191672974
740.109519302845000	 0.182832818414720
740.342477917671000	 0.178800963570411
740.575436532497000	 0.175824185042023
740.808395147324000	 0.173755773959469
741.041353762150000	 0.172462649112239
741.274312376976000	 0.171846571835009
741.507270991802000	 0.171838058369052
741.740229606629000	 0.172374213160597
741.973188221455000	 0.173378113625366
742.206146836281000	 0.174754204720087
742.439105451107000	 0.176403727815043
742.672064065933000	 0.178251908222305
742.905022680759000	 0.180270473193373
743.137981295586000	 0.182479976566139
743.370939910412000	 0.184927011199156
743.603898525238000	 0.187645821737824
743.836857140064000	 0.190623184400968
744.069815754890000	 0.193784607213740
744.302774369717000	 0.197010165312945
744.535732984543000	 0.200174390695832
744.768691599369000	 0.203192502969803
745.001650214195000	 0.206051310074770
745.234608829021000	 0.208811035544743
745.467567443848000	 0.211580267710907
745.700526058674000	 0.214479808522339
745.933484673500000	 0.217614035128699
746.166443288326000	 0.221060489441984
746.399401903152000	 0.224876246637738
746.632360517979000	 0.229110437066695
746.865319132805000	 0.233810630347326
747.098277747631000	 0.239016999356809
747.331236362457000	 0.244748153837997
747.564194977283000	 0.250989850470862
747.797153592110000	 0.257697823202921
748.030112206936000	 0.264818418385845
748.263070821762000	 0.272319244327560
748.496029436588000	 0.280212979428136
748.728988051414000	 0.288557392301506
748.961946666241000	 0.297425694691318
749.194905281067000	 0.306857969238353
749.427863895893000	 0.316816409421859
749.660822510719000	 0.327167249134378
749.893781125546000	 0.337700024980584
750.126739740372000	 0.348174990430805
750.359698355198000	 0.358370949989623
750.592656970024000	 0.368100242115248
750.825615584850000	 0.377172836892464
751.058574199677000	 0.385322043119920
751.291532814503000	 0.392132343414121
751.524491429329000	 0.397018000794940
751.757450044155000	 0.399282667136203
751.990408658981000	 0.398251026451109
752.223367273808000	 0.393422162660964
752.456325888634000	 0.384579016523786
752.689284503460000	 0.371815951577457
752.922243118286000	 0.355498281795228
753.155201733112000	 0.336199833245669
753.388160347939000	 0.314652995380916
753.621118962765000	 0.291709344286020
753.854077577591000	 0.268286015763058
754.087036192417000	 0.245282530289670
754.319994807243000	 0.223481327702010
754.552953422070000	 0.203464973336874
754.785912036896000	 0.185578497033594
755.018870651722000	 0.169943817074796
755.251829266548000	 0.156512089350083
755.484787881374000	 0.145130179810941
755.717746496201000	 0.135599561573416
755.950705111027000	 0.127714787988116
756.183663725853000	 0.121279314865395
756.416622340679000	 0.116105098540979
756.649580955505000	 0.112006509281481
756.882539570332000	 0.108797999980789
757.115498185158000	 0.106300163390190
757.348456799984000	 0.104352855904771
757.581415414810000	 0.102829384625803
757.814374029636000	 0.101644301952665
758.047332644463000	 0.100750092091910
758.280291259289000	 0.100123753432321
758.513249874115000	 0.099749568995829
758.746208488941000	 0.099605933722468
758.979167103767000	 0.099661316865565
759.212125718593000	 0.099879277291127
759.445084333420000	 0.100227786561774
759.678042948246000	 0.100686258035973
759.911001563072000	 0.101245620178485
760.143960177898000	 0.101901490992282
760.376918792725000	 0.102645125097617
760.609877407551000	 0.103458377532186
760.842836022377000	 0.104316553125119
761.075794637203000	 0.105198179055499
761.308753252029000	 0.106096189868389
761.541711866856000	 0.107023424412735
761.774670481682000	 0.108008038189405
762.007629096508000	 0.109080209571502
762.240587711334000	 0.110256840795843
762.473546326160000	 0.111532447388764
762.706504940987000	 0.112881309177841
762.939463555813000	 0.114270095749207
763.172422170639000	 0.115674554033271
763.405380785465000	 0.117091304613859
763.638339400291000	 0.118538075663260
763.871298015118000	 0.120042039598738
764.104256629944000	 0.121622687702889
764.337215244770000	 0.123278706417258
764.570173859596000	 0.124985967705630
764.803132474422000	 0.126707637416715
765.036091089249000	 0.128410831415338
765.269049704075000	 0.130080539498859
765.502008318901000	 0.131722898570862
765.734966933727000	 0.133355980991910
