3997.65486	0.01441
3995.59527	0.01482
3993.53569	0.01499
3991.47610	0.01512
3989.41652	0.01489
3987.35693	0.01448
3985.29735	0.01455
3983.23776	0.01470
3981.17817	0.01404
3979.11859	0.01291
3977.05900	0.01299
3974.99942	0.01393
3972.93983	0.01441
3970.88025	0.01444
3968.82066	0.01413
3966.76108	0.01348
3964.70149	0.01354
3962.64191	0.01454
3960.58232	0.01493
3958.52274	0.01464
3956.46315	0.01414
3954.40357	0.01359
3952.34398	0.01377
3950.28440	0.01481
3948.22481	0.01512
3946.16523	0.01410
3944.10564	0.01403
3942.04606	0.01438
3939.98647	0.01386
3937.92689	0.01313
3935.86730	0.01239
3933.80772	0.01311
3931.74813	0.01429
3929.68855	0.01377
3927.62896	0.01317
3925.56937	0.01391
3923.50979	0.01373
3921.45020	0.01305
3919.39062	0.01383
3917.33103	0.01452
3915.27145	0.01348
3913.21186	0.01267
3911.15228	0.01268
3909.09269	0.01195
3907.03311	0.01225
3904.97352	0.01443
3902.91394	0.01513
3900.85435	0.01467
3898.79477	0.01356
3896.73518	0.01121
3894.67560	0.01128
3892.61601	0.01372
3890.55643	0.01280
3888.49684	0.01102
3886.43726	0.01355
3884.37767	0.01361
3882.31809	0.01310
3880.25850	0.01397
3878.19892	0.01145
3876.13933	0.01106
3874.07974	0.01267
3872.02016	0.01358
3869.96057	0.01377
3867.90099	0.01049
3865.84140	0.01092
3863.78182	0.01386
3861.72223	0.01355
3859.66265	0.01096
3857.60306	0.00976
3855.54348	0.01429
3853.48389	0.01869
3851.42431	0.01402
3849.36472	0.00999
3847.30514	0.01013
3845.24555	0.01102
3843.18597	0.01070
3841.12638	0.01093
3839.06680	0.01344
3837.00721	0.01323
3834.94763	0.01063
3832.88804	0.01068
3830.82846	0.01115
3828.76887	0.01102
3826.70929	0.01092
3824.64970	0.01021
3822.59012	0.01287
3820.53053	0.01339
3818.47094	0.01117
3816.41136	0.01281
3814.35177	0.01105
3812.29219	0.00803
3810.23260	0.00886
3808.17302	0.01180
3806.11343	0.01049
3804.05385	0.00863
3801.99426	0.01207
3799.93468	0.01103
3797.87509	0.00905
3795.81551	0.00963
3793.75592	0.00943
3791.69634	0.00986
3789.63675	0.01054
3787.57717	0.01117
3785.51758	0.01148
3783.45800	0.01038
3781.39841	0.01047
3779.33883	0.01170
3777.27924	0.01084
3775.21966	0.00981
3773.16007	0.00990
3771.10049	0.01131
3769.04090	0.01141
3766.98132	0.01048
3764.92173	0.00976
3762.86214	0.00923
3760.80256	0.01174
3758.74297	0.01340
3756.68339	0.01135
3754.62380	0.01049
3752.56422	0.01344
3750.50463	0.01414
3748.44505	0.01034
3746.38546	0.01302
3744.32588	0.01895
3742.26629	0.01514
3740.20671	0.01128
3738.14712	0.01301
3736.08754	0.01716
3734.02795	0.01879
3731.96837	0.01701
3729.90878	0.01431
3727.84920	0.01522
3725.78961	0.01736
3723.73003	0.01742
3721.67044	0.01652
3719.61086	0.01501
3717.55127	0.01340
3715.49169	0.01296
3713.43210	0.01523
3711.37251	0.01689
3709.31293	0.01486
3707.25334	0.01263
3705.19376	0.01279
3703.13417	0.01533
3701.07459	0.01713
3699.01500	0.01722
3696.95542	0.01742
3694.89583	0.01639
3692.83625	0.01578
3690.77666	0.01843
3688.71708	0.02097
3686.65749	0.01941
3684.59791	0.01829
3682.53832	0.01924
3680.47874	0.01998
3678.41915	0.02166
3676.35957	0.02541
3674.29998	0.02359
3672.24040	0.02254
3670.18081	0.02753
3668.12123	0.02831
3666.06164	0.02794
3664.00206	0.03034
3661.94247	0.03240
3659.88289	0.03377
3657.82330	0.03675
3655.76371	0.03800
3653.70413	0.03707
3651.64454	0.04170
3649.58496	0.04842
3647.52537	0.04980
3645.46579	0.04869
3643.40620	0.05026
3641.34662	0.05368
3639.28703	0.05633
3637.22745	0.05842
3635.16786	0.06006
3633.10828	0.06056
3631.04869	0.06425
3628.98911	0.07136
3626.92952	0.07246
3624.86994	0.07174
3622.81035	0.07445
3620.75077	0.08005
3618.69118	0.08437
3616.63160	0.08550
3614.57201	0.08795
3612.51243	0.09126
3610.45284	0.09465
3608.39326	0.09890
3606.33367	0.10091
3604.27408	0.10222
3602.21450	0.10547
3600.15491	0.10924
3598.09533	0.11272
3596.03574	0.11704
3593.97616	0.12050
3591.91657	0.12232
3589.85699	0.12614
3587.79740	0.13213
3585.73782	0.13493
3583.67823	0.13633
3581.61865	0.13966
3579.55906	0.14357
3577.49948	0.14692
3575.43989	0.15023
3573.38031	0.15340
3571.32072	0.15697
3569.26114	0.16327
3567.20155	0.17033
3565.14197	0.17333
3563.08238	0.17481
3561.02280	0.17797
3558.96321	0.18144
3556.90363	0.18466
3554.84404	0.18875
3552.78446	0.19331
3550.72487	0.19667
3548.66528	0.20017
3546.60570	0.20488
3544.54611	0.20889
3542.48653	0.21179
3540.42694	0.21482
3538.36736	0.21880
3536.30777	0.22315
3534.24819	0.22656
3532.18860	0.22957
3530.12902	0.23306
3528.06943	0.23699
3526.00985	0.24112
3523.95026	0.24512
3521.89068	0.24820
3519.83109	0.25058
3517.77151	0.25266
3515.71192	0.25486
3513.65234	0.25816
3511.59275	0.26214
3509.53317	0.26546
3507.47358	0.26762
3505.41400	0.27038
3503.35441	0.27371
3501.29483	0.27572
3499.23524	0.27729
3497.17565	0.27916
3495.11607	0.28098
3493.05648	0.28314
3490.99690	0.28607
3488.93731	0.28934
3486.87773	0.29161
3484.81814	0.29299
3482.75856	0.29499
3480.69897	0.29710
3478.63939	0.29855
3476.57980	0.30019
3474.52022	0.30238
3472.46063	0.30452
3470.40105	0.30617
3468.34146	0.30784
3466.28188	0.30990
3464.22229	0.31205
3462.16271	0.31398
3460.10312	0.31577
3458.04354	0.31823
3455.98395	0.32116
3453.92437	0.32356
3451.86478	0.32490
3449.80520	0.32602
3447.74561	0.32831
3445.68603	0.33099
3443.62644	0.33391
3441.56685	0.33698
3439.50727	0.33950
3437.44768	0.34217
3435.38810	0.34552
3433.32851	0.34928
3431.26893	0.35304
3429.20934	0.35665
3427.14976	0.36026
3425.09017	0.36414
3423.03059	0.36859
3420.97100	0.37353
3418.91142	0.37820
3416.85183	0.38258
3414.79225	0.38699
3412.73266	0.39145
3410.67308	0.39647
3408.61349	0.40194
3406.55391	0.40680
3404.49432	0.41119
3402.43474	0.41600
3400.37515	0.42139
3398.31557	0.42741
3396.25598	0.43289
3394.19640	0.43790
3392.13681	0.44303
3390.07723	0.44790
3388.01764	0.45295
3385.95805	0.45894
3383.89847	0.46522
3381.83888	0.47086
3379.77930	0.47618
3377.71971	0.48197
3375.66013	0.48865
3373.60054	0.49564
3371.54096	0.50213
3369.48137	0.50850
3367.42179	0.51566
3365.36220	0.52301
3363.30262	0.52981
3361.24303	0.53683
3359.18345	0.54415
3357.12386	0.55126
3355.06428	0.55845
3353.00469	0.56622
3350.94511	0.57471
3348.88552	0.58332
3346.82594	0.59152
3344.76635	0.60009
3342.70677	0.60945
3340.64718	0.61873
3338.58760	0.62747
3336.52801	0.63574
3334.46842	0.64426
3332.40884	0.65376
3330.34925	0.66337
3328.28967	0.67228
3326.23008	0.68104
3324.17050	0.69005
3322.11091	0.69905
3320.05133	0.70799
3317.99174	0.71690
3315.93216	0.72561
3313.87257	0.73429
3311.81299	0.74310
3309.75340	0.75154
3307.69382	0.75928
3305.63423	0.76677
3303.57465	0.77399
3301.51506	0.78034
3299.45548	0.78618
3297.39589	0.79210
3295.33631	0.79798
3293.27672	0.80377
3291.21714	0.80846
3289.15755	0.81118
3287.09797	0.81344
3285.03838	0.81576
3282.97880	0.81705
3280.91921	0.81730
3278.85962	0.81687
3276.80004	0.81579
3274.74045	0.81390
3272.68087	0.81090
3270.62128	0.80657
3268.56170	0.80098
3266.50211	0.79463
3264.44253	0.78758
3262.38294	0.77964
3260.32336	0.77124
3258.26377	0.76281
3256.20419	0.75387
3254.14460	0.74380
3252.08502	0.73343
3250.02543	0.72347
3247.96585	0.71350
3245.90626	0.70379
3243.84668	0.69432
3241.78709	0.68474
3239.72751	0.67562
3237.66792	0.66698
3235.60834	0.65831
3233.54875	0.64955
3231.48917	0.64056
3229.42958	0.63117
3227.36999	0.62165
3225.31041	0.61248
3223.25082	0.60409
3221.19124	0.59608
3219.13165	0.58757
3217.07207	0.57831
3215.01248	0.56882
3212.95290	0.55963
3210.89331	0.55066
3208.83373	0.54146
3206.77414	0.53245
3204.71456	0.52379
3202.65497	0.51484
3200.59539	0.50580
3198.53580	0.49666
3196.47622	0.48698
3194.41663	0.47701
3192.35705	0.46703
3190.29746	0.45756
3188.23788	0.44890
3186.17829	0.44018
3184.11871	0.43090
3182.05912	0.42169
3179.99954	0.41301
3177.93995	0.40449
3175.88037	0.39578
3173.82078	0.38721
3171.76119	0.37898
3169.70161	0.37079
3167.64202	0.36251
3165.58244	0.35483
3163.52285	0.34791
3161.46327	0.34111
3159.40368	0.33423
3157.34410	0.32776
3155.28451	0.32187
3153.22493	0.31619
3151.16534	0.31052
3149.10576	0.30516
3147.04617	0.30026
3144.98659	0.29548
3142.92700	0.29096
3140.86742	0.28690
3138.80783	0.28313
3136.74825	0.27987
3134.68866	0.27730
3132.62908	0.27494
3130.56949	0.27281
3128.50991	0.27134
3126.45032	0.27044
3124.39074	0.26994
3122.33115	0.26985
3120.27156	0.27011
3118.21198	0.27050
3116.15239	0.27105
3114.09281	0.27182
3112.03322	0.27270
3109.97364	0.27380
3107.91405	0.27539
3105.85447	0.27748
3103.79488	0.28002
3101.73530	0.28299
3099.67571	0.28585
3097.61613	0.28855
3095.55654	0.29135
3093.49696	0.29404
3091.43737	0.29708
3089.37779	0.30052
3087.31820	0.30373
3085.25862	0.30659
3083.19903	0.30921
3081.13945	0.31146
3079.07986	0.31320
3077.02028	0.31435
3074.96069	0.31477
3072.90111	0.31441
3070.84152	0.31366
3068.78194	0.31314
3066.72235	0.31271
3064.66276	0.31105
3062.60318	0.30751
3060.54359	0.30345
3058.48401	0.29981
3056.42442	0.29570
3054.36484	0.29057
3052.30525	0.28513
3050.24567	0.27985
3048.18608	0.27460
3046.12650	0.26927
3044.06691	0.26355
3042.00733	0.25706
3039.94774	0.25020
3037.88816	0.24374
3035.82857	0.23812
3033.76899	0.23290
3031.70940	0.22757
3029.64982	0.22234
3027.59023	0.21779
3025.53065	0.21379
3023.47106	0.20965
3021.41148	0.20529
3019.35189	0.20133
3017.29231	0.19813
3015.23272	0.19545
3013.17313	0.19292
3011.11355	0.19048
3009.05396	0.18839
3006.99438	0.18700
3004.93479	0.18648
3002.87521	0.18694
3000.81562	0.18840
2998.75604	0.19060
2996.69645	0.19331
2994.63687	0.19667
2992.57728	0.20035
2990.51770	0.20368
2988.45811	0.20682
2986.39853	0.20974
2984.33894	0.21213
2982.27936	0.21395
2980.21977	0.21474
2978.16019	0.21359
2976.10060	0.21078
2974.04102	0.20769
2971.98143	0.20484
2969.92185	0.20223
2967.86226	0.20044
2965.80268	0.19981
2963.74309	0.19954
2961.68351	0.19885
2959.62392	0.19808
2957.56433	0.19811
2955.50475	0.19946
2953.44516	0.20200
2951.38558	0.20540
2949.32599	0.20976
2947.26641	0.21545
2945.20682	0.22205
2943.14724	0.22840
2941.08765	0.23344
2939.02807	0.23687
2936.96848	0.23856
2934.90890	0.23777
2932.84931	0.23434
2930.78973	0.22927
2928.73014	0.22316
2926.67056	0.21612
2924.61097	0.20878
2922.55139	0.20141
2920.49180	0.19403
2918.43222	0.18718
2916.37263	0.18092
2914.31305	0.17451
2912.25346	0.16795
2910.19388	0.16211
2908.13429	0.15723
2906.07471	0.15283
2904.01512	0.14889
2901.95553	0.14567
2899.89595	0.14312
2897.83636	0.14111
2895.77678	0.13924
2893.71719	0.13727
2891.65761	0.13574
2889.59802	0.13516
2887.53844	0.13532
2885.47885	0.13589
2883.41927	0.13669
2881.35968	0.13721
2879.30010	0.13676
2877.24051	0.13519
2875.18093	0.13273
2873.12134	0.12950
2871.06176	0.12561
2869.00217	0.12146
2866.94259	0.11772
2864.88300	0.11468
2862.82342	0.11210
2860.76383	0.10983
2858.70425	0.10804
2856.64466	0.10670
2854.58508	0.10548
2852.52549	0.10413
2850.46590	0.10269
2848.40632	0.10138
2846.34673	0.10022
2844.28715	0.09911
2842.22756	0.09812
2840.16798	0.09741
2838.10839	0.09693
2836.04881	0.09628
2833.98922	0.09550
2831.92964	0.09518
2829.87005	0.09509
2827.81047	0.09458
2825.75088	0.09388
2823.69130	0.09350
2821.63171	0.09300
2819.57213	0.09201
2817.51254	0.09105
2815.45296	0.09047
2813.39337	0.08996
2811.33379	0.08924
2809.27420	0.08824
2807.21462	0.08707
2805.15503	0.08591
2803.09545	0.08474
2801.03586	0.08353
2798.97628	0.08255
2796.91669	0.08163
2794.85710	0.08028
2792.79752	0.07884
2790.73793	0.07770
2788.67835	0.07644
2786.61876	0.07489
2784.55918	0.07343
2782.49959	0.07217
2780.44001	0.07095
2778.38042	0.06966
2776.32084	0.06856
2774.26125	0.06749
2772.20167	0.06619
2770.14208	0.06499
2768.08250	0.06410
2766.02291	0.06336
2763.96333	0.06252
2761.90374	0.06154
2759.84416	0.06076
2757.78457	0.06036
2755.72499	0.05994
2753.66540	0.05923
2751.60582	0.05831
2749.54623	0.05740
2747.48665	0.05663
2745.42706	0.05588
2743.36747	0.05497
2741.30789	0.05399
2739.24830	0.05328
2737.18872	0.05278
2735.12913	0.05197
2733.06955	0.05087
2731.00996	0.04997
2728.95038	0.04935
2726.89079	0.04884
2724.83121	0.04847
2722.77162	0.04805
2720.71204	0.04740
2718.65245	0.04665
2716.59287	0.04599
2714.53328	0.04548
2712.47370	0.04500
2710.41411	0.04442
2708.35453	0.04412
2706.29494	0.04418
2704.23536	0.04413
2702.17577	0.04386
2700.11619	0.04334
2698.05660	0.04289
2695.99702	0.04295
2693.93743	0.04309
2691.87785	0.04281
2689.81826	0.04233
2687.75867	0.04188
2685.69909	0.04158
2683.63950	0.04137
2681.57992	0.04104
2679.52033	0.04075
2677.46075	0.04078
2675.40116	0.04074
2673.34158	0.04019
2671.28199	0.03942
2669.22241	0.03883
2667.16282	0.03844
2665.10324	0.03825
2663.04365	0.03827
2660.98407	0.03820
2658.92448	0.03795
2656.86490	0.03776
2654.80531	0.03753
2652.74573	0.03717
2650.68614	0.03673
2648.62656	0.03635
2646.56697	0.03605
2644.50739	0.03578
2642.44780	0.03561
2640.38822	0.03558
2638.32863	0.03540
2636.26904	0.03503
2634.20946	0.03489
2632.14987	0.03494
2630.09029	0.03490
2628.03070	0.03491
2625.97112	0.03509
2623.91153	0.03516
2621.85195	0.03489
2619.79236	0.03435
2617.73278	0.03394
2615.67319	0.03395
2613.61361	0.03410
2611.55402	0.03389
2609.49444	0.03341
2607.43485	0.03303
2605.37527	0.03260
2603.31568	0.03198
2601.25610	0.03134
2599.19651	0.03101
2597.13693	0.03112
2595.07734	0.03130
2593.01776	0.03131
2590.95817	0.03103
2588.89859	0.03023
2586.83900	0.02925
2584.77942	0.02856
2582.71983	0.02808
2580.66024	0.02774
2578.60066	0.02728
2576.54107	0.02655
2574.48149	0.02609
2572.42190	0.02622
2570.36232	0.02647
2568.30273	0.02643
2566.24315	0.02616
2564.18356	0.02583
2562.12398	0.02558
2560.06439	0.02542
2558.00481	0.02532
2555.94522	0.02513
2553.88564	0.02441
2551.82605	0.02354
2549.76647	0.02330
2547.70688	0.02348
2545.64730	0.02362
2543.58771	0.02369
2541.52813	0.02366
2539.46854	0.02334
2537.40896	0.02291
2535.34937	0.02273
2533.28979	0.02275
2531.23020	0.02289
2529.17062	0.02292
2527.11103	0.02267
2525.05144	0.02236
2522.99186	0.02236
2520.93227	0.02253
2518.87269	0.02237
2516.81310	0.02207
2514.75352	0.02208
2512.69393	0.02243
2510.63435	0.02267
2508.57476	0.02254
2506.51518	0.02235
2504.45559	0.02226
2502.39601	0.02199
2500.33642	0.02183
2498.27684	0.02199
2496.21725	0.02198
2494.15767	0.02193
2492.09808	0.02214
2490.03850	0.02230
2487.97891	0.02228
2485.91933	0.02207
2483.85974	0.02183
2481.80016	0.02175
2479.74057	0.02123
2477.68099	0.02047
2475.62140	0.02028
2473.56181	0.02037
2471.50223	0.02021
2469.44264	0.01985
2467.38306	0.01963
2465.32347	0.01964
2463.26389	0.01972
2461.20430	0.01986
2459.14472	0.01984
2457.08513	0.01957
2455.02555	0.01938
2452.96596	0.01936
2450.90638	0.01940
2448.84679	0.01945
2446.78721	0.01929
2444.72762	0.01901
2442.66804	0.01900
2440.60845	0.01904
2438.54887	0.01895
2436.48928	0.01908
2434.42970	0.01933
2432.37011	0.01936
2430.31053	0.01910
2428.25094	0.01874
2426.19136	0.01864
2424.13177	0.01878
2422.07219	0.01876
2420.01260	0.01837
2417.95301	0.01774
2415.89343	0.01738
2413.83384	0.01755
2411.77426	0.01770
2409.71467	0.01736
2407.65509	0.01695
2405.59550	0.01685
2403.53592	0.01697
2401.47633	0.01716
2399.41675	0.01455
2397.35716	0.01406
2395.29758	0.01504
2393.23799	0.01653
2391.17841	0.01813
2389.11882	0.01958
2387.05924	0.02116
2384.99965	0.02299
2382.94007	0.02450
2380.88048	0.02467
2378.82090	0.02312
2376.76131	0.02122
2374.70173	0.01771
2372.64214	0.01540
2370.58256	0.01522
2368.52297	0.01378
2366.46338	0.01358
2364.40380	0.01271
2362.34421	0.01290
2360.28463	0.01652
2358.22504	0.01668
2356.16546	0.01824
2354.10587	0.02094
2352.04629	0.02579
2349.98670	0.03556
2347.92712	0.03346
2345.86753	0.02453
2343.80795	0.02054
2341.74836	0.01589
2339.68878	0.01655
2337.62919	0.01825
2335.56961	0.01931
2333.51002	0.02353
2331.45044	0.02411
2329.39085	0.02670
2327.33127	0.02503
2325.27168	0.02289
2323.21210	0.01876
2321.15251	0.01595
2319.09293	0.01538
2317.03334	0.01618
2314.97376	0.01815
2312.91417	0.01882
2310.85458	0.01896
2308.79500	0.01943
2306.73541	0.01983
2304.67583	0.02066
2302.61624	0.02118
2300.55666	0.02133
2298.49707	0.02109
2296.43749	0.02103
2294.37790	0.02087
2292.31832	0.02082
2290.25873	0.02021
2288.19915	0.01915
2286.13956	0.01815
2284.07998	0.01748
2282.02039	0.01674
2279.96081	0.01615
2277.90122	0.01583
2275.84164	0.01541
2273.78205	0.01479
2271.72247	0.01427
2269.66288	0.01447
2267.60330	0.01512
2265.54371	0.01562
2263.48413	0.01554
2261.42454	0.01532
2259.36495	0.01531
2257.30537	0.01560
2255.24578	0.01600
2253.18620	0.01634
2251.12661	0.01646
2249.06703	0.01537
2247.00744	0.01577
2244.94786	0.01589
2242.88827	0.01606
2240.82869	0.01579
2238.76910	0.01525
2236.70952	0.01504
2234.64993	0.01475
2232.59035	0.01459
2230.53076	0.01480
2228.47118	0.01508
2226.41159	0.01524
2224.35201	0.01538
2222.29242	0.01558
2220.23284	0.01547
2218.17325	0.01450
2216.11367	0.01276
2214.05408	0.01208
2211.99450	0.01304
2209.93491	0.01377
2207.87533	0.01400
2205.81574	0.01457
2203.75615	0.01522
2201.69657	0.01550
2199.63698	0.01562
2197.57740	0.01547
2195.51781	0.01463
2193.45823	0.01413
2191.39864	0.01442
2189.33906	0.01483
2187.27947	0.01509
2185.21989	0.01521
2183.16030	0.01509
2181.10072	0.01478
2179.04113	0.01462
2176.98155	0.01427
2174.92196	0.01413
2172.86238	0.01480
2170.80279	0.01535
2168.74321	0.01502
2166.68362	0.01455
2164.62404	0.01428
2162.56445	0.01379
2160.50487	0.01313
2158.44528	0.01287
2156.38570	0.01294
2154.32611	0.01278
2152.26652	0.01303
2150.20694	0.01326
2148.14735	0.01288
2146.08777	0.01318
2144.02818	0.01433
2141.96860	0.01520
2139.90901	0.01537
2137.84943	0.01521
2135.78984	0.01512
2133.73026	0.01489
2131.67067	0.01481
2129.61109	0.01565
2127.55150	0.01685
2125.49192	0.01752
2123.43233	0.01768
2121.37275	0.01760
2119.31316	0.01735
2117.25358	0.01712
2115.19399	0.01737
2113.13441	0.01786
2111.07482	0.01798
2109.01524	0.01789
2106.95565	0.01778
2104.89607	0.01763
2102.83648	0.01764
2100.77690	0.01783
2098.71731	0.01768
2096.65772	0.01737
2094.59814	0.01716
2092.53855	0.01699
2090.47897	0.01667
2088.41938	0.01664
2086.35980	0.01688
2084.30021	0.01679
2082.24063	0.01646
2080.18104	0.01665
2078.12146	0.01714
2076.06187	0.01678
2074.00229	0.01551
2071.94270	0.01458
2069.88312	0.01473
2067.82353	0.01533
2065.76395	0.01525
2063.70436	0.01470
2061.64478	0.01497
2059.58519	0.01580
2057.52561	0.01585
2055.46602	0.01537
2053.40644	0.01551
2051.34685	0.01578
2049.28727	0.01497
2047.22768	0.01367
2045.16810	0.01279
2043.10851	0.01230
2041.04892	0.01226
2038.98934	0.01204
2036.92975	0.01104
2034.87017	0.01033
2032.81058	0.01077
2030.75100	0.01100
2028.69141	0.01018
2026.63183	0.01008
2024.57224	0.01114
2022.51266	0.01189
2020.45307	0.01161
2018.39349	0.01081
2016.33390	0.01026
2014.27432	0.01039
2012.21473	0.01079
2010.15515	0.01080
2008.09556	0.01076
2006.03598	0.01107
2003.97639	0.01140
2001.91681	0.01151
1999.85722	0.01151
1997.79764	0.01159
1995.73805	0.01197
1993.67847	0.01233
1991.61888	0.01177
1989.55929	0.01059
1987.49971	0.01015
1985.44012	0.01073
1983.38054	0.01179
1981.32095	0.01213
1979.26137	0.01115
1977.20178	0.00973
1975.14220	0.00940
1973.08261	0.01053
1971.02303	0.01203
1968.96344	0.01253
1966.90386	0.01146
1964.84427	0.01018
1962.78469	0.01008
1960.72510	0.01056
1958.66552	0.01119
1956.60593	0.01167
1954.54635	0.01185
1952.48676	0.01191
1950.42718	0.01157
1948.36759	0.01096
1946.30801	0.01062
1944.24842	0.01088
1942.18884	0.01107
1940.12925	0.01102
1938.06967	0.01203
1936.01008	0.01303
1933.95049	0.01294
1931.89091	0.01254
1929.83132	0.01230
1927.77174	0.01186
1925.71215	0.01188
1923.65257	0.01277
1921.59298	0.01313
1919.53340	0.01367
1917.47381	0.01389
1915.41423	0.01280
1913.35464	0.01254
1911.29506	0.01339
1909.23547	0.01421
1907.17589	0.01430
1905.11630	0.01423
1903.05672	0.01432
1900.99713	0.01433
1898.93755	0.01418
1896.87796	0.01423
1894.81838	0.01439
1892.75879	0.01426
1890.69921	0.01458
1888.63962	0.01461
1886.58004	0.01423
1884.52045	0.01448
1882.46086	0.01477
1880.40128	0.01472
1878.34169	0.01446
1876.28211	0.01435
1874.22252	0.01422
1872.16294	0.01417
1870.10335	0.01507
1868.04377	0.01552
1865.98418	0.01477
1863.92460	0.01450
1861.86501	0.01458
1859.80543	0.01449
1857.74584	0.01448
1855.68626	0.01474
1853.62667	0.01502
1851.56709	0.01507
1849.50750	0.01495
1847.44792	0.01509
1845.38833	0.01631
1843.32875	0.01676
1841.26916	0.01577
1839.20958	0.01563
1837.14999	0.01595
1835.09041	0.01592
1833.03082	0.01625
1830.97124	0.01728
1828.91165	0.01729
1826.85206	0.01700
1824.79248	0.01744
1822.73289	0.01718
1820.67331	0.01701
1818.61372	0.01737
1816.55414	0.01751
1814.49455	0.01753
1812.43497	0.01822
1810.37538	0.01906
1808.31580	0.01921
1806.25621	0.01905
1804.19663	0.01930
1802.13704	0.02014
1800.07746	0.02056
1798.01787	0.02015
1795.95829	0.02016
1793.89870	0.02150
1791.83912	0.02238
1789.77953	0.02144
1787.71995	0.02121
1785.66036	0.02221
1783.60078	0.02281
1781.54119	0.02319
1779.48161	0.02319
1777.42202	0.02270
1775.36243	0.02299
1773.30285	0.02437
1771.24326	0.02488
1769.18368	0.02477
1767.12409	0.02491
1765.06451	0.02505
1763.00492	0.02636
1760.94534	0.02720
1758.88575	0.02742
1756.82617	0.02793
1754.76658	0.02769
1752.70700	0.02866
1750.64741	0.03065
1748.58783	0.03121
1746.52824	0.03108
1744.46866	0.03143
1742.40907	0.03238
1740.34949	0.03338
1738.28990	0.03318
1736.23032	0.03473
1734.17073	0.03835
1732.11115	0.03890
1730.05156	0.03903
1727.99198	0.04043
1725.93239	0.04251
1723.87281	0.04494
1721.81322	0.04708
1719.75363	0.05154
1717.69405	0.05878
1715.63446	0.06552
1713.57488	0.07216
1711.51529	0.08049
1709.45571	0.09150
1707.39612	0.10604
1705.33654	0.12282
1703.27695	0.14004
1701.21737	0.16235
1699.15778	0.18768
1697.09820	0.21226
1695.03861	0.23613
1692.97903	0.25600
1690.91944	0.27517
1688.85986	0.29465
1686.80027	0.31583
1684.74069	0.34486
1682.68110	0.37502
1680.62152	0.39846
1678.56193	0.42047
1676.50235	0.44749
1674.44276	0.47804
1672.38318	0.50782
1670.32359	0.54184
1668.26401	0.57838
1666.20442	0.61032
1664.14483	0.64445
1662.08525	0.68505
1660.02566	0.72318
1657.96608	0.75395
1655.90649	0.78639
1653.84691	0.83561
1651.78732	0.88808
1649.72774	0.92162
1647.66815	0.95390
1645.60857	0.99042
1643.54898	1.01611
1641.48940	1.03055
1639.42981	1.03902
1637.37023	1.04409
1635.31064	1.04211
1633.25106	1.02685
1631.19147	1.00247
1629.13189	0.97078
1627.07230	0.93064
1625.01272	0.88407
1622.95313	0.83229
1620.89355	0.78075
1618.83396	0.73437
1616.77438	0.68592
1614.71479	0.63512
1612.65520	0.58916
1610.59562	0.54423
1608.53603	0.49748
1606.47645	0.45383
1604.41686	0.41756
1602.35728	0.38904
1600.29769	0.36751
1598.23811	0.35166
1596.17852	0.33904
1594.11894	0.32740
1592.05935	0.31674
1589.99977	0.30830
1587.94018	0.30311
1585.88060	0.30169
1583.82101	0.30388
1581.76143	0.30861
1579.70184	0.31581
1577.64226	0.32839
1575.58267	0.34489
1573.52309	0.35969
1571.46350	0.37703
1569.40392	0.40016
1567.34433	0.42353
1565.28475	0.44498
1563.22516	0.46453
1561.16558	0.48903
1559.10599	0.52742
1557.04640	0.56544
1554.98682	0.59342
1552.92723	0.61956
1550.86765	0.64752
1548.80806	0.67507
1546.74848	0.69989
1544.68889	0.72425
1542.62931	0.75199
1540.56972	0.78580
1538.51014	0.81488
1536.45055	0.83182
1534.39097	0.84860
1532.33138	0.86682
1530.27180	0.88015
1528.21221	0.89076
1526.15263	0.90030
1524.09304	0.90938
1522.03346	0.92318
1519.97387	0.94176
1517.91429	0.96348
1515.85470	0.98403
1513.79512	0.99307
1511.73553	0.98776
1509.67595	0.97191
1507.61636	0.94498
1505.55677	0.90484
1503.49719	0.86363
1501.43760	0.82557
1499.37802	0.78292
1497.31843	0.73208
1495.25885	0.67923
1493.19926	0.63304
1491.13968	0.59025
1489.08009	0.54412
1487.02051	0.50037
1484.96092	0.46495
1482.90134	0.43610
1480.84175	0.41092
1478.78217	0.38978
1476.72258	0.37372
1474.66300	0.36226
1472.60341	0.35427
1470.54383	0.34776
1468.48424	0.34462
1466.42466	0.34665
1464.36507	0.35147
1462.30549	0.35636
1460.24590	0.36405
1458.18632	0.37777
1456.12673	0.39182
1454.06715	0.39883
1452.00756	0.40121
1449.94797	0.40057
1447.88839	0.39534
1445.82880	0.38464
1443.76922	0.37056
1441.70963	0.35503
1439.65005	0.33998
1437.59046	0.32640
1435.53088	0.31274
1433.47129	0.30191
1431.41171	0.29651
1429.35212	0.29437
1427.29254	0.29459
1425.23295	0.29821
1423.17337	0.30436
1421.11378	0.31339
1419.05420	0.32561
1416.99461	0.33645
1414.93503	0.34424
1412.87544	0.34996
1410.81586	0.35287
1408.75627	0.35180
1406.69669	0.34689
1404.63710	0.33837
1402.57752	0.32796
1400.51793	0.31910
1398.45834	0.31273
1396.39876	0.30954
1394.33917	0.30973
1392.27959	0.31156
1390.22000	0.31524
1388.16042	0.32088
1386.10083	0.32610
1384.04125	0.32959
1381.98166	0.33194
1379.92208	0.33292
1377.86249	0.33203
1375.80291	0.32915
1373.74332	0.32349
1371.68374	0.31461
1369.62415	0.30376
1367.56457	0.29150
1365.50498	0.27921
1363.44540	0.26800
1361.38581	0.25748
1359.32623	0.24883
1357.26664	0.24319
1355.20706	0.24013
1353.14747	0.23926
1351.08789	0.24071
1349.02830	0.24451
1346.96872	0.25026
1344.90913	0.25736
1342.84954	0.26547
1340.78996	0.27463
1338.73037	0.28333
1336.67079	0.28944
1334.61120	0.29263
1332.55162	0.29307
1330.49203	0.29057
1328.43245	0.28517
1326.37286	0.27753
1324.31328	0.26878
1322.25369	0.26043
1320.19411	0.25386
1318.13452	0.24937
1316.07494	0.24684
1314.01535	0.24621
1311.95577	0.24683
1309.89618	0.24823
1307.83660	0.25033
1305.77701	0.25277
1303.71743	0.25533
1301.65784	0.25803
1299.59826	0.26089
1297.53867	0.26388
1295.47909	0.26698
1293.41950	0.27007
1291.35991	0.27299
1289.30033	0.27574
1287.24074	0.27838
1285.18116	0.28111
1283.12157	0.28417
1281.06199	0.28792
1279.00240	0.29266
1276.94282	0.29845
1274.88323	0.30508
1272.82365	0.31226
1270.76406	0.31960
1268.70448	0.32673
1266.64489	0.33362
1264.58531	0.34034
1262.52572	0.34712
1260.46614	0.35421
1258.40655	0.36171
1256.34697	0.36975
1254.28738	0.37846
1252.22780	0.38783
1250.16821	0.39781
1248.10863	0.40822
1246.04904	0.41875
1243.98946	0.42908
1241.92987	0.43897
1239.87029	0.44816
1237.81070	0.45596
1235.75111	0.46145
1233.69153	0.46428
1231.63194	0.46429
1229.57236	0.46101
1227.51277	0.45412
1225.45319	0.44367
1223.39360	0.42995
1221.33402	0.41334
1219.27443	0.39444
1217.21485	0.37426
1215.15526	0.35381
1213.09568	0.33375
1211.03609	0.31463
1208.97651	0.29690
1206.91692	0.28060
1204.85734	0.26537
1202.79775	0.25113
1200.73817	0.23815
1198.67858	0.22670
1196.61900	0.21722
1194.55941	0.20972
1192.49983	0.20376
1190.44024	0.19919
1188.38066	0.19608
1186.32107	0.19447
1184.26149	0.19451
1182.20190	0.19639
1180.14231	0.20016
1178.08273	0.20559
1176.02314	0.21196
1173.96356	0.21792
1171.90397	0.22213
1169.84439	0.22412
1167.78480	0.22440
1165.72522	0.22370
1163.66563	0.22225
1161.60605	0.21981
1159.54646	0.21629
1157.48688	0.21204
1155.42729	0.20729
1153.36771	0.20206
1151.30812	0.19644
1149.24854	0.19064
1147.18895	0.18503
1145.12937	0.17994
1143.06978	0.17538
1141.01020	0.17134
1138.95061	0.16797
1136.89103	0.16524
1134.83144	0.16287
1132.77186	0.16077
1130.71227	0.15910
1128.65268	0.15794
1126.59310	0.15710
1124.53351	0.15646
1122.47393	0.15613
1120.41434	0.15611
1118.35476	0.15613
1116.29517	0.15599
1114.23559	0.15586
1112.17600	0.15604
1110.11642	0.15653
1108.05683	0.15713
1105.99725	0.15742
1103.93766	0.15693
1101.87808	0.15537
1099.81849	0.15288
1097.75891	0.15026
1095.69932	0.14851
1093.63974	0.14821
1091.58015	0.14950
1089.52057	0.15218
1087.46098	0.15590
1085.40140	0.16048
1083.34181	0.16572
1081.28223	0.17121
1079.22264	0.17658
1077.16306	0.18138
1075.10347	0.18529
1073.04388	0.18835
1070.98430	0.19051
1068.92471	0.19164
1066.86513	0.19198
1064.80554	0.19221
1062.74596	0.19291
1060.68637	0.19413
1058.62679	0.19536
1056.56720	0.19604
1054.50762	0.19550
1052.44803	0.19315
1050.38845	0.18907
1048.32886	0.18371
1046.26928	0.17780
1044.20969	0.17202
1042.15011	0.16673
1040.09052	0.16211
1038.03094	0.15830
1035.97135	0.15536
1033.91177	0.15328
1031.85218	0.15183
1029.79260	0.15062
1027.73301	0.14950
1025.67343	0.14882
1023.61384	0.14954
1021.55425	0.15282
1019.49467	0.15893
1017.43508	0.16618
1015.37550	0.17160
1013.31591	0.17286
1011.25633	0.16943
1009.19674	0.16222
1007.13716	0.15276
1005.07757	0.14256
1003.01799	0.13274
1000.95840	0.12406
998.89882	0.11671
996.83923	0.11038
994.77965	0.10475
992.72006	0.09974
990.66048	0.09534
988.60089	0.09148
986.54131	0.08831
984.48172	0.08614
982.42214	0.08486
980.36255	0.08415
978.30297	0.08388
976.24338	0.08387
974.18380	0.08389
972.12421	0.08395
970.06463	0.08429
968.00504	0.08503
965.94545	0.08614
963.88587	0.08756
961.82628	0.08914
959.76670	0.09063
957.70711	0.09193
955.64753	0.09322
953.58794	0.09449
951.52836	0.09553
949.46877	0.09625
947.40919	0.09658
945.34960	0.09631
943.29002	0.09544
941.23043	0.09426
939.17085	0.09292
937.11126	0.09156
935.05168	0.09023
932.99209	0.08884
930.93251	0.08739
928.87292	0.08589
926.81334	0.08429
924.75375	0.08260
922.69417	0.08079
920.63458	0.07887
918.57500	0.07704
916.51541	0.07529
914.45582	0.07359
912.39624	0.07203
910.33665	0.07071
908.27707	0.06965
906.21748	0.06877
904.15790	0.06800
902.09831	0.06750
900.03873	0.06724
897.97914	0.06694
895.91956	0.06646
893.85997	0.06595
891.80039	0.06559
889.74080	0.06528
887.68122	0.06503
885.62163	0.06502
883.56205	0.06527
881.50246	0.06568
879.44288	0.06615
877.38329	0.06656
875.32371	0.06691
873.26412	0.06739
871.20454	0.06818
869.14495	0.06938
867.08537	0.07091
865.02578	0.07273
862.96620	0.07490
860.90661	0.07734
858.84702	0.07983
856.78744	0.08229
854.72785	0.08458
852.66827	0.08637
850.60868	0.08733
848.54910	0.08752
846.48951	0.08745
844.42993	0.08765
842.37034	0.08852
840.31076	0.08999
838.25117	0.09169
836.19159	0.09342
834.13200	0.09501
832.07242	0.09623
830.01283	0.09693
827.95325	0.09711
825.89366	0.09679
823.83408	0.09619
821.77449	0.09575
819.71491	0.09552
817.65532	0.09542
815.59574	0.09578
813.53615	0.09673
811.47657	0.09801
809.41698	0.09932
807.35740	0.10069
805.29781	0.10202
803.23822	0.10297
801.17864	0.10352
799.11905	0.10391
797.05947	0.10435
794.99988	0.10488
792.94030	0.10556
790.88071	0.10652
788.82113	0.10778
786.76154	0.10918
784.70196	0.11057
782.64237	0.11185
780.58279	0.11309
778.52320	0.11437
776.46362	0.11569
774.40403	0.11706
772.34445	0.11839
770.28486	0.11980
768.22528	0.12141
766.16569	0.12299
764.10611	0.12446
762.04652	0.12599
759.98694	0.12766
757.92735	0.12949
755.86777	0.13146
753.80818	0.13353
751.74859	0.13562
749.68901	0.13783
747.62942	0.14020
745.56984	0.14248
743.51025	0.14455
741.45067	0.14653
739.39108	0.14844
737.33150	0.15012
735.27191	0.15171
733.21233	0.15344
731.15274	0.15532
729.09316	0.15728
727.03357	0.15925
724.97399	0.16127
722.91440	0.16308
720.85482	0.16476
718.79523	0.16706
716.73565	0.16876
714.67606	0.17035
712.61648	0.17213
710.55689	0.17421
708.49731	0.17667
706.43772	0.17930
704.37814	0.18181
702.31855	0.18406
700.25897	0.18610
698.19938	0.18804
696.13979	0.18995
694.08021	0.19187
692.02062	0.19360
689.96104	0.19512
687.90145	0.19669
685.84187	0.19831
683.78228	0.19986
681.72270	0.20153
679.66311	0.20347
677.60353	0.20533
675.54394	0.20683
673.48436	0.20779
671.42477	0.20966
669.36519	0.21246
667.30560	0.20560
665.24602	0.21229
663.18643	0.21405
661.12685	0.21429
659.06726	0.21466
657.00768	0.21474
654.94809	0.21469
652.88851	0.21493
650.82892	0.21543
648.76934	0.21553
646.70975	0.21557
644.65016	0.21545
642.59058	0.21541
640.53099	0.21547
638.47141	0.21538
636.41182	0.21505
634.35224	0.21456
632.29265	0.21415
630.23307	0.21393
628.17348	0.21376
626.11390	0.21353
624.05431	0.21329
621.99473	0.21295
619.93514	0.21264
617.87556	0.21250
615.81597	0.21228
613.75639	0.21197
611.69680	0.21170
609.63722	0.21141
607.57763	0.21132
605.51805	0.21142
603.45846	0.21150
601.39888	0.21166
599.33929	0.21191
597.27971	0.21216
595.22012	0.21250
593.16054	0.21298
591.10095	0.21345
589.04136	0.21391
586.98178	0.21478
584.92219	0.21607
582.86261	0.21746
580.80302	0.21851
578.74344	0.21924
576.68385	0.22058
574.62427	0.22266
572.56468	0.22439
570.50510	0.22555
568.44551	0.22688
566.38593	0.22845
564.32634	0.23006
562.26676	0.23202
560.20717	0.23443
558.14759	0.23671
556.08800	0.23847
554.02842	0.24013
551.96883	0.24209
549.90925	0.24394
547.84966	0.24510
545.79008	0.24583
543.73049	0.24655
541.67091	0.24697
539.61132	0.24672
537.55173	0.24607
535.49215	0.24550
533.43256	0.24492
531.37298	0.24403
529.31339	0.24289
527.25381	0.24183
525.19422	0.24070
523.13464	0.23960
521.07505	0.23909
519.01547	0.23898
516.95588	0.23879
514.89630	0.23839
512.83671	0.23779
510.77713	0.23699
508.71754	0.23620
506.65796	0.23560
504.59837	0.23520
502.53879	0.23443
500.47920	0.23263
498.41962	0.23066
496.36003	0.22941
494.30045	0.22869
492.24086	0.22795
490.18128	0.22704
488.12169	0.22597
486.06211	0.22458
484.00252	0.22292
481.94293	0.22104
479.88335	0.21898
477.82376	0.21669
475.76418	0.21438
473.70459	0.21275
471.64501	0.21146
469.58542	0.20977
467.52584	0.20750
465.46625	0.20502
463.40667	0.20291
461.34708	0.20118
459.28750	0.19993
457.22791	0.19856
455.16833	0.19661
453.10874	0.19484
451.04916	0.19309
448.98957	0.19101
446.92999	0.18886
444.87040	0.18710
442.81082	0.18564
440.75123	0.18391
438.69165	0.18221
436.63206	0.18110
434.57248	0.17996
432.51289	0.17859
430.45330	0.17753
428.39372	0.17670
426.33413	0.17578
424.27455	0.17463
422.21496	0.17331
420.15538	0.17266
418.09579	0.17281
416.03621	0.17271
413.97662	0.17193
411.91704	0.17063
409.85745	0.16910
407.79787	0.16755
405.73828	0.16641
403.67870	0.16576
401.61911	0.16549
399.55953	0.16555
