3997.65486	0.05239
3995.59527	0.05271
3993.53569	0.05270
3991.47610	0.05245
3989.41652	0.05218
3987.35693	0.05189
3985.29735	0.05169
3983.23776	0.05144
3981.17817	0.05085
3979.11859	0.05033
3977.05900	0.05056
3974.99942	0.05116
3972.93983	0.05140
3970.88025	0.05144
3968.82066	0.05144
3966.76108	0.05102
3964.70149	0.05052
3962.64191	0.05065
3960.58232	0.05098
3958.52274	0.05082
3956.46315	0.05052
3954.40357	0.05060
3952.34398	0.05093
3950.28440	0.05122
3948.22481	0.05124
3946.16523	0.05085
3944.10564	0.05060
3942.04606	0.05106
3939.98647	0.05152
3937.92689	0.05120
3935.86730	0.05080
3933.80772	0.05128
3931.74813	0.05207
3929.68855	0.05196
3927.62896	0.05118
3925.56937	0.05078
3923.50979	0.05075
3921.45020	0.05061
3919.39062	0.05074
3917.33103	0.05132
3915.27145	0.05160
3913.21186	0.05114
3911.15228	0.05039
3909.09269	0.04991
3907.03311	0.05003
3904.97352	0.05062
3902.91394	0.05100
3900.85435	0.05063
3898.79477	0.05004
3896.73518	0.04998
3894.67560	0.05022
3892.61601	0.05026
3890.55643	0.05005
3888.49684	0.04983
3886.43726	0.04994
3884.37767	0.05016
3882.31809	0.05006
3880.25850	0.04999
3878.19892	0.04994
3876.13933	0.04989
3874.07974	0.05019
3872.02016	0.05041
3869.96057	0.05027
3867.90099	0.05044
3865.84140	0.05100
3863.78182	0.05147
3861.72223	0.05131
3859.66265	0.05063
3857.60306	0.05009
3855.54348	0.04969
3853.48389	0.04902
3851.42431	0.04866
3849.36472	0.04910
3847.30514	0.04963
3845.24555	0.04954
3843.18597	0.04937
3841.12638	0.04932
3839.06680	0.04881
3837.00721	0.04801
3834.94763	0.04771
3832.88804	0.04799
3830.82846	0.04826
3828.76887	0.04833
3826.70929	0.04831
3824.64970	0.04789
3822.59012	0.04724
3820.53053	0.04753
3818.47094	0.04835
3816.41136	0.04860
3814.35177	0.04862
3812.29219	0.04852
3810.23260	0.04788
3808.17302	0.04726
3806.11343	0.04745
3804.05385	0.04791
3801.99426	0.04804
3799.93468	0.04777
3797.87509	0.04722
3795.81551	0.04696
3793.75592	0.04705
3791.69634	0.04691
3789.63675	0.04648
3787.57717	0.04638
3785.51758	0.04660
3783.45800	0.04660
3781.39841	0.04648
3779.33883	0.04670
3777.27924	0.04716
3775.21966	0.04742
3773.16007	0.04718
3771.10049	0.04664
3769.04090	0.04624
3766.98132	0.04612
3764.92173	0.04607
3762.86214	0.04611
3760.80256	0.04642
3758.74297	0.04698
3756.68339	0.04755
3754.62380	0.04766
3752.56422	0.04672
3750.50463	0.04537
3748.44505	0.04539
3746.38546	0.04685
3744.32588	0.04836
3742.26629	0.04837
3740.20671	0.04748
3738.14712	0.04733
3736.08754	0.04859
3734.02795	0.04977
3731.96837	0.04923
3729.90878	0.04834
3727.84920	0.04844
3725.78961	0.04863
3723.73003	0.04806
3721.67044	0.04721
3719.61086	0.04643
3717.55127	0.04591
3715.49169	0.04570
3713.43210	0.04528
3711.37251	0.04478
3709.31293	0.04464
3707.25334	0.04524
3705.19376	0.04578
3703.13417	0.04572
3701.07459	0.04577
3699.01500	0.04610
3696.95542	0.04587
3694.89583	0.04492
3692.83625	0.04383
3690.77666	0.04339
3688.71708	0.04365
3686.65749	0.04419
3684.59791	0.04456
3682.53832	0.04456
3680.47874	0.04443
3678.41915	0.04448
3676.35957	0.04501
3674.29998	0.04562
3672.24040	0.04545
3670.18081	0.04493
3668.12123	0.04502
3666.06164	0.04545
3664.00206	0.04552
3661.94247	0.04509
3659.88289	0.04431
3657.82330	0.04391
3655.76371	0.04452
3653.70413	0.04528
3651.64454	0.04566
3649.58496	0.04645
3647.52537	0.04739
3645.46579	0.04728
3643.40620	0.04666
3641.34662	0.04619
3639.28703	0.04604
3637.22745	0.04633
3635.16786	0.04654
3633.10828	0.04614
3631.04869	0.04607
3628.98911	0.04730
3626.92952	0.04846
3624.86994	0.04834
3622.81035	0.04787
3620.75077	0.04776
3618.69118	0.04804
3616.63160	0.04844
3614.57201	0.04898
3612.51243	0.04960
3610.45284	0.04996
3608.39326	0.04996
3606.33367	0.04982
3604.27408	0.05019
3602.21450	0.05113
3600.15491	0.05180
3598.09533	0.05176
3596.03574	0.05176
3593.97616	0.05210
3591.91657	0.05229
3589.85699	0.05217
3587.79740	0.05242
3585.73782	0.05296
3583.67823	0.05323
3581.61865	0.05342
3579.55906	0.05380
3577.49948	0.05390
3575.43989	0.05361
3573.38031	0.05383
3571.32072	0.05492
3569.26114	0.05649
3567.20155	0.05795
3565.14197	0.05819
3563.08238	0.05736
3561.02280	0.05682
3558.96321	0.05675
3556.90363	0.05682
3554.84404	0.05733
3552.78446	0.05812
3550.72487	0.05852
3548.66528	0.05895
3546.60570	0.05993
3544.54611	0.06054
3542.48653	0.06014
3540.42694	0.05959
3538.36736	0.05963
3536.30777	0.06032
3534.24819	0.06122
3532.18860	0.06179
3530.12902	0.06192
3528.06943	0.06201
3526.00985	0.06252
3523.95026	0.06335
3521.89068	0.06417
3519.83109	0.06450
3517.77151	0.06420
3515.71192	0.06403
3513.65234	0.06455
3511.59275	0.06519
3509.53317	0.06545
3507.47358	0.06570
3505.41400	0.06612
3503.35441	0.06667
3501.29483	0.06726
3499.23524	0.06720
3497.17565	0.06639
3495.11607	0.06613
3493.05648	0.06712
3490.99690	0.06839
3488.93731	0.06885
3486.87773	0.06830
3484.81814	0.06776
3482.75856	0.06839
3480.69897	0.06962
3478.63939	0.07024
3476.57980	0.07030
3474.52022	0.07034
3472.46063	0.07051
3470.40105	0.07051
3468.34146	0.07027
3466.28188	0.07022
3464.22229	0.07081
3462.16271	0.07163
3460.10312	0.07194
3458.04354	0.07192
3455.98395	0.07204
3453.92437	0.07238
3451.86478	0.07261
3449.80520	0.07255
3447.74561	0.07252
3445.68603	0.07277
3443.62644	0.07310
3441.56685	0.07337
3439.50727	0.07382
3437.44768	0.07438
3435.38810	0.07481
3433.32851	0.07528
3431.26893	0.07582
3429.20934	0.07602
3427.14976	0.07601
3425.09017	0.07623
3423.03059	0.07674
3420.97100	0.07758
3418.91142	0.07868
3416.85183	0.07953
3414.79225	0.07999
3412.73266	0.08036
3410.67308	0.08094
3408.61349	0.08166
3406.55391	0.08186
3404.49432	0.08161
3402.43474	0.08200
3400.37515	0.08322
3398.31557	0.08429
3396.25598	0.08468
3394.19640	0.08535
3392.13681	0.08621
3390.07723	0.08655
3388.01764	0.08682
3385.95805	0.08777
3383.89847	0.08914
3381.83888	0.09022
3379.77930	0.09066
3377.71971	0.09093
3375.66013	0.09162
3373.60054	0.09262
3371.54096	0.09379
3369.48137	0.09518
3367.42179	0.09645
3365.36220	0.09715
3363.30262	0.09739
3361.24303	0.09779
3359.18345	0.09866
3357.12386	0.09969
3355.06428	0.10060
3353.00469	0.10133
3350.94511	0.10201
3348.88552	0.10280
3346.82594	0.10370
3344.76635	0.10502
3342.70677	0.10679
3340.64718	0.10848
3338.58760	0.10988
3336.52801	0.11080
3334.46842	0.11138
3332.40884	0.11234
3330.34925	0.11378
3328.28967	0.11503
3326.23008	0.11604
3324.17050	0.11718
3322.11091	0.11824
3320.05133	0.11917
3317.99174	0.12031
3315.93216	0.12157
3313.87257	0.12273
3311.81299	0.12413
3309.75340	0.12561
3307.69382	0.12661
3305.63423	0.12754
3303.57465	0.12888
3301.51506	0.13017
3299.45548	0.13114
3297.39589	0.13194
3295.33631	0.13281
3293.27672	0.13393
3291.21714	0.13485
3289.15755	0.13539
3287.09797	0.13606
3285.03838	0.13667
3282.97880	0.13683
3280.91921	0.13702
3278.85962	0.13744
3276.80004	0.13782
3274.74045	0.13822
3272.68087	0.13874
3270.62128	0.13897
3268.56170	0.13851
3266.50211	0.13769
3264.44253	0.13697
3262.38294	0.13645
3260.32336	0.13616
3258.26377	0.13593
3256.20419	0.13527
3254.14460	0.13417
3252.08502	0.13338
3250.02543	0.13269
3247.96585	0.13166
3245.90626	0.13080
3243.84668	0.13004
3241.78709	0.12891
3239.72751	0.12783
3237.66792	0.12713
3235.60834	0.12675
3233.54875	0.12636
3231.48917	0.12565
3229.42958	0.12454
3227.36999	0.12320
3225.31041	0.12216
3223.25082	0.12166
3221.19124	0.12133
3219.13165	0.12093
3217.07207	0.12027
3215.01248	0.11915
3212.95290	0.11789
3210.89331	0.11667
3208.83373	0.11550
3206.77414	0.11474
3204.71456	0.11416
3202.65497	0.11319
3200.59539	0.11224
3198.53580	0.11157
3196.47622	0.11062
3194.41663	0.10947
3192.35705	0.10850
3190.29746	0.10736
3188.23788	0.10602
3186.17829	0.10499
3184.11871	0.10422
3182.05912	0.10344
3179.99954	0.10273
3177.93995	0.10202
3175.88037	0.10110
3173.82078	0.09997
3171.76119	0.09878
3169.70161	0.09767
3167.64202	0.09659
3165.58244	0.09556
3163.52285	0.09461
3161.46327	0.09379
3159.40368	0.09314
3157.34410	0.09252
3155.28451	0.09169
3153.22493	0.09060
3151.16534	0.08943
3149.10576	0.08837
3147.04617	0.08760
3144.98659	0.08712
3142.92700	0.08669
3140.86742	0.08613
3138.80783	0.08560
3136.74825	0.08521
3134.68866	0.08486
3132.62908	0.08455
3130.56949	0.08437
3128.50991	0.08420
3126.45032	0.08392
3124.39074	0.08370
3122.33115	0.08378
3120.27156	0.08384
3118.21198	0.08352
3116.15239	0.08323
3114.09281	0.08323
3112.03322	0.08319
3109.97364	0.08293
3107.91405	0.08291
3105.85447	0.08340
3103.79488	0.08393
3101.73530	0.08401
3099.67571	0.08382
3097.61613	0.08385
3095.55654	0.08423
3093.49696	0.08450
3091.43737	0.08462
3089.37779	0.08503
3087.31820	0.08579
3085.25862	0.08653
3083.19903	0.08695
3081.13945	0.08717
3079.07986	0.08734
3077.02028	0.08744
3074.96069	0.08740
3072.90111	0.08719
3070.84152	0.08698
3068.78194	0.08705
3066.72235	0.08733
3064.66276	0.08735
3062.60318	0.08677
3060.54359	0.08614
3058.48401	0.08617
3056.42442	0.08637
3054.36484	0.08582
3052.30525	0.08483
3050.24567	0.08412
3048.18608	0.08375
3046.12650	0.08349
3044.06691	0.08305
3042.00733	0.08227
3039.94774	0.08130
3037.88816	0.08033
3035.82857	0.07957
3033.76899	0.07888
3031.70940	0.07827
3029.64982	0.07807
3027.59023	0.07806
3025.53065	0.07775
3023.47106	0.07701
3021.41148	0.07630
3019.35189	0.07592
3017.29231	0.07557
3015.23272	0.07509
3013.17313	0.07463
3011.11355	0.07424
3009.05396	0.07380
3006.99438	0.07328
3004.93479	0.07290
3002.87521	0.07261
3000.81562	0.07235
2998.75604	0.07203
2996.69645	0.07185
2994.63687	0.07240
2992.57728	0.07354
2990.51770	0.07429
2988.45811	0.07433
2986.39853	0.07418
2984.33894	0.07446
2982.27936	0.07531
2980.21977	0.07612
2978.16019	0.07634
2976.10060	0.07591
2974.04102	0.07512
2971.98143	0.07446
2969.92185	0.07411
2967.86226	0.07417
2965.80268	0.07441
2963.74309	0.07420
2961.68351	0.07360
2959.62392	0.07334
2957.56433	0.07352
2955.50475	0.07371
2953.44516	0.07400
2951.38558	0.07438
2949.32599	0.07464
2947.26641	0.07516
2945.20682	0.07614
2943.14724	0.07700
2941.08765	0.07752
2939.02807	0.07814
2936.96848	0.07883
2934.90890	0.07910
2932.84931	0.07899
2930.78973	0.07874
2928.73014	0.07829
2926.67056	0.07759
2924.61097	0.07688
2922.55139	0.07653
2920.49180	0.07630
2918.43222	0.07578
2916.37263	0.07483
2914.31305	0.07352
2912.25346	0.07218
2910.19388	0.07108
2908.13429	0.07027
2906.07471	0.06971
2904.01512	0.06921
2901.95553	0.06860
2899.89595	0.06804
2897.83636	0.06763
2895.77678	0.06724
2893.71719	0.06669
2891.65761	0.06621
2889.59802	0.06610
2887.53844	0.06618
2885.47885	0.06619
2883.41927	0.06613
2881.35968	0.06596
2879.30010	0.06581
2877.24051	0.06590
2875.18093	0.06579
2873.12134	0.06515
2871.06176	0.06435
2869.00217	0.06374
2866.94259	0.06346
2864.88300	0.06338
2862.82342	0.06320
2860.76383	0.06280
2858.70425	0.06238
2856.64466	0.06210
2854.58508	0.06194
2852.52549	0.06187
2850.46590	0.06180
2848.40632	0.06166
2846.34673	0.06128
2844.28715	0.06073
2842.22756	0.06039
2840.16798	0.06012
2838.10839	0.05983
2836.04881	0.05955
2833.98922	0.05915
2831.92964	0.05893
2829.87005	0.05910
2827.81047	0.05916
2825.75088	0.05897
2823.69130	0.05874
2821.63171	0.05850
2819.57213	0.05830
2817.51254	0.05823
2815.45296	0.05819
2813.39337	0.05814
2811.33379	0.05817
2809.27420	0.05817
2807.21462	0.05794
2805.15503	0.05766
2803.09545	0.05742
2801.03586	0.05708
2798.97628	0.05674
2796.91669	0.05663
2794.85710	0.05649
2792.79752	0.05610
2790.73793	0.05591
2788.67835	0.05597
2786.61876	0.05576
2784.55918	0.05516
2782.49959	0.05452
2780.44001	0.05415
2778.38042	0.05393
2776.32084	0.05368
2774.26125	0.05344
2772.20167	0.05330
2770.14208	0.05326
2768.08250	0.05317
2766.02291	0.05296
2763.96333	0.05281
2761.90374	0.05273
2759.84416	0.05260
2757.78457	0.05248
2755.72499	0.05245
2753.66540	0.05239
2751.60582	0.05218
2749.54623	0.05194
2747.48665	0.05173
2745.42706	0.05144
2743.36747	0.05115
2741.30789	0.05096
2739.24830	0.05087
2737.18872	0.05090
2735.12913	0.05089
2733.06955	0.05066
2731.00996	0.05034
2728.95038	0.05008
2726.89079	0.05016
2724.83121	0.05045
2722.77162	0.05027
2720.71204	0.04963
2718.65245	0.04916
2716.59287	0.04883
2714.53328	0.04853
2712.47370	0.04854
2710.41411	0.04853
2708.35453	0.04830
2706.29494	0.04817
2704.23536	0.04811
2702.17577	0.04800
2700.11619	0.04780
2698.05660	0.04763
2695.99702	0.04781
2693.93743	0.04808
2691.87785	0.04807
2689.81826	0.04781
2687.75867	0.04736
2685.69909	0.04694
2683.63950	0.04681
2681.57992	0.04698
2679.52033	0.04719
2677.46075	0.04726
2675.40116	0.04717
2673.34158	0.04691
2671.28199	0.04653
2669.22241	0.04628
2667.16282	0.04632
2665.10324	0.04646
2663.04365	0.04662
2660.98407	0.04658
2658.92448	0.04637
2656.86490	0.04639
2654.80531	0.04649
2652.74573	0.04644
2650.68614	0.04628
2648.62656	0.04591
2646.56697	0.04551
2644.50739	0.04542
2642.44780	0.04544
2640.38822	0.04525
2638.32863	0.04497
2636.26904	0.04474
2634.20946	0.04453
2632.14987	0.04426
2630.09029	0.04401
2628.03070	0.04407
2625.97112	0.04445
2623.91153	0.04456
2621.85195	0.04422
2619.79236	0.04384
2617.73278	0.04345
2615.67319	0.04315
2613.61361	0.04313
2611.55402	0.04316
2609.49444	0.04316
2607.43485	0.04304
2605.37527	0.04250
2603.31568	0.04191
2601.25610	0.04177
2599.19651	0.04196
2597.13693	0.04213
2595.07734	0.04213
2593.01776	0.04202
2590.95817	0.04192
2588.89859	0.04149
2586.83900	0.04086
2584.77942	0.04065
2582.71983	0.04059
2580.66024	0.04039
2578.60066	0.04017
2576.54107	0.03993
2574.48149	0.03976
2572.42190	0.03972
2570.36232	0.03998
2568.30273	0.04027
2566.24315	0.04010
2564.18356	0.03972
2562.12398	0.03951
2560.06439	0.03931
2558.00481	0.03912
2555.94522	0.03899
2553.88564	0.03874
2551.82605	0.03858
2549.76647	0.03870
2547.70688	0.03880
2545.64730	0.03877
2543.58771	0.03874
2541.52813	0.03858
2539.46854	0.03847
2537.40896	0.03869
2535.34937	0.03861
2533.28979	0.03812
2531.23020	0.03801
2529.17062	0.03805
2527.11103	0.03774
2525.05144	0.03744
2522.99186	0.03737
2520.93227	0.03726
2518.87269	0.03712
2516.81310	0.03709
2514.75352	0.03711
2512.69393	0.03697
2510.63435	0.03684
2508.57476	0.03703
2506.51518	0.03726
2504.45559	0.03711
2502.39601	0.03659
2500.33642	0.03619
2498.27684	0.03625
2496.21725	0.03656
2494.15767	0.03694
2492.09808	0.03720
2490.03850	0.03696
2487.97891	0.03644
2485.91933	0.03595
2483.85974	0.03571
2481.80016	0.03597
2479.74057	0.03612
2477.68099	0.03590
2475.62140	0.03578
2473.56181	0.03575
2471.50223	0.03569
2469.44264	0.03562
2467.38306	0.03565
2465.32347	0.03548
2463.26389	0.03498
2461.20430	0.03472
2459.14472	0.03492
2457.08513	0.03531
2455.02555	0.03539
2452.96596	0.03529
2450.90638	0.03539
2448.84679	0.03524
2446.78721	0.03457
2444.72762	0.03411
2442.66804	0.03427
2440.60845	0.03448
2438.54887	0.03469
2436.48928	0.03514
2434.42970	0.03535
2432.37011	0.03501
2430.31053	0.03452
2428.25094	0.03427
2426.19136	0.03417
2424.13177	0.03425
2422.07219	0.03436
2420.01260	0.03419
2417.95301	0.03393
2415.89343	0.03391
2413.83384	0.03417
2411.77426	0.03430
2409.71467	0.03395
2407.65509	0.03357
2405.59550	0.03358
2403.53592	0.03379
2401.47633	0.03397
2399.41675	0.03158
2397.35716	0.03112
2395.29758	0.03190
2393.23799	0.03294
2391.17841	0.03419
2389.11882	0.03576
2387.05924	0.03750
2384.99965	0.03906
2382.94007	0.04022
2380.88048	0.04054
2378.82090	0.03981
2376.76131	0.03874
2374.70173	0.03631
2372.64214	0.03453
2370.58256	0.03451
2368.52297	0.03410
2366.46338	0.03422
2364.40380	0.03372
2362.34421	0.03393
2360.28463	0.03631
2358.22504	0.03641
2356.16546	0.03746
2354.10587	0.03913
2352.04629	0.04286
2349.98670	0.05010
2347.92712	0.04909
2345.86753	0.04275
2343.80795	0.03924
2341.74836	0.03539
2339.68878	0.03489
2337.62919	0.03572
2335.56961	0.03712
2333.51002	0.04057
2331.45044	0.04144
2329.39085	0.04324
2327.33127	0.04206
2325.27168	0.03958
2323.21210	0.03547
2321.15251	0.03275
2319.09293	0.03234
2317.03334	0.03302
2314.97376	0.03432
2312.91417	0.03461
2310.85458	0.03468
2308.79500	0.03501
2306.73541	0.03511
2304.67583	0.03535
2302.61624	0.03535
2300.55666	0.03503
2298.49707	0.03467
2296.43749	0.03496
2294.37790	0.03500
2292.31832	0.03436
2290.25873	0.03319
2288.19915	0.03211
2286.13956	0.03125
2284.07998	0.03055
2282.02039	0.02979
2279.96081	0.02922
2277.90122	0.02884
2275.84164	0.02838
2273.78205	0.02778
2271.72247	0.02735
2269.66288	0.02733
2267.60330	0.02762
2265.54371	0.02835
2263.48413	0.02910
2261.42454	0.02940
2259.36495	0.02921
2257.30537	0.02893
2255.24578	0.02866
2253.18620	0.02845
2251.12661	0.02849
2249.06703	0.02772
2247.00744	0.02824
2244.94786	0.02843
2242.88827	0.02842
2240.82869	0.02811
2238.76910	0.02749
2236.70952	0.02663
2234.64993	0.02596
2232.59035	0.02580
2230.53076	0.02559
2228.47118	0.02586
2226.41159	0.02700
2224.35201	0.02769
2222.29242	0.02775
2220.23284	0.02741
2218.17325	0.02633
2216.11367	0.02504
2214.05408	0.02451
2211.99450	0.02460
2209.93491	0.02417
2207.87533	0.02358
2205.81574	0.02369
2203.75615	0.02416
2201.69657	0.02480
2199.63698	0.02526
2197.57740	0.02507
2195.51781	0.02448
2193.45823	0.02430
2191.39864	0.02426
2189.33906	0.02373
2187.27947	0.02365
2185.21989	0.02385
2183.16030	0.02370
2181.10072	0.02380
2179.04113	0.02313
2176.98155	0.02128
2174.92196	0.02071
2172.86238	0.02141
2170.80279	0.02165
2168.74321	0.02168
2166.68362	0.02174
2164.62404	0.02242
2162.56445	0.02388
2160.50487	0.02310
2158.44528	0.01975
2156.38570	0.01857
2154.32611	0.01987
2152.26652	0.02092
2150.20694	0.02109
2148.14735	0.02077
2146.08777	0.02071
2144.02818	0.02106
2141.96860	0.02129
2139.90901	0.02116
2137.84943	0.02093
2135.78984	0.02056
2133.73026	0.02020
2131.67067	0.02099
2129.61109	0.02273
2127.55150	0.02388
2125.49192	0.02419
2123.43233	0.02423
2121.37275	0.02439
2119.31316	0.02437
2117.25358	0.02390
2115.19399	0.02371
2113.13441	0.02382
2111.07482	0.02359
2109.01524	0.02353
2106.95565	0.02409
2104.89607	0.02469
2102.83648	0.02457
2100.77690	0.02410
2098.71731	0.02394
2096.65772	0.02416
2094.59814	0.02415
2092.53855	0.02384
2090.47897	0.02356
2088.41938	0.02368
2086.35980	0.02389
2084.30021	0.02360
2082.24063	0.02295
2080.18104	0.02272
2078.12146	0.02281
2076.06187	0.02236
2074.00229	0.02156
2071.94270	0.02116
2069.88312	0.02131
2067.82353	0.02178
2065.76395	0.02181
2063.70436	0.02117
2061.64478	0.02110
2059.58519	0.02177
2057.52561	0.02194
2055.46602	0.02148
2053.40644	0.02139
2051.34685	0.02153
2049.28727	0.02108
2047.22768	0.02049
2045.16810	0.02020
2043.10851	0.01978
2041.04892	0.01895
2038.98934	0.01764
2036.92975	0.01637
2034.87017	0.01600
2032.81058	0.01645
2030.75100	0.01662
2028.69141	0.01613
2026.63183	0.01618
2024.57224	0.01730
2022.51266	0.01812
2020.45307	0.01773
2018.39349	0.01665
2016.33390	0.01590
2014.27432	0.01606
2012.21473	0.01666
2010.15515	0.01674
2008.09556	0.01624
2006.03598	0.01628
2003.97639	0.01718
2001.91681	0.01818
1999.85722	0.01870
1997.79764	0.01897
1995.73805	0.01953
1993.67847	0.01980
1991.61888	0.01926
1989.55929	0.01866
1987.49971	0.01843
1985.44012	0.01820
1983.38054	0.01772
1981.32095	0.01691
1979.26137	0.01583
1977.20178	0.01484
1975.14220	0.01462
1973.08261	0.01543
1971.02303	0.01654
1968.96344	0.01703
1966.90386	0.01702
1964.84427	0.01682
1962.78469	0.01608
1960.72510	0.01546
1958.66552	0.01606
1956.60593	0.01695
1954.54635	0.01698
1952.48676	0.01658
1950.42718	0.01635
1948.36759	0.01646
1946.30801	0.01663
1944.24842	0.01679
1942.18884	0.01701
1940.12925	0.01716
1938.06967	0.01758
1936.01008	0.01816
1933.95049	0.01819
1931.89091	0.01769
1929.83132	0.01709
1927.77174	0.01668
1925.71215	0.01680
1923.65257	0.01750
1921.59298	0.01820
1919.53340	0.01838
1917.47381	0.01814
1915.41423	0.01774
1913.35464	0.01744
1911.29506	0.01752
1909.23547	0.01760
1907.17589	0.01731
1905.11630	0.01724
1903.05672	0.01773
1900.99713	0.01821
1898.93755	0.01807
1896.87796	0.01751
1894.81838	0.01731
1892.75879	0.01751
1890.69921	0.01755
1888.63962	0.01734
1886.58004	0.01721
1884.52045	0.01743
1882.46086	0.01774
1880.40128	0.01777
1878.34169	0.01761
1876.28211	0.01747
1874.22252	0.01722
1872.16294	0.01696
1870.10335	0.01702
1868.04377	0.01726
1865.98418	0.01719
1863.92460	0.01697
1861.86501	0.01689
1859.80543	0.01679
1857.74584	0.01663
1855.68626	0.01650
1853.62667	0.01642
1851.56709	0.01639
1849.50750	0.01639
1847.44792	0.01639
1845.38833	0.01642
1843.32875	0.01645
1841.26916	0.01643
1839.20958	0.01633
1837.14999	0.01617
1835.09041	0.01613
1833.03082	0.01627
1830.97124	0.01644
1828.91165	0.01653
1826.85206	0.01657
1824.79248	0.01650
1822.73289	0.01629
1820.67331	0.01606
1818.61372	0.01582
1816.55414	0.01558
1814.49455	0.01548
1812.43497	0.01564
1810.37538	0.01595
1808.31580	0.01621
1806.25621	0.01628
1804.19663	0.01625
1802.13704	0.01617
1800.07746	0.01596
1798.01787	0.01570
1795.95829	0.01552
1793.89870	0.01536
1791.83912	0.01527
1789.77953	0.01534
1787.71995	0.01553
1785.66036	0.01571
1783.60078	0.01575
1781.54119	0.01566
1779.48161	0.01555
1777.42202	0.01546
1775.36243	0.01518
1773.30285	0.01476
1771.24326	0.01474
1769.18368	0.01516
1767.12409	0.01543
1765.06451	0.01545
1763.00492	0.01542
1760.94534	0.01540
1758.88575	0.01536
1756.82617	0.01521
1754.76658	0.01495
1752.70700	0.01491
1750.64741	0.01525
1748.58783	0.01559
1746.52824	0.01561
1744.46866	0.01538
1742.40907	0.01510
1740.34949	0.01497
1738.28990	0.01497
1736.23032	0.01497
1734.17073	0.01511
1732.11115	0.01543
1730.05156	0.01559
1727.99198	0.01564
1725.93239	0.01580
1723.87281	0.01617
1721.81322	0.01661
1719.75363	0.01722
1717.69405	0.01846
1715.63446	0.02023
1713.57488	0.02190
1711.51529	0.02360
1709.45571	0.02582
1707.39612	0.02889
1705.33654	0.03273
1703.27695	0.03664
1701.21737	0.04100
1699.15778	0.04642
1697.09820	0.05199
1695.03861	0.05730
1692.97903	0.06188
1690.91944	0.06596
1688.85986	0.07015
1686.80027	0.07444
1684.74069	0.07976
1682.68110	0.08626
1680.62152	0.09184
1678.56193	0.09644
1676.50235	0.10130
1674.44276	0.10687
1672.38318	0.11246
1670.32359	0.11851
1668.26401	0.12514
1666.20442	0.13092
1664.14483	0.13637
1662.08525	0.14260
1660.02566	0.14855
1657.96608	0.15322
1655.90649	0.15747
1653.84691	0.16328
1651.78732	0.16983
1649.72774	0.17383
1647.66815	0.17664
1645.60857	0.17965
1643.54898	0.18176
1641.48940	0.18265
1639.42981	0.18266
1637.37023	0.18188
1635.31064	0.18035
1633.25106	0.17817
1631.19147	0.17529
1629.13189	0.17148
1627.07230	0.16689
1625.01272	0.16163
1622.95313	0.15559
1620.89355	0.14938
1618.83396	0.14314
1616.77438	0.13610
1614.71479	0.12896
1612.65520	0.12245
1610.59562	0.11565
1608.53603	0.10821
1606.47645	0.10093
1604.41686	0.09454
1602.35728	0.08931
1600.29769	0.08527
1598.23811	0.08216
1596.17852	0.07953
1594.11894	0.07705
1592.05935	0.07483
1589.99977	0.07306
1587.94018	0.07178
1585.88060	0.07112
1583.82101	0.07119
1581.76143	0.07183
1579.70184	0.07280
1577.64226	0.07443
1575.58267	0.07714
1573.52309	0.08014
1571.46350	0.08315
1569.40392	0.08697
1567.34433	0.09135
1565.28475	0.09561
1563.22516	0.09949
1561.16558	0.10363
1559.10599	0.10989
1557.04640	0.11701
1554.98682	0.12218
1552.92723	0.12648
1550.86765	0.13088
1548.80806	0.13531
1546.74848	0.13944
1544.68889	0.14328
1542.62931	0.14701
1540.56972	0.15111
1538.51014	0.15524
1536.45055	0.15806
1534.39097	0.16023
1532.33138	0.16255
1530.27180	0.16449
1528.21221	0.16600
1526.15263	0.16741
1524.09304	0.16884
1522.03346	0.17082
1519.97387	0.17362
1517.91429	0.17670
1515.85470	0.17944
1513.79512	0.18105
1511.73553	0.18127
1509.67595	0.18019
1507.61636	0.17739
1505.55677	0.17310
1503.49719	0.16892
1501.43760	0.16479
1499.37802	0.15963
1497.31843	0.15325
1495.25885	0.14659
1493.19926	0.14045
1491.13968	0.13404
1489.08009	0.12662
1487.02051	0.11935
1484.96092	0.11324
1482.90134	0.10798
1480.84175	0.10315
1478.78217	0.09893
1476.72258	0.09543
1474.66300	0.09247
1472.60341	0.08997
1470.54383	0.08810
1468.48424	0.08697
1466.42466	0.08657
1464.36507	0.08685
1462.30549	0.08747
1460.24590	0.08830
1458.18632	0.08992
1456.12673	0.09222
1454.06715	0.09376
1452.00756	0.09431
1449.94797	0.09424
1447.88839	0.09350
1445.82880	0.09199
1443.76922	0.08990
1441.70963	0.08751
1439.65005	0.08504
1437.59046	0.08250
1435.53088	0.08004
1433.47129	0.07811
1431.41171	0.07672
1429.35212	0.07575
1427.29254	0.07538
1425.23295	0.07572
1423.17337	0.07655
1421.11378	0.07777
1419.05420	0.07951
1416.99461	0.08141
1414.93503	0.08287
1412.87544	0.08392
1410.81586	0.08460
1408.75627	0.08475
1406.69669	0.08433
1404.63710	0.08335
1402.57752	0.08199
1400.51793	0.08069
1398.45834	0.07978
1396.39876	0.07929
1394.33917	0.07915
1392.27959	0.07937
1390.22000	0.07991
1388.16042	0.08071
1386.10083	0.08152
1384.04125	0.08205
1381.98166	0.08234
1379.92208	0.08248
1377.86249	0.08235
1375.80291	0.08177
1373.74332	0.08067
1371.68374	0.07911
1369.62415	0.07720
1367.56457	0.07500
1365.50498	0.07280
1363.44540	0.07070
1361.38581	0.06861
1359.32623	0.06673
1357.26664	0.06532
1355.20706	0.06440
1353.14747	0.06394
1351.08789	0.06392
1349.02830	0.06429
1346.96872	0.06507
1344.90913	0.06622
1342.84954	0.06771
1340.78996	0.06950
1338.73037	0.07125
1336.67079	0.07251
1334.61120	0.07316
1332.55162	0.07328
1330.49203	0.07285
1328.43245	0.07192
1326.37286	0.07069
1324.31328	0.06928
1322.25369	0.06782
1320.19411	0.06657
1318.13452	0.06570
1316.07494	0.06517
1314.01535	0.06486
1311.95577	0.06471
1309.89618	0.06474
1307.83660	0.06495
1305.77701	0.06526
1303.71743	0.06560
1301.65784	0.06595
1299.59826	0.06632
1297.53867	0.06672
1295.47909	0.06712
1293.41950	0.06755
1291.35991	0.06805
1289.30033	0.06861
1287.24074	0.06910
1285.18116	0.06951
1283.12157	0.07000
1281.06199	0.07073
1279.00240	0.07170
1276.94282	0.07282
1274.88323	0.07411
1272.82365	0.07555
1270.76406	0.07705
1268.70448	0.07854
1266.64489	0.07986
1264.58531	0.08099
1262.52572	0.08212
1260.46614	0.08345
1258.40655	0.08491
1256.34697	0.08645
1254.28738	0.08817
1252.22780	0.09009
1250.16821	0.09205
1248.10863	0.09403
1246.04904	0.09604
1243.98946	0.09804
1241.92987	0.09999
1239.87029	0.10186
1237.81070	0.10357
1235.75111	0.10490
1233.69153	0.10579
1231.63194	0.10627
1229.57236	0.10622
1227.51277	0.10553
1225.45319	0.10429
1223.39360	0.10252
1221.33402	0.10017
1219.27443	0.09731
1217.21485	0.09407
1215.15526	0.09065
1213.09568	0.08718
1211.03609	0.08374
1208.97651	0.08041
1206.91692	0.07716
1204.85734	0.07395
1202.79775	0.07089
1200.73817	0.06810
1198.67858	0.06564
1196.61900	0.06351
1194.55941	0.06155
1192.49983	0.05982
1190.44024	0.05852
1188.38066	0.05758
1186.32107	0.05695
1184.26149	0.05671
1182.20190	0.05687
1180.14231	0.05740
1178.08273	0.05833
1176.02314	0.05958
1173.96356	0.06079
1171.90397	0.06167
1169.84439	0.06216
1167.78480	0.06235
1165.72522	0.06234
1163.66563	0.06220
1161.60605	0.06184
1159.54646	0.06116
1157.48688	0.06033
1155.42729	0.05941
1153.36771	0.05833
1151.30812	0.05719
1149.24854	0.05602
1147.18895	0.05489
1145.12937	0.05382
1143.06978	0.05272
1141.01020	0.05167
1138.95061	0.05083
1136.89103	0.05016
1134.83144	0.04952
1132.77186	0.04891
1130.71227	0.04849
1128.65268	0.04822
1126.59310	0.04789
1124.53351	0.04753
1122.47393	0.04721
1120.41434	0.04701
1118.35476	0.04693
1116.29517	0.04689
1114.23559	0.04688
1112.17600	0.04692
1110.11642	0.04702
1108.05683	0.04721
1105.99725	0.04743
1103.93766	0.04742
1101.87808	0.04706
1099.81849	0.04646
1097.75891	0.04587
1095.69932	0.04550
1093.63974	0.04548
1091.58015	0.04584
1089.52057	0.04645
1087.46098	0.04719
1085.40140	0.04801
1083.34181	0.04900
1081.28223	0.05017
1079.22264	0.05138
1077.16306	0.05250
1075.10347	0.05349
1073.04388	0.05432
1070.98430	0.05497
1068.92471	0.05539
1066.86513	0.05560
1064.80554	0.05577
1062.74596	0.05614
1060.68637	0.05673
1058.62679	0.05728
1056.56720	0.05751
1054.50762	0.05741
1052.44803	0.05690
1050.38845	0.05600
1048.32886	0.05485
1046.26928	0.05363
1044.20969	0.05244
1042.15011	0.05133
1040.09052	0.05037
1038.03094	0.04957
1035.97135	0.04890
1033.91177	0.04838
1031.85218	0.04798
1029.79260	0.04763
1027.73301	0.04728
1025.67343	0.04691
1023.61384	0.04688
1021.55425	0.04757
1019.49467	0.04897
1017.43508	0.05066
1015.37550	0.05198
1013.31591	0.05231
1011.25633	0.05155
1009.19674	0.05000
1007.13716	0.04802
1005.07757	0.04584
1003.01799	0.04371
1000.95840	0.04188
998.89882	0.04030
996.83923	0.03874
994.77965	0.03720
992.72006	0.03585
990.66048	0.03470
988.60089	0.03358
986.54131	0.03261
984.48172	0.03194
982.42214	0.03151
980.36255	0.03129
978.30297	0.03127
976.24338	0.03126
974.18380	0.03114
972.12421	0.03106
970.06463	0.03102
968.00504	0.03101
965.94545	0.03115
963.88587	0.03141
961.82628	0.03165
959.76670	0.03180
957.70711	0.03194
955.64753	0.03210
953.58794	0.03225
951.52836	0.03236
949.46877	0.03240
947.40919	0.03239
945.34960	0.03227
943.29002	0.03203
941.23043	0.03175
939.17085	0.03147
937.11126	0.03123
935.05168	0.03098
932.99209	0.03067
930.93251	0.03025
928.87292	0.02976
926.81334	0.02927
924.75375	0.02887
922.69417	0.02845
920.63458	0.02792
918.57500	0.02734
916.51541	0.02680
914.45582	0.02632
912.39624	0.02588
910.33665	0.02547
908.27707	0.02512
906.21748	0.02479
904.15790	0.02455
902.09831	0.02439
900.03873	0.02420
897.97914	0.02403
895.91956	0.02390
893.85997	0.02374
891.80039	0.02356
889.74080	0.02335
887.68122	0.02324
885.62163	0.02330
883.56205	0.02332
881.50246	0.02324
879.44288	0.02314
877.38329	0.02313
875.32371	0.02330
873.26412	0.02355
871.20454	0.02376
869.14495	0.02401
867.08537	0.02439
865.02578	0.02485
862.96620	0.02537
860.90661	0.02589
858.84702	0.02651
856.78744	0.02725
854.72785	0.02794
852.66827	0.02843
850.60868	0.02862
848.54910	0.02854
846.48951	0.02849
844.42993	0.02873
842.37034	0.02914
840.31076	0.02948
838.25117	0.02981
836.19159	0.03026
834.13200	0.03067
832.07242	0.03093
830.01283	0.03104
827.95325	0.03109
825.89366	0.03108
823.83408	0.03098
821.77449	0.03092
819.71491	0.03089
817.65532	0.03079
815.59574	0.03076
813.53615	0.03095
811.47657	0.03140
809.41698	0.03190
807.35740	0.03223
805.29781	0.03251
803.23822	0.03290
801.17864	0.03329
799.11905	0.03351
797.05947	0.03360
794.99988	0.03371
792.94030	0.03391
790.88071	0.03425
788.82113	0.03464
786.76154	0.03498
784.70196	0.03528
782.64237	0.03554
780.58279	0.03578
778.52320	0.03611
776.46362	0.03661
774.40403	0.03725
772.34445	0.03771
770.28486	0.03797
768.22528	0.03830
766.16569	0.03881
764.10611	0.03932
762.04652	0.03976
759.98694	0.04021
757.92735	0.04075
755.86777	0.04141
753.80818	0.04217
751.74859	0.04288
749.68901	0.04348
747.62942	0.04420
745.56984	0.04494
743.51025	0.04557
741.45067	0.04624
739.39108	0.04693
737.33150	0.04749
735.27191	0.04800
733.21233	0.04853
731.15274	0.04913
729.09316	0.04982
727.03357	0.05052
724.97399	0.05138
722.91440	0.05213
720.85482	0.05261
718.79523	0.05332
716.73565	0.05374
714.67606	0.05429
712.61648	0.05499
710.55689	0.05574
708.49731	0.05659
706.43772	0.05753
704.37814	0.05858
702.31855	0.05958
700.25897	0.06037
698.19938	0.06095
696.13979	0.06148
694.08021	0.06217
692.02062	0.06291
689.96104	0.06364
687.90145	0.06437
685.84187	0.06506
683.78228	0.06575
681.72270	0.06644
679.66311	0.06700
677.60353	0.06753
675.54394	0.06812
673.48436	0.06847
671.42477	0.06912
669.36519	0.07004
667.30560	0.06519
665.24602	0.06914
663.18643	0.07066
661.12685	0.07066
659.06726	0.07059
657.00768	0.07059
654.94809	0.07061
652.88851	0.07070
650.82892	0.07099
648.76934	0.07119
646.70975	0.07137
644.65016	0.07140
642.59058	0.07149
640.53099	0.07173
638.47141	0.07195
636.41182	0.07195
634.35224	0.07182
632.29265	0.07177
630.23307	0.07177
628.17348	0.07169
626.11390	0.07151
624.05431	0.07154
621.99473	0.07166
619.93514	0.07166
617.87556	0.07176
615.81597	0.07193
613.75639	0.07192
611.69680	0.07187
609.63722	0.07201
607.57763	0.07231
605.51805	0.07248
603.45846	0.07249
601.39888	0.07251
599.33929	0.07263
597.27971	0.07278
595.22012	0.07287
593.16054	0.07298
591.10095	0.07315
589.04136	0.07327
586.98178	0.07340
584.92219	0.07379
582.86261	0.07442
580.80302	0.07502
578.74344	0.07549
576.68385	0.07602
574.62427	0.07670
572.56468	0.07733
570.50510	0.07783
568.44551	0.07836
566.38593	0.07899
564.32634	0.07954
562.26676	0.08012
560.20717	0.08105
558.14759	0.08205
556.08800	0.08276
554.02842	0.08339
551.96883	0.08411
549.90925	0.08483
547.84966	0.08543
545.79008	0.08575
543.73049	0.08591
541.67091	0.08609
539.61132	0.08629
537.55173	0.08644
535.49215	0.08638
533.43256	0.08615
531.37298	0.08609
529.31339	0.08619
527.25381	0.08614
525.19422	0.08583
523.13464	0.08551
521.07505	0.08543
519.01547	0.08536
516.95588	0.08501
514.89630	0.08480
512.83671	0.08500
510.77713	0.08525
508.71754	0.08518
506.65796	0.08490
504.59837	0.08471
502.53879	0.08463
500.47920	0.08434
498.41962	0.08395
496.36003	0.08377
494.30045	0.08369
492.24086	0.08358
490.18128	0.08348
488.12169	0.08340
486.06211	0.08322
484.00252	0.08289
481.94293	0.08250
479.88335	0.08198
477.82376	0.08123
475.76418	0.08051
473.70459	0.08020
471.64501	0.08000
469.58542	0.07934
467.52584	0.07862
465.46625	0.07852
463.40667	0.07855
461.34708	0.07799
459.28750	0.07726
457.22791	0.07690
455.16833	0.07659
453.10874	0.07624
451.04916	0.07602
448.98957	0.07575
446.92999	0.07530
444.87040	0.07485
442.81082	0.07444
440.75123	0.07403
438.69165	0.07359
436.63206	0.07311
434.57248	0.07293
432.51289	0.07306
430.45330	0.07306
428.39372	0.07290
426.33413	0.07268
424.27455	0.07236
422.21496	0.07207
420.15538	0.07205
418.09579	0.07227
416.03621	0.07256
413.97662	0.07271
411.91704	0.07249
409.85745	0.07179
407.79787	0.07099
405.73828	0.07062
403.67870	0.07063
401.61911	0.07069
399.55953	0.07081
