3997.65486	0.01285
3995.59527	0.01327
3993.53569	0.01326
3991.47610	0.01278
3989.41652	0.01210
3987.35693	0.01168
3985.29735	0.01140
3983.23776	0.01107
3981.17817	0.01078
3979.11859	0.01071
3977.05900	0.01129
3974.99942	0.01233
3972.93983	0.01271
3970.88025	0.01246
3968.82066	0.01243
3966.76108	0.01262
3964.70149	0.01260
3962.64191	0.01240
3960.58232	0.01238
3958.52274	0.01241
3956.46315	0.01211
3954.40357	0.01161
3952.34398	0.01144
3950.28440	0.01176
3948.22481	0.01206
3946.16523	0.01187
3944.10564	0.01157
3942.04606	0.01176
3939.98647	0.01215
3937.92689	0.01202
3935.86730	0.01154
3933.80772	0.01168
3931.74813	0.01251
3929.68855	0.01278
3927.62896	0.01212
3925.56937	0.01168
3923.50979	0.01182
3921.45020	0.01202
3919.39062	0.01227
3917.33103	0.01253
3915.27145	0.01237
3913.21186	0.01202
3911.15228	0.01204
3909.09269	0.01213
3907.03311	0.01187
3904.97352	0.01149
3902.91394	0.01124
3900.85435	0.01132
3898.79477	0.01148
3896.73518	0.01129
3894.67560	0.01096
3892.61601	0.01065
3890.55643	0.01034
3888.49684	0.01049
3886.43726	0.01127
3884.37767	0.01176
3882.31809	0.01151
3880.25850	0.01115
3878.19892	0.01101
3876.13933	0.01115
3874.07974	0.01150
3872.02016	0.01160
3869.96057	0.01136
3867.90099	0.01114
3865.84140	0.01125
3863.78182	0.01180
3861.72223	0.01223
3859.66265	0.01214
3857.60306	0.01214
3855.54348	0.01277
3853.48389	0.01334
3851.42431	0.01284
3849.36472	0.01210
3847.30514	0.01178
3845.24555	0.01160
3843.18597	0.01152
3841.12638	0.01161
3839.06680	0.01169
3837.00721	0.01152
3834.94763	0.01123
3832.88804	0.01112
3830.82846	0.01094
3828.76887	0.01049
3826.70929	0.01049
3824.64970	0.01108
3822.59012	0.01132
3820.53053	0.01088
3818.47094	0.01047
3816.41136	0.01039
3814.35177	0.01046
3812.29219	0.01051
3810.23260	0.01050
3808.17302	0.01055
3806.11343	0.01063
3804.05385	0.01056
3801.99426	0.01048
3799.93468	0.01018
3797.87509	0.00962
3795.81551	0.00961
3793.75592	0.01021
3791.69634	0.01066
3789.63675	0.01067
3787.57717	0.01052
3785.51758	0.01055
3783.45800	0.01063
3781.39841	0.01047
3779.33883	0.01020
3777.27924	0.01036
3775.21966	0.01103
3773.16007	0.01133
3771.10049	0.01088
3769.04090	0.01042
3766.98132	0.01024
3764.92173	0.01001
3762.86214	0.00993
3760.80256	0.01035
3758.74297	0.01096
3756.68339	0.01124
3754.62380	0.01126
3752.56422	0.01129
3750.50463	0.01142
3748.44505	0.01200
3746.38546	0.01311
3744.32588	0.01392
3742.26629	0.01351
3740.20671	0.01277
3738.14712	0.01282
3736.08754	0.01346
3734.02795	0.01362
3731.96837	0.01298
3729.90878	0.01236
3727.84920	0.01233
3725.78961	0.01266
3723.73003	0.01275
3721.67044	0.01221
3719.61086	0.01146
3717.55127	0.01111
3715.49169	0.01121
3713.43210	0.01128
3711.37251	0.01098
3709.31293	0.01044
3707.25334	0.01041
3705.19376	0.01081
3703.13417	0.01112
3701.07459	0.01152
3699.01500	0.01214
3696.95542	0.01242
3694.89583	0.01213
3692.83625	0.01207
3690.77666	0.01276
3688.71708	0.01298
3686.65749	0.01237
3684.59791	0.01228
3682.53832	0.01281
3680.47874	0.01335
3678.41915	0.01399
3676.35957	0.01486
3674.29998	0.01530
3672.24040	0.01503
3670.18081	0.01467
3668.12123	0.01484
3666.06164	0.01562
3664.00206	0.01677
3661.94247	0.01792
3659.88289	0.01851
3657.82330	0.01860
3655.76371	0.01895
3653.70413	0.01994
3651.64454	0.02139
3649.58496	0.02294
3647.52537	0.02362
3645.46579	0.02315
3643.40620	0.02280
3641.34662	0.02357
3639.28703	0.02501
3637.22745	0.02606
3635.16786	0.02618
3633.10828	0.02567
3631.04869	0.02595
3628.98911	0.02787
3626.92952	0.02960
3624.86994	0.03020
3622.81035	0.03094
3620.75077	0.03247
3618.69118	0.03411
3616.63160	0.03502
3614.57201	0.03549
3612.51243	0.03627
3610.45284	0.03755
3608.39326	0.03869
3606.33367	0.03928
3604.27408	0.03996
3602.21450	0.04129
3600.15491	0.04280
3598.09533	0.04388
3596.03574	0.04468
3593.97616	0.04541
3591.91657	0.04605
3589.85699	0.04675
3587.79740	0.04803
3585.73782	0.04981
3583.67823	0.05141
3581.61865	0.05262
3579.55906	0.05376
3577.49948	0.05516
3575.43989	0.05665
3573.38031	0.05783
3571.32072	0.05903
3569.26114	0.06082
3567.20155	0.06263
3565.14197	0.06354
3563.08238	0.06404
3561.02280	0.06487
3558.96321	0.06595
3556.90363	0.06705
3554.84404	0.06817
3552.78446	0.06926
3550.72487	0.07023
3548.66528	0.07140
3546.60570	0.07305
3544.54611	0.07482
3542.48653	0.07634
3540.42694	0.07763
3538.36736	0.07883
3536.30777	0.07988
3534.24819	0.08069
3532.18860	0.08150
3530.12902	0.08269
3528.06943	0.08419
3526.00985	0.08568
3523.95026	0.08693
3521.89068	0.08804
3519.83109	0.08930
3517.77151	0.09039
3515.71192	0.09112
3513.65234	0.09196
3511.59275	0.09298
3509.53317	0.09386
3507.47358	0.09467
3505.41400	0.09538
3503.35441	0.09615
3501.29483	0.09712
3499.23524	0.09779
3497.17565	0.09805
3495.11607	0.09872
3493.05648	0.10019
3490.99690	0.10177
3488.93731	0.10244
3486.87773	0.10232
3484.81814	0.10280
3482.75856	0.10399
3480.69897	0.10477
3478.63939	0.10510
3476.57980	0.10539
3474.52022	0.10574
3472.46063	0.10654
3470.40105	0.10781
3468.34146	0.10874
3466.28188	0.10924
3464.22229	0.10999
3462.16271	0.11065
3460.10312	0.11080
3458.04354	0.11118
3455.98395	0.11210
3453.92437	0.11294
3451.86478	0.11353
3449.80520	0.11411
3447.74561	0.11470
3445.68603	0.11509
3443.62644	0.11541
3441.56685	0.11619
3439.50727	0.11718
3437.44768	0.11790
3435.38810	0.11865
3433.32851	0.11971
3431.26893	0.12059
3429.20934	0.12110
3427.14976	0.12202
3425.09017	0.12357
3423.03059	0.12480
3420.97100	0.12551
3418.91142	0.12660
3416.85183	0.12810
3414.79225	0.12946
3412.73266	0.13050
3410.67308	0.13161
3408.61349	0.13316
3406.55391	0.13453
3404.49432	0.13542
3402.43474	0.13655
3400.37515	0.13806
3398.31557	0.13972
3396.25598	0.14122
3394.19640	0.14233
3392.13681	0.14351
3390.07723	0.14502
3388.01764	0.14657
3385.95805	0.14799
3383.89847	0.14939
3381.83888	0.15091
3379.77930	0.15227
3377.71971	0.15360
3375.66013	0.15554
3373.60054	0.15774
3371.54096	0.15950
3369.48137	0.16125
3367.42179	0.16317
3365.36220	0.16469
3363.30262	0.16593
3361.24303	0.16727
3359.18345	0.16867
3357.12386	0.17027
3355.06428	0.17199
3353.00469	0.17357
3350.94511	0.17544
3348.88552	0.17767
3346.82594	0.17983
3344.76635	0.18222
3342.70677	0.18501
3340.64718	0.18770
3338.58760	0.19000
3336.52801	0.19184
3334.46842	0.19364
3332.40884	0.19588
3330.34925	0.19823
3328.28967	0.20043
3326.23008	0.20282
3324.17050	0.20515
3322.11091	0.20687
3320.05133	0.20860
3317.99174	0.21096
3315.93216	0.21334
3313.87257	0.21547
3311.81299	0.21782
3309.75340	0.22027
3307.69382	0.22225
3305.63423	0.22407
3303.57465	0.22609
3301.51506	0.22783
3299.45548	0.22915
3297.39589	0.23030
3295.33631	0.23158
3293.27672	0.23325
3291.21714	0.23470
3289.15755	0.23566
3287.09797	0.23668
3285.03838	0.23767
3282.97880	0.23812
3280.91921	0.23810
3278.85962	0.23794
3276.80004	0.23774
3274.74045	0.23747
3272.68087	0.23728
3270.62128	0.23697
3268.56170	0.23591
3266.50211	0.23399
3264.44253	0.23198
3262.38294	0.23041
3260.32336	0.22900
3258.26377	0.22746
3256.20419	0.22564
3254.14460	0.22349
3252.08502	0.22141
3250.02543	0.21946
3247.96585	0.21760
3245.90626	0.21577
3243.84668	0.21356
3241.78709	0.21116
3239.72751	0.20921
3237.66792	0.20778
3235.60834	0.20637
3233.54875	0.20437
3231.48917	0.20193
3229.42958	0.19978
3227.36999	0.19776
3225.31041	0.19548
3223.25082	0.19332
3221.19124	0.19148
3219.13165	0.18968
3217.07207	0.18773
3215.01248	0.18555
3212.95290	0.18328
3210.89331	0.18101
3208.83373	0.17856
3206.77414	0.17622
3204.71456	0.17404
3202.65497	0.17160
3200.59539	0.16905
3198.53580	0.16672
3196.47622	0.16441
3194.41663	0.16193
3192.35705	0.15914
3190.29746	0.15614
3188.23788	0.15348
3186.17829	0.15137
3184.11871	0.14893
3182.05912	0.14586
3179.99954	0.14312
3177.93995	0.14101
3175.88037	0.13877
3173.82078	0.13598
3171.76119	0.13310
3169.70161	0.13055
3167.64202	0.12817
3165.58244	0.12574
3163.52285	0.12321
3161.46327	0.12074
3159.40368	0.11872
3157.34410	0.11700
3155.28451	0.11525
3153.22493	0.11356
3151.16534	0.11182
3149.10576	0.10977
3147.04617	0.10774
3144.98659	0.10619
3142.92700	0.10496
3140.86742	0.10357
3138.80783	0.10190
3136.74825	0.10035
3134.68866	0.09938
3132.62908	0.09889
3130.56949	0.09844
3128.50991	0.09785
3126.45032	0.09746
3124.39074	0.09739
3122.33115	0.09735
3120.27156	0.09730
3118.21198	0.09729
3116.15239	0.09728
3114.09281	0.09725
3112.03322	0.09721
3109.97364	0.09716
3107.91405	0.09733
3105.85447	0.09799
3103.79488	0.09882
3101.73530	0.09945
3099.67571	0.09998
3097.61613	0.10059
3095.55654	0.10143
3093.49696	0.10239
3091.43737	0.10341
3089.37779	0.10445
3087.31820	0.10521
3085.25862	0.10593
3083.19903	0.10702
3081.13945	0.10816
3079.07986	0.10879
3077.02028	0.10892
3074.96069	0.10868
3072.90111	0.10832
3070.84152	0.10825
3068.78194	0.10842
3066.72235	0.10848
3064.66276	0.10820
3062.60318	0.10745
3060.54359	0.10650
3058.48401	0.10564
3056.42442	0.10464
3054.36484	0.10315
3052.30525	0.10141
3050.24567	0.09983
3048.18608	0.09845
3046.12650	0.09721
3044.06691	0.09575
3042.00733	0.09380
3039.94774	0.09148
3037.88816	0.08915
3035.82857	0.08709
3033.76899	0.08513
3031.70940	0.08344
3029.64982	0.08230
3027.59023	0.08102
3025.53065	0.07929
3023.47106	0.07769
3021.41148	0.07649
3019.35189	0.07532
3017.29231	0.07392
3015.23272	0.07276
3013.17313	0.07206
3011.11355	0.07142
3009.05396	0.07043
3006.99438	0.06929
3004.93479	0.06863
3002.87521	0.06862
3000.81562	0.06891
2998.75604	0.06920
2996.69645	0.06969
2994.63687	0.07088
2992.57728	0.07238
2990.51770	0.07350
2988.45811	0.07434
2986.39853	0.07492
2984.33894	0.07533
2982.27936	0.07610
2980.21977	0.07682
2978.16019	0.07665
2976.10060	0.07565
2974.04102	0.07453
2971.98143	0.07363
2969.92185	0.07297
2967.86226	0.07272
2965.80268	0.07263
2963.74309	0.07220
2961.68351	0.07168
2959.62392	0.07154
2957.56433	0.07163
2955.50475	0.07185
2953.44516	0.07246
2951.38558	0.07340
2949.32599	0.07471
2947.26641	0.07658
2945.20682	0.07868
2943.14724	0.08048
2941.08765	0.08198
2939.02807	0.08327
2936.96848	0.08395
2934.90890	0.08363
2932.84931	0.08262
2930.78973	0.08143
2928.73014	0.08004
2926.67056	0.07821
2924.61097	0.07614
2922.55139	0.07404
2920.49180	0.07189
2918.43222	0.06974
2916.37263	0.06753
2914.31305	0.06520
2912.25346	0.06291
2910.19388	0.06083
2908.13429	0.05900
2906.07471	0.05756
2904.01512	0.05633
2901.95553	0.05501
2899.89595	0.05400
2897.83636	0.05354
2895.77678	0.05319
2893.71719	0.05264
2891.65761	0.05210
2889.59802	0.05185
2887.53844	0.05184
2885.47885	0.05180
2883.41927	0.05181
2881.35968	0.05190
2879.30010	0.05194
2877.24051	0.05171
2875.18093	0.05101
2873.12134	0.04997
2871.06176	0.04879
2869.00217	0.04744
2866.94259	0.04614
2864.88300	0.04525
2862.82342	0.04461
2860.76383	0.04407
2858.70425	0.04356
2856.64466	0.04295
2854.58508	0.04247
2852.52549	0.04217
2850.46590	0.04200
2848.40632	0.04200
2846.34673	0.04161
2844.28715	0.04065
2842.22756	0.04001
2840.16798	0.03997
2838.10839	0.03993
2836.04881	0.03953
2833.98922	0.03898
2831.92964	0.03874
2829.87005	0.03872
2827.81047	0.03854
2825.75088	0.03840
2823.69130	0.03848
2821.63171	0.03841
2819.57213	0.03824
2817.51254	0.03822
2815.45296	0.03803
2813.39337	0.03762
2811.33379	0.03739
2809.27420	0.03714
2807.21462	0.03653
2805.15503	0.03595
2803.09545	0.03570
2801.03586	0.03538
2798.97628	0.03493
2796.91669	0.03458
2794.85710	0.03417
2792.79752	0.03353
2790.73793	0.03298
2788.67835	0.03259
2786.61876	0.03222
2784.55918	0.03168
2782.49959	0.03096
2780.44001	0.03043
2778.38042	0.03021
2776.32084	0.03003
2774.26125	0.02964
2772.20167	0.02917
2770.14208	0.02888
2768.08250	0.02873
2766.02291	0.02837
2763.96333	0.02774
2761.90374	0.02722
2759.84416	0.02707
2757.78457	0.02711
2755.72499	0.02703
2753.66540	0.02669
2751.60582	0.02619
2749.54623	0.02591
2747.48665	0.02585
2745.42706	0.02568
2743.36747	0.02542
2741.30789	0.02505
2739.24830	0.02466
2737.18872	0.02431
2735.12913	0.02383
2733.06955	0.02334
2731.00996	0.02307
2728.95038	0.02299
2726.89079	0.02312
2724.83121	0.02331
2722.77162	0.02310
2720.71204	0.02260
2718.65245	0.02220
2716.59287	0.02186
2714.53328	0.02164
2712.47370	0.02163
2710.41411	0.02146
2708.35453	0.02116
2706.29494	0.02112
2704.23536	0.02128
2702.17577	0.02129
2700.11619	0.02094
2698.05660	0.02066
2695.99702	0.02089
2693.93743	0.02116
2691.87785	0.02114
2689.81826	0.02090
2687.75867	0.02058
2685.69909	0.02035
2683.63950	0.02022
2681.57992	0.02019
2679.52033	0.02020
2677.46075	0.02025
2675.40116	0.02028
2673.34158	0.02000
2671.28199	0.01944
2669.22241	0.01905
2667.16282	0.01899
2665.10324	0.01912
2663.04365	0.01937
2660.98407	0.01944
2658.92448	0.01940
2656.86490	0.01955
2654.80531	0.01968
2652.74573	0.01964
2650.68614	0.01945
2648.62656	0.01911
2646.56697	0.01879
2644.50739	0.01867
2642.44780	0.01860
2640.38822	0.01847
2638.32863	0.01842
2636.26904	0.01832
2634.20946	0.01811
2632.14987	0.01797
2630.09029	0.01788
2628.03070	0.01787
2625.97112	0.01788
2623.91153	0.01772
2621.85195	0.01754
2619.79236	0.01748
2617.73278	0.01743
2615.67319	0.01754
2613.61361	0.01781
2611.55402	0.01785
2609.49444	0.01763
2607.43485	0.01732
2605.37527	0.01698
2603.31568	0.01686
2601.25610	0.01705
2599.19651	0.01711
2597.13693	0.01678
2595.07734	0.01651
2593.01776	0.01654
2590.95817	0.01659
2588.89859	0.01628
2586.83900	0.01567
2584.77942	0.01529
2582.71983	0.01512
2580.66024	0.01493
2578.60066	0.01469
2576.54107	0.01443
2574.48149	0.01430
2572.42190	0.01433
2570.36232	0.01462
2568.30273	0.01490
2566.24315	0.01485
2564.18356	0.01440
2562.12398	0.01373
2560.06439	0.01326
2558.00481	0.01323
2555.94522	0.01345
2553.88564	0.01333
2551.82605	0.01329
2549.76647	0.01366
2547.70688	0.01379
2545.64730	0.01359
2543.58771	0.01351
2541.52813	0.01354
2539.46854	0.01345
2537.40896	0.01322
2535.34937	0.01296
2533.28979	0.01292
2531.23020	0.01305
2529.17062	0.01290
2527.11103	0.01266
2525.05144	0.01273
2522.99186	0.01300
2520.93227	0.01313
2518.87269	0.01279
2516.81310	0.01219
2514.75352	0.01202
2512.69393	0.01224
2510.63435	0.01221
2508.57476	0.01191
2506.51518	0.01183
2504.45559	0.01195
2502.39601	0.01202
2500.33642	0.01216
2498.27684	0.01238
2496.21725	0.01238
2494.15767	0.01220
2492.09808	0.01235
2490.03850	0.01269
2487.97891	0.01268
2485.91933	0.01238
2483.85974	0.01219
2481.80016	0.01226
2479.74057	0.01227
2477.68099	0.01209
2475.62140	0.01185
2473.56181	0.01154
2471.50223	0.01141
2469.44264	0.01152
2467.38306	0.01155
2465.32347	0.01130
2463.26389	0.01095
2461.20430	0.01095
2459.14472	0.01118
2457.08513	0.01114
2455.02555	0.01098
2452.96596	0.01109
2450.90638	0.01155
2448.84679	0.01207
2446.78721	0.01189
2444.72762	0.01113
2442.66804	0.01070
2440.60845	0.01079
2438.54887	0.01114
2436.48928	0.01145
2434.42970	0.01141
2432.37011	0.01125
2430.31053	0.01119
2428.25094	0.01111
2426.19136	0.01115
2424.13177	0.01134
2422.07219	0.01129
2420.01260	0.01119
2417.95301	0.01133
2415.89343	0.01151
2413.83384	0.01152
2411.77426	0.01139
2409.71467	0.01108
2407.65509	0.01078
2405.59550	0.01062
2403.53592	0.01049
2401.47633	0.01053
2399.41675	0.01050
2397.35716	0.01044
2395.29758	0.01036
2393.23799	0.01034
2391.17841	0.01046
2389.11882	0.01059
2387.05924	0.01073
2384.99965	0.01105
2382.94007	0.01132
2380.88048	0.01128
2378.82090	0.01127
2376.76131	0.01178
2374.70173	0.01164
2372.64214	0.01130
2370.58256	0.01161
2368.52297	0.01149
2366.46338	0.01138
2364.40380	0.01067
2362.34421	0.01036
2360.28463	0.01141
2358.22504	0.01155
2356.16546	0.01205
2354.10587	0.01230
2352.04629	0.01205
2349.98670	0.01365
2347.92712	0.01309
2345.86753	0.01188
2343.80795	0.01197
2341.74836	0.01084
2339.68878	0.01126
2337.62919	0.01168
2335.56961	0.01140
2333.51002	0.01204
2331.45044	0.01162
2329.39085	0.01248
2327.33127	0.01235
2325.27168	0.01247
2323.21210	0.01173
2321.15251	0.01092
2319.09293	0.01062
2317.03334	0.01078
2314.97376	0.01125
2312.91417	0.01104
2310.85458	0.01061
2308.79500	0.01072
2306.73541	0.01107
2304.67583	0.01137
2302.61624	0.01126
2300.55666	0.01102
2298.49707	0.01097
2296.43749	0.01137
2294.37790	0.01172
2292.31832	0.01163
2290.25873	0.01110
2288.19915	0.01074
2286.13956	0.01068
2284.07998	0.01051
2282.02039	0.01007
2279.96081	0.01001
2277.90122	0.01060
2275.84164	0.01093
2273.78205	0.01034
2271.72247	0.00958
2269.66288	0.00939
2267.60330	0.00942
2265.54371	0.00943
2263.48413	0.00967
2261.42454	0.00999
2259.36495	0.00988
2257.30537	0.00962
2255.24578	0.00940
2253.18620	0.00911
2251.12661	0.00907
2249.06703	0.00915
2247.00744	0.00911
2244.94786	0.00944
2242.88827	0.01008
2240.82869	0.00993
2238.76910	0.00914
2236.70952	0.00876
2234.64993	0.00902
2232.59035	0.00954
2230.53076	0.00983
2228.47118	0.01013
2226.41159	0.01072
2224.35201	0.01094
2222.29242	0.01077
2220.23284	0.01065
2218.17325	0.00991
2216.11367	0.00840
2214.05408	0.00752
2211.99450	0.00811
2209.93491	0.00938
2207.87533	0.00979
2205.81574	0.00908
2203.75615	0.00889
2201.69657	0.00949
2199.63698	0.00979
2197.57740	0.01012
2195.51781	0.01059
2193.45823	0.01034
2191.39864	0.00933
2189.33906	0.00882
2187.27947	0.00919
2185.21989	0.00915
2183.16030	0.00854
2181.10072	0.00856
2179.04113	0.00939
2176.98155	0.00972
2174.92196	0.00929
2172.86238	0.00905
2170.80279	0.00929
2168.74321	0.00973
2166.68362	0.01001
2164.62404	0.01026
2162.56445	0.01044
2160.50487	0.00911
2158.44528	0.00690
2156.38570	0.00690
2154.32611	0.00826
2152.26652	0.00879
2150.20694	0.00810
2148.14735	0.00701
2146.08777	0.00712
2144.02818	0.00814
2141.96860	0.00870
2139.90901	0.00877
2137.84943	0.00849
2135.78984	0.00744
2133.73026	0.00635
2131.67067	0.00648
2129.61109	0.00733
2127.55150	0.00791
2125.49192	0.00839
2123.43233	0.00916
2121.37275	0.01006
2119.31316	0.01046
2117.25358	0.01022
2115.19399	0.01017
2113.13441	0.01028
2111.07482	0.00977
2109.01524	0.00922
2106.95565	0.00929
2104.89607	0.00943
2102.83648	0.00952
2100.77690	0.00983
2098.71731	0.01007
2096.65772	0.01001
2094.59814	0.00982
2092.53855	0.00935
2090.47897	0.00867
2088.41938	0.00857
2086.35980	0.00929
2084.30021	0.00981
2082.24063	0.00975
2080.18104	0.00978
2078.12146	0.00983
2076.06187	0.00939
2074.00229	0.00890
2071.94270	0.00886
2069.88312	0.00898
2067.82353	0.00907
2065.76395	0.00893
2063.70436	0.00888
2061.64478	0.00961
2059.58519	0.01019
2057.52561	0.00942
2055.46602	0.00821
2053.40644	0.00828
2051.34685	0.00910
2049.28727	0.00896
2047.22768	0.00865
2045.16810	0.00925
2043.10851	0.00932
2041.04892	0.00834
2038.98934	0.00728
2036.92975	0.00595
2034.87017	0.00463
2032.81058	0.00465
2030.75100	0.00549
2028.69141	0.00561
2026.63183	0.00578
2024.57224	0.00684
2022.51266	0.00748
2020.45307	0.00718
2018.39349	0.00676
2016.33390	0.00663
2014.27432	0.00681
2012.21473	0.00737
2010.15515	0.00773
2008.09556	0.00715
2006.03598	0.00636
2003.97639	0.00616
2001.91681	0.00647
1999.85722	0.00706
1997.79764	0.00743
1995.73805	0.00730
1993.67847	0.00688
1991.61888	0.00655
1989.55929	0.00648
1987.49971	0.00651
1985.44012	0.00640
1983.38054	0.00599
1981.32095	0.00578
1979.26137	0.00590
1977.20178	0.00564
1975.14220	0.00513
1973.08261	0.00527
1971.02303	0.00596
1968.96344	0.00609
1966.90386	0.00547
1964.84427	0.00482
1962.78469	0.00445
1960.72510	0.00486
1958.66552	0.00602
1956.60593	0.00637
1954.54635	0.00585
1952.48676	0.00564
1950.42718	0.00556
1948.36759	0.00514
1946.30801	0.00488
1944.24842	0.00525
1942.18884	0.00578
1940.12925	0.00601
1938.06967	0.00635
1936.01008	0.00688
1933.95049	0.00695
1931.89091	0.00646
1929.83132	0.00593
1927.77174	0.00567
1925.71215	0.00574
1923.65257	0.00619
1921.59298	0.00693
1919.53340	0.00725
1917.47381	0.00687
1915.41423	0.00657
1913.35464	0.00671
1911.29506	0.00690
1909.23547	0.00659
1907.17589	0.00609
1905.11630	0.00623
1903.05672	0.00692
1900.99713	0.00744
1898.93755	0.00738
1896.87796	0.00709
1894.81838	0.00718
1892.75879	0.00751
1890.69921	0.00757
1888.63962	0.00743
1886.58004	0.00728
1884.52045	0.00717
1882.46086	0.00710
1880.40128	0.00713
1878.34169	0.00704
1876.28211	0.00686
1874.22252	0.00687
1872.16294	0.00708
1870.10335	0.00733
1868.04377	0.00743
1865.98418	0.00732
1863.92460	0.00724
1861.86501	0.00727
1859.80543	0.00730
1857.74584	0.00738
1855.68626	0.00743
1853.62667	0.00729
1851.56709	0.00708
1849.50750	0.00696
1847.44792	0.00701
1845.38833	0.00731
1843.32875	0.00755
1841.26916	0.00745
1839.20958	0.00725
1837.14999	0.00725
1835.09041	0.00741
1833.03082	0.00754
1830.97124	0.00777
1828.91165	0.00811
1826.85206	0.00834
1824.79248	0.00834
1822.73289	0.00811
1820.67331	0.00782
1818.61372	0.00765
1816.55414	0.00765
1814.49455	0.00786
1812.43497	0.00830
1810.37538	0.00870
1808.31580	0.00881
1806.25621	0.00873
1804.19663	0.00874
1802.13704	0.00893
1800.07746	0.00912
1798.01787	0.00921
1795.95829	0.00934
1793.89870	0.00953
1791.83912	0.00958
1789.77953	0.00945
1787.71995	0.00939
1785.66036	0.00956
1783.60078	0.00983
1781.54119	0.00999
1779.48161	0.01000
1777.42202	0.01011
1775.36243	0.01038
1773.30285	0.01065
1771.24326	0.01078
1769.18368	0.01078
1767.12409	0.01072
1765.06451	0.01080
1763.00492	0.01109
1760.94534	0.01149
1758.88575	0.01183
1756.82617	0.01195
1754.76658	0.01194
1752.70700	0.01205
1750.64741	0.01242
1748.58783	0.01279
1746.52824	0.01295
1744.46866	0.01301
1742.40907	0.01321
1740.34949	0.01357
1738.28990	0.01398
1736.23032	0.01437
1734.17073	0.01482
1732.11115	0.01524
1730.05156	0.01554
1727.99198	0.01594
1725.93239	0.01662
1723.87281	0.01755
1721.81322	0.01856
1719.75363	0.01991
1717.69405	0.02219
1715.63446	0.02530
1713.57488	0.02855
1711.51529	0.03200
1709.45571	0.03624
1707.39612	0.04180
1705.33654	0.04856
1703.27695	0.05569
1701.21737	0.06398
1699.15778	0.07401
1697.09820	0.08386
1695.03861	0.09317
1692.97903	0.10156
1690.91944	0.10940
1688.85986	0.11755
1686.80027	0.12598
1684.74069	0.13619
1682.68110	0.14768
1680.62152	0.15724
1678.56193	0.16556
1676.50235	0.17490
1674.44276	0.18560
1672.38318	0.19612
1670.32359	0.20701
1668.26401	0.21857
1666.20442	0.22876
1664.14483	0.23862
1662.08525	0.24970
1660.02566	0.26022
1657.96608	0.26878
1655.90649	0.27681
1653.84691	0.28722
1651.78732	0.29858
1649.72774	0.30597
1647.66815	0.31154
1645.60857	0.31724
1643.54898	0.32139
1641.48940	0.32383
1639.42981	0.32524
1637.37023	0.32534
1635.31064	0.32343
1633.25106	0.31979
1631.19147	0.31490
1629.13189	0.30814
1627.07230	0.29921
1625.01272	0.28825
1622.95313	0.27524
1620.89355	0.26196
1618.83396	0.24919
1616.77438	0.23506
1614.71479	0.22067
1612.65520	0.20761
1610.59562	0.19414
1608.53603	0.17965
1606.47645	0.16583
1604.41686	0.15410
1602.35728	0.14474
1600.29769	0.13766
1598.23811	0.13243
1596.17852	0.12822
1594.11894	0.12436
1592.05935	0.12088
1589.99977	0.11819
1587.94018	0.11664
1585.88060	0.11643
1583.82101	0.11763
1581.76143	0.11997
1579.70184	0.12310
1577.64226	0.12745
1575.58267	0.13341
1573.52309	0.13956
1571.46350	0.14583
1569.40392	0.15366
1567.34433	0.16214
1565.28475	0.17001
1563.22516	0.17724
1561.16558	0.18517
1559.10599	0.19672
1557.04640	0.20923
1554.98682	0.21837
1552.92723	0.22626
1550.86765	0.23451
1548.80806	0.24271
1546.74848	0.25002
1544.68889	0.25670
1542.62931	0.26362
1540.56972	0.27124
1538.51014	0.27807
1536.45055	0.28243
1534.39097	0.28595
1532.33138	0.28974
1530.27180	0.29279
1528.21221	0.29496
1526.15263	0.29676
1524.09304	0.29846
1522.03346	0.30082
1519.97387	0.30438
1517.91429	0.30871
1515.85470	0.31274
1513.79512	0.31467
1511.73553	0.31380
1509.67595	0.31031
1507.61636	0.30310
1505.55677	0.29256
1503.49719	0.28247
1501.43760	0.27291
1499.37802	0.26157
1497.31843	0.24773
1495.25885	0.23339
1493.19926	0.22073
1491.13968	0.20821
1489.08009	0.19425
1487.02051	0.18100
1484.96092	0.17013
1482.90134	0.16097
1480.84175	0.15283
1478.78217	0.14595
1476.72258	0.14052
1474.66300	0.13630
1472.60341	0.13313
1470.54383	0.13106
1468.48424	0.13019
1466.42466	0.13051
1464.36507	0.13202
1462.30549	0.13427
1460.24590	0.13714
1458.18632	0.14123
1456.12673	0.14594
1454.06715	0.14904
1452.00756	0.15017
1449.94797	0.14972
1447.88839	0.14755
1445.82880	0.14378
1443.76922	0.13894
1441.70963	0.13366
1439.65005	0.12847
1437.59046	0.12334
1435.53088	0.11856
1433.47129	0.11517
1431.41171	0.11322
1429.35212	0.11236
1427.29254	0.11270
1425.23295	0.11427
1423.17337	0.11680
1421.11378	0.12007
1419.05420	0.12424
1416.99461	0.12859
1414.93503	0.13197
1412.87544	0.13430
1410.81586	0.13562
1408.75627	0.13566
1406.69669	0.13424
1404.63710	0.13154
1402.57752	0.12834
1400.51793	0.12544
1398.45834	0.12330
1396.39876	0.12228
1394.33917	0.12240
1392.27959	0.12329
1390.22000	0.12468
1388.16042	0.12652
1386.10083	0.12835
1384.04125	0.12965
1381.98166	0.13041
1379.92208	0.13065
1377.86249	0.13020
1375.80291	0.12890
1373.74332	0.12665
1371.68374	0.12349
1369.62415	0.11956
1367.56457	0.11500
1365.50498	0.11030
1363.44540	0.10584
1361.38581	0.10189
1359.32623	0.09881
1357.26664	0.09668
1355.20706	0.09541
1353.14747	0.09501
1351.08789	0.09549
1349.02830	0.09689
1346.96872	0.09915
1344.90913	0.10201
1342.84954	0.10516
1340.78996	0.10848
1338.73037	0.11164
1336.67079	0.11401
1334.61120	0.11530
1332.55162	0.11539
1330.49203	0.11415
1328.43245	0.11184
1326.37286	0.10894
1324.31328	0.10581
1322.25369	0.10283
1320.19411	0.10048
1318.13452	0.09906
1316.07494	0.09840
1314.01535	0.09830
1311.95577	0.09867
1309.89618	0.09936
1307.83660	0.10023
1305.77701	0.10123
1303.71743	0.10229
1301.65784	0.10336
1299.59826	0.10445
1297.53867	0.10561
1295.47909	0.10683
1293.41950	0.10802
1291.35991	0.10913
1289.30033	0.11016
1287.24074	0.11117
1285.18116	0.11219
1283.12157	0.11325
1281.06199	0.11453
1279.00240	0.11619
1276.94282	0.11837
1274.88323	0.12095
1272.82365	0.12368
1270.76406	0.12643
1268.70448	0.12922
1266.64489	0.13201
1264.58531	0.13472
1262.52572	0.13745
1260.46614	0.14025
1258.40655	0.14310
1256.34697	0.14620
1254.28738	0.14969
1252.22780	0.15339
1250.16821	0.15710
1248.10863	0.16083
1246.04904	0.16460
1243.98946	0.16833
1241.92987	0.17177
1239.87029	0.17476
1237.81070	0.17723
1235.75111	0.17901
1233.69153	0.17983
1231.63194	0.17955
1229.57236	0.17810
1227.51277	0.17544
1225.45319	0.17157
1223.39360	0.16657
1221.33402	0.16058
1219.27443	0.15379
1217.21485	0.14653
1215.15526	0.13919
1213.09568	0.13202
1211.03609	0.12523
1208.97651	0.11891
1206.91692	0.11300
1204.85734	0.10750
1202.79775	0.10238
1200.73817	0.09767
1198.67858	0.09356
1196.61900	0.09020
1194.55941	0.08749
1192.49983	0.08535
1190.44024	0.08378
1188.38066	0.08266
1186.32107	0.08205
1184.26149	0.08213
1182.20190	0.08306
1180.14231	0.08472
1178.08273	0.08694
1176.02314	0.08947
1173.96356	0.09183
1171.90397	0.09352
1169.84439	0.09440
1167.78480	0.09470
1165.72522	0.09464
1163.66563	0.09419
1161.60605	0.09329
1159.54646	0.09200
1157.48688	0.09039
1155.42729	0.08843
1153.36771	0.08629
1151.30812	0.08417
1149.24854	0.08210
1147.18895	0.08009
1145.12937	0.07818
1143.06978	0.07642
1141.01020	0.07484
1138.95061	0.07350
1136.89103	0.07242
1134.83144	0.07154
1132.77186	0.07076
1130.71227	0.07012
1128.65268	0.06971
1126.59310	0.06951
1124.53351	0.06946
1122.47393	0.06954
1120.41434	0.06968
1118.35476	0.06976
1116.29517	0.06975
1114.23559	0.06975
1112.17600	0.06984
1110.11642	0.07009
1108.05683	0.07052
1105.99725	0.07096
1103.93766	0.07100
1101.87808	0.07041
1099.81849	0.06948
1097.75891	0.06860
1095.69932	0.06803
1093.63974	0.06806
1091.58015	0.06879
1089.52057	0.07008
1087.46098	0.07171
1085.40140	0.07363
1083.34181	0.07586
1081.28223	0.07834
1079.22264	0.08082
1077.16306	0.08307
1075.10347	0.08488
1073.04388	0.08617
1070.98430	0.08704
1068.92471	0.08754
1066.86513	0.08767
1064.80554	0.08769
1062.74596	0.08796
1060.68637	0.08857
1058.62679	0.08924
1056.56720	0.08957
1054.50762	0.08935
1052.44803	0.08840
1050.38845	0.08663
1048.32886	0.08424
1046.26928	0.08159
1044.20969	0.07910
1042.15011	0.07685
1040.09052	0.07475
1038.03094	0.07298
1035.97135	0.07170
1033.91177	0.07084
1031.85218	0.07028
1029.79260	0.06984
1027.73301	0.06942
1025.67343	0.06910
1023.61384	0.06928
1021.55425	0.07059
1019.49467	0.07317
1017.43508	0.07631
1015.37550	0.07868
1013.31591	0.07920
1011.25633	0.07772
1009.19674	0.07460
1007.13716	0.07050
1005.07757	0.06615
1003.01799	0.06200
1000.95840	0.05823
998.89882	0.05495
996.83923	0.05214
994.77965	0.04972
992.72006	0.04768
990.66048	0.04603
988.60089	0.04456
986.54131	0.04325
984.48172	0.04235
982.42214	0.04180
980.36255	0.04139
978.30297	0.04107
976.24338	0.04086
974.18380	0.04069
972.12421	0.04058
970.06463	0.04063
968.00504	0.04093
965.94545	0.04146
963.88587	0.04216
961.82628	0.04285
959.76670	0.04341
957.70711	0.04392
955.64753	0.04448
953.58794	0.04511
951.52836	0.04581
949.46877	0.04645
947.40919	0.04688
945.34960	0.04695
943.29002	0.04675
941.23043	0.04642
939.17085	0.04592
937.11126	0.04531
935.05168	0.04470
932.99209	0.04407
930.93251	0.04337
928.87292	0.04271
926.81334	0.04211
924.75375	0.04145
922.69417	0.04064
920.63458	0.03972
918.57500	0.03891
916.51541	0.03818
914.45582	0.03735
912.39624	0.03653
910.33665	0.03593
908.27707	0.03559
906.21748	0.03529
904.15790	0.03495
902.09831	0.03472
900.03873	0.03462
897.97914	0.03449
895.91956	0.03420
893.85997	0.03388
891.80039	0.03375
889.74080	0.03365
887.68122	0.03348
885.62163	0.03343
883.56205	0.03353
881.50246	0.03368
879.44288	0.03383
877.38329	0.03405
875.32371	0.03435
873.26412	0.03473
871.20454	0.03517
869.14495	0.03575
867.08537	0.03650
865.02578	0.03744
862.96620	0.03848
860.90661	0.03955
858.84702	0.04066
856.78744	0.04182
854.72785	0.04297
852.66827	0.04394
850.60868	0.04448
848.54910	0.04449
846.48951	0.04433
844.42993	0.04439
842.37034	0.04482
840.31076	0.04562
838.25117	0.04662
836.19159	0.04750
834.13200	0.04810
832.07242	0.04854
830.01283	0.04880
827.95325	0.04894
825.89366	0.04902
823.83408	0.04891
821.77449	0.04878
819.71491	0.04878
817.65532	0.04888
815.59574	0.04911
813.53615	0.04955
811.47657	0.05016
809.41698	0.05087
807.35740	0.05156
805.29781	0.05219
803.23822	0.05274
801.17864	0.05318
799.11905	0.05350
797.05947	0.05376
794.99988	0.05397
792.94030	0.05420
790.88071	0.05469
788.82113	0.05543
786.76154	0.05612
784.70196	0.05667
782.64237	0.05725
780.58279	0.05793
778.52320	0.05867
776.46362	0.05939
774.40403	0.06008
772.34445	0.06074
770.28486	0.06147
768.22528	0.06232
766.16569	0.06315
764.10611	0.06388
762.04652	0.06459
759.98694	0.06537
757.92735	0.06624
755.86777	0.06731
753.80818	0.06857
751.74859	0.06978
749.68901	0.07081
747.62942	0.07180
745.56984	0.07288
743.51025	0.07400
741.45067	0.07508
739.39108	0.07613
737.33150	0.07714
735.27191	0.07801
733.21233	0.07889
731.15274	0.07993
729.09316	0.08091
727.03357	0.08175
724.97399	0.08261
722.91440	0.08351
720.85482	0.08436
718.79523	0.08533
716.73565	0.08610
714.67606	0.08696
712.61648	0.08797
710.55689	0.08902
708.49731	0.09014
706.43772	0.09138
704.37814	0.09263
702.31855	0.09380
700.25897	0.09486
698.19938	0.09579
696.13979	0.09663
694.08021	0.09743
692.02062	0.09817
689.96104	0.09902
687.90145	0.10008
685.84187	0.10114
683.78228	0.10204
681.72270	0.10281
679.66311	0.10353
677.60353	0.10431
675.54394	0.10515
673.48436	0.10579
671.42477	0.10697
669.36519	0.10890
667.30560	0.10694
665.24602	0.10918
663.18643	0.10946
661.12685	0.10956
659.06726	0.10983
657.00768	0.11002
654.94809	0.11022
652.88851	0.11050
650.82892	0.11082
648.76934	0.11098
646.70975	0.11109
644.65016	0.11118
642.59058	0.11131
640.53099	0.11148
638.47141	0.11162
636.41182	0.11165
634.35224	0.11161
632.29265	0.11166
630.23307	0.11172
628.17348	0.11151
626.11390	0.11124
624.05431	0.11134
621.99473	0.11155
619.93514	0.11149
617.87556	0.11140
615.81597	0.11144
613.75639	0.11142
611.69680	0.11141
609.63722	0.11154
607.57763	0.11175
605.51805	0.11202
603.45846	0.11240
601.39888	0.11284
599.33929	0.11322
597.27971	0.11335
595.22012	0.11340
593.16054	0.11369
591.10095	0.11406
589.04136	0.11439
586.98178	0.11496
584.92219	0.11566
582.86261	0.11621
580.80302	0.11669
578.74344	0.11744
576.68385	0.11854
574.62427	0.11964
572.56468	0.12047
570.50510	0.12126
568.44551	0.12218
566.38593	0.12323
564.32634	0.12439
562.26676	0.12570
560.20717	0.12710
558.14759	0.12828
556.08800	0.12909
554.02842	0.12981
551.96883	0.13069
549.90925	0.13173
547.84966	0.13260
545.79008	0.13300
543.73049	0.13321
541.67091	0.13357
539.61132	0.13379
537.55173	0.13374
535.49215	0.13360
533.43256	0.13354
531.37298	0.13360
529.31339	0.13362
527.25381	0.13350
525.19422	0.13338
523.13464	0.13337
521.07505	0.13332
519.01547	0.13304
516.95588	0.13270
514.89630	0.13266
512.83671	0.13290
510.77713	0.13315
508.71754	0.13318
506.65796	0.13297
504.59837	0.13255
502.53879	0.13195
500.47920	0.13142
498.41962	0.13113
496.36003	0.13085
494.30045	0.13042
492.24086	0.13018
490.18128	0.13017
488.12169	0.12999
486.06211	0.12948
484.00252	0.12881
481.94293	0.12798
479.88335	0.12683
477.82376	0.12566
475.76418	0.12496
473.70459	0.12456
471.64501	0.12405
469.58542	0.12332
467.52584	0.12236
465.46625	0.12132
463.40667	0.12046
461.34708	0.11979
459.28750	0.11940
457.22791	0.11919
455.16833	0.11869
453.10874	0.11794
451.04916	0.11728
448.98957	0.11653
446.92999	0.11558
444.87040	0.11464
442.81082	0.11378
440.75123	0.11290
438.69165	0.11215
436.63206	0.11157
434.57248	0.11096
432.51289	0.11056
430.45330	0.11057
428.39372	0.11049
426.33413	0.11000
424.27455	0.10935
422.21496	0.10899
420.15538	0.10888
418.09579	0.10869
416.03621	0.10829
413.97662	0.10811
411.91704	0.10823
409.85745	0.10801
407.79787	0.10718
405.73828	0.10631
403.67870	0.10545
401.61911	0.10462
399.55953	0.10443
