3997.65486	-0.00239
3995.59527	-0.00269
3993.53569	-0.00265
3991.47610	-0.00234
3989.41652	-0.00229
3987.35693	-0.00258
3985.29735	-0.00237
3983.23776	-0.00174
3981.17817	-0.00161
3979.11859	-0.00177
3977.05900	-0.00164
3974.99942	-0.00163
3972.93983	-0.00174
3970.88025	-0.00176
3968.82066	-0.00169
3966.76108	-0.00146
3964.70149	-0.00138
3962.64191	-0.00172
3960.58232	-0.00223
3958.52274	-0.00230
3956.46315	-0.00185
3954.40357	-0.00170
3952.34398	-0.00214
3950.28440	-0.00280
3948.22481	-0.00348
3946.16523	-0.00406
3944.10564	-0.00424
3942.04606	-0.00368
3939.98647	-0.00272
3937.92689	-0.00251
3935.86730	-0.00287
3933.80772	-0.00276
3931.74813	-0.00234
3929.68855	-0.00230
3927.62896	-0.00257
3925.56937	-0.00283
3923.50979	-0.00281
3921.45020	-0.00244
3919.39062	-0.00201
3917.33103	-0.00171
3915.27145	-0.00157
3913.21186	-0.00153
3911.15228	-0.00164
3909.09269	-0.00202
3907.03311	-0.00263
3904.97352	-0.00308
3902.91394	-0.00285
3900.85435	-0.00218
3898.79477	-0.00201
3896.73518	-0.00228
3894.67560	-0.00215
3892.61601	-0.00158
3890.55643	-0.00132
3888.49684	-0.00156
3886.43726	-0.00190
3884.37767	-0.00219
3882.31809	-0.00249
3880.25850	-0.00253
3878.19892	-0.00200
3876.13933	-0.00142
3874.07974	-0.00174
3872.02016	-0.00297
3869.96057	-0.00366
3867.90099	-0.00297
3865.84140	-0.00183
3863.78182	-0.00124
3861.72223	-0.00144
3859.66265	-0.00204
3857.60306	-0.00245
3855.54348	-0.00216
3853.48389	-0.00124
3851.42431	-0.00083
3849.36472	-0.00117
3847.30514	-0.00143
3845.24555	-0.00157
3843.18597	-0.00209
3841.12638	-0.00290
3839.06680	-0.00353
3837.00721	-0.00370
3834.94763	-0.00331
3832.88804	-0.00263
3830.82846	-0.00213
3828.76887	-0.00196
3826.70929	-0.00206
3824.64970	-0.00229
3822.59012	-0.00236
3820.53053	-0.00219
3818.47094	-0.00224
3816.41136	-0.00260
3814.35177	-0.00285
3812.29219	-0.00295
3810.23260	-0.00290
3808.17302	-0.00242
3806.11343	-0.00189
3804.05385	-0.00200
3801.99426	-0.00247
3799.93468	-0.00258
3797.87509	-0.00216
3795.81551	-0.00162
3793.75592	-0.00135
3791.69634	-0.00148
3789.63675	-0.00171
3787.57717	-0.00163
3785.51758	-0.00143
3783.45800	-0.00156
3781.39841	-0.00179
3779.33883	-0.00177
3777.27924	-0.00148
3775.21966	-0.00108
3773.16007	-0.00079
3771.10049	-0.00069
3769.04090	-0.00088
3766.98132	-0.00134
3764.92173	-0.00177
3762.86214	-0.00173
3760.80256	-0.00138
3758.74297	-0.00141
3756.68339	-0.00182
3754.62380	-0.00185
3752.56422	-0.00139
3750.50463	-0.00077
3748.44505	-0.00010
3746.38546	0.00022
3744.32588	0.00016
3742.26629	0.00019
3740.20671	0.00055
3738.14712	0.00130
3736.08754	0.00203
3734.02795	0.00174
3731.96837	0.00037
3729.90878	-0.00103
3727.84920	-0.00148
3725.78961	-0.00076
3723.73003	-0.00006
3721.67044	-0.00058
3719.61086	-0.00164
3717.55127	-0.00188
3715.49169	-0.00106
3713.43210	0.00013
3711.37251	0.00063
3709.31293	0.00008
3707.25334	-0.00041
3705.19376	-0.00045
3703.13417	-0.00066
3701.07459	-0.00111
3699.01500	-0.00114
3696.95542	-0.00071
3694.89583	-0.00019
3692.83625	0.00040
3690.77666	0.00113
3688.71708	0.00147
3686.65749	0.00121
3684.59791	0.00104
3682.53832	0.00119
3680.47874	0.00131
3678.41915	0.00116
3676.35957	0.00078
3674.29998	0.00054
3672.24040	0.00082
3670.18081	0.00169
3668.12123	0.00279
3666.06164	0.00355
3664.00206	0.00392
3661.94247	0.00404
3659.88289	0.00423
3657.82330	0.00519
3655.76371	0.00703
3653.70413	0.00842
3651.64454	0.00878
3649.58496	0.00908
3647.52537	0.00990
3645.46579	0.01062
3643.40620	0.01088
3641.34662	0.01082
3639.28703	0.01112
3637.22745	0.01254
3635.16786	0.01444
3633.10828	0.01557
3631.04869	0.01615
3628.98911	0.01725
3626.92952	0.01860
3624.86994	0.01952
3622.81035	0.02018
3620.75077	0.02094
3618.69118	0.02181
3616.63160	0.02242
3614.57201	0.02281
3612.51243	0.02347
3610.45284	0.02459
3608.39326	0.02594
3606.33367	0.02715
3604.27408	0.02812
3602.21450	0.02906
3600.15491	0.03002
3598.09533	0.03093
3596.03574	0.03178
3593.97616	0.03253
3591.91657	0.03330
3589.85699	0.03450
3587.79740	0.03621
3585.73782	0.03747
3583.67823	0.03781
3581.61865	0.03808
3579.55906	0.03878
3577.49948	0.03999
3575.43989	0.04182
3573.38031	0.04372
3571.32072	0.04492
3569.26114	0.04556
3567.20155	0.04643
3565.14197	0.04787
3563.08238	0.04948
3561.02280	0.05081
3558.96321	0.05213
3556.90363	0.05360
3554.84404	0.05474
3552.78446	0.05561
3550.72487	0.05669
3548.66528	0.05779
3546.60570	0.05875
3544.54611	0.05972
3542.48653	0.06072
3540.42694	0.06177
3538.36736	0.06288
3536.30777	0.06423
3534.24819	0.06563
3532.18860	0.06643
3530.12902	0.06680
3528.06943	0.06756
3526.00985	0.06901
3523.95026	0.07072
3521.89068	0.07199
3519.83109	0.07267
3517.77151	0.07313
3515.71192	0.07373
3513.65234	0.07476
3511.59275	0.07606
3509.53317	0.07746
3507.47358	0.07876
3505.41400	0.07935
3503.35441	0.07930
3501.29483	0.07963
3499.23524	0.08067
3497.17565	0.08183
3495.11607	0.08254
3493.05648	0.08299
3490.99690	0.08370
3488.93731	0.08454
3486.87773	0.08508
3484.81814	0.08541
3482.75856	0.08613
3480.69897	0.08726
3478.63939	0.08811
3476.57980	0.08873
3474.52022	0.08972
3472.46063	0.09081
3470.40105	0.09134
3468.34146	0.09155
3466.28188	0.09212
3464.22229	0.09298
3462.16271	0.09349
3460.10312	0.09363
3458.04354	0.09387
3455.98395	0.09434
3453.92437	0.09483
3451.86478	0.09531
3449.80520	0.09576
3447.74561	0.09603
3445.68603	0.09606
3443.62644	0.09632
3441.56685	0.09734
3439.50727	0.09836
3437.44768	0.09900
3435.38810	0.09981
3433.32851	0.10053
3431.26893	0.10089
3429.20934	0.10142
3427.14976	0.10244
3425.09017	0.10362
3423.03059	0.10462
3420.97100	0.10544
3418.91142	0.10606
3416.85183	0.10668
3414.79225	0.10774
3412.73266	0.10897
3410.67308	0.11016
3408.61349	0.11132
3406.55391	0.11200
3404.49432	0.11240
3402.43474	0.11317
3400.37515	0.11417
3398.31557	0.11528
3396.25598	0.11669
3394.19640	0.11829
3392.13681	0.11966
3390.07723	0.12068
3388.01764	0.12177
3385.95805	0.12289
3383.89847	0.12383
3381.83888	0.12483
3379.77930	0.12596
3377.71971	0.12703
3375.66013	0.12815
3373.60054	0.12933
3371.54096	0.13025
3369.48137	0.13098
3367.42179	0.13202
3365.36220	0.13352
3363.30262	0.13545
3361.24303	0.13758
3359.18345	0.13966
3357.12386	0.14162
3355.06428	0.14307
3353.00469	0.14399
3350.94511	0.14494
3348.88552	0.14610
3346.82594	0.14760
3344.76635	0.14938
3342.70677	0.15105
3340.64718	0.15250
3338.58760	0.15410
3336.52801	0.15614
3334.46842	0.15821
3332.40884	0.15969
3330.34925	0.16082
3328.28967	0.16246
3326.23008	0.16458
3324.17050	0.16654
3322.11091	0.16839
3320.05133	0.17017
3317.99174	0.17178
3315.93216	0.17352
3313.87257	0.17535
3311.81299	0.17714
3309.75340	0.17914
3307.69382	0.18121
3305.63423	0.18299
3303.57465	0.18447
3301.51506	0.18557
3299.45548	0.18637
3297.39589	0.18768
3295.33631	0.18966
3293.27672	0.19129
3291.21714	0.19219
3289.15755	0.19284
3287.09797	0.19352
3285.03838	0.19398
3282.97880	0.19386
3280.91921	0.19348
3278.85962	0.19345
3276.80004	0.19383
3274.74045	0.19433
3272.68087	0.19438
3270.62128	0.19367
3268.56170	0.19261
3266.50211	0.19163
3264.44253	0.19078
3262.38294	0.18993
3260.32336	0.18882
3258.26377	0.18724
3256.20419	0.18531
3254.14460	0.18370
3252.08502	0.18268
3250.02543	0.18165
3247.96585	0.18036
3245.90626	0.17897
3243.84668	0.17706
3241.78709	0.17487
3239.72751	0.17336
3237.66792	0.17241
3235.60834	0.17125
3233.54875	0.16942
3231.48917	0.16723
3229.42958	0.16521
3227.36999	0.16330
3225.31041	0.16143
3223.25082	0.15980
3221.19124	0.15830
3219.13165	0.15680
3217.07207	0.15536
3215.01248	0.15358
3212.95290	0.15161
3210.89331	0.14994
3208.83373	0.14830
3206.77414	0.14658
3204.71456	0.14481
3202.65497	0.14296
3200.59539	0.14106
3198.53580	0.13892
3196.47622	0.13671
3194.41663	0.13489
3192.35705	0.13315
3190.29746	0.13095
3188.23788	0.12866
3186.17829	0.12680
3184.11871	0.12502
3182.05912	0.12292
3179.99954	0.12060
3177.93995	0.11821
3175.88037	0.11594
3173.82078	0.11391
3171.76119	0.11190
3169.70161	0.10958
3167.64202	0.10711
3165.58244	0.10502
3163.52285	0.10319
3161.46327	0.10131
3159.40368	0.09944
3157.34410	0.09755
3155.28451	0.09566
3153.22493	0.09411
3151.16534	0.09304
3149.10576	0.09184
3147.04617	0.09011
3144.98659	0.08813
3142.92700	0.08651
3140.86742	0.08574
3138.80783	0.08519
3136.74825	0.08409
3134.68866	0.08303
3132.62908	0.08256
3130.56949	0.08199
3128.50991	0.08084
3126.45032	0.07977
3124.39074	0.07935
3122.33115	0.07953
3120.27156	0.07994
3118.21198	0.08020
3116.15239	0.08022
3114.09281	0.08010
3112.03322	0.08015
3109.97364	0.08046
3107.91405	0.08054
3105.85447	0.08037
3103.79488	0.08043
3101.73530	0.08073
3099.67571	0.08128
3097.61613	0.08226
3095.55654	0.08344
3093.49696	0.08445
3091.43737	0.08550
3089.37779	0.08674
3087.31820	0.08769
3085.25862	0.08809
3083.19903	0.08830
3081.13945	0.08858
3079.07986	0.08890
3077.02028	0.08901
3074.96069	0.08890
3072.90111	0.08880
3070.84152	0.08895
3068.78194	0.08923
3066.72235	0.08918
3064.66276	0.08863
3062.60318	0.08784
3060.54359	0.08693
3058.48401	0.08573
3056.42442	0.08450
3054.36484	0.08360
3052.30525	0.08269
3050.24567	0.08119
3048.18608	0.07924
3046.12650	0.07766
3044.06691	0.07657
3042.00733	0.07519
3039.94774	0.07332
3037.88816	0.07165
3035.82857	0.07043
3033.76899	0.06898
3031.70940	0.06709
3029.64982	0.06544
3027.59023	0.06438
3025.53065	0.06337
3023.47106	0.06195
3021.41148	0.06056
3019.35189	0.05956
3017.29231	0.05855
3015.23272	0.05744
3013.17313	0.05652
3011.11355	0.05564
3009.05396	0.05463
3006.99438	0.05385
3004.93479	0.05373
3002.87521	0.05394
3000.81562	0.05390
2998.75604	0.05396
2996.69645	0.05457
2994.63687	0.05530
2992.57728	0.05603
2990.51770	0.05682
2988.45811	0.05774
2986.39853	0.05885
2984.33894	0.05988
2982.27936	0.06044
2980.21977	0.06034
2978.16019	0.05975
2976.10060	0.05923
2974.04102	0.05883
2971.98143	0.05815
2969.92185	0.05751
2967.86226	0.05738
2965.80268	0.05730
2963.74309	0.05681
2961.68351	0.05642
2959.62392	0.05638
2957.56433	0.05612
2955.50475	0.05569
2953.44516	0.05585
2951.38558	0.05681
2949.32599	0.05832
2947.26641	0.06006
2945.20682	0.06156
2943.14724	0.06281
2941.08765	0.06395
2939.02807	0.06488
2936.96848	0.06547
2934.90890	0.06542
2932.84931	0.06453
2930.78973	0.06297
2928.73014	0.06069
2926.67056	0.05750
2924.61097	0.05375
2922.55139	0.04983
2920.49180	0.04557
2918.43222	0.04054
2916.37263	0.03579
2914.31305	0.03393
2912.25346	0.03526
2910.19388	0.03724
2908.13429	0.03839
2906.07471	0.03885
2904.01512	0.03868
2901.95553	0.03818
2899.89595	0.03782
2897.83636	0.03748
2895.77678	0.03695
2893.71719	0.03636
2891.65761	0.03588
2889.59802	0.03567
2887.53844	0.03582
2885.47885	0.03612
2883.41927	0.03641
2881.35968	0.03690
2879.30010	0.03737
2877.24051	0.03724
2875.18093	0.03652
2873.12134	0.03571
2871.06176	0.03502
2869.00217	0.03414
2866.94259	0.03327
2864.88300	0.03259
2862.82342	0.03176
2860.76383	0.03090
2858.70425	0.03015
2856.64466	0.02916
2854.58508	0.02765
2852.52549	0.02508
2850.46590	0.02122
2848.40632	0.01815
2846.34673	0.01853
2844.28715	0.02135
2842.22756	0.02388
2840.16798	0.02521
2838.10839	0.02576
2836.04881	0.02603
2833.98922	0.02624
2831.92964	0.02639
2829.87005	0.02656
2827.81047	0.02667
2825.75088	0.02638
2823.69130	0.02568
2821.63171	0.02536
2819.57213	0.02574
2817.51254	0.02592
2815.45296	0.02540
2813.39337	0.02479
2811.33379	0.02451
2809.27420	0.02425
2807.21462	0.02391
2805.15503	0.02375
2803.09545	0.02359
2801.03586	0.02327
2798.97628	0.02295
2796.91669	0.02248
2794.85710	0.02201
2792.79752	0.02192
2790.73793	0.02191
2788.67835	0.02148
2786.61876	0.02074
2784.55918	0.02012
2782.49959	0.01979
2780.44001	0.01971
2778.38042	0.01956
2776.32084	0.01902
2774.26125	0.01845
2772.20167	0.01823
2770.14208	0.01821
2768.08250	0.01798
2766.02291	0.01738
2763.96333	0.01678
2761.90374	0.01653
2759.84416	0.01643
2757.78457	0.01613
2755.72499	0.01562
2753.66540	0.01497
2751.60582	0.01464
2749.54623	0.01491
2747.48665	0.01512
2745.42706	0.01487
2743.36747	0.01446
2741.30789	0.01420
2739.24830	0.01403
2737.18872	0.01378
2735.12913	0.01344
2733.06955	0.01311
2731.00996	0.01299
2728.95038	0.01307
2726.89079	0.01321
2724.83121	0.01328
2722.77162	0.01307
2720.71204	0.01253
2718.65245	0.01208
2716.59287	0.01190
2714.53328	0.01165
2712.47370	0.01129
2710.41411	0.01128
2708.35453	0.01169
2706.29494	0.01201
2704.23536	0.01184
2702.17577	0.01145
2700.11619	0.01118
2698.05660	0.01105
2695.99702	0.01104
2693.93743	0.01105
2691.87785	0.01090
2689.81826	0.01077
2687.75867	0.01094
2685.69909	0.01108
2683.63950	0.01095
2681.57992	0.01072
2679.52033	0.01056
2677.46075	0.01061
2675.40116	0.01080
2673.34158	0.01083
2671.28199	0.01058
2669.22241	0.01040
2667.16282	0.01039
2665.10324	0.01038
2663.04365	0.01044
2660.98407	0.01057
2658.92448	0.01062
2656.86490	0.01054
2654.80531	0.01047
2652.74573	0.01051
2650.68614	0.01054
2648.62656	0.01038
2646.56697	0.01006
2644.50739	0.00989
2642.44780	0.00987
2640.38822	0.00982
2638.32863	0.00973
2636.26904	0.00952
2634.20946	0.00942
2632.14987	0.00938
2630.09029	0.00922
2628.03070	0.00930
2625.97112	0.00954
2623.91153	0.00926
2621.85195	0.00875
2619.79236	0.00882
2617.73278	0.00911
2615.67319	0.00902
2613.61361	0.00890
2611.55402	0.00908
2609.49444	0.00924
2607.43485	0.00903
2605.37527	0.00848
2603.31568	0.00792
2601.25610	0.00751
2599.19651	0.00733
2597.13693	0.00750
2595.07734	0.00771
2593.01776	0.00793
2590.95817	0.00817
2588.89859	0.00788
2586.83900	0.00718
2584.77942	0.00666
2582.71983	0.00650
2580.66024	0.00667
2578.60066	0.00688
2576.54107	0.00695
2574.48149	0.00718
2572.42190	0.00745
2570.36232	0.00705
2568.30273	0.00604
2566.24315	0.00547
2564.18356	0.00568
2562.12398	0.00603
2560.06439	0.00599
2558.00481	0.00569
2555.94522	0.00568
2553.88564	0.00594
2551.82605	0.00606
2549.76647	0.00587
2547.70688	0.00549
2545.64730	0.00527
2543.58771	0.00539
2541.52813	0.00552
2539.46854	0.00559
2537.40896	0.00571
2535.34937	0.00577
2533.28979	0.00586
2531.23020	0.00587
2529.17062	0.00572
2527.11103	0.00560
2525.05144	0.00535
2522.99186	0.00501
2520.93227	0.00500
2518.87269	0.00506
2516.81310	0.00504
2514.75352	0.00539
2512.69393	0.00581
2510.63435	0.00566
2508.57476	0.00512
2506.51518	0.00461
2504.45559	0.00426
2502.39601	0.00414
2500.33642	0.00439
2498.27684	0.00472
2496.21725	0.00472
2494.15767	0.00472
2492.09808	0.00489
2490.03850	0.00477
2487.97891	0.00443
2485.91933	0.00420
2483.85974	0.00432
2481.80016	0.00476
2479.74057	0.00479
2477.68099	0.00416
2475.62140	0.00358
2473.56181	0.00347
2471.50223	0.00375
2469.44264	0.00419
2467.38306	0.00449
2465.32347	0.00460
2463.26389	0.00475
2461.20430	0.00499
2459.14472	0.00519
2457.08513	0.00515
2455.02555	0.00475
2452.96596	0.00438
2450.90638	0.00445
2448.84679	0.00459
2446.78721	0.00440
2444.72762	0.00415
2442.66804	0.00410
2440.60845	0.00415
2438.54887	0.00419
2436.48928	0.00431
2434.42970	0.00462
2432.37011	0.00465
2430.31053	0.00436
2428.25094	0.00433
2426.19136	0.00438
2424.13177	0.00416
2422.07219	0.00397
2420.01260	0.00408
2417.95301	0.00398
2415.89343	0.00337
2413.83384	0.00298
2411.77426	0.00321
2409.71467	0.00349
2407.65509	0.00338
2405.59550	0.00329
2403.53592	0.00362
2401.47633	0.00396
2399.41675	0.00406
2397.35716	0.00388
2395.29758	0.00380
2393.23799	0.00379
2391.17841	0.00373
2389.11882	0.00362
2387.05924	0.00356
2384.99965	0.00359
2382.94007	0.00362
2380.88048	0.00377
2378.82090	0.00430
2376.76131	0.00522
2374.70173	0.00631
2372.64214	0.00725
2370.58256	0.00775
2368.52297	0.00793
2366.46338	0.00819
2364.40380	0.00853
2362.34421	0.00878
2360.28463	0.00907
2358.22504	0.00918
2356.16546	0.00872
2354.10587	0.00784
2352.04629	0.00672
2349.98670	0.00590
2347.92712	0.00602
2345.86753	0.00675
2343.80795	0.00711
2341.74836	0.00706
2339.68878	0.00679
2337.62919	0.00638
2335.56961	0.00633
2333.51002	0.00667
2331.45044	0.00686
2329.39085	0.00696
2327.33127	0.00750
2325.27168	0.00845
2323.21210	0.00903
2321.15251	0.00869
2319.09293	0.00786
2317.03334	0.00720
2314.97376	0.00712
2312.91417	0.00729
2310.85458	0.00709
2308.79500	0.00656
2306.73541	0.00624
2304.67583	0.00620
2302.61624	0.00607
2300.55666	0.00574
2298.49707	0.00544
2296.43749	0.00517
2294.37790	0.00494
2292.31832	0.00483
2290.25873	0.00496
2288.19915	0.00538
2286.13956	0.00559
2284.07998	0.00534
2282.02039	0.00505
2279.96081	0.00491
2277.90122	0.00482
2275.84164	0.00478
2273.78205	0.00499
2271.72247	0.00547
2269.66288	0.00568
2267.60330	0.00526
2265.54371	0.00477
2263.48413	0.00475
2261.42454	0.00478
2259.36495	0.00436
2257.30537	0.00390
2255.24578	0.00387
2253.18620	0.00410
2251.12661	0.00468
2249.06703	0.00536
2247.00744	0.00528
2244.94786	0.00491
2242.88827	0.00472
2240.82869	0.00471
2238.76910	0.00472
2236.70952	0.00443
2234.64993	0.00383
2232.59035	0.00343
2230.53076	0.00384
2228.47118	0.00444
2226.41159	0.00397
2224.35201	0.00334
2222.29242	0.00395
2220.23284	0.00484
2218.17325	0.00486
2216.11367	0.00470
2214.05408	0.00466
2211.99450	0.00382
2209.93491	0.00294
2207.87533	0.00349
2205.81574	0.00425
2203.75615	0.00413
2201.69657	0.00396
2199.63698	0.00399
2197.57740	0.00409
2195.51781	0.00404
2193.45823	0.00365
2191.39864	0.00381
2189.33906	0.00469
2187.27947	0.00523
2185.21989	0.00547
2183.16030	0.00599
2181.10072	0.00632
2179.04113	0.00566
2176.98155	0.00423
2174.92196	0.00320
2172.86238	0.00309
2170.80279	0.00378
2168.74321	0.00478
2166.68362	0.00533
2164.62404	0.00558
2162.56445	0.00624
2160.50487	0.00649
2158.44528	0.00520
2156.38570	0.00353
2154.32611	0.00223
2152.26652	0.00139
2150.20694	0.00157
2148.14735	0.00228
2146.08777	0.00277
2144.02818	0.00321
2141.96860	0.00358
2139.90901	0.00349
2137.84943	0.00322
2135.78984	0.00312
2133.73026	0.00321
2131.67067	0.00353
2129.61109	0.00369
2127.55150	0.00351
2125.49192	0.00371
2123.43233	0.00459
2121.37275	0.00541
2119.31316	0.00552
2117.25358	0.00533
2115.19399	0.00544
2113.13441	0.00582
2111.07482	0.00588
2109.01524	0.00557
2106.95565	0.00541
2104.89607	0.00531
2102.83648	0.00532
2100.77690	0.00561
2098.71731	0.00566
2096.65772	0.00529
2094.59814	0.00488
2092.53855	0.00465
2090.47897	0.00446
2088.41938	0.00426
2086.35980	0.00425
2084.30021	0.00459
2082.24063	0.00500
2080.18104	0.00503
2078.12146	0.00465
2076.06187	0.00419
2074.00229	0.00407
2071.94270	0.00450
2069.88312	0.00484
2067.82353	0.00472
2065.76395	0.00450
2063.70436	0.00437
2061.64478	0.00430
2059.58519	0.00431
2057.52561	0.00450
2055.46602	0.00476
2053.40644	0.00500
2051.34685	0.00519
2049.28727	0.00502
2047.22768	0.00469
2045.16810	0.00472
2043.10851	0.00502
2041.04892	0.00524
2038.98934	0.00525
2036.92975	0.00511
2034.87017	0.00459
2032.81058	0.00372
2030.75100	0.00288
2028.69141	0.00243
2026.63183	0.00295
2024.57224	0.00409
2022.51266	0.00463
2020.45307	0.00449
2018.39349	0.00408
2016.33390	0.00357
2014.27432	0.00393
2012.21473	0.00466
2010.15515	0.00394
2008.09556	0.00243
2006.03598	0.00167
2003.97639	0.00135
2001.91681	0.00121
1999.85722	0.00179
1997.79764	0.00296
1995.73805	0.00363
1993.67847	0.00327
1991.61888	0.00287
1989.55929	0.00321
1987.49971	0.00344
1985.44012	0.00324
1983.38054	0.00362
1981.32095	0.00446
1979.26137	0.00422
1977.20178	0.00337
1975.14220	0.00327
1973.08261	0.00326
1971.02303	0.00312
1968.96344	0.00312
1966.90386	0.00270
1964.84427	0.00174
1962.78469	0.00126
1960.72510	0.00189
1958.66552	0.00263
1956.60593	0.00273
1954.54635	0.00282
1952.48676	0.00300
1950.42718	0.00291
1948.36759	0.00275
1946.30801	0.00276
1944.24842	0.00291
1942.18884	0.00314
1940.12925	0.00328
1938.06967	0.00326
1936.01008	0.00332
1933.95049	0.00353
1931.89091	0.00345
1929.83132	0.00312
1927.77174	0.00291
1925.71215	0.00270
1923.65257	0.00255
1921.59298	0.00278
1919.53340	0.00319
1917.47381	0.00338
1915.41423	0.00317
1913.35464	0.00293
1911.29506	0.00306
1909.23547	0.00341
1907.17589	0.00369
1905.11630	0.00378
1903.05672	0.00368
1900.99713	0.00338
1898.93755	0.00298
1896.87796	0.00284
1894.81838	0.00316
1892.75879	0.00384
1890.69921	0.00449
1888.63962	0.00448
1886.58004	0.00386
1884.52045	0.00337
1882.46086	0.00324
1880.40128	0.00328
1878.34169	0.00335
1876.28211	0.00346
1874.22252	0.00349
1872.16294	0.00353
1870.10335	0.00367
1868.04377	0.00382
1865.98418	0.00393
1863.92460	0.00397
1861.86501	0.00393
1859.80543	0.00385
1857.74584	0.00375
1855.68626	0.00365
1853.62667	0.00360
1851.56709	0.00356
1849.50750	0.00350
1847.44792	0.00355
1845.38833	0.00382
1843.32875	0.00417
1841.26916	0.00440
1839.20958	0.00444
1837.14999	0.00429
1835.09041	0.00398
1833.03082	0.00374
1830.97124	0.00368
1828.91165	0.00372
1826.85206	0.00401
1824.79248	0.00452
1822.73289	0.00486
1820.67331	0.00478
1818.61372	0.00455
1816.55414	0.00446
1814.49455	0.00454
1812.43497	0.00459
1810.37538	0.00460
1808.31580	0.00479
1806.25621	0.00518
1804.19663	0.00552
1802.13704	0.00562
1800.07746	0.00557
1798.01787	0.00554
1795.95829	0.00556
1793.89870	0.00570
1791.83912	0.00597
1789.77953	0.00612
1787.71995	0.00616
1785.66036	0.00630
1783.60078	0.00645
1781.54119	0.00646
1779.48161	0.00652
1777.42202	0.00674
1775.36243	0.00693
1773.30285	0.00703
1771.24326	0.00713
1769.18368	0.00726
1767.12409	0.00747
1765.06451	0.00780
1763.00492	0.00808
1760.94534	0.00812
1758.88575	0.00808
1756.82617	0.00821
1754.76658	0.00848
1752.70700	0.00875
1750.64741	0.00916
1748.58783	0.00962
1746.52824	0.00991
1744.46866	0.01012
1742.40907	0.01045
1740.34949	0.01083
1738.28990	0.01102
1736.23032	0.01111
1734.17073	0.01158
1732.11115	0.01238
1730.05156	0.01301
1727.99198	0.01353
1725.93239	0.01415
1723.87281	0.01481
1721.81322	0.01536
1719.75363	0.01615
1717.69405	0.01792
1715.63446	0.02062
1713.57488	0.02335
1711.51529	0.02614
1709.45571	0.02939
1707.39612	0.03357
1705.33654	0.03888
1703.27695	0.04457
1701.21737	0.05131
1699.15778	0.05981
1697.09820	0.06844
1695.03861	0.07681
1692.97903	0.08413
1690.91944	0.09069
1688.85986	0.09750
1686.80027	0.10473
1684.74069	0.11422
1682.68110	0.12514
1680.62152	0.13321
1678.56193	0.13955
1676.50235	0.14721
1674.44276	0.15669
1672.38318	0.16582
1670.32359	0.17530
1668.26401	0.18580
1666.20442	0.19450
1664.14483	0.20255
1662.08525	0.21229
1660.02566	0.22153
1657.96608	0.22806
1655.90649	0.23384
1653.84691	0.24353
1651.78732	0.25535
1649.72774	0.26155
1647.66815	0.26602
1645.60857	0.27200
1643.54898	0.27593
1641.48940	0.27731
1639.42981	0.27771
1637.37023	0.27794
1635.31064	0.27784
1633.25106	0.27575
1631.19147	0.27130
1629.13189	0.26511
1627.07230	0.25736
1625.01272	0.24807
1622.95313	0.23737
1620.89355	0.22650
1618.83396	0.21574
1616.77438	0.20373
1614.71479	0.19162
1612.65520	0.18062
1610.59562	0.16920
1608.53603	0.15698
1606.47645	0.14555
1604.41686	0.13597
1602.35728	0.12816
1600.29769	0.12208
1598.23811	0.11753
1596.17852	0.11385
1594.11894	0.11058
1592.05935	0.10778
1589.99977	0.10569
1587.94018	0.10451
1585.88060	0.10442
1583.82101	0.10539
1581.76143	0.10715
1579.70184	0.10953
1577.64226	0.11337
1575.58267	0.11916
1573.52309	0.12462
1571.46350	0.12961
1569.40392	0.13658
1567.34433	0.14471
1565.28475	0.15187
1563.22516	0.15756
1561.16558	0.16358
1559.10599	0.17439
1557.04640	0.18710
1554.98682	0.19512
1552.92723	0.20121
1550.86765	0.20774
1548.80806	0.21417
1546.74848	0.21933
1544.68889	0.22369
1542.62931	0.22878
1540.56972	0.23561
1538.51014	0.24203
1536.45055	0.24516
1534.39097	0.24759
1532.33138	0.25101
1530.27180	0.25343
1528.21221	0.25450
1526.15263	0.25524
1524.09304	0.25601
1522.03346	0.25781
1519.97387	0.26108
1517.91429	0.26483
1515.85470	0.26785
1513.79512	0.26813
1511.73553	0.26516
1509.67595	0.25976
1507.61636	0.25161
1505.55677	0.24144
1503.49719	0.23219
1501.43760	0.22325
1499.37802	0.21285
1497.31843	0.20073
1495.25885	0.18873
1493.19926	0.17833
1491.13968	0.16792
1489.08009	0.15638
1487.02051	0.14585
1484.96092	0.13753
1482.90134	0.13062
1480.84175	0.12454
1478.78217	0.11945
1476.72258	0.11540
1474.66300	0.11235
1472.60341	0.11052
1470.54383	0.10967
1468.48424	0.10929
1466.42466	0.10957
1464.36507	0.11097
1462.30549	0.11298
1460.24590	0.11529
1458.18632	0.11893
1456.12673	0.12367
1454.06715	0.12659
1452.00756	0.12717
1449.94797	0.12637
1447.88839	0.12436
1445.82880	0.12115
1443.76922	0.11715
1441.70963	0.11276
1439.65005	0.10833
1437.59046	0.10408
1435.53088	0.10035
1433.47129	0.09768
1431.41171	0.09604
1429.35212	0.09540
1427.29254	0.09582
1425.23295	0.09726
1423.17337	0.09944
1421.11378	0.10218
1419.05420	0.10598
1416.99461	0.11022
1414.93503	0.11339
1412.87544	0.11539
1410.81586	0.11643
1408.75627	0.11638
1406.69669	0.11528
1404.63710	0.11337
1402.57752	0.11109
1400.51793	0.10891
1398.45834	0.10724
1396.39876	0.10652
1394.33917	0.10692
1392.27959	0.10795
1390.22000	0.10906
1388.16042	0.11031
1386.10083	0.11162
1384.04125	0.11248
1381.98166	0.11277
1379.92208	0.11267
1377.86249	0.11206
1375.80291	0.11068
1373.74332	0.10845
1371.68374	0.10559
1369.62415	0.10224
1367.56457	0.09845
1365.50498	0.09457
1363.44540	0.09086
1361.38581	0.08755
1359.32623	0.08494
1357.26664	0.08308
1355.20706	0.08195
1353.14747	0.08160
1351.08789	0.08205
1349.02830	0.08331
1346.96872	0.08525
1344.90913	0.08759
1342.84954	0.09011
1340.78996	0.09280
1338.73037	0.09542
1336.67079	0.09729
1334.61120	0.09813
1332.55162	0.09804
1330.49203	0.09697
1328.43245	0.09496
1326.37286	0.09245
1324.31328	0.08993
1322.25369	0.08774
1320.19411	0.08611
1318.13452	0.08508
1316.07494	0.08454
1314.01535	0.08453
1311.95577	0.08502
1309.89618	0.08574
1307.83660	0.08656
1305.77701	0.08744
1303.71743	0.08837
1301.65784	0.08936
1299.59826	0.09041
1297.53867	0.09152
1295.47909	0.09265
1293.41950	0.09365
1291.35991	0.09449
1289.30033	0.09520
1287.24074	0.09589
1285.18116	0.09669
1283.12157	0.09771
1281.06199	0.09895
1279.00240	0.10048
1276.94282	0.10235
1274.88323	0.10449
1272.82365	0.10687
1270.76406	0.10940
1268.70448	0.11187
1266.64489	0.11419
1264.58531	0.11649
1262.52572	0.11897
1260.46614	0.12168
1258.40655	0.12451
1256.34697	0.12744
1254.28738	0.13053
1252.22780	0.13374
1250.16821	0.13704
1248.10863	0.14045
1246.04904	0.14383
1243.98946	0.14696
1241.92987	0.14969
1239.87029	0.15196
1237.81070	0.15362
1235.75111	0.15446
1233.69153	0.15451
1231.63194	0.15367
1229.57236	0.15166
1227.51277	0.14852
1225.45319	0.14445
1223.39360	0.13952
1221.33402	0.13385
1219.27443	0.12764
1217.21485	0.12108
1215.15526	0.11453
1213.09568	0.10839
1211.03609	0.10275
1208.97651	0.09754
1206.91692	0.09274
1204.85734	0.08834
1202.79775	0.08428
1200.73817	0.08059
1198.67858	0.07740
1196.61900	0.07477
1194.55941	0.07262
1192.49983	0.07098
1190.44024	0.06992
1188.38066	0.06934
1186.32107	0.06917
1184.26149	0.06945
1182.20190	0.07025
1180.14231	0.07169
1178.08273	0.07375
1176.02314	0.07604
1173.96356	0.07809
1171.90397	0.07958
1169.84439	0.08032
1167.78480	0.08046
1165.72522	0.08017
1163.66563	0.07949
1161.60605	0.07846
1159.54646	0.07726
1157.48688	0.07590
1155.42729	0.07432
1153.36771	0.07258
1151.30812	0.07079
1149.24854	0.06905
1147.18895	0.06736
1145.12937	0.06573
1143.06978	0.06428
1141.01020	0.06304
1138.95061	0.06203
1136.89103	0.06128
1134.83144	0.06071
1132.77186	0.06029
1130.71227	0.05998
1128.65268	0.05974
1126.59310	0.05964
1124.53351	0.05972
1122.47393	0.05983
1120.41434	0.05985
1118.35476	0.05980
1116.29517	0.05980
1114.23559	0.05981
1112.17600	0.05977
1110.11642	0.05988
1108.05683	0.06028
1105.99725	0.06065
1103.93766	0.06064
1101.87808	0.06017
1099.81849	0.05929
1097.75891	0.05833
1095.69932	0.05772
1093.63974	0.05756
1091.58015	0.05792
1089.52057	0.05894
1087.46098	0.06056
1085.40140	0.06264
1083.34181	0.06496
1081.28223	0.06725
1079.22264	0.06946
1077.16306	0.07143
1075.10347	0.07303
1073.04388	0.07420
1070.98430	0.07490
1068.92471	0.07519
1066.86513	0.07534
1064.80554	0.07547
1062.74596	0.07574
1060.68637	0.07629
1058.62679	0.07699
1056.56720	0.07742
1054.50762	0.07721
1052.44803	0.07629
1050.38845	0.07484
1048.32886	0.07289
1046.26928	0.07056
1044.20969	0.06816
1042.15011	0.06604
1040.09052	0.06428
1038.03094	0.06281
1035.97135	0.06174
1033.91177	0.06117
1031.85218	0.06086
1029.79260	0.06053
1027.73301	0.06012
1025.67343	0.05976
1023.61384	0.05991
1021.55425	0.06110
1019.49467	0.06334
1017.43508	0.06582
1015.37550	0.06747
1013.31591	0.06760
1011.25633	0.06601
1009.19674	0.06314
1007.13716	0.05959
1005.07757	0.05586
1003.01799	0.05233
1000.95840	0.04922
998.89882	0.04661
996.83923	0.04436
994.77965	0.04239
992.72006	0.04073
990.66048	0.03928
988.60089	0.03802
986.54131	0.03709
984.48172	0.03651
982.42214	0.03617
980.36255	0.03585
978.30297	0.03553
976.24338	0.03530
974.18380	0.03519
972.12421	0.03519
970.06463	0.03532
968.00504	0.03563
965.94545	0.03612
963.88587	0.03667
961.82628	0.03722
959.76670	0.03773
957.70711	0.03827
955.64753	0.03894
953.58794	0.03960
951.52836	0.04008
949.46877	0.04040
947.40919	0.04068
945.34960	0.04088
943.29002	0.04087
941.23043	0.04055
939.17085	0.04000
937.11126	0.03936
935.05168	0.03868
932.99209	0.03804
930.93251	0.03748
928.87292	0.03680
926.81334	0.03604
924.75375	0.03548
922.69417	0.03504
920.63458	0.03443
918.57500	0.03370
916.51541	0.03308
914.45582	0.03263
912.39624	0.03224
910.33665	0.03188
908.27707	0.03157
906.21748	0.03126
904.15790	0.03105
902.09831	0.03100
900.03873	0.03088
897.97914	0.03053
895.91956	0.03026
893.85997	0.03020
891.80039	0.03020
889.74080	0.03028
887.68122	0.03047
885.62163	0.03072
883.56205	0.03100
881.50246	0.03122
879.44288	0.03136
877.38329	0.03151
875.32371	0.03176
873.26412	0.03208
871.20454	0.03242
869.14495	0.03291
867.08537	0.03364
865.02578	0.03453
862.96620	0.03554
860.90661	0.03666
858.84702	0.03781
856.78744	0.03880
854.72785	0.03956
852.66827	0.04016
850.60868	0.04057
848.54910	0.04076
846.48951	0.04084
844.42993	0.04108
842.37034	0.04173
840.31076	0.04269
838.25117	0.04364
836.19159	0.04439
834.13200	0.04505
832.07242	0.04574
830.01283	0.04616
827.95325	0.04619
825.89366	0.04607
823.83408	0.04592
821.77449	0.04587
819.71491	0.04605
817.65532	0.04639
815.59574	0.04680
813.53615	0.04723
811.47657	0.04778
809.41698	0.04846
807.35740	0.04909
805.29781	0.04963
803.23822	0.05005
801.17864	0.05031
799.11905	0.05052
797.05947	0.05086
794.99988	0.05126
792.94030	0.05162
790.88071	0.05208
788.82113	0.05272
786.76154	0.05349
784.70196	0.05429
782.64237	0.05499
780.58279	0.05561
778.52320	0.05626
776.46362	0.05694
774.40403	0.05770
772.34445	0.05843
770.28486	0.05908
768.22528	0.05985
766.16569	0.06068
764.10611	0.06144
762.04652	0.06223
759.98694	0.06315
757.92735	0.06415
755.86777	0.06516
753.80818	0.06619
751.74859	0.06726
749.68901	0.06830
747.62942	0.06932
745.56984	0.07032
743.51025	0.07124
741.45067	0.07212
739.39108	0.07303
737.33150	0.07393
735.27191	0.07484
733.21233	0.07573
731.15274	0.07650
729.09316	0.07727
727.03357	0.07813
724.97399	0.07897
722.91440	0.07986
720.85482	0.08083
718.79523	0.08176
716.73565	0.08261
714.67606	0.08338
712.61648	0.08421
710.55689	0.08522
708.49731	0.08634
706.43772	0.08751
704.37814	0.08876
702.31855	0.08993
700.25897	0.09077
698.19938	0.09145
696.13979	0.09230
694.08021	0.09319
692.02062	0.09395
689.96104	0.09475
687.90145	0.09566
685.84187	0.09653
683.78228	0.09732
681.72270	0.09816
679.66311	0.09906
677.60353	0.09982
675.54394	0.10050
673.48436	0.10133
671.42477	0.10235
669.36519	0.10356
667.30560	0.10439
665.24602	0.10448
663.18643	0.10441
661.12685	0.10472
659.06726	0.10519
657.00768	0.10550
654.94809	0.10572
652.88851	0.10594
650.82892	0.10605
648.76934	0.10614
646.70975	0.10631
644.65016	0.10655
642.59058	0.10678
640.53099	0.10692
638.47141	0.10690
636.41182	0.10688
634.35224	0.10701
632.29265	0.10707
630.23307	0.10688
628.17348	0.10668
626.11390	0.10673
624.05431	0.10685
621.99473	0.10698
619.93514	0.10715
617.87556	0.10737
615.81597	0.10773
613.75639	0.10803
611.69680	0.10802
609.63722	0.10790
607.57763	0.10796
605.51805	0.10813
603.45846	0.10832
601.39888	0.10864
599.33929	0.10909
597.27971	0.10954
595.22012	0.10995
593.16054	0.11032
591.10095	0.11067
589.04136	0.11098
586.98178	0.11123
584.92219	0.11151
582.86261	0.11198
580.80302	0.11281
578.74344	0.11388
576.68385	0.11471
574.62427	0.11536
572.56468	0.11618
570.50510	0.11706
568.44551	0.11780
566.38593	0.11848
564.32634	0.11940
562.26676	0.12060
560.20717	0.12186
558.14759	0.12296
556.08800	0.12400
554.02842	0.12508
551.96883	0.12595
549.90925	0.12663
547.84966	0.12745
545.79008	0.12822
543.73049	0.12861
541.67091	0.12877
539.61132	0.12867
537.55173	0.12818
535.49215	0.12762
533.43256	0.12745
531.37298	0.12762
529.31339	0.12771
527.25381	0.12764
525.19422	0.12766
523.13464	0.12756
521.07505	0.12722
519.01547	0.12716
516.95588	0.12758
514.89630	0.12800
512.83671	0.12814
510.77713	0.12802
508.71754	0.12776
506.65796	0.12744
504.59837	0.12716
502.53879	0.12702
500.47920	0.12685
498.41962	0.12639
496.36003	0.12602
494.30045	0.12597
492.24086	0.12593
490.18128	0.12572
488.12169	0.12543
486.06211	0.12503
484.00252	0.12439
481.94293	0.12333
479.88335	0.12219
477.82376	0.12155
475.76418	0.12126
473.70459	0.12091
471.64501	0.12048
469.58542	0.11983
467.52584	0.11898
465.46625	0.11828
463.40667	0.11784
461.34708	0.11747
459.28750	0.11698
457.22791	0.11637
455.16833	0.11573
453.10874	0.11481
451.04916	0.11359
448.98957	0.11263
446.92999	0.11211
444.87040	0.11172
442.81082	0.11117
440.75123	0.11049
438.69165	0.10995
436.63206	0.10944
434.57248	0.10878
432.51289	0.10824
430.45330	0.10797
428.39372	0.10777
426.33413	0.10751
424.27455	0.10726
422.21496	0.10707
420.15538	0.10695
418.09579	0.10685
416.03621	0.10628
413.97662	0.10549
411.91704	0.10517
409.85745	0.10527
407.79787	0.10528
405.73828	0.10505
403.67870	0.10462
401.61911	0.10384
399.55953	0.10257
