% Filename : WHF7_00029_00033.h5
% Date & Time : 30-Oct-2025 17:16:34
% X-ray Energy (keV) : 13.30001
% Exposure Time (s) : 0.500
% Photodiode Value : 137963.000
% I0 of Sample : 0
% I0 of Standard : 1
% 
% q(A^-1)   I(q)    I(q)_SE
8.40000000e-01	0.00000000e+00	0.00000000e+00
8.45000000e-01	6.09238012e-03	1.06301417e-03
8.50000000e-01	5.69894062e-03	5.27114728e-04
8.55000000e-01	5.61133609e-03	4.56519388e-04
8.60000000e-01	5.48734629e-03	3.86527898e-04
8.65000000e-01	5.50676399e-03	3.57649268e-04
8.70000000e-01	5.49946232e-03	3.40262535e-04
8.75000000e-01	5.45120003e-03	3.24694429e-04
8.80000000e-01	5.53168160e-03	3.18512089e-04
8.85000000e-01	5.49310965e-03	2.99090886e-04
8.90000000e-01	5.51996877e-03	2.94021892e-04
8.95000000e-01	5.47207364e-03	2.83324286e-04
9.00000000e-01	5.46753447e-03	2.80441130e-04
9.05000000e-01	5.50831193e-03	2.70107565e-04
9.10000000e-01	5.52119315e-03	2.65868908e-04
9.15000000e-01	5.52750932e-03	2.62010176e-04
9.20000000e-01	5.54370952e-03	2.62324509e-04
9.25000000e-01	5.50698755e-03	2.49248756e-04
9.30000000e-01	5.56217554e-03	2.49315462e-04
9.35000000e-01	5.56157534e-03	2.44317154e-04
9.40000000e-01	5.60940483e-03	2.47223365e-04
9.45000000e-01	5.63335130e-03	2.42066472e-04
9.50000000e-01	5.63421886e-03	2.38517836e-04
9.55000000e-01	5.58378357e-03	2.32153736e-04
9.60000000e-01	5.62266580e-03	2.34068176e-04
9.65000000e-01	5.68735532e-03	2.32664392e-04
9.70000000e-01	5.67183828e-03	2.28298975e-04
9.75000000e-01	5.70881072e-03	2.27189036e-04
9.80000000e-01	5.72641206e-03	2.25902671e-04
9.85000000e-01	5.75927918e-03	2.27514109e-04
9.90000000e-01	5.76851643e-03	2.20868697e-04
9.95000000e-01	5.80716959e-03	2.21351797e-04
1.00000000e+00	5.84208830e-03	2.21549683e-04
1.00500000e+00	5.81503706e-03	2.20470588e-04
1.01000000e+00	5.81285272e-03	2.15725796e-04
1.01500000e+00	5.86971125e-03	2.15700910e-04
1.02000000e+00	5.88778118e-03	2.16211495e-04
1.02500000e+00	5.88244445e-03	2.13142715e-04
1.03000000e+00	5.94517909e-03	2.14644583e-04
1.03500000e+00	5.96976939e-03	2.12465914e-04
1.04000000e+00	5.99300929e-03	2.11660506e-04
1.04500000e+00	6.01013625e-03	2.12291841e-04
1.05000000e+00	6.04229292e-03	2.11960000e-04
1.05500000e+00	6.02727235e-03	2.07986919e-04
1.06000000e+00	6.10298703e-03	2.10042229e-04
1.06500000e+00	6.10890437e-03	2.10552131e-04
1.07000000e+00	6.11314855e-03	2.10267198e-04
1.07500000e+00	6.19316953e-03	2.11539010e-04
1.08000000e+00	6.27727022e-03	2.13201072e-04
1.08500000e+00	6.27113214e-03	2.13122563e-04
1.09000000e+00	6.33084111e-03	2.16386975e-04
1.09500000e+00	6.38854756e-03	2.14139645e-04
1.10000000e+00	6.40454648e-03	2.16110570e-04
1.10500000e+00	6.45306905e-03	2.18459342e-04
1.11000000e+00	6.46888497e-03	2.19201117e-04
1.11500000e+00	6.56591123e-03	2.20973762e-04
1.12000000e+00	6.62070888e-03	2.23856108e-04
1.12500000e+00	6.67370056e-03	2.25099093e-04
1.13000000e+00	6.71490832e-03	2.29101489e-04
1.13500000e+00	6.80476847e-03	2.29446332e-04
1.14000000e+00	6.82790037e-03	2.29816351e-04
1.14500000e+00	6.93024373e-03	2.35276471e-04
1.15000000e+00	6.96624174e-03	2.37683453e-04
1.15500000e+00	7.00976110e-03	2.36675313e-04
1.16000000e+00	7.10711049e-03	2.40749348e-04
1.16500000e+00	7.16177275e-03	2.42396693e-04
1.17000000e+00	7.23027635e-03	2.47831254e-04
1.17500000e+00	7.33448445e-03	2.47665284e-04
1.18000000e+00	7.37011263e-03	2.50135881e-04
1.18500000e+00	7.45521497e-03	2.52554746e-04
1.19000000e+00	7.57779505e-03	2.59570060e-04
1.19500000e+00	7.62571603e-03	2.58032677e-04
1.20000000e+00	7.71791963e-03	2.62698607e-04
1.20500000e+00	7.80630416e-03	2.65349402e-04
1.21000000e+00	7.89314794e-03	2.71580030e-04
1.21500000e+00	7.98929793e-03	2.70645328e-04
1.22000000e+00	8.04674820e-03	2.72869108e-04
1.22500000e+00	8.16512447e-03	2.78052060e-04
1.23000000e+00	8.21686511e-03	2.81913677e-04
1.23500000e+00	8.35599179e-03	2.84790073e-04
1.24000000e+00	8.40589037e-03	2.85289375e-04
1.24500000e+00	8.50441773e-03	2.90691728e-04
1.25000000e+00	8.57381995e-03	2.94740114e-04
1.25500000e+00	8.70166039e-03	2.95710955e-04
1.26000000e+00	8.80460855e-03	3.00945771e-04
1.26500000e+00	8.91214743e-03	3.03573343e-04
1.27000000e+00	9.03060662e-03	3.12115041e-04
1.27500000e+00	9.13811824e-03	3.12688007e-04
1.28000000e+00	9.23165622e-03	3.13907718e-04
1.28500000e+00	9.39656189e-03	3.21289247e-04
1.29000000e+00	9.49922436e-03	3.27689601e-04
1.29500000e+00	9.65663049e-03	3.29637850e-04
1.30000000e+00	9.82241735e-03	3.34730501e-04
1.30500000e+00	9.99093129e-03	3.42090960e-04
1.31000000e+00	1.02005287e-02	3.53323741e-04
1.31500000e+00	1.04014588e-02	3.55966128e-04
1.32000000e+00	1.06515646e-02	3.64053410e-04
1.32500000e+00	1.08877603e-02	3.73347424e-04
1.33000000e+00	1.10665713e-02	3.84077490e-04
1.33500000e+00	1.13662758e-02	3.89014698e-04
1.34000000e+00	1.16294486e-02	3.98581375e-04
1.34500000e+00	1.17952205e-02	4.05734374e-04
1.35000000e+00	1.20156399e-02	4.17471399e-04
1.35500000e+00	1.22266906e-02	4.18976384e-04
1.36000000e+00	1.23441839e-02	4.22278334e-04
1.36500000e+00	1.23798714e-02	4.24991176e-04
1.37000000e+00	1.23459382e-02	4.30063571e-04
1.37500000e+00	1.23752942e-02	4.24388330e-04
1.38000000e+00	1.22301614e-02	4.20463653e-04
1.38500000e+00	1.21022027e-02	4.18079886e-04
1.39000000e+00	1.18855834e-02	4.13269782e-04
1.39500000e+00	1.17601709e-02	4.02889308e-04
1.40000000e+00	1.16725901e-02	4.12049768e-04
1.40500000e+00	1.13456278e-02	4.30914567e-04
1.41000000e+00	1.11790518e-02	4.44350248e-04
1.41500000e+00	1.09391262e-02	4.50528361e-04
1.42000000e+00	1.08303580e-02	4.63993077e-04
1.42500000e+00	1.07009964e-02	4.71897553e-04
1.43000000e+00	1.05718531e-02	4.83918967e-04
1.43500000e+00	1.04983819e-02	4.95155752e-04
1.44000000e+00	1.04318645e-02	5.11036647e-04
1.44500000e+00	1.02969538e-02	5.17498735e-04
1.45000000e+00	1.05652294e-02	5.13511553e-04
1.45500000e+00	1.05387039e-02	4.60428514e-04
1.46000000e+00	1.04851200e-02	4.47395283e-04
1.46500000e+00	1.04681076e-02	4.38671414e-04
1.47000000e+00	1.04578967e-02	4.37402028e-04
1.47500000e+00	1.05330644e-02	4.27750538e-04
1.48000000e+00	1.05429370e-02	4.23681514e-04
1.48500000e+00	1.04378198e-02	4.19695830e-04
1.49000000e+00	1.04033946e-02	4.19480509e-04
1.49500000e+00	1.03450521e-02	4.07890656e-04
1.50000000e+00	1.02659892e-02	4.03333963e-04
1.50500000e+00	1.01754843e-02	4.01986804e-04
1.51000000e+00	1.00497683e-02	3.97925156e-04
1.51500000e+00	1.00848485e-02	3.92902944e-04
1.52000000e+00	9.92369852e-03	3.85378339e-04
1.52500000e+00	9.80597175e-03	3.80461219e-04
1.53000000e+00	9.73449906e-03	3.80028806e-04
1.53500000e+00	9.60320445e-03	3.64299511e-04
1.54000000e+00	9.57505267e-03	3.62714613e-04
1.54500000e+00	9.48913556e-03	3.58632514e-04
1.55000000e+00	9.46337089e-03	3.56674242e-04
1.55500000e+00	9.40699198e-03	3.46539287e-04
1.56000000e+00	9.33319357e-03	3.44536427e-04
1.56500000e+00	9.24421603e-03	3.39445089e-04
1.57000000e+00	9.21045294e-03	3.35794419e-04
1.57500000e+00	9.15290144e-03	3.27454217e-04
1.58000000e+00	9.19840694e-03	3.28486276e-04
1.58500000e+00	9.09635975e-03	3.24840872e-04
1.59000000e+00	9.05562035e-03	3.23539541e-04
1.59500000e+00	9.03040010e-03	3.16513657e-04
1.60000000e+00	9.06682043e-03	3.17536552e-04
1.60500000e+00	9.02227532e-03	3.16191023e-04
1.61000000e+00	8.97976359e-03	3.13361463e-04
1.61500000e+00	8.98634619e-03	3.10750989e-04
1.62000000e+00	8.99065909e-03	3.12188601e-04
1.62500000e+00	8.98901452e-03	3.15769539e-04
1.63000000e+00	8.92903778e-03	3.10343955e-04
1.63500000e+00	8.97236447e-03	3.11842817e-04
1.64000000e+00	8.92424919e-03	3.10361207e-04
1.64500000e+00	8.93512933e-03	3.14156518e-04
1.65000000e+00	8.86163744e-03	3.08228280e-04
1.65500000e+00	8.85360124e-03	3.07504862e-04
1.66000000e+00	8.87847315e-03	3.08771562e-04
1.66500000e+00	8.86527361e-03	3.13429436e-04
1.67000000e+00	8.83834439e-03	3.06063382e-04
1.67500000e+00	8.78793880e-03	3.05153473e-04
1.68000000e+00	8.76178093e-03	3.05104701e-04
1.68500000e+00	8.71059181e-03	3.08385481e-04
1.69000000e+00	8.70947434e-03	3.02329874e-04
1.69500000e+00	8.68850732e-03	3.01044424e-04
1.70000000e+00	8.60333836e-03	3.01594361e-04
1.70500000e+00	8.62078751e-03	3.03472207e-04
1.71000000e+00	8.54837308e-03	2.97082822e-04
1.71500000e+00	8.54953327e-03	2.96929789e-04
1.72000000e+00	8.45928675e-03	2.96149111e-04
1.72500000e+00	8.41431929e-03	2.96406115e-04
1.73000000e+00	8.37978689e-03	2.91369261e-04
1.73500000e+00	8.33144005e-03	2.90447822e-04
1.74000000e+00	8.24634374e-03	2.88169484e-04
1.74500000e+00	8.23761573e-03	2.91237646e-04
1.75000000e+00	8.22682267e-03	2.85204317e-04
1.75500000e+00	8.13043027e-03	2.83790370e-04
1.76000000e+00	8.09682989e-03	2.82434109e-04
1.76500000e+00	8.05946095e-03	2.84796988e-04
1.77000000e+00	8.01964803e-03	2.78581247e-04
1.77500000e+00	7.99268217e-03	2.78513642e-04
1.78000000e+00	7.94514285e-03	2.77641957e-04
1.78500000e+00	7.92217913e-03	2.79808106e-04
1.79000000e+00	7.94619144e-03	2.76140162e-04
1.79500000e+00	7.86290510e-03	2.73907990e-04
1.80000000e+00	7.75343313e-03	2.71667440e-04
1.80500000e+00	7.73178122e-03	2.72547470e-04
1.81000000e+00	7.69024970e-03	2.67260751e-04
1.81500000e+00	7.65668694e-03	2.66168048e-04
1.82000000e+00	7.62555624e-03	2.66847712e-04
1.82500000e+00	7.58474997e-03	2.67053657e-04
1.83000000e+00	7.54713819e-03	2.62311992e-04
1.83500000e+00	7.50017343e-03	2.61143597e-04
1.84000000e+00	7.46434784e-03	2.61398922e-04
1.84500000e+00	7.45621300e-03	2.62514625e-04
1.85000000e+00	7.37128463e-03	2.56521249e-04
1.85500000e+00	7.30800312e-03	2.54562891e-04
1.86000000e+00	7.23676154e-03	2.53677906e-04
1.86500000e+00	7.27907787e-03	2.55851963e-04
1.87000000e+00	7.18916720e-03	2.49911757e-04
1.87500000e+00	7.16971476e-03	2.50088078e-04
1.88000000e+00	7.11543585e-03	2.49294766e-04
1.88500000e+00	7.08403352e-03	2.49655859e-04
1.89000000e+00	7.06297433e-03	2.45423390e-04
1.89500000e+00	7.04831024e-03	2.46238010e-04
1.90000000e+00	6.97765832e-03	2.44584602e-04
1.90500000e+00	6.95947085e-03	2.44071249e-04
1.91000000e+00	6.93949252e-03	2.41765734e-04
1.91500000e+00	6.86345990e-03	2.39241302e-04
1.92000000e+00	6.80848562e-03	2.38665386e-04
1.92500000e+00	6.83231355e-03	2.39754001e-04
1.93000000e+00	6.82810327e-03	2.37524308e-04
1.93500000e+00	6.80179770e-03	2.37253569e-04
1.94000000e+00	6.77018839e-03	2.38166022e-04
1.94500000e+00	6.69213765e-03	2.34650800e-04
1.95000000e+00	6.65357676e-03	2.31103367e-04
1.95500000e+00	6.61764449e-03	2.30874055e-04
1.96000000e+00	6.56780305e-03	2.30509176e-04
1.96500000e+00	6.50141563e-03	2.28335102e-04
1.97000000e+00	6.52656354e-03	2.26475445e-04
1.97500000e+00	6.47669659e-03	2.26167931e-04
1.98000000e+00	6.43484562e-03	2.25736961e-04
1.98500000e+00	6.37572622e-03	2.24088486e-04
1.99000000e+00	6.35689480e-03	2.20611383e-04
1.99500000e+00	6.35438805e-03	2.21596122e-04
2.00000000e+00	6.26848565e-03	2.20052173e-04
2.00500000e+00	6.34976049e-03	2.23248400e-04
2.01000000e+00	6.32507022e-03	2.44046296e-04
2.01500000e+00	6.23238340e-03	2.55526654e-04
2.02000000e+00	6.21144200e-03	2.71411532e-04
2.02500000e+00	6.16735515e-03	2.79928693e-04
2.03000000e+00	6.15344053e-03	2.95682746e-04
2.03500000e+00	6.05061450e-03	3.03669369e-04
2.04000000e+00	6.07039345e-03	3.18476125e-04
2.04500000e+00	6.03164187e-03	3.32969831e-04
2.05000000e+00	6.06735341e-03	3.51781072e-04
2.05500000e+00	6.07709224e-03	3.45239400e-04
2.06000000e+00	6.12999739e-03	3.02928632e-04
2.06500000e+00	6.05710966e-03	2.86120924e-04
2.07000000e+00	5.99845311e-03	2.68352809e-04
2.07500000e+00	5.93736833e-03	2.59701557e-04
2.08000000e+00	5.91600810e-03	2.58156405e-04
2.08500000e+00	5.93014784e-03	2.56623120e-04
2.09000000e+00	5.87935835e-03	2.47064948e-04
2.09500000e+00	5.91189709e-03	2.45794093e-04
2.10000000e+00	5.83300721e-03	2.40806189e-04
2.10500000e+00	5.81153132e-03	2.39148983e-04
2.11000000e+00	5.79279470e-03	2.29637041e-04
2.11500000e+00	5.73760079e-03	2.25116755e-04
2.12000000e+00	5.75156100e-03	2.24502250e-04
2.12500000e+00	5.70766800e-03	2.22137845e-04
2.13000000e+00	5.67611186e-03	2.11866239e-04
2.13500000e+00	5.60205377e-03	2.06561277e-04
2.14000000e+00	5.56431225e-03	2.03300585e-04
2.14500000e+00	5.52843401e-03	2.02382406e-04
2.15000000e+00	5.55963289e-03	1.96839180e-04
2.15500000e+00	5.52914967e-03	1.96176136e-04
2.16000000e+00	5.51668097e-03	1.94704054e-04
2.16500000e+00	5.51844657e-03	1.96078061e-04
2.17000000e+00	5.48587653e-03	1.90253051e-04
2.17500000e+00	5.47383574e-03	1.90262471e-04
2.18000000e+00	5.44631257e-03	1.89873501e-04
2.18500000e+00	5.42482622e-03	1.90072330e-04
2.19000000e+00	5.41074593e-03	1.89031951e-04
2.19500000e+00	5.37541396e-03	1.86742523e-04
2.20000000e+00	5.34948683e-03	1.86279441e-04
2.20500000e+00	5.35278271e-03	1.86986114e-04
2.21000000e+00	5.33484273e-03	1.87244560e-04
2.21500000e+00	5.33573709e-03	1.85255753e-04
2.22000000e+00	5.32410206e-03	1.84647658e-04
2.22500000e+00	5.28796883e-03	1.84994424e-04
2.23000000e+00	5.24263121e-03	1.84412739e-04
2.23500000e+00	5.25509294e-03	1.82224155e-04
2.24000000e+00	5.24837132e-03	1.82082660e-04
2.24500000e+00	5.19998862e-03	1.81736622e-04
2.25000000e+00	5.22440748e-03	1.84084283e-04
2.25500000e+00	5.15916067e-03	1.78484670e-04
2.26000000e+00	5.13651016e-03	1.78365494e-04
2.26500000e+00	5.14144397e-03	1.79185614e-04
2.27000000e+00	5.14388335e-03	1.81875849e-04
2.27500000e+00	5.08442160e-03	1.76005755e-04
2.28000000e+00	5.03006173e-03	1.74257494e-04
2.28500000e+00	4.96641576e-03	1.73229914e-04
2.29000000e+00	4.98267806e-03	1.74749939e-04
2.29500000e+00	5.00835904e-03	1.75065569e-04
2.30000000e+00	5.02498394e-03	1.74037028e-04
2.30500000e+00	4.98461782e-03	1.73067449e-04
2.31000000e+00	4.96082721e-03	1.73137927e-04
2.31500000e+00	4.92973855e-03	1.73478477e-04
2.32000000e+00	4.92842437e-03	1.69913543e-04
2.32500000e+00	4.90567896e-03	1.70521997e-04
2.33000000e+00	4.90084622e-03	1.70686925e-04
2.33500000e+00	4.88184784e-03	1.71985194e-04
2.34000000e+00	4.83720575e-03	1.67450590e-04
2.34500000e+00	4.83626276e-03	1.67546879e-04
2.35000000e+00	4.78392710e-03	1.66502992e-04
2.35500000e+00	4.75680201e-03	1.67742030e-04
2.36000000e+00	4.75201525e-03	1.65354119e-04
2.36500000e+00	4.71846053e-03	1.64121353e-04
2.37000000e+00	4.68871648e-03	1.63242985e-04
2.37500000e+00	4.67457489e-03	1.64131234e-04
2.38000000e+00	4.67208725e-03	1.65064799e-04
2.38500000e+00	4.64442388e-03	1.61528787e-04
2.39000000e+00	4.60694655e-03	1.60850469e-04
2.39500000e+00	4.61436655e-03	1.62099195e-04
2.40000000e+00	4.53729470e-03	1.61713907e-04
2.40500000e+00	4.54417327e-03	1.58679486e-04
2.41000000e+00	4.54866659e-03	1.59435244e-04
2.41500000e+00	4.54924156e-03	1.59527577e-04
2.42000000e+00	4.51891468e-03	1.60751535e-04
2.42500000e+00	4.48081217e-03	1.59116629e-04
2.43000000e+00	4.48216370e-03	1.57750390e-04
2.43500000e+00	4.46197527e-03	1.57640139e-04
2.44000000e+00	4.44692969e-03	1.57430416e-04
2.44500000e+00	4.40378425e-03	1.58107529e-04
2.45000000e+00	4.41403964e-03	1.55772361e-04
2.45500000e+00	4.39152737e-03	1.55512458e-04
2.46000000e+00	4.50207199e-03	1.63299151e-04
2.46500000e+00	4.45772919e-03	1.63812317e-04
2.47000000e+00	4.32782633e-03	1.54534108e-04
2.47500000e+00	4.27633887e-03	1.51722141e-04
2.48000000e+00	4.27583101e-03	1.53022713e-04
2.48500000e+00	4.26885952e-03	1.52911470e-04
2.49000000e+00	4.22583845e-03	1.53681505e-04
2.49500000e+00	4.21043893e-03	1.50237260e-04
2.50000000e+00	4.20801890e-03	1.50534114e-04
2.50500000e+00	4.19818720e-03	1.51241147e-04
2.51000000e+00	4.17666955e-03	1.51523974e-04
2.51500000e+00	4.14553582e-03	1.50659170e-04
2.52000000e+00	4.16131583e-03	1.49789775e-04
2.52500000e+00	4.16029872e-03	1.50497735e-04
2.53000000e+00	4.14521172e-03	1.51561430e-04
2.53500000e+00	4.14743713e-03	1.53339059e-04
2.54000000e+00	4.12762604e-03	1.50050711e-04
2.54500000e+00	4.09579324e-03	1.49491112e-04
2.55000000e+00	4.08251257e-03	1.49856324e-04
2.55500000e+00	4.08918722e-03	1.51300633e-04
2.56000000e+00	4.06838995e-03	1.51545019e-04
2.56500000e+00	4.05604166e-03	1.49555140e-04
2.57000000e+00	4.03851322e-03	1.49617731e-04
2.57500000e+00	4.04337452e-03	1.50368946e-04
2.58000000e+00	4.00898332e-03	1.51654902e-04
2.58500000e+00	3.99152016e-03	1.49683838e-04
2.59000000e+00	4.01146263e-03	1.49889286e-04
2.59500000e+00	3.99619221e-03	1.50076171e-04
2.60000000e+00	3.98385727e-03	1.50799447e-04
2.60500000e+00	4.00939938e-03	1.55268536e-04
2.61000000e+00	3.91226600e-03	1.73587495e-04
2.61500000e+00	3.78787735e-03	1.87676082e-04
2.62000000e+00	3.72727616e-03	2.04456575e-04
2.62500000e+00	3.54458334e-03	2.13037805e-04
2.63000000e+00	3.74310781e-03	2.45052696e-04
2.63500000e+00	3.95749076e-03	2.80245008e-04
2.64000000e+00	4.06540453e-03	3.12568309e-04
2.64500000e+00	4.12314592e-03	3.38240383e-04
2.65000000e+00	4.13254589e-03	3.59238451e-04
2.65500000e+00	4.13677293e-03	3.86547399e-04
2.66000000e+00	4.12240753e-03	4.12359932e-04
2.66500000e+00	4.07787629e-03	4.58660154e-04
2.67000000e+00	4.03962876e-03	4.92968758e-04
2.67500000e+00	4.20013089e-03	5.97264395e-04
2.68000000e+00	3.98566246e-03	6.59047112e-04
2.68500000e+00	3.52753045e-03	7.93913742e-04
2.69000000e+00	2.05049512e-03	7.49656834e-04
2.69500000e+00	0.00000000e+00	0.00000000e+00
2.70000000e+00	0.00000000e+00	0.00000000e+00
