% Filename : WJS5_00036_00017.h5
% Date & Time : 30-Oct-2025 17:36:59
% X-ray Energy (keV) : 13.30001
% Exposure Time (s) : 0.500
% Photodiode Value : 142015.000
% I0 of Sample : 0
% I0 of Standard : 1
% 
% q(A^-1)   I(q)    I(q)_SE
8.40000000e-01	0.00000000e+00	0.00000000e+00
8.45000000e-01	2.90824500e-03	5.09960643e-04
8.50000000e-01	2.68724655e-03	2.49222236e-04
8.55000000e-01	2.61588599e-03	2.13844241e-04
8.60000000e-01	2.64411802e-03	1.86894211e-04
8.65000000e-01	2.60613864e-03	1.69930527e-04
8.70000000e-01	2.64173932e-03	1.64044272e-04
8.75000000e-01	2.64253015e-03	1.58159741e-04
8.80000000e-01	2.62341660e-03	1.51632679e-04
8.85000000e-01	2.60106517e-03	1.42037147e-04
8.90000000e-01	2.63764213e-03	1.41163996e-04
8.95000000e-01	2.65162648e-03	1.37785652e-04
9.00000000e-01	2.66163707e-03	1.37073618e-04
9.05000000e-01	2.68592189e-03	1.32307753e-04
9.10000000e-01	2.67206247e-03	1.29084559e-04
9.15000000e-01	2.68608553e-03	1.27854896e-04
9.20000000e-01	2.69828502e-03	1.28133261e-04
9.25000000e-01	2.71638424e-03	1.23410070e-04
9.30000000e-01	2.71901349e-03	1.22275960e-04
9.35000000e-01	2.73809207e-03	1.20904239e-04
9.40000000e-01	2.73076819e-03	1.20907439e-04
9.45000000e-01	2.75651794e-03	1.18853152e-04
9.50000000e-01	2.75112153e-03	1.17029032e-04
9.55000000e-01	2.73762436e-03	1.14371522e-04
9.60000000e-01	2.77681087e-03	1.16073758e-04
9.65000000e-01	2.74005675e-03	1.12632927e-04
9.70000000e-01	2.76128534e-03	1.11719648e-04
9.75000000e-01	2.74789318e-03	1.09940772e-04
9.80000000e-01	2.76079035e-03	1.09560935e-04
9.85000000e-01	2.75000725e-03	1.09234387e-04
9.90000000e-01	2.79702650e-03	1.07701943e-04
9.95000000e-01	2.79150077e-03	1.06862956e-04
1.00000000e+00	2.77033735e-03	1.05538684e-04
1.00500000e+00	2.75309290e-03	1.05115381e-04
1.01000000e+00	2.78622296e-03	1.04028854e-04
1.01500000e+00	2.77899422e-03	1.02704494e-04
1.02000000e+00	2.77850282e-03	1.02669821e-04
1.02500000e+00	2.77493610e-03	1.01374099e-04
1.03000000e+00	2.77304138e-03	1.00865423e-04
1.03500000e+00	2.76623168e-03	9.91214055e-05
1.04000000e+00	2.75727748e-03	9.82302219e-05
1.04500000e+00	2.73985027e-03	9.76977837e-05
1.05000000e+00	2.74129151e-03	9.72126099e-05
1.05500000e+00	2.74970936e-03	9.60136891e-05
1.06000000e+00	2.76353588e-03	9.62166926e-05
1.06500000e+00	2.73973276e-03	9.55625188e-05
1.07000000e+00	2.75420808e-03	9.59066777e-05
1.07500000e+00	2.79571213e-03	9.64987178e-05
1.08000000e+00	2.76326543e-03	9.48927321e-05
1.08500000e+00	2.78192063e-03	9.55671093e-05
1.09000000e+00	2.77691446e-03	9.59135794e-05
1.09500000e+00	2.75691314e-03	9.34244826e-05
1.10000000e+00	2.79914045e-03	9.53831676e-05
1.10500000e+00	2.80991465e-03	9.60500568e-05
1.11000000e+00	2.79879190e-03	9.58094749e-05
1.11500000e+00	2.83031841e-03	9.60625075e-05
1.12000000e+00	2.83198333e-03	9.66062729e-05
1.12500000e+00	2.83381591e-03	9.64865191e-05
1.13000000e+00	2.85472473e-03	9.83714630e-05
1.13500000e+00	2.85676394e-03	9.71236217e-05
1.14000000e+00	2.88068909e-03	9.77988216e-05
1.14500000e+00	2.88776858e-03	9.88717639e-05
1.15000000e+00	2.88800031e-03	9.92928680e-05
1.15500000e+00	2.88561678e-03	9.82750964e-05
1.16000000e+00	2.87289471e-03	9.82070079e-05
1.16500000e+00	2.89615668e-03	9.88688656e-05
1.17000000e+00	2.89833425e-03	1.00144706e-04
1.17500000e+00	2.91452346e-03	9.91124488e-05
1.18000000e+00	2.91417968e-03	9.96881826e-05
1.18500000e+00	2.93238170e-03	1.00182505e-04
1.19000000e+00	2.92285287e-03	1.00887187e-04
1.19500000e+00	2.94502762e-03	1.00422845e-04
1.20000000e+00	2.95915057e-03	1.01409155e-04
1.20500000e+00	2.94466235e-03	1.00922152e-04
1.21000000e+00	2.92322475e-03	1.01328012e-04
1.21500000e+00	2.95234346e-03	1.00764166e-04
1.22000000e+00	2.97664696e-03	1.01722635e-04
1.22500000e+00	2.94982462e-03	1.01141399e-04
1.23000000e+00	2.93817328e-03	1.01565126e-04
1.23500000e+00	2.94897135e-03	1.01207646e-04
1.24000000e+00	2.95704395e-03	1.01065968e-04
1.24500000e+00	2.96237060e-03	1.01958050e-04
1.25000000e+00	2.96795191e-03	1.02822727e-04
1.25500000e+00	2.96130770e-03	1.01329244e-04
1.26000000e+00	2.96464319e-03	1.01986684e-04
1.26500000e+00	3.01023191e-03	1.03288132e-04
1.27000000e+00	2.97054899e-03	1.03340210e-04
1.27500000e+00	2.98698018e-03	1.02791633e-04
1.28000000e+00	2.99041734e-03	1.02330887e-04
1.28500000e+00	2.98953706e-03	1.02950473e-04
1.29000000e+00	2.97972821e-03	1.03471397e-04
1.29500000e+00	2.99223230e-03	1.02752468e-04
1.30000000e+00	2.98361041e-03	1.02291874e-04
1.30500000e+00	2.99330504e-03	1.03156049e-04
1.31000000e+00	2.98173130e-03	1.03954587e-04
1.31500000e+00	2.97835076e-03	1.02599534e-04
1.32000000e+00	3.00800071e-03	1.03431040e-04
1.32500000e+00	3.00607405e-03	1.03637364e-04
1.33000000e+00	2.99876879e-03	1.04633257e-04
1.33500000e+00	2.99001699e-03	1.02840604e-04
1.34000000e+00	3.00350283e-03	1.03473888e-04
1.34500000e+00	3.00110130e-03	1.03819301e-04
1.35000000e+00	3.00096180e-03	1.04689402e-04
1.35500000e+00	3.00697463e-03	1.03532990e-04
1.36000000e+00	3.01319380e-03	1.03598801e-04
1.36500000e+00	3.00569448e-03	1.03722476e-04
1.37000000e+00	2.98232846e-03	1.04386914e-04
1.37500000e+00	2.98429219e-03	1.02833131e-04
1.38000000e+00	2.99450999e-03	1.03427640e-04
1.38500000e+00	2.96739043e-03	1.03075271e-04
1.39000000e+00	2.97624720e-03	1.04073191e-04
1.39500000e+00	2.98748512e-03	1.02883560e-04
1.40000000e+00	3.03315225e-03	1.07617818e-04
1.40500000e+00	2.98204668e-03	1.13783585e-04
1.41000000e+00	2.97565165e-03	1.19011846e-04
1.41500000e+00	2.95633223e-03	1.22403132e-04
1.42000000e+00	2.96230452e-03	1.27716814e-04
1.42500000e+00	2.93656012e-03	1.30312249e-04
1.43000000e+00	2.90425380e-03	1.33860181e-04
1.43500000e+00	2.91723851e-03	1.38490635e-04
1.44000000e+00	2.90147856e-03	1.42977696e-04
1.44500000e+00	2.88925066e-03	1.46215877e-04
1.45000000e+00	2.96419310e-03	1.45018988e-04
1.45500000e+00	2.99583244e-03	1.31720982e-04
1.46000000e+00	2.97233812e-03	1.27569943e-04
1.46500000e+00	2.95215341e-03	1.24331546e-04
1.47000000e+00	2.95968734e-03	1.24627372e-04
1.47500000e+00	2.95837349e-03	1.20873706e-04
1.48000000e+00	2.95373929e-03	1.19413128e-04
1.48500000e+00	2.96853144e-03	1.20057234e-04
1.49000000e+00	2.95603680e-03	1.19902115e-04
1.49500000e+00	2.93600320e-03	1.16398912e-04
1.50000000e+00	2.95925290e-03	1.16994417e-04
1.50500000e+00	2.96631528e-03	1.17778023e-04
1.51000000e+00	2.95505284e-03	1.17622652e-04
1.51500000e+00	2.96429713e-03	1.16159993e-04
1.52000000e+00	2.96453789e-03	1.15606685e-04
1.52500000e+00	2.96695482e-03	1.15698072e-04
1.53000000e+00	2.96439599e-03	1.16282475e-04
1.53500000e+00	2.95419362e-03	1.12594054e-04
1.54000000e+00	2.93168887e-03	1.11494431e-04
1.54500000e+00	2.94070641e-03	1.11684161e-04
1.55000000e+00	2.91927902e-03	1.10602168e-04
1.55500000e+00	2.90664327e-03	1.07579246e-04
1.56000000e+00	2.90692096e-03	1.07837338e-04
1.56500000e+00	2.87488220e-03	1.06113700e-04
1.57000000e+00	2.83708743e-03	1.03970151e-04
1.57500000e+00	2.85350398e-03	1.02625424e-04
1.58000000e+00	2.83965869e-03	1.01927698e-04
1.58500000e+00	2.84985305e-03	1.02353547e-04
1.59000000e+00	2.82671623e-03	1.01554451e-04
1.59500000e+00	2.83122104e-03	9.97209795e-05
1.60000000e+00	2.81908899e-03	9.93595109e-05
1.60500000e+00	2.80746846e-03	9.89019133e-05
1.61000000e+00	2.79124041e-03	9.79591279e-05
1.61500000e+00	2.79632845e-03	9.71873156e-05
1.62000000e+00	2.80545393e-03	9.79668178e-05
1.62500000e+00	2.79278741e-03	9.86241646e-05
1.63000000e+00	2.78493353e-03	9.72979280e-05
1.63500000e+00	2.76234008e-03	9.65858868e-05
1.64000000e+00	2.75892676e-03	9.64849359e-05
1.64500000e+00	2.77072143e-03	9.79659315e-05
1.65000000e+00	2.76950130e-03	9.68648770e-05
1.65500000e+00	2.75274516e-03	9.61024086e-05
1.66000000e+00	2.74742198e-03	9.60758467e-05
1.66500000e+00	2.72314375e-03	9.68061328e-05
1.67000000e+00	2.72369816e-03	9.48001516e-05
1.67500000e+00	2.72109689e-03	9.49891261e-05
1.68000000e+00	2.72220589e-03	9.53409002e-05
1.68500000e+00	2.71579835e-03	9.66208404e-05
1.69000000e+00	2.69629747e-03	9.41027187e-05
1.69500000e+00	2.72401282e-03	9.49076717e-05
1.70000000e+00	2.71303625e-03	9.55881724e-05
1.70500000e+00	2.68388023e-03	9.50233923e-05
1.71000000e+00	2.70976503e-03	9.47125440e-05
1.71500000e+00	2.69147436e-03	9.40434719e-05
1.72000000e+00	2.66736595e-03	9.39178220e-05
1.72500000e+00	2.66936726e-03	9.45154628e-05
1.73000000e+00	2.65605886e-03	9.28115146e-05
1.73500000e+00	2.66802919e-03	9.35083570e-05
1.74000000e+00	2.65263336e-03	9.31945763e-05
1.74500000e+00	2.64256006e-03	9.38914720e-05
1.75000000e+00	2.62788134e-03	9.15844738e-05
1.75500000e+00	2.64970026e-03	9.29430062e-05
1.76000000e+00	2.61946972e-03	9.18552105e-05
1.76500000e+00	2.61635008e-03	9.29688448e-05
1.77000000e+00	2.61143768e-03	9.12416715e-05
1.77500000e+00	2.58117687e-03	9.04022096e-05
1.78000000e+00	2.60505096e-03	9.15230388e-05
1.78500000e+00	2.56563970e-03	9.10761997e-05
1.79000000e+00	2.56575378e-03	8.95666748e-05
1.79500000e+00	2.56412701e-03	8.97994488e-05
1.80000000e+00	2.56765233e-03	9.04790223e-05
1.80500000e+00	2.56011851e-03	9.07589818e-05
1.81000000e+00	2.55811477e-03	8.93417559e-05
1.81500000e+00	2.53780033e-03	8.86930759e-05
1.82000000e+00	2.52783350e-03	8.89825276e-05
1.82500000e+00	2.53257948e-03	8.96478688e-05
1.83000000e+00	2.52468424e-03	8.82633293e-05
1.83500000e+00	2.51914171e-03	8.82421478e-05
1.84000000e+00	2.48496948e-03	8.74738916e-05
1.84500000e+00	2.50088423e-03	8.85751763e-05
1.85000000e+00	2.48455852e-03	8.69507985e-05
1.85500000e+00	2.48224325e-03	8.69592198e-05
1.86000000e+00	2.46876665e-03	8.70959254e-05
1.86500000e+00	2.45042140e-03	8.66234700e-05
1.87000000e+00	2.45832476e-03	8.59851899e-05
1.87500000e+00	2.44122953e-03	8.55702235e-05
1.88000000e+00	2.45355093e-03	8.64111692e-05
1.88500000e+00	2.42954436e-03	8.60497654e-05
1.89000000e+00	2.43527067e-03	8.51594030e-05
1.89500000e+00	2.41354850e-03	8.48150109e-05
1.90000000e+00	2.42099179e-03	8.53589100e-05
1.90500000e+00	2.40132952e-03	8.47428278e-05
1.91000000e+00	2.39909474e-03	8.40575679e-05
1.91500000e+00	2.38996951e-03	8.37785053e-05
1.92000000e+00	2.38155459e-03	8.39476608e-05
1.92500000e+00	2.38281560e-03	8.41504959e-05
1.93000000e+00	2.37179475e-03	8.30063145e-05
1.93500000e+00	2.34626739e-03	8.22856722e-05
1.94000000e+00	2.36235581e-03	8.35106878e-05
1.94500000e+00	2.34874033e-03	8.28703840e-05
1.95000000e+00	2.33875199e-03	8.17018509e-05
1.95500000e+00	2.33127601e-03	8.18058155e-05
1.96000000e+00	2.32744613e-03	8.21180135e-05
1.96500000e+00	2.31688204e-03	8.18228009e-05
1.97000000e+00	2.30468247e-03	8.04577394e-05
1.97500000e+00	2.30602092e-03	8.09844416e-05
1.98000000e+00	2.28911072e-03	8.07073857e-05
1.98500000e+00	2.27899220e-03	8.05787024e-05
1.99000000e+00	2.27110185e-03	7.94188130e-05
1.99500000e+00	2.25493488e-03	7.90942634e-05
2.00000000e+00	2.26704192e-03	8.00173216e-05
2.00500000e+00	2.27956100e-03	8.06693642e-05
2.01000000e+00	2.26060184e-03	8.78102159e-05
2.01500000e+00	2.24141448e-03	9.24286001e-05
2.02000000e+00	2.23935861e-03	9.85491882e-05
2.02500000e+00	2.18822966e-03	1.00044819e-04
2.03000000e+00	2.18528195e-03	1.05765274e-04
2.03500000e+00	2.16380746e-03	1.09307579e-04
2.04000000e+00	2.13958995e-03	1.13163331e-04
2.04500000e+00	2.15068810e-03	1.19705467e-04
2.05000000e+00	2.11111968e-03	1.23498541e-04
2.05500000e+00	2.12755029e-03	1.21781709e-04
2.06000000e+00	2.16189203e-03	1.07670686e-04
2.06500000e+00	2.15433849e-03	1.02504238e-04
2.07000000e+00	2.17084966e-03	9.77277467e-05
2.07500000e+00	2.19369956e-03	1.01036126e-04
2.08000000e+00	2.23269987e-03	1.05038101e-04
2.08500000e+00	2.14879358e-03	9.34962757e-05
2.09000000e+00	2.12905636e-03	8.99302164e-05
2.09500000e+00	2.15190341e-03	8.99302758e-05
2.10000000e+00	2.14341906e-03	8.90270850e-05
2.10500000e+00	2.11895225e-03	8.76362960e-05
2.11000000e+00	2.09258016e-03	8.33848810e-05
2.11500000e+00	2.09757801e-03	8.27458234e-05
2.12000000e+00	2.07726072e-03	8.14874941e-05
2.12500000e+00	2.06144772e-03	8.07254661e-05
2.13000000e+00	2.04713238e-03	7.68334988e-05
2.13500000e+00	2.02298287e-03	7.50548882e-05
2.14000000e+00	2.02986537e-03	7.46299952e-05
2.14500000e+00	1.98898838e-03	7.33006962e-05
2.15000000e+00	1.97722344e-03	7.04920866e-05
2.15500000e+00	1.99641556e-03	7.13145681e-05
2.16000000e+00	1.99157902e-03	7.07876352e-05
2.16500000e+00	1.97061042e-03	7.05417776e-05
2.17000000e+00	1.95129410e-03	6.81594001e-05
2.17500000e+00	1.94463974e-03	6.81118876e-05
2.18000000e+00	1.94211573e-03	6.81827818e-05
2.18500000e+00	1.92003515e-03	6.77299978e-05
2.19000000e+00	1.93893133e-03	6.82065312e-05
2.19500000e+00	1.92006596e-03	6.72094567e-05
2.20000000e+00	1.91704432e-03	6.72877425e-05
2.20500000e+00	1.89517684e-03	6.67026618e-05
2.21000000e+00	1.89544874e-03	6.70278742e-05
2.21500000e+00	1.87956493e-03	6.57388246e-05
2.22000000e+00	1.86761438e-03	6.52962793e-05
2.22500000e+00	1.84089843e-03	6.48741892e-05
2.23000000e+00	1.83848914e-03	6.51690503e-05
2.23500000e+00	1.83482027e-03	6.40794428e-05
2.24000000e+00	1.81996429e-03	6.37283704e-05
2.24500000e+00	1.81964371e-03	6.40858150e-05
2.25000000e+00	1.79465403e-03	6.37816717e-05
2.25500000e+00	1.78570469e-03	6.23021021e-05
2.26000000e+00	1.77069138e-03	6.20264469e-05
2.26500000e+00	1.76321058e-03	6.19574810e-05
2.27000000e+00	1.76706429e-03	6.30049640e-05
2.27500000e+00	1.75510159e-03	6.13025710e-05
2.28000000e+00	1.74583428e-03	6.09961940e-05
2.28500000e+00	1.70130504e-03	5.98408855e-05
2.29000000e+00	1.71213199e-03	6.05222192e-05
2.29500000e+00	1.70951806e-03	6.03395682e-05
2.30000000e+00	1.69774658e-03	5.93206480e-05
2.30500000e+00	1.67366435e-03	5.86271292e-05
2.31000000e+00	1.68326035e-03	5.91635661e-05
2.31500000e+00	1.66141265e-03	5.89819539e-05
2.32000000e+00	1.66487670e-03	5.78680763e-05
2.32500000e+00	1.63077222e-03	5.72222736e-05
2.33000000e+00	1.62723772e-03	5.71653041e-05
2.33500000e+00	1.61808443e-03	5.73637306e-05
2.34000000e+00	1.60654105e-03	5.60643860e-05
2.34500000e+00	1.60473379e-03	5.60193026e-05
2.35000000e+00	1.57745895e-03	5.52680342e-05
2.35500000e+00	1.55336171e-03	5.51656383e-05
2.36000000e+00	1.57019450e-03	5.49908706e-05
2.36500000e+00	1.54872274e-03	5.41761175e-05
2.37000000e+00	1.53444786e-03	5.36839477e-05
2.37500000e+00	1.56099749e-03	5.50517553e-05
2.38000000e+00	1.53073913e-03	5.42858306e-05
2.38500000e+00	1.51580015e-03	5.30047523e-05
2.39000000e+00	1.50790820e-03	5.28744318e-05
2.39500000e+00	1.50617454e-03	5.30719440e-05
2.40000000e+00	1.48697365e-03	5.32162950e-05
2.40500000e+00	1.50223415e-03	5.27531052e-05
2.41000000e+00	1.47862913e-03	5.19936975e-05
2.41500000e+00	1.47335734e-03	5.18562332e-05
2.42000000e+00	1.47361854e-03	5.25598076e-05
2.42500000e+00	1.45300399e-03	5.17389911e-05
2.43000000e+00	1.44117791e-03	5.08424317e-05
2.43500000e+00	1.43565960e-03	5.08135708e-05
2.44000000e+00	1.41391767e-03	5.01095047e-05
2.44500000e+00	1.41279585e-03	5.07689199e-05
2.45000000e+00	1.41231984e-03	4.98528871e-05
2.45500000e+00	1.41386690e-03	5.00986052e-05
2.46000000e+00	1.40049288e-03	4.97816013e-05
2.46500000e+00	1.38084244e-03	4.96768438e-05
2.47000000e+00	1.37327169e-03	4.89641657e-05
2.47500000e+00	1.36285117e-03	4.82071193e-05
2.48000000e+00	1.35320128e-03	4.83386038e-05
2.48500000e+00	1.33580797e-03	4.77106190e-05
2.49000000e+00	1.34057594e-03	4.85380536e-05
2.49500000e+00	1.32219758e-03	4.70139021e-05
2.50000000e+00	1.31843024e-03	4.69765918e-05
2.50500000e+00	1.31734085e-03	4.72070154e-05
2.51000000e+00	1.33047397e-03	4.79554272e-05
2.51500000e+00	1.30843872e-03	4.72700611e-05
2.52000000e+00	1.28642855e-03	4.60156401e-05
2.52500000e+00	1.28419191e-03	4.61722951e-05
2.53000000e+00	1.28526470e-03	4.66753493e-05
2.53500000e+00	1.27062318e-03	4.66972312e-05
2.54000000e+00	1.25913100e-03	4.55469426e-05
2.54500000e+00	1.24965932e-03	4.53356595e-05
2.55000000e+00	1.25422149e-03	4.57106608e-05
2.55500000e+00	1.22851578e-03	4.52454347e-05
2.56000000e+00	1.24483376e-03	4.59713117e-05
2.56500000e+00	1.22348724e-03	4.48257806e-05
2.57000000e+00	1.22711427e-03	4.51446526e-05
2.57500000e+00	1.21691266e-03	4.49270647e-05
2.58000000e+00	1.19499022e-03	4.48902916e-05
2.58500000e+00	1.19974075e-03	4.46587252e-05
2.59000000e+00	1.19836503e-03	4.44776810e-05
2.59500000e+00	1.19474183e-03	4.45318050e-05
2.60000000e+00	1.17166014e-03	4.39727469e-05
2.60500000e+00	1.18659471e-03	4.55543281e-05
2.61000000e+00	1.19196149e-03	5.20230794e-05
2.61500000e+00	1.16302677e-03	5.62009091e-05
2.62000000e+00	1.15731908e-03	6.14622867e-05
2.62500000e+00	1.12934081e-03	6.49397730e-05
2.63000000e+00	1.13449107e-03	7.22153029e-05
2.63500000e+00	1.16271803e-03	8.20055395e-05
2.64000000e+00	1.17916691e-03	9.18172344e-05
2.64500000e+00	1.12262474e-03	9.33315642e-05
2.65000000e+00	1.13613921e-03	9.96122201e-05
2.65500000e+00	1.12659983e-03	1.06800246e-04
2.66000000e+00	1.10758289e-03	1.12074986e-04
2.66500000e+00	1.14998415e-03	1.31132079e-04
2.67000000e+00	1.16257304e-03	1.43654704e-04
2.67500000e+00	1.12422956e-03	1.61944076e-04
2.68000000e+00	1.12005272e-03	1.87666146e-04
2.68500000e+00	1.12349102e-03	2.48317447e-04
2.69000000e+00	1.05315735e-03	3.80925357e-04
2.69500000e+00	0.00000000e+00	0.00000000e+00
2.70000000e+00	0.00000000e+00	0.00000000e+00
