% Filename : WJS5_00036_00038.h5
% Date & Time : 30-Oct-2025 17:37:59
% X-ray Energy (keV) : 13.30001
% Exposure Time (s) : 0.500
% Photodiode Value : 142477.000
% I0 of Sample : 0
% I0 of Standard : 1
% 
% q(A^-1)   I(q)    I(q)_SE
8.40000000e-01	0.00000000e+00	0.00000000e+00
8.45000000e-01	2.86650040e-03	5.02979989e-04
8.50000000e-01	2.63803265e-03	2.44737798e-04
8.55000000e-01	2.62014198e-03	2.14096796e-04
8.60000000e-01	2.56883344e-03	1.81797129e-04
8.65000000e-01	2.61122415e-03	1.70143203e-04
8.70000000e-01	2.62643186e-03	1.63234203e-04
8.75000000e-01	2.59715781e-03	1.55405206e-04
8.80000000e-01	2.63812603e-03	1.52659867e-04
8.85000000e-01	2.65052244e-03	1.44933938e-04
8.90000000e-01	2.63289830e-03	1.40882967e-04
8.95000000e-01	2.64140461e-03	1.37248829e-04
9.00000000e-01	2.64365356e-03	1.36073132e-04
9.05000000e-01	2.64385623e-03	1.30212507e-04
9.10000000e-01	2.67265717e-03	1.29166509e-04
9.15000000e-01	2.66057058e-03	1.26593778e-04
9.20000000e-01	2.68468930e-03	1.27542802e-04
9.25000000e-01	2.71586096e-03	1.23440622e-04
9.30000000e-01	2.70552364e-03	1.21812553e-04
9.35000000e-01	2.69571377e-03	1.18959913e-04
9.40000000e-01	2.72212687e-03	1.20436522e-04
9.45000000e-01	2.70214822e-03	1.16635958e-04
9.50000000e-01	2.72603111e-03	1.16012669e-04
9.55000000e-01	2.72233619e-03	1.13757861e-04
9.60000000e-01	2.72008145e-03	1.13673440e-04
9.65000000e-01	2.73472707e-03	1.12475990e-04
9.70000000e-01	2.72519682e-03	1.10278077e-04
9.75000000e-01	2.71453221e-03	1.08600968e-04
9.80000000e-01	2.75277794e-03	1.09188183e-04
9.85000000e-01	2.74495039e-03	1.08948938e-04
9.90000000e-01	2.74619800e-03	1.05825906e-04
9.95000000e-01	2.75961638e-03	1.05709931e-04
1.00000000e+00	2.73062506e-03	1.04118694e-04
1.00500000e+00	2.76069954e-03	1.05262853e-04
1.01000000e+00	2.76579202e-03	1.03208812e-04
1.01500000e+00	2.72386531e-03	1.00723645e-04
1.02000000e+00	2.75510496e-03	1.01781124e-04
1.02500000e+00	2.73344415e-03	9.97580918e-05
1.03000000e+00	2.75059506e-03	1.00000886e-04
1.03500000e+00	2.73340557e-03	9.80158201e-05
1.04000000e+00	2.74111346e-03	9.77304515e-05
1.04500000e+00	2.74002277e-03	9.78695911e-05
1.05000000e+00	2.70355052e-03	9.59436012e-05
1.05500000e+00	2.69401497e-03	9.41670984e-05
1.06000000e+00	2.71393387e-03	9.45251907e-05
1.06500000e+00	2.70838171e-03	9.44863684e-05
1.07000000e+00	2.70944262e-03	9.43326243e-05
1.07500000e+00	2.72170555e-03	9.39713155e-05
1.08000000e+00	2.72919355e-03	9.37821560e-05
1.08500000e+00	2.73516304e-03	9.39741845e-05
1.09000000e+00	2.74375237e-03	9.48535426e-05
1.09500000e+00	2.74697123e-03	9.31032379e-05
1.10000000e+00	2.74317262e-03	9.35560484e-05
1.10500000e+00	2.76442958e-03	9.46068635e-05
1.11000000e+00	2.76410854e-03	9.47377230e-05
1.11500000e+00	2.77924389e-03	9.45113698e-05
1.12000000e+00	2.79387133e-03	9.54408403e-05
1.12500000e+00	2.78978211e-03	9.49512174e-05
1.13000000e+00	2.79034564e-03	9.60860019e-05
1.13500000e+00	2.82226263e-03	9.59576992e-05
1.14000000e+00	2.81745563e-03	9.56218243e-05
1.14500000e+00	2.85029101e-03	9.75882627e-05
1.15000000e+00	2.82177803e-03	9.71454436e-05
1.15500000e+00	2.83639771e-03	9.65769632e-05
1.16000000e+00	2.86070035e-03	9.78367205e-05
1.16500000e+00	2.85688705e-03	9.74316160e-05
1.17000000e+00	2.86031454e-03	9.88165367e-05
1.17500000e+00	2.86853148e-03	9.77255252e-05
1.18000000e+00	2.85000549e-03	9.74856002e-05
1.18500000e+00	2.86647062e-03	9.79899254e-05
1.19000000e+00	2.86459280e-03	9.88201858e-05
1.19500000e+00	2.87847194e-03	9.82528898e-05
1.20000000e+00	2.88988140e-03	9.91611758e-05
1.20500000e+00	2.88435508e-03	9.87564598e-05
1.21000000e+00	2.88249397e-03	1.00024645e-04
1.21500000e+00	2.88698451e-03	9.84922931e-05
1.22000000e+00	2.90395153e-03	9.92304334e-05
1.22500000e+00	2.88875262e-03	9.90674084e-05
1.23000000e+00	2.89996158e-03	1.00246223e-04
1.23500000e+00	2.91571095e-03	1.00162256e-04
1.24000000e+00	2.92140372e-03	9.98436499e-05
1.24500000e+00	2.88218143e-03	9.92585977e-05
1.25000000e+00	2.91377782e-03	1.00943189e-04
1.25500000e+00	2.91276743e-03	9.97281575e-05
1.26000000e+00	2.88627663e-03	9.93901658e-05
1.26500000e+00	2.91099988e-03	9.98515887e-05
1.27000000e+00	2.90333699e-03	1.00990558e-04
1.27500000e+00	2.92952957e-03	1.00988087e-04
1.28000000e+00	2.92490540e-03	1.00133921e-04
1.28500000e+00	2.93209473e-03	1.01033010e-04
1.29000000e+00	2.91617506e-03	1.01245843e-04
1.29500000e+00	2.92889780e-03	1.00676077e-04
1.30000000e+00	2.92683154e-03	1.00498921e-04
1.30500000e+00	2.92511242e-03	1.00752531e-04
1.31000000e+00	2.92857034e-03	1.02092791e-04
1.31500000e+00	2.92732211e-03	1.00816094e-04
1.32000000e+00	2.92867640e-03	1.00773879e-04
1.32500000e+00	2.92620474e-03	1.00924366e-04
1.33000000e+00	2.92056411e-03	1.01934479e-04
1.33500000e+00	2.94451418e-03	1.01362048e-04
1.34000000e+00	2.92096695e-03	1.00667676e-04
1.34500000e+00	2.93321171e-03	1.01472883e-04
1.35000000e+00	2.92332039e-03	1.02047517e-04
1.35500000e+00	2.93943328e-03	1.01284281e-04
1.36000000e+00	2.91331527e-03	1.00143460e-04
1.36500000e+00	2.94037445e-03	1.01395601e-04
1.37000000e+00	2.93215145e-03	1.02682676e-04
1.37500000e+00	2.91454215e-03	1.00399863e-04
1.38000000e+00	2.90651369e-03	1.00441321e-04
1.38500000e+00	2.92470273e-03	1.01614515e-04
1.39000000e+00	2.91675049e-03	1.01988046e-04
1.39500000e+00	2.93205459e-03	1.01072566e-04
1.40000000e+00	2.95542332e-03	1.04860205e-04
1.40500000e+00	2.90267098e-03	1.10927911e-04
1.41000000e+00	2.89617783e-03	1.15876799e-04
1.41500000e+00	2.87519161e-03	1.19211845e-04
1.42000000e+00	2.86343913e-03	1.23519840e-04
1.42500000e+00	2.85233027e-03	1.26665153e-04
1.43000000e+00	2.82256975e-03	1.30031119e-04
1.43500000e+00	2.79659039e-03	1.32859180e-04
1.44000000e+00	2.81564737e-03	1.39060816e-04
1.44500000e+00	2.80468066e-03	1.41926369e-04
1.45000000e+00	2.89197220e-03	1.41605887e-04
1.45500000e+00	2.92127688e-03	1.28327627e-04
1.46000000e+00	2.89524454e-03	1.24360308e-04
1.46500000e+00	2.89301493e-03	1.22092352e-04
1.47000000e+00	2.87694855e-03	1.21194913e-04
1.47500000e+00	2.85610636e-03	1.16795016e-04
1.48000000e+00	2.90145618e-03	1.17213409e-04
1.48500000e+00	2.89126510e-03	1.16939433e-04
1.49000000e+00	2.84687507e-03	1.15443879e-04
1.49500000e+00	2.88741899e-03	1.14572070e-04
1.50000000e+00	2.87986478e-03	1.13912248e-04
1.50500000e+00	2.86148713e-03	1.13804155e-04
1.51000000e+00	2.88838289e-03	1.15133132e-04
1.51500000e+00	2.88052985e-03	1.12818754e-04
1.52000000e+00	2.88694962e-03	1.12660368e-04
1.52500000e+00	2.88674776e-03	1.12571079e-04
1.53000000e+00	2.88474110e-03	1.13130877e-04
1.53500000e+00	2.88225068e-03	1.09828740e-04
1.54000000e+00	2.87536615e-03	1.09451331e-04
1.54500000e+00	2.85276882e-03	1.08305327e-04
1.55000000e+00	2.84602812e-03	1.07790636e-04
1.55500000e+00	2.85026130e-03	1.05472671e-04
1.56000000e+00	2.84332623e-03	1.05441812e-04
1.56500000e+00	2.81018299e-03	1.03730643e-04
1.57000000e+00	2.81012364e-03	1.03028906e-04
1.57500000e+00	2.80906353e-03	1.01054957e-04
1.58000000e+00	2.79356691e-03	1.00373174e-04
1.58500000e+00	2.76829040e-03	9.93284737e-05
1.59000000e+00	2.78096393e-03	9.98940402e-05
1.59500000e+00	2.76815818e-03	9.75398745e-05
1.60000000e+00	2.73583127e-03	9.64197441e-05
1.60500000e+00	2.75959849e-03	9.73224899e-05
1.61000000e+00	2.74047023e-03	9.62293714e-05
1.61500000e+00	2.73564163e-03	9.52579927e-05
1.62000000e+00	2.71154903e-03	9.47457170e-05
1.62500000e+00	2.74774663e-03	9.71156293e-05
1.63000000e+00	2.71814496e-03	9.50172090e-05
1.63500000e+00	2.70792754e-03	9.45814227e-05
1.64000000e+00	2.71422521e-03	9.49349919e-05
1.64500000e+00	2.69315332e-03	9.52462510e-05
1.65000000e+00	2.70654210e-03	9.46587247e-05
1.65500000e+00	2.70713944e-03	9.45082784e-05
1.66000000e+00	2.68694617e-03	9.40014657e-05
1.66500000e+00	2.66831967e-03	9.48635275e-05
1.67000000e+00	2.67567002e-03	9.31362589e-05
1.67500000e+00	2.67628225e-03	9.34247604e-05
1.68000000e+00	2.67953145e-03	9.38106403e-05
1.68500000e+00	2.65615892e-03	9.45790992e-05
1.69000000e+00	2.64888894e-03	9.24313157e-05
1.69500000e+00	2.64191339e-03	9.21033693e-05
1.70000000e+00	2.64003113e-03	9.30257668e-05
1.70500000e+00	2.64369870e-03	9.35573578e-05
1.71000000e+00	2.63454801e-03	9.20819431e-05
1.71500000e+00	2.61113875e-03	9.12058244e-05
1.72000000e+00	2.60773770e-03	9.18264562e-05
1.72500000e+00	2.63202912e-03	9.32588090e-05
1.73000000e+00	2.61530480e-03	9.13862542e-05
1.73500000e+00	2.58777160e-03	9.06714325e-05
1.74000000e+00	2.59740322e-03	9.12429939e-05
1.74500000e+00	2.58102881e-03	9.17268853e-05
1.75000000e+00	2.58598765e-03	9.01524005e-05
1.75500000e+00	2.58098116e-03	9.05761376e-05
1.76000000e+00	2.56822730e-03	9.00909470e-05
1.76500000e+00	2.55817280e-03	9.08835558e-05
1.77000000e+00	2.54621692e-03	8.88836599e-05
1.77500000e+00	2.55917854e-03	8.96463412e-05
1.78000000e+00	2.53776635e-03	8.91814219e-05
1.78500000e+00	2.53524612e-03	9.00522174e-05
1.79000000e+00	2.52120843e-03	8.79572682e-05
1.79500000e+00	2.52864131e-03	8.85542680e-05
1.80000000e+00	2.49864773e-03	8.80451546e-05
1.80500000e+00	2.51266041e-03	8.90991418e-05
1.81000000e+00	2.48208803e-03	8.66988877e-05
1.81500000e+00	2.48392198e-03	8.68769206e-05
1.82000000e+00	2.47782532e-03	8.72101390e-05
1.82500000e+00	2.46719025e-03	8.73805206e-05
1.83000000e+00	2.47263413e-03	8.64392342e-05
1.83500000e+00	2.45387390e-03	8.59348244e-05
1.84000000e+00	2.47229072e-03	8.70878217e-05
1.84500000e+00	2.44093064e-03	8.64302774e-05
1.85000000e+00	2.44434418e-03	8.55687834e-05
1.85500000e+00	2.43175584e-03	8.52442474e-05
1.86000000e+00	2.42383945e-03	8.55694794e-05
1.86500000e+00	2.42154547e-03	8.56189477e-05
1.87000000e+00	2.40003169e-03	8.39330427e-05
1.87500000e+00	2.39965991e-03	8.42894923e-05
1.88000000e+00	2.39690443e-03	8.44118044e-05
1.88500000e+00	2.37871424e-03	8.43303719e-05
1.89000000e+00	2.39934488e-03	8.38544733e-05
1.89500000e+00	2.37360170e-03	8.33929508e-05
1.90000000e+00	2.37182466e-03	8.36179929e-05
1.90500000e+00	2.37967213e-03	8.39008569e-05
1.91000000e+00	2.35704012e-03	8.26268562e-05
1.91500000e+00	2.31896072e-03	8.12952061e-05
1.92000000e+00	2.33622750e-03	8.23760471e-05
1.92500000e+00	2.33630814e-03	8.23793198e-05
1.93000000e+00	2.33031757e-03	8.15168566e-05
1.93500000e+00	2.32709403e-03	8.16344551e-05
1.94000000e+00	2.31146130e-03	8.17844488e-05
1.94500000e+00	2.28280129e-03	8.04788531e-05
1.95000000e+00	2.29780354e-03	8.02794917e-05
1.95500000e+00	2.29507634e-03	8.05539242e-05
1.96000000e+00	2.28223772e-03	8.06079601e-05
1.96500000e+00	2.28235963e-03	8.06762649e-05
1.97000000e+00	2.26520229e-03	7.90443597e-05
1.97500000e+00	2.26315974e-03	7.95096219e-05
1.98000000e+00	2.27070539e-03	8.00960721e-05
1.98500000e+00	2.25232833e-03	7.96057183e-05
1.99000000e+00	2.24318813e-03	7.82580493e-05
1.99500000e+00	2.22996821e-03	7.82350121e-05
2.00000000e+00	2.21760678e-03	7.82977074e-05
2.00500000e+00	2.23151047e-03	7.89301136e-05
2.01000000e+00	2.18751040e-03	8.49682972e-05
2.01500000e+00	2.21369585e-03	9.12313193e-05
2.02000000e+00	2.19389045e-03	9.64756608e-05
2.02500000e+00	2.16193859e-03	9.89263394e-05
2.03000000e+00	2.14305259e-03	1.03724763e-04
2.03500000e+00	2.11727665e-03	1.07066406e-04
2.04000000e+00	2.08839215e-03	1.10394303e-04
2.04500000e+00	2.07815605e-03	1.15526039e-04
2.05000000e+00	2.09131831e-03	1.22111586e-04
2.05500000e+00	2.11320184e-03	1.20766397e-04
2.06000000e+00	2.14563876e-03	1.06766555e-04
2.06500000e+00	2.10316437e-03	1.00043497e-04
2.07000000e+00	2.09393464e-03	9.41925176e-05
2.07500000e+00	2.10709096e-03	9.28747601e-05
2.08000000e+00	2.09242930e-03	9.18996978e-05
2.08500000e+00	2.11355428e-03	9.20221412e-05
2.09000000e+00	2.08698819e-03	8.81855978e-05
2.09500000e+00	2.08564808e-03	8.71663486e-05
2.10000000e+00	2.07105418e-03	8.60080681e-05
2.10500000e+00	2.07004976e-03	8.56970688e-05
2.11000000e+00	2.07078551e-03	8.25285681e-05
2.11500000e+00	2.03293835e-03	8.02720798e-05
2.12000000e+00	2.02772838e-03	7.97069660e-05
2.12500000e+00	2.02545602e-03	7.93322632e-05
2.13000000e+00	2.00179422e-03	7.51363461e-05
2.13500000e+00	2.00533227e-03	7.44012989e-05
2.14000000e+00	1.98621111e-03	7.30949606e-05
2.14500000e+00	1.96485696e-03	7.24750325e-05
2.15000000e+00	1.96882164e-03	7.01498329e-05
2.15500000e+00	1.96290864e-03	7.01397794e-05
2.16000000e+00	1.93469996e-03	6.87516273e-05
2.16500000e+00	1.93794899e-03	6.93024273e-05
2.17000000e+00	1.91912910e-03	6.69703840e-05
2.17500000e+00	1.92839415e-03	6.75770179e-05
2.18000000e+00	1.90413913e-03	6.68983918e-05
2.18500000e+00	1.90259779e-03	6.72065448e-05
2.19000000e+00	1.88364780e-03	6.63279730e-05
2.19500000e+00	1.87716594e-03	6.57332364e-05
2.20000000e+00	1.88827021e-03	6.62582874e-05
2.20500000e+00	1.85193153e-03	6.52615921e-05
2.21000000e+00	1.85364194e-03	6.55916453e-05
2.21500000e+00	1.83207281e-03	6.41227509e-05
2.22000000e+00	1.81975416e-03	6.36102842e-05
2.22500000e+00	1.82567334e-03	6.43773280e-05
2.23000000e+00	1.79343491e-03	6.35718876e-05
2.23500000e+00	1.79887795e-03	6.28917290e-05
2.24000000e+00	1.80921477e-03	6.33338543e-05
2.24500000e+00	1.78859731e-03	6.29663899e-05
2.25000000e+00	1.78358640e-03	6.33557152e-05
2.25500000e+00	1.75908770e-03	6.13703754e-05
2.26000000e+00	1.74969944e-03	6.12633957e-05
2.26500000e+00	1.72649445e-03	6.06593840e-05
2.27000000e+00	1.71431422e-03	6.12171924e-05
2.27500000e+00	1.71608543e-03	5.99874080e-05
2.28000000e+00	1.71153361e-03	5.98400380e-05
2.28500000e+00	1.69866551e-03	5.97414091e-05
2.29000000e+00	1.67721456e-03	5.93319780e-05
2.29500000e+00	1.67131865e-03	5.89666933e-05
2.30000000e+00	1.64938592e-03	5.76519141e-05
2.30500000e+00	1.65999714e-03	5.81747100e-05
2.31000000e+00	1.64777805e-03	5.79635580e-05
2.31500000e+00	1.64141089e-03	5.82582352e-05
2.32000000e+00	1.63493267e-03	5.68470537e-05
2.32500000e+00	1.60745069e-03	5.63756712e-05
2.33000000e+00	1.60012078e-03	5.62662189e-05
2.33500000e+00	1.60481636e-03	5.70418569e-05
2.34000000e+00	1.58122759e-03	5.51936445e-05
2.34500000e+00	1.56618404e-03	5.46574046e-05
2.35000000e+00	1.56474338e-03	5.49147568e-05
2.35500000e+00	1.53946014e-03	5.47218003e-05
2.36000000e+00	1.53541471e-03	5.38063785e-05
2.36500000e+00	1.52665806e-03	5.33744674e-05
2.37000000e+00	1.51978040e-03	5.31950083e-05
2.37500000e+00	1.52487733e-03	5.39172498e-05
2.38000000e+00	1.49249370e-03	5.29732872e-05
2.38500000e+00	1.48609996e-03	5.20027277e-05
2.39000000e+00	1.49615057e-03	5.24479099e-05
2.39500000e+00	1.46277416e-03	5.16168022e-05
2.40000000e+00	1.45051309e-03	5.18108233e-05
2.40500000e+00	1.46284733e-03	5.12922134e-05
2.41000000e+00	1.44237797e-03	5.07697415e-05
2.41500000e+00	1.44282761e-03	5.08501632e-05
2.42000000e+00	1.44521415e-03	5.15520969e-05
2.42500000e+00	1.41322698e-03	5.03741595e-05
2.43000000e+00	1.40099057e-03	4.93821132e-05
2.43500000e+00	1.40412566e-03	4.97123495e-05
2.44000000e+00	1.39003679e-03	4.93177896e-05
2.44500000e+00	1.37848240e-03	4.95376203e-05
2.45000000e+00	1.37335405e-03	4.85236020e-05
2.45500000e+00	1.37353099e-03	4.86093403e-05
2.46000000e+00	1.37192513e-03	4.87294226e-05
2.46500000e+00	1.36065938e-03	4.89601761e-05
2.47000000e+00	1.35258852e-03	4.81738151e-05
2.47500000e+00	1.33953789e-03	4.74139053e-05
2.48000000e+00	1.32513589e-03	4.74220965e-05
2.48500000e+00	1.30937408e-03	4.68427979e-05
2.49000000e+00	1.32599214e-03	4.79924755e-05
2.49500000e+00	1.30710766e-03	4.64760911e-05
2.50000000e+00	1.29821437e-03	4.62405012e-05
2.50500000e+00	1.29890753e-03	4.64931455e-05
2.51000000e+00	1.28176250e-03	4.62279251e-05
2.51500000e+00	1.27596994e-03	4.61257589e-05
2.52000000e+00	1.27211582e-03	4.55548155e-05
2.52500000e+00	1.26242279e-03	4.53769320e-05
2.53000000e+00	1.25002330e-03	4.53994204e-05
2.53500000e+00	1.24753195e-03	4.57903153e-05
2.54000000e+00	1.24462578e-03	4.50443906e-05
2.54500000e+00	1.23384474e-03	4.47782903e-05
2.55000000e+00	1.22087079e-03	4.44846195e-05
2.55500000e+00	1.20907481e-03	4.45120616e-05
2.56000000e+00	1.21543217e-03	4.49361361e-05
2.56500000e+00	1.20886329e-03	4.42635600e-05
2.57000000e+00	1.19832001e-03	4.41316879e-05
2.57500000e+00	1.18408029e-03	4.36987816e-05
2.58000000e+00	1.19198021e-03	4.47102426e-05
2.58500000e+00	1.19007978e-03	4.43088034e-05
2.59000000e+00	1.17438611e-03	4.35405978e-05
2.59500000e+00	1.15677222e-03	4.30824565e-05
2.60000000e+00	1.15318319e-03	4.32519257e-05
2.60500000e+00	1.17314412e-03	4.49739408e-05
2.61000000e+00	1.15974303e-03	5.06673798e-05
2.61500000e+00	1.16821645e-03	5.64662881e-05
2.62000000e+00	1.14112050e-03	6.07196519e-05
2.62500000e+00	1.15513871e-03	6.65267339e-05
2.63000000e+00	1.11377981e-03	7.07068624e-05
2.63500000e+00	1.15281129e-03	8.14105933e-05
2.64000000e+00	1.10820835e-03	8.60730878e-05
2.64500000e+00	1.12021763e-03	9.28310831e-05
2.65000000e+00	1.12808525e-03	9.90526771e-05
2.65500000e+00	1.11141099e-03	1.05138036e-04
2.66000000e+00	1.05313115e-03	1.06886454e-04
2.66500000e+00	1.09540887e-03	1.24585591e-04
2.67000000e+00	1.10244601e-03	1.35524532e-04
2.67500000e+00	1.01857498e-03	1.46797887e-04
2.68000000e+00	1.05658692e-03	1.77022457e-04
2.68500000e+00	1.10664519e-03	2.47287572e-04
2.69000000e+00	1.19832704e-03	4.32204485e-04
2.69500000e+00	0.00000000e+00	0.00000000e+00
2.70000000e+00	0.00000000e+00	0.00000000e+00
