% Filename : WJS5_00036_00029.h5
% Date & Time : 30-Oct-2025 17:37:33
% X-ray Energy (keV) : 13.30001
% Exposure Time (s) : 0.500
% Photodiode Value : 141815.000
% I0 of Sample : 0
% I0 of Standard : 1
% 
% q(A^-1)   I(q)    I(q)_SE
8.40000000e-01	0.00000000e+00	0.00000000e+00
8.45000000e-01	2.83538916e-03	4.95639157e-04
8.50000000e-01	2.68901920e-03	2.49583966e-04
8.55000000e-01	2.58747054e-03	2.11460211e-04
8.60000000e-01	2.63494558e-03	1.86173809e-04
8.65000000e-01	2.59568149e-03	1.69413369e-04
8.70000000e-01	2.60312427e-03	1.61750359e-04
8.75000000e-01	2.60186492e-03	1.55538216e-04
8.80000000e-01	2.58020422e-03	1.48971999e-04
8.85000000e-01	2.65855557e-03	1.45162195e-04
8.90000000e-01	2.63867527e-03	1.41182478e-04
8.95000000e-01	2.65695591e-03	1.38193771e-04
9.00000000e-01	2.65244276e-03	1.36680675e-04
9.05000000e-01	2.68452164e-03	1.32272020e-04
9.10000000e-01	2.68088317e-03	1.29513076e-04
9.15000000e-01	2.68765313e-03	1.27754750e-04
9.20000000e-01	2.70422669e-03	1.28587239e-04
9.25000000e-01	2.68516593e-03	1.22090816e-04
9.30000000e-01	2.69526356e-03	1.21197008e-04
9.35000000e-01	2.68758584e-03	1.18602072e-04
9.40000000e-01	2.69951431e-03	1.19475672e-04
9.45000000e-01	2.70088058e-03	1.16555331e-04
9.50000000e-01	2.70826386e-03	1.15203344e-04
9.55000000e-01	2.71768530e-03	1.13544811e-04
9.60000000e-01	2.72197656e-03	1.13922610e-04
9.65000000e-01	2.71937868e-03	1.11763056e-04
9.70000000e-01	2.72384234e-03	1.10109352e-04
9.75000000e-01	2.72580810e-03	1.09064170e-04
9.80000000e-01	2.74950337e-03	1.09048372e-04
9.85000000e-01	2.75418197e-03	1.09450223e-04
9.90000000e-01	2.74077698e-03	1.05565478e-04
9.95000000e-01	2.73801005e-03	1.04901028e-04
1.00000000e+00	2.73926801e-03	1.04422582e-04
1.00500000e+00	2.74339681e-03	1.04668135e-04
1.01000000e+00	2.73507312e-03	1.02159834e-04
1.01500000e+00	2.76039277e-03	1.02057867e-04
1.02000000e+00	2.75580588e-03	1.01855579e-04
1.02500000e+00	2.73522104e-03	9.98091018e-05
1.03000000e+00	2.73316391e-03	9.94976275e-05
1.03500000e+00	2.74346499e-03	9.84422873e-05
1.04000000e+00	2.72919583e-03	9.73257316e-05
1.04500000e+00	2.72993057e-03	9.73855790e-05
1.05000000e+00	2.71809469e-03	9.64144566e-05
1.05500000e+00	2.70867823e-03	9.44816440e-05
1.06000000e+00	2.72713562e-03	9.50423919e-05
1.06500000e+00	2.73061060e-03	9.52599307e-05
1.07000000e+00	2.70310320e-03	9.41799087e-05
1.07500000e+00	2.75471212e-03	9.52401360e-05
1.08000000e+00	2.73272725e-03	9.38190934e-05
1.08500000e+00	2.76424545e-03	9.50599072e-05
1.09000000e+00	2.76268866e-03	9.54105763e-05
1.09500000e+00	2.72653224e-03	9.23192297e-05
1.10000000e+00	2.78529463e-03	9.48472404e-05
1.10500000e+00	2.75207000e-03	9.42140920e-05
1.11000000e+00	2.77610001e-03	9.51776583e-05
1.11500000e+00	2.78984209e-03	9.48682457e-05
1.12000000e+00	2.78948409e-03	9.52178552e-05
1.12500000e+00	2.81077015e-03	9.56515053e-05
1.13000000e+00	2.81505408e-03	9.70063840e-05
1.13500000e+00	2.81459870e-03	9.58067813e-05
1.14000000e+00	2.83086725e-03	9.61077548e-05
1.14500000e+00	2.84825419e-03	9.75361908e-05
1.15000000e+00	2.81316049e-03	9.68116819e-05
1.15500000e+00	2.84237011e-03	9.67310801e-05
1.16000000e+00	2.84802565e-03	9.73369602e-05
1.16500000e+00	2.85914529e-03	9.76018510e-05
1.17000000e+00	2.87450588e-03	9.93052307e-05
1.17500000e+00	2.87259543e-03	9.78198902e-05
1.18000000e+00	2.87787489e-03	9.84159316e-05
1.18500000e+00	2.86569742e-03	9.78601694e-05
1.19000000e+00	2.88166935e-03	9.95376844e-05
1.19500000e+00	2.88247274e-03	9.82929278e-05
1.20000000e+00	2.87243835e-03	9.85293164e-05
1.20500000e+00	2.88400360e-03	9.87968831e-05
1.21000000e+00	2.89636219e-03	1.00538700e-04
1.21500000e+00	2.91654015e-03	9.96203221e-05
1.22000000e+00	2.90620107e-03	9.93292764e-05
1.22500000e+00	2.92922259e-03	1.00537623e-04
1.23000000e+00	2.90813483e-03	1.00529415e-04
1.23500000e+00	2.91158352e-03	9.99473702e-05
1.24000000e+00	2.91991130e-03	9.97338676e-05
1.24500000e+00	2.91912126e-03	1.00547751e-04
1.25000000e+00	2.90732309e-03	1.00654144e-04
1.25500000e+00	2.92300402e-03	1.00068513e-04
1.26000000e+00	2.93991757e-03	1.01176215e-04
1.26500000e+00	2.91432874e-03	1.00000219e-04
1.27000000e+00	2.91415103e-03	1.01441985e-04
1.27500000e+00	2.93061375e-03	1.00912826e-04
1.28000000e+00	2.92458889e-03	1.00112621e-04
1.28500000e+00	2.94117174e-03	1.01242651e-04
1.29000000e+00	2.92490603e-03	1.01550067e-04
1.29500000e+00	2.94114866e-03	1.01082117e-04
1.30000000e+00	2.92859743e-03	1.00452422e-04
1.30500000e+00	2.92813210e-03	1.00947813e-04
1.31000000e+00	2.92783741e-03	1.02100542e-04
1.31500000e+00	2.92213000e-03	1.00581517e-04
1.32000000e+00	2.92225063e-03	1.00353481e-04
1.32500000e+00	2.91396972e-03	1.00610817e-04
1.33000000e+00	2.93859488e-03	1.02577010e-04
1.33500000e+00	2.93769222e-03	1.01174744e-04
1.34000000e+00	2.93398192e-03	1.01051775e-04
1.34500000e+00	2.92454596e-03	1.01197462e-04
1.35000000e+00	2.92057783e-03	1.02030316e-04
1.35500000e+00	2.93314308e-03	1.01022061e-04
1.36000000e+00	2.92554349e-03	1.00556440e-04
1.36500000e+00	2.92371573e-03	1.00949054e-04
1.37000000e+00	2.94065441e-03	1.02995083e-04
1.37500000e+00	2.92996392e-03	1.01005285e-04
1.38000000e+00	2.93065307e-03	1.01224783e-04
1.38500000e+00	2.92680439e-03	1.01686077e-04
1.39000000e+00	2.92649634e-03	1.02309637e-04
1.39500000e+00	2.93178171e-03	1.01059564e-04
1.40000000e+00	2.95145763e-03	1.04874185e-04
1.40500000e+00	2.91037990e-03	1.11223502e-04
1.41000000e+00	2.90235942e-03	1.16177427e-04
1.41500000e+00	2.87639162e-03	1.19316666e-04
1.42000000e+00	2.87204849e-03	1.23941785e-04
1.42500000e+00	2.86373811e-03	1.27222251e-04
1.43000000e+00	2.83359897e-03	1.30563569e-04
1.43500000e+00	2.85210416e-03	1.35586962e-04
1.44000000e+00	2.81183218e-03	1.38668523e-04
1.44500000e+00	2.78792422e-03	1.41234688e-04
1.45000000e+00	2.89231663e-03	1.41680394e-04
1.45500000e+00	2.88959264e-03	1.27127166e-04
1.46000000e+00	2.89445079e-03	1.24388926e-04
1.46500000e+00	2.89443132e-03	1.21997510e-04
1.47000000e+00	2.85554309e-03	1.20241453e-04
1.47500000e+00	2.91179879e-03	1.18925827e-04
1.48000000e+00	2.90247646e-03	1.17244710e-04
1.48500000e+00	2.89623823e-03	1.17193303e-04
1.49000000e+00	2.86116721e-03	1.16019901e-04
1.49500000e+00	2.88656345e-03	1.14465638e-04
1.50000000e+00	2.88151345e-03	1.13930046e-04
1.50500000e+00	2.87556725e-03	1.14299753e-04
1.51000000e+00	2.90091450e-03	1.15519815e-04
1.51500000e+00	2.88659496e-03	1.13131447e-04
1.52000000e+00	2.91177659e-03	1.13684986e-04
1.52500000e+00	2.90130890e-03	1.13144200e-04
1.53000000e+00	2.88530655e-03	1.13238422e-04
1.53500000e+00	2.89611609e-03	1.10282456e-04
1.54000000e+00	2.88281728e-03	1.09631958e-04
1.54500000e+00	2.87113794e-03	1.09020725e-04
1.55000000e+00	2.85577692e-03	1.08169684e-04
1.55500000e+00	2.83527495e-03	1.04952684e-04
1.56000000e+00	2.82052387e-03	1.04570944e-04
1.56500000e+00	2.81176145e-03	1.03812776e-04
1.57000000e+00	2.82484222e-03	1.03542129e-04
1.57500000e+00	2.78882956e-03	1.00335553e-04
1.58000000e+00	2.81669330e-03	1.01158571e-04
1.58500000e+00	2.81409304e-03	1.00954378e-04
1.59000000e+00	2.76570917e-03	9.93855529e-05
1.59500000e+00	2.75162498e-03	9.69824763e-05
1.60000000e+00	2.79140588e-03	9.82893089e-05
1.60500000e+00	2.75652807e-03	9.71941510e-05
1.61000000e+00	2.75549607e-03	9.67869133e-05
1.61500000e+00	2.74640566e-03	9.55733023e-05
1.62000000e+00	2.72779420e-03	9.52432075e-05
1.62500000e+00	2.74003615e-03	9.68202522e-05
1.63000000e+00	2.73345359e-03	9.55656438e-05
1.63500000e+00	2.72583037e-03	9.52943423e-05
1.64000000e+00	2.73350019e-03	9.56468910e-05
1.64500000e+00	2.73746353e-03	9.68079966e-05
1.65000000e+00	2.70214716e-03	9.44584489e-05
1.65500000e+00	2.69601326e-03	9.40460236e-05
1.66000000e+00	2.69909193e-03	9.43682366e-05
1.66500000e+00	2.70088749e-03	9.60290781e-05
1.67000000e+00	2.67583861e-03	9.31959819e-05
1.67500000e+00	2.68772824e-03	9.38007489e-05
1.68000000e+00	2.67019698e-03	9.34799747e-05
1.68500000e+00	2.65053210e-03	9.43246671e-05
1.69000000e+00	2.64997069e-03	9.25005581e-05
1.69500000e+00	2.63292518e-03	9.17415204e-05
1.70000000e+00	2.64038643e-03	9.31227796e-05
1.70500000e+00	2.63852249e-03	9.33620364e-05
1.71000000e+00	2.61800818e-03	9.14690161e-05
1.71500000e+00	2.62944494e-03	9.18820419e-05
1.72000000e+00	2.62250314e-03	9.23691399e-05
1.72500000e+00	2.62309162e-03	9.29228244e-05
1.73000000e+00	2.61561875e-03	9.14144990e-05
1.73500000e+00	2.61082926e-03	9.14721992e-05
1.74000000e+00	2.60659739e-03	9.15804084e-05
1.74500000e+00	2.60111715e-03	9.24844924e-05
1.75000000e+00	2.56435288e-03	8.94450797e-05
1.75500000e+00	2.60376063e-03	9.13509795e-05
1.76000000e+00	2.59115740e-03	9.08758272e-05
1.76500000e+00	2.56287279e-03	9.11200711e-05
1.77000000e+00	2.56881883e-03	8.96953984e-05
1.77500000e+00	2.55465211e-03	8.94954655e-05
1.78000000e+00	2.53040782e-03	8.89786345e-05
1.78500000e+00	2.53050086e-03	8.98817616e-05
1.79000000e+00	2.53941482e-03	8.86455678e-05
1.79500000e+00	2.52943473e-03	8.86052676e-05
1.80000000e+00	2.51813837e-03	8.87081662e-05
1.80500000e+00	2.49529166e-03	8.84808673e-05
1.81000000e+00	2.51994964e-03	8.79888832e-05
1.81500000e+00	2.49995098e-03	8.74070657e-05
1.82000000e+00	2.49978581e-03	8.79999786e-05
1.82500000e+00	2.46838399e-03	8.73923803e-05
1.83000000e+00	2.48429549e-03	8.68820630e-05
1.83500000e+00	2.46668857e-03	8.63799863e-05
1.84000000e+00	2.48751350e-03	8.75634004e-05
1.84500000e+00	2.47013200e-03	8.74217000e-05
1.85000000e+00	2.44484611e-03	8.55673349e-05
1.85500000e+00	2.45036579e-03	8.59241698e-05
1.86000000e+00	2.43045257e-03	8.56681138e-05
1.86500000e+00	2.41706774e-03	8.54525683e-05
1.87000000e+00	2.43501297e-03	8.51276140e-05
1.87500000e+00	2.41123189e-03	8.46116539e-05
1.88000000e+00	2.39992647e-03	8.45785286e-05
1.88500000e+00	2.38904135e-03	8.46989908e-05
1.89000000e+00	2.38273989e-03	8.32792411e-05
1.89500000e+00	2.38130545e-03	8.36979809e-05
1.90000000e+00	2.36935777e-03	8.35104544e-05
1.90500000e+00	2.36893204e-03	8.35736736e-05
1.91000000e+00	2.34007563e-03	8.19752252e-05
1.91500000e+00	2.34591689e-03	8.23239354e-05
1.92000000e+00	2.35266644e-03	8.28871513e-05
1.92500000e+00	2.35746787e-03	8.31794483e-05
1.93000000e+00	2.34580657e-03	8.20330583e-05
1.93500000e+00	2.33602783e-03	8.19320434e-05
1.94000000e+00	2.30654319e-03	8.15932248e-05
1.94500000e+00	2.29866767e-03	8.11119761e-05
1.95000000e+00	2.31650439e-03	8.09719814e-05
1.95500000e+00	2.30388601e-03	8.08141205e-05
1.96000000e+00	2.30582295e-03	8.13975244e-05
1.96500000e+00	2.26831384e-03	8.01674105e-05
1.97000000e+00	2.27497572e-03	7.93509373e-05
1.97500000e+00	2.27411456e-03	7.98752555e-05
1.98000000e+00	2.26063070e-03	7.97996258e-05
1.98500000e+00	2.23871861e-03	7.91501132e-05
1.99000000e+00	2.23071113e-03	7.78046511e-05
1.99500000e+00	2.23413042e-03	7.83593004e-05
2.00000000e+00	2.25534924e-03	7.96556665e-05
2.00500000e+00	2.24123034e-03	7.92679758e-05
2.01000000e+00	2.21613746e-03	8.60320044e-05
2.01500000e+00	2.19521900e-03	9.04247176e-05
2.02000000e+00	2.19971538e-03	9.67794218e-05
2.02500000e+00	2.17905481e-03	9.96871813e-05
2.03000000e+00	2.19583574e-03	1.06303449e-04
2.03500000e+00	2.14630525e-03	1.08612707e-04
2.04000000e+00	2.13508510e-03	1.12961094e-04
2.04500000e+00	2.13036581e-03	1.18550479e-04
2.05000000e+00	2.12083281e-03	1.23837183e-04
2.05500000e+00	2.11449670e-03	1.20908918e-04
2.06000000e+00	2.16791188e-03	1.07952014e-04
2.06500000e+00	2.12361543e-03	1.01092682e-04
2.07000000e+00	2.12150054e-03	9.55136731e-05
2.07500000e+00	2.11336755e-03	9.28782856e-05
2.08000000e+00	2.12695871e-03	9.33082529e-05
2.08500000e+00	2.10287233e-03	9.15608010e-05
2.09000000e+00	2.11653263e-03	8.94270545e-05
2.09500000e+00	2.11628885e-03	8.84195437e-05
2.10000000e+00	2.08884457e-03	8.67439784e-05
2.10500000e+00	2.08968490e-03	8.63741713e-05
2.11000000e+00	2.07545123e-03	8.27026084e-05
2.11500000e+00	2.05807364e-03	8.12694048e-05
2.12000000e+00	2.03781512e-03	7.99911881e-05
2.12500000e+00	2.03364488e-03	7.96949269e-05
2.13000000e+00	2.02430302e-03	7.59964993e-05
2.13500000e+00	2.01359546e-03	7.47409345e-05
2.14000000e+00	1.98984467e-03	7.32829697e-05
2.14500000e+00	1.98199900e-03	7.31221731e-05
2.15000000e+00	1.98337469e-03	7.07196266e-05
2.15500000e+00	1.96707267e-03	7.02479411e-05
2.16000000e+00	1.94806752e-03	6.93107785e-05
2.16500000e+00	1.94144859e-03	6.95154035e-05
2.17000000e+00	1.94360468e-03	6.79309846e-05
2.17500000e+00	1.93330374e-03	6.77125049e-05
2.18000000e+00	1.92833250e-03	6.77831977e-05
2.18500000e+00	1.91929313e-03	6.77546419e-05
2.19000000e+00	1.92272989e-03	6.76740523e-05
2.19500000e+00	1.89483937e-03	6.63443622e-05
2.20000000e+00	1.86801402e-03	6.55511300e-05
2.20500000e+00	1.85512723e-03	6.53410946e-05
2.21000000e+00	1.88307216e-03	6.66592532e-05
2.21500000e+00	1.84968366e-03	6.47223360e-05
2.22000000e+00	1.83839882e-03	6.42643573e-05
2.22500000e+00	1.83521981e-03	6.47245418e-05
2.23000000e+00	1.82485316e-03	6.47175275e-05
2.23500000e+00	1.79886312e-03	6.29011428e-05
2.24000000e+00	1.81163463e-03	6.33588141e-05
2.24500000e+00	1.78381997e-03	6.27755118e-05
2.25000000e+00	1.78286458e-03	6.33547821e-05
2.25500000e+00	1.76144033e-03	6.14220875e-05
2.26000000e+00	1.75198188e-03	6.13763640e-05
2.26500000e+00	1.74160432e-03	6.13198984e-05
2.27000000e+00	1.73082191e-03	6.17051682e-05
2.27500000e+00	1.73680020e-03	6.06658204e-05
2.28000000e+00	1.71606321e-03	5.99570381e-05
2.28500000e+00	1.69606251e-03	5.96625845e-05
2.29000000e+00	1.68178552e-03	5.94953532e-05
2.29500000e+00	1.67040436e-03	5.89522129e-05
2.30000000e+00	1.66059370e-03	5.79382778e-05
2.30500000e+00	1.65467979e-03	5.79656865e-05
2.31000000e+00	1.64626866e-03	5.80546997e-05
2.31500000e+00	1.63436309e-03	5.80239393e-05
2.32000000e+00	1.62593139e-03	5.65563051e-05
2.32500000e+00	1.60751928e-03	5.63899913e-05
2.33000000e+00	1.61154568e-03	5.66314238e-05
2.33500000e+00	1.60887954e-03	5.70314529e-05
2.34000000e+00	1.60108808e-03	5.59046989e-05
2.34500000e+00	1.57789274e-03	5.51447114e-05
2.35000000e+00	1.56297780e-03	5.47596121e-05
2.35500000e+00	1.55313260e-03	5.51698311e-05
2.36000000e+00	1.54324470e-03	5.39898718e-05
2.36500000e+00	1.53674882e-03	5.37318895e-05
2.37000000e+00	1.51837774e-03	5.30985619e-05
2.37500000e+00	1.50853037e-03	5.32648044e-05
2.38000000e+00	1.51116934e-03	5.35894587e-05
2.38500000e+00	1.48920451e-03	5.20588723e-05
2.39000000e+00	1.48262625e-03	5.20170160e-05
2.39500000e+00	1.47967318e-03	5.21500723e-05
2.40000000e+00	1.47949926e-03	5.29443405e-05
2.40500000e+00	1.46046142e-03	5.11984871e-05
2.41000000e+00	1.45035393e-03	5.11145589e-05
2.41500000e+00	1.44322967e-03	5.08113079e-05
2.42000000e+00	1.44427227e-03	5.15315640e-05
2.42500000e+00	1.42696392e-03	5.07862309e-05
2.43000000e+00	1.41812172e-03	5.00439553e-05
2.43500000e+00	1.40628316e-03	4.98513651e-05
2.44000000e+00	1.39644239e-03	4.95228358e-05
2.44500000e+00	1.39607376e-03	5.01847272e-05
2.45000000e+00	1.37493448e-03	4.85213958e-05
2.45500000e+00	1.36688665e-03	4.83996136e-05
2.46000000e+00	1.37226728e-03	4.88014189e-05
2.46500000e+00	1.35481646e-03	4.87445189e-05
2.47000000e+00	1.35560662e-03	4.82605137e-05
2.47500000e+00	1.34988864e-03	4.78021901e-05
2.48000000e+00	1.32725843e-03	4.74416260e-05
2.48500000e+00	1.32077146e-03	4.72009664e-05
2.49000000e+00	1.33154671e-03	4.81878646e-05
2.49500000e+00	1.32546060e-03	4.70973825e-05
2.50000000e+00	1.30717500e-03	4.65984480e-05
2.50500000e+00	1.30140633e-03	4.66355697e-05
2.51000000e+00	1.29373368e-03	4.67272637e-05
2.51500000e+00	1.28191685e-03	4.62731287e-05
2.52000000e+00	1.27838596e-03	4.58400050e-05
2.52500000e+00	1.25984712e-03	4.53255245e-05
2.53000000e+00	1.26646597e-03	4.60034442e-05
2.53500000e+00	1.25396611e-03	4.60850879e-05
2.54000000e+00	1.25342382e-03	4.52521047e-05
2.54500000e+00	1.23364979e-03	4.47989905e-05
2.55000000e+00	1.22457509e-03	4.46358983e-05
2.55500000e+00	1.21322775e-03	4.46141132e-05
2.56000000e+00	1.21292543e-03	4.49349390e-05
2.56500000e+00	1.20868731e-03	4.43154668e-05
2.57000000e+00	1.21245480e-03	4.45871419e-05
2.57500000e+00	1.19434198e-03	4.41427317e-05
2.58000000e+00	1.19723364e-03	4.48775629e-05
2.58500000e+00	1.19870968e-03	4.46766153e-05
2.59000000e+00	1.18155504e-03	4.38843977e-05
2.59500000e+00	1.16822989e-03	4.34672216e-05
2.60000000e+00	1.16930030e-03	4.39234942e-05
2.60500000e+00	1.18063484e-03	4.53183975e-05
2.61000000e+00	1.14874031e-03	5.02859480e-05
2.61500000e+00	1.15422909e-03	5.57053301e-05
2.62000000e+00	1.13753170e-03	6.04922693e-05
2.62500000e+00	1.12802415e-03	6.48561297e-05
2.63000000e+00	1.12656458e-03	7.17357021e-05
2.63500000e+00	1.13484091e-03	7.99784776e-05
2.64000000e+00	1.14686626e-03	8.89958842e-05
2.64500000e+00	1.12231959e-03	9.29257936e-05
2.65000000e+00	1.09080797e-03	9.57563579e-05
2.65500000e+00	1.08487687e-03	1.02689589e-04
2.66000000e+00	1.10712749e-03	1.12150958e-04
2.66500000e+00	1.05186610e-03	1.19812899e-04
2.67000000e+00	1.06313047e-03	1.31825399e-04
2.67500000e+00	1.03049927e-03	1.49011675e-04
2.68000000e+00	1.10662842e-03	1.84845828e-04
2.68500000e+00	1.01712147e-03	2.25033571e-04
2.69000000e+00	1.08946430e-03	3.90787419e-04
2.69500000e+00	0.00000000e+00	0.00000000e+00
2.70000000e+00	0.00000000e+00	0.00000000e+00
