% Filename : WNCHoHie_2_00048_00006.h5
% Date & Time : 30-Oct-2025 18:15:01
% X-ray Energy (keV) : 13.30001
% Exposure Time (s) : 0.500
% Photodiode Value : 141560.000
% I0 of Sample : 0
% I0 of Standard : 1
% 
% q(A^-1)   I(q)    I(q)_SE
8.40000000e-01	0.00000000e+00	0.00000000e+00
8.45000000e-01	2.89831783e-03	5.08800781e-04
8.50000000e-01	2.72082139e-03	2.52547870e-04
8.55000000e-01	2.63919554e-03	2.15481042e-04
8.60000000e-01	2.69331359e-03	1.90487002e-04
8.65000000e-01	2.65338905e-03	1.72860164e-04
8.70000000e-01	2.68725584e-03	1.66928895e-04
8.75000000e-01	2.67060877e-03	1.59678740e-04
8.80000000e-01	2.65249476e-03	1.53260523e-04
8.85000000e-01	2.68087051e-03	1.46486811e-04
8.90000000e-01	2.68828941e-03	1.43809386e-04
8.95000000e-01	2.71002237e-03	1.40776825e-04
9.00000000e-01	2.70984285e-03	1.39583932e-04
9.05000000e-01	2.70925562e-03	1.33224337e-04
9.10000000e-01	2.72390207e-03	1.31652095e-04
9.15000000e-01	2.72247190e-03	1.29530627e-04
9.20000000e-01	2.73084439e-03	1.29730569e-04
9.25000000e-01	2.74732702e-03	1.24782781e-04
9.30000000e-01	2.74789559e-03	1.23667555e-04
9.35000000e-01	2.71710679e-03	1.19912703e-04
9.40000000e-01	2.77695219e-03	1.22813676e-04
9.45000000e-01	2.76795027e-03	1.19395796e-04
9.50000000e-01	2.75567020e-03	1.17306508e-04
9.55000000e-01	2.78855632e-03	1.16561408e-04
9.60000000e-01	2.73813545e-03	1.14456600e-04
9.65000000e-01	2.77550185e-03	1.14016505e-04
9.70000000e-01	2.77362877e-03	1.12202906e-04
9.75000000e-01	2.80328347e-03	1.12135862e-04
9.80000000e-01	2.78091945e-03	1.10305033e-04
9.85000000e-01	2.80318010e-03	1.11298739e-04
9.90000000e-01	2.78734202e-03	1.07230524e-04
9.95000000e-01	2.79308957e-03	1.07051010e-04
1.00000000e+00	2.80445015e-03	1.06936193e-04
1.00500000e+00	2.80048677e-03	1.06747153e-04
1.01000000e+00	2.81678856e-03	1.05066184e-04
1.01500000e+00	2.80761176e-03	1.03743971e-04
1.02000000e+00	2.80466493e-03	1.03549837e-04
1.02500000e+00	2.78873895e-03	1.01712089e-04
1.03000000e+00	2.78438082e-03	1.01226098e-04
1.03500000e+00	2.79405732e-03	1.00255832e-04
1.04000000e+00	2.78976919e-03	9.94122060e-05
1.04500000e+00	2.78693289e-03	9.94016649e-05
1.05000000e+00	2.79425439e-03	9.90159904e-05
1.05500000e+00	2.75126832e-03	9.60176251e-05
1.06000000e+00	2.78056476e-03	9.67914945e-05
1.06500000e+00	2.78462288e-03	9.70222172e-05
1.07000000e+00	2.79400152e-03	9.71906037e-05
1.07500000e+00	2.79324369e-03	9.64398241e-05
1.08000000e+00	2.79658941e-03	9.60170877e-05
1.08500000e+00	2.80886313e-03	9.65369911e-05
1.09000000e+00	2.82470153e-03	9.76302380e-05
1.09500000e+00	2.83664775e-03	9.60800409e-05
1.10000000e+00	2.81595482e-03	9.60136324e-05
1.10500000e+00	2.82072750e-03	9.64415243e-05
1.11000000e+00	2.83498576e-03	9.71545433e-05
1.11500000e+00	2.84768878e-03	9.67617520e-05
1.12000000e+00	2.85507627e-03	9.73748165e-05
1.12500000e+00	2.85925565e-03	9.73093463e-05
1.13000000e+00	2.87285688e-03	9.89626596e-05
1.13500000e+00	2.87876809e-03	9.80069593e-05
1.14000000e+00	2.88597273e-03	9.78807079e-05
1.14500000e+00	2.90353249e-03	9.93734162e-05
1.15000000e+00	2.88871823e-03	9.94612259e-05
1.15500000e+00	2.90809135e-03	9.90431613e-05
1.16000000e+00	2.92657877e-03	9.99311162e-05
1.16500000e+00	2.91969526e-03	9.94762680e-05
1.17000000e+00	2.93665339e-03	1.01419509e-04
1.17500000e+00	2.92738463e-03	9.97098962e-05
1.18000000e+00	2.92288341e-03	9.99438454e-05
1.18500000e+00	2.92846151e-03	1.00004346e-04
1.19000000e+00	2.95402743e-03	1.02051900e-04
1.19500000e+00	2.95478157e-03	1.00728809e-04
1.20000000e+00	2.96624203e-03	1.01681443e-04
1.20500000e+00	2.95667992e-03	1.01277712e-04
1.21000000e+00	2.95396474e-03	1.02430998e-04
1.21500000e+00	2.97986812e-03	1.01691763e-04
1.22000000e+00	2.96792456e-03	1.01455652e-04
1.22500000e+00	2.97048484e-03	1.01820752e-04
1.23000000e+00	2.98017737e-03	1.03013773e-04
1.23500000e+00	2.99981819e-03	1.03004675e-04
1.24000000e+00	2.98961127e-03	1.02270532e-04
1.24500000e+00	2.98940772e-03	1.02941924e-04
1.25000000e+00	2.96871244e-03	1.02751779e-04
1.25500000e+00	2.99919537e-03	1.02573939e-04
1.26000000e+00	3.01792949e-03	1.03870644e-04
1.26500000e+00	3.03554307e-03	1.04083340e-04
1.27000000e+00	3.00556996e-03	1.04651927e-04
1.27500000e+00	3.00257652e-03	1.03395280e-04
1.28000000e+00	3.02160811e-03	1.03452898e-04
1.28500000e+00	3.02230962e-03	1.03999198e-04
1.29000000e+00	3.01125470e-03	1.04614414e-04
1.29500000e+00	3.01524668e-03	1.03635660e-04
1.30000000e+00	3.01223177e-03	1.03266505e-04
1.30500000e+00	3.01885022e-03	1.04081238e-04
1.31000000e+00	3.03130319e-03	1.05701012e-04
1.31500000e+00	3.00592762e-03	1.03475608e-04
1.32000000e+00	3.02168958e-03	1.03957902e-04
1.32500000e+00	3.01574490e-03	1.04028176e-04
1.33000000e+00	3.02242466e-03	1.05462170e-04
1.33500000e+00	3.01498552e-03	1.03768018e-04
1.34000000e+00	3.01806407e-03	1.03962086e-04
1.34500000e+00	2.99187698e-03	1.03377748e-04
1.35000000e+00	3.02771712e-03	1.05650964e-04
1.35500000e+00	2.99153050e-03	1.03013349e-04
1.36000000e+00	3.01736271e-03	1.03743689e-04
1.36500000e+00	2.99545140e-03	1.03315467e-04
1.37000000e+00	3.01736758e-03	1.05701603e-04
1.37500000e+00	3.02324609e-03	1.04269238e-04
1.38000000e+00	3.01751163e-03	1.04147082e-04
1.38500000e+00	2.99993524e-03	1.04123464e-04
1.39000000e+00	3.01829491e-03	1.05592161e-04
1.39500000e+00	2.99050771e-03	1.03024641e-04
1.40000000e+00	3.02486799e-03	1.07347773e-04
1.40500000e+00	3.02814129e-03	1.15735669e-04
1.41000000e+00	2.96524758e-03	1.18501358e-04
1.41500000e+00	2.99034906e-03	1.24127554e-04
1.42000000e+00	2.92932640e-03	1.26399682e-04
1.42500000e+00	2.93460358e-03	1.30323321e-04
1.43000000e+00	2.93927296e-03	1.35368229e-04
1.43500000e+00	2.91248478e-03	1.38350728e-04
1.44000000e+00	2.91980502e-03	1.44029650e-04
1.44500000e+00	2.89250723e-03	1.46468525e-04
1.45000000e+00	2.94650315e-03	1.44287979e-04
1.45500000e+00	2.98122104e-03	1.31274052e-04
1.46000000e+00	2.96828122e-03	1.27354392e-04
1.46500000e+00	2.94947279e-03	1.24464031e-04
1.47000000e+00	2.99173748e-03	1.25993390e-04
1.47500000e+00	2.97561459e-03	1.21469000e-04
1.48000000e+00	2.97640381e-03	1.20347551e-04
1.48500000e+00	2.96069209e-03	1.19922101e-04
1.49000000e+00	2.98914583e-03	1.21226987e-04
1.49500000e+00	2.96539119e-03	1.17675725e-04
1.50000000e+00	2.95856955e-03	1.17004178e-04
1.50500000e+00	2.98969723e-03	1.18841502e-04
1.51000000e+00	2.98701914e-03	1.18902467e-04
1.51500000e+00	2.99925050e-03	1.17349772e-04
1.52000000e+00	3.00884867e-03	1.17432031e-04
1.52500000e+00	2.98022300e-03	1.16227530e-04
1.53000000e+00	2.99348010e-03	1.17344762e-04
1.53500000e+00	2.98234519e-03	1.13665651e-04
1.54000000e+00	2.98141287e-03	1.13463854e-04
1.54500000e+00	2.96247899e-03	1.12446966e-04
1.55000000e+00	2.95047780e-03	1.11765829e-04
1.55500000e+00	2.94041102e-03	1.08800270e-04
1.56000000e+00	2.93376518e-03	1.08883828e-04
1.56500000e+00	2.91309351e-03	1.07470094e-04
1.57000000e+00	2.89970517e-03	1.06292139e-04
1.57500000e+00	2.87687376e-03	1.03454935e-04
1.58000000e+00	2.89180775e-03	1.03820588e-04
1.58500000e+00	2.88810522e-03	1.03717577e-04
1.59000000e+00	2.88583599e-03	1.03627651e-04
1.59500000e+00	2.85647875e-03	1.00622086e-04
1.60000000e+00	2.86553226e-03	1.00944544e-04
1.60500000e+00	2.84604517e-03	1.00195497e-04
1.61000000e+00	2.85176225e-03	1.00026707e-04
1.61500000e+00	2.86060793e-03	9.94053992e-05
1.62000000e+00	2.84959883e-03	9.94326218e-05
1.62500000e+00	2.82924516e-03	9.99414220e-05
1.63000000e+00	2.84848329e-03	9.94839983e-05
1.63500000e+00	2.81347284e-03	9.82726451e-05
1.64000000e+00	2.80698896e-03	9.81996311e-05
1.64500000e+00	2.80866799e-03	9.92705166e-05
1.65000000e+00	2.80171421e-03	9.80223054e-05
1.65500000e+00	2.79786918e-03	9.76655681e-05
1.66000000e+00	2.78202568e-03	9.72276080e-05
1.66500000e+00	2.78498594e-03	9.89713921e-05
1.67000000e+00	2.77814528e-03	9.66869187e-05
1.67500000e+00	2.78770770e-03	9.72799593e-05
1.68000000e+00	2.75650899e-03	9.65466094e-05
1.68500000e+00	2.74469228e-03	9.76555763e-05
1.69000000e+00	2.73608449e-03	9.55213972e-05
1.69500000e+00	2.73663977e-03	9.53452114e-05
1.70000000e+00	2.74413811e-03	9.67022066e-05
1.70500000e+00	2.74100718e-03	9.70016478e-05
1.71000000e+00	2.71434479e-03	9.48421413e-05
1.71500000e+00	2.71031788e-03	9.46612686e-05
1.72000000e+00	2.71710628e-03	9.56760477e-05
1.72500000e+00	2.71704745e-03	9.62245367e-05
1.73000000e+00	2.70867839e-03	9.46848103e-05
1.73500000e+00	2.69596541e-03	9.44335362e-05
1.74000000e+00	2.67520787e-03	9.39383427e-05
1.74500000e+00	2.68131259e-03	9.53377593e-05
1.75000000e+00	2.67779657e-03	9.33462329e-05
1.75500000e+00	2.68112519e-03	9.40718956e-05
1.76000000e+00	2.66447006e-03	9.34547507e-05
1.76500000e+00	2.66887211e-03	9.48108045e-05
1.77000000e+00	2.65247387e-03	9.26601637e-05
1.77500000e+00	2.64522714e-03	9.27013882e-05
1.78000000e+00	2.65772842e-03	9.33763003e-05
1.78500000e+00	2.62292756e-03	9.31138262e-05
1.79000000e+00	2.62196391e-03	9.15528501e-05
1.79500000e+00	2.59800067e-03	9.10180171e-05
1.80000000e+00	2.62863834e-03	9.26232272e-05
1.80500000e+00	2.60825695e-03	9.24938434e-05
1.81000000e+00	2.61388104e-03	9.12345754e-05
1.81500000e+00	2.61161865e-03	9.12581590e-05
1.82000000e+00	2.60437201e-03	9.15865180e-05
1.82500000e+00	2.57823452e-03	9.12333238e-05
1.83000000e+00	2.60088164e-03	9.08272885e-05
1.83500000e+00	2.56634888e-03	8.98719299e-05
1.84000000e+00	2.58375403e-03	9.09756498e-05
1.84500000e+00	2.56947601e-03	9.09718048e-05
1.85000000e+00	2.56560138e-03	8.97613797e-05
1.85500000e+00	2.54925522e-03	8.92678659e-05
1.86000000e+00	2.53861956e-03	8.94604727e-05
1.86500000e+00	2.56530728e-03	9.06458243e-05
1.87000000e+00	2.52817297e-03	8.83656971e-05
1.87500000e+00	2.51775110e-03	8.82459566e-05
1.88000000e+00	2.51882379e-03	8.87187531e-05
1.88500000e+00	2.52522521e-03	8.95635696e-05
1.89000000e+00	2.49470656e-03	8.71927464e-05
1.89500000e+00	2.48800435e-03	8.73890003e-05
1.90000000e+00	2.47572816e-03	8.72586370e-05
1.90500000e+00	2.45826746e-03	8.66971007e-05
1.91000000e+00	2.48327833e-03	8.69259170e-05
1.91500000e+00	2.46815602e-03	8.64732407e-05
1.92000000e+00	2.44640974e-03	8.62186322e-05
1.92500000e+00	2.43743608e-03	8.60942888e-05
1.93000000e+00	2.43872870e-03	8.52921465e-05
1.93500000e+00	2.43685561e-03	8.54659994e-05
1.94000000e+00	2.40800231e-03	8.51864057e-05
1.94500000e+00	2.40055191e-03	8.46976419e-05
1.95000000e+00	2.42295438e-03	8.46474931e-05
1.95500000e+00	2.40466737e-03	8.43891666e-05
1.96000000e+00	2.35952583e-03	8.33375630e-05
1.96500000e+00	2.37113298e-03	8.36931318e-05
1.97000000e+00	2.37187923e-03	8.27813672e-05
1.97500000e+00	2.36880224e-03	8.31587530e-05
1.98000000e+00	2.33672722e-03	8.24464350e-05
1.98500000e+00	2.33111737e-03	8.23389201e-05
1.99000000e+00	2.34236587e-03	8.17250661e-05
1.99500000e+00	2.32514664e-03	8.14784418e-05
2.00000000e+00	2.32078325e-03	8.18699259e-05
2.00500000e+00	2.33750728e-03	8.27164088e-05
2.01000000e+00	2.30897753e-03	8.96217455e-05
2.01500000e+00	2.29687411e-03	9.46269036e-05
2.02000000e+00	2.29209474e-03	1.00835873e-04
2.02500000e+00	2.26403255e-03	1.03370078e-04
2.03000000e+00	2.26693886e-03	1.09823891e-04
2.03500000e+00	2.24377169e-03	1.13330068e-04
2.04000000e+00	2.22651141e-03	1.17648410e-04
2.04500000e+00	2.20625380e-03	1.22432481e-04
2.05000000e+00	2.17762100e-03	1.27311593e-04
2.05500000e+00	2.23226863e-03	1.27757538e-04
2.06000000e+00	2.20481553e-03	1.09945064e-04
2.06500000e+00	2.19075522e-03	1.04174832e-04
2.07000000e+00	2.19086246e-03	9.85084802e-05
2.07500000e+00	2.19117502e-03	9.64204535e-05
2.08000000e+00	2.19114889e-03	9.62102596e-05
2.08500000e+00	2.17809257e-03	9.47327545e-05
2.09000000e+00	2.19221231e-03	9.25147536e-05
2.09500000e+00	2.18983542e-03	9.15039343e-05
2.10000000e+00	2.20164385e-03	9.12697125e-05
2.10500000e+00	2.17459285e-03	9.00115579e-05
2.11000000e+00	2.17599693e-03	8.67395834e-05
2.11500000e+00	2.14986522e-03	8.48135167e-05
2.12000000e+00	2.12778338e-03	8.35726065e-05
2.12500000e+00	2.10582633e-03	8.24373048e-05
2.13000000e+00	2.11097604e-03	7.92153362e-05
2.13500000e+00	2.08810173e-03	7.74533036e-05
2.14000000e+00	2.07236254e-03	7.62537316e-05
2.14500000e+00	2.05311475e-03	7.57287703e-05
2.15000000e+00	2.06291935e-03	7.35242954e-05
2.15500000e+00	2.05339829e-03	7.33362417e-05
2.16000000e+00	2.03226502e-03	7.22366016e-05
2.16500000e+00	2.01989959e-03	7.23474140e-05
2.17000000e+00	2.02860339e-03	7.08725332e-05
2.17500000e+00	1.99951882e-03	6.99642998e-05
2.18000000e+00	1.97718552e-03	6.94499416e-05
2.18500000e+00	1.97534573e-03	6.97338783e-05
2.19000000e+00	1.97587627e-03	6.95998080e-05
2.19500000e+00	1.96913490e-03	6.89168238e-05
2.20000000e+00	1.96443190e-03	6.89378005e-05
2.20500000e+00	1.94546547e-03	6.85206278e-05
2.21000000e+00	1.94667074e-03	6.88744784e-05
2.21500000e+00	1.93094475e-03	6.75845330e-05
2.22000000e+00	1.89992175e-03	6.63970509e-05
2.22500000e+00	1.88882874e-03	6.66358176e-05
2.23000000e+00	1.89018376e-03	6.70749292e-05
2.23500000e+00	1.88194180e-03	6.57933456e-05
2.24000000e+00	1.86588143e-03	6.52701276e-05
2.24500000e+00	1.85451163e-03	6.52524117e-05
2.25000000e+00	1.84540959e-03	6.55662070e-05
2.25500000e+00	1.82787372e-03	6.37754503e-05
2.26000000e+00	1.81113175e-03	6.34081768e-05
2.26500000e+00	1.80563652e-03	6.34978411e-05
2.27000000e+00	1.78859566e-03	6.37978617e-05
2.27500000e+00	1.79159786e-03	6.25346011e-05
2.28000000e+00	1.77259154e-03	6.19291510e-05
2.28500000e+00	1.76731141e-03	6.21798911e-05
2.29000000e+00	1.73582426e-03	6.14532063e-05
2.29500000e+00	1.73909983e-03	6.13779780e-05
2.30000000e+00	1.71388716e-03	5.98842564e-05
2.30500000e+00	1.71628160e-03	6.01185357e-05
2.31000000e+00	1.69920832e-03	5.98373190e-05
2.31500000e+00	1.68885041e-03	5.99930783e-05
2.32000000e+00	1.69084322e-03	5.88024219e-05
2.32500000e+00	1.68024025e-03	5.88903696e-05
2.33000000e+00	1.65192352e-03	5.80948951e-05
2.33500000e+00	1.65580063e-03	5.87991643e-05
2.34000000e+00	1.64611349e-03	5.74962564e-05
2.34500000e+00	1.62658142e-03	5.68189273e-05
2.35000000e+00	1.62780913e-03	5.71006127e-05
2.35500000e+00	1.60931184e-03	5.71206639e-05
2.36000000e+00	1.58856793e-03	5.56163895e-05
2.36500000e+00	1.60601037e-03	5.62404649e-05
2.37000000e+00	1.59359956e-03	5.58044346e-05
2.37500000e+00	1.57743438e-03	5.56408698e-05
2.38000000e+00	1.57421897e-03	5.58853846e-05
2.38500000e+00	1.55688653e-03	5.44661692e-05
2.39000000e+00	1.54115397e-03	5.40828144e-05
2.39500000e+00	1.55670207e-03	5.49052069e-05
2.40000000e+00	1.52900319e-03	5.46863974e-05
2.40500000e+00	1.50534973e-03	5.27664358e-05
2.41000000e+00	1.51301258e-03	5.32544014e-05
2.41500000e+00	1.51164239e-03	5.31703323e-05
2.42000000e+00	1.49589542e-03	5.33959024e-05
2.42500000e+00	1.49190855e-03	5.31382020e-05
2.43000000e+00	1.46264246e-03	5.16012957e-05
2.43500000e+00	1.45690165e-03	5.16327691e-05
2.44000000e+00	1.46132055e-03	5.18819265e-05
2.44500000e+00	1.44055977e-03	5.17406796e-05
2.45000000e+00	1.44146545e-03	5.08413500e-05
2.45500000e+00	1.42461294e-03	5.04012730e-05
2.46000000e+00	1.44514364e-03	5.13778311e-05
2.46500000e+00	1.40642904e-03	5.06205966e-05
2.47000000e+00	1.41273156e-03	5.03200714e-05
2.47500000e+00	1.39156911e-03	4.92812200e-05
2.48000000e+00	1.36976961e-03	4.89597553e-05
2.48500000e+00	1.38028788e-03	4.93285521e-05
2.49000000e+00	1.36312669e-03	4.93595575e-05
2.49500000e+00	1.35367784e-03	4.80313953e-05
2.50000000e+00	1.35312206e-03	4.81963263e-05
2.50500000e+00	1.34001101e-03	4.79502155e-05
2.51000000e+00	1.32182409e-03	4.77372142e-05
2.51500000e+00	1.33830852e-03	4.83894863e-05
2.52000000e+00	1.31770216e-03	4.72638473e-05
2.52500000e+00	1.32048757e-03	4.74962405e-05
2.53000000e+00	1.29900322e-03	4.72100382e-05
2.53500000e+00	1.29062643e-03	4.74652657e-05
2.54000000e+00	1.28497902e-03	4.64800008e-05
2.54500000e+00	1.28003819e-03	4.65198600e-05
2.55000000e+00	1.27033270e-03	4.63598909e-05
2.55500000e+00	1.24377891e-03	4.57656206e-05
2.56000000e+00	1.23974900e-03	4.59357782e-05
2.56500000e+00	1.24337014e-03	4.55333044e-05
2.57000000e+00	1.23184665e-03	4.53524645e-05
2.57500000e+00	1.23026566e-03	4.53712538e-05
2.58000000e+00	1.19939189e-03	4.50220947e-05
2.58500000e+00	1.20748791e-03	4.49209161e-05
2.59000000e+00	1.18678702e-03	4.39364832e-05
2.59500000e+00	1.17917777e-03	4.39620395e-05
2.60000000e+00	1.18268260e-03	4.43802161e-05
2.60500000e+00	1.18147581e-03	4.51963981e-05
2.61000000e+00	1.15338391e-03	5.04360515e-05
2.61500000e+00	1.12667503e-03	5.45978461e-05
2.62000000e+00	1.12474914e-03	5.98685623e-05
2.62500000e+00	1.14448524e-03	6.56813636e-05
2.63000000e+00	1.10945703e-03	7.07073261e-05
2.63500000e+00	1.13635114e-03	8.02669719e-05
2.64000000e+00	1.12389883e-03	8.72955779e-05
2.64500000e+00	1.14230409e-03	9.48959750e-05
2.65000000e+00	1.08184369e-03	9.48732158e-05
2.65500000e+00	1.09299428e-03	1.03431401e-04
2.66000000e+00	1.09105587e-03	1.10199009e-04
2.66500000e+00	1.10838231e-03	1.26353913e-04
2.67000000e+00	1.09435626e-03	1.35909503e-04
2.67500000e+00	1.08803481e-03	1.56667305e-04
2.68000000e+00	1.08815032e-03	1.82502672e-04
2.68500000e+00	1.11189200e-03	2.47039829e-04
2.69000000e+00	1.24593075e-03	4.44360679e-04
2.69500000e+00	0.00000000e+00	0.00000000e+00
2.70000000e+00	0.00000000e+00	0.00000000e+00
