% Filename : WNCHoHie_00047_00002.h5
% Date & Time : 30-Oct-2025 18:10:57
% X-ray Energy (keV) : 13.30001
% Exposure Time (s) : 0.500
% Photodiode Value : 141192.000
% I0 of Sample : 0
% I0 of Standard : 1
% 
% q(A^-1)   I(q)    I(q)_SE
8.40000000e-01	0.00000000e+00	0.00000000e+00
8.45000000e-01	2.92398806e-03	5.13840579e-04
8.50000000e-01	2.70053952e-03	2.50908901e-04
8.55000000e-01	2.65104681e-03	2.16657228e-04
8.60000000e-01	2.64695125e-03	1.87201854e-04
8.65000000e-01	2.66579734e-03	1.73830033e-04
8.70000000e-01	2.63202788e-03	1.63446613e-04
8.75000000e-01	2.64559963e-03	1.58241061e-04
8.80000000e-01	2.67086553e-03	1.54363608e-04
8.85000000e-01	2.63727279e-03	1.44158618e-04
8.90000000e-01	2.67453944e-03	1.43055412e-04
8.95000000e-01	2.68551240e-03	1.39568063e-04
9.00000000e-01	2.68421559e-03	1.38272613e-04
9.05000000e-01	2.66171262e-03	1.30940601e-04
9.10000000e-01	2.68878971e-03	1.29908468e-04
9.15000000e-01	2.70796982e-03	1.28806588e-04
9.20000000e-01	2.72800728e-03	1.29574336e-04
9.25000000e-01	2.72716399e-03	1.23923673e-04
9.30000000e-01	2.73532748e-03	1.23069500e-04
9.35000000e-01	2.73191330e-03	1.20452483e-04
9.40000000e-01	2.72277239e-03	1.20554290e-04
9.45000000e-01	2.73224073e-03	1.17870300e-04
9.50000000e-01	2.77710033e-03	1.18147104e-04
9.55000000e-01	2.75658063e-03	1.15181363e-04
9.60000000e-01	2.75730164e-03	1.15280406e-04
9.65000000e-01	2.74930907e-03	1.13002914e-04
9.70000000e-01	2.77946086e-03	1.12439927e-04
9.75000000e-01	2.76926946e-03	1.10872909e-04
9.80000000e-01	2.79993255e-03	1.11081597e-04
9.85000000e-01	2.78165067e-03	1.10479188e-04
9.90000000e-01	2.79707983e-03	1.07563564e-04
9.95000000e-01	2.80443288e-03	1.07448228e-04
1.00000000e+00	2.80105098e-03	1.06767131e-04
1.00500000e+00	2.78791703e-03	1.06291717e-04
1.01000000e+00	2.81022954e-03	1.04907115e-04
1.01500000e+00	2.79561575e-03	1.03356040e-04
1.02000000e+00	2.80637573e-03	1.03722446e-04
1.02500000e+00	2.78095117e-03	1.01508899e-04
1.03000000e+00	2.76880415e-03	1.00761354e-04
1.03500000e+00	2.80156081e-03	1.00511264e-04
1.04000000e+00	2.77654538e-03	9.90300168e-05
1.04500000e+00	2.77486390e-03	9.91002125e-05
1.05000000e+00	2.76968903e-03	9.81046753e-05
1.05500000e+00	2.74113761e-03	9.56535055e-05
1.06000000e+00	2.76474723e-03	9.62472254e-05
1.06500000e+00	2.77733405e-03	9.69273680e-05
1.07000000e+00	2.77274452e-03	9.66299193e-05
1.07500000e+00	2.78860296e-03	9.62882729e-05
1.08000000e+00	2.78302449e-03	9.54822766e-05
1.08500000e+00	2.79103892e-03	9.58541803e-05
1.09000000e+00	2.78195888e-03	9.60747832e-05
1.09500000e+00	2.79817684e-03	9.47226041e-05
1.10000000e+00	2.83140742e-03	9.65182883e-05
1.10500000e+00	2.83886514e-03	9.70495324e-05
1.11000000e+00	2.81528134e-03	9.64180309e-05
1.11500000e+00	2.83382349e-03	9.63247214e-05
1.12000000e+00	2.83918561e-03	9.68470414e-05
1.12500000e+00	2.85183724e-03	9.71369890e-05
1.13000000e+00	2.84982360e-03	9.80531223e-05
1.13500000e+00	2.87718129e-03	9.78363326e-05
1.14000000e+00	2.88480305e-03	9.79981858e-05
1.14500000e+00	2.87971069e-03	9.85127018e-05
1.15000000e+00	2.87903817e-03	9.90331456e-05
1.15500000e+00	2.90893248e-03	9.90472556e-05
1.16000000e+00	2.89818315e-03	9.90192363e-05
1.16500000e+00	2.91706651e-03	9.96706359e-05
1.17000000e+00	2.90027771e-03	1.00155306e-04
1.17500000e+00	2.93737558e-03	1.00076102e-04
1.18000000e+00	2.91898956e-03	9.96869479e-05
1.18500000e+00	2.91159697e-03	9.94349215e-05
1.19000000e+00	2.96500811e-03	1.02383974e-04
1.19500000e+00	2.94411408e-03	1.00423257e-04
1.20000000e+00	2.93320300e-03	1.00637297e-04
1.20500000e+00	2.95879150e-03	1.01323363e-04
1.21000000e+00	2.95726902e-03	1.02530512e-04
1.21500000e+00	2.95689368e-03	1.00894243e-04
1.22000000e+00	2.95913476e-03	1.01139115e-04
1.22500000e+00	2.94702926e-03	1.00997628e-04
1.23000000e+00	2.97242173e-03	1.02662814e-04
1.23500000e+00	2.97704717e-03	1.02138870e-04
1.24000000e+00	2.98261814e-03	1.01942102e-04
1.24500000e+00	2.98552217e-03	1.02778150e-04
1.25000000e+00	2.96195932e-03	1.02577431e-04
1.25500000e+00	2.99056858e-03	1.02296481e-04
1.26000000e+00	2.99871566e-03	1.03187545e-04
1.26500000e+00	2.98102591e-03	1.02257906e-04
1.27000000e+00	2.99734571e-03	1.04318712e-04
1.27500000e+00	2.99242905e-03	1.03020870e-04
1.28000000e+00	2.98096542e-03	1.01999842e-04
1.28500000e+00	3.00195670e-03	1.03289459e-04
1.29000000e+00	2.98772818e-03	1.03701462e-04
1.29500000e+00	2.99911532e-03	1.03072433e-04
1.30000000e+00	3.01001811e-03	1.03177732e-04
1.30500000e+00	2.99074142e-03	1.03115048e-04
1.31000000e+00	2.99130049e-03	1.04367423e-04
1.31500000e+00	2.99923820e-03	1.03214256e-04
1.32000000e+00	3.00712029e-03	1.03382829e-04
1.32500000e+00	2.99556576e-03	1.03359112e-04
1.33000000e+00	2.99871126e-03	1.04634389e-04
1.33500000e+00	2.99967530e-03	1.03306218e-04
1.34000000e+00	2.99531573e-03	1.03210838e-04
1.34500000e+00	3.00463111e-03	1.03868337e-04
1.35000000e+00	3.00258725e-03	1.04829702e-04
1.35500000e+00	2.98196128e-03	1.02730061e-04
1.36000000e+00	3.00522706e-03	1.03336870e-04
1.36500000e+00	2.99166774e-03	1.03249431e-04
1.37000000e+00	3.00361194e-03	1.05158556e-04
1.37500000e+00	2.99543016e-03	1.03354436e-04
1.38000000e+00	2.98614662e-03	1.03177037e-04
1.38500000e+00	3.00539376e-03	1.04469120e-04
1.39000000e+00	2.99888312e-03	1.04835892e-04
1.39500000e+00	3.00845842e-03	1.03730240e-04
1.40000000e+00	3.02564947e-03	1.07388471e-04
1.40500000e+00	2.98832302e-03	1.14154186e-04
1.41000000e+00	2.98040892e-03	1.19193183e-04
1.41500000e+00	2.94384331e-03	1.22090652e-04
1.42000000e+00	2.95961467e-03	1.27570310e-04
1.42500000e+00	2.89231860e-03	1.28406610e-04
1.43000000e+00	2.93969114e-03	1.35649439e-04
1.43500000e+00	2.89811192e-03	1.37760433e-04
1.44000000e+00	2.88436381e-03	1.42355071e-04
1.44500000e+00	2.88193722e-03	1.45858775e-04
1.45000000e+00	2.94852723e-03	1.44289951e-04
1.45500000e+00	2.97439570e-03	1.30672187e-04
1.46000000e+00	2.95446781e-03	1.27029558e-04
1.46500000e+00	2.94954946e-03	1.24490546e-04
1.47000000e+00	2.94604356e-03	1.24136762e-04
1.47500000e+00	2.94959819e-03	1.20562792e-04
1.48000000e+00	2.95238319e-03	1.19327266e-04
1.48500000e+00	2.95261001e-03	1.19456142e-04
1.49000000e+00	2.96641550e-03	1.20370965e-04
1.49500000e+00	2.94985493e-03	1.17101063e-04
1.50000000e+00	2.97492178e-03	1.17561978e-04
1.50500000e+00	2.97005330e-03	1.18104600e-04
1.51000000e+00	2.99031648e-03	1.19019411e-04
1.51500000e+00	2.96595135e-03	1.16080995e-04
1.52000000e+00	2.98857196e-03	1.16630775e-04
1.52500000e+00	2.97246605e-03	1.15847191e-04
1.53000000e+00	2.96883298e-03	1.16490249e-04
1.53500000e+00	2.95300028e-03	1.12502321e-04
1.54000000e+00	2.95993525e-03	1.12578939e-04
1.54500000e+00	2.94587787e-03	1.11856502e-04
1.55000000e+00	2.94480878e-03	1.11464024e-04
1.55500000e+00	2.91516117e-03	1.07831130e-04
1.56000000e+00	2.92244974e-03	1.08378847e-04
1.56500000e+00	2.91951517e-03	1.07771515e-04
1.57000000e+00	2.86394407e-03	1.04990866e-04
1.57500000e+00	2.86886997e-03	1.03217219e-04
1.58000000e+00	2.88449461e-03	1.03619292e-04
1.58500000e+00	2.86022392e-03	1.02631616e-04
1.59000000e+00	2.86556411e-03	1.02998321e-04
1.59500000e+00	2.84685476e-03	1.00358862e-04
1.60000000e+00	2.85891381e-03	1.00655795e-04
1.60500000e+00	2.85718327e-03	1.00707295e-04
1.61000000e+00	2.83817063e-03	9.95600293e-05
1.61500000e+00	2.83464633e-03	9.86345783e-05
1.62000000e+00	2.80865114e-03	9.80889334e-05
1.62500000e+00	2.81030774e-03	9.93155707e-05
1.63000000e+00	2.81315036e-03	9.82583030e-05
1.63500000e+00	2.81960577e-03	9.85377307e-05
1.64000000e+00	2.79829493e-03	9.78657540e-05
1.64500000e+00	2.77232816e-03	9.80705325e-05
1.65000000e+00	2.78494370e-03	9.74169838e-05
1.65500000e+00	2.77434049e-03	9.68998549e-05
1.66000000e+00	2.76668644e-03	9.67196643e-05
1.66500000e+00	2.76072954e-03	9.81185122e-05
1.67000000e+00	2.75160812e-03	9.58200188e-05
1.67500000e+00	2.76681135e-03	9.65520122e-05
1.68000000e+00	2.74240317e-03	9.59854300e-05
1.68500000e+00	2.71204843e-03	9.65148129e-05
1.69000000e+00	2.72750940e-03	9.52409290e-05
1.69500000e+00	2.70666333e-03	9.43253659e-05
1.70000000e+00	2.72746412e-03	9.61461575e-05
1.70500000e+00	2.72115347e-03	9.63257371e-05
1.71000000e+00	2.70970113e-03	9.46439393e-05
1.71500000e+00	2.71409021e-03	9.48000566e-05
1.72000000e+00	2.70018672e-03	9.50394105e-05
1.72500000e+00	2.69909919e-03	9.55323480e-05
1.73000000e+00	2.69707893e-03	9.41505818e-05
1.73500000e+00	2.66878289e-03	9.34743810e-05
1.74000000e+00	2.68935691e-03	9.44958311e-05
1.74500000e+00	2.67942460e-03	9.52810847e-05
1.75000000e+00	2.66355543e-03	9.28373804e-05
1.75500000e+00	2.67621820e-03	9.39885810e-05
1.76000000e+00	2.64212893e-03	9.26156479e-05
1.76500000e+00	2.64889016e-03	9.41675350e-05
1.77000000e+00	2.64003823e-03	9.21841257e-05
1.77500000e+00	2.64965399e-03	9.27414204e-05
1.78000000e+00	2.64797364e-03	9.30496651e-05
1.78500000e+00	2.63418788e-03	9.35034391e-05
1.79000000e+00	2.61937372e-03	9.14217490e-05
1.79500000e+00	2.60879154e-03	9.13878333e-05
1.80000000e+00	2.61345238e-03	9.20612803e-05
1.80500000e+00	2.62013366e-03	9.28862799e-05
1.81000000e+00	2.58032966e-03	9.01392324e-05
1.81500000e+00	2.60355333e-03	9.10561407e-05
1.82000000e+00	2.57036863e-03	9.04838982e-05
1.82500000e+00	2.56252173e-03	9.07467372e-05
1.83000000e+00	2.57674736e-03	9.01031600e-05
1.83500000e+00	2.55447872e-03	8.95199018e-05
1.84000000e+00	2.55571183e-03	9.00521283e-05
1.84500000e+00	2.52685076e-03	8.94983596e-05
1.85000000e+00	2.54063031e-03	8.89910888e-05
1.85500000e+00	2.54365454e-03	8.90859269e-05
1.86000000e+00	2.51803368e-03	8.88351541e-05
1.86500000e+00	2.52177599e-03	8.91003795e-05
1.87000000e+00	2.50968095e-03	8.77772596e-05
1.87500000e+00	2.49759817e-03	8.75979979e-05
1.88000000e+00	2.49829448e-03	8.79577276e-05
1.88500000e+00	2.48550342e-03	8.81121916e-05
1.89000000e+00	2.47905429e-03	8.66663152e-05
1.89500000e+00	2.47185305e-03	8.68788898e-05
1.90000000e+00	2.45017641e-03	8.63567076e-05
1.90500000e+00	2.43304394e-03	8.58134954e-05
1.91000000e+00	2.44776587e-03	8.57945104e-05
1.91500000e+00	2.43657729e-03	8.54699820e-05
1.92000000e+00	2.43910175e-03	8.60021446e-05
1.92500000e+00	2.43350832e-03	8.58635822e-05
1.93000000e+00	2.41724034e-03	8.45961151e-05
1.93500000e+00	2.41784689e-03	8.48236230e-05
1.94000000e+00	2.40560691e-03	8.50664423e-05
1.94500000e+00	2.40256838e-03	8.46996412e-05
1.95000000e+00	2.38813048e-03	8.34184200e-05
1.95500000e+00	2.37695352e-03	8.33338426e-05
1.96000000e+00	2.35225272e-03	8.30826645e-05
1.96500000e+00	2.36844162e-03	8.36761919e-05
1.97000000e+00	2.35832712e-03	8.22582472e-05
1.97500000e+00	2.34244167e-03	8.23216511e-05
1.98000000e+00	2.32470963e-03	8.20486008e-05
1.98500000e+00	2.32875917e-03	8.23317830e-05
1.99000000e+00	2.34228049e-03	8.18021194e-05
1.99500000e+00	2.31551672e-03	8.12339823e-05
2.00000000e+00	2.30089402e-03	8.12286406e-05
2.00500000e+00	2.32576465e-03	8.22700687e-05
2.01000000e+00	2.31769181e-03	8.99893318e-05
2.01500000e+00	2.30684748e-03	9.51288917e-05
2.02000000e+00	2.27677914e-03	1.00121509e-04
2.02500000e+00	2.25942964e-03	1.03186231e-04
2.03000000e+00	2.22784030e-03	1.07770500e-04
2.03500000e+00	2.21951488e-03	1.12141540e-04
2.04000000e+00	2.17582227e-03	1.15049105e-04
2.04500000e+00	2.16522646e-03	1.20336997e-04
2.05000000e+00	2.17622529e-03	1.27149559e-04
2.05500000e+00	2.20374307e-03	1.26204780e-04
2.06000000e+00	2.22094949e-03	1.10489949e-04
2.06500000e+00	2.19593220e-03	1.04387144e-04
2.07000000e+00	2.19271224e-03	9.86881573e-05
2.07500000e+00	2.18907755e-03	9.63083229e-05
2.08000000e+00	2.21161131e-03	9.70633023e-05
2.08500000e+00	2.18039153e-03	9.49535108e-05
2.09000000e+00	2.19234932e-03	9.26137591e-05
2.09500000e+00	2.18310148e-03	9.11585477e-05
2.10000000e+00	2.17284460e-03	9.01549358e-05
2.10500000e+00	2.15663128e-03	8.91954585e-05
2.11000000e+00	2.14844350e-03	8.56544840e-05
2.11500000e+00	2.14090383e-03	8.45032472e-05
2.12000000e+00	2.12643703e-03	8.34141269e-05
2.12500000e+00	2.10172771e-03	8.23183330e-05
2.13000000e+00	2.08109444e-03	7.81384316e-05
2.13500000e+00	2.06632008e-03	7.66326643e-05
2.14000000e+00	2.04924639e-03	7.53718212e-05
2.14500000e+00	2.04677594e-03	7.54270882e-05
2.15000000e+00	2.03242054e-03	7.24391279e-05
2.15500000e+00	2.02123094e-03	7.21921597e-05
2.16000000e+00	2.03003741e-03	7.21387331e-05
2.16500000e+00	2.01914281e-03	7.22497374e-05
2.17000000e+00	1.99832278e-03	6.97375651e-05
2.17500000e+00	1.99324889e-03	6.97782664e-05
2.18000000e+00	1.98438942e-03	6.96652288e-05
2.18500000e+00	1.98001343e-03	6.98923504e-05
2.19000000e+00	1.96478494e-03	6.91759867e-05
2.19500000e+00	1.96127573e-03	6.86584938e-05
2.20000000e+00	1.95815704e-03	6.86716835e-05
2.20500000e+00	1.93936275e-03	6.82399111e-05
2.21000000e+00	1.92897539e-03	6.82214723e-05
2.21500000e+00	1.91294125e-03	6.69146027e-05
2.22000000e+00	1.91224328e-03	6.68405054e-05
2.22500000e+00	1.88612463e-03	6.64953538e-05
2.23000000e+00	1.88428032e-03	6.67791399e-05
2.23500000e+00	1.88049559e-03	6.57387761e-05
2.24000000e+00	1.87148219e-03	6.54934683e-05
2.24500000e+00	1.84033298e-03	6.48551811e-05
2.25000000e+00	1.82612016e-03	6.48617315e-05
2.25500000e+00	1.82108607e-03	6.35536505e-05
2.26000000e+00	1.81639296e-03	6.35122625e-05
2.26500000e+00	1.79629467e-03	6.31120080e-05
2.27000000e+00	1.77400573e-03	6.32099568e-05
2.27500000e+00	1.76928265e-03	6.18006267e-05
2.28000000e+00	1.76221650e-03	6.16114036e-05
2.28500000e+00	1.75251518e-03	6.17189009e-05
2.29000000e+00	1.74555380e-03	6.17584519e-05
2.29500000e+00	1.74108956e-03	6.13596506e-05
2.30000000e+00	1.70571906e-03	5.96137976e-05
2.30500000e+00	1.69667338e-03	5.94343596e-05
2.31000000e+00	1.68548639e-03	5.93982565e-05
2.31500000e+00	1.68315334e-03	5.97300994e-05
2.32000000e+00	1.68061716e-03	5.84635447e-05
2.32500000e+00	1.66724723e-03	5.85327325e-05
2.33000000e+00	1.65545199e-03	5.81952983e-05
2.33500000e+00	1.66255847e-03	5.90858138e-05
2.34000000e+00	1.63762165e-03	5.70821283e-05
2.34500000e+00	1.61780736e-03	5.64870654e-05
2.35000000e+00	1.60331888e-03	5.62123827e-05
2.35500000e+00	1.60418804e-03	5.69482442e-05
2.36000000e+00	1.59261012e-03	5.57680800e-05
2.36500000e+00	1.59138066e-03	5.56712865e-05
2.37000000e+00	1.57423170e-03	5.51597508e-05
2.37500000e+00	1.54800872e-03	5.46364393e-05
2.38000000e+00	1.55470395e-03	5.51824639e-05
2.38500000e+00	1.53324043e-03	5.35678800e-05
2.39000000e+00	1.53028162e-03	5.36945192e-05
2.39500000e+00	1.52026511e-03	5.35929146e-05
2.40000000e+00	1.52276282e-03	5.44985829e-05
2.40500000e+00	1.50510314e-03	5.27639628e-05
2.41000000e+00	1.49727616e-03	5.26887491e-05
2.41500000e+00	1.47349156e-03	5.18883015e-05
2.42000000e+00	1.47923268e-03	5.27953183e-05
2.42500000e+00	1.45801399e-03	5.19137377e-05
2.43000000e+00	1.45017398e-03	5.11725733e-05
2.43500000e+00	1.44467852e-03	5.12052668e-05
2.44000000e+00	1.44094136e-03	5.11233173e-05
2.44500000e+00	1.45439209e-03	5.23165647e-05
2.45000000e+00	1.42535899e-03	5.03243289e-05
2.45500000e+00	1.40684882e-03	4.98738412e-05
2.46000000e+00	1.41000516e-03	5.01135262e-05
2.46500000e+00	1.39011147e-03	5.00938001e-05
2.47000000e+00	1.39054407e-03	4.94984581e-05
2.47500000e+00	1.38156925e-03	4.88950599e-05
2.48000000e+00	1.37411977e-03	4.91499020e-05
2.48500000e+00	1.36139720e-03	4.86647181e-05
2.49000000e+00	1.36693071e-03	4.94783998e-05
2.49500000e+00	1.35086732e-03	4.79361839e-05
2.50000000e+00	1.34165083e-03	4.78396007e-05
2.50500000e+00	1.32795391e-03	4.76095310e-05
2.51000000e+00	1.32248394e-03	4.77511598e-05
2.51500000e+00	1.33757560e-03	4.82533542e-05
2.52000000e+00	1.31148073e-03	4.70599519e-05
2.52500000e+00	1.29948206e-03	4.68306283e-05
2.53000000e+00	1.28894479e-03	4.67901336e-05
2.53500000e+00	1.28987520e-03	4.74311880e-05
2.54000000e+00	1.27458087e-03	4.61190838e-05
2.54500000e+00	1.26956486e-03	4.60748926e-05
2.55000000e+00	1.25900201e-03	4.59410764e-05
2.55500000e+00	1.25939522e-03	4.63275061e-05
2.56000000e+00	1.24466098e-03	4.60914515e-05
2.56500000e+00	1.23720890e-03	4.53114544e-05
2.57000000e+00	1.22487610e-03	4.51211068e-05
2.57500000e+00	1.22994106e-03	4.54493720e-05
2.58000000e+00	1.19793354e-03	4.49630795e-05
2.58500000e+00	1.20757626e-03	4.50116728e-05
2.59000000e+00	1.17458771e-03	4.35809346e-05
2.59500000e+00	1.18276279e-03	4.41234225e-05
2.60000000e+00	1.18329428e-03	4.44324198e-05
2.60500000e+00	1.16935877e-03	4.48748096e-05
2.61000000e+00	1.16123685e-03	5.07482745e-05
2.61500000e+00	1.15459549e-03	5.58141907e-05
2.62000000e+00	1.13911688e-03	6.05072478e-05
2.62500000e+00	1.13533003e-03	6.54585574e-05
2.63000000e+00	1.11116049e-03	7.06467809e-05
2.63500000e+00	1.13683370e-03	8.01060967e-05
2.64000000e+00	1.13667009e-03	8.84903721e-05
2.64500000e+00	1.10290052e-03	9.14339029e-05
2.65000000e+00	1.12110411e-03	9.84880444e-05
2.65500000e+00	1.08583980e-03	1.02756584e-04
2.66000000e+00	1.08911641e-03	1.10347275e-04
2.66500000e+00	1.07101211e-03	1.21660263e-04
2.67000000e+00	1.00805934e-03	1.24490356e-04
2.67500000e+00	1.04221541e-03	1.50053898e-04
2.68000000e+00	1.11690388e-03	1.86840590e-04
2.68500000e+00	1.16806730e-03	2.59309312e-04
2.69000000e+00	1.24422005e-03	4.52964256e-04
2.69500000e+00	0.00000000e+00	0.00000000e+00
2.70000000e+00	0.00000000e+00	0.00000000e+00
