% Filename : WNCHoHie_2_00048_00013.h5
% Date & Time : 30-Oct-2025 18:15:21
% X-ray Energy (keV) : 13.30001
% Exposure Time (s) : 0.500
% Photodiode Value : 140165.000
% I0 of Sample : 0
% I0 of Standard : 1
% 
% q(A^-1)   I(q)    I(q)_SE
8.40000000e-01	0.00000000e+00	0.00000000e+00
8.45000000e-01	3.62793211e-03	6.36781495e-04
8.50000000e-01	3.48105288e-03	3.22908288e-04
8.55000000e-01	3.46435069e-03	2.82624417e-04
8.60000000e-01	3.38880425e-03	2.39197856e-04
8.65000000e-01	3.43185509e-03	2.23312223e-04
8.70000000e-01	3.45736245e-03	2.14417576e-04
8.75000000e-01	3.46166444e-03	2.06728655e-04
8.80000000e-01	3.42056181e-03	1.97410377e-04
8.85000000e-01	3.40876437e-03	1.85917905e-04
8.90000000e-01	3.47010829e-03	1.85298709e-04
8.95000000e-01	3.49541370e-03	1.81309644e-04
9.00000000e-01	3.51142994e-03	1.80536358e-04
9.05000000e-01	3.50717024e-03	1.72480708e-04
9.10000000e-01	3.55995205e-03	1.71760192e-04
9.15000000e-01	3.54787627e-03	1.68560396e-04
9.20000000e-01	3.52949898e-03	1.67374683e-04
9.25000000e-01	3.52637490e-03	1.59980935e-04
9.30000000e-01	3.56766779e-03	1.60182029e-04
9.35000000e-01	3.60354232e-03	1.58692466e-04
9.40000000e-01	3.59430959e-03	1.58731794e-04
9.45000000e-01	3.64390755e-03	1.56840514e-04
9.50000000e-01	3.62213930e-03	1.53700735e-04
9.55000000e-01	3.61226646e-03	1.50605383e-04
9.60000000e-01	3.64341327e-03	1.51840297e-04
9.65000000e-01	3.66584007e-03	1.50273608e-04
9.70000000e-01	3.67532952e-03	1.48314602e-04
9.75000000e-01	3.69854540e-03	1.47507844e-04
9.80000000e-01	3.72802035e-03	1.47490158e-04
9.85000000e-01	3.73399213e-03	1.47863318e-04
9.90000000e-01	3.72369914e-03	1.42930974e-04
9.95000000e-01	3.77792342e-03	1.44262976e-04
1.00000000e+00	3.77766194e-03	1.43531780e-04
1.00500000e+00	3.82109859e-03	1.45205981e-04
1.01000000e+00	3.83052195e-03	1.42406423e-04
1.01500000e+00	3.87677903e-03	1.42810130e-04
1.02000000e+00	3.89356482e-03	1.43304071e-04
1.02500000e+00	3.91379448e-03	1.42186494e-04
1.03000000e+00	3.91744923e-03	1.41870922e-04
1.03500000e+00	3.96444137e-03	1.41498934e-04
1.04000000e+00	3.96680350e-03	1.40684999e-04
1.04500000e+00	3.98828238e-03	1.41406808e-04
1.05000000e+00	4.00087468e-03	1.40928120e-04
1.05500000e+00	4.02627298e-03	1.39627996e-04
1.06000000e+00	4.03514845e-03	1.39477903e-04
1.06500000e+00	4.04845327e-03	1.40075184e-04
1.07000000e+00	4.03963790e-03	1.39600514e-04
1.07500000e+00	4.05384944e-03	1.39031342e-04
1.08000000e+00	4.05824146e-03	1.38416345e-04
1.08500000e+00	4.08209906e-03	1.39387241e-04
1.09000000e+00	4.06125638e-03	1.39450805e-04
1.09500000e+00	4.07380050e-03	1.36989725e-04
1.10000000e+00	4.08407664e-03	1.38294803e-04
1.10500000e+00	4.07931894e-03	1.38581968e-04
1.11000000e+00	4.08097736e-03	1.38858702e-04
1.11500000e+00	4.09716877e-03	1.38371338e-04
1.12000000e+00	4.09289558e-03	1.38826566e-04
1.12500000e+00	4.11390983e-03	1.39217763e-04
1.13000000e+00	4.15034509e-03	1.42044236e-04
1.13500000e+00	4.17832566e-03	1.41271543e-04
1.14000000e+00	4.21435069e-03	1.42303882e-04
1.14500000e+00	4.21338635e-03	1.43576894e-04
1.15000000e+00	4.23105039e-03	1.44844750e-04
1.15500000e+00	4.25929460e-03	1.44318996e-04
1.16000000e+00	4.29700713e-03	1.46089464e-04
1.16500000e+00	4.31737115e-03	1.46565540e-04
1.17000000e+00	4.34003659e-03	1.49222647e-04
1.17500000e+00	4.35292376e-03	1.47436851e-04
1.18000000e+00	4.37319372e-03	1.48837053e-04
1.18500000e+00	4.39958615e-03	1.49575075e-04
1.19000000e+00	4.39486596e-03	1.51029247e-04
1.19500000e+00	4.38926573e-03	1.49050843e-04
1.20000000e+00	4.37964380e-03	1.49548282e-04
1.20500000e+00	4.41302640e-03	1.50450095e-04
1.21000000e+00	4.36963208e-03	1.50810604e-04
1.21500000e+00	4.39665017e-03	1.49408423e-04
1.22000000e+00	4.34985279e-03	1.47934529e-04
1.22500000e+00	4.35280106e-03	1.48581683e-04
1.23000000e+00	4.31776781e-03	1.48609800e-04
1.23500000e+00	4.33503099e-03	1.48197614e-04
1.24000000e+00	4.32653579e-03	1.47241148e-04
1.24500000e+00	4.29584831e-03	1.47371716e-04
1.25000000e+00	4.30481337e-03	1.48392836e-04
1.25500000e+00	4.32521821e-03	1.47411276e-04
1.26000000e+00	4.30140537e-03	1.47380070e-04
1.26500000e+00	4.30023787e-03	1.46911066e-04
1.27000000e+00	4.33002531e-03	1.50153621e-04
1.27500000e+00	4.34482261e-03	1.49059148e-04
1.28000000e+00	4.33599793e-03	1.47883358e-04
1.28500000e+00	4.33666314e-03	1.48681687e-04
1.29000000e+00	4.32748814e-03	1.49689717e-04
1.29500000e+00	4.35656549e-03	1.49096924e-04
1.30000000e+00	4.36267688e-03	1.49092024e-04
1.30500000e+00	4.36991867e-03	1.49966628e-04
1.31000000e+00	4.33863359e-03	1.50660900e-04
1.31500000e+00	4.36809748e-03	1.49867430e-04
1.32000000e+00	4.36182490e-03	1.49442444e-04
1.32500000e+00	4.37122739e-03	1.50204385e-04
1.33000000e+00	4.37663016e-03	1.52177054e-04
1.33500000e+00	4.39127901e-03	1.50638130e-04
1.34000000e+00	4.40971396e-03	1.51380435e-04
1.34500000e+00	4.40701430e-03	1.51891637e-04
1.35000000e+00	4.43558423e-03	1.54313521e-04
1.35500000e+00	4.40035302e-03	1.51017101e-04
1.36000000e+00	4.45465073e-03	1.52578477e-04
1.36500000e+00	4.41778830e-03	1.51915255e-04
1.37000000e+00	4.43913478e-03	1.54843978e-04
1.37500000e+00	4.46319676e-03	1.53386473e-04
1.38000000e+00	4.45578679e-03	1.53461968e-04
1.38500000e+00	4.44528886e-03	1.53911883e-04
1.39000000e+00	4.45512619e-03	1.55342574e-04
1.39500000e+00	4.47576596e-03	1.53702211e-04
1.40000000e+00	4.54653576e-03	1.60769680e-04
1.40500000e+00	4.50980654e-03	1.71700823e-04
1.41000000e+00	4.50468323e-03	1.79453571e-04
1.41500000e+00	4.49611140e-03	1.85824452e-04
1.42000000e+00	4.51585758e-03	1.94018256e-04
1.42500000e+00	4.48279819e-03	1.98264690e-04
1.43000000e+00	4.51944454e-03	2.07541262e-04
1.43500000e+00	4.53221167e-03	2.14527342e-04
1.44000000e+00	4.57028654e-03	2.24479988e-04
1.44500000e+00	4.55661055e-03	2.29804927e-04
1.45000000e+00	4.72514451e-03	2.30406490e-04
1.45500000e+00	4.75459559e-03	2.08279211e-04
1.46000000e+00	4.76466950e-03	2.03900216e-04
1.46500000e+00	4.73838556e-03	1.99165760e-04
1.47000000e+00	4.77118901e-03	2.00086956e-04
1.47500000e+00	4.74812434e-03	1.93192019e-04
1.48000000e+00	4.79299944e-03	1.93072836e-04
1.48500000e+00	4.74818845e-03	1.91443327e-04
1.49000000e+00	4.77624038e-03	1.93012210e-04
1.49500000e+00	4.81104950e-03	1.90150678e-04
1.50000000e+00	4.80173556e-03	1.89160816e-04
1.50500000e+00	4.79384910e-03	1.89874153e-04
1.51000000e+00	4.79179189e-03	1.90150657e-04
1.51500000e+00	4.80715481e-03	1.87757308e-04
1.52000000e+00	4.80506254e-03	1.87060908e-04
1.52500000e+00	4.85004438e-03	1.88560337e-04
1.53000000e+00	4.80403069e-03	1.87929292e-04
1.53500000e+00	4.79714485e-03	1.82334147e-04
1.54000000e+00	4.82746766e-03	1.83220930e-04
1.54500000e+00	4.80900730e-03	1.82165260e-04
1.55000000e+00	4.84420098e-03	1.82925217e-04
1.55500000e+00	4.83813430e-03	1.78708597e-04
1.56000000e+00	4.87042524e-03	1.80177885e-04
1.56500000e+00	4.93664435e-03	1.81629248e-04
1.57000000e+00	4.96730187e-03	1.81397296e-04
1.57500000e+00	5.01824113e-03	1.79897510e-04
1.58000000e+00	5.12442676e-03	1.83365564e-04
1.58500000e+00	5.18729843e-03	1.85596251e-04
1.59000000e+00	5.30589082e-03	1.89992590e-04
1.59500000e+00	5.40541041e-03	1.89803967e-04
1.60000000e+00	5.51433492e-03	1.93472881e-04
1.60500000e+00	5.61776549e-03	1.97263607e-04
1.61000000e+00	5.70124482e-03	1.99326154e-04
1.61500000e+00	5.76054262e-03	1.99556338e-04
1.62000000e+00	5.81591039e-03	2.02342803e-04
1.62500000e+00	5.75853992e-03	2.02592764e-04
1.63000000e+00	5.72839427e-03	1.99485957e-04
1.63500000e+00	5.64542968e-03	1.96494770e-04
1.64000000e+00	5.50426256e-03	1.91630142e-04
1.64500000e+00	5.35907814e-03	1.88704410e-04
1.65000000e+00	5.25406458e-03	1.83071303e-04
1.65500000e+00	5.10359333e-03	1.77523590e-04
1.66000000e+00	4.96133562e-03	1.72828191e-04
1.66500000e+00	4.83765191e-03	1.71395420e-04
1.67000000e+00	4.72899669e-03	1.64163674e-04
1.67500000e+00	4.60902589e-03	1.60335687e-04
1.68000000e+00	4.57398507e-03	1.59612289e-04
1.68500000e+00	4.51500401e-03	1.60150915e-04
1.69000000e+00	4.45356413e-03	1.54923309e-04
1.69500000e+00	4.39232112e-03	1.52533997e-04
1.70000000e+00	4.36921626e-03	1.53477671e-04
1.70500000e+00	4.32453286e-03	1.52582591e-04
1.71000000e+00	4.32924306e-03	1.50850589e-04
1.71500000e+00	4.30923082e-03	1.50085597e-04
1.72000000e+00	4.25203111e-03	1.49258681e-04
1.72500000e+00	4.20805968e-03	1.48586666e-04
1.73000000e+00	4.21779775e-03	1.46923476e-04
1.73500000e+00	4.18920535e-03	1.46393300e-04
1.74000000e+00	4.18866672e-03	1.46703512e-04
1.74500000e+00	4.16376014e-03	1.47575177e-04
1.75000000e+00	4.17400949e-03	1.45086341e-04
1.75500000e+00	4.17557963e-03	1.46116401e-04
1.76000000e+00	4.16305314e-03	1.45537412e-04
1.76500000e+00	4.14476733e-03	1.46798061e-04
1.77000000e+00	4.15085679e-03	1.44472952e-04
1.77500000e+00	4.17078564e-03	1.45743745e-04
1.78000000e+00	4.18575691e-03	1.46820172e-04
1.78500000e+00	4.13387594e-03	1.46430626e-04
1.79000000e+00	4.14226413e-03	1.44161924e-04
1.79500000e+00	4.17478634e-03	1.45807296e-04
1.80000000e+00	4.19116919e-03	1.47271309e-04
1.80500000e+00	4.19462682e-03	1.48401300e-04
1.81000000e+00	4.20857575e-03	1.46696559e-04
1.81500000e+00	4.20292241e-03	1.46594153e-04
1.82000000e+00	4.19400624e-03	1.47207331e-04
1.82500000e+00	4.23485303e-03	1.49593592e-04
1.83000000e+00	4.20778027e-03	1.46782707e-04
1.83500000e+00	4.19723087e-03	1.46645885e-04
1.84000000e+00	4.20992745e-03	1.47955444e-04
1.84500000e+00	4.19282105e-03	1.48079589e-04
1.85000000e+00	4.19187599e-03	1.46366212e-04
1.85500000e+00	4.19019908e-03	1.46362783e-04
1.86000000e+00	4.19344261e-03	1.47536037e-04
1.86500000e+00	4.15405643e-03	1.46427344e-04
1.87000000e+00	4.15194696e-03	1.44829272e-04
1.87500000e+00	4.14083549e-03	1.44818411e-04
1.88000000e+00	4.11241926e-03	1.44426278e-04
1.88500000e+00	4.11344602e-03	1.45277326e-04
1.89000000e+00	4.07708225e-03	1.42077731e-04
1.89500000e+00	4.06094173e-03	1.42258483e-04
1.90000000e+00	4.05635914e-03	1.42500952e-04
1.90500000e+00	4.03329344e-03	1.41779922e-04
1.91000000e+00	4.02024978e-03	1.40360488e-04
1.91500000e+00	3.99719607e-03	1.39692724e-04
1.92000000e+00	3.97863132e-03	1.39755438e-04
1.92500000e+00	4.00378980e-03	1.40831136e-04
1.93000000e+00	3.94945962e-03	1.37705643e-04
1.93500000e+00	3.96419899e-03	1.38615343e-04
1.94000000e+00	3.90465888e-03	1.37669999e-04
1.94500000e+00	3.91904330e-03	1.37727232e-04
1.95000000e+00	3.87598497e-03	1.34940889e-04
1.95500000e+00	3.85623547e-03	1.34887972e-04
1.96000000e+00	3.83531013e-03	1.34917793e-04
1.96500000e+00	3.81585504e-03	1.34294423e-04
1.97000000e+00	3.83708417e-03	1.33430348e-04
1.97500000e+00	3.78577562e-03	1.32534931e-04
1.98000000e+00	3.79861573e-03	1.33602188e-04
1.98500000e+00	3.79093807e-03	1.33524227e-04
1.99000000e+00	3.71146923e-03	1.29108543e-04
1.99500000e+00	3.71217660e-03	1.29748877e-04
2.00000000e+00	3.71568350e-03	1.30815543e-04
2.00500000e+00	3.73815203e-03	1.31851542e-04
2.01000000e+00	3.71428938e-03	1.43706740e-04
2.01500000e+00	3.63753625e-03	1.49433497e-04
2.02000000e+00	3.63870820e-03	1.59378851e-04
2.02500000e+00	3.61555736e-03	1.64596354e-04
2.03000000e+00	3.62816844e-03	1.74929228e-04
2.03500000e+00	3.59689486e-03	1.81210178e-04
2.04000000e+00	3.55558902e-03	1.87235614e-04
2.04500000e+00	3.52648482e-03	1.95392255e-04
2.05000000e+00	3.52681409e-03	2.05202488e-04
2.05500000e+00	3.56419440e-03	2.03213779e-04
2.06000000e+00	3.54976165e-03	1.76089403e-04
2.06500000e+00	3.51088845e-03	1.66415457e-04
2.07000000e+00	3.52465877e-03	1.58104657e-04
2.07500000e+00	3.47617683e-03	1.52485877e-04
2.08000000e+00	3.48410219e-03	1.52658472e-04
2.08500000e+00	3.44505745e-03	1.49726956e-04
2.09000000e+00	3.43840153e-03	1.44884061e-04
2.09500000e+00	3.43430632e-03	1.43129472e-04
2.10000000e+00	3.41320036e-03	1.41294516e-04
2.10500000e+00	3.43437399e-03	1.41584553e-04
2.11000000e+00	3.42898071e-03	1.36309467e-04
2.11500000e+00	3.41294962e-03	1.34210879e-04
2.12000000e+00	3.39940408e-03	1.32973576e-04
2.12500000e+00	3.35560629e-03	1.30921268e-04
2.13000000e+00	3.31040510e-03	1.23848061e-04
2.13500000e+00	3.30157629e-03	1.21961190e-04
2.14000000e+00	3.31265074e-03	1.21344274e-04
2.14500000e+00	3.25844014e-03	1.19687838e-04
2.15000000e+00	3.27375717e-03	1.16375564e-04
2.15500000e+00	3.24401684e-03	1.15512585e-04
2.16000000e+00	3.24501833e-03	1.15001209e-04
2.16500000e+00	3.20603568e-03	1.14424801e-04
2.17000000e+00	3.19297995e-03	1.11203974e-04
2.17500000e+00	3.18205454e-03	1.11145007e-04
2.18000000e+00	3.14615669e-03	1.10284504e-04
2.18500000e+00	3.16065264e-03	1.11353178e-04
2.19000000e+00	3.12220512e-03	1.09674079e-04
2.19500000e+00	3.11222797e-03	1.08731579e-04
2.20000000e+00	3.08133737e-03	1.07882665e-04
2.20500000e+00	3.07689246e-03	1.08086812e-04
2.21000000e+00	3.04789242e-03	1.07751818e-04
2.21500000e+00	3.02531222e-03	1.05723254e-04
2.22000000e+00	3.00075314e-03	1.04850684e-04
2.22500000e+00	3.01206409e-03	1.06100384e-04
2.23000000e+00	2.99043433e-03	1.05998814e-04
2.23500000e+00	2.96296661e-03	1.03613553e-04
2.24000000e+00	2.94216599e-03	1.02926565e-04
2.24500000e+00	2.91539039e-03	1.02700839e-04
2.25000000e+00	2.88829421e-03	1.02630888e-04
2.25500000e+00	2.87641101e-03	1.00471704e-04
2.26000000e+00	2.87150101e-03	1.00571037e-04
2.26500000e+00	2.81202382e-03	9.90742673e-05
2.27000000e+00	2.80176370e-03	9.99969333e-05
2.27500000e+00	2.79123616e-03	9.76788857e-05
2.28000000e+00	2.77677515e-03	9.72200097e-05
2.28500000e+00	2.74713967e-03	9.68703883e-05
2.29000000e+00	2.73075661e-03	9.69486921e-05
2.29500000e+00	2.70550915e-03	9.58432267e-05
2.30000000e+00	2.68054393e-03	9.38923613e-05
2.30500000e+00	2.67554138e-03	9.40767461e-05
2.31000000e+00	2.65650716e-03	9.39232460e-05
2.31500000e+00	2.64301070e-03	9.43305957e-05
2.32000000e+00	2.63272881e-03	9.20460026e-05
2.32500000e+00	2.60429280e-03	9.17817699e-05
2.33000000e+00	2.58894290e-03	9.14925949e-05
2.33500000e+00	2.55975286e-03	9.15044897e-05
2.34000000e+00	2.56978812e-03	9.02781252e-05
2.34500000e+00	2.56608282e-03	9.02522092e-05
2.35000000e+00	2.54907648e-03	8.99853966e-05
2.35500000e+00	2.54137018e-03	9.09656446e-05
2.36000000e+00	2.55077358e-03	9.01620010e-05
2.36500000e+00	2.51744908e-03	8.88955774e-05
2.37000000e+00	2.54684850e-03	8.98387953e-05
2.37500000e+00	2.53056689e-03	9.02043542e-05
2.38000000e+00	2.52198764e-03	9.03345203e-05
2.38500000e+00	2.53497360e-03	8.96175758e-05
2.39000000e+00	2.52061179e-03	8.94588020e-05
2.39500000e+00	2.50750362e-03	8.95265385e-05
2.40000000e+00	2.50494974e-03	9.06643114e-05
2.40500000e+00	2.50733058e-03	8.90398520e-05
2.41000000e+00	2.49792253e-03	8.90643134e-05
2.41500000e+00	2.49471529e-03	8.89285175e-05
2.42000000e+00	2.48069793e-03	8.96970946e-05
2.42500000e+00	2.44232137e-03	8.82643754e-05
2.43000000e+00	2.42896966e-03	8.68406432e-05
2.43500000e+00	2.40920102e-03	8.64942362e-05
2.44000000e+00	2.43179161e-03	8.78084280e-05
2.44500000e+00	2.45792374e-03	8.98004413e-05
2.45000000e+00	2.38227260e-03	8.55659463e-05
2.45500000e+00	2.33579017e-03	8.40665415e-05
2.46000000e+00	2.31771757e-03	8.38367684e-05
2.46500000e+00	2.26163057e-03	8.28413141e-05
2.47000000e+00	2.27533168e-03	8.25682247e-05
2.47500000e+00	2.23000680e-03	8.05173689e-05
2.48000000e+00	2.20426193e-03	8.01740896e-05
2.48500000e+00	2.18853321e-03	7.98341074e-05
2.49000000e+00	2.13157599e-03	7.89279299e-05
2.49500000e+00	2.01584385e-03	7.32416114e-05
2.50000000e+00	1.88907156e-03	6.89321224e-05
2.50500000e+00	1.79847046e-03	6.62510654e-05
2.51000000e+00	1.75413737e-03	6.52209670e-05
2.51500000e+00	1.68999556e-03	6.30208372e-05
2.52000000e+00	1.63034812e-03	5.99727209e-05
2.52500000e+00	1.58119099e-03	5.84090775e-05
2.53000000e+00	1.54510543e-03	5.72345168e-05
2.53500000e+00	1.50012451e-03	5.62897002e-05
2.54000000e+00	1.45777794e-03	5.33373647e-05
2.54500000e+00	1.40924298e-03	5.15271406e-05
2.55000000e+00	1.37046415e-03	5.00150192e-05
2.55500000e+00	1.34291123e-03	4.94438453e-05
2.56000000e+00	1.35196449e-03	5.00947102e-05
2.56500000e+00	1.32904461e-03	4.87860189e-05
2.57000000e+00	1.31416834e-03	4.84196951e-05
2.57500000e+00	1.27615467e-03	4.71856516e-05
2.58000000e+00	1.23265223e-03	4.63413990e-05
2.58500000e+00	1.22501636e-03	4.57348725e-05
2.59000000e+00	1.21170688e-03	4.49982397e-05
2.59500000e+00	1.20248937e-03	4.48752767e-05
2.60000000e+00	1.19899323e-03	4.49782359e-05
2.60500000e+00	1.20148275e-03	4.61938949e-05
2.61000000e+00	1.19524748e-03	5.24002859e-05
2.61500000e+00	1.15988985e-03	5.60619864e-05
2.62000000e+00	1.12612463e-03	6.00689239e-05
2.62500000e+00	1.14587237e-03	6.59478538e-05
2.63000000e+00	1.13072098e-03	7.18773124e-05
2.63500000e+00	1.13015864e-03	7.96051161e-05
2.64000000e+00	1.11408492e-03	8.67551310e-05
2.64500000e+00	1.14859833e-03	9.50385181e-05
2.65000000e+00	1.11650396e-03	9.81823851e-05
2.65500000e+00	1.08589224e-03	1.03138632e-04
2.66000000e+00	1.12022129e-03	1.13553528e-04
2.66500000e+00	1.03871860e-03	1.17976685e-04
2.67000000e+00	1.08279270e-03	1.33660395e-04
2.67500000e+00	1.04740374e-03	1.50467867e-04
2.68000000e+00	1.05334547e-03	1.75093533e-04
2.68500000e+00	1.04440953e-03	2.33614716e-04
2.69000000e+00	1.22812853e-03	4.39367981e-04
2.69500000e+00	0.00000000e+00	0.00000000e+00
2.70000000e+00	0.00000000e+00	0.00000000e+00
