% Filename : WSW19_00032_00003.h5
% Date & Time : 30-Oct-2025 17:20:21
% X-ray Energy (keV) : 13.30001
% Exposure Time (s) : 0.500
% Photodiode Value : 141123.000
% I0 of Sample : 0
% I0 of Standard : 1
% 
% q(A^-1)   I(q)    I(q)_SE
8.40000000e-01	0.00000000e+00	0.00000000e+00
8.45000000e-01	3.02208455e-03	5.29250284e-04
8.50000000e-01	2.84615844e-03	2.64101485e-04
8.55000000e-01	2.70953926e-03	2.21467091e-04
8.60000000e-01	2.71893216e-03	1.92100773e-04
8.65000000e-01	2.76837691e-03	1.80423192e-04
8.70000000e-01	2.72666743e-03	1.69436535e-04
8.75000000e-01	2.73723711e-03	1.63695155e-04
8.80000000e-01	2.76609486e-03	1.60040464e-04
8.85000000e-01	2.74684974e-03	1.50068814e-04
8.90000000e-01	2.73262858e-03	1.46171848e-04
8.95000000e-01	2.75235236e-03	1.42917833e-04
9.00000000e-01	2.76309280e-03	1.42311661e-04
9.05000000e-01	2.77932429e-03	1.36817348e-04
9.10000000e-01	2.78307665e-03	1.34493644e-04
9.15000000e-01	2.80171568e-03	1.33304482e-04
9.20000000e-01	2.82366747e-03	1.34017558e-04
9.25000000e-01	2.79980402e-03	1.27169364e-04
9.30000000e-01	2.78533150e-03	1.25274954e-04
9.35000000e-01	2.81737408e-03	1.24261198e-04
9.40000000e-01	2.83356344e-03	1.25295179e-04
9.45000000e-01	2.83203940e-03	1.22204853e-04
9.50000000e-01	2.83150483e-03	1.20461342e-04
9.55000000e-01	2.84823807e-03	1.18929941e-04
9.60000000e-01	2.83972692e-03	1.18776961e-04
9.65000000e-01	2.84491603e-03	1.16902238e-04
9.70000000e-01	2.86306013e-03	1.15799729e-04
9.75000000e-01	2.83651292e-03	1.13548071e-04
9.80000000e-01	2.85531146e-03	1.13168494e-04
9.85000000e-01	2.87753142e-03	1.14136685e-04
9.90000000e-01	2.86859576e-03	1.10437257e-04
9.95000000e-01	2.88993893e-03	1.10713065e-04
1.00000000e+00	2.88158934e-03	1.09843181e-04
1.00500000e+00	2.89438585e-03	1.10273171e-04
1.01000000e+00	2.86476620e-03	1.06910957e-04
1.01500000e+00	2.88648247e-03	1.06682827e-04
1.02000000e+00	2.88839280e-03	1.06636815e-04
1.02500000e+00	2.85643682e-03	1.04186696e-04
1.03000000e+00	2.89221254e-03	1.05180259e-04
1.03500000e+00	2.88849166e-03	1.03592468e-04
1.04000000e+00	2.86668263e-03	1.02207985e-04
1.04500000e+00	2.83573565e-03	1.01193795e-04
1.05000000e+00	2.85093984e-03	1.00934261e-04
1.05500000e+00	2.85200606e-03	9.94198067e-05
1.06000000e+00	2.85202268e-03	9.91936349e-05
1.06500000e+00	2.85720032e-03	9.95464016e-05
1.07000000e+00	2.86213512e-03	9.94930120e-05
1.07500000e+00	2.87687640e-03	9.92424136e-05
1.08000000e+00	2.90201470e-03	9.94995292e-05
1.08500000e+00	2.86942027e-03	9.85591940e-05
1.09000000e+00	2.88466818e-03	9.95847386e-05
1.09500000e+00	2.88708199e-03	9.77006352e-05
1.10000000e+00	2.91083750e-03	9.92050928e-05
1.10500000e+00	2.90942122e-03	9.93694149e-05
1.11000000e+00	2.89027848e-03	9.88819569e-05
1.11500000e+00	2.92999713e-03	9.94478290e-05
1.12000000e+00	2.92625835e-03	9.97846975e-05
1.12500000e+00	2.95006050e-03	1.00366176e-04
1.13000000e+00	2.94246888e-03	1.01195415e-04
1.13500000e+00	2.98578993e-03	1.01467125e-04
1.14000000e+00	2.98003643e-03	1.01098297e-04
1.14500000e+00	2.99105767e-03	1.02369716e-04
1.15000000e+00	2.97734030e-03	1.02362129e-04
1.15500000e+00	2.99258739e-03	1.01816051e-04
1.16000000e+00	3.01127614e-03	1.02794804e-04
1.16500000e+00	3.01292732e-03	1.02694117e-04
1.17000000e+00	2.99861452e-03	1.03604544e-04
1.17500000e+00	3.03528751e-03	1.03325928e-04
1.18000000e+00	3.02274240e-03	1.03280255e-04
1.18500000e+00	3.02094473e-03	1.03094228e-04
1.19000000e+00	3.02543826e-03	1.04344170e-04
1.19500000e+00	3.03622497e-03	1.03484855e-04
1.20000000e+00	3.05317175e-03	1.04605229e-04
1.20500000e+00	3.04814235e-03	1.04397187e-04
1.21000000e+00	3.05018647e-03	1.05614765e-04
1.21500000e+00	3.06362657e-03	1.04480396e-04
1.22000000e+00	3.06103155e-03	1.04497631e-04
1.22500000e+00	3.08475425e-03	1.05705067e-04
1.23000000e+00	3.06112009e-03	1.05696281e-04
1.23500000e+00	3.07677572e-03	1.05574883e-04
1.24000000e+00	3.07309392e-03	1.04938007e-04
1.24500000e+00	3.08595136e-03	1.06100484e-04
1.25000000e+00	3.08522535e-03	1.06700710e-04
1.25500000e+00	3.08251844e-03	1.05396937e-04
1.26000000e+00	3.08175242e-03	1.06022288e-04
1.26500000e+00	3.09665043e-03	1.06230670e-04
1.27000000e+00	3.10398271e-03	1.07913511e-04
1.27500000e+00	3.09283309e-03	1.06499023e-04
1.28000000e+00	3.09526179e-03	1.05901110e-04
1.28500000e+00	3.11131327e-03	1.07004699e-04
1.29000000e+00	3.10492141e-03	1.07769246e-04
1.29500000e+00	3.09354141e-03	1.06223996e-04
1.30000000e+00	3.09342988e-03	1.06056804e-04
1.30500000e+00	3.11416596e-03	1.07272247e-04
1.31000000e+00	3.10357695e-03	1.08113741e-04
1.31500000e+00	3.08598188e-03	1.06202149e-04
1.32000000e+00	3.11432811e-03	1.07112083e-04
1.32500000e+00	3.12029225e-03	1.07541698e-04
1.33000000e+00	3.09029370e-03	1.07840729e-04
1.33500000e+00	3.10595359e-03	1.06909222e-04
1.34000000e+00	3.13081676e-03	1.07906815e-04
1.34500000e+00	3.12823120e-03	1.08085843e-04
1.35000000e+00	3.10146321e-03	1.08159139e-04
1.35500000e+00	3.10495830e-03	1.06885863e-04
1.36000000e+00	3.13095081e-03	1.07608873e-04
1.36500000e+00	3.10388157e-03	1.07048293e-04
1.37000000e+00	3.10651326e-03	1.08697755e-04
1.37500000e+00	3.12290825e-03	1.07554840e-04
1.38000000e+00	3.11179271e-03	1.07493565e-04
1.38500000e+00	3.10153074e-03	1.07704039e-04
1.39000000e+00	3.11724488e-03	1.08981238e-04
1.39500000e+00	3.11538995e-03	1.07270256e-04
1.40000000e+00	3.14720828e-03	1.11631758e-04
1.40500000e+00	3.11972481e-03	1.19056805e-04
1.41000000e+00	3.06945510e-03	1.22662072e-04
1.41500000e+00	3.05889824e-03	1.26737282e-04
1.42000000e+00	3.06372802e-03	1.32086367e-04
1.42500000e+00	2.99264630e-03	1.32958757e-04
1.43000000e+00	3.02806570e-03	1.39549305e-04
1.43500000e+00	3.00679044e-03	1.42792152e-04
1.44000000e+00	3.00535557e-03	1.48345403e-04
1.44500000e+00	3.00018996e-03	1.51853321e-04
1.45000000e+00	3.09093892e-03	1.51189046e-04
1.45500000e+00	3.08167238e-03	1.35480993e-04
1.46000000e+00	3.08151476e-03	1.32313612e-04
1.46500000e+00	3.08659795e-03	1.30139908e-04
1.47000000e+00	3.06075343e-03	1.28805479e-04
1.47500000e+00	3.07911555e-03	1.25849095e-04
1.48000000e+00	3.07075053e-03	1.24166484e-04
1.48500000e+00	3.07940437e-03	1.24499904e-04
1.49000000e+00	3.05767900e-03	1.23967398e-04
1.49500000e+00	3.06376861e-03	1.21341631e-04
1.50000000e+00	3.05804356e-03	1.20810963e-04
1.50500000e+00	3.06473170e-03	1.21676594e-04
1.51000000e+00	3.07239592e-03	1.22286025e-04
1.51500000e+00	3.09008249e-03	1.20991674e-04
1.52000000e+00	3.10370018e-03	1.21073181e-04
1.52500000e+00	3.09979662e-03	1.20750949e-04
1.53000000e+00	3.10735210e-03	1.21865525e-04
1.53500000e+00	3.09547443e-03	1.17862621e-04
1.54000000e+00	3.09039138e-03	1.17570169e-04
1.54500000e+00	3.09175028e-03	1.17414711e-04
1.55000000e+00	3.06132577e-03	1.15896488e-04
1.55500000e+00	3.04880312e-03	1.12758117e-04
1.56000000e+00	3.03396173e-03	1.12583374e-04
1.56500000e+00	2.99559332e-03	1.10438151e-04
1.57000000e+00	3.01411358e-03	1.10506045e-04
1.57500000e+00	3.01212752e-03	1.08271920e-04
1.58000000e+00	2.98588959e-03	1.07110402e-04
1.58500000e+00	2.97419813e-03	1.06716029e-04
1.59000000e+00	2.96939648e-03	1.06655922e-04
1.59500000e+00	2.95875149e-03	1.04206833e-04
1.60000000e+00	2.95423101e-03	1.03990042e-04
1.60500000e+00	2.96985314e-03	1.04652895e-04
1.61000000e+00	2.94708783e-03	1.03445909e-04
1.61500000e+00	2.93262011e-03	1.01999653e-04
1.62000000e+00	2.92001575e-03	1.01895539e-04
1.62500000e+00	2.92689444e-03	1.03412460e-04
1.63000000e+00	2.90677057e-03	1.01493700e-04
1.63500000e+00	2.90887263e-03	1.01610523e-04
1.64000000e+00	2.90128920e-03	1.01390899e-04
1.64500000e+00	2.91666374e-03	1.03045553e-04
1.65000000e+00	2.90282063e-03	1.01427326e-04
1.65500000e+00	2.87474748e-03	1.00421808e-04
1.66000000e+00	2.90002042e-03	1.01378049e-04
1.66500000e+00	2.88221769e-03	1.02414835e-04
1.67000000e+00	2.85132509e-03	9.92974239e-05
1.67500000e+00	2.86552374e-03	9.99445952e-05
1.68000000e+00	2.84894637e-03	9.97146051e-05
1.68500000e+00	2.82597563e-03	1.00621432e-04
1.69000000e+00	2.84248536e-03	9.91874565e-05
1.69500000e+00	2.84384100e-03	9.90462307e-05
1.70000000e+00	2.82869367e-03	9.96591641e-05
1.70500000e+00	2.81938935e-03	9.98091020e-05
1.71000000e+00	2.83645082e-03	9.90914115e-05
1.71500000e+00	2.82737241e-03	9.87042501e-05
1.72000000e+00	2.81134405e-03	9.88673482e-05
1.72500000e+00	2.79591579e-03	9.90248884e-05
1.73000000e+00	2.80202468e-03	9.78974974e-05
1.73500000e+00	2.78555874e-03	9.75587171e-05
1.74000000e+00	2.78505615e-03	9.78057397e-05
1.74500000e+00	2.79992919e-03	9.94304278e-05
1.75000000e+00	2.76281359e-03	9.62929488e-05
1.75500000e+00	2.77734621e-03	9.74524921e-05
1.76000000e+00	2.75581533e-03	9.65950754e-05
1.76500000e+00	2.75570265e-03	9.78578106e-05
1.77000000e+00	2.75426542e-03	9.61950499e-05
1.77500000e+00	2.75471146e-03	9.65122475e-05
1.78000000e+00	2.69767705e-03	9.47584157e-05
1.78500000e+00	2.75064159e-03	9.76274564e-05
1.79000000e+00	2.74169765e-03	9.56569381e-05
1.79500000e+00	2.71186785e-03	9.49285911e-05
1.80000000e+00	2.72350341e-03	9.58788554e-05
1.80500000e+00	2.71233269e-03	9.61542915e-05
1.81000000e+00	2.70714760e-03	9.45202532e-05
1.81500000e+00	2.66971261e-03	9.32163612e-05
1.82000000e+00	2.70344000e-03	9.51009952e-05
1.82500000e+00	2.68740956e-03	9.50382225e-05
1.83000000e+00	2.67710142e-03	9.35446296e-05
1.83500000e+00	2.69206801e-03	9.42316983e-05
1.84000000e+00	2.66672944e-03	9.39532197e-05
1.84500000e+00	2.68231871e-03	9.49692166e-05
1.85000000e+00	2.68399971e-03	9.38946111e-05
1.85500000e+00	2.64136499e-03	9.24501300e-05
1.86000000e+00	2.64881000e-03	9.33458128e-05
1.86500000e+00	2.64620033e-03	9.34859437e-05
1.87000000e+00	2.60995411e-03	9.13105975e-05
1.87500000e+00	2.61272671e-03	9.15852623e-05
1.88000000e+00	2.61518899e-03	9.20770924e-05
1.88500000e+00	2.60511074e-03	9.23129473e-05
1.89000000e+00	2.61494878e-03	9.13847707e-05
1.89500000e+00	2.60236125e-03	9.14075113e-05
1.90000000e+00	2.60185311e-03	9.16167375e-05
1.90500000e+00	2.57979249e-03	9.09294236e-05
1.91000000e+00	2.58493918e-03	9.05125605e-05
1.91500000e+00	2.55692382e-03	8.95973469e-05
1.92000000e+00	2.55954916e-03	9.01468130e-05
1.92500000e+00	2.54921112e-03	8.98993916e-05
1.93000000e+00	2.53520252e-03	8.86211084e-05
1.93500000e+00	2.52891829e-03	8.86462346e-05
1.94000000e+00	2.52170267e-03	8.91576907e-05
1.94500000e+00	2.51749643e-03	8.86706182e-05
1.95000000e+00	2.48608877e-03	8.68216031e-05
1.95500000e+00	2.48840393e-03	8.73065113e-05
1.96000000e+00	2.47538063e-03	8.73517870e-05
1.96500000e+00	2.45458314e-03	8.66815622e-05
1.97000000e+00	2.45115583e-03	8.54976005e-05
1.97500000e+00	2.45024848e-03	8.60637256e-05
1.98000000e+00	2.42795301e-03	8.56330524e-05
1.98500000e+00	2.42690225e-03	8.57397843e-05
1.99000000e+00	2.41635460e-03	8.43189115e-05
1.99500000e+00	2.40980287e-03	8.44643167e-05
2.00000000e+00	2.43222040e-03	8.58876059e-05
2.00500000e+00	2.41959130e-03	8.55277630e-05
2.01000000e+00	2.41609415e-03	9.37959178e-05
2.01500000e+00	2.35745793e-03	9.70926361e-05
2.02000000e+00	2.36679807e-03	1.04051769e-04
2.02500000e+00	2.37070925e-03	1.08241746e-04
2.03000000e+00	2.32545018e-03	1.12548992e-04
2.03500000e+00	2.30537635e-03	1.16466326e-04
2.04000000e+00	2.27824236e-03	1.20331559e-04
2.04500000e+00	2.28541893e-03	1.27002773e-04
2.05000000e+00	2.27120729e-03	1.32535100e-04
2.05500000e+00	2.33742022e-03	1.33849657e-04
2.06000000e+00	2.32124159e-03	1.15503968e-04
2.06500000e+00	2.31089580e-03	1.09969452e-04
2.07000000e+00	2.33266016e-03	1.05131793e-04
2.07500000e+00	2.31117493e-03	1.01757560e-04
2.08000000e+00	2.28944371e-03	1.00565207e-04
2.08500000e+00	2.30482597e-03	1.00304689e-04
2.09000000e+00	2.33445961e-03	9.85669808e-05
2.09500000e+00	2.29495959e-03	9.58726635e-05
2.10000000e+00	2.30645754e-03	9.56697338e-05
2.10500000e+00	2.27865092e-03	9.42307709e-05
2.11000000e+00	2.27875212e-03	9.07036890e-05
2.11500000e+00	2.26631634e-03	8.94480091e-05
2.12000000e+00	2.25119869e-03	8.83963210e-05
2.12500000e+00	2.23079755e-03	8.72857805e-05
2.13000000e+00	2.20956796e-03	8.30032373e-05
2.13500000e+00	2.20608640e-03	8.18227693e-05
2.14000000e+00	2.20910536e-03	8.11686354e-05
2.14500000e+00	2.19574652e-03	8.09568386e-05
2.15000000e+00	2.17832085e-03	7.76053107e-05
2.15500000e+00	2.17916430e-03	7.78116525e-05
2.16000000e+00	2.17150884e-03	7.72661470e-05
2.16500000e+00	2.16008256e-03	7.73268376e-05
2.17000000e+00	2.15005769e-03	7.51013398e-05
2.17500000e+00	2.14407195e-03	7.50317298e-05
2.18000000e+00	2.10501501e-03	7.39396747e-05
2.18500000e+00	2.10613752e-03	7.44143186e-05
2.19000000e+00	2.10797142e-03	7.41274999e-05
2.19500000e+00	2.06842284e-03	7.24501582e-05
2.20000000e+00	2.08283631e-03	7.30322229e-05
2.20500000e+00	2.05093530e-03	7.22312970e-05
2.21000000e+00	2.03955567e-03	7.21544470e-05
2.21500000e+00	2.02519206e-03	7.08611103e-05
2.22000000e+00	2.02362206e-03	7.06905358e-05
2.22500000e+00	2.02957749e-03	7.15547161e-05
2.23000000e+00	2.00222539e-03	7.09885140e-05
2.23500000e+00	1.98329572e-03	6.92506071e-05
2.24000000e+00	1.95998990e-03	6.85803992e-05
2.24500000e+00	1.95131955e-03	6.86953226e-05
2.25000000e+00	1.91355781e-03	6.79906972e-05
2.25500000e+00	1.91164064e-03	6.66829902e-05
2.26000000e+00	1.91528687e-03	6.70341858e-05
2.26500000e+00	1.88967420e-03	6.64692745e-05
2.27000000e+00	1.87685138e-03	6.68703135e-05
2.27500000e+00	1.87249376e-03	6.53669993e-05
2.28000000e+00	1.86430210e-03	6.51155363e-05
2.28500000e+00	1.83400736e-03	6.44328014e-05
2.29000000e+00	1.82189818e-03	6.43855535e-05
2.29500000e+00	1.81195636e-03	6.38802500e-05
2.30000000e+00	1.79937415e-03	6.28806119e-05
2.30500000e+00	1.78775811e-03	6.25775847e-05
2.31000000e+00	1.79819956e-03	6.32509415e-05
2.31500000e+00	1.77689841e-03	6.30134707e-05
2.32000000e+00	1.76251036e-03	6.13146997e-05
2.32500000e+00	1.74398167e-03	6.11456853e-05
2.33000000e+00	1.73777634e-03	6.10301282e-05
2.33500000e+00	1.72596311e-03	6.12855529e-05
2.34000000e+00	1.71395028e-03	5.97890595e-05
2.34500000e+00	1.72082646e-03	6.00761805e-05
2.35000000e+00	1.68428945e-03	5.90649156e-05
2.35500000e+00	1.68471467e-03	5.97389694e-05
2.36000000e+00	1.65809234e-03	5.80444787e-05
2.36500000e+00	1.67214212e-03	5.84969278e-05
2.37000000e+00	1.64910482e-03	5.76938344e-05
2.37500000e+00	1.63348090e-03	5.75809012e-05
2.38000000e+00	1.63678529e-03	5.80752965e-05
2.38500000e+00	1.61445091e-03	5.64423304e-05
2.39000000e+00	1.60996161e-03	5.64269684e-05
2.39500000e+00	1.61632863e-03	5.69921023e-05
2.40000000e+00	1.58320677e-03	5.66239215e-05
2.40500000e+00	1.57554554e-03	5.51796479e-05
2.41000000e+00	1.56880570e-03	5.52574344e-05
2.41500000e+00	1.55989929e-03	5.49062417e-05
2.42000000e+00	1.54638316e-03	5.51601116e-05
2.42500000e+00	1.53957750e-03	5.47740801e-05
2.43000000e+00	1.54550395e-03	5.45117761e-05
2.43500000e+00	1.51907735e-03	5.37197802e-05
2.44000000e+00	1.52475941e-03	5.40257166e-05
2.44500000e+00	1.51064362e-03	5.43088047e-05
2.45000000e+00	1.49342353e-03	5.26695722e-05
2.45500000e+00	1.49460294e-03	5.29596462e-05
2.46000000e+00	1.47512250e-03	5.24659144e-05
2.46500000e+00	1.47273943e-03	5.30141309e-05
2.47000000e+00	1.46393524e-03	5.21622303e-05
2.47500000e+00	1.45685746e-03	5.15760377e-05
2.48000000e+00	1.44144911e-03	5.15038825e-05
2.48500000e+00	1.43797486e-03	5.13600293e-05
2.49000000e+00	1.41774855e-03	5.13524538e-05
2.49500000e+00	1.42628059e-03	5.06501694e-05
2.50000000e+00	1.42240111e-03	5.06751200e-05
2.50500000e+00	1.41637577e-03	5.07413762e-05
2.51000000e+00	1.41126828e-03	5.08987127e-05
2.51500000e+00	1.38794108e-03	5.01352121e-05
2.52000000e+00	1.39439338e-03	4.99785874e-05
2.52500000e+00	1.36883696e-03	4.92271970e-05
2.53000000e+00	1.36240564e-03	4.95014270e-05
2.53500000e+00	1.37001255e-03	5.03558153e-05
2.54000000e+00	1.34446034e-03	4.86466057e-05
2.54500000e+00	1.35724133e-03	4.93226425e-05
2.55000000e+00	1.33950669e-03	4.88889701e-05
2.55500000e+00	1.32582680e-03	4.87017597e-05
2.56000000e+00	1.32652270e-03	4.90627131e-05
2.56500000e+00	1.31224573e-03	4.80972228e-05
2.57000000e+00	1.31686395e-03	4.84452391e-05
2.57500000e+00	1.31566059e-03	4.85907858e-05
2.58000000e+00	1.28998485e-03	4.83952869e-05
2.58500000e+00	1.29581319e-03	4.82696042e-05
2.59000000e+00	1.28195633e-03	4.75549711e-05
2.59500000e+00	1.27444594e-03	4.74993544e-05
2.60000000e+00	1.26790850e-03	4.75424171e-05
2.60500000e+00	1.28375139e-03	4.93620593e-05
2.61000000e+00	1.26393795e-03	5.53393005e-05
2.61500000e+00	1.25668301e-03	6.08051897e-05
2.62000000e+00	1.22810155e-03	6.54632654e-05
2.62500000e+00	1.22285990e-03	7.03516254e-05
2.63000000e+00	1.25105384e-03	7.93030162e-05
2.63500000e+00	1.24085275e-03	8.73306061e-05
2.64000000e+00	1.25541749e-03	9.78025785e-05
2.64500000e+00	1.22903208e-03	1.01915558e-04
2.65000000e+00	1.20841472e-03	1.05764522e-04
2.65500000e+00	1.26041850e-03	1.19261437e-04
2.66000000e+00	1.24864638e-03	1.25961884e-04
2.66500000e+00	1.20905544e-03	1.37297246e-04
2.67000000e+00	1.20570882e-03	1.49219151e-04
2.67500000e+00	1.19118484e-03	1.71127262e-04
2.68000000e+00	1.17576599e-03	1.96984000e-04
2.68500000e+00	1.12105857e-03	2.49115462e-04
2.69000000e+00	1.32976113e-03	4.73931549e-04
2.69500000e+00	0.00000000e+00	0.00000000e+00
2.70000000e+00	0.00000000e+00	0.00000000e+00
