% Filename : WSW19_00030_00007.h5
% Date & Time : 30-Oct-2025 17:19:13
% X-ray Energy (keV) : 13.30001
% Exposure Time (s) : 0.500
% Photodiode Value : 140815.000
% I0 of Sample : 0
% I0 of Standard : 1
% 
% q(A^-1)   I(q)    I(q)_SE
8.40000000e-01	0.00000000e+00	0.00000000e+00
8.45000000e-01	2.85673320e-03	5.02211691e-04
8.50000000e-01	2.66410808e-03	2.47855659e-04
8.55000000e-01	2.60875089e-03	2.13199706e-04
8.60000000e-01	2.60427699e-03	1.84492744e-04
8.65000000e-01	2.61344632e-03	1.70366986e-04
8.70000000e-01	2.59155656e-03	1.61059859e-04
8.75000000e-01	2.61976992e-03	1.56697044e-04
8.80000000e-01	2.59966679e-03	1.50436585e-04
8.85000000e-01	2.61520399e-03	1.42865016e-04
8.90000000e-01	2.64718201e-03	1.41519280e-04
8.95000000e-01	2.63339286e-03	1.36889469e-04
9.00000000e-01	2.63377460e-03	1.35599684e-04
9.05000000e-01	2.65494001e-03	1.30743670e-04
9.10000000e-01	2.67231300e-03	1.29255184e-04
9.15000000e-01	2.65220053e-03	1.26167018e-04
9.20000000e-01	2.64089941e-03	1.25557919e-04
9.25000000e-01	2.70959318e-03	1.23224652e-04
9.30000000e-01	2.71741989e-03	1.22324282e-04
9.35000000e-01	2.68778832e-03	1.18622262e-04
9.40000000e-01	2.70932194e-03	1.19965663e-04
9.45000000e-01	2.70613339e-03	1.16836964e-04
9.50000000e-01	2.72101933e-03	1.15761790e-04
9.55000000e-01	2.70507073e-03	1.13022088e-04
9.60000000e-01	2.67814238e-03	1.11960697e-04
9.65000000e-01	2.71222693e-03	1.11412482e-04
9.70000000e-01	2.71637874e-03	1.09945439e-04
9.75000000e-01	2.73153462e-03	1.09238369e-04
9.80000000e-01	2.72739088e-03	1.08214672e-04
9.85000000e-01	2.72829674e-03	1.08314819e-04
9.90000000e-01	2.72486188e-03	1.04992918e-04
9.95000000e-01	2.73534991e-03	1.04784182e-04
1.00000000e+00	2.74065735e-03	1.04525323e-04
1.00500000e+00	2.72432579e-03	1.03969856e-04
1.01000000e+00	2.72193905e-03	1.01724502e-04
1.01500000e+00	2.75758516e-03	1.01963232e-04
1.02000000e+00	2.74748551e-03	1.01605042e-04
1.02500000e+00	2.69813454e-03	9.85554326e-05
1.03000000e+00	2.72223258e-03	9.90825357e-05
1.03500000e+00	2.71826858e-03	9.74482250e-05
1.04000000e+00	2.69744216e-03	9.63272945e-05
1.04500000e+00	2.70224439e-03	9.64585305e-05
1.05000000e+00	2.70935835e-03	9.61804583e-05
1.05500000e+00	2.70973625e-03	9.45912462e-05
1.06000000e+00	2.69667334e-03	9.39806620e-05
1.06500000e+00	2.70162246e-03	9.42256533e-05
1.07000000e+00	2.71108555e-03	9.44887976e-05
1.07500000e+00	2.72251755e-03	9.40643357e-05
1.08000000e+00	2.71168719e-03	9.32288236e-05
1.08500000e+00	2.74571320e-03	9.44075445e-05
1.09000000e+00	2.74078154e-03	9.47818530e-05
1.09500000e+00	2.72189202e-03	9.23503461e-05
1.10000000e+00	2.73957942e-03	9.34714337e-05
1.10500000e+00	2.74684345e-03	9.40299437e-05
1.11000000e+00	2.75994929e-03	9.44911231e-05
1.11500000e+00	2.76580784e-03	9.40728430e-05
1.12000000e+00	2.78445022e-03	9.49978837e-05
1.12500000e+00	2.79975658e-03	9.53308250e-05
1.13000000e+00	2.77650619e-03	9.56745520e-05
1.13500000e+00	2.80708408e-03	9.55391234e-05
1.14000000e+00	2.81027711e-03	9.55203851e-05
1.14500000e+00	2.82814598e-03	9.69354118e-05
1.15000000e+00	2.81988378e-03	9.71522504e-05
1.15500000e+00	2.81697169e-03	9.59563163e-05
1.16000000e+00	2.83950634e-03	9.70976194e-05
1.16500000e+00	2.83707521e-03	9.68820630e-05
1.17000000e+00	2.83618336e-03	9.79391952e-05
1.17500000e+00	2.84879337e-03	9.70643392e-05
1.18000000e+00	2.84056486e-03	9.71309855e-05
1.18500000e+00	2.84982514e-03	9.74371278e-05
1.19000000e+00	2.85002270e-03	9.84574287e-05
1.19500000e+00	2.87035153e-03	9.79488435e-05
1.20000000e+00	2.84888663e-03	9.76240542e-05
1.20500000e+00	2.87136946e-03	9.84078798e-05
1.21000000e+00	2.87116209e-03	9.96482864e-05
1.21500000e+00	2.88734821e-03	9.85738133e-05
1.22000000e+00	2.88798155e-03	9.86283889e-05
1.22500000e+00	2.88767595e-03	9.90999114e-05
1.23000000e+00	2.89593866e-03	1.00139456e-04
1.23500000e+00	2.89898057e-03	9.95298958e-05
1.24000000e+00	2.91477498e-03	9.96559192e-05
1.24500000e+00	2.88911024e-03	9.95513100e-05
1.25000000e+00	2.89271781e-03	1.00204644e-04
1.25500000e+00	2.88674744e-03	9.88894566e-05
1.26000000e+00	2.89626155e-03	9.97112443e-05
1.26500000e+00	2.88631342e-03	9.90696133e-05
1.27000000e+00	2.90959561e-03	1.01283409e-04
1.27500000e+00	2.92153020e-03	1.00625551e-04
1.28000000e+00	2.90451019e-03	9.94227408e-05
1.28500000e+00	2.90078558e-03	9.98715929e-05
1.29000000e+00	2.89801991e-03	1.00698232e-04
1.29500000e+00	2.92185421e-03	1.00463499e-04
1.30000000e+00	2.88970694e-03	9.91091240e-05
1.30500000e+00	2.88096358e-03	9.92923070e-05
1.31000000e+00	2.90489016e-03	1.01332667e-04
1.31500000e+00	2.93238417e-03	1.01047795e-04
1.32000000e+00	2.92044402e-03	1.00424764e-04
1.32500000e+00	2.89702429e-03	9.99171126e-05
1.33000000e+00	2.91105931e-03	1.01677169e-04
1.33500000e+00	2.91961772e-03	1.00544667e-04
1.34000000e+00	2.91592668e-03	1.00501456e-04
1.34500000e+00	2.90788575e-03	1.00661138e-04
1.35000000e+00	2.89070305e-03	1.00965746e-04
1.35500000e+00	2.91286257e-03	1.00403387e-04
1.36000000e+00	2.91214156e-03	1.00150734e-04
1.36500000e+00	2.90980049e-03	1.00371786e-04
1.37000000e+00	2.90184594e-03	1.01663945e-04
1.37500000e+00	2.91381210e-03	1.00462530e-04
1.38000000e+00	2.89427906e-03	9.99713149e-05
1.38500000e+00	2.89707623e-03	1.00645882e-04
1.39000000e+00	2.88582897e-03	1.01009135e-04
1.39500000e+00	2.89077250e-03	9.96081875e-05
1.40000000e+00	2.92395371e-03	1.03913332e-04
1.40500000e+00	2.87782483e-03	1.10019156e-04
1.41000000e+00	2.86386679e-03	1.14593337e-04
1.41500000e+00	2.81769985e-03	1.16892531e-04
1.42000000e+00	2.81277954e-03	1.21413425e-04
1.42500000e+00	2.81094660e-03	1.24993023e-04
1.43000000e+00	2.79765907e-03	1.29050564e-04
1.43500000e+00	2.82726883e-03	1.34221690e-04
1.44000000e+00	2.80104711e-03	1.38196837e-04
1.44500000e+00	2.79025422e-03	1.41393257e-04
1.45000000e+00	2.86334956e-03	1.40284851e-04
1.45500000e+00	2.86217436e-03	1.26039979e-04
1.46000000e+00	2.86791877e-03	1.23339755e-04
1.46500000e+00	2.86391789e-03	1.20882095e-04
1.47000000e+00	2.83056290e-03	1.19303544e-04
1.47500000e+00	2.84970981e-03	1.16590333e-04
1.48000000e+00	2.83846473e-03	1.14820578e-04
1.48500000e+00	2.83058829e-03	1.14597033e-04
1.49000000e+00	2.82678241e-03	1.14671469e-04
1.49500000e+00	2.85128049e-03	1.13093280e-04
1.50000000e+00	2.85857262e-03	1.12965540e-04
1.50500000e+00	2.84020921e-03	1.12876231e-04
1.51000000e+00	2.85083323e-03	1.13584181e-04
1.51500000e+00	2.86318597e-03	1.12210577e-04
1.52000000e+00	2.85443194e-03	1.11573876e-04
1.52500000e+00	2.87500113e-03	1.12158248e-04
1.53000000e+00	2.83484423e-03	1.11185428e-04
1.53500000e+00	2.86841261e-03	1.09312678e-04
1.54000000e+00	2.88420397e-03	1.09709108e-04
1.54500000e+00	2.83459802e-03	1.07642988e-04
1.55000000e+00	2.83075491e-03	1.07187785e-04
1.55500000e+00	2.82842859e-03	1.04642760e-04
1.56000000e+00	2.81069183e-03	1.04240805e-04
1.56500000e+00	2.81131823e-03	1.03809142e-04
1.57000000e+00	2.78186331e-03	1.01945187e-04
1.57500000e+00	2.77521994e-03	9.98747987e-05
1.58000000e+00	2.76021292e-03	9.91628467e-05
1.58500000e+00	2.76757687e-03	9.94129488e-05
1.59000000e+00	2.78289550e-03	1.00011220e-04
1.59500000e+00	2.75988201e-03	9.72711236e-05
1.60000000e+00	2.73962517e-03	9.65556456e-05
1.60500000e+00	2.72855553e-03	9.62354603e-05
1.61000000e+00	2.73752899e-03	9.61434204e-05
1.61500000e+00	2.71491033e-03	9.45143722e-05
1.62000000e+00	2.72481519e-03	9.52189731e-05
1.62500000e+00	2.71480004e-03	9.58945184e-05
1.63000000e+00	2.72478381e-03	9.52289380e-05
1.63500000e+00	2.70891850e-03	9.46544224e-05
1.64000000e+00	2.70072839e-03	9.44523033e-05
1.64500000e+00	2.69019785e-03	9.50870345e-05
1.65000000e+00	2.68267353e-03	9.38282006e-05
1.65500000e+00	2.66313820e-03	9.30846750e-05
1.66000000e+00	2.67734522e-03	9.36380593e-05
1.66500000e+00	2.67168512e-03	9.49509382e-05
1.67000000e+00	2.65648734e-03	9.25467634e-05
1.67500000e+00	2.64194629e-03	9.22463028e-05
1.68000000e+00	2.62931507e-03	9.21178660e-05
1.68500000e+00	2.63690559e-03	9.39822132e-05
1.69000000e+00	2.63076076e-03	9.18318942e-05
1.69500000e+00	2.61263247e-03	9.10579020e-05
1.70000000e+00	2.61759131e-03	9.22818537e-05
1.70500000e+00	2.62655076e-03	9.30156798e-05
1.71000000e+00	2.60801382e-03	9.11910546e-05
1.71500000e+00	2.60162382e-03	9.09076147e-05
1.72000000e+00	2.60088974e-03	9.15409858e-05
1.72500000e+00	2.59583401e-03	9.20120432e-05
1.73000000e+00	2.59421114e-03	9.06093309e-05
1.73500000e+00	2.58240414e-03	9.05417019e-05
1.74000000e+00	2.57928985e-03	9.06325600e-05
1.74500000e+00	2.56361338e-03	9.11289567e-05
1.75000000e+00	2.54299001e-03	8.86791677e-05
1.75500000e+00	2.54820041e-03	8.94704374e-05
1.76000000e+00	2.56204262e-03	8.98981045e-05
1.76500000e+00	2.54304350e-03	9.03576619e-05
1.77000000e+00	2.53278297e-03	8.85144659e-05
1.77500000e+00	2.55302195e-03	8.94585170e-05
1.78000000e+00	2.51826188e-03	8.85069277e-05
1.78500000e+00	2.51452306e-03	8.92805825e-05
1.79000000e+00	2.51122349e-03	8.76622683e-05
1.79500000e+00	2.51299904e-03	8.79752863e-05
1.80000000e+00	2.48571462e-03	8.75676582e-05
1.80500000e+00	2.48498675e-03	8.80901676e-05
1.81000000e+00	2.45582030e-03	8.58910477e-05
1.81500000e+00	2.47073084e-03	8.64622841e-05
1.82000000e+00	2.48213804e-03	8.73191331e-05
1.82500000e+00	2.44402987e-03	8.65592049e-05
1.83000000e+00	2.44372459e-03	8.54748509e-05
1.83500000e+00	2.44025645e-03	8.54983113e-05
1.84000000e+00	2.42599513e-03	8.54552749e-05
1.84500000e+00	2.44020574e-03	8.63844822e-05
1.85000000e+00	2.42869431e-03	8.50291173e-05
1.85500000e+00	2.41978693e-03	8.47818614e-05
1.86000000e+00	2.39509403e-03	8.45309058e-05
1.86500000e+00	2.41184559e-03	8.52610469e-05
1.87000000e+00	2.40387874e-03	8.40807846e-05
1.87500000e+00	2.42180264e-03	8.49707313e-05
1.88000000e+00	2.36126242e-03	8.32124403e-05
1.88500000e+00	2.36152040e-03	8.36151451e-05
1.89000000e+00	2.38745119e-03	8.34436664e-05
1.89500000e+00	2.36042146e-03	8.29525202e-05
1.90000000e+00	2.35487177e-03	8.30085214e-05
1.90500000e+00	2.34894119e-03	8.28770563e-05
1.91000000e+00	2.33398126e-03	8.18436676e-05
1.91500000e+00	2.31301253e-03	8.11403747e-05
1.92000000e+00	2.32656404e-03	8.19950955e-05
1.92500000e+00	2.33631463e-03	8.24839941e-05
1.93000000e+00	2.30339105e-03	8.05543584e-05
1.93500000e+00	2.29902264e-03	8.06545766e-05
1.94000000e+00	2.30559874e-03	8.15931456e-05
1.94500000e+00	2.27348872e-03	8.02124836e-05
1.95000000e+00	2.27855888e-03	7.96233038e-05
1.95500000e+00	2.27206639e-03	7.98176637e-05
1.96000000e+00	2.27122425e-03	8.02508585e-05
1.96500000e+00	2.25512304e-03	7.96449818e-05
1.97000000e+00	2.26529183e-03	7.90990627e-05
1.97500000e+00	2.23985833e-03	7.87215715e-05
1.98000000e+00	2.23846409e-03	7.89850540e-05
1.98500000e+00	2.22927762e-03	7.88545820e-05
1.99000000e+00	2.22680509e-03	7.78310838e-05
1.99500000e+00	2.22766988e-03	7.81988399e-05
2.00000000e+00	2.21849353e-03	7.83823709e-05
2.00500000e+00	2.24109238e-03	7.93560060e-05
2.01000000e+00	2.20764676e-03	8.57656315e-05
2.01500000e+00	2.17181257e-03	8.96130233e-05
2.02000000e+00	2.17083632e-03	9.55593723e-05
2.02500000e+00	2.16315223e-03	9.88591031e-05
2.03000000e+00	2.13195530e-03	1.03201534e-04
2.03500000e+00	2.10037569e-03	1.06262919e-04
2.04000000e+00	2.09195725e-03	1.10585709e-04
2.04500000e+00	2.09315134e-03	1.16317630e-04
2.05000000e+00	2.06691308e-03	1.20786545e-04
2.05500000e+00	2.07938521e-03	1.18859560e-04
2.06000000e+00	2.13278617e-03	1.06274199e-04
2.06500000e+00	2.07424554e-03	9.86332675e-05
2.07000000e+00	2.12077769e-03	9.56481776e-05
2.07500000e+00	2.11725373e-03	9.31692629e-05
2.08000000e+00	2.09397878e-03	9.19655418e-05
2.08500000e+00	2.09072827e-03	9.10401510e-05
2.09000000e+00	2.08287352e-03	8.79955807e-05
2.09500000e+00	2.09742643e-03	8.76240468e-05
2.10000000e+00	2.07808804e-03	8.63033982e-05
2.10500000e+00	2.06829725e-03	8.55629332e-05
2.11000000e+00	2.05736153e-03	8.20508172e-05
2.11500000e+00	2.04325838e-03	8.06734692e-05
2.12000000e+00	2.02599555e-03	7.95267482e-05
2.12500000e+00	2.02970966e-03	7.94692073e-05
2.13000000e+00	2.00933880e-03	7.55006959e-05
2.13500000e+00	1.98424953e-03	7.36475455e-05
2.14000000e+00	1.96129211e-03	7.21940494e-05
2.14500000e+00	1.94641504e-03	7.18065803e-05
2.15000000e+00	1.95708030e-03	6.98086217e-05
2.15500000e+00	1.95052261e-03	6.97124331e-05
2.16000000e+00	1.93495258e-03	6.88587858e-05
2.16500000e+00	1.94294560e-03	6.96118330e-05
2.17000000e+00	1.91715017e-03	6.70144577e-05
2.17500000e+00	1.90178090e-03	6.67051486e-05
2.18000000e+00	1.90043185e-03	6.67800802e-05
2.18500000e+00	1.88372232e-03	6.64894682e-05
2.19000000e+00	1.86845992e-03	6.57424199e-05
2.19500000e+00	1.85869639e-03	6.51284735e-05
2.20000000e+00	1.86047686e-03	6.53132432e-05
2.20500000e+00	1.86089161e-03	6.55016345e-05
2.21000000e+00	1.85228707e-03	6.55584892e-05
2.21500000e+00	1.83591555e-03	6.42540929e-05
2.22000000e+00	1.80776797e-03	6.33061633e-05
2.22500000e+00	1.81075803e-03	6.38712832e-05
2.23000000e+00	1.81328287e-03	6.43160999e-05
2.23500000e+00	1.77515719e-03	6.21005931e-05
2.24000000e+00	1.79372255e-03	6.27464351e-05
2.24500000e+00	1.78283717e-03	6.28772593e-05
2.25000000e+00	1.74232617e-03	6.19455533e-05
2.25500000e+00	1.73942780e-03	6.07250610e-05
2.26000000e+00	1.72934302e-03	6.05745091e-05
2.26500000e+00	1.71728590e-03	6.03522403e-05
2.27000000e+00	1.69849997e-03	6.05510384e-05
2.27500000e+00	1.70547735e-03	5.95524280e-05
2.28000000e+00	1.68058957e-03	5.87807624e-05
2.28500000e+00	1.67426971e-03	5.88491057e-05
2.29000000e+00	1.67429087e-03	5.91852915e-05
2.29500000e+00	1.65127159e-03	5.82046550e-05
2.30000000e+00	1.64742765e-03	5.75955354e-05
2.30500000e+00	1.63844755e-03	5.74357842e-05
2.31000000e+00	1.63953501e-03	5.77213363e-05
2.31500000e+00	1.62221684e-03	5.75779646e-05
2.32000000e+00	1.60179627e-03	5.57280945e-05
2.32500000e+00	1.58632960e-03	5.57159289e-05
2.33000000e+00	1.58937846e-03	5.58609809e-05
2.33500000e+00	1.57483678e-03	5.59043224e-05
2.34000000e+00	1.57034574e-03	5.48389133e-05
2.34500000e+00	1.54502745e-03	5.39706443e-05
2.35000000e+00	1.56644754e-03	5.49253716e-05
2.35500000e+00	1.52734005e-03	5.42784817e-05
2.36000000e+00	1.51888062e-03	5.32104920e-05
2.36500000e+00	1.52504844e-03	5.32885751e-05
2.37000000e+00	1.51230980e-03	5.30109382e-05
2.37500000e+00	1.48867166e-03	5.26197266e-05
2.38000000e+00	1.49458213e-03	5.29996623e-05
2.38500000e+00	1.48453662e-03	5.18719394e-05
2.39000000e+00	1.47668423e-03	5.17623279e-05
2.39500000e+00	1.47027897e-03	5.19383906e-05
2.40000000e+00	1.44859651e-03	5.18143292e-05
2.40500000e+00	1.45040173e-03	5.08411667e-05
2.41000000e+00	1.43853648e-03	5.05989969e-05
2.41500000e+00	1.42191462e-03	5.00784208e-05
2.42000000e+00	1.41981620e-03	5.06343946e-05
2.42500000e+00	1.41030015e-03	5.02547264e-05
2.43000000e+00	1.39018651e-03	4.89740028e-05
2.43500000e+00	1.40020223e-03	4.96642358e-05
2.44000000e+00	1.37518475e-03	4.88152533e-05
2.44500000e+00	1.37098069e-03	4.93089215e-05
2.45000000e+00	1.36455292e-03	4.82236609e-05
2.45500000e+00	1.37184081e-03	4.85925067e-05
2.46000000e+00	1.35300553e-03	4.81452977e-05
2.46500000e+00	1.34866724e-03	4.85283188e-05
2.47000000e+00	1.33062131e-03	4.74127382e-05
2.47500000e+00	1.33343471e-03	4.71649927e-05
2.48000000e+00	1.33188181e-03	4.76682774e-05
2.48500000e+00	1.30744352e-03	4.66994550e-05
2.49000000e+00	1.30602880e-03	4.73381565e-05
2.49500000e+00	1.28513737e-03	4.56522407e-05
2.50000000e+00	1.28000573e-03	4.56171403e-05
2.50500000e+00	1.28481969e-03	4.60667902e-05
2.51000000e+00	1.27612447e-03	4.60374836e-05
2.51500000e+00	1.27969955e-03	4.62875805e-05
2.52000000e+00	1.27173080e-03	4.55495585e-05
2.52500000e+00	1.24839105e-03	4.49906259e-05
2.53000000e+00	1.24727387e-03	4.53040800e-05
2.53500000e+00	1.23684827e-03	4.54964797e-05
2.54000000e+00	1.23174056e-03	4.45093631e-05
2.54500000e+00	1.22256563e-03	4.44188727e-05
2.55000000e+00	1.21839016e-03	4.44606781e-05
2.55500000e+00	1.20565258e-03	4.44108009e-05
2.56000000e+00	1.20467682e-03	4.45592150e-05
2.56500000e+00	1.19023664e-03	4.35580834e-05
2.57000000e+00	1.18173386e-03	4.35014826e-05
2.57500000e+00	1.17270874e-03	4.33054700e-05
2.58000000e+00	1.18274188e-03	4.44379364e-05
2.58500000e+00	1.18671260e-03	4.41457762e-05
2.59000000e+00	1.17323037e-03	4.35684174e-05
2.59500000e+00	1.15358786e-03	4.30000285e-05
2.60000000e+00	1.14712982e-03	4.30552637e-05
2.60500000e+00	1.17395397e-03	4.49974117e-05
2.61000000e+00	1.13890950e-03	4.97752739e-05
2.61500000e+00	1.12502997e-03	5.43621350e-05
2.62000000e+00	1.13961530e-03	6.05659863e-05
2.62500000e+00	1.10168753e-03	6.34658509e-05
2.63000000e+00	1.11310463e-03	7.08144509e-05
2.63500000e+00	1.09431276e-03	7.73162861e-05
2.64000000e+00	1.11753598e-03	8.70126179e-05
2.64500000e+00	1.08664991e-03	9.02695970e-05
2.65000000e+00	1.13850956e-03	9.96034269e-05
2.65500000e+00	1.09184009e-03	1.03140803e-04
2.66000000e+00	1.10668500e-03	1.12303470e-04
2.66500000e+00	1.08988164e-03	1.24098389e-04
2.67000000e+00	1.05250085e-03	1.30074636e-04
2.67500000e+00	1.00896004e-03	1.45219334e-04
2.68000000e+00	1.09283626e-03	1.82797163e-04
2.68500000e+00	1.05482599e-03	2.34798916e-04
2.69000000e+00	1.10722718e-03	3.97309925e-04
2.69500000e+00	0.00000000e+00	0.00000000e+00
2.70000000e+00	0.00000000e+00	0.00000000e+00
