% Filename : WSW19_00032_00010.h5
% Date & Time : 30-Oct-2025 17:20:41
% X-ray Energy (keV) : 13.30001
% Exposure Time (s) : 0.500
% Photodiode Value : 140612.000
% I0 of Sample : 0
% I0 of Standard : 1
% 
% q(A^-1)   I(q)    I(q)_SE
8.40000000e-01	0.00000000e+00	0.00000000e+00
8.45000000e-01	2.95666714e-03	5.18458798e-04
8.50000000e-01	2.81444153e-03	2.61300758e-04
8.55000000e-01	2.73674929e-03	2.23614278e-04
8.60000000e-01	2.71958407e-03	1.92315718e-04
8.65000000e-01	2.69252159e-03	1.75404445e-04
8.70000000e-01	2.67636820e-03	1.66269095e-04
8.75000000e-01	2.69611532e-03	1.61268180e-04
8.80000000e-01	2.70171770e-03	1.56166679e-04
8.85000000e-01	2.73964798e-03	1.49665611e-04
8.90000000e-01	2.72692558e-03	1.45839432e-04
8.95000000e-01	2.73317002e-03	1.42017007e-04
9.00000000e-01	2.76068281e-03	1.42136453e-04
9.05000000e-01	2.74274846e-03	1.35063020e-04
9.10000000e-01	2.73042322e-03	1.31926819e-04
9.15000000e-01	2.74775767e-03	1.30737307e-04
9.20000000e-01	2.74750634e-03	1.30601249e-04
9.25000000e-01	2.76935901e-03	1.25872296e-04
9.30000000e-01	2.79744116e-03	1.25839021e-04
9.35000000e-01	2.79632245e-03	1.23369362e-04
9.40000000e-01	2.79238689e-03	1.23616335e-04
9.45000000e-01	2.80155229e-03	1.20896408e-04
9.50000000e-01	2.78888543e-03	1.18630071e-04
9.55000000e-01	2.79324497e-03	1.16692863e-04
9.60000000e-01	2.80949285e-03	1.17524373e-04
9.65000000e-01	2.81715045e-03	1.15829786e-04
9.70000000e-01	2.84799480e-03	1.15287982e-04
9.75000000e-01	2.83686813e-03	1.13406992e-04
9.80000000e-01	2.84199353e-03	1.12763457e-04
9.85000000e-01	2.81573080e-03	1.11855847e-04
9.90000000e-01	2.82515994e-03	1.08835689e-04
9.95000000e-01	2.85503702e-03	1.09284966e-04
1.00000000e+00	2.84100603e-03	1.08372385e-04
1.00500000e+00	2.83232273e-03	1.07994008e-04
1.01000000e+00	2.85338832e-03	1.06569334e-04
1.01500000e+00	2.84451599e-03	1.05110598e-04
1.02000000e+00	2.85814776e-03	1.05623026e-04
1.02500000e+00	2.81928347e-03	1.02907147e-04
1.03000000e+00	2.85421489e-03	1.03878768e-04
1.03500000e+00	2.83544230e-03	1.01747584e-04
1.04000000e+00	2.83241593e-03	1.00934704e-04
1.04500000e+00	2.80496569e-03	1.00067425e-04
1.05000000e+00	2.82894495e-03	1.00300662e-04
1.05500000e+00	2.80660945e-03	9.79389284e-05
1.06000000e+00	2.80657514e-03	9.77411974e-05
1.06500000e+00	2.80741139e-03	9.78203313e-05
1.07000000e+00	2.82567270e-03	9.81981681e-05
1.07500000e+00	2.84256038e-03	9.82037666e-05
1.08000000e+00	2.84486972e-03	9.75928981e-05
1.08500000e+00	2.84657570e-03	9.77638326e-05
1.09000000e+00	2.85870183e-03	9.87883282e-05
1.09500000e+00	2.84496573e-03	9.64007245e-05
1.10000000e+00	2.86992774e-03	9.77950412e-05
1.10500000e+00	2.88209056e-03	9.85242283e-05
1.11000000e+00	2.85679338e-03	9.78123393e-05
1.11500000e+00	2.88889474e-03	9.81239757e-05
1.12000000e+00	2.93142923e-03	1.00040323e-04
1.12500000e+00	2.91590387e-03	9.92004558e-05
1.13000000e+00	2.92374936e-03	1.00761193e-04
1.13500000e+00	2.93660496e-03	9.98832713e-05
1.14000000e+00	2.93200830e-03	9.95763407e-05
1.14500000e+00	2.92279163e-03	1.00029665e-04
1.15000000e+00	2.92417536e-03	1.00581981e-04
1.15500000e+00	2.95437067e-03	1.00569880e-04
1.16000000e+00	2.94810239e-03	1.00662741e-04
1.16500000e+00	2.95940834e-03	1.00966594e-04
1.17000000e+00	2.95756053e-03	1.02202728e-04
1.17500000e+00	2.97738721e-03	1.01423644e-04
1.18000000e+00	2.98562845e-03	1.02066278e-04
1.18500000e+00	2.98059103e-03	1.01754742e-04
1.19000000e+00	2.97316219e-03	1.02639290e-04
1.19500000e+00	3.02402032e-03	1.03047512e-04
1.20000000e+00	3.01233758e-03	1.03228458e-04
1.20500000e+00	2.99352623e-03	1.02434541e-04
1.21000000e+00	3.03162348e-03	1.05030904e-04
1.21500000e+00	3.02052196e-03	1.03077798e-04
1.22000000e+00	3.00993937e-03	1.02843914e-04
1.22500000e+00	3.03069613e-03	1.03887218e-04
1.23000000e+00	3.02525278e-03	1.04551544e-04
1.23500000e+00	3.02446434e-03	1.03774874e-04
1.24000000e+00	3.03870706e-03	1.03795045e-04
1.24500000e+00	3.04841928e-03	1.04951029e-04
1.25000000e+00	3.00079414e-03	1.03734783e-04
1.25500000e+00	3.06200135e-03	1.04783864e-04
1.26000000e+00	3.04484685e-03	1.04753204e-04
1.26500000e+00	3.05349473e-03	1.04655234e-04
1.27000000e+00	3.04480116e-03	1.05904014e-04
1.27500000e+00	3.04780177e-03	1.04990889e-04
1.28000000e+00	3.06171546e-03	1.04777175e-04
1.28500000e+00	3.03615031e-03	1.04459189e-04
1.29000000e+00	3.06616960e-03	1.06463238e-04
1.29500000e+00	3.06050422e-03	1.05107539e-04
1.30000000e+00	3.05092103e-03	1.04627597e-04
1.30500000e+00	3.04894554e-03	1.05070500e-04
1.31000000e+00	3.05704559e-03	1.06508978e-04
1.31500000e+00	3.05831225e-03	1.05280763e-04
1.32000000e+00	3.07825955e-03	1.05834918e-04
1.32500000e+00	3.06901109e-03	1.05801883e-04
1.33000000e+00	3.07843157e-03	1.07445000e-04
1.33500000e+00	3.07514107e-03	1.05827828e-04
1.34000000e+00	3.04920464e-03	1.05016235e-04
1.34500000e+00	3.06716608e-03	1.06155779e-04
1.35000000e+00	3.07676113e-03	1.07367391e-04
1.35500000e+00	3.05375755e-03	1.05133984e-04
1.36000000e+00	3.05514305e-03	1.04990873e-04
1.36500000e+00	3.05376880e-03	1.05320739e-04
1.37000000e+00	3.04652494e-03	1.06647712e-04
1.37500000e+00	3.06378838e-03	1.05606906e-04
1.38000000e+00	3.08085959e-03	1.06442644e-04
1.38500000e+00	3.04812505e-03	1.05808839e-04
1.39000000e+00	3.05487058e-03	1.06755426e-04
1.39500000e+00	3.06948805e-03	1.05748905e-04
1.40000000e+00	3.08839808e-03	1.09479053e-04
1.40500000e+00	3.04593867e-03	1.16412104e-04
1.41000000e+00	3.02897150e-03	1.21146106e-04
1.41500000e+00	3.03665220e-03	1.25828831e-04
1.42000000e+00	2.99635634e-03	1.29161554e-04
1.42500000e+00	2.97996698e-03	1.32370171e-04
1.43000000e+00	2.98773783e-03	1.37764011e-04
1.43500000e+00	2.98014771e-03	1.41578187e-04
1.44000000e+00	2.95522826e-03	1.45985574e-04
1.44500000e+00	2.95302351e-03	1.49443053e-04
1.45000000e+00	3.01693721e-03	1.47991218e-04
1.45500000e+00	3.02771761e-03	1.33059189e-04
1.46000000e+00	3.03679717e-03	1.30468990e-04
1.46500000e+00	3.02826705e-03	1.27734839e-04
1.47000000e+00	3.03346393e-03	1.27752666e-04
1.47500000e+00	3.03391630e-03	1.23954298e-04
1.48000000e+00	3.03196917e-03	1.22570870e-04
1.48500000e+00	3.00235973e-03	1.21435079e-04
1.49000000e+00	3.01885280e-03	1.22429839e-04
1.49500000e+00	3.01527205e-03	1.19550719e-04
1.50000000e+00	3.00514918e-03	1.18808980e-04
1.50500000e+00	3.04299184e-03	1.20889425e-04
1.51000000e+00	3.03919587e-03	1.21015540e-04
1.51500000e+00	3.02848656e-03	1.18704637e-04
1.52000000e+00	3.06517310e-03	1.19687739e-04
1.52500000e+00	3.03943569e-03	1.18522695e-04
1.53000000e+00	3.03467225e-03	1.19035540e-04
1.53500000e+00	3.05650662e-03	1.16473401e-04
1.54000000e+00	3.01785032e-03	1.14757310e-04
1.54500000e+00	3.01571338e-03	1.14544148e-04
1.55000000e+00	3.00265738e-03	1.13705873e-04
1.55500000e+00	2.99510845e-03	1.10830589e-04
1.56000000e+00	2.99138731e-03	1.10937737e-04
1.56500000e+00	2.98033211e-03	1.09959722e-04
1.57000000e+00	2.95179537e-03	1.08123317e-04
1.57500000e+00	2.95307324e-03	1.06117437e-04
1.58000000e+00	2.95639303e-03	1.06111138e-04
1.58500000e+00	2.94558454e-03	1.05761098e-04
1.59000000e+00	2.92628682e-03	1.05247628e-04
1.59500000e+00	2.92263422e-03	1.02930522e-04
1.60000000e+00	2.89469712e-03	1.01863394e-04
1.60500000e+00	2.89526057e-03	1.02094908e-04
1.61000000e+00	2.89252140e-03	1.01429560e-04
1.61500000e+00	2.86876224e-03	9.98173578e-05
1.62000000e+00	2.88641863e-03	1.00803116e-04
1.62500000e+00	2.87741418e-03	1.01639505e-04
1.63000000e+00	2.86471943e-03	1.00076083e-04
1.63500000e+00	2.86268966e-03	1.00000179e-04
1.64000000e+00	2.86023229e-03	1.00023550e-04
1.64500000e+00	2.86314835e-03	1.01155834e-04
1.65000000e+00	2.81992551e-03	9.85362257e-05
1.65500000e+00	2.83007286e-03	9.88858874e-05
1.66000000e+00	2.82554509e-03	9.87188942e-05
1.66500000e+00	2.83683014e-03	1.00875166e-04
1.67000000e+00	2.82626149e-03	9.83764656e-05
1.67500000e+00	2.80754564e-03	9.79319609e-05
1.68000000e+00	2.82781139e-03	9.90087055e-05
1.68500000e+00	2.77441060e-03	9.87768352e-05
1.69000000e+00	2.80154226e-03	9.77551433e-05
1.69500000e+00	2.77923280e-03	9.68112697e-05
1.70000000e+00	2.77172659e-03	9.77002509e-05
1.70500000e+00	2.78304919e-03	9.84453793e-05
1.71000000e+00	2.78214555e-03	9.71892851e-05
1.71500000e+00	2.77462123e-03	9.69011154e-05
1.72000000e+00	2.75403278e-03	9.69155642e-05
1.72500000e+00	2.74676035e-03	9.73276621e-05
1.73000000e+00	2.75187469e-03	9.62847827e-05
1.73500000e+00	2.72954847e-03	9.57028734e-05
1.74000000e+00	2.75099666e-03	9.66534703e-05
1.74500000e+00	2.73502368e-03	9.71762044e-05
1.75000000e+00	2.73618266e-03	9.53385699e-05
1.75500000e+00	2.71714084e-03	9.53823984e-05
1.76000000e+00	2.71491073e-03	9.51928887e-05
1.76500000e+00	2.69768291e-03	9.57878672e-05
1.77000000e+00	2.68616278e-03	9.38501974e-05
1.77500000e+00	2.69072835e-03	9.43127598e-05
1.78000000e+00	2.65811796e-03	9.33975436e-05
1.78500000e+00	2.68350594e-03	9.53175802e-05
1.79000000e+00	2.68222708e-03	9.36515111e-05
1.79500000e+00	2.66167594e-03	9.32727393e-05
1.80000000e+00	2.66227185e-03	9.37595439e-05
1.80500000e+00	2.65769274e-03	9.42166525e-05
1.81000000e+00	2.66999705e-03	9.32258091e-05
1.81500000e+00	2.62928701e-03	9.18972664e-05
1.82000000e+00	2.64390480e-03	9.30504710e-05
1.82500000e+00	2.65091904e-03	9.38822725e-05
1.83000000e+00	2.63015981e-03	9.19779077e-05
1.83500000e+00	2.64901452e-03	9.27091103e-05
1.84000000e+00	2.63651362e-03	9.28765614e-05
1.84500000e+00	2.62475869e-03	9.28712078e-05
1.85000000e+00	2.61831893e-03	9.16110369e-05
1.85500000e+00	2.60506472e-03	9.12469324e-05
1.86000000e+00	2.58493206e-03	9.11281759e-05
1.86500000e+00	2.59380982e-03	9.16497961e-05
1.87000000e+00	2.57734637e-03	9.00914720e-05
1.87500000e+00	2.58371135e-03	9.06085718e-05
1.88000000e+00	2.54779887e-03	8.96734134e-05
1.88500000e+00	2.55749395e-03	9.06192376e-05
1.89000000e+00	2.54388081e-03	8.88777844e-05
1.89500000e+00	2.56079506e-03	8.99928852e-05
1.90000000e+00	2.54574220e-03	8.97673556e-05
1.90500000e+00	2.53641933e-03	8.94629954e-05
1.91000000e+00	2.51886122e-03	8.81903568e-05
1.91500000e+00	2.49241854e-03	8.73713541e-05
1.92000000e+00	2.49064337e-03	8.78035436e-05
1.92500000e+00	2.50530282e-03	8.84323217e-05
1.93000000e+00	2.47883808e-03	8.67125447e-05
1.93500000e+00	2.47388111e-03	8.68664296e-05
1.94000000e+00	2.45147211e-03	8.66891843e-05
1.94500000e+00	2.44363764e-03	8.61064490e-05
1.95000000e+00	2.43580946e-03	8.50577785e-05
1.95500000e+00	2.45152610e-03	8.60010472e-05
1.96000000e+00	2.42073120e-03	8.54733403e-05
1.96500000e+00	2.44012922e-03	8.61980502e-05
1.97000000e+00	2.40835876e-03	8.40235431e-05
1.97500000e+00	2.37801410e-03	8.34968157e-05
1.98000000e+00	2.39812970e-03	8.46018239e-05
1.98500000e+00	2.36410047e-03	8.35688279e-05
1.99000000e+00	2.38462891e-03	8.32458106e-05
1.99500000e+00	2.34053492e-03	8.20935181e-05
2.00000000e+00	2.35861517e-03	8.32396314e-05
2.00500000e+00	2.37707214e-03	8.40882791e-05
2.01000000e+00	2.34894407e-03	9.13238141e-05
2.01500000e+00	2.35025742e-03	9.68943802e-05
2.02000000e+00	2.31790128e-03	1.01883678e-04
2.02500000e+00	2.30375219e-03	1.05368498e-04
2.03000000e+00	2.30748172e-03	1.11700618e-04
2.03500000e+00	2.27149156e-03	1.14785516e-04
2.04000000e+00	2.26418620e-03	1.19583692e-04
2.04500000e+00	2.26529115e-03	1.25833031e-04
2.05000000e+00	2.24876028e-03	1.31222488e-04
2.05500000e+00	2.24619877e-03	1.28498389e-04
2.06000000e+00	2.28575559e-03	1.13688385e-04
2.06500000e+00	2.26164981e-03	1.07419044e-04
2.07000000e+00	2.27585087e-03	1.02469863e-04
2.07500000e+00	2.25799102e-03	9.93936810e-05
2.08000000e+00	2.30044729e-03	1.00997658e-04
2.08500000e+00	2.25798703e-03	9.83213868e-05
2.09000000e+00	2.26096051e-03	9.55170248e-05
2.09500000e+00	2.24824819e-03	9.38746900e-05
2.10000000e+00	2.22890350e-03	9.24927842e-05
2.10500000e+00	2.25970999e-03	9.35268312e-05
2.11000000e+00	2.22323734e-03	8.85347758e-05
2.11500000e+00	2.22196749e-03	8.76849364e-05
2.12000000e+00	2.18092613e-03	8.56502796e-05
2.12500000e+00	2.18485140e-03	8.55352663e-05
2.13000000e+00	2.16693911e-03	8.13615520e-05
2.13500000e+00	2.15955778e-03	8.01161541e-05
2.14000000e+00	2.14102674e-03	7.87756357e-05
2.14500000e+00	2.14046710e-03	7.88605041e-05
2.15000000e+00	2.12784189e-03	7.58879450e-05
2.15500000e+00	2.10900385e-03	7.52732200e-05
2.16000000e+00	2.11597748e-03	7.52204606e-05
2.16500000e+00	2.10750790e-03	7.53773740e-05
2.17000000e+00	2.09902028e-03	7.32711005e-05
2.17500000e+00	2.07730361e-03	7.27081098e-05
2.18000000e+00	2.07077631e-03	7.27050451e-05
2.18500000e+00	2.04855543e-03	7.22654061e-05
2.19000000e+00	2.05562990e-03	7.22860892e-05
2.19500000e+00	2.04024362e-03	7.13812627e-05
2.20000000e+00	2.02942127e-03	7.12054822e-05
2.20500000e+00	2.02197325e-03	7.10956969e-05
2.21000000e+00	2.00620179e-03	7.09191106e-05
2.21500000e+00	1.98055590e-03	6.92631216e-05
2.22000000e+00	1.98771130e-03	6.94192420e-05
2.22500000e+00	1.95069828e-03	6.87248446e-05
2.23000000e+00	1.95243421e-03	6.91672417e-05
2.23500000e+00	1.93190623e-03	6.74865482e-05
2.24000000e+00	1.92302401e-03	6.72158216e-05
2.24500000e+00	1.92537587e-03	6.78140610e-05
2.25000000e+00	1.88662147e-03	6.69947702e-05
2.25500000e+00	1.89476023e-03	6.61234878e-05
2.26000000e+00	1.86722333e-03	6.53364827e-05
2.26500000e+00	1.85693638e-03	6.52223502e-05
2.27000000e+00	1.83867710e-03	6.55175530e-05
2.27500000e+00	1.82993659e-03	6.38906994e-05
2.28000000e+00	1.83025038e-03	6.38973143e-05
2.28500000e+00	1.81370746e-03	6.37340018e-05
2.29000000e+00	1.80715646e-03	6.37996553e-05
2.29500000e+00	1.78114902e-03	6.28054474e-05
2.30000000e+00	1.77403647e-03	6.19880527e-05
2.30500000e+00	1.77357658e-03	6.21208258e-05
2.31000000e+00	1.76419079e-03	6.21239026e-05
2.31500000e+00	1.73858503e-03	6.17118596e-05
2.32000000e+00	1.71859685e-03	5.97509648e-05
2.32500000e+00	1.71863173e-03	6.02501942e-05
2.33000000e+00	1.69167477e-03	5.94040859e-05
2.33500000e+00	1.70108098e-03	6.03400739e-05
2.34000000e+00	1.68165428e-03	5.86997918e-05
2.34500000e+00	1.67660350e-03	5.85330317e-05
2.35000000e+00	1.64133789e-03	5.75000361e-05
2.35500000e+00	1.65091686e-03	5.86870311e-05
2.36000000e+00	1.63015536e-03	5.71287145e-05
2.36500000e+00	1.63688583e-03	5.72168733e-05
2.37000000e+00	1.61783411e-03	5.66826313e-05
2.37500000e+00	1.60269497e-03	5.65577382e-05
2.38000000e+00	1.58370397e-03	5.62047456e-05
2.38500000e+00	1.58511251e-03	5.53983689e-05
2.39000000e+00	1.56835673e-03	5.49555465e-05
2.39500000e+00	1.55227945e-03	5.47583195e-05
2.40000000e+00	1.57194436e-03	5.62293662e-05
2.40500000e+00	1.54770266e-03	5.42666955e-05
2.41000000e+00	1.53682099e-03	5.41021798e-05
2.41500000e+00	1.54360424e-03	5.43345396e-05
2.42000000e+00	1.52089025e-03	5.42113908e-05
2.42500000e+00	1.51377263e-03	5.38942055e-05
2.43000000e+00	1.49915659e-03	5.29178122e-05
2.43500000e+00	1.49450796e-03	5.28264596e-05
2.44000000e+00	1.47595093e-03	5.23671936e-05
2.44500000e+00	1.45255338e-03	5.22326184e-05
2.45000000e+00	1.46338614e-03	5.15757360e-05
2.45500000e+00	1.46428105e-03	5.18645539e-05
2.46000000e+00	1.45868333e-03	5.18398426e-05
2.46500000e+00	1.43148096e-03	5.15017857e-05
2.47000000e+00	1.42614451e-03	5.07393615e-05
2.47500000e+00	1.44457405e-03	5.11483953e-05
2.48000000e+00	1.41474185e-03	5.05571920e-05
2.48500000e+00	1.41294918e-03	5.05084153e-05
2.49000000e+00	1.40860414e-03	5.09723225e-05
2.49500000e+00	1.39012659e-03	4.93874060e-05
2.50000000e+00	1.39910799e-03	4.98506963e-05
2.50500000e+00	1.38177350e-03	4.94789067e-05
2.51000000e+00	1.36859689e-03	4.93459502e-05
2.51500000e+00	1.37907496e-03	4.98103347e-05
2.52000000e+00	1.35228166e-03	4.83913185e-05
2.52500000e+00	1.35442081e-03	4.87588970e-05
2.53000000e+00	1.34673160e-03	4.89755481e-05
2.53500000e+00	1.32749554e-03	4.87447661e-05
2.54000000e+00	1.33302389e-03	4.81899369e-05
2.54500000e+00	1.32420307e-03	4.81109800e-05
2.55000000e+00	1.31836489e-03	4.80974360e-05
2.55500000e+00	1.30347787e-03	4.78642884e-05
2.56000000e+00	1.29963254e-03	4.80723804e-05
2.56500000e+00	1.29276735e-03	4.73807087e-05
2.57000000e+00	1.27728060e-03	4.69893083e-05
2.57500000e+00	1.28309044e-03	4.73706492e-05
2.58000000e+00	1.27395804e-03	4.77888958e-05
2.58500000e+00	1.24642032e-03	4.64363087e-05
2.59000000e+00	1.24828647e-03	4.62897165e-05
2.59500000e+00	1.24951441e-03	4.65958907e-05
2.60000000e+00	1.24228284e-03	4.65794389e-05
2.60500000e+00	1.25291124e-03	4.81249190e-05
2.61000000e+00	1.23077324e-03	5.37750579e-05
2.61500000e+00	1.20320750e-03	5.81702223e-05
2.62000000e+00	1.19630953e-03	6.36431901e-05
2.62500000e+00	1.21791937e-03	7.00800791e-05
2.63000000e+00	1.21040600e-03	7.68848590e-05
2.63500000e+00	1.23134098e-03	8.67070319e-05
2.64000000e+00	1.21527836e-03	9.42054563e-05
2.64500000e+00	1.23677813e-03	1.02490595e-04
2.65000000e+00	1.22949766e-03	1.07662731e-04
2.65500000e+00	1.17230686e-03	1.10753626e-04
2.66000000e+00	1.22744295e-03	1.24057226e-04
2.66500000e+00	1.25301181e-03	1.42137375e-04
2.67000000e+00	1.19593616e-03	1.47345318e-04
2.67500000e+00	1.19556456e-03	1.72136438e-04
2.68000000e+00	1.18651197e-03	1.99758190e-04
2.68500000e+00	1.18625083e-03	2.62921877e-04
2.69000000e+00	1.12889801e-03	4.02792105e-04
2.69500000e+00	0.00000000e+00	0.00000000e+00
2.70000000e+00	0.00000000e+00	0.00000000e+00
