% Filename : WSW20_00038_00021.h5
% Date & Time : 30-Oct-2025 17:44:12
% X-ray Energy (keV) : 13.30001
% Exposure Time (s) : 0.500
% Photodiode Value : 140505.000
% I0 of Sample : 0
% I0 of Standard : 1
% 
% q(A^-1)   I(q)    I(q)_SE
8.40000000e-01	0.00000000e+00	0.00000000e+00
8.45000000e-01	3.80241694e-03	6.65513328e-04
8.50000000e-01	3.51029088e-03	3.24811898e-04
8.55000000e-01	3.43911036e-03	2.80616687e-04
8.60000000e-01	3.43028083e-03	2.42076158e-04
8.65000000e-01	3.41235387e-03	2.22397687e-04
8.70000000e-01	3.44228303e-03	2.13474363e-04
8.75000000e-01	3.44956375e-03	2.05878526e-04
8.80000000e-01	3.43492245e-03	1.98094294e-04
8.85000000e-01	3.47735215e-03	1.89741707e-04
8.90000000e-01	3.45082190e-03	1.84206947e-04
8.95000000e-01	3.43751211e-03	1.78201311e-04
9.00000000e-01	3.46066234e-03	1.77837188e-04
9.05000000e-01	3.46868882e-03	1.70575420e-04
9.10000000e-01	3.49519792e-03	1.68531617e-04
9.15000000e-01	3.46095496e-03	1.64386921e-04
9.20000000e-01	3.49201496e-03	1.65714246e-04
9.25000000e-01	3.51900621e-03	1.59715628e-04
9.30000000e-01	3.48001291e-03	1.56352057e-04
9.35000000e-01	3.53399532e-03	1.55741367e-04
9.40000000e-01	3.52523010e-03	1.55728794e-04
9.45000000e-01	3.54142864e-03	1.52504669e-04
9.50000000e-01	3.54401715e-03	1.50411001e-04
9.55000000e-01	3.55150181e-03	1.48048687e-04
9.60000000e-01	3.53990245e-03	1.47727709e-04
9.65000000e-01	3.59279877e-03	1.47440279e-04
9.70000000e-01	3.56830738e-03	1.44050272e-04
9.75000000e-01	3.58369483e-03	1.43067738e-04
9.80000000e-01	3.63654122e-03	1.43939521e-04
9.85000000e-01	3.62555003e-03	1.43533154e-04
9.90000000e-01	3.61482233e-03	1.38801820e-04
9.95000000e-01	3.64498621e-03	1.39283971e-04
1.00000000e+00	3.64462700e-03	1.38644765e-04
1.00500000e+00	3.66547740e-03	1.39401247e-04
1.01000000e+00	3.64354366e-03	1.35632202e-04
1.01500000e+00	3.70794514e-03	1.36668168e-04
1.02000000e+00	3.68073607e-03	1.35597553e-04
1.02500000e+00	3.67361587e-03	1.33659593e-04
1.03000000e+00	3.68023625e-03	1.33285967e-04
1.03500000e+00	3.66212342e-03	1.30861647e-04
1.04000000e+00	3.66076100e-03	1.29857474e-04
1.04500000e+00	3.68090843e-03	1.30760577e-04
1.05000000e+00	3.65496930e-03	1.28826815e-04
1.05500000e+00	3.66201540e-03	1.26977374e-04
1.06000000e+00	3.69750719e-03	1.28006801e-04
1.06500000e+00	3.68276588e-03	1.27812095e-04
1.07000000e+00	3.69113968e-03	1.27691045e-04
1.07500000e+00	3.71582860e-03	1.27513153e-04
1.08000000e+00	3.72799508e-03	1.27197429e-04
1.08500000e+00	3.73674137e-03	1.27637697e-04
1.09000000e+00	3.74484426e-03	1.28603563e-04
1.09500000e+00	3.76548023e-03	1.26868876e-04
1.10000000e+00	3.75616491e-03	1.27339737e-04
1.10500000e+00	3.80460051e-03	1.29330165e-04
1.11000000e+00	3.78023766e-03	1.28705566e-04
1.11500000e+00	3.81578894e-03	1.28934074e-04
1.12000000e+00	3.82716410e-03	1.29896427e-04
1.12500000e+00	3.84658280e-03	1.30224370e-04
1.13000000e+00	3.85668413e-03	1.32040747e-04
1.13500000e+00	3.87077761e-03	1.31006331e-04
1.14000000e+00	3.87566239e-03	1.30959041e-04
1.14500000e+00	3.89057944e-03	1.32555688e-04
1.15000000e+00	3.88085334e-03	1.32885914e-04
1.15500000e+00	3.92872320e-03	1.33084606e-04
1.16000000e+00	3.92098183e-03	1.33369487e-04
1.16500000e+00	3.91527093e-03	1.32972423e-04
1.17000000e+00	3.94448109e-03	1.35707076e-04
1.17500000e+00	3.95391586e-03	1.34038728e-04
1.18000000e+00	3.93321440e-03	1.33897094e-04
1.18500000e+00	3.96760296e-03	1.35010185e-04
1.19000000e+00	3.95639331e-03	1.36062521e-04
1.19500000e+00	3.97943782e-03	1.35177594e-04
1.20000000e+00	4.01239672e-03	1.37132784e-04
1.20500000e+00	4.01916653e-03	1.37074757e-04
1.21000000e+00	4.02594659e-03	1.39021264e-04
1.21500000e+00	4.02139658e-03	1.36704494e-04
1.22000000e+00	4.02425448e-03	1.36989468e-04
1.22500000e+00	4.03577274e-03	1.37900314e-04
1.23000000e+00	4.04494327e-03	1.39278314e-04
1.23500000e+00	4.05588698e-03	1.38724706e-04
1.24000000e+00	4.05267690e-03	1.37919319e-04
1.24500000e+00	4.08594359e-03	1.40124545e-04
1.25000000e+00	4.06594225e-03	1.40242404e-04
1.25500000e+00	4.09392871e-03	1.39577112e-04
1.26000000e+00	4.07817651e-03	1.39876977e-04
1.26500000e+00	4.11615584e-03	1.40713775e-04
1.27000000e+00	4.09194884e-03	1.41837349e-04
1.27500000e+00	4.11650835e-03	1.41284254e-04
1.28000000e+00	4.12395827e-03	1.40697724e-04
1.28500000e+00	4.13690455e-03	1.41929226e-04
1.29000000e+00	4.13007434e-03	1.42963862e-04
1.29500000e+00	4.14366324e-03	1.41915363e-04
1.30000000e+00	4.14370365e-03	1.41646723e-04
1.30500000e+00	4.17118911e-03	1.43268370e-04
1.31000000e+00	4.17950804e-03	1.45242555e-04
1.31500000e+00	4.16483681e-03	1.42981341e-04
1.32000000e+00	4.16350735e-03	1.42660364e-04
1.32500000e+00	4.19522423e-03	1.44252103e-04
1.33000000e+00	4.20022431e-03	1.46079620e-04
1.33500000e+00	4.21478025e-03	1.44654738e-04
1.34000000e+00	4.17499557e-03	1.43431192e-04
1.34500000e+00	4.21427288e-03	1.45294854e-04
1.35000000e+00	4.19730826e-03	1.46066406e-04
1.35500000e+00	4.21951187e-03	1.44935930e-04
1.36000000e+00	4.19508968e-03	1.43846184e-04
1.36500000e+00	4.21018882e-03	1.44894456e-04
1.37000000e+00	4.24657927e-03	1.48223504e-04
1.37500000e+00	4.27858613e-03	1.47072189e-04
1.38000000e+00	4.23576538e-03	1.45956532e-04
1.38500000e+00	4.24593264e-03	1.47030469e-04
1.39000000e+00	4.26478342e-03	1.48671420e-04
1.39500000e+00	4.25463174e-03	1.46160935e-04
1.40000000e+00	4.29059306e-03	1.51783005e-04
1.40500000e+00	4.28794747e-03	1.63251096e-04
1.41000000e+00	4.29254065e-03	1.71089083e-04
1.41500000e+00	4.26582092e-03	1.76290775e-04
1.42000000e+00	4.25733948e-03	1.83013800e-04
1.42500000e+00	4.27239448e-03	1.89058505e-04
1.43000000e+00	4.25920445e-03	1.95686644e-04
1.43500000e+00	4.28027764e-03	2.02598230e-04
1.44000000e+00	4.30970329e-03	2.11846880e-04
1.44500000e+00	4.28071209e-03	2.16031859e-04
1.45000000e+00	4.36708357e-03	2.13042693e-04
1.45500000e+00	4.39865381e-03	1.92637765e-04
1.46000000e+00	4.36066001e-03	1.86593502e-04
1.46500000e+00	4.33074606e-03	1.82056407e-04
1.47000000e+00	4.34254332e-03	1.82253620e-04
1.47500000e+00	4.34202222e-03	1.76868513e-04
1.48000000e+00	4.33118224e-03	1.74595136e-04
1.48500000e+00	4.31466819e-03	1.74043319e-04
1.49000000e+00	4.31388805e-03	1.74554369e-04
1.49500000e+00	4.31736036e-03	1.70822469e-04
1.50000000e+00	4.29182597e-03	1.69070594e-04
1.50500000e+00	4.28207886e-03	1.69696895e-04
1.51000000e+00	4.32228295e-03	1.71627864e-04
1.51500000e+00	4.37705716e-03	1.71008765e-04
1.52000000e+00	4.38844945e-03	1.70879243e-04
1.52500000e+00	4.40825770e-03	1.71424756e-04
1.53000000e+00	4.35335814e-03	1.70344035e-04
1.53500000e+00	4.32539489e-03	1.64440384e-04
1.54000000e+00	4.30872156e-03	1.63538971e-04
1.54500000e+00	4.24315403e-03	1.60733880e-04
1.55000000e+00	4.26114474e-03	1.61028341e-04
1.55500000e+00	4.24073835e-03	1.56566615e-04
1.56000000e+00	4.21555344e-03	1.56021601e-04
1.56500000e+00	4.21320867e-03	1.55141806e-04
1.57000000e+00	4.15036939e-03	1.51732760e-04
1.57500000e+00	4.15940113e-03	1.49168331e-04
1.58000000e+00	4.16130040e-03	1.48983820e-04
1.58500000e+00	4.15953221e-03	1.48996081e-04
1.59000000e+00	4.15230809e-03	1.48839264e-04
1.59500000e+00	4.12582573e-03	1.45034764e-04
1.60000000e+00	4.13210508e-03	1.45078931e-04
1.60500000e+00	4.12254693e-03	1.44888443e-04
1.61000000e+00	4.10574032e-03	1.43663595e-04
1.61500000e+00	4.12364010e-03	1.42970793e-04
1.62000000e+00	4.09494934e-03	1.42687644e-04
1.62500000e+00	4.09989788e-03	1.44473174e-04
1.63000000e+00	4.09269834e-03	1.42617677e-04
1.63500000e+00	4.06634098e-03	1.41710737e-04
1.64000000e+00	4.07404690e-03	1.42144193e-04
1.64500000e+00	4.08075924e-03	1.43867826e-04
1.65000000e+00	4.08040925e-03	1.42338231e-04
1.65500000e+00	4.06341325e-03	1.41482382e-04
1.66000000e+00	4.04854385e-03	1.41243886e-04
1.66500000e+00	4.04522830e-03	1.43421902e-04
1.67000000e+00	4.04781488e-03	1.40518384e-04
1.67500000e+00	4.03335706e-03	1.40441939e-04
1.68000000e+00	4.02017225e-03	1.40395332e-04
1.68500000e+00	4.04000723e-03	1.43458391e-04
1.69000000e+00	4.02833672e-03	1.40260602e-04
1.69500000e+00	4.02159035e-03	1.39764363e-04
1.70000000e+00	4.01757812e-03	1.41317031e-04
1.70500000e+00	3.99232790e-03	1.40985207e-04
1.71000000e+00	3.99599139e-03	1.39300443e-04
1.71500000e+00	3.98012504e-03	1.38736977e-04
1.72000000e+00	3.96460261e-03	1.39164777e-04
1.72500000e+00	4.02008533e-03	1.42067629e-04
1.73000000e+00	3.95975553e-03	1.38024417e-04
1.73500000e+00	3.95139184e-03	1.38098146e-04
1.74000000e+00	3.93372925e-03	1.37887800e-04
1.74500000e+00	3.93948914e-03	1.39654442e-04
1.75000000e+00	3.96112061e-03	1.37737731e-04
1.75500000e+00	3.96051117e-03	1.38615367e-04
1.76000000e+00	3.93527564e-03	1.37652454e-04
1.76500000e+00	3.93177777e-03	1.39305887e-04
1.77000000e+00	3.92022445e-03	1.36587577e-04
1.77500000e+00	3.92253000e-03	1.37009919e-04
1.78000000e+00	3.94624145e-03	1.38275207e-04
1.78500000e+00	3.96457759e-03	1.40426317e-04
1.79000000e+00	3.98677439e-03	1.38836724e-04
1.79500000e+00	3.99308103e-03	1.39501559e-04
1.80000000e+00	4.00246927e-03	1.40728132e-04
1.80500000e+00	4.00022429e-03	1.41556270e-04
1.81000000e+00	4.04789088e-03	1.41033571e-04
1.81500000e+00	4.03481758e-03	1.40687869e-04
1.82000000e+00	3.99333976e-03	1.40194828e-04
1.82500000e+00	3.98624700e-03	1.40716578e-04
1.83000000e+00	3.99405598e-03	1.39231948e-04
1.83500000e+00	4.02781306e-03	1.40703675e-04
1.84000000e+00	3.96015332e-03	1.39113577e-04
1.84500000e+00	3.98135329e-03	1.40597628e-04
1.85000000e+00	3.94651757e-03	1.37787658e-04
1.85500000e+00	3.94412552e-03	1.37860115e-04
1.86000000e+00	3.93963439e-03	1.38563895e-04
1.86500000e+00	3.92084249e-03	1.38200172e-04
1.87000000e+00	3.91830420e-03	1.36613551e-04
1.87500000e+00	3.89523636e-03	1.36208674e-04
1.88000000e+00	3.86745978e-03	1.35868901e-04
1.88500000e+00	3.86088860e-03	1.36385079e-04
1.89000000e+00	3.85232217e-03	1.34224414e-04
1.89500000e+00	3.84650863e-03	1.34800083e-04
1.90000000e+00	3.82601918e-03	1.34504851e-04
1.90500000e+00	3.79957682e-03	1.33608859e-04
1.91000000e+00	3.81992947e-03	1.33433831e-04
1.91500000e+00	3.79429731e-03	1.32652939e-04
1.92000000e+00	3.78164071e-03	1.32812222e-04
1.92500000e+00	3.71790651e-03	1.30800843e-04
1.93000000e+00	3.71932677e-03	1.29605671e-04
1.93500000e+00	3.67131763e-03	1.28354198e-04
1.94000000e+00	3.66081338e-03	1.29031817e-04
1.94500000e+00	3.65678635e-03	1.28502578e-04
1.95000000e+00	3.64239906e-03	1.26822133e-04
1.95500000e+00	3.57124281e-03	1.24912759e-04
1.96000000e+00	3.56213566e-03	1.25323400e-04
1.96500000e+00	3.53444701e-03	1.24435947e-04
1.97000000e+00	3.51644915e-03	1.22302314e-04
1.97500000e+00	3.51522214e-03	1.23122197e-04
1.98000000e+00	3.47517429e-03	1.22211747e-04
1.98500000e+00	3.46377796e-03	1.22067773e-04
1.99000000e+00	3.43863445e-03	1.19624034e-04
1.99500000e+00	3.41614874e-03	1.19494552e-04
2.00000000e+00	3.43485924e-03	1.20868362e-04
2.00500000e+00	3.43485817e-03	1.21117934e-04
2.01000000e+00	3.36674125e-03	1.30252699e-04
2.01500000e+00	3.35968389e-03	1.38135738e-04
2.02000000e+00	3.35680745e-03	1.47012031e-04
2.02500000e+00	3.33673193e-03	1.51920866e-04
2.03000000e+00	3.30357133e-03	1.59379259e-04
2.03500000e+00	3.30393693e-03	1.66444345e-04
2.04000000e+00	3.27854134e-03	1.72534052e-04
2.04500000e+00	3.25346832e-03	1.80086618e-04
2.05000000e+00	3.26266372e-03	1.89780547e-04
2.05500000e+00	3.28962574e-03	1.87359810e-04
2.06000000e+00	3.34682505e-03	1.66003064e-04
2.06500000e+00	3.31891012e-03	1.57246080e-04
2.07000000e+00	3.34319320e-03	1.49917569e-04
2.07500000e+00	3.29427927e-03	1.44462001e-04
2.08000000e+00	3.29564862e-03	1.44189459e-04
2.08500000e+00	3.34183792e-03	1.45107471e-04
2.09000000e+00	3.32608322e-03	1.40039589e-04
2.09500000e+00	3.33886523e-03	1.39202176e-04
2.10000000e+00	3.34419133e-03	1.38480494e-04
2.10500000e+00	3.32387291e-03	1.37150897e-04
2.11000000e+00	3.31526556e-03	1.31777138e-04
2.11500000e+00	3.32966558e-03	1.30962145e-04
2.12000000e+00	3.30932248e-03	1.29562830e-04
2.12500000e+00	3.30652102e-03	1.29063373e-04
2.13000000e+00	3.26016049e-03	1.21950006e-04
2.13500000e+00	3.32459186e-03	1.22952313e-04
2.14000000e+00	3.28700834e-03	1.20505623e-04
2.14500000e+00	3.28929585e-03	1.20818529e-04
2.15000000e+00	3.26327258e-03	1.15935366e-04
2.15500000e+00	3.24163979e-03	1.15327225e-04
2.16000000e+00	3.23920440e-03	1.14768912e-04
2.16500000e+00	3.24124762e-03	1.15597308e-04
2.17000000e+00	3.25085422e-03	1.13100627e-04
2.17500000e+00	3.21363905e-03	1.12114696e-04
2.18000000e+00	3.20348624e-03	1.12144553e-04
2.18500000e+00	3.19974621e-03	1.12494773e-04
2.19000000e+00	3.15856402e-03	1.10707578e-04
2.19500000e+00	3.11866797e-03	1.08714544e-04
2.20000000e+00	3.10879598e-03	1.08716686e-04
2.20500000e+00	3.06677068e-03	1.07575090e-04
2.21000000e+00	3.03093351e-03	1.06822598e-04
2.21500000e+00	3.01114488e-03	1.04952632e-04
2.22000000e+00	2.98493021e-03	1.03977370e-04
2.22500000e+00	2.95875520e-03	1.03856825e-04
2.23000000e+00	2.93021926e-03	1.03480120e-04
2.23500000e+00	2.90701822e-03	1.01222988e-04
2.24000000e+00	2.91111965e-03	1.01415862e-04
2.24500000e+00	2.85232183e-03	1.00014026e-04
2.25000000e+00	2.83139083e-03	1.00248519e-04
2.25500000e+00	2.79473515e-03	9.71853622e-05
2.26000000e+00	2.77713997e-03	9.68312723e-05
2.26500000e+00	2.76845969e-03	9.68872893e-05
2.27000000e+00	2.71902758e-03	9.65230306e-05
2.27500000e+00	2.71335102e-03	9.43304164e-05
2.28000000e+00	2.72198211e-03	9.47897820e-05
2.28500000e+00	2.66378893e-03	9.32732932e-05
2.29000000e+00	2.65670172e-03	9.35986277e-05
2.29500000e+00	2.65468099e-03	9.32367353e-05
2.30000000e+00	2.64459343e-03	9.20401877e-05
2.30500000e+00	2.61065025e-03	9.10459838e-05
2.31000000e+00	2.60488738e-03	9.13603212e-05
2.31500000e+00	2.56867642e-03	9.07770436e-05
2.32000000e+00	2.57911373e-03	8.93141642e-05
2.32500000e+00	2.56212119e-03	8.95256748e-05
2.33000000e+00	2.51750780e-03	8.81109529e-05
2.33500000e+00	2.52260634e-03	8.91428158e-05
2.34000000e+00	2.51275471e-03	8.73299651e-05
2.34500000e+00	2.49166321e-03	8.66741075e-05
2.35000000e+00	2.45552425e-03	8.57128477e-05
2.35500000e+00	2.46294119e-03	8.70271393e-05
2.36000000e+00	2.43640730e-03	8.49364273e-05
2.36500000e+00	2.40951419e-03	8.38798481e-05
2.37000000e+00	2.39639372e-03	8.35410886e-05
2.37500000e+00	2.38782286e-03	8.40278697e-05
2.38000000e+00	2.36347892e-03	8.34958953e-05
2.38500000e+00	2.34659390e-03	8.16560475e-05
2.39000000e+00	2.32684206e-03	8.13507541e-05
2.39500000e+00	2.33671007e-03	8.21165394e-05
2.40000000e+00	2.32127539e-03	8.26709752e-05
2.40500000e+00	2.29353731e-03	8.00601675e-05
2.41000000e+00	2.30446694e-03	8.07452101e-05
2.41500000e+00	2.27359713e-03	7.97690182e-05
2.42000000e+00	2.26328347e-03	8.03972330e-05
2.42500000e+00	2.26955633e-03	8.04822483e-05
2.43000000e+00	2.24424240e-03	7.88896823e-05
2.43500000e+00	2.21363242e-03	7.80563244e-05
2.44000000e+00	2.22810955e-03	7.89053601e-05
2.44500000e+00	2.20884188e-03	7.91231196e-05
2.45000000e+00	2.19827273e-03	7.73364238e-05
2.45500000e+00	2.18352406e-03	7.71681891e-05
2.46000000e+00	2.13951366e-03	7.58979895e-05
2.46500000e+00	2.15598316e-03	7.74278299e-05
2.47000000e+00	2.15002099e-03	7.63122452e-05
2.47500000e+00	2.11464115e-03	7.47002318e-05
2.48000000e+00	2.11577570e-03	7.54844093e-05
2.48500000e+00	2.11503900e-03	7.54601591e-05
2.49000000e+00	2.09291456e-03	7.57799623e-05
2.49500000e+00	2.12172793e-03	7.52709210e-05
2.50000000e+00	2.09686932e-03	7.45653746e-05
2.50500000e+00	2.09310655e-03	7.48826923e-05
2.51000000e+00	2.07692572e-03	7.48293749e-05
2.51500000e+00	2.07745298e-03	7.49596905e-05
2.52000000e+00	2.05464006e-03	7.35463393e-05
2.52500000e+00	2.04190669e-03	7.34720722e-05
2.53000000e+00	2.02096909e-03	7.33398102e-05
2.53500000e+00	2.03965686e-03	7.48847511e-05
2.54000000e+00	2.02234247e-03	7.29523469e-05
2.54500000e+00	2.02218300e-03	7.32852182e-05
2.55000000e+00	2.01246825e-03	7.33303141e-05
2.55500000e+00	1.99220711e-03	7.31677438e-05
2.56000000e+00	1.99909057e-03	7.38331806e-05
2.56500000e+00	1.98335758e-03	7.25614143e-05
2.57000000e+00	1.97936621e-03	7.27058847e-05
2.57500000e+00	1.98162543e-03	7.29834851e-05
2.58000000e+00	1.95272446e-03	7.31809382e-05
2.58500000e+00	1.95777824e-03	7.27301525e-05
2.59000000e+00	1.95280328e-03	7.23266912e-05
2.59500000e+00	1.94613963e-03	7.22917499e-05
2.60000000e+00	1.94375508e-03	7.28203518e-05
2.60500000e+00	1.95938754e-03	7.50823883e-05
2.61000000e+00	1.91536888e-03	8.37469612e-05
2.61500000e+00	1.88604252e-03	9.12424687e-05
2.62000000e+00	1.87252149e-03	9.99208381e-05
2.62500000e+00	1.84571010e-03	1.06822277e-04
2.63000000e+00	1.85623653e-03	1.18275766e-04
2.63500000e+00	1.94130741e-03	1.36943043e-04
2.64000000e+00	1.95486271e-03	1.51134203e-04
2.64500000e+00	1.97858280e-03	1.63407975e-04
2.65000000e+00	2.00632538e-03	1.74708931e-04
2.65500000e+00	1.95724771e-03	1.83011541e-04
2.66000000e+00	1.98691307e-03	1.99671893e-04
2.66500000e+00	1.93316374e-03	2.18097297e-04
2.67000000e+00	1.96526984e-03	2.40640653e-04
2.67500000e+00	1.97825668e-03	2.84377286e-04
2.68000000e+00	1.93891700e-03	3.21464269e-04
2.68500000e+00	2.09138082e-03	4.60944908e-04
2.69000000e+00	1.83267455e-03	6.57812886e-04
2.69500000e+00	0.00000000e+00	0.00000000e+00
2.70000000e+00	0.00000000e+00	0.00000000e+00
