% Filename : WSW20_00038_00014.h5
% Date & Time : 30-Oct-2025 17:43:52
% X-ray Energy (keV) : 13.30001
% Exposure Time (s) : 0.500
% Photodiode Value : 141592.000
% I0 of Sample : 0
% I0 of Standard : 1
% 
% q(A^-1)   I(q)    I(q)_SE
8.40000000e-01	0.00000000e+00	0.00000000e+00
8.45000000e-01	3.32520831e-03	5.83413889e-04
8.50000000e-01	3.15431156e-03	2.92233754e-04
8.55000000e-01	3.06526435e-03	2.50475844e-04
8.60000000e-01	3.04596847e-03	2.15287460e-04
8.65000000e-01	3.02079623e-03	1.96531751e-04
8.70000000e-01	2.98993064e-03	1.85601309e-04
8.75000000e-01	3.04035846e-03	1.81810018e-04
8.80000000e-01	3.04157994e-03	1.75582548e-04
8.85000000e-01	3.07419382e-03	1.67830865e-04
8.90000000e-01	3.07372337e-03	1.64290778e-04
8.95000000e-01	3.10516639e-03	1.61342097e-04
9.00000000e-01	3.11280087e-03	1.60107805e-04
9.05000000e-01	3.10201530e-03	1.52555020e-04
9.10000000e-01	3.11348742e-03	1.50379735e-04
9.15000000e-01	3.10421015e-03	1.47442171e-04
9.20000000e-01	3.11892302e-03	1.48144813e-04
9.25000000e-01	3.12097867e-03	1.41734088e-04
9.30000000e-01	3.13371939e-03	1.40895738e-04
9.35000000e-01	3.15028558e-03	1.38914586e-04
9.40000000e-01	3.16416561e-03	1.39799337e-04
9.45000000e-01	3.15707891e-03	1.36187685e-04
9.50000000e-01	3.17579758e-03	1.34852992e-04
9.55000000e-01	3.19628144e-03	1.33250902e-04
9.60000000e-01	3.18942684e-03	1.33193121e-04
9.65000000e-01	3.20236117e-03	1.31518758e-04
9.70000000e-01	3.21192645e-03	1.29748008e-04
9.75000000e-01	3.21085405e-03	1.28303299e-04
9.80000000e-01	3.20729688e-03	1.26982590e-04
9.85000000e-01	3.20912763e-03	1.27255346e-04
9.90000000e-01	3.22444397e-03	1.23897945e-04
9.95000000e-01	3.26486334e-03	1.24960706e-04
1.00000000e+00	3.27423527e-03	1.24613347e-04
1.00500000e+00	3.25162782e-03	1.23732962e-04
1.01000000e+00	3.26694263e-03	1.21656207e-04
1.01500000e+00	3.24927842e-03	1.19822075e-04
1.02000000e+00	3.23836206e-03	1.19424260e-04
1.02500000e+00	3.26301390e-03	1.18849457e-04
1.03000000e+00	3.27942533e-03	1.19076207e-04
1.03500000e+00	3.27890738e-03	1.17274322e-04
1.04000000e+00	3.24859085e-03	1.15478434e-04
1.04500000e+00	3.25450227e-03	1.15745340e-04
1.05000000e+00	3.26349832e-03	1.15286452e-04
1.05500000e+00	3.23901316e-03	1.12587257e-04
1.06000000e+00	3.25190079e-03	1.12900248e-04
1.06500000e+00	3.27952427e-03	1.14002418e-04
1.07000000e+00	3.27030749e-03	1.13207972e-04
1.07500000e+00	3.28386927e-03	1.12931953e-04
1.08000000e+00	3.30038692e-03	1.12795862e-04
1.08500000e+00	3.32048417e-03	1.13533925e-04
1.09000000e+00	3.31727092e-03	1.14036253e-04
1.09500000e+00	3.31335996e-03	1.11755227e-04
1.10000000e+00	3.33521611e-03	1.13186550e-04
1.10500000e+00	3.36660471e-03	1.14668198e-04
1.11000000e+00	3.35586425e-03	1.14352625e-04
1.11500000e+00	3.37514297e-03	1.14262251e-04
1.12000000e+00	3.36619021e-03	1.14366492e-04
1.12500000e+00	3.37375468e-03	1.14304867e-04
1.13000000e+00	3.38616211e-03	1.16191686e-04
1.13500000e+00	3.39639533e-03	1.15127733e-04
1.14000000e+00	3.39924724e-03	1.15045298e-04
1.14500000e+00	3.42124943e-03	1.16662534e-04
1.15000000e+00	3.44325986e-03	1.18077264e-04
1.15500000e+00	3.43141657e-03	1.16443881e-04
1.16000000e+00	3.42603173e-03	1.16663461e-04
1.16500000e+00	3.44355518e-03	1.17187787e-04
1.17000000e+00	3.45174897e-03	1.18782462e-04
1.17500000e+00	3.46738741e-03	1.17704222e-04
1.18000000e+00	3.47524144e-03	1.18520831e-04
1.18500000e+00	3.44417555e-03	1.17317025e-04
1.19000000e+00	3.45785612e-03	1.19001991e-04
1.19500000e+00	3.49088671e-03	1.18744766e-04
1.20000000e+00	3.47599465e-03	1.18987339e-04
1.20500000e+00	3.47153058e-03	1.18550621e-04
1.21000000e+00	3.49703352e-03	1.20889925e-04
1.21500000e+00	3.51041223e-03	1.19502646e-04
1.22000000e+00	3.48595857e-03	1.18748992e-04
1.22500000e+00	3.50746702e-03	1.20001404e-04
1.23000000e+00	3.49518124e-03	1.20520189e-04
1.23500000e+00	3.51787938e-03	1.20502454e-04
1.24000000e+00	3.53086445e-03	1.20399062e-04
1.24500000e+00	3.50704298e-03	1.20544947e-04
1.25000000e+00	3.53875434e-03	1.22231242e-04
1.25500000e+00	3.54815397e-03	1.21101562e-04
1.26000000e+00	3.54768967e-03	1.21770348e-04
1.26500000e+00	3.53297065e-03	1.20876257e-04
1.27000000e+00	3.55471511e-03	1.23363011e-04
1.27500000e+00	3.55398458e-03	1.22149277e-04
1.28000000e+00	3.55368770e-03	1.21372589e-04
1.28500000e+00	3.57471826e-03	1.22751059e-04
1.29000000e+00	3.55185890e-03	1.23166981e-04
1.29500000e+00	3.57135545e-03	1.22507865e-04
1.30000000e+00	3.53658811e-03	1.21107670e-04
1.30500000e+00	3.55626240e-03	1.22366681e-04
1.31000000e+00	3.56396332e-03	1.24094032e-04
1.31500000e+00	3.59183206e-03	1.23437207e-04
1.32000000e+00	3.57878738e-03	1.22782891e-04
1.32500000e+00	3.55853402e-03	1.22498205e-04
1.33000000e+00	3.58598673e-03	1.24965591e-04
1.33500000e+00	3.59426939e-03	1.23558172e-04
1.34000000e+00	3.59956745e-03	1.23806720e-04
1.34500000e+00	3.58059005e-03	1.23554194e-04
1.35000000e+00	3.57682001e-03	1.24649270e-04
1.35500000e+00	3.58171948e-03	1.23080785e-04
1.36000000e+00	3.60531202e-03	1.23757814e-04
1.36500000e+00	3.58274988e-03	1.23346715e-04
1.37000000e+00	3.60206939e-03	1.25848312e-04
1.37500000e+00	3.59235519e-03	1.23666928e-04
1.38000000e+00	3.59809113e-03	1.24053823e-04
1.38500000e+00	3.59795193e-03	1.24709702e-04
1.39000000e+00	3.57616158e-03	1.24849929e-04
1.39500000e+00	3.59892915e-03	1.23781289e-04
1.40000000e+00	3.64039289e-03	1.29028654e-04
1.40500000e+00	3.57476783e-03	1.36277475e-04
1.41000000e+00	3.57520153e-03	1.42795245e-04
1.41500000e+00	3.56408861e-03	1.47434025e-04
1.42000000e+00	3.52926340e-03	1.51913693e-04
1.42500000e+00	3.54918492e-03	1.57363119e-04
1.43000000e+00	3.51732022e-03	1.61866479e-04
1.43500000e+00	3.53118144e-03	1.67378109e-04
1.44000000e+00	3.52735537e-03	1.73780595e-04
1.44500000e+00	3.49723613e-03	1.76614187e-04
1.45000000e+00	3.61181410e-03	1.76445955e-04
1.45500000e+00	3.57698700e-03	1.57180111e-04
1.46000000e+00	3.63035612e-03	1.55575050e-04
1.46500000e+00	3.62362619e-03	1.52575804e-04
1.47000000e+00	3.60990326e-03	1.51749614e-04
1.47500000e+00	3.57286169e-03	1.45708365e-04
1.48000000e+00	3.57094844e-03	1.44066290e-04
1.48500000e+00	3.55404024e-03	1.43536161e-04
1.49000000e+00	3.57446893e-03	1.44679093e-04
1.49500000e+00	3.56100031e-03	1.41087995e-04
1.50000000e+00	3.56964790e-03	1.40860575e-04
1.50500000e+00	3.57812869e-03	1.41920701e-04
1.51000000e+00	3.56688171e-03	1.41726604e-04
1.51500000e+00	3.62058568e-03	1.41560059e-04
1.52000000e+00	3.59026288e-03	1.40006171e-04
1.52500000e+00	3.62423216e-03	1.41160857e-04
1.53000000e+00	3.59950443e-03	1.41034452e-04
1.53500000e+00	3.57609928e-03	1.36128470e-04
1.54000000e+00	3.59655896e-03	1.36749110e-04
1.54500000e+00	3.55953347e-03	1.34995608e-04
1.55000000e+00	3.54039903e-03	1.33930587e-04
1.55500000e+00	3.52954378e-03	1.30486870e-04
1.56000000e+00	3.52296299e-03	1.30493763e-04
1.56500000e+00	3.50704285e-03	1.29218103e-04
1.57000000e+00	3.50082068e-03	1.28141091e-04
1.57500000e+00	3.48391977e-03	1.25157282e-04
1.58000000e+00	3.47606085e-03	1.24597073e-04
1.58500000e+00	3.43556157e-03	1.23188485e-04
1.59000000e+00	3.46303719e-03	1.24309638e-04
1.59500000e+00	3.41936951e-03	1.20285267e-04
1.60000000e+00	3.41401354e-03	1.20057761e-04
1.60500000e+00	3.41801785e-03	1.20259462e-04
1.61000000e+00	3.41967475e-03	1.19855497e-04
1.61500000e+00	3.40116424e-03	1.18067486e-04
1.62000000e+00	3.39453625e-03	1.18379703e-04
1.62500000e+00	3.36974910e-03	1.18886846e-04
1.63000000e+00	3.40437571e-03	1.18799411e-04
1.63500000e+00	3.39480755e-03	1.18476313e-04
1.64000000e+00	3.38889477e-03	1.18258301e-04
1.64500000e+00	3.37255272e-03	1.18956083e-04
1.65000000e+00	3.36896714e-03	1.17617214e-04
1.65500000e+00	3.36476630e-03	1.17313345e-04
1.66000000e+00	3.35158491e-03	1.17006984e-04
1.66500000e+00	3.35943455e-03	1.19262554e-04
1.67000000e+00	3.35308559e-03	1.16572237e-04
1.67500000e+00	3.35827562e-03	1.16960840e-04
1.68000000e+00	3.33526955e-03	1.16544075e-04
1.68500000e+00	3.33134984e-03	1.18451161e-04
1.69000000e+00	3.33186134e-03	1.16060801e-04
1.69500000e+00	3.31552977e-03	1.15318831e-04
1.70000000e+00	3.28800191e-03	1.15672014e-04
1.70500000e+00	3.29018803e-03	1.16257448e-04
1.71000000e+00	3.30086079e-03	1.15167542e-04
1.71500000e+00	3.30952637e-03	1.15477656e-04
1.72000000e+00	3.28689248e-03	1.15519152e-04
1.72500000e+00	3.31482996e-03	1.17263871e-04
1.73000000e+00	3.30534853e-03	1.15376928e-04
1.73500000e+00	3.30004892e-03	1.15510909e-04
1.74000000e+00	3.29173326e-03	1.15496660e-04
1.74500000e+00	3.31373675e-03	1.17673460e-04
1.75000000e+00	3.28417138e-03	1.14361340e-04
1.75500000e+00	3.30042313e-03	1.15648003e-04
1.76000000e+00	3.32833057e-03	1.16538882e-04
1.76500000e+00	3.34882843e-03	1.18821496e-04
1.77000000e+00	3.35183863e-03	1.16996413e-04
1.77500000e+00	3.42075354e-03	1.19685125e-04
1.78000000e+00	3.45640977e-03	1.21431170e-04
1.78500000e+00	3.52179541e-03	1.25069394e-04
1.79000000e+00	3.63102136e-03	1.26993670e-04
1.79500000e+00	3.70931080e-03	1.30262232e-04
1.80000000e+00	3.76420641e-03	1.33142697e-04
1.80500000e+00	3.72657915e-03	1.32627674e-04
1.81000000e+00	3.71687216e-03	1.30170148e-04
1.81500000e+00	3.60243639e-03	1.26173256e-04
1.82000000e+00	3.51584200e-03	1.23761614e-04
1.82500000e+00	3.44375857e-03	1.21859158e-04
1.83000000e+00	3.42972742e-03	1.19830940e-04
1.83500000e+00	3.37371514e-03	1.18071581e-04
1.84000000e+00	3.37103026e-03	1.18575938e-04
1.84500000e+00	3.33927365e-03	1.18046565e-04
1.85000000e+00	3.33235489e-03	1.16451535e-04
1.85500000e+00	3.31464394e-03	1.15905713e-04
1.86000000e+00	3.29899399e-03	1.16154329e-04
1.86500000e+00	3.33902472e-03	1.17836684e-04
1.87000000e+00	3.30182860e-03	1.15212207e-04
1.87500000e+00	3.29570182e-03	1.15353326e-04
1.88000000e+00	3.30506632e-03	1.16169020e-04
1.88500000e+00	3.29179960e-03	1.16385285e-04
1.89000000e+00	3.29306190e-03	1.14834723e-04
1.89500000e+00	3.30143849e-03	1.15687578e-04
1.90000000e+00	3.29102086e-03	1.15767571e-04
1.90500000e+00	3.26064616e-03	1.14805962e-04
1.91000000e+00	3.25615425e-03	1.13819952e-04
1.91500000e+00	3.24764789e-03	1.13549055e-04
1.92000000e+00	3.23173498e-03	1.13632722e-04
1.92500000e+00	3.22292907e-03	1.13546454e-04
1.93000000e+00	3.19015886e-03	1.11298030e-04
1.93500000e+00	3.15086443e-03	1.10274977e-04
1.94000000e+00	3.11976199e-03	1.10077570e-04
1.94500000e+00	3.09913756e-03	1.09056558e-04
1.95000000e+00	3.07701975e-03	1.07307638e-04
1.95500000e+00	3.03140444e-03	1.06086119e-04
1.96000000e+00	3.02247077e-03	1.06426290e-04
1.96500000e+00	3.01180346e-03	1.06161313e-04
1.97000000e+00	2.98534662e-03	1.03946208e-04
1.97500000e+00	2.97352260e-03	1.04250634e-04
1.98000000e+00	2.94611932e-03	1.03712646e-04
1.98500000e+00	2.92324708e-03	1.03099068e-04
1.99000000e+00	2.90725349e-03	1.01193498e-04
1.99500000e+00	2.88569425e-03	1.01030566e-04
2.00000000e+00	2.85834562e-03	1.00790362e-04
2.00500000e+00	2.86626037e-03	1.01176310e-04
2.01000000e+00	2.84042522e-03	1.10057843e-04
2.01500000e+00	2.82137452e-03	1.16165659e-04
2.02000000e+00	2.81097899e-03	1.23328857e-04
2.02500000e+00	2.80174406e-03	1.27763799e-04
2.03000000e+00	2.75276912e-03	1.32949563e-04
2.03500000e+00	2.76752287e-03	1.39534513e-04
2.04000000e+00	2.71996349e-03	1.43444958e-04
2.04500000e+00	2.71288640e-03	1.50251259e-04
2.05000000e+00	2.70834379e-03	1.57869066e-04
2.05500000e+00	2.73471006e-03	1.55920146e-04
2.06000000e+00	2.74005465e-03	1.36100816e-04
2.06500000e+00	2.71585995e-03	1.29000937e-04
2.07000000e+00	2.68788662e-03	1.20656091e-04
2.07500000e+00	2.68785921e-03	1.18073289e-04
2.08000000e+00	2.68691252e-03	1.17787062e-04
2.08500000e+00	2.65765175e-03	1.15423657e-04
2.09000000e+00	2.71605611e-03	1.14554999e-04
2.09500000e+00	2.69131993e-03	1.12216536e-04
2.10000000e+00	2.66560180e-03	1.10433577e-04
2.10500000e+00	2.68641759e-03	1.10844545e-04
2.11000000e+00	2.66517570e-03	1.06044770e-04
2.11500000e+00	2.66273653e-03	1.04977724e-04
2.12000000e+00	2.65470312e-03	1.03954365e-04
2.12500000e+00	2.61380696e-03	1.02148107e-04
2.13000000e+00	2.58758539e-03	9.69819154e-05
2.13500000e+00	2.57192120e-03	9.52581596e-05
2.14000000e+00	2.57239623e-03	9.45330972e-05
2.14500000e+00	2.53732625e-03	9.32814509e-05
2.15000000e+00	2.54287740e-03	9.04877231e-05
2.15500000e+00	2.52430311e-03	8.99757940e-05
2.16000000e+00	2.51691689e-03	8.92605862e-05
2.16500000e+00	2.52560350e-03	9.02787182e-05
2.17000000e+00	2.50168049e-03	8.72064576e-05
2.17500000e+00	2.51186313e-03	8.77618114e-05
2.18000000e+00	2.48434136e-03	8.71020176e-05
2.18500000e+00	2.47538008e-03	8.71960316e-05
2.19000000e+00	2.46021102e-03	8.63690603e-05
2.19500000e+00	2.44748452e-03	8.55201882e-05
2.20000000e+00	2.44519803e-03	8.55317907e-05
2.20500000e+00	2.41340561e-03	8.48018632e-05
2.21000000e+00	2.39565650e-03	8.46060933e-05
2.21500000e+00	2.37739479e-03	8.31054661e-05
2.22000000e+00	2.37887593e-03	8.30299047e-05
2.22500000e+00	2.37667365e-03	8.36792162e-05
2.23000000e+00	2.34705169e-03	8.30751972e-05
2.23500000e+00	2.31043061e-03	8.06276424e-05
2.24000000e+00	2.32789179e-03	8.13340124e-05
2.24500000e+00	2.29860606e-03	8.08165369e-05
2.25000000e+00	2.29046107e-03	8.12150524e-05
2.25500000e+00	2.27669509e-03	7.92864986e-05
2.26000000e+00	2.26242543e-03	7.90681356e-05
2.26500000e+00	2.24539666e-03	7.87206534e-05
2.27000000e+00	2.24098148e-03	7.97342789e-05
2.27500000e+00	2.20474552e-03	7.68291336e-05
2.28000000e+00	2.19123552e-03	7.64224836e-05
2.28500000e+00	2.16766158e-03	7.60581579e-05
2.29000000e+00	2.17664048e-03	7.67707185e-05
2.29500000e+00	2.17196949e-03	7.64255298e-05
2.30000000e+00	2.15632835e-03	7.51754873e-05
2.30500000e+00	2.14205204e-03	7.48485403e-05
2.31000000e+00	2.12608307e-03	7.46600492e-05
2.31500000e+00	2.12807764e-03	7.53654821e-05
2.32000000e+00	2.10272510e-03	7.29384252e-05
2.32500000e+00	2.08255531e-03	7.28544616e-05
2.33000000e+00	2.07677896e-03	7.28008660e-05
2.33500000e+00	2.05389250e-03	7.28306389e-05
2.34000000e+00	2.04834251e-03	7.13323185e-05
2.34500000e+00	2.03318054e-03	7.08464585e-05
2.35000000e+00	2.01886229e-03	7.06549237e-05
2.35500000e+00	1.98796626e-03	7.04093152e-05
2.36000000e+00	1.98240628e-03	6.93178807e-05
2.36500000e+00	1.98427436e-03	6.92938784e-05
2.37000000e+00	1.97182292e-03	6.89040516e-05
2.37500000e+00	1.95078100e-03	6.88251413e-05
2.38000000e+00	1.94958385e-03	6.89932730e-05
2.38500000e+00	1.92417742e-03	6.72052300e-05
2.39000000e+00	1.93305514e-03	6.77106851e-05
2.39500000e+00	1.89993527e-03	6.68961465e-05
2.40000000e+00	1.89684054e-03	6.78065518e-05
2.40500000e+00	1.86914578e-03	6.53431730e-05
2.41000000e+00	1.87813398e-03	6.60307058e-05
2.41500000e+00	1.86478061e-03	6.55444556e-05
2.42000000e+00	1.86444049e-03	6.63097829e-05
2.42500000e+00	1.84837747e-03	6.57639591e-05
2.43000000e+00	1.84845829e-03	6.51347412e-05
2.43500000e+00	1.82895042e-03	6.46674774e-05
2.44000000e+00	1.81700336e-03	6.43307833e-05
2.44500000e+00	1.80943889e-03	6.49550018e-05
2.45000000e+00	1.78777135e-03	6.30296887e-05
2.45500000e+00	1.79359236e-03	6.33601213e-05
2.46000000e+00	1.77393986e-03	6.29637914e-05
2.46500000e+00	1.76164995e-03	6.33270059e-05
2.47000000e+00	1.75328092e-03	6.24240802e-05
2.47500000e+00	1.74482329e-03	6.17313955e-05
2.48000000e+00	1.73922494e-03	6.20604548e-05
2.48500000e+00	1.72579869e-03	6.16307911e-05
2.49000000e+00	1.75179575e-03	6.33997762e-05
2.49500000e+00	1.72552131e-03	6.13505712e-05
2.50000000e+00	1.71354284e-03	6.10403670e-05
2.50500000e+00	1.70190894e-03	6.09083637e-05
2.51000000e+00	1.69343950e-03	6.10750380e-05
2.51500000e+00	1.68415531e-03	6.07960981e-05
2.52000000e+00	1.67337383e-03	5.99183408e-05
2.52500000e+00	1.68235918e-03	6.04699432e-05
2.53000000e+00	1.66027313e-03	6.02483709e-05
2.53500000e+00	1.66404477e-03	6.11690875e-05
2.54000000e+00	1.62640483e-03	5.87121994e-05
2.54500000e+00	1.63649322e-03	5.94310704e-05
2.55000000e+00	1.62036985e-03	5.90427376e-05
2.55500000e+00	1.62684518e-03	5.98311945e-05
2.56000000e+00	1.61968997e-03	5.97830613e-05
2.56500000e+00	1.61191333e-03	5.90811917e-05
2.57000000e+00	1.59987448e-03	5.88432228e-05
2.57500000e+00	1.60722452e-03	5.92987967e-05
2.58000000e+00	1.59571348e-03	5.97754641e-05
2.58500000e+00	1.58516446e-03	5.90069748e-05
2.59000000e+00	1.55898799e-03	5.77771196e-05
2.59500000e+00	1.54992624e-03	5.77240662e-05
2.60000000e+00	1.56113245e-03	5.85422684e-05
2.60500000e+00	1.58134047e-03	6.07045887e-05
2.61000000e+00	1.55100429e-03	6.77870177e-05
2.61500000e+00	1.54183616e-03	7.47237036e-05
2.62000000e+00	1.51478838e-03	8.06622020e-05
2.62500000e+00	1.48914674e-03	8.60060265e-05
2.63000000e+00	1.51791200e-03	9.70951346e-05
2.63500000e+00	1.58726847e-03	1.11781729e-04
2.64000000e+00	1.58007054e-03	1.22236909e-04
2.64500000e+00	1.58697904e-03	1.31357455e-04
2.65000000e+00	1.59782318e-03	1.39729631e-04
2.65500000e+00	1.53545863e-03	1.44545274e-04
2.66000000e+00	1.50638114e-03	1.51990802e-04
2.66500000e+00	1.50853411e-03	1.70741813e-04
2.67000000e+00	1.50869656e-03	1.85428916e-04
2.67500000e+00	1.51826616e-03	2.16737472e-04
2.68000000e+00	1.52483683e-03	2.53914243e-04
2.68500000e+00	1.52134026e-03	3.40122303e-04
2.69000000e+00	1.55458595e-03	5.52693097e-04
2.69500000e+00	0.00000000e+00	0.00000000e+00
2.70000000e+00	0.00000000e+00	0.00000000e+00
