% Filename : WSW21_00035_00034.h5
% Date & Time : 30-Oct-2025 17:33:21
% X-ray Energy (keV) : 13.30001
% Exposure Time (s) : 0.500
% Photodiode Value : 140339.000
% I0 of Sample : 0
% I0 of Standard : 1
% 
% q(A^-1)   I(q)    I(q)_SE
8.40000000e-01	0.00000000e+00	0.00000000e+00
8.45000000e-01	3.68661660e-03	6.45173689e-04
8.50000000e-01	3.56608435e-03	3.30106709e-04
8.55000000e-01	3.46981219e-03	2.83512036e-04
8.60000000e-01	3.45115111e-03	2.43619086e-04
8.65000000e-01	3.43116393e-03	2.23506256e-04
8.70000000e-01	3.45029350e-03	2.14195514e-04
8.75000000e-01	3.47876570e-03	2.07759242e-04
8.80000000e-01	3.48615164e-03	2.01209729e-04
8.85000000e-01	3.47050441e-03	1.89385659e-04
8.90000000e-01	3.48788670e-03	1.86334451e-04
8.95000000e-01	3.56481661e-03	1.85021541e-04
9.00000000e-01	3.57629369e-03	1.83850263e-04
9.05000000e-01	3.58536881e-03	1.76260904e-04
9.10000000e-01	3.61488041e-03	1.74401440e-04
9.15000000e-01	3.60715287e-03	1.71216411e-04
9.20000000e-01	3.62156316e-03	1.71759100e-04
9.25000000e-01	3.60586205e-03	1.63672196e-04
9.30000000e-01	3.62218040e-03	1.62635658e-04
9.35000000e-01	3.66044347e-03	1.61163370e-04
9.40000000e-01	3.64151109e-03	1.60861442e-04
9.45000000e-01	3.65973506e-03	1.57591178e-04
9.50000000e-01	3.67300409e-03	1.55973106e-04
9.55000000e-01	3.66066567e-03	1.52666441e-04
9.60000000e-01	3.67691702e-03	1.53354212e-04
9.65000000e-01	3.69377469e-03	1.51525347e-04
9.70000000e-01	3.71421474e-03	1.49819574e-04
9.75000000e-01	3.73159067e-03	1.48878750e-04
9.80000000e-01	3.71517075e-03	1.46946280e-04
9.85000000e-01	3.72576134e-03	1.47467020e-04
9.90000000e-01	3.74406684e-03	1.43779596e-04
9.95000000e-01	3.78349699e-03	1.44518761e-04
1.00000000e+00	3.75001206e-03	1.42534294e-04
1.00500000e+00	3.74834763e-03	1.42512139e-04
1.01000000e+00	3.75658373e-03	1.39807529e-04
1.01500000e+00	3.78205043e-03	1.39378382e-04
1.02000000e+00	3.77228122e-03	1.38859859e-04
1.02500000e+00	3.76310258e-03	1.36693315e-04
1.03000000e+00	3.79961467e-03	1.37568429e-04
1.03500000e+00	3.78691127e-03	1.35215110e-04
1.04000000e+00	3.79753179e-03	1.34670627e-04
1.04500000e+00	3.79962407e-03	1.34720876e-04
1.05000000e+00	3.79410307e-03	1.33572720e-04
1.05500000e+00	3.79160294e-03	1.31391884e-04
1.06000000e+00	3.81556040e-03	1.31894505e-04
1.06500000e+00	3.83346895e-03	1.32613558e-04
1.07000000e+00	3.82521724e-03	1.32022208e-04
1.07500000e+00	3.89699579e-03	1.33532652e-04
1.08000000e+00	3.87107573e-03	1.31953352e-04
1.08500000e+00	3.88261150e-03	1.32484606e-04
1.09000000e+00	3.90462604e-03	1.33888960e-04
1.09500000e+00	3.90102085e-03	1.31053097e-04
1.10000000e+00	3.92601944e-03	1.32818875e-04
1.10500000e+00	3.95037052e-03	1.34153938e-04
1.11000000e+00	3.96204109e-03	1.34730848e-04
1.11500000e+00	3.94728676e-03	1.33160804e-04
1.12000000e+00	3.97921040e-03	1.34829430e-04
1.12500000e+00	3.99395534e-03	1.35024973e-04
1.13000000e+00	4.00067739e-03	1.36966335e-04
1.13500000e+00	4.02841730e-03	1.36222867e-04
1.14000000e+00	4.01276036e-03	1.35454069e-04
1.14500000e+00	4.04147079e-03	1.37615062e-04
1.15000000e+00	3.99870925e-03	1.36770087e-04
1.15500000e+00	4.04057531e-03	1.36849755e-04
1.16000000e+00	4.05085817e-03	1.37630465e-04
1.16500000e+00	4.01750899e-03	1.36248387e-04
1.17000000e+00	4.05167952e-03	1.39190538e-04
1.17500000e+00	4.05204431e-03	1.37257833e-04
1.18000000e+00	4.06337800e-03	1.38241638e-04
1.18500000e+00	4.06835829e-03	1.38285634e-04
1.19000000e+00	4.06719082e-03	1.39749326e-04
1.19500000e+00	4.08872093e-03	1.38702039e-04
1.20000000e+00	4.08669219e-03	1.39586216e-04
1.20500000e+00	4.07659966e-03	1.38899905e-04
1.21000000e+00	4.12326133e-03	1.42326886e-04
1.21500000e+00	4.08027418e-03	1.38611176e-04
1.22000000e+00	4.13940870e-03	1.40858443e-04
1.22500000e+00	4.10604099e-03	1.40241259e-04
1.23000000e+00	4.11176590e-03	1.41474676e-04
1.23500000e+00	4.10389974e-03	1.40299392e-04
1.24000000e+00	4.12895318e-03	1.40532829e-04
1.24500000e+00	4.12254684e-03	1.41335019e-04
1.25000000e+00	4.11995879e-03	1.42129563e-04
1.25500000e+00	4.12422893e-03	1.40641353e-04
1.26000000e+00	4.11330716e-03	1.40997823e-04
1.26500000e+00	4.13046137e-03	1.41169899e-04
1.27000000e+00	4.14163667e-03	1.43546665e-04
1.27500000e+00	4.13973365e-03	1.42139029e-04
1.28000000e+00	4.13794145e-03	1.41106228e-04
1.28500000e+00	4.14755690e-03	1.42265425e-04
1.29000000e+00	4.14130865e-03	1.43309856e-04
1.29500000e+00	4.14354646e-03	1.41928454e-04
1.30000000e+00	4.13856374e-03	1.41458403e-04
1.30500000e+00	4.17008551e-03	1.43197193e-04
1.31000000e+00	4.13626342e-03	1.43720939e-04
1.31500000e+00	4.17755283e-03	1.43380386e-04
1.32000000e+00	4.14953471e-03	1.42227101e-04
1.32500000e+00	4.14595473e-03	1.42511052e-04
1.33000000e+00	4.18111212e-03	1.45402636e-04
1.33500000e+00	4.18500984e-03	1.43562281e-04
1.34000000e+00	4.15393041e-03	1.42705206e-04
1.34500000e+00	4.17525783e-03	1.43999467e-04
1.35000000e+00	4.15213415e-03	1.44605216e-04
1.35500000e+00	4.17494324e-03	1.43391582e-04
1.36000000e+00	4.14968053e-03	1.42245429e-04
1.36500000e+00	4.16194643e-03	1.43212159e-04
1.37000000e+00	4.16140792e-03	1.45246791e-04
1.37500000e+00	4.15366505e-03	1.42761058e-04
1.38000000e+00	4.15875358e-03	1.43295933e-04
1.38500000e+00	4.16438794e-03	1.44282223e-04
1.39000000e+00	4.18591193e-03	1.45925792e-04
1.39500000e+00	4.16216591e-03	1.43002433e-04
1.40000000e+00	4.21814461e-03	1.49252653e-04
1.40500000e+00	4.15846339e-03	1.58404026e-04
1.41000000e+00	4.15809637e-03	1.65788953e-04
1.41500000e+00	4.13866201e-03	1.71096372e-04
1.42000000e+00	4.12619711e-03	1.77407924e-04
1.42500000e+00	4.13903842e-03	1.83107935e-04
1.43000000e+00	4.13659370e-03	1.90107711e-04
1.43500000e+00	4.11279262e-03	1.94722593e-04
1.44000000e+00	4.09201028e-03	2.01342549e-04
1.44500000e+00	4.09098713e-03	2.06454058e-04
1.45000000e+00	4.16520516e-03	2.03288782e-04
1.45500000e+00	4.20945647e-03	1.84432249e-04
1.46000000e+00	4.14576214e-03	1.77415141e-04
1.46500000e+00	4.13776782e-03	1.74068087e-04
1.47000000e+00	4.12355356e-03	1.73013961e-04
1.47500000e+00	4.12931443e-03	1.68248104e-04
1.48000000e+00	4.12614189e-03	1.66278034e-04
1.48500000e+00	4.15399875e-03	1.67503599e-04
1.49000000e+00	4.12514757e-03	1.66811287e-04
1.49500000e+00	4.12626185e-03	1.63171390e-04
1.50000000e+00	4.13176053e-03	1.62931403e-04
1.50500000e+00	4.16923158e-03	1.65261869e-04
1.51000000e+00	4.12888753e-03	1.63980538e-04
1.51500000e+00	4.18163667e-03	1.63393427e-04
1.52000000e+00	4.16244936e-03	1.62151066e-04
1.52500000e+00	4.16356414e-03	1.61944243e-04
1.53000000e+00	4.14694829e-03	1.62354693e-04
1.53500000e+00	4.12436713e-03	1.56811707e-04
1.54000000e+00	4.10958632e-03	1.56132980e-04
1.54500000e+00	4.11985096e-03	1.56114061e-04
1.55000000e+00	4.11607986e-03	1.55436255e-04
1.55500000e+00	4.07714120e-03	1.50547717e-04
1.56000000e+00	4.07663691e-03	1.50945831e-04
1.56500000e+00	4.04431192e-03	1.48921087e-04
1.57000000e+00	4.04671554e-03	1.47957855e-04
1.57500000e+00	3.99484618e-03	1.43326840e-04
1.58000000e+00	4.02900843e-03	1.44379983e-04
1.58500000e+00	4.00219237e-03	1.43390217e-04
1.59000000e+00	4.00203208e-03	1.43457919e-04
1.59500000e+00	3.98739860e-03	1.40190177e-04
1.60000000e+00	3.96497069e-03	1.39240315e-04
1.60500000e+00	3.97271177e-03	1.39765461e-04
1.61000000e+00	3.98464940e-03	1.39456934e-04
1.61500000e+00	3.97057542e-03	1.37745311e-04
1.62000000e+00	3.94126972e-03	1.37343462e-04
1.62500000e+00	3.93965956e-03	1.38784895e-04
1.63000000e+00	3.91520874e-03	1.36500391e-04
1.63500000e+00	3.95684030e-03	1.37968717e-04
1.64000000e+00	3.91879440e-03	1.36633437e-04
1.64500000e+00	3.90836641e-03	1.37774318e-04
1.65000000e+00	3.90614263e-03	1.36254413e-04
1.65500000e+00	3.88922302e-03	1.35526808e-04
1.66000000e+00	3.86888255e-03	1.34943433e-04
1.66500000e+00	3.88038846e-03	1.37636586e-04
1.67000000e+00	3.89064691e-03	1.35114582e-04
1.67500000e+00	3.86733599e-03	1.34666162e-04
1.68000000e+00	3.86329266e-03	1.34904362e-04
1.68500000e+00	3.86968774e-03	1.37356876e-04
1.69000000e+00	3.85985179e-03	1.34382515e-04
1.69500000e+00	3.82577620e-03	1.33002420e-04
1.70000000e+00	3.83455999e-03	1.34770482e-04
1.70500000e+00	3.86168776e-03	1.36419527e-04
1.71000000e+00	3.84670177e-03	1.34140322e-04
1.71500000e+00	3.83685930e-03	1.33706068e-04
1.72000000e+00	3.81299198e-03	1.33923510e-04
1.72500000e+00	3.84811826e-03	1.35969224e-04
1.73000000e+00	3.85045894e-03	1.34248172e-04
1.73500000e+00	3.87560653e-03	1.35519116e-04
1.74000000e+00	3.89185244e-03	1.36398110e-04
1.74500000e+00	3.91176245e-03	1.38727803e-04
1.75000000e+00	3.96536641e-03	1.38038427e-04
1.75500000e+00	3.99801025e-03	1.40194904e-04
1.76000000e+00	4.07107705e-03	1.42680795e-04
1.76500000e+00	4.14230268e-03	1.47330029e-04
1.77000000e+00	4.29308023e-03	1.50277957e-04
1.77500000e+00	4.47589214e-03	1.57541962e-04
1.78000000e+00	4.72310143e-03	1.67480706e-04
1.78500000e+00	5.01621475e-03	1.80898371e-04
1.79000000e+00	5.42806794e-03	1.93712071e-04
1.79500000e+00	5.74342374e-03	2.06972700e-04
1.80000000e+00	5.87799310e-03	2.13905985e-04
1.80500000e+00	5.72733562e-03	2.09331977e-04
1.81000000e+00	5.48365334e-03	1.96190276e-04
1.81500000e+00	5.10328638e-03	1.81143795e-04
1.82000000e+00	4.76856050e-03	1.69348369e-04
1.82500000e+00	4.55730548e-03	1.62172850e-04
1.83000000e+00	4.40469111e-03	1.54274532e-04
1.83500000e+00	4.30365033e-03	1.50866029e-04
1.84000000e+00	4.23959836e-03	1.49193340e-04
1.84500000e+00	4.22045421e-03	1.49329837e-04
1.85000000e+00	4.20659147e-03	1.47033248e-04
1.85500000e+00	4.18169186e-03	1.46212339e-04
1.86000000e+00	4.16180794e-03	1.46385873e-04
1.86500000e+00	4.14876566e-03	1.46293420e-04
1.87000000e+00	4.17607610e-03	1.45587512e-04
1.87500000e+00	4.17112161e-03	1.45947979e-04
1.88000000e+00	4.18839582e-03	1.47090889e-04
1.88500000e+00	4.19160904e-03	1.48030669e-04
1.89000000e+00	4.19269007e-03	1.46050782e-04
1.89500000e+00	4.23838743e-03	1.48437147e-04
1.90000000e+00	4.19539101e-03	1.47338038e-04
1.90500000e+00	4.21297200e-03	1.48082892e-04
1.91000000e+00	4.20655269e-03	1.46833825e-04
1.91500000e+00	4.18257338e-03	1.46035420e-04
1.92000000e+00	4.11372591e-03	1.44486858e-04
1.92500000e+00	4.11098127e-03	1.44606627e-04
1.93000000e+00	4.01944332e-03	1.40113315e-04
1.93500000e+00	3.97985593e-03	1.39051517e-04
1.94000000e+00	3.94152085e-03	1.38926627e-04
1.94500000e+00	3.88389212e-03	1.36485507e-04
1.95000000e+00	3.85932682e-03	1.34452232e-04
1.95500000e+00	3.79651839e-03	1.32701289e-04
1.96000000e+00	3.75904353e-03	1.32221714e-04
1.96500000e+00	3.73332325e-03	1.31441958e-04
1.97000000e+00	3.67923979e-03	1.28052800e-04
1.97500000e+00	3.62496349e-03	1.26926838e-04
1.98000000e+00	3.60030065e-03	1.26628032e-04
1.98500000e+00	3.55255747e-03	1.25181631e-04
1.99000000e+00	3.52077731e-03	1.22513146e-04
1.99500000e+00	3.52291819e-03	1.23226952e-04
2.00000000e+00	3.48280388e-03	1.22618168e-04
2.00500000e+00	3.48336911e-03	1.22819882e-04
2.01000000e+00	3.45157160e-03	1.33542597e-04
2.01500000e+00	3.43233764e-03	1.41061199e-04
2.02000000e+00	3.40018096e-03	1.49046527e-04
2.02500000e+00	3.36983078e-03	1.53398244e-04
2.03000000e+00	3.34459886e-03	1.61348145e-04
2.03500000e+00	3.31245938e-03	1.66880498e-04
2.04000000e+00	3.28914615e-03	1.73233268e-04
2.04500000e+00	3.28323344e-03	1.82043561e-04
2.05000000e+00	3.25775724e-03	1.89604734e-04
2.05500000e+00	3.25793360e-03	1.85634562e-04
2.06000000e+00	3.27776283e-03	1.62622585e-04
2.06500000e+00	3.25225161e-03	1.54222061e-04
2.07000000e+00	3.19756737e-03	1.43339287e-04
2.07500000e+00	3.17900941e-03	1.39461096e-04
2.08000000e+00	3.16979247e-03	1.38838125e-04
2.08500000e+00	3.18446927e-03	1.38367466e-04
2.09000000e+00	3.14095674e-03	1.32318570e-04
2.09500000e+00	3.13065859e-03	1.30474174e-04
2.10000000e+00	3.14065639e-03	1.30071301e-04
2.10500000e+00	3.13911190e-03	1.29565747e-04
2.11000000e+00	3.08397501e-03	1.22593775e-04
2.11500000e+00	3.06855938e-03	1.20730180e-04
2.12000000e+00	3.05536810e-03	1.19651307e-04
2.12500000e+00	3.04648216e-03	1.18967506e-04
2.13000000e+00	3.01725056e-03	1.12907343e-04
2.13500000e+00	3.00210872e-03	1.11076761e-04
2.14000000e+00	3.01299460e-03	1.10453755e-04
2.14500000e+00	2.97575274e-03	1.09306788e-04
2.15000000e+00	2.98368571e-03	1.06085829e-04
2.15500000e+00	2.97557561e-03	1.05929191e-04
2.16000000e+00	2.95796416e-03	1.04828510e-04
2.16500000e+00	2.96802361e-03	1.05922758e-04
2.17000000e+00	2.95365246e-03	1.02842765e-04
2.17500000e+00	2.93820582e-03	1.02582297e-04
2.18000000e+00	2.93937152e-03	1.02906931e-04
2.18500000e+00	2.92119105e-03	1.02863844e-04
2.19000000e+00	2.90222365e-03	1.01885238e-04
2.19500000e+00	2.90576222e-03	1.01521736e-04
2.20000000e+00	2.88799629e-03	1.01053119e-04
2.20500000e+00	2.88772086e-03	1.01387546e-04
2.21000000e+00	2.87222794e-03	1.01360514e-04
2.21500000e+00	2.85778733e-03	9.97185919e-05
2.22000000e+00	2.82860021e-03	9.85681638e-05
2.22500000e+00	2.82341619e-03	9.93427038e-05
2.23000000e+00	2.81933033e-03	9.97495452e-05
2.23500000e+00	2.78507400e-03	9.71348271e-05
2.24000000e+00	2.79192944e-03	9.74103761e-05
2.24500000e+00	2.78028659e-03	9.76748906e-05
2.25000000e+00	2.73743560e-03	9.69837627e-05
2.25500000e+00	2.73165139e-03	9.50181084e-05
2.26000000e+00	2.71300508e-03	9.47566623e-05
2.26500000e+00	2.68166476e-03	9.39810131e-05
2.27000000e+00	2.68393816e-03	9.53483976e-05
2.27500000e+00	2.65596067e-03	9.24745147e-05
2.28000000e+00	2.63058745e-03	9.16320583e-05
2.28500000e+00	2.61575672e-03	9.17429013e-05
2.29000000e+00	2.62244773e-03	9.24074972e-05
2.29500000e+00	2.61522344e-03	9.19300531e-05
2.30000000e+00	2.58356662e-03	8.98784904e-05
2.30500000e+00	2.58072827e-03	9.01176125e-05
2.31000000e+00	2.54056501e-03	8.91117012e-05
2.31500000e+00	2.53665942e-03	8.97833705e-05
2.32000000e+00	2.52668044e-03	8.75117682e-05
2.32500000e+00	2.52884427e-03	8.83226237e-05
2.33000000e+00	2.49077471e-03	8.72050761e-05
2.33500000e+00	2.48026028e-03	8.76610554e-05
2.34000000e+00	2.45416553e-03	8.53476177e-05
2.34500000e+00	2.43450871e-03	8.46550148e-05
2.35000000e+00	2.41488788e-03	8.42139880e-05
2.35500000e+00	2.40672267e-03	8.50193323e-05
2.36000000e+00	2.41559163e-03	8.41931456e-05
2.36500000e+00	2.37949109e-03	8.29384254e-05
2.37000000e+00	2.37967045e-03	8.29029690e-05
2.37500000e+00	2.38105859e-03	8.36397788e-05
2.38000000e+00	2.34815613e-03	8.29579358e-05
2.38500000e+00	2.32184149e-03	8.09336519e-05
2.39000000e+00	2.32164241e-03	8.10854872e-05
2.39500000e+00	2.30634485e-03	8.09209010e-05
2.40000000e+00	2.29584831e-03	8.17505009e-05
2.40500000e+00	2.29124882e-03	7.99532106e-05
2.41000000e+00	2.26535379e-03	7.93601018e-05
2.41500000e+00	2.24366256e-03	7.86244938e-05
2.42000000e+00	2.23709673e-03	7.94395939e-05
2.42500000e+00	2.24049825e-03	7.93900611e-05
2.43000000e+00	2.22694727e-03	7.81267032e-05
2.43500000e+00	2.22540773e-03	7.83825629e-05
2.44000000e+00	2.19291225e-03	7.74817934e-05
2.44500000e+00	2.17658895e-03	7.78697729e-05
2.45000000e+00	2.18813395e-03	7.68654102e-05
2.45500000e+00	2.15574860e-03	7.60233778e-05
2.46000000e+00	2.13317857e-03	7.55525465e-05
2.46500000e+00	2.14528519e-03	7.69395819e-05
2.47000000e+00	2.13107391e-03	7.56482863e-05
2.47500000e+00	2.10984869e-03	7.45676804e-05
2.48000000e+00	2.12374340e-03	7.56831487e-05
2.48500000e+00	2.11888346e-03	7.55304779e-05
2.49000000e+00	2.10253250e-03	7.59576376e-05
2.49500000e+00	2.09177090e-03	7.41170837e-05
2.50000000e+00	2.07944998e-03	7.39234157e-05
2.50500000e+00	2.07094646e-03	7.40050829e-05
2.51000000e+00	2.05743654e-03	7.39800574e-05
2.51500000e+00	2.06421574e-03	7.43864239e-05
2.52000000e+00	2.05595839e-03	7.34688631e-05
2.52500000e+00	2.02206671e-03	7.26001933e-05
2.53000000e+00	2.03591940e-03	7.37488818e-05
2.53500000e+00	2.01621652e-03	7.39217662e-05
2.54000000e+00	2.03101251e-03	7.31617012e-05
2.54500000e+00	2.01045492e-03	7.27670616e-05
2.55000000e+00	1.98650481e-03	7.22525261e-05
2.55500000e+00	2.00672552e-03	7.36029202e-05
2.56000000e+00	1.99473405e-03	7.35166682e-05
2.56500000e+00	1.99516642e-03	7.28216688e-05
2.57000000e+00	1.97561325e-03	7.24438608e-05
2.57500000e+00	1.97531292e-03	7.26677538e-05
2.58000000e+00	1.95831991e-03	7.32557603e-05
2.58500000e+00	1.95898263e-03	7.26490365e-05
2.59000000e+00	1.96045372e-03	7.24256426e-05
2.59500000e+00	1.96097905e-03	7.27997936e-05
2.60000000e+00	1.95633703e-03	7.32313509e-05
2.60500000e+00	1.97763790e-03	7.55430639e-05
2.61000000e+00	1.96009993e-03	8.52705786e-05
2.61500000e+00	1.92717394e-03	9.30071711e-05
2.62000000e+00	1.92817125e-03	1.02473818e-04
2.62500000e+00	1.91047931e-03	1.10095632e-04
2.63000000e+00	1.89337391e-03	1.20556648e-04
2.63500000e+00	1.91679228e-03	1.34863481e-04
2.64000000e+00	1.95678487e-03	1.51370739e-04
2.64500000e+00	1.95520655e-03	1.61147292e-04
2.65000000e+00	1.88382051e-03	1.64391367e-04
2.65500000e+00	1.95979434e-03	1.84086294e-04
2.66000000e+00	1.92209936e-03	1.93948563e-04
2.66500000e+00	1.96305047e-03	2.21818483e-04
2.67000000e+00	2.00597554e-03	2.46377232e-04
2.67500000e+00	1.98149237e-03	2.82197542e-04
2.68000000e+00	2.00964160e-03	3.33782992e-04
2.68500000e+00	2.04408380e-03	4.50081554e-04
2.69000000e+00	1.93040543e-03	6.87111840e-04
2.69500000e+00	0.00000000e+00	0.00000000e+00
2.70000000e+00	0.00000000e+00	0.00000000e+00
