% Filename : WSW20_00038_00002.h5
% Date & Time : 30-Oct-2025 17:43:18
% X-ray Energy (keV) : 13.30001
% Exposure Time (s) : 0.500
% Photodiode Value : 140947.000
% I0 of Sample : 0
% I0 of Standard : 1
% 
% q(A^-1)   I(q)    I(q)_SE
8.40000000e-01	0.00000000e+00	0.00000000e+00
8.45000000e-01	3.60296426e-03	6.31027936e-04
8.50000000e-01	3.28275567e-03	3.04520082e-04
8.55000000e-01	3.28099000e-03	2.67907575e-04
8.60000000e-01	3.25988698e-03	2.30335353e-04
8.65000000e-01	3.23017800e-03	2.10398961e-04
8.70000000e-01	3.20115112e-03	1.98737241e-04
8.75000000e-01	3.25052146e-03	1.94043320e-04
8.80000000e-01	3.24387944e-03	1.87184012e-04
8.85000000e-01	3.27260769e-03	1.78433413e-04
8.90000000e-01	3.26813833e-03	1.74513507e-04
8.95000000e-01	3.29195378e-03	1.70778936e-04
9.00000000e-01	3.28650512e-03	1.68999653e-04
9.05000000e-01	3.28121111e-03	1.61262675e-04
9.10000000e-01	3.26029230e-03	1.57281867e-04
9.15000000e-01	3.28292494e-03	1.55889028e-04
9.20000000e-01	3.29748808e-03	1.56517090e-04
9.25000000e-01	3.31585439e-03	1.50637181e-04
9.30000000e-01	3.28338344e-03	1.47513191e-04
9.35000000e-01	3.35010238e-03	1.47636764e-04
9.40000000e-01	3.35829220e-03	1.48382514e-04
9.45000000e-01	3.37868398e-03	1.45492913e-04
9.50000000e-01	3.34125729e-03	1.41988206e-04
9.55000000e-01	3.35366245e-03	1.39892522e-04
9.60000000e-01	3.38337479e-03	1.41162200e-04
9.65000000e-01	3.34768050e-03	1.37337767e-04
9.70000000e-01	3.38605719e-03	1.36796973e-04
9.75000000e-01	3.41196004e-03	1.36177221e-04
9.80000000e-01	3.41284374e-03	1.35115535e-04
9.85000000e-01	3.41561596e-03	1.35283491e-04
9.90000000e-01	3.46703277e-03	1.33160967e-04
9.95000000e-01	3.44938158e-03	1.31885864e-04
1.00000000e+00	3.44995123e-03	1.31272454e-04
1.00500000e+00	3.42465113e-03	1.30284879e-04
1.01000000e+00	3.47390939e-03	1.29412014e-04
1.01500000e+00	3.45144706e-03	1.27272667e-04
1.02000000e+00	3.49225913e-03	1.28764414e-04
1.02500000e+00	3.46199191e-03	1.26056309e-04
1.03000000e+00	3.47781303e-03	1.26214015e-04
1.03500000e+00	3.47035929e-03	1.24076097e-04
1.04000000e+00	3.45831176e-03	1.22803403e-04
1.04500000e+00	3.43937667e-03	1.22198719e-04
1.05000000e+00	3.45673151e-03	1.22053003e-04
1.05500000e+00	3.46515721e-03	1.20401860e-04
1.06000000e+00	3.47591566e-03	1.20424554e-04
1.06500000e+00	3.49998786e-03	1.21528697e-04
1.07000000e+00	3.49502762e-03	1.21067414e-04
1.07500000e+00	3.51279479e-03	1.20746489e-04
1.08000000e+00	3.52076018e-03	1.20197943e-04
1.08500000e+00	3.51733552e-03	1.20383154e-04
1.09000000e+00	3.56129359e-03	1.22410225e-04
1.09500000e+00	3.55462534e-03	1.19837812e-04
1.10000000e+00	3.57616289e-03	1.21364739e-04
1.10500000e+00	3.58551803e-03	1.22077060e-04
1.11000000e+00	3.56529727e-03	1.21547284e-04
1.11500000e+00	3.60561145e-03	1.21969212e-04
1.12000000e+00	3.63846767e-03	1.23622463e-04
1.12500000e+00	3.62321764e-03	1.22825331e-04
1.13000000e+00	3.61142817e-03	1.23849729e-04
1.13500000e+00	3.64630140e-03	1.23569455e-04
1.14000000e+00	3.67239608e-03	1.24178129e-04
1.14500000e+00	3.65341298e-03	1.24704649e-04
1.15000000e+00	3.68816266e-03	1.26411402e-04
1.15500000e+00	3.68320873e-03	1.24910186e-04
1.16000000e+00	3.67673532e-03	1.25122551e-04
1.16500000e+00	3.69423938e-03	1.25622751e-04
1.17000000e+00	3.71161657e-03	1.27837257e-04
1.17500000e+00	3.70790540e-03	1.25835027e-04
1.18000000e+00	3.74260056e-03	1.27542484e-04
1.18500000e+00	3.73937799e-03	1.27265953e-04
1.19000000e+00	3.73035921e-03	1.28281865e-04
1.19500000e+00	3.75940192e-03	1.27781933e-04
1.20000000e+00	3.78051988e-03	1.29210674e-04
1.20500000e+00	3.77567887e-03	1.28901562e-04
1.21000000e+00	3.77222091e-03	1.30508326e-04
1.21500000e+00	3.78736877e-03	1.28801929e-04
1.22000000e+00	3.81162864e-03	1.29774771e-04
1.22500000e+00	3.80243713e-03	1.29996695e-04
1.23000000e+00	3.81069381e-03	1.31284714e-04
1.23500000e+00	3.82171884e-03	1.30862997e-04
1.24000000e+00	3.79501871e-03	1.29284800e-04
1.24500000e+00	3.80411488e-03	1.30682080e-04
1.25000000e+00	3.82102811e-03	1.31879632e-04
1.25500000e+00	3.84000692e-03	1.30953279e-04
1.26000000e+00	3.83283218e-03	1.31522834e-04
1.26500000e+00	3.85168981e-03	1.31745267e-04
1.27000000e+00	3.85538919e-03	1.33744394e-04
1.27500000e+00	3.85140667e-03	1.32298536e-04
1.28000000e+00	3.85640062e-03	1.31676725e-04
1.28500000e+00	3.88769754e-03	1.33465665e-04
1.29000000e+00	3.84892360e-03	1.33290336e-04
1.29500000e+00	3.87967067e-03	1.32972051e-04
1.30000000e+00	3.86573745e-03	1.32287957e-04
1.30500000e+00	3.85069031e-03	1.32366059e-04
1.31000000e+00	3.88317933e-03	1.35051701e-04
1.31500000e+00	3.88973431e-03	1.33603960e-04
1.32000000e+00	3.90267382e-03	1.33844269e-04
1.32500000e+00	3.89212746e-03	1.33850154e-04
1.33000000e+00	3.89877624e-03	1.35649190e-04
1.33500000e+00	3.91410266e-03	1.34407147e-04
1.34000000e+00	3.93357212e-03	1.35254586e-04
1.34500000e+00	3.90425532e-03	1.34643441e-04
1.35000000e+00	3.89604505e-03	1.35695134e-04
1.35500000e+00	3.90721937e-03	1.34248578e-04
1.36000000e+00	3.92179284e-03	1.34470777e-04
1.36500000e+00	3.89707186e-03	1.34097546e-04
1.37000000e+00	3.92565885e-03	1.37034720e-04
1.37500000e+00	3.93896874e-03	1.35436863e-04
1.38000000e+00	3.92792287e-03	1.35373565e-04
1.38500000e+00	3.96579714e-03	1.37350028e-04
1.39000000e+00	3.92170851e-03	1.36792224e-04
1.39500000e+00	3.92960330e-03	1.35082987e-04
1.40000000e+00	4.02229732e-03	1.42401071e-04
1.40500000e+00	3.93306626e-03	1.49871202e-04
1.41000000e+00	3.90119799e-03	1.55674176e-04
1.41500000e+00	3.93122856e-03	1.62551050e-04
1.42000000e+00	3.92646543e-03	1.68840844e-04
1.42500000e+00	3.89547601e-03	1.72551235e-04
1.43000000e+00	3.92233051e-03	1.80171782e-04
1.43500000e+00	3.89660147e-03	1.84435264e-04
1.44000000e+00	3.93613754e-03	1.93586516e-04
1.44500000e+00	3.87761571e-03	1.95638235e-04
1.45000000e+00	3.96976872e-03	1.93642678e-04
1.45500000e+00	3.96163845e-03	1.73602290e-04
1.46000000e+00	3.97727403e-03	1.70261704e-04
1.46500000e+00	3.97940134e-03	1.67380586e-04
1.47000000e+00	3.93942057e-03	1.65286829e-04
1.47500000e+00	3.95669800e-03	1.61282703e-04
1.48000000e+00	3.94271134e-03	1.58923712e-04
1.48500000e+00	3.94043056e-03	1.58987333e-04
1.49000000e+00	3.94227032e-03	1.59403692e-04
1.49500000e+00	3.95153077e-03	1.56242577e-04
1.50000000e+00	3.95717184e-03	1.55977875e-04
1.50500000e+00	3.97527406e-03	1.57461425e-04
1.51000000e+00	3.98239414e-03	1.58177359e-04
1.51500000e+00	3.97690852e-03	1.55388435e-04
1.52000000e+00	4.03333778e-03	1.57104464e-04
1.52500000e+00	3.99746256e-03	1.55656651e-04
1.53000000e+00	3.95989434e-03	1.55051865e-04
1.53500000e+00	3.97385775e-03	1.51186016e-04
1.54000000e+00	3.96112556e-03	1.50498734e-04
1.54500000e+00	3.92573253e-03	1.48863151e-04
1.55000000e+00	3.91636207e-03	1.47984183e-04
1.55500000e+00	3.91001458e-03	1.44429092e-04
1.56000000e+00	3.89487465e-03	1.44203216e-04
1.56500000e+00	3.88231499e-03	1.42984907e-04
1.57000000e+00	3.85121148e-03	1.40856357e-04
1.57500000e+00	3.85282469e-03	1.38305642e-04
1.58000000e+00	3.85681644e-03	1.38072799e-04
1.58500000e+00	3.82195020e-03	1.36941214e-04
1.59000000e+00	3.82175251e-03	1.36956110e-04
1.59500000e+00	3.82799694e-03	1.34654659e-04
1.60000000e+00	3.80459580e-03	1.33707616e-04
1.60500000e+00	3.81673106e-03	1.34301065e-04
1.61000000e+00	3.76394644e-03	1.31802819e-04
1.61500000e+00	3.76287393e-03	1.30504892e-04
1.62000000e+00	3.76868766e-03	1.31326185e-04
1.62500000e+00	3.76920425e-03	1.32875436e-04
1.63000000e+00	3.75708629e-03	1.31021161e-04
1.63500000e+00	3.74506794e-03	1.30630704e-04
1.64000000e+00	3.72781652e-03	1.30045172e-04
1.64500000e+00	3.75030404e-03	1.32267198e-04
1.65000000e+00	3.71618182e-03	1.29684885e-04
1.65500000e+00	3.72424514e-03	1.29868866e-04
1.66000000e+00	3.71087025e-03	1.29463767e-04
1.66500000e+00	3.71846093e-03	1.31843839e-04
1.67000000e+00	3.73188302e-03	1.29663779e-04
1.67500000e+00	3.70781230e-03	1.29093053e-04
1.68000000e+00	3.73420927e-03	1.30394189e-04
1.68500000e+00	3.70021313e-03	1.31384310e-04
1.69000000e+00	3.70173630e-03	1.28868544e-04
1.69500000e+00	3.70676507e-03	1.28884833e-04
1.70000000e+00	3.66768620e-03	1.29001505e-04
1.70500000e+00	3.65490124e-03	1.29035654e-04
1.71000000e+00	3.64753990e-03	1.27186192e-04
1.71500000e+00	3.66443742e-03	1.27714638e-04
1.72000000e+00	3.64703847e-03	1.28069687e-04
1.72500000e+00	3.65854891e-03	1.29284856e-04
1.73000000e+00	3.65031528e-03	1.27217124e-04
1.73500000e+00	3.62590200e-03	1.26792855e-04
1.74000000e+00	3.63577808e-03	1.27416787e-04
1.74500000e+00	3.63710533e-03	1.28947143e-04
1.75000000e+00	3.64538529e-03	1.26803440e-04
1.75500000e+00	3.62789163e-03	1.27081827e-04
1.76000000e+00	3.61352614e-03	1.26429390e-04
1.76500000e+00	3.63304683e-03	1.28766767e-04
1.77000000e+00	3.64930978e-03	1.27141149e-04
1.77500000e+00	3.63248976e-03	1.26965369e-04
1.78000000e+00	3.64919777e-03	1.27942986e-04
1.78500000e+00	3.69468142e-03	1.30964794e-04
1.79000000e+00	3.74154829e-03	1.30351083e-04
1.79500000e+00	3.75649308e-03	1.31308309e-04
1.80000000e+00	3.74853181e-03	1.31800425e-04
1.80500000e+00	3.77001888e-03	1.33417918e-04
1.81000000e+00	3.75588715e-03	1.30988989e-04
1.81500000e+00	3.74858048e-03	1.30861786e-04
1.82000000e+00	3.70924776e-03	1.30300470e-04
1.82500000e+00	3.72403870e-03	1.31692503e-04
1.83000000e+00	3.68673970e-03	1.28671355e-04
1.83500000e+00	3.67527684e-03	1.28516821e-04
1.84000000e+00	3.65617874e-03	1.28502437e-04
1.84500000e+00	3.63136784e-03	1.28319194e-04
1.85000000e+00	3.61906576e-03	1.26405610e-04
1.85500000e+00	3.60932017e-03	1.26148883e-04
1.86000000e+00	3.59395453e-03	1.26460500e-04
1.86500000e+00	3.56987884e-03	1.25907360e-04
1.87000000e+00	3.55753886e-03	1.24170668e-04
1.87500000e+00	3.54469878e-03	1.24067865e-04
1.88000000e+00	3.54236268e-03	1.24469595e-04
1.88500000e+00	3.50863622e-03	1.24034845e-04
1.89000000e+00	3.52582376e-03	1.22937351e-04
1.89500000e+00	3.49552119e-03	1.22515075e-04
1.90000000e+00	3.50012019e-03	1.23030887e-04
1.90500000e+00	3.47222347e-03	1.22182337e-04
1.91000000e+00	3.45870494e-03	1.20826736e-04
1.91500000e+00	3.44237530e-03	1.20423641e-04
1.92000000e+00	3.41509066e-03	1.20072451e-04
1.92500000e+00	3.40461547e-03	1.19851409e-04
1.93000000e+00	3.42547964e-03	1.19504089e-04
1.93500000e+00	3.35923692e-03	1.17564097e-04
1.94000000e+00	3.34850018e-03	1.18122063e-04
1.94500000e+00	3.30924932e-03	1.16423041e-04
1.95000000e+00	3.31516073e-03	1.15508709e-04
1.95500000e+00	3.28400305e-03	1.14975247e-04
1.96000000e+00	3.26339725e-03	1.14938926e-04
1.96500000e+00	3.24877761e-03	1.14486229e-04
1.97000000e+00	3.22763625e-03	1.12412627e-04
1.97500000e+00	3.19153500e-03	1.11853779e-04
1.98000000e+00	3.16637561e-03	1.11420807e-04
1.98500000e+00	3.17549869e-03	1.11946245e-04
1.99000000e+00	3.13076463e-03	1.09008707e-04
1.99500000e+00	3.14358371e-03	1.09943772e-04
2.00000000e+00	3.13783411e-03	1.10533294e-04
2.00500000e+00	3.16680212e-03	1.11646941e-04
2.01000000e+00	3.10203115e-03	1.20222639e-04
2.01500000e+00	3.08917228e-03	1.27004183e-04
2.02000000e+00	3.10994257e-03	1.36348827e-04
2.02500000e+00	3.05577116e-03	1.39309694e-04
2.03000000e+00	3.06063045e-03	1.47627122e-04
2.03500000e+00	2.98421299e-03	1.50351326e-04
2.04000000e+00	3.01467609e-03	1.58740900e-04
2.04500000e+00	2.99463085e-03	1.65770623e-04
2.05000000e+00	2.93971588e-03	1.71113050e-04
2.05500000e+00	3.05563749e-03	1.74190840e-04
2.06000000e+00	3.04620740e-03	1.51145987e-04
2.06500000e+00	3.02876245e-03	1.43511472e-04
2.07000000e+00	3.01353159e-03	1.35244556e-04
2.07500000e+00	2.99122351e-03	1.31187045e-04
2.08000000e+00	2.99287444e-03	1.31030747e-04
2.08500000e+00	3.01179896e-03	1.30829776e-04
2.09000000e+00	2.99492321e-03	1.26171859e-04
2.09500000e+00	3.02957375e-03	1.26370230e-04
2.10000000e+00	3.02228001e-03	1.25144102e-04
2.10500000e+00	2.98895766e-03	1.23283691e-04
2.11000000e+00	3.00320890e-03	1.19458163e-04
2.11500000e+00	3.02196840e-03	1.18971621e-04
2.12000000e+00	3.01058392e-03	1.17925736e-04
2.12500000e+00	3.00259852e-03	1.17215142e-04
2.13000000e+00	3.01023447e-03	1.12701388e-04
2.13500000e+00	3.00708089e-03	1.11249908e-04
2.14000000e+00	2.98600341e-03	1.09401443e-04
2.14500000e+00	2.96194106e-03	1.08763515e-04
2.15000000e+00	2.96431706e-03	1.05269825e-04
2.15500000e+00	2.97742490e-03	1.05964969e-04
2.16000000e+00	2.97064202e-03	1.05160885e-04
2.16500000e+00	2.94765785e-03	1.05083351e-04
2.17000000e+00	2.92665003e-03	1.01839522e-04
2.17500000e+00	2.92395607e-03	1.01942427e-04
2.18000000e+00	2.91412419e-03	1.01872974e-04
2.18500000e+00	2.88173007e-03	1.01218181e-04
2.19000000e+00	2.84436882e-03	9.96541629e-05
2.19500000e+00	2.85829738e-03	9.95965575e-05
2.20000000e+00	2.83533530e-03	9.90152192e-05
2.20500000e+00	2.80658009e-03	9.83189910e-05
2.21000000e+00	2.78566030e-03	9.80396376e-05
2.21500000e+00	2.77408130e-03	9.65661673e-05
2.22000000e+00	2.75906637e-03	9.59611835e-05
2.22500000e+00	2.72890067e-03	9.57358751e-05
2.23000000e+00	2.72145437e-03	9.60078619e-05
2.23500000e+00	2.69699543e-03	9.38701923e-05
2.24000000e+00	2.66896203e-03	9.29001105e-05
2.24500000e+00	2.64578551e-03	9.27404806e-05
2.25000000e+00	2.62459538e-03	9.27995514e-05
2.25500000e+00	2.60705688e-03	9.04816021e-05
2.26000000e+00	2.58612356e-03	9.01323887e-05
2.26500000e+00	2.56014230e-03	8.95005614e-05
2.27000000e+00	2.53792509e-03	9.00653866e-05
2.27500000e+00	2.53256359e-03	8.80506448e-05
2.28000000e+00	2.52882864e-03	8.79870264e-05
2.28500000e+00	2.48682352e-03	8.70467121e-05
2.29000000e+00	2.47728938e-03	8.72136299e-05
2.29500000e+00	2.46481777e-03	8.65236900e-05
2.30000000e+00	2.45912643e-03	8.55472079e-05
2.30500000e+00	2.43566976e-03	8.48710068e-05
2.31000000e+00	2.43411292e-03	8.52904483e-05
2.31500000e+00	2.41857029e-03	8.54526720e-05
2.32000000e+00	2.41409428e-03	8.35633669e-05
2.32500000e+00	2.38344539e-03	8.32435496e-05
2.33000000e+00	2.37882092e-03	8.32785922e-05
2.33500000e+00	2.36215924e-03	8.35256324e-05
2.34000000e+00	2.32625248e-03	8.08093519e-05
2.34500000e+00	2.31502714e-03	8.04521193e-05
2.35000000e+00	2.29310132e-03	8.00659070e-05
2.35500000e+00	2.29203024e-03	8.10377274e-05
2.36000000e+00	2.25670141e-03	7.87435540e-05
2.36500000e+00	2.23892721e-03	7.80754721e-05
2.37000000e+00	2.23189654e-03	7.78616672e-05
2.37500000e+00	2.20479039e-03	7.75585325e-05
2.38000000e+00	2.19258819e-03	7.75538697e-05
2.38500000e+00	2.18617027e-03	7.61712341e-05
2.39000000e+00	2.18747189e-03	7.65254223e-05
2.39500000e+00	2.14862281e-03	7.55356684e-05
2.40000000e+00	2.11137130e-03	7.52759343e-05
2.40500000e+00	2.11486073e-03	7.39355951e-05
2.41000000e+00	2.11753825e-03	7.43826741e-05
2.41500000e+00	2.10149412e-03	7.37715752e-05
2.42000000e+00	2.08227936e-03	7.40359208e-05
2.42500000e+00	2.08783405e-03	7.41204981e-05
2.43000000e+00	2.06891903e-03	7.27310635e-05
2.43500000e+00	2.06225713e-03	7.27523635e-05
2.44000000e+00	2.03636912e-03	7.20260764e-05
2.44500000e+00	2.04986495e-03	7.35155526e-05
2.45000000e+00	2.03499991e-03	7.16676547e-05
2.45500000e+00	1.99291954e-03	7.05274757e-05
2.46000000e+00	1.96634853e-03	6.98532768e-05
2.46500000e+00	1.96171815e-03	7.03994409e-05
2.47000000e+00	1.95949414e-03	6.97476642e-05
2.47500000e+00	1.93173320e-03	6.83406731e-05
2.48000000e+00	1.93514269e-03	6.90915755e-05
2.48500000e+00	1.92120163e-03	6.85763681e-05
2.49000000e+00	1.91784513e-03	6.94782123e-05
2.49500000e+00	1.91794876e-03	6.80557689e-05
2.50000000e+00	1.91576695e-03	6.82206263e-05
2.50500000e+00	1.90412646e-03	6.81930414e-05
2.51000000e+00	1.88802100e-03	6.81832225e-05
2.51500000e+00	1.87714084e-03	6.78192675e-05
2.52000000e+00	1.88235479e-03	6.74440826e-05
2.52500000e+00	1.86757055e-03	6.72314535e-05
2.53000000e+00	1.86023940e-03	6.75223310e-05
2.53500000e+00	1.84558470e-03	6.77961287e-05
2.54000000e+00	1.84031761e-03	6.64774208e-05
2.54500000e+00	1.84201783e-03	6.68703374e-05
2.55000000e+00	1.83481013e-03	6.69737294e-05
2.55500000e+00	1.81858081e-03	6.68169703e-05
2.56000000e+00	1.81345835e-03	6.70447917e-05
2.56500000e+00	1.80309222e-03	6.60706689e-05
2.57000000e+00	1.79516926e-03	6.59956322e-05
2.57500000e+00	1.80559958e-03	6.66346502e-05
2.58000000e+00	1.77603805e-03	6.66326237e-05
2.58500000e+00	1.76766933e-03	6.58932022e-05
2.59000000e+00	1.76369962e-03	6.52753995e-05
2.59500000e+00	1.76827529e-03	6.57901290e-05
2.60000000e+00	1.76842522e-03	6.63429021e-05
2.60500000e+00	1.75620675e-03	6.73315981e-05
2.61000000e+00	1.74908932e-03	7.66363078e-05
2.61500000e+00	1.69867551e-03	8.23760142e-05
2.62000000e+00	1.69073412e-03	9.02423875e-05
2.62500000e+00	1.66270807e-03	9.63982389e-05
2.63000000e+00	1.68872311e-03	1.07842532e-04
2.63500000e+00	1.76733760e-03	1.24446297e-04
2.64000000e+00	1.79578750e-03	1.38809860e-04
2.64500000e+00	1.77896012e-03	1.46917066e-04
2.65000000e+00	1.73181810e-03	1.51479320e-04
2.65500000e+00	1.77167278e-03	1.66091442e-04
2.66000000e+00	1.74597437e-03	1.75757644e-04
2.66500000e+00	1.75850549e-03	1.98396507e-04
2.67000000e+00	1.75005583e-03	2.14797862e-04
2.67500000e+00	1.76585686e-03	2.51585005e-04
2.68000000e+00	1.67985424e-03	2.79356881e-04
2.68500000e+00	1.76468032e-03	3.88163550e-04
2.69000000e+00	1.79694054e-03	6.37453102e-04
2.69500000e+00	0.00000000e+00	0.00000000e+00
2.70000000e+00	0.00000000e+00	0.00000000e+00
