% Filename : WSW21_00035_00023.h5
% Date & Time : 30-Oct-2025 17:32:50
% X-ray Energy (keV) : 13.30001
% Exposure Time (s) : 0.500
% Photodiode Value : 140736.000
% I0 of Sample : 0
% I0 of Standard : 1
% 
% q(A^-1)   I(q)    I(q)_SE
8.40000000e-01	0.00000000e+00	0.00000000e+00
8.45000000e-01	3.24849860e-03	5.68771161e-04
8.50000000e-01	3.03795563e-03	2.81756520e-04
8.55000000e-01	2.98106685e-03	2.44002542e-04
8.60000000e-01	2.96092026e-03	2.08988819e-04
8.65000000e-01	2.96325761e-03	1.92950690e-04
8.70000000e-01	2.98547055e-03	1.85374389e-04
8.75000000e-01	2.97622913e-03	1.77713789e-04
8.80000000e-01	3.00949748e-03	1.73802568e-04
8.85000000e-01	3.00166965e-03	1.64015211e-04
8.90000000e-01	2.98990043e-03	1.59824094e-04
8.95000000e-01	3.02899050e-03	1.57333604e-04
9.00000000e-01	3.01579215e-03	1.55030366e-04
9.05000000e-01	3.05203863e-03	1.50308540e-04
9.10000000e-01	3.02855530e-03	1.46128991e-04
9.15000000e-01	3.07749223e-03	1.46209880e-04
9.20000000e-01	3.07447421e-03	1.45914592e-04
9.25000000e-01	3.08164980e-03	1.40066086e-04
9.30000000e-01	3.08542265e-03	1.38779787e-04
9.35000000e-01	3.09730886e-03	1.36641080e-04
9.40000000e-01	3.09203009e-03	1.36726588e-04
9.45000000e-01	3.10698464e-03	1.33983728e-04
9.50000000e-01	3.11582527e-03	1.32564522e-04
9.55000000e-01	3.12194032e-03	1.30361511e-04
9.60000000e-01	3.09752368e-03	1.29434015e-04
9.65000000e-01	3.13956250e-03	1.28884470e-04
9.70000000e-01	3.13719265e-03	1.26643210e-04
9.75000000e-01	3.15726076e-03	1.26129398e-04
9.80000000e-01	3.13799025e-03	1.24369045e-04
9.85000000e-01	3.16935731e-03	1.25733370e-04
9.90000000e-01	3.17344626e-03	1.22064994e-04
9.95000000e-01	3.17365671e-03	1.21432040e-04
1.00000000e+00	3.17327907e-03	1.20830794e-04
1.00500000e+00	3.16982485e-03	1.20645391e-04
1.01000000e+00	3.19446438e-03	1.19121365e-04
1.01500000e+00	3.19100573e-03	1.17796027e-04
1.02000000e+00	3.18431827e-03	1.17367219e-04
1.02500000e+00	3.16182089e-03	1.15204206e-04
1.03000000e+00	3.16443766e-03	1.14897373e-04
1.03500000e+00	3.17226915e-03	1.13551619e-04
1.04000000e+00	3.17798691e-03	1.12974529e-04
1.04500000e+00	3.17839062e-03	1.13051667e-04
1.05000000e+00	3.14825989e-03	1.11174923e-04
1.05500000e+00	3.16867270e-03	1.10213125e-04
1.06000000e+00	3.16003527e-03	1.09593896e-04
1.06500000e+00	3.18978036e-03	1.10713529e-04
1.07000000e+00	3.19758935e-03	1.10844797e-04
1.07500000e+00	3.19735813e-03	1.10083697e-04
1.08000000e+00	3.22256883e-03	1.10109407e-04
1.08500000e+00	3.19217783e-03	1.09206807e-04
1.09000000e+00	3.24928274e-03	1.11816299e-04
1.09500000e+00	3.21962202e-03	1.08602802e-04
1.10000000e+00	3.24810440e-03	1.10310879e-04
1.10500000e+00	3.26157396e-03	1.11048413e-04
1.11000000e+00	3.24926452e-03	1.10798993e-04
1.11500000e+00	3.26512217e-03	1.10496534e-04
1.12000000e+00	3.30413761e-03	1.12273975e-04
1.12500000e+00	3.26824906e-03	1.10925296e-04
1.13000000e+00	3.29579492e-03	1.13117583e-04
1.13500000e+00	3.30489748e-03	1.12065299e-04
1.14000000e+00	3.29840580e-03	1.11624231e-04
1.14500000e+00	3.32672099e-03	1.13493516e-04
1.15000000e+00	3.31353360e-03	1.13641408e-04
1.15500000e+00	3.33947057e-03	1.13325123e-04
1.16000000e+00	3.34343603e-03	1.13858395e-04
1.16500000e+00	3.32380947e-03	1.13049298e-04
1.17000000e+00	3.33425667e-03	1.14851428e-04
1.17500000e+00	3.36787392e-03	1.14508727e-04
1.18000000e+00	3.35946599e-03	1.14669412e-04
1.18500000e+00	3.36507977e-03	1.14623671e-04
1.19000000e+00	3.38289415e-03	1.16569512e-04
1.19500000e+00	3.37103821e-03	1.14686217e-04
1.20000000e+00	3.37993252e-03	1.15698616e-04
1.20500000e+00	3.36101568e-03	1.14755310e-04
1.21000000e+00	3.37710346e-03	1.16893093e-04
1.21500000e+00	3.39346538e-03	1.15621109e-04
1.22000000e+00	3.41917163e-03	1.16665442e-04
1.22500000e+00	3.40451812e-03	1.16456276e-04
1.23000000e+00	3.41411523e-03	1.17757277e-04
1.23500000e+00	3.40092962e-03	1.16549383e-04
1.24000000e+00	3.40185398e-03	1.16086078e-04
1.24500000e+00	3.41078039e-03	1.17187035e-04
1.25000000e+00	3.41655647e-03	1.18038930e-04
1.25500000e+00	3.42862671e-03	1.17123028e-04
1.26000000e+00	3.41349074e-03	1.17258554e-04
1.26500000e+00	3.43561166e-03	1.17652125e-04
1.27000000e+00	3.43227070e-03	1.19252289e-04
1.27500000e+00	3.41070383e-03	1.17232092e-04
1.28000000e+00	3.43319096e-03	1.17350808e-04
1.28500000e+00	3.43302756e-03	1.18006752e-04
1.29000000e+00	3.41885025e-03	1.18551667e-04
1.29500000e+00	3.42896522e-03	1.17538740e-04
1.30000000e+00	3.41419249e-03	1.16933053e-04
1.30500000e+00	3.43440038e-03	1.18048936e-04
1.31000000e+00	3.41535858e-03	1.18895756e-04
1.31500000e+00	3.44915075e-03	1.18618914e-04
1.32000000e+00	3.46204516e-03	1.18833459e-04
1.32500000e+00	3.43865771e-03	1.18429579e-04
1.33000000e+00	3.45753879e-03	1.20444362e-04
1.33500000e+00	3.42794355e-03	1.17873346e-04
1.34000000e+00	3.43699288e-03	1.18175324e-04
1.34500000e+00	3.44500003e-03	1.18985218e-04
1.35000000e+00	3.42761039e-03	1.19505392e-04
1.35500000e+00	3.44741656e-03	1.18581448e-04
1.36000000e+00	3.44718427e-03	1.18338101e-04
1.36500000e+00	3.44166136e-03	1.18567425e-04
1.37000000e+00	3.44440250e-03	1.20436775e-04
1.37500000e+00	3.45043068e-03	1.18808014e-04
1.38000000e+00	3.41959952e-03	1.17950591e-04
1.38500000e+00	3.44210015e-03	1.19411069e-04
1.39000000e+00	3.41630450e-03	1.19227754e-04
1.39500000e+00	3.44375854e-03	1.18538053e-04
1.40000000e+00	3.50502246e-03	1.24186330e-04
1.40500000e+00	3.44797974e-03	1.31531513e-04
1.41000000e+00	3.44656858e-03	1.37754164e-04
1.41500000e+00	3.42958607e-03	1.41954322e-04
1.42000000e+00	3.41685175e-03	1.47052504e-04
1.42500000e+00	3.38232674e-03	1.49813096e-04
1.43000000e+00	3.38402444e-03	1.55635287e-04
1.43500000e+00	3.35210359e-03	1.58909014e-04
1.44000000e+00	3.36295853e-03	1.65711414e-04
1.44500000e+00	3.31985554e-03	1.67772328e-04
1.45000000e+00	3.42861588e-03	1.67552932e-04
1.45500000e+00	3.42232234e-03	1.50259952e-04
1.46000000e+00	3.44319558e-03	1.47684316e-04
1.46500000e+00	3.45447761e-03	1.45428787e-04
1.47000000e+00	3.39992226e-03	1.43000734e-04
1.47500000e+00	3.40722279e-03	1.39134268e-04
1.48000000e+00	3.40568779e-03	1.37493225e-04
1.48500000e+00	3.41842446e-03	1.38048454e-04
1.49000000e+00	3.39581926e-03	1.37484665e-04
1.49500000e+00	3.39995250e-03	1.34694565e-04
1.50000000e+00	3.40352636e-03	1.34350287e-04
1.50500000e+00	3.42730094e-03	1.36018707e-04
1.51000000e+00	3.40929976e-03	1.35612183e-04
1.51500000e+00	3.44298440e-03	1.34694620e-04
1.52000000e+00	3.45910103e-03	1.34898947e-04
1.52500000e+00	3.42346485e-03	1.33310696e-04
1.53000000e+00	3.42321544e-03	1.34132489e-04
1.53500000e+00	3.41116615e-03	1.29793864e-04
1.54000000e+00	3.39378240e-03	1.29036112e-04
1.54500000e+00	3.37987985e-03	1.28217079e-04
1.55000000e+00	3.37101974e-03	1.27579325e-04
1.55500000e+00	3.37779095e-03	1.24916443e-04
1.56000000e+00	3.33941886e-03	1.23786169e-04
1.56500000e+00	3.32669977e-03	1.22658606e-04
1.57000000e+00	3.31815145e-03	1.21484292e-04
1.57500000e+00	3.31467079e-03	1.19116977e-04
1.58000000e+00	3.30196726e-03	1.18432926e-04
1.58500000e+00	3.30561966e-03	1.18510953e-04
1.59000000e+00	3.30871641e-03	1.18766069e-04
1.59500000e+00	3.28063299e-03	1.15574203e-04
1.60000000e+00	3.29705453e-03	1.15990056e-04
1.60500000e+00	3.25669733e-03	1.14644287e-04
1.61000000e+00	3.27175521e-03	1.14694093e-04
1.61500000e+00	3.25747485e-03	1.13168464e-04
1.62000000e+00	3.27321215e-03	1.14251166e-04
1.62500000e+00	3.26001664e-03	1.15005260e-04
1.63000000e+00	3.21454168e-03	1.12172347e-04
1.63500000e+00	3.24096810e-03	1.13151894e-04
1.64000000e+00	3.23193212e-03	1.12793276e-04
1.64500000e+00	3.21730802e-03	1.13599049e-04
1.65000000e+00	3.20414451e-03	1.11821465e-04
1.65500000e+00	3.20420527e-03	1.11773659e-04
1.66000000e+00	3.17231192e-03	1.10789085e-04
1.66500000e+00	3.19373435e-03	1.13365615e-04
1.67000000e+00	3.17322156e-03	1.10406396e-04
1.67500000e+00	3.16289850e-03	1.10225747e-04
1.68000000e+00	3.13743475e-03	1.09707314e-04
1.68500000e+00	3.15198293e-03	1.12080199e-04
1.69000000e+00	3.12902878e-03	1.09128122e-04
1.69500000e+00	3.13733650e-03	1.09191152e-04
1.70000000e+00	3.15325240e-03	1.10911507e-04
1.70500000e+00	3.14430270e-03	1.11160644e-04
1.71000000e+00	3.13418525e-03	1.09509151e-04
1.71500000e+00	3.14215971e-03	1.09656015e-04
1.72000000e+00	3.15673788e-03	1.10979573e-04
1.72500000e+00	3.10200951e-03	1.09764831e-04
1.73000000e+00	3.13246089e-03	1.09356861e-04
1.73500000e+00	3.15920247e-03	1.10589565e-04
1.74000000e+00	3.14223066e-03	1.10296862e-04
1.74500000e+00	3.15946074e-03	1.12196804e-04
1.75000000e+00	3.15441522e-03	1.09910697e-04
1.75500000e+00	3.19488190e-03	1.12082097e-04
1.76000000e+00	3.19068525e-03	1.11831205e-04
1.76500000e+00	3.21555612e-03	1.14183519e-04
1.77000000e+00	3.26661367e-03	1.14254730e-04
1.77500000e+00	3.35365580e-03	1.17537057e-04
1.78000000e+00	3.42947392e-03	1.20976403e-04
1.78500000e+00	3.51521972e-03	1.25386326e-04
1.79000000e+00	3.65630858e-03	1.28974091e-04
1.79500000e+00	3.79101031e-03	1.34443506e-04
1.80000000e+00	3.82554383e-03	1.36488101e-04
1.80500000e+00	3.77310035e-03	1.35513846e-04
1.81000000e+00	3.70843497e-03	1.30691270e-04
1.81500000e+00	3.52713383e-03	1.23978097e-04
1.82000000e+00	3.41799645e-03	1.20713976e-04
1.82500000e+00	3.31967545e-03	1.17665815e-04
1.83000000e+00	3.27265492e-03	1.14437433e-04
1.83500000e+00	3.23211669e-03	1.13269382e-04
1.84000000e+00	3.21038681e-03	1.12999580e-04
1.84500000e+00	3.19379226e-03	1.13025093e-04
1.85000000e+00	3.17264853e-03	1.10934183e-04
1.85500000e+00	3.15719795e-03	1.10490486e-04
1.86000000e+00	3.14240987e-03	1.10627260e-04
1.86500000e+00	3.15505863e-03	1.11410324e-04
1.87000000e+00	3.12744050e-03	1.09183594e-04
1.87500000e+00	3.15915380e-03	1.10641083e-04
1.88000000e+00	3.16126918e-03	1.11135886e-04
1.88500000e+00	3.14622517e-03	1.11302851e-04
1.89000000e+00	3.15472321e-03	1.10041700e-04
1.89500000e+00	3.15108143e-03	1.10538985e-04
1.90000000e+00	3.13179840e-03	1.10158299e-04
1.90500000e+00	3.14548467e-03	1.10679161e-04
1.91000000e+00	3.15834948e-03	1.10422870e-04
1.91500000e+00	3.09493942e-03	1.08293627e-04
1.92000000e+00	3.09362634e-03	1.08810169e-04
1.92500000e+00	3.08954606e-03	1.08803461e-04
1.93000000e+00	3.06850134e-03	1.07032143e-04
1.93500000e+00	3.03837434e-03	1.06308443e-04
1.94000000e+00	2.98602765e-03	1.05395543e-04
1.94500000e+00	2.97049654e-03	1.04527446e-04
1.95000000e+00	2.94262923e-03	1.02648447e-04
1.95500000e+00	2.89948130e-03	1.01620607e-04
1.96000000e+00	2.89813107e-03	1.02121717e-04
1.96500000e+00	2.89533890e-03	1.02105214e-04
1.97000000e+00	2.85867897e-03	9.96608569e-05
1.97500000e+00	2.83717205e-03	9.95334113e-05
1.98000000e+00	2.82803028e-03	9.95656319e-05
1.98500000e+00	2.81723368e-03	9.94498054e-05
1.99000000e+00	2.79484304e-03	9.74402141e-05
1.99500000e+00	2.77390896e-03	9.71919928e-05
2.00000000e+00	2.74221439e-03	9.67482397e-05
2.00500000e+00	2.75791708e-03	9.74745358e-05
2.01000000e+00	2.73449749e-03	1.05917709e-04
2.01500000e+00	2.69641601e-03	1.11072603e-04
2.02000000e+00	2.66750307e-03	1.17097597e-04
2.02500000e+00	2.64841755e-03	1.20699583e-04
2.03000000e+00	2.65466436e-03	1.28199890e-04
2.03500000e+00	2.64077591e-03	1.33223123e-04
2.04000000e+00	2.61020327e-03	1.37750218e-04
2.04500000e+00	2.58753934e-03	1.43656256e-04
2.05000000e+00	2.55837874e-03	1.49235397e-04
2.05500000e+00	2.60535262e-03	1.48744398e-04
2.06000000e+00	2.60388158e-03	1.29390308e-04
2.06500000e+00	2.54297935e-03	1.20811198e-04
2.07000000e+00	2.55874962e-03	1.15036819e-04
2.07500000e+00	2.55852246e-03	1.12476989e-04
2.08000000e+00	2.54624223e-03	1.11728524e-04
2.08500000e+00	2.54780962e-03	1.10749299e-04
2.09000000e+00	2.53994633e-03	1.07226265e-04
2.09500000e+00	2.52693960e-03	1.05434277e-04
2.10000000e+00	2.51291339e-03	1.04157181e-04
2.10500000e+00	2.51542397e-03	1.04002612e-04
2.11000000e+00	2.49400589e-03	9.92478832e-05
2.11500000e+00	2.47587289e-03	9.76133218e-05
2.12000000e+00	2.47855360e-03	9.72678823e-05
2.12500000e+00	2.42870991e-03	9.49587701e-05
2.13000000e+00	2.43723782e-03	9.14053278e-05
2.13500000e+00	2.41736531e-03	8.95816534e-05
2.14000000e+00	2.37036428e-03	8.71040008e-05
2.14500000e+00	2.37425704e-03	8.73986057e-05
2.15000000e+00	2.37465144e-03	8.45097298e-05
2.15500000e+00	2.36306785e-03	8.42705824e-05
2.16000000e+00	2.36596420e-03	8.39554739e-05
2.16500000e+00	2.35314527e-03	8.40654334e-05
2.17000000e+00	2.35487048e-03	8.21005036e-05
2.17500000e+00	2.32054456e-03	8.12123675e-05
2.18000000e+00	2.31285377e-03	8.11470583e-05
2.18500000e+00	2.31838507e-03	8.17336585e-05
2.19000000e+00	2.29284214e-03	8.06051525e-05
2.19500000e+00	2.29970608e-03	8.04472143e-05
2.20000000e+00	2.28392116e-03	8.00572811e-05
2.20500000e+00	2.25914296e-03	7.94227646e-05
2.21000000e+00	2.26457287e-03	7.99914835e-05
2.21500000e+00	2.24442774e-03	7.84288763e-05
2.22000000e+00	2.23656385e-03	7.81059454e-05
2.22500000e+00	2.21332516e-03	7.79032814e-05
2.23000000e+00	2.21944914e-03	7.86030650e-05
2.23500000e+00	2.20178784e-03	7.68869446e-05
2.24000000e+00	2.18922443e-03	7.64350639e-05
2.24500000e+00	2.17187315e-03	7.64029494e-05
2.25000000e+00	2.16652081e-03	7.68427358e-05
2.25500000e+00	2.15308029e-03	7.50238844e-05
2.26000000e+00	2.13374530e-03	7.46243400e-05
2.26500000e+00	2.11247672e-03	7.40499425e-05
2.27000000e+00	2.10032079e-03	7.47431729e-05
2.27500000e+00	2.09471101e-03	7.30432976e-05
2.28000000e+00	2.07878362e-03	7.24923036e-05
2.28500000e+00	2.05634388e-03	7.22663348e-05
2.29000000e+00	2.07294843e-03	7.31790345e-05
2.29500000e+00	2.03199314e-03	7.16104852e-05
2.30000000e+00	2.01275534e-03	7.02501446e-05
2.30500000e+00	2.03879726e-03	7.13119195e-05
2.31000000e+00	2.00624105e-03	7.05447385e-05
2.31500000e+00	2.00146960e-03	7.08672646e-05
2.32000000e+00	1.97667326e-03	6.86138362e-05
2.32500000e+00	1.97538335e-03	6.91643420e-05
2.33000000e+00	1.94933771e-03	6.83158579e-05
2.33500000e+00	1.93762573e-03	6.86987968e-05
2.34000000e+00	1.94483996e-03	6.77684233e-05
2.34500000e+00	1.93410966e-03	6.73713760e-05
2.35000000e+00	1.90654390e-03	6.67355029e-05
2.35500000e+00	1.91538612e-03	6.78085352e-05
2.36000000e+00	1.88293493e-03	6.57981218e-05
2.36500000e+00	1.89465753e-03	6.61229727e-05
2.37000000e+00	1.87213133e-03	6.54383306e-05
2.37500000e+00	1.86184281e-03	6.56074318e-05
2.38000000e+00	1.83602764e-03	6.50588984e-05
2.38500000e+00	1.85427683e-03	6.46779136e-05
2.39000000e+00	1.82218398e-03	6.37994578e-05
2.39500000e+00	1.82428999e-03	6.41554260e-05
2.40000000e+00	1.81055530e-03	6.46956013e-05
2.40500000e+00	1.79204346e-03	6.26643755e-05
2.41000000e+00	1.77704896e-03	6.23817632e-05
2.41500000e+00	1.77607562e-03	6.23894241e-05
2.42000000e+00	1.76542787e-03	6.28851605e-05
2.42500000e+00	1.76648285e-03	6.28117699e-05
2.43000000e+00	1.74998084e-03	6.15463878e-05
2.43500000e+00	1.74165886e-03	6.15210093e-05
2.44000000e+00	1.75612255e-03	6.21993031e-05
2.44500000e+00	1.71242179e-03	6.13650742e-05
2.45000000e+00	1.71685137e-03	6.04795688e-05
2.45500000e+00	1.71036121e-03	6.05117103e-05
2.46000000e+00	1.67685657e-03	5.95259839e-05
2.46500000e+00	1.67673367e-03	6.02928947e-05
2.47000000e+00	1.67672391e-03	5.96538167e-05
2.47500000e+00	1.66613392e-03	5.89582632e-05
2.48000000e+00	1.67250000e-03	5.97160128e-05
2.48500000e+00	1.64834541e-03	5.88163419e-05
2.49000000e+00	1.64465220e-03	5.95207943e-05
2.49500000e+00	1.63455644e-03	5.79826523e-05
2.50000000e+00	1.61554062e-03	5.74102456e-05
2.50500000e+00	1.60598860e-03	5.74573006e-05
2.51000000e+00	1.59061239e-03	5.73085304e-05
2.51500000e+00	1.60512095e-03	5.79526729e-05
2.52000000e+00	1.59373360e-03	5.69254461e-05
2.52500000e+00	1.58496647e-03	5.69939470e-05
2.53000000e+00	1.57989784e-03	5.72818751e-05
2.53500000e+00	1.57378378e-03	5.76940245e-05
2.54000000e+00	1.57527359e-03	5.67931674e-05
2.54500000e+00	1.55961724e-03	5.65216453e-05
2.55000000e+00	1.56561596e-03	5.70133432e-05
2.55500000e+00	1.54058249e-03	5.66125694e-05
2.56000000e+00	1.54780371e-03	5.71386228e-05
2.56500000e+00	1.53326277e-03	5.61545836e-05
2.57000000e+00	1.53382757e-03	5.63889176e-05
2.57500000e+00	1.53025084e-03	5.63907534e-05
2.58000000e+00	1.49826964e-03	5.62016216e-05
2.58500000e+00	1.50336722e-03	5.58972138e-05
2.59000000e+00	1.49535194e-03	5.53602835e-05
2.59500000e+00	1.49716901e-03	5.56936462e-05
2.60000000e+00	1.48214787e-03	5.54870169e-05
2.60500000e+00	1.50100741e-03	5.75192631e-05
2.61000000e+00	1.49208009e-03	6.50490829e-05
2.61500000e+00	1.47714243e-03	7.13630147e-05
2.62000000e+00	1.44956850e-03	7.70696031e-05
2.62500000e+00	1.43104428e-03	8.24250015e-05
2.63000000e+00	1.44824859e-03	9.22609994e-05
2.63500000e+00	1.47216510e-03	1.03889216e-04
2.64000000e+00	1.48190391e-03	1.14677835e-04
2.64500000e+00	1.51558976e-03	1.25257404e-04
2.65000000e+00	1.47354019e-03	1.29430036e-04
2.65500000e+00	1.45969464e-03	1.37717744e-04
2.66000000e+00	1.47406652e-03	1.48446686e-04
2.66500000e+00	1.45977164e-03	1.65633848e-04
2.67000000e+00	1.45963550e-03	1.79326788e-04
2.67500000e+00	1.46905011e-03	2.11466704e-04
2.68000000e+00	1.53189903e-03	2.57287400e-04
2.68500000e+00	1.48485864e-03	3.28235927e-04
2.69000000e+00	1.42868205e-03	5.08334753e-04
2.69500000e+00	0.00000000e+00	0.00000000e+00
2.70000000e+00	0.00000000e+00	0.00000000e+00
