% Filename : WSW21_00035_00014.h5
% Date & Time : 30-Oct-2025 17:32:24
% X-ray Energy (keV) : 13.30001
% Exposure Time (s) : 0.500
% Photodiode Value : 140928.000
% I0 of Sample : 0
% I0 of Standard : 1
% 
% q(A^-1)   I(q)    I(q)_SE
8.40000000e-01	0.00000000e+00	0.00000000e+00
8.45000000e-01	3.15695000e-03	5.52532787e-04
8.50000000e-01	2.87986887e-03	2.67418465e-04
8.55000000e-01	2.85012966e-03	2.32992198e-04
8.60000000e-01	2.88021045e-03	2.03758990e-04
8.65000000e-01	2.87989983e-03	1.87502033e-04
8.70000000e-01	2.92844191e-03	1.81722786e-04
8.75000000e-01	2.88468029e-03	1.72432331e-04
8.80000000e-01	2.92125336e-03	1.68712013e-04
8.85000000e-01	2.91184046e-03	1.59076132e-04
8.90000000e-01	2.89967048e-03	1.54951766e-04
8.95000000e-01	2.92776267e-03	1.52070772e-04
9.00000000e-01	2.95368955e-03	1.52105330e-04
9.05000000e-01	2.97650908e-03	1.46436270e-04
9.10000000e-01	2.96936317e-03	1.43361755e-04
9.15000000e-01	2.98713759e-03	1.41974927e-04
9.20000000e-01	3.00971887e-03	1.42963328e-04
9.25000000e-01	2.96546218e-03	1.34749500e-04
9.30000000e-01	3.00700325e-03	1.35267534e-04
9.35000000e-01	2.98854368e-03	1.31778605e-04
9.40000000e-01	2.99041096e-03	1.32275922e-04
9.45000000e-01	3.04577447e-03	1.31299838e-04
9.50000000e-01	3.00980356e-03	1.27968195e-04
9.55000000e-01	3.04269994e-03	1.27070487e-04
9.60000000e-01	3.04016438e-03	1.26977014e-04
9.65000000e-01	3.02623598e-03	1.24257786e-04
9.70000000e-01	3.04693620e-03	1.23072533e-04
9.75000000e-01	3.02519980e-03	1.20920910e-04
9.80000000e-01	3.02810996e-03	1.19959104e-04
9.85000000e-01	3.06801053e-03	1.21700253e-04
9.90000000e-01	3.06871755e-03	1.17953666e-04
9.95000000e-01	3.07636311e-03	1.17753118e-04
1.00000000e+00	3.06786062e-03	1.16753678e-04
1.00500000e+00	3.12330248e-03	1.19073592e-04
1.01000000e+00	3.06140229e-03	1.14161814e-04
1.01500000e+00	3.05662816e-03	1.12827601e-04
1.02000000e+00	3.09212783e-03	1.14125965e-04
1.02500000e+00	3.06551834e-03	1.11709966e-04
1.03000000e+00	3.07190590e-03	1.11535851e-04
1.03500000e+00	3.06162928e-03	1.09555205e-04
1.04000000e+00	3.07652002e-03	1.09470777e-04
1.04500000e+00	3.05542825e-03	1.08703559e-04
1.05000000e+00	3.06924664e-03	1.08512926e-04
1.05500000e+00	3.04950222e-03	1.06206257e-04
1.06000000e+00	3.07643693e-03	1.06834905e-04
1.06500000e+00	3.06896506e-03	1.06570879e-04
1.07000000e+00	3.08063899e-03	1.06800355e-04
1.07500000e+00	3.10343863e-03	1.06856948e-04
1.08000000e+00	3.10324254e-03	1.06098695e-04
1.08500000e+00	3.12199177e-03	1.06907351e-04
1.09000000e+00	3.13618753e-03	1.07889867e-04
1.09500000e+00	3.14173800e-03	1.06088240e-04
1.10000000e+00	3.15246454e-03	1.07058159e-04
1.10500000e+00	3.14429802e-03	1.07131492e-04
1.11000000e+00	3.15115254e-03	1.07480535e-04
1.11500000e+00	3.15144151e-03	1.06758910e-04
1.12000000e+00	3.16138778e-03	1.07500571e-04
1.12500000e+00	3.18446868e-03	1.08066653e-04
1.13000000e+00	3.18196686e-03	1.09214034e-04
1.13500000e+00	3.20102629e-03	1.08595414e-04
1.14000000e+00	3.18210492e-03	1.07781055e-04
1.14500000e+00	3.20449139e-03	1.09488733e-04
1.15000000e+00	3.21008160e-03	1.10173857e-04
1.15500000e+00	3.23081044e-03	1.09689850e-04
1.16000000e+00	3.24486266e-03	1.10598851e-04
1.16500000e+00	3.23129772e-03	1.10018526e-04
1.17000000e+00	3.23730468e-03	1.11548810e-04
1.17500000e+00	3.24726871e-03	1.10401508e-04
1.18000000e+00	3.25470556e-03	1.11079758e-04
1.18500000e+00	3.22233857e-03	1.09854861e-04
1.19000000e+00	3.25431443e-03	1.12155023e-04
1.19500000e+00	3.26962902e-03	1.11297697e-04
1.20000000e+00	3.26026692e-03	1.11608899e-04
1.20500000e+00	3.26021770e-03	1.11358007e-04
1.21000000e+00	3.28741778e-03	1.13864952e-04
1.21500000e+00	3.25767508e-03	1.11030726e-04
1.22000000e+00	3.27446262e-03	1.11716047e-04
1.22500000e+00	3.28800245e-03	1.12639201e-04
1.23000000e+00	3.28198004e-03	1.13255372e-04
1.23500000e+00	3.28115076e-03	1.12513598e-04
1.24000000e+00	3.29690615e-03	1.12582706e-04
1.24500000e+00	3.28374933e-03	1.12883094e-04
1.25000000e+00	3.30024356e-03	1.14054027e-04
1.25500000e+00	3.30725021e-03	1.12988548e-04
1.26000000e+00	3.30130518e-03	1.13444728e-04
1.26500000e+00	3.29584063e-03	1.12914974e-04
1.27000000e+00	3.31451743e-03	1.15204689e-04
1.27500000e+00	3.28719500e-03	1.13105512e-04
1.28000000e+00	3.33541360e-03	1.14101191e-04
1.28500000e+00	3.31539480e-03	1.14049047e-04
1.29000000e+00	3.31657088e-03	1.15084062e-04
1.29500000e+00	3.31360571e-03	1.13697931e-04
1.30000000e+00	3.31314514e-03	1.13482807e-04
1.30500000e+00	3.29648103e-03	1.13493477e-04
1.31000000e+00	3.32607993e-03	1.15846015e-04
1.31500000e+00	3.30977208e-03	1.13867253e-04
1.32000000e+00	3.31023482e-03	1.13711900e-04
1.32500000e+00	3.31343803e-03	1.14180742e-04
1.33000000e+00	3.31903982e-03	1.15672987e-04
1.33500000e+00	3.31097787e-03	1.13848293e-04
1.34000000e+00	3.32878552e-03	1.14586118e-04
1.34500000e+00	3.32193733e-03	1.14751715e-04
1.35000000e+00	3.30760476e-03	1.15404037e-04
1.35500000e+00	3.31569038e-03	1.14105775e-04
1.36000000e+00	3.31905671e-03	1.13958734e-04
1.36500000e+00	3.31742194e-03	1.14333463e-04
1.37000000e+00	3.30860995e-03	1.15773383e-04
1.37500000e+00	3.33017869e-03	1.14703966e-04
1.38000000e+00	3.30603113e-03	1.14166462e-04
1.38500000e+00	3.33582506e-03	1.15782522e-04
1.39000000e+00	3.29939481e-03	1.15300645e-04
1.39500000e+00	3.33680703e-03	1.14866151e-04
1.40000000e+00	3.33847699e-03	1.18360328e-04
1.40500000e+00	3.30022893e-03	1.25924647e-04
1.41000000e+00	3.26716313e-03	1.30595882e-04
1.41500000e+00	3.30312015e-03	1.36753215e-04
1.42000000e+00	3.23820679e-03	1.39498875e-04
1.42500000e+00	3.24811072e-03	1.44160194e-04
1.43000000e+00	3.23523732e-03	1.48926013e-04
1.43500000e+00	3.20754937e-03	1.52129997e-04
1.44000000e+00	3.24476655e-03	1.59977197e-04
1.44500000e+00	3.20664303e-03	1.62192195e-04
1.45000000e+00	3.27927513e-03	1.60635047e-04
1.45500000e+00	3.31856627e-03	1.45796819e-04
1.46000000e+00	3.30402590e-03	1.41577472e-04
1.46500000e+00	3.26355256e-03	1.37527904e-04
1.47000000e+00	3.28380659e-03	1.38156328e-04
1.47500000e+00	3.28636894e-03	1.34150958e-04
1.48000000e+00	3.26698747e-03	1.31979786e-04
1.48500000e+00	3.27138559e-03	1.32239442e-04
1.49000000e+00	3.27112100e-03	1.32611035e-04
1.49500000e+00	3.26264212e-03	1.29263662e-04
1.50000000e+00	3.28120177e-03	1.29504660e-04
1.50500000e+00	3.27901303e-03	1.30214059e-04
1.51000000e+00	3.28613434e-03	1.30805023e-04
1.51500000e+00	3.32505461e-03	1.30040488e-04
1.52000000e+00	3.27646213e-03	1.27794227e-04
1.52500000e+00	3.28003748e-03	1.27773926e-04
1.53000000e+00	3.29561212e-03	1.29205303e-04
1.53500000e+00	3.28561409e-03	1.25124483e-04
1.54000000e+00	3.26934604e-03	1.24283457e-04
1.54500000e+00	3.26471889e-03	1.23911964e-04
1.55000000e+00	3.24931143e-03	1.22944185e-04
1.55500000e+00	3.24215918e-03	1.19941062e-04
1.56000000e+00	3.22794537e-03	1.19642262e-04
1.56500000e+00	3.23777900e-03	1.19425243e-04
1.57000000e+00	3.18552903e-03	1.16634897e-04
1.57500000e+00	3.19111319e-03	1.14663889e-04
1.58000000e+00	3.18961357e-03	1.14346500e-04
1.58500000e+00	3.16048214e-03	1.13383275e-04
1.59000000e+00	3.18346651e-03	1.14240270e-04
1.59500000e+00	3.15853927e-03	1.11199022e-04
1.60000000e+00	3.15065328e-03	1.10912040e-04
1.60500000e+00	3.13523482e-03	1.10452711e-04
1.61000000e+00	3.14985724e-03	1.10402070e-04
1.61500000e+00	3.12389971e-03	1.08597961e-04
1.62000000e+00	3.12094446e-03	1.08881950e-04
1.62500000e+00	3.10534623e-03	1.09611190e-04
1.63000000e+00	3.12414412e-03	1.09115953e-04
1.63500000e+00	3.09971433e-03	1.08290864e-04
1.64000000e+00	3.11579159e-03	1.08850987e-04
1.64500000e+00	3.09169398e-03	1.09165853e-04
1.65000000e+00	3.06716939e-03	1.07220315e-04
1.65500000e+00	3.06865798e-03	1.07044216e-04
1.66000000e+00	3.08779454e-03	1.07832429e-04
1.66500000e+00	3.05249913e-03	1.08383050e-04
1.67000000e+00	3.05082019e-03	1.06171734e-04
1.67500000e+00	3.04899181e-03	1.06352529e-04
1.68000000e+00	3.04457130e-03	1.06495623e-04
1.68500000e+00	3.04482822e-03	1.08337704e-04
1.69000000e+00	3.06075880e-03	1.06803581e-04
1.69500000e+00	3.05201313e-03	1.06275543e-04
1.70000000e+00	3.02551656e-03	1.06560799e-04
1.70500000e+00	3.01885174e-03	1.06769821e-04
1.71000000e+00	3.02997051e-03	1.05829212e-04
1.71500000e+00	3.02460980e-03	1.05449968e-04
1.72000000e+00	3.02467004e-03	1.06393287e-04
1.72500000e+00	3.02649180e-03	1.07144959e-04
1.73000000e+00	3.00739020e-03	1.04982874e-04
1.73500000e+00	3.01432178e-03	1.05593632e-04
1.74000000e+00	3.02454102e-03	1.06153207e-04
1.74500000e+00	3.03810708e-03	1.07886550e-04
1.75000000e+00	3.03582298e-03	1.05746883e-04
1.75500000e+00	3.07241031e-03	1.07795024e-04
1.76000000e+00	3.05029149e-03	1.06936951e-04
1.76500000e+00	3.09830977e-03	1.10099987e-04
1.77000000e+00	3.16154107e-03	1.10565643e-04
1.77500000e+00	3.23530113e-03	1.13665732e-04
1.78000000e+00	3.31566707e-03	1.16967797e-04
1.78500000e+00	3.43038505e-03	1.22741503e-04
1.79000000e+00	3.57645221e-03	1.26413013e-04
1.79500000e+00	3.67318985e-03	1.30794552e-04
1.80000000e+00	3.70334766e-03	1.32953667e-04
1.80500000e+00	3.65095172e-03	1.31331237e-04
1.81000000e+00	3.55313866e-03	1.25588980e-04
1.81500000e+00	3.39337097e-03	1.19531684e-04
1.82000000e+00	3.24768873e-03	1.14652259e-04
1.82500000e+00	3.16354831e-03	1.12194214e-04
1.83000000e+00	3.11715877e-03	1.08948906e-04
1.83500000e+00	3.10025693e-03	1.08561836e-04
1.84000000e+00	3.06073691e-03	1.07730758e-04
1.84500000e+00	3.04245101e-03	1.07646869e-04
1.85000000e+00	3.03155327e-03	1.06007844e-04
1.85500000e+00	3.04082686e-03	1.06414914e-04
1.86000000e+00	3.01277961e-03	1.06179055e-04
1.86500000e+00	3.01920686e-03	1.06632578e-04
1.87000000e+00	3.00050318e-03	1.04835933e-04
1.87500000e+00	2.99076175e-03	1.04707942e-04
1.88000000e+00	3.01833145e-03	1.06117405e-04
1.88500000e+00	2.99612269e-03	1.06007005e-04
1.89000000e+00	3.00186529e-03	1.04732147e-04
1.89500000e+00	2.99518574e-03	1.05062229e-04
1.90000000e+00	3.00756544e-03	1.05811714e-04
1.90500000e+00	2.97939923e-03	1.04947939e-04
1.91000000e+00	2.95689567e-03	1.03463695e-04
1.91500000e+00	2.94736174e-03	1.03151961e-04
1.92000000e+00	2.93355172e-03	1.03171801e-04
1.92500000e+00	2.92724812e-03	1.03097263e-04
1.93000000e+00	2.87920197e-03	1.00575702e-04
1.93500000e+00	2.86241675e-03	1.00217568e-04
1.94000000e+00	2.83189844e-03	9.99797535e-05
1.94500000e+00	2.83298229e-03	9.97327413e-05
1.95000000e+00	2.82127300e-03	9.83545090e-05
1.95500000e+00	2.75599313e-03	9.65674724e-05
1.96000000e+00	2.76318420e-03	9.74413734e-05
1.96500000e+00	2.73147668e-03	9.63514537e-05
1.97000000e+00	2.73299060e-03	9.51787542e-05
1.97500000e+00	2.70070826e-03	9.47339386e-05
1.98000000e+00	2.69674646e-03	9.50097625e-05
1.98500000e+00	2.68215780e-03	9.46371578e-05
1.99000000e+00	2.65292109e-03	9.25255570e-05
1.99500000e+00	2.63238092e-03	9.21817672e-05
2.00000000e+00	2.63333509e-03	9.28489525e-05
2.00500000e+00	2.63593697e-03	9.31609653e-05
2.01000000e+00	2.60839628e-03	1.01186205e-04
2.01500000e+00	2.58622297e-03	1.06507946e-04
2.02000000e+00	2.58328999e-03	1.13346826e-04
2.02500000e+00	2.54903380e-03	1.16276099e-04
2.03000000e+00	2.52942097e-03	1.22260902e-04
2.03500000e+00	2.52309170e-03	1.27420588e-04
2.04000000e+00	2.49242320e-03	1.31569028e-04
2.04500000e+00	2.43731234e-03	1.35318964e-04
2.05000000e+00	2.43004689e-03	1.41887676e-04
2.05500000e+00	2.46462355e-03	1.40965016e-04
2.06000000e+00	2.48499889e-03	1.23593098e-04
2.06500000e+00	2.46422363e-03	1.17125685e-04
2.07000000e+00	2.46665466e-03	1.10932318e-04
2.07500000e+00	2.43131324e-03	1.06829213e-04
2.08000000e+00	2.44976850e-03	1.07477629e-04
2.08500000e+00	2.41834364e-03	1.05241282e-04
2.09000000e+00	2.45175531e-03	1.03413046e-04
2.09500000e+00	2.41193253e-03	1.00648332e-04
2.10000000e+00	2.40959279e-03	9.99093257e-05
2.10500000e+00	2.40057006e-03	9.92467456e-05
2.11000000e+00	2.38307769e-03	9.48914232e-05
2.11500000e+00	2.39416488e-03	9.44048389e-05
2.12000000e+00	2.35762489e-03	9.24332635e-05
2.12500000e+00	2.35054685e-03	9.18894756e-05
2.13000000e+00	2.31983535e-03	8.70306502e-05
2.13500000e+00	2.32596209e-03	8.61984998e-05
2.14000000e+00	2.30113845e-03	8.45525177e-05
2.14500000e+00	2.27036038e-03	8.35963895e-05
2.15000000e+00	2.24770154e-03	8.00046686e-05
2.15500000e+00	2.28104204e-03	8.14361649e-05
2.16000000e+00	2.23847118e-03	7.95153145e-05
2.16500000e+00	2.25867924e-03	8.07613559e-05
2.17000000e+00	2.25057413e-03	7.84501075e-05
2.17500000e+00	2.23945307e-03	7.83425617e-05
2.18000000e+00	2.22414617e-03	7.80166987e-05
2.18500000e+00	2.20299230e-03	7.76765470e-05
2.19000000e+00	2.21469266e-03	7.78253276e-05
2.19500000e+00	2.17891310e-03	7.61349590e-05
2.20000000e+00	2.17618610e-03	7.62502306e-05
2.20500000e+00	2.15590148e-03	7.57950188e-05
2.21000000e+00	2.15754290e-03	7.62062780e-05
2.21500000e+00	2.14098319e-03	7.48130938e-05
2.22000000e+00	2.12112399e-03	7.40407480e-05
2.22500000e+00	2.13156341e-03	7.50741454e-05
2.23000000e+00	2.10704564e-03	7.46126369e-05
2.23500000e+00	2.09826891e-03	7.33160513e-05
2.24000000e+00	2.07466330e-03	7.25545191e-05
2.24500000e+00	2.07731312e-03	7.31412490e-05
2.25000000e+00	2.05551713e-03	7.29128860e-05
2.25500000e+00	2.04643076e-03	7.12851604e-05
2.26000000e+00	2.06027210e-03	7.20178361e-05
2.26500000e+00	2.01565223e-03	7.08021126e-05
2.27000000e+00	2.00155455e-03	7.11795437e-05
2.27500000e+00	1.99628383e-03	6.95887601e-05
2.28000000e+00	2.00646221e-03	7.00588613e-05
2.28500000e+00	1.95704252e-03	6.87647045e-05
2.29000000e+00	1.96132198e-03	6.93397402e-05
2.29500000e+00	1.95485711e-03	6.88591171e-05
2.30000000e+00	1.95519075e-03	6.81524671e-05
2.30500000e+00	1.93019651e-03	6.74894792e-05
2.31000000e+00	1.92216766e-03	6.75636486e-05
2.31500000e+00	1.90893979e-03	6.76372800e-05
2.32000000e+00	1.90414807e-03	6.60926713e-05
2.32500000e+00	1.86937053e-03	6.54724443e-05
2.33000000e+00	1.87637398e-03	6.58342964e-05
2.33500000e+00	1.83665562e-03	6.51180045e-05
2.34000000e+00	1.84424613e-03	6.42472350e-05
2.34500000e+00	1.83629706e-03	6.40608115e-05
2.35000000e+00	1.82001461e-03	6.36971384e-05
2.35500000e+00	1.82085418e-03	6.45433736e-05
2.36000000e+00	1.79343840e-03	6.26932458e-05
2.36500000e+00	1.77950689e-03	6.21171765e-05
2.37000000e+00	1.78482051e-03	6.23019589e-05
2.37500000e+00	1.76484906e-03	6.22258183e-05
2.38000000e+00	1.77302621e-03	6.27891371e-05
2.38500000e+00	1.76753243e-03	6.17531893e-05
2.39000000e+00	1.74118923e-03	6.10119127e-05
2.39500000e+00	1.72483198e-03	6.07194979e-05
2.40000000e+00	1.71882445e-03	6.13597286e-05
2.40500000e+00	1.70043740e-03	5.95039281e-05
2.41000000e+00	1.68567554e-03	5.92207251e-05
2.41500000e+00	1.69868607e-03	5.96890313e-05
2.42000000e+00	1.68120906e-03	5.98344232e-05
2.42500000e+00	1.67463642e-03	5.95389630e-05
2.43000000e+00	1.66312873e-03	5.85520949e-05
2.43500000e+00	1.66947449e-03	5.89791239e-05
2.44000000e+00	1.64426215e-03	5.82550068e-05
2.44500000e+00	1.62671405e-03	5.83679684e-05
2.45000000e+00	1.62208427e-03	5.71825554e-05
2.45500000e+00	1.61638041e-03	5.71459048e-05
2.46000000e+00	1.60338154e-03	5.68641205e-05
2.46500000e+00	1.60011542e-03	5.74870989e-05
2.47000000e+00	1.58662220e-03	5.63988601e-05
2.47500000e+00	1.57722804e-03	5.57701720e-05
2.48000000e+00	1.56928100e-03	5.60444346e-05
2.48500000e+00	1.56337032e-03	5.57827916e-05
2.49000000e+00	1.55615208e-03	5.63485667e-05
2.49500000e+00	1.55517505e-03	5.51474083e-05
2.50000000e+00	1.54849482e-03	5.51112754e-05
2.50500000e+00	1.54355046e-03	5.52056061e-05
2.51000000e+00	1.53284397e-03	5.52069039e-05
2.51500000e+00	1.52309764e-03	5.49983804e-05
2.52000000e+00	1.50575095e-03	5.39516662e-05
2.52500000e+00	1.52541598e-03	5.49168068e-05
2.53000000e+00	1.48539799e-03	5.38992361e-05
2.53500000e+00	1.49761606e-03	5.49915791e-05
2.54000000e+00	1.48604880e-03	5.35727223e-05
2.54500000e+00	1.48626681e-03	5.39209815e-05
2.55000000e+00	1.47495035e-03	5.37048631e-05
2.55500000e+00	1.45676612e-03	5.34708826e-05
2.56000000e+00	1.45300456e-03	5.36529901e-05
2.56500000e+00	1.47010048e-03	5.37655328e-05
2.57000000e+00	1.45218122e-03	5.33894785e-05
2.57500000e+00	1.42006247e-03	5.23895113e-05
2.58000000e+00	1.43677026e-03	5.38682516e-05
2.58500000e+00	1.41270179e-03	5.25440238e-05
2.59000000e+00	1.41257682e-03	5.23370828e-05
2.59500000e+00	1.41727037e-03	5.27067896e-05
2.60000000e+00	1.39910342e-03	5.24904842e-05
2.60500000e+00	1.41723926e-03	5.42752584e-05
2.61000000e+00	1.41169502e-03	6.16687325e-05
2.61500000e+00	1.38260279e-03	6.66761486e-05
2.62000000e+00	1.34605632e-03	7.14264272e-05
2.62500000e+00	1.36187193e-03	7.81848665e-05
2.63000000e+00	1.35483218e-03	8.62540846e-05
2.63500000e+00	1.37828766e-03	9.70528541e-05
2.64000000e+00	1.38981429e-03	1.07682236e-04
2.64500000e+00	1.41132739e-03	1.16763161e-04
2.65000000e+00	1.36348796e-03	1.19291622e-04
2.65500000e+00	1.41959089e-03	1.33515579e-04
2.66000000e+00	1.34044224e-03	1.35382803e-04
2.66500000e+00	1.34747066e-03	1.52857753e-04
2.67000000e+00	1.34428073e-03	1.65690217e-04
2.67500000e+00	1.31194880e-03	1.88560476e-04
2.68000000e+00	1.36113829e-03	2.27620252e-04
2.68500000e+00	1.36847027e-03	3.02986970e-04
2.69000000e+00	1.48679464e-03	5.32260661e-04
2.69500000e+00	0.00000000e+00	0.00000000e+00
2.70000000e+00	0.00000000e+00	0.00000000e+00
