% Filename : WSW20_00038_00035.h5
% Date & Time : 30-Oct-2025 17:44:52
% X-ray Energy (keV) : 13.30001
% Exposure Time (s) : 0.500
% Photodiode Value : 140832.000
% I0 of Sample : 0
% I0 of Standard : 1
% 
% q(A^-1)   I(q)    I(q)_SE
8.40000000e-01	0.00000000e+00	0.00000000e+00
8.45000000e-01	3.63133402e-03	6.34125218e-04
8.50000000e-01	3.44289479e-03	3.19277031e-04
8.55000000e-01	3.38117774e-03	2.76233485e-04
8.60000000e-01	3.33180509e-03	2.35253244e-04
8.65000000e-01	3.32137350e-03	2.16235643e-04
8.70000000e-01	3.30130940e-03	2.04792006e-04
8.75000000e-01	3.34652722e-03	1.99595471e-04
8.80000000e-01	3.31792509e-03	1.91463063e-04
8.85000000e-01	3.35018077e-03	1.82795217e-04
8.90000000e-01	3.33770789e-03	1.78177399e-04
8.95000000e-01	3.35512523e-03	1.74118367e-04
9.00000000e-01	3.35294028e-03	1.72386145e-04
9.05000000e-01	3.37010406e-03	1.65607982e-04
9.10000000e-01	3.39076813e-03	1.63628343e-04
9.15000000e-01	3.42424188e-03	1.62714811e-04
9.20000000e-01	3.40961753e-03	1.61777476e-04
9.25000000e-01	3.40830371e-03	1.54570330e-04
9.30000000e-01	3.42887020e-03	1.54064693e-04
9.35000000e-01	3.42688630e-03	1.50936008e-04
9.40000000e-01	3.42732102e-03	1.51570984e-04
9.45000000e-01	3.47381898e-03	1.49593909e-04
9.50000000e-01	3.46807413e-03	1.47282464e-04
9.55000000e-01	3.45431925e-03	1.44019024e-04
9.60000000e-01	3.45707432e-03	1.44322002e-04
9.65000000e-01	3.49174746e-03	1.43288609e-04
9.70000000e-01	3.49830551e-03	1.41254306e-04
9.75000000e-01	3.52873909e-03	1.40830830e-04
9.80000000e-01	3.52090372e-03	1.39375965e-04
9.85000000e-01	3.52237459e-03	1.39465199e-04
9.90000000e-01	3.53385271e-03	1.35722162e-04
9.95000000e-01	3.55629536e-03	1.35968568e-04
1.00000000e+00	3.56390219e-03	1.35604751e-04
1.00500000e+00	3.54924838e-03	1.35039704e-04
1.01000000e+00	3.57565295e-03	1.33048387e-04
1.01500000e+00	3.58493148e-03	1.32231856e-04
1.02000000e+00	3.57022750e-03	1.31577453e-04
1.02500000e+00	3.57031038e-03	1.29934423e-04
1.03000000e+00	3.55760919e-03	1.28987583e-04
1.03500000e+00	3.57650256e-03	1.27837848e-04
1.04000000e+00	3.57565986e-03	1.26904477e-04
1.04500000e+00	3.54704574e-03	1.25866291e-04
1.05000000e+00	3.58123527e-03	1.26364728e-04
1.05500000e+00	3.55628253e-03	1.23466865e-04
1.06000000e+00	3.56403490e-03	1.23426685e-04
1.06500000e+00	3.58616604e-03	1.24292299e-04
1.07000000e+00	3.57344751e-03	1.23668821e-04
1.07500000e+00	3.62369140e-03	1.24423189e-04
1.08000000e+00	3.62698275e-03	1.23852167e-04
1.08500000e+00	3.64501162e-03	1.24667059e-04
1.09000000e+00	3.64818549e-03	1.25402269e-04
1.09500000e+00	3.65091690e-03	1.23065842e-04
1.10000000e+00	3.63929899e-03	1.23405595e-04
1.10500000e+00	3.70511234e-03	1.26017057e-04
1.11000000e+00	3.69558583e-03	1.25910817e-04
1.11500000e+00	3.71297014e-03	1.25529294e-04
1.12000000e+00	3.72655203e-03	1.26523738e-04
1.12500000e+00	3.72556153e-03	1.26092797e-04
1.13000000e+00	3.73428515e-03	1.27996487e-04
1.13500000e+00	3.75239723e-03	1.27082995e-04
1.14000000e+00	3.75487434e-03	1.26866175e-04
1.14500000e+00	3.76410525e-03	1.28266581e-04
1.15000000e+00	3.77165471e-03	1.29115483e-04
1.15500000e+00	3.79530704e-03	1.28668315e-04
1.16000000e+00	3.80045055e-03	1.29289496e-04
1.16500000e+00	3.80716777e-03	1.29362337e-04
1.17000000e+00	3.82819049e-03	1.31604039e-04
1.17500000e+00	3.81248660e-03	1.29258329e-04
1.18000000e+00	3.85598410e-03	1.31292360e-04
1.18500000e+00	3.82419757e-03	1.30113808e-04
1.19000000e+00	3.86207325e-03	1.32816077e-04
1.19500000e+00	3.86430164e-03	1.31273946e-04
1.20000000e+00	3.86342051e-03	1.32056551e-04
1.20500000e+00	3.87085953e-03	1.32039744e-04
1.21000000e+00	3.87489314e-03	1.33849359e-04
1.21500000e+00	3.89942723e-03	1.32589581e-04
1.22000000e+00	3.89506327e-03	1.32623496e-04
1.22500000e+00	3.90538594e-03	1.33392473e-04
1.23000000e+00	3.92673967e-03	1.35216560e-04
1.23500000e+00	3.90831018e-03	1.33727485e-04
1.24000000e+00	3.94146574e-03	1.34204456e-04
1.24500000e+00	3.93177287e-03	1.34809931e-04
1.25000000e+00	3.94577434e-03	1.36168277e-04
1.25500000e+00	3.95305699e-03	1.34767977e-04
1.26000000e+00	3.94267572e-03	1.35196773e-04
1.26500000e+00	3.94326772e-03	1.34832242e-04
1.27000000e+00	3.95411513e-03	1.37117089e-04
1.27500000e+00	3.99848830e-03	1.37283453e-04
1.28000000e+00	3.97607588e-03	1.35601978e-04
1.28500000e+00	3.99041409e-03	1.36990964e-04
1.29000000e+00	3.97583691e-03	1.37669268e-04
1.29500000e+00	3.99251025e-03	1.36808072e-04
1.30000000e+00	3.99221996e-03	1.36462518e-04
1.30500000e+00	3.99519451e-03	1.37260913e-04
1.31000000e+00	3.97502845e-03	1.38170225e-04
1.31500000e+00	4.00419482e-03	1.37424306e-04
1.32000000e+00	3.99717115e-03	1.37093231e-04
1.32500000e+00	4.01330538e-03	1.38012712e-04
1.33000000e+00	4.01477793e-03	1.39736445e-04
1.33500000e+00	4.01349771e-03	1.37814633e-04
1.34000000e+00	4.03250882e-03	1.38538395e-04
1.34500000e+00	4.01532827e-03	1.38465906e-04
1.35000000e+00	4.04519688e-03	1.40880059e-04
1.35500000e+00	4.03520770e-03	1.38641010e-04
1.36000000e+00	4.02602312e-03	1.38060759e-04
1.36500000e+00	4.05819179e-03	1.39645929e-04
1.37000000e+00	4.05098555e-03	1.41452862e-04
1.37500000e+00	4.02722301e-03	1.38467609e-04
1.38000000e+00	4.06107744e-03	1.39911274e-04
1.38500000e+00	4.03806858e-03	1.39908199e-04
1.39000000e+00	4.05287617e-03	1.41331147e-04
1.39500000e+00	4.06288639e-03	1.39620141e-04
1.40000000e+00	4.11288453e-03	1.45522050e-04
1.40500000e+00	4.06140769e-03	1.54689395e-04
1.41000000e+00	4.06957809e-03	1.62230412e-04
1.41500000e+00	4.04522635e-03	1.67128798e-04
1.42000000e+00	4.06694465e-03	1.74876717e-04
1.42500000e+00	4.00976390e-03	1.77631294e-04
1.43000000e+00	4.01139619e-03	1.84190309e-04
1.43500000e+00	4.02966732e-03	1.90712444e-04
1.44000000e+00	4.01255271e-03	1.97418179e-04
1.44500000e+00	3.98420576e-03	2.01054267e-04
1.45000000e+00	4.07591328e-03	1.98919204e-04
1.45500000e+00	4.08982186e-03	1.79287752e-04
1.46000000e+00	4.10211486e-03	1.75665616e-04
1.46500000e+00	4.07243406e-03	1.71200757e-04
1.47000000e+00	4.03395831e-03	1.69404344e-04
1.47500000e+00	4.07125443e-03	1.65819445e-04
1.48000000e+00	4.04790348e-03	1.63218039e-04
1.48500000e+00	4.03351844e-03	1.62687564e-04
1.49000000e+00	4.07978589e-03	1.64992523e-04
1.49500000e+00	4.08982309e-03	1.61756891e-04
1.50000000e+00	4.03843451e-03	1.59192514e-04
1.50500000e+00	4.08730328e-03	1.61925165e-04
1.51000000e+00	4.06842767e-03	1.61617760e-04
1.51500000e+00	4.10122903e-03	1.60297625e-04
1.52000000e+00	4.17699096e-03	1.62739094e-04
1.52500000e+00	4.11609841e-03	1.60168995e-04
1.53000000e+00	4.10742197e-03	1.60843173e-04
1.53500000e+00	4.09187744e-03	1.55633579e-04
1.54000000e+00	4.06635626e-03	1.54471146e-04
1.54500000e+00	4.04416782e-03	1.53335575e-04
1.55000000e+00	4.04526250e-03	1.52922919e-04
1.55500000e+00	4.03284524e-03	1.48983711e-04
1.56000000e+00	4.01421396e-03	1.48626717e-04
1.56500000e+00	3.98037853e-03	1.46545945e-04
1.57000000e+00	4.00429455e-03	1.46372974e-04
1.57500000e+00	3.96125830e-03	1.42163746e-04
1.58000000e+00	3.97241455e-03	1.42302580e-04
1.58500000e+00	3.94827651e-03	1.41367547e-04
1.59000000e+00	3.93558430e-03	1.41081561e-04
1.59500000e+00	3.93635485e-03	1.38357119e-04
1.60000000e+00	3.93939512e-03	1.38422456e-04
1.60500000e+00	3.92212389e-03	1.37902117e-04
1.61000000e+00	3.89081100e-03	1.36245370e-04
1.61500000e+00	3.90392269e-03	1.35471581e-04
1.62000000e+00	3.87470651e-03	1.34982756e-04
1.62500000e+00	3.88359394e-03	1.36820856e-04
1.63000000e+00	3.87937700e-03	1.35216471e-04
1.63500000e+00	3.87143222e-03	1.34871691e-04
1.64000000e+00	3.85444013e-03	1.34455660e-04
1.64500000e+00	3.88325425e-03	1.36873726e-04
1.65000000e+00	3.85326666e-03	1.34393756e-04
1.65500000e+00	3.84537657e-03	1.33963027e-04
1.66000000e+00	3.84247459e-03	1.34032790e-04
1.66500000e+00	3.81414625e-03	1.35217803e-04
1.67000000e+00	3.83028137e-03	1.33048120e-04
1.67500000e+00	3.83326842e-03	1.33466890e-04
1.68000000e+00	3.80275978e-03	1.32769249e-04
1.68500000e+00	3.82893769e-03	1.35950780e-04
1.69000000e+00	3.78986577e-03	1.31931600e-04
1.69500000e+00	3.82147090e-03	1.32793765e-04
1.70000000e+00	3.77489838e-03	1.32735237e-04
1.70500000e+00	3.78354653e-03	1.33566096e-04
1.71000000e+00	3.76288526e-03	1.31180427e-04
1.71500000e+00	3.77397110e-03	1.31458653e-04
1.72000000e+00	3.76288549e-03	1.32131115e-04
1.72500000e+00	3.74319128e-03	1.32254736e-04
1.73000000e+00	3.76984683e-03	1.31439661e-04
1.73500000e+00	3.74646245e-03	1.30953005e-04
1.74000000e+00	3.73730302e-03	1.30947236e-04
1.74500000e+00	3.74280872e-03	1.32733729e-04
1.75000000e+00	3.74018514e-03	1.30047661e-04
1.75500000e+00	3.75802225e-03	1.31582196e-04
1.76000000e+00	3.77039646e-03	1.31928338e-04
1.76500000e+00	3.74402328e-03	1.32701815e-04
1.77000000e+00	3.79254672e-03	1.32110299e-04
1.77500000e+00	3.82349010e-03	1.33709638e-04
1.78000000e+00	3.82742664e-03	1.34138065e-04
1.78500000e+00	3.86993642e-03	1.37175819e-04
1.79000000e+00	3.90669043e-03	1.36123606e-04
1.79500000e+00	3.98630937e-03	1.39341910e-04
1.80000000e+00	4.01158163e-03	1.41148074e-04
1.80500000e+00	3.99316793e-03	1.41322722e-04
1.81000000e+00	3.99468587e-03	1.39383204e-04
1.81500000e+00	3.95994683e-03	1.38177727e-04
1.82000000e+00	3.93844989e-03	1.38264786e-04
1.82500000e+00	3.91129262e-03	1.38138934e-04
1.83000000e+00	3.90801688e-03	1.36314695e-04
1.83500000e+00	3.86818899e-03	1.35169189e-04
1.84000000e+00	3.86679098e-03	1.35815953e-04
1.84500000e+00	3.84524965e-03	1.35805590e-04
1.85000000e+00	3.83383530e-03	1.33875738e-04
1.85500000e+00	3.82318823e-03	1.33572027e-04
1.86000000e+00	3.79847186e-03	1.33624772e-04
1.86500000e+00	3.81981590e-03	1.34637605e-04
1.87000000e+00	3.78070833e-03	1.31892532e-04
1.87500000e+00	3.78506039e-03	1.32367651e-04
1.88000000e+00	3.77123376e-03	1.32487033e-04
1.88500000e+00	3.74302405e-03	1.32252016e-04
1.89000000e+00	3.73847359e-03	1.30255188e-04
1.89500000e+00	3.73990696e-03	1.30966734e-04
1.90000000e+00	3.69792106e-03	1.30014708e-04
1.90500000e+00	3.67792390e-03	1.29285383e-04
1.91000000e+00	3.68338872e-03	1.28740219e-04
1.91500000e+00	3.66127583e-03	1.27974697e-04
1.92000000e+00	3.64237507e-03	1.27988523e-04
1.92500000e+00	3.62578625e-03	1.27605227e-04
1.93000000e+00	3.60767608e-03	1.25760555e-04
1.93500000e+00	3.57586907e-03	1.25087724e-04
1.94000000e+00	3.52321367e-03	1.24129608e-04
1.94500000e+00	3.48720747e-03	1.22582058e-04
1.95000000e+00	3.50517413e-03	1.22135907e-04
1.95500000e+00	3.45060450e-03	1.20706657e-04
1.96000000e+00	3.43361017e-03	1.20822455e-04
1.96500000e+00	3.42251246e-03	1.20559734e-04
1.97000000e+00	3.40644174e-03	1.18532523e-04
1.97500000e+00	3.36479579e-03	1.17806351e-04
1.98000000e+00	3.33414326e-03	1.17285929e-04
1.98500000e+00	3.33457382e-03	1.17582736e-04
1.99000000e+00	3.30804608e-03	1.15107614e-04
1.99500000e+00	3.28024176e-03	1.14738186e-04
2.00000000e+00	3.27231932e-03	1.15204333e-04
2.00500000e+00	3.30570546e-03	1.16586438e-04
2.01000000e+00	3.25993266e-03	1.26177163e-04
2.01500000e+00	3.23777237e-03	1.33154798e-04
2.02000000e+00	3.19800431e-03	1.40056694e-04
2.02500000e+00	3.19892549e-03	1.45721711e-04
2.03000000e+00	3.16641652e-03	1.52876600e-04
2.03500000e+00	3.17786624e-03	1.59990231e-04
2.04000000e+00	3.15029204e-03	1.65725270e-04
2.04500000e+00	3.14490751e-03	1.74057951e-04
2.05000000e+00	3.12589976e-03	1.81749010e-04
2.05500000e+00	3.16575274e-03	1.80427424e-04
2.06000000e+00	3.14324859e-03	1.55813233e-04
2.06500000e+00	3.14429776e-03	1.48903936e-04
2.07000000e+00	3.11282903e-03	1.39563100e-04
2.07500000e+00	3.09225661e-03	1.35602232e-04
2.08000000e+00	3.09366692e-03	1.35498087e-04
2.08500000e+00	3.08293251e-03	1.33829380e-04
2.09000000e+00	3.07727572e-03	1.29593127e-04
2.09500000e+00	3.08787813e-03	1.28779432e-04
2.10000000e+00	3.06271665e-03	1.26804971e-04
2.10500000e+00	3.08387116e-03	1.27266939e-04
2.11000000e+00	3.03593384e-03	1.20703922e-04
2.11500000e+00	3.05923864e-03	1.20404323e-04
2.12000000e+00	3.04269050e-03	1.19074562e-04
2.12500000e+00	3.03009876e-03	1.18313588e-04
2.13000000e+00	3.02560696e-03	1.13210426e-04
2.13500000e+00	3.03021806e-03	1.12037893e-04
2.14000000e+00	2.99920781e-03	1.09865081e-04
2.14500000e+00	2.98572472e-03	1.09588854e-04
2.15000000e+00	2.99133082e-03	1.06238749e-04
2.15500000e+00	2.97273201e-03	1.05752597e-04
2.16000000e+00	2.96796101e-03	1.05014094e-04
2.16500000e+00	2.94976749e-03	1.05180826e-04
2.17000000e+00	2.91331693e-03	1.01273126e-04
2.17500000e+00	2.91233387e-03	1.01512809e-04
2.18000000e+00	2.89204276e-03	1.01174198e-04
2.18500000e+00	2.87898704e-03	1.01173379e-04
2.19000000e+00	2.86960798e-03	1.00571176e-04
2.19500000e+00	2.85706772e-03	9.95833207e-05
2.20000000e+00	2.84658644e-03	9.94224695e-05
2.20500000e+00	2.80853647e-03	9.84497475e-05
2.21000000e+00	2.80602113e-03	9.88400700e-05
2.21500000e+00	2.78237881e-03	9.68982071e-05
2.22000000e+00	2.77267385e-03	9.64585885e-05
2.22500000e+00	2.73045523e-03	9.58685838e-05
2.23000000e+00	2.73851856e-03	9.66732652e-05
2.23500000e+00	2.70449236e-03	9.41201201e-05
2.24000000e+00	2.70164395e-03	9.41159354e-05
2.24500000e+00	2.67128024e-03	9.37025167e-05
2.25000000e+00	2.64754463e-03	9.36693181e-05
2.25500000e+00	2.63862795e-03	9.16582056e-05
2.26000000e+00	2.60012862e-03	9.07026830e-05
2.26500000e+00	2.59721008e-03	9.09037068e-05
2.27000000e+00	2.57800349e-03	9.15238949e-05
2.27500000e+00	2.54050422e-03	8.83664281e-05
2.28000000e+00	2.53920124e-03	8.83917403e-05
2.28500000e+00	2.51213752e-03	8.80249400e-05
2.29000000e+00	2.50391559e-03	8.81632288e-05
2.29500000e+00	2.49156758e-03	8.74841946e-05
2.30000000e+00	2.47558768e-03	8.60823296e-05
2.30500000e+00	2.45322778e-03	8.55472393e-05
2.31000000e+00	2.47138735e-03	8.66288102e-05
2.31500000e+00	2.45022168e-03	8.65794731e-05
2.32000000e+00	2.45138356e-03	8.49184394e-05
2.32500000e+00	2.40788096e-03	8.40911728e-05
2.33000000e+00	2.37964863e-03	8.32414371e-05
2.33500000e+00	2.36210008e-03	8.35390687e-05
2.34000000e+00	2.37789550e-03	8.26967972e-05
2.34500000e+00	2.35830278e-03	8.19850586e-05
2.35000000e+00	2.34264863e-03	8.17866694e-05
2.35500000e+00	2.32666538e-03	8.22986832e-05
2.36000000e+00	2.29841624e-03	8.01168556e-05
2.36500000e+00	2.28518977e-03	7.96246058e-05
2.37000000e+00	2.28497689e-03	7.96161746e-05
2.37500000e+00	2.26493904e-03	7.96580284e-05
2.38000000e+00	2.24991913e-03	7.94924152e-05
2.38500000e+00	2.24894865e-03	7.83674925e-05
2.39000000e+00	2.23384600e-03	7.80832415e-05
2.39500000e+00	2.20727040e-03	7.75886093e-05
2.40000000e+00	2.18982066e-03	7.80584259e-05
2.40500000e+00	2.20865104e-03	7.70966718e-05
2.41000000e+00	2.18632911e-03	7.67153409e-05
2.41500000e+00	2.15427525e-03	7.55666863e-05
2.42000000e+00	2.16544030e-03	7.69944527e-05
2.42500000e+00	2.14317547e-03	7.59922322e-05
2.43000000e+00	2.12311478e-03	7.45629328e-05
2.43500000e+00	2.13599389e-03	7.53443697e-05
2.44000000e+00	2.12420590e-03	7.50623857e-05
2.44500000e+00	2.11216949e-03	7.56715696e-05
2.45000000e+00	2.10899002e-03	7.43056479e-05
2.45500000e+00	2.08951806e-03	7.37879856e-05
2.46000000e+00	2.07026468e-03	7.33850792e-05
2.46500000e+00	2.06185906e-03	7.40098578e-05
2.47000000e+00	2.04613426e-03	7.27799186e-05
2.47500000e+00	2.05302920e-03	7.25217673e-05
2.48000000e+00	2.03545406e-03	7.25306395e-05
2.48500000e+00	2.02863343e-03	7.22301704e-05
2.49000000e+00	2.01274738e-03	7.28095386e-05
2.49500000e+00	2.01636695e-03	7.15868425e-05
2.50000000e+00	1.99215016e-03	7.08065523e-05
2.50500000e+00	1.99531232e-03	7.13795025e-05
2.51000000e+00	1.96832461e-03	7.09630857e-05
2.51500000e+00	1.97145311e-03	7.11370381e-05
2.52000000e+00	1.96560338e-03	7.03436550e-05
2.52500000e+00	1.96929584e-03	7.07898327e-05
2.53000000e+00	1.94108461e-03	7.04713919e-05
2.53500000e+00	1.92933067e-03	7.08120147e-05
2.54000000e+00	1.92753825e-03	6.95200516e-05
2.54500000e+00	1.93344127e-03	7.00154140e-05
2.55000000e+00	1.90590958e-03	6.94405989e-05
2.55500000e+00	1.90559938e-03	7.00437100e-05
2.56000000e+00	1.90314265e-03	7.02725018e-05
2.56500000e+00	1.89739510e-03	6.93624191e-05
2.57000000e+00	1.87124107e-03	6.88314041e-05
2.57500000e+00	1.87837279e-03	6.92351598e-05
2.58000000e+00	1.87828627e-03	7.02812440e-05
2.58500000e+00	1.88173107e-03	6.99412897e-05
2.59000000e+00	1.86745197e-03	6.92604405e-05
2.59500000e+00	1.86020884e-03	6.91961211e-05
2.60000000e+00	1.84473376e-03	6.90831388e-05
2.60500000e+00	1.86960674e-03	7.16670029e-05
2.61000000e+00	1.83025898e-03	7.99920767e-05
2.61500000e+00	1.80451943e-03	8.74473486e-05
2.62000000e+00	1.79032032e-03	9.55127876e-05
2.62500000e+00	1.77573617e-03	1.02965601e-04
2.63000000e+00	1.77191899e-03	1.13634447e-04
2.63500000e+00	1.83351473e-03	1.29258011e-04
2.64000000e+00	1.86455180e-03	1.43810858e-04
2.64500000e+00	1.87327536e-03	1.54780416e-04
2.65000000e+00	1.88971968e-03	1.64858611e-04
2.65500000e+00	1.85869959e-03	1.74353040e-04
2.66000000e+00	1.84426058e-03	1.85733574e-04
2.66500000e+00	1.87025891e-03	2.12115543e-04
2.67000000e+00	1.85076768e-03	2.27526484e-04
2.67500000e+00	1.95354334e-03	2.90555075e-04
2.68000000e+00	1.78617550e-03	2.96077035e-04
2.68500000e+00	1.71271955e-03	3.76758970e-04
2.69000000e+00	1.88856780e-03	6.69556617e-04
2.69500000e+00	0.00000000e+00	0.00000000e+00
2.70000000e+00	0.00000000e+00	0.00000000e+00
