% Filename : WSW21_00035_00040.h5
% Date & Time : 30-Oct-2025 17:33:38
% X-ray Energy (keV) : 13.30001
% Exposure Time (s) : 0.500
% Photodiode Value : 140838.000
% I0 of Sample : 0
% I0 of Standard : 1
% 
% q(A^-1)   I(q)    I(q)_SE
8.40000000e-01	0.00000000e+00	0.00000000e+00
8.45000000e-01	3.47498612e-03	6.07479729e-04
8.50000000e-01	3.25515247e-03	3.01967401e-04
8.55000000e-01	3.23067800e-03	2.64211486e-04
8.60000000e-01	3.17602763e-03	2.24325046e-04
8.65000000e-01	3.18736433e-03	2.07494990e-04
8.70000000e-01	3.20633135e-03	1.98657157e-04
8.75000000e-01	3.14041932e-03	1.87486955e-04
8.80000000e-01	3.17354122e-03	1.83263475e-04
8.85000000e-01	3.19766837e-03	1.74545276e-04
8.90000000e-01	3.24501494e-03	1.73270323e-04
8.95000000e-01	3.22899616e-03	1.67654292e-04
9.00000000e-01	3.20555998e-03	1.64810626e-04
9.05000000e-01	3.25497678e-03	1.60106824e-04
9.10000000e-01	3.25660374e-03	1.57226207e-04
9.15000000e-01	3.24496397e-03	1.54198420e-04
9.20000000e-01	3.25839348e-03	1.54730864e-04
9.25000000e-01	3.25567663e-03	1.47884207e-04
9.30000000e-01	3.30123742e-03	1.48354533e-04
9.35000000e-01	3.28466758e-03	1.44659678e-04
9.40000000e-01	3.26924254e-03	1.44491478e-04
9.45000000e-01	3.29734134e-03	1.42143456e-04
9.50000000e-01	3.29052676e-03	1.39757448e-04
9.55000000e-01	3.31671263e-03	1.38403187e-04
9.60000000e-01	3.30481263e-03	1.37872983e-04
9.65000000e-01	3.31507867e-03	1.35959795e-04
9.70000000e-01	3.28248756e-03	1.32614952e-04
9.75000000e-01	3.35283241e-03	1.33902499e-04
9.80000000e-01	3.35556234e-03	1.32763194e-04
9.85000000e-01	3.35040980e-03	1.32748554e-04
9.90000000e-01	3.38607211e-03	1.30046407e-04
9.95000000e-01	3.33700871e-03	1.27575170e-04
1.00000000e+00	3.37336599e-03	1.28337332e-04
1.00500000e+00	3.37076985e-03	1.28338373e-04
1.01000000e+00	3.39709144e-03	1.26608256e-04
1.01500000e+00	3.37411246e-03	1.24390820e-04
1.02000000e+00	3.39757562e-03	1.25208388e-04
1.02500000e+00	3.37017838e-03	1.22659517e-04
1.03000000e+00	3.38295757e-03	1.22752715e-04
1.03500000e+00	3.37069025e-03	1.20556321e-04
1.04000000e+00	3.38103549e-03	1.20019397e-04
1.04500000e+00	3.35805296e-03	1.19248785e-04
1.05000000e+00	3.38535978e-03	1.19455331e-04
1.05500000e+00	3.37450632e-03	1.17169102e-04
1.06000000e+00	3.39594090e-03	1.17570174e-04
1.06500000e+00	3.38801822e-03	1.17424308e-04
1.07000000e+00	3.38376348e-03	1.17217450e-04
1.07500000e+00	3.40698303e-03	1.17030872e-04
1.08000000e+00	3.43073472e-03	1.17141622e-04
1.08500000e+00	3.42622398e-03	1.17156446e-04
1.09000000e+00	3.43196703e-03	1.17938676e-04
1.09500000e+00	3.45009228e-03	1.16186790e-04
1.10000000e+00	3.47753972e-03	1.17950973e-04
1.10500000e+00	3.46963167e-03	1.17933592e-04
1.11000000e+00	3.48104886e-03	1.18443979e-04
1.11500000e+00	3.48587292e-03	1.17916546e-04
1.12000000e+00	3.50115572e-03	1.18869870e-04
1.12500000e+00	3.51185593e-03	1.18873887e-04
1.13000000e+00	3.49865004e-03	1.19953596e-04
1.13500000e+00	3.54956608e-03	1.20172958e-04
1.14000000e+00	3.53800420e-03	1.19604958e-04
1.14500000e+00	3.51747523e-03	1.19844736e-04
1.15000000e+00	3.54786198e-03	1.21640898e-04
1.15500000e+00	3.52911030e-03	1.19636789e-04
1.16000000e+00	3.57921543e-03	1.21774567e-04
1.16500000e+00	3.56838591e-03	1.21279790e-04
1.17000000e+00	3.55188496e-03	1.22191973e-04
1.17500000e+00	3.55133177e-03	1.20489704e-04
1.18000000e+00	3.57934023e-03	1.21974388e-04
1.18500000e+00	3.57788647e-03	1.21800597e-04
1.19000000e+00	3.58196597e-03	1.23266774e-04
1.19500000e+00	3.61080179e-03	1.22685393e-04
1.20000000e+00	3.57047187e-03	1.22004894e-04
1.20500000e+00	3.60572300e-03	1.23098547e-04
1.21000000e+00	3.60238050e-03	1.24538481e-04
1.21500000e+00	3.58122551e-03	1.21840429e-04
1.22000000e+00	3.61872286e-03	1.23294509e-04
1.22500000e+00	3.62092407e-03	1.23843052e-04
1.23000000e+00	3.61288888e-03	1.24497844e-04
1.23500000e+00	3.63529222e-03	1.24491706e-04
1.24000000e+00	3.62841030e-03	1.23574659e-04
1.24500000e+00	3.62893449e-03	1.24562932e-04
1.25000000e+00	3.61991277e-03	1.25035155e-04
1.25500000e+00	3.63843278e-03	1.24227479e-04
1.26000000e+00	3.65249865e-03	1.25340771e-04
1.26500000e+00	3.64705659e-03	1.24747418e-04
1.27000000e+00	3.63130710e-03	1.25986938e-04
1.27500000e+00	3.66477362e-03	1.25831703e-04
1.28000000e+00	3.65383724e-03	1.24688826e-04
1.28500000e+00	3.64648099e-03	1.25241793e-04
1.29000000e+00	3.63920325e-03	1.26018782e-04
1.29500000e+00	3.65567602e-03	1.25355429e-04
1.30000000e+00	3.65996271e-03	1.25274144e-04
1.30500000e+00	3.66974745e-03	1.26149377e-04
1.31000000e+00	3.68428018e-03	1.28187524e-04
1.31500000e+00	3.65660486e-03	1.25656806e-04
1.32000000e+00	3.66264066e-03	1.25683664e-04
1.32500000e+00	3.69615962e-03	1.27178247e-04
1.33000000e+00	3.67155934e-03	1.27876718e-04
1.33500000e+00	3.69209560e-03	1.26797731e-04
1.34000000e+00	3.67565065e-03	1.26429628e-04
1.34500000e+00	3.69716155e-03	1.27550873e-04
1.35000000e+00	3.68259974e-03	1.28285809e-04
1.35500000e+00	3.67474242e-03	1.26330801e-04
1.36000000e+00	3.68407263e-03	1.26447896e-04
1.36500000e+00	3.68863711e-03	1.27011057e-04
1.37000000e+00	3.65896173e-03	1.27837262e-04
1.37500000e+00	3.66441759e-03	1.26055754e-04
1.38000000e+00	3.67507642e-03	1.26779322e-04
1.38500000e+00	3.69032191e-03	1.27915429e-04
1.39000000e+00	3.68399670e-03	1.28540602e-04
1.39500000e+00	3.69616141e-03	1.27088726e-04
1.40000000e+00	3.73503028e-03	1.32345346e-04
1.40500000e+00	3.66272498e-03	1.39624953e-04
1.41000000e+00	3.67331647e-03	1.46526756e-04
1.41500000e+00	3.65914416e-03	1.51297366e-04
1.42000000e+00	3.64218882e-03	1.56721724e-04
1.42500000e+00	3.63856844e-03	1.61226215e-04
1.43000000e+00	3.59057468e-03	1.65031904e-04
1.43500000e+00	3.61756686e-03	1.71499990e-04
1.44000000e+00	3.58350887e-03	1.76400854e-04
1.44500000e+00	3.56748373e-03	1.80297078e-04
1.45000000e+00	3.66051607e-03	1.78935570e-04
1.45500000e+00	3.68075857e-03	1.61645523e-04
1.46000000e+00	3.67676344e-03	1.57565953e-04
1.46500000e+00	3.63277536e-03	1.52918710e-04
1.47000000e+00	3.64653423e-03	1.53096372e-04
1.47500000e+00	3.65131974e-03	1.48889353e-04
1.48000000e+00	3.66464194e-03	1.47962453e-04
1.48500000e+00	3.64752940e-03	1.47264597e-04
1.49000000e+00	3.65085618e-03	1.47844195e-04
1.49500000e+00	3.63671864e-03	1.43983677e-04
1.50000000e+00	3.64902688e-03	1.43998677e-04
1.50500000e+00	3.64110175e-03	1.44371854e-04
1.51000000e+00	3.66464947e-03	1.45652921e-04
1.51500000e+00	3.66950952e-03	1.43511244e-04
1.52000000e+00	3.67677582e-03	1.43281106e-04
1.52500000e+00	3.66546055e-03	1.42783692e-04
1.53000000e+00	3.67117569e-03	1.43730289e-04
1.53500000e+00	3.67073217e-03	1.39782810e-04
1.54000000e+00	3.65979011e-03	1.38985372e-04
1.54500000e+00	3.61336434e-03	1.36981333e-04
1.55000000e+00	3.64147563e-03	1.37720976e-04
1.55500000e+00	3.59960535e-03	1.33069034e-04
1.56000000e+00	3.61937088e-03	1.34111457e-04
1.56500000e+00	3.56363403e-03	1.31315693e-04
1.57000000e+00	3.59679855e-03	1.31608889e-04
1.57500000e+00	3.55727416e-03	1.27805206e-04
1.58000000e+00	3.52717701e-03	1.26421973e-04
1.58500000e+00	3.53980832e-03	1.26852136e-04
1.59000000e+00	3.51801694e-03	1.26185787e-04
1.59500000e+00	3.54204322e-03	1.24586322e-04
1.60000000e+00	3.50389001e-03	1.23215938e-04
1.60500000e+00	3.48996913e-03	1.22799825e-04
1.61000000e+00	3.48399823e-03	1.22072940e-04
1.61500000e+00	3.48924356e-03	1.21161153e-04
1.62000000e+00	3.47342425e-03	1.21116694e-04
1.62500000e+00	3.46230842e-03	1.22082469e-04
1.63000000e+00	3.46218296e-03	1.20821249e-04
1.63500000e+00	3.43492606e-03	1.19866777e-04
1.64000000e+00	3.43982334e-03	1.20083462e-04
1.64500000e+00	3.47026909e-03	1.22467895e-04
1.65000000e+00	3.43398566e-03	1.19881219e-04
1.65500000e+00	3.43293570e-03	1.19678674e-04
1.66000000e+00	3.42883358e-03	1.19713283e-04
1.66500000e+00	3.42607799e-03	1.21559887e-04
1.67000000e+00	3.38805977e-03	1.17801778e-04
1.67500000e+00	3.39332148e-03	1.18273285e-04
1.68000000e+00	3.41540566e-03	1.19365822e-04
1.68500000e+00	3.38400097e-03	1.20230346e-04
1.69000000e+00	3.38587087e-03	1.18014246e-04
1.69500000e+00	3.37765617e-03	1.17477065e-04
1.70000000e+00	3.37737063e-03	1.18852215e-04
1.70500000e+00	3.39078836e-03	1.19794300e-04
1.71000000e+00	3.37076595e-03	1.17566676e-04
1.71500000e+00	3.37701620e-03	1.17760688e-04
1.72000000e+00	3.33969389e-03	1.17356197e-04
1.72500000e+00	3.36845302e-03	1.19158458e-04
1.73000000e+00	3.37389083e-03	1.17697394e-04
1.73500000e+00	3.37783011e-03	1.18185117e-04
1.74000000e+00	3.36311093e-03	1.17965600e-04
1.74500000e+00	3.38669175e-03	1.20236457e-04
1.75000000e+00	3.40842291e-03	1.18683709e-04
1.75500000e+00	3.45042636e-03	1.21029337e-04
1.76000000e+00	3.44735426e-03	1.20872086e-04
1.76500000e+00	3.47232398e-03	1.23311201e-04
1.77000000e+00	3.53755467e-03	1.23728186e-04
1.77500000e+00	3.62073666e-03	1.27331192e-04
1.78000000e+00	3.72732216e-03	1.31848057e-04
1.78500000e+00	3.84731945e-03	1.37927113e-04
1.79000000e+00	4.04998866e-03	1.43525170e-04
1.79500000e+00	4.16114829e-03	1.48782046e-04
1.80000000e+00	4.18428919e-03	1.50492367e-04
1.80500000e+00	4.07528828e-03	1.47210207e-04
1.81000000e+00	4.00511972e-03	1.41977754e-04
1.81500000e+00	3.82372173e-03	1.34778660e-04
1.82000000e+00	3.72075053e-03	1.31496132e-04
1.82500000e+00	3.62142131e-03	1.28541089e-04
1.83000000e+00	3.57866252e-03	1.25253141e-04
1.83500000e+00	3.52746853e-03	1.23582934e-04
1.84000000e+00	3.47007763e-03	1.22136238e-04
1.84500000e+00	3.48724187e-03	1.23368920e-04
1.85000000e+00	3.47650089e-03	1.21507672e-04
1.85500000e+00	3.46605109e-03	1.21219289e-04
1.86000000e+00	3.44422710e-03	1.21229739e-04
1.86500000e+00	3.46070266e-03	1.22024253e-04
1.87000000e+00	3.44334422e-03	1.20099266e-04
1.87500000e+00	3.44099319e-03	1.20446853e-04
1.88000000e+00	3.41429084e-03	1.19948009e-04
1.88500000e+00	3.43318139e-03	1.21346635e-04
1.89000000e+00	3.42589950e-03	1.19425307e-04
1.89500000e+00	3.42642352e-03	1.20084799e-04
1.90000000e+00	3.39673175e-03	1.19358575e-04
1.90500000e+00	3.41673263e-03	1.20089704e-04
1.91000000e+00	3.40726792e-03	1.19030125e-04
1.91500000e+00	3.39956254e-03	1.18798261e-04
1.92000000e+00	3.33372271e-03	1.17206087e-04
1.92500000e+00	3.32837170e-03	1.17125639e-04
1.93000000e+00	3.32679148e-03	1.15989615e-04
1.93500000e+00	3.28166124e-03	1.14835972e-04
1.94000000e+00	3.22607080e-03	1.13736177e-04
1.94500000e+00	3.21266630e-03	1.12935506e-04
1.95000000e+00	3.18601082e-03	1.11007564e-04
1.95500000e+00	3.17184903e-03	1.10981446e-04
1.96000000e+00	3.12974994e-03	1.10213578e-04
1.96500000e+00	3.11051064e-03	1.09583512e-04
1.97000000e+00	3.09035811e-03	1.07567315e-04
1.97500000e+00	3.05863896e-03	1.07246779e-04
1.98000000e+00	3.02336187e-03	1.06407561e-04
1.98500000e+00	3.03197546e-03	1.06869465e-04
1.99000000e+00	2.98746168e-03	1.03974391e-04
1.99500000e+00	2.98477476e-03	1.04423622e-04
2.00000000e+00	2.96797940e-03	1.04527166e-04
2.00500000e+00	2.97814057e-03	1.05133169e-04
2.01000000e+00	2.94609652e-03	1.14073173e-04
2.01500000e+00	2.91791988e-03	1.20046238e-04
2.02000000e+00	2.88092272e-03	1.26412595e-04
2.02500000e+00	2.85054579e-03	1.30048374e-04
2.03000000e+00	2.87492065e-03	1.38739711e-04
2.03500000e+00	2.79551757e-03	1.40953909e-04
2.04000000e+00	2.82738281e-03	1.48927468e-04
2.04500000e+00	2.77775040e-03	1.54072892e-04
2.05000000e+00	2.78028197e-03	1.61943572e-04
2.05500000e+00	2.82064058e-03	1.60816857e-04
2.06000000e+00	2.80459384e-03	1.39179053e-04
2.06500000e+00	2.77590736e-03	1.31775179e-04
2.07000000e+00	2.77052418e-03	1.24499449e-04
2.07500000e+00	2.78133184e-03	1.22190666e-04
2.08000000e+00	2.75320734e-03	1.20588191e-04
2.08500000e+00	2.75644708e-03	1.19693882e-04
2.09000000e+00	2.72209899e-03	1.14768306e-04
2.09500000e+00	2.72688407e-03	1.13757338e-04
2.10000000e+00	2.71095044e-03	1.12342608e-04
2.10500000e+00	2.70398605e-03	1.11689297e-04
2.11000000e+00	2.66204005e-03	1.06002437e-04
2.11500000e+00	2.68169962e-03	1.05577530e-04
2.12000000e+00	2.66724589e-03	1.04515062e-04
2.12500000e+00	2.60479826e-03	1.01782167e-04
2.13000000e+00	2.61639802e-03	9.81227697e-05
2.13500000e+00	2.60253347e-03	9.63471319e-05
2.14000000e+00	2.57466911e-03	9.44816795e-05
2.14500000e+00	2.57162099e-03	9.45706883e-05
2.15000000e+00	2.54811774e-03	9.06364195e-05
2.15500000e+00	2.56672642e-03	9.15933045e-05
2.16000000e+00	2.55824341e-03	9.07124415e-05
2.16500000e+00	2.55365451e-03	9.12179732e-05
2.17000000e+00	2.53590582e-03	8.83788072e-05
2.17500000e+00	2.52252139e-03	8.81132580e-05
2.18000000e+00	2.50190099e-03	8.76840904e-05
2.18500000e+00	2.52058545e-03	8.88260182e-05
2.19000000e+00	2.48660730e-03	8.73608866e-05
2.19500000e+00	2.48002451e-03	8.66190865e-05
2.20000000e+00	2.47010958e-03	8.64053356e-05
2.20500000e+00	2.45230401e-03	8.61800589e-05
2.21000000e+00	2.43392625e-03	8.58784489e-05
2.21500000e+00	2.42730832e-03	8.47200817e-05
2.22000000e+00	2.40902759e-03	8.40058709e-05
2.22500000e+00	2.40640079e-03	8.46469216e-05
2.23000000e+00	2.38301417e-03	8.42897164e-05
2.23500000e+00	2.35422266e-03	8.21236713e-05
2.24000000e+00	2.34397873e-03	8.18653023e-05
2.24500000e+00	2.33191814e-03	8.19229589e-05
2.25000000e+00	2.31692575e-03	8.21202400e-05
2.25500000e+00	2.32664717e-03	8.09399425e-05
2.26000000e+00	2.30897709e-03	8.06247768e-05
2.26500000e+00	2.27555022e-03	7.97945248e-05
2.27000000e+00	2.27136786e-03	8.06594931e-05
2.27500000e+00	2.24526291e-03	7.81998156e-05
2.28000000e+00	2.26112990e-03	7.87993667e-05
2.28500000e+00	2.20436868e-03	7.73551105e-05
2.29000000e+00	2.21254271e-03	7.79958357e-05
2.29500000e+00	2.20467263e-03	7.74638124e-05
2.30000000e+00	2.19480727e-03	7.64322328e-05
2.30500000e+00	2.18175028e-03	7.61831371e-05
2.31000000e+00	2.19347853e-03	7.70320669e-05
2.31500000e+00	2.15773828e-03	7.64134323e-05
2.32000000e+00	2.14697083e-03	7.44261289e-05
2.32500000e+00	2.12687319e-03	7.43060766e-05
2.33000000e+00	2.12549591e-03	7.44787221e-05
2.33500000e+00	2.11607706e-03	7.49277132e-05
2.34000000e+00	2.09480804e-03	7.28722957e-05
2.34500000e+00	2.07002987e-03	7.20393874e-05
2.35000000e+00	2.06957819e-03	7.23872798e-05
2.35500000e+00	2.04329483e-03	7.23025081e-05
2.36000000e+00	2.03612061e-03	7.11237587e-05
2.36500000e+00	2.02566251e-03	7.06232811e-05
2.37000000e+00	2.00439834e-03	6.99706333e-05
2.37500000e+00	2.00845428e-03	7.07751937e-05
2.38000000e+00	1.99462436e-03	7.06173928e-05
2.38500000e+00	1.98255797e-03	6.91209723e-05
2.39000000e+00	1.96174666e-03	6.85189726e-05
2.39500000e+00	1.97056673e-03	6.92833825e-05
2.40000000e+00	1.94656474e-03	6.93992115e-05
2.40500000e+00	1.94090818e-03	6.78285758e-05
2.41000000e+00	1.95506714e-03	6.86270335e-05
2.41500000e+00	1.92482023e-03	6.75367347e-05
2.42000000e+00	1.91992686e-03	6.83588595e-05
2.42500000e+00	1.90099006e-03	6.75016877e-05
2.43000000e+00	1.88653506e-03	6.63847150e-05
2.43500000e+00	1.86912678e-03	6.60184731e-05
2.44000000e+00	1.86475246e-03	6.59162911e-05
2.44500000e+00	1.84766803e-03	6.62525862e-05
2.45000000e+00	1.84209306e-03	6.48570989e-05
2.45500000e+00	1.83514035e-03	6.48017419e-05
2.46000000e+00	1.79641483e-03	6.37493094e-05
2.46500000e+00	1.79483927e-03	6.44043101e-05
2.47000000e+00	1.81331039e-03	6.44673691e-05
2.47500000e+00	1.79863344e-03	6.34634302e-05
2.48000000e+00	1.79128624e-03	6.38532771e-05
2.48500000e+00	1.78258556e-03	6.35206441e-05
2.49000000e+00	1.76215404e-03	6.37149550e-05
2.49500000e+00	1.76972468e-03	6.27395712e-05
2.50000000e+00	1.76154558e-03	6.26035478e-05
2.50500000e+00	1.74666275e-03	6.24853679e-05
2.51000000e+00	1.71926547e-03	6.19428177e-05
2.51500000e+00	1.73407864e-03	6.24800820e-05
2.52000000e+00	1.72778989e-03	6.17960066e-05
2.52500000e+00	1.72011741e-03	6.17256699e-05
2.53000000e+00	1.71290454e-03	6.20196255e-05
2.53500000e+00	1.69029647e-03	6.20144265e-05
2.54000000e+00	1.70384416e-03	6.14486616e-05
2.54500000e+00	1.69581395e-03	6.13994337e-05
2.55000000e+00	1.67915359e-03	6.10804730e-05
2.55500000e+00	1.66071663e-03	6.09044195e-05
2.56000000e+00	1.67560931e-03	6.18175255e-05
2.56500000e+00	1.64837212e-03	6.02569453e-05
2.57000000e+00	1.66067627e-03	6.09683224e-05
2.57500000e+00	1.64837887e-03	6.07307076e-05
2.58000000e+00	1.62992764e-03	6.10437362e-05
2.58500000e+00	1.65865651e-03	6.16550993e-05
2.59000000e+00	1.64582489e-03	6.08582393e-05
2.59500000e+00	1.62528172e-03	6.03751463e-05
2.60000000e+00	1.63532364e-03	6.11176843e-05
2.60500000e+00	1.63902752e-03	6.26979426e-05
2.61000000e+00	1.63152283e-03	7.11281800e-05
2.61500000e+00	1.59475230e-03	7.68860318e-05
2.62000000e+00	1.57220488e-03	8.36015124e-05
2.62500000e+00	1.56409555e-03	9.00157309e-05
2.63000000e+00	1.56567091e-03	9.97155270e-05
2.63500000e+00	1.59326700e-03	1.12049478e-04
2.64000000e+00	1.62919481e-03	1.25940300e-04
2.64500000e+00	1.64010920e-03	1.35675895e-04
2.65000000e+00	1.61611448e-03	1.41363810e-04
2.65500000e+00	1.63892032e-03	1.53877889e-04
2.66000000e+00	1.63583001e-03	1.64855146e-04
2.66500000e+00	1.59355338e-03	1.80314947e-04
2.67000000e+00	1.58320012e-03	1.94296155e-04
2.67500000e+00	1.61759069e-03	2.32192191e-04
2.68000000e+00	1.61520121e-03	2.68273653e-04
2.68500000e+00	1.66306988e-03	3.67409570e-04
2.69000000e+00	1.46272040e-03	5.18023052e-04
2.69500000e+00	0.00000000e+00	0.00000000e+00
2.70000000e+00	0.00000000e+00	0.00000000e+00
