% Filename : WSW20_00038_00040.h5
% Date & Time : 30-Oct-2025 17:45:06
% X-ray Energy (keV) : 13.30001
% Exposure Time (s) : 0.500
% Photodiode Value : 141345.000
% I0 of Sample : 0
% I0 of Standard : 1
% 
% q(A^-1)   I(q)    I(q)_SE
8.40000000e-01	0.00000000e+00	0.00000000e+00
8.45000000e-01	3.27431517e-03	5.74469773e-04
8.50000000e-01	3.09740191e-03	2.87020647e-04
8.55000000e-01	2.99255603e-03	2.44282519e-04
8.60000000e-01	3.02740449e-03	2.13913473e-04
8.65000000e-01	3.07470984e-03	2.00196595e-04
8.70000000e-01	3.03176479e-03	1.88077918e-04
8.75000000e-01	3.01477176e-03	1.80222405e-04
8.80000000e-01	3.05502038e-03	1.76382091e-04
8.85000000e-01	3.02631670e-03	1.65246492e-04
8.90000000e-01	3.06780985e-03	1.63975388e-04
8.95000000e-01	3.07366725e-03	1.59637583e-04
9.00000000e-01	3.09882309e-03	1.59403300e-04
9.05000000e-01	3.09191337e-03	1.52076041e-04
9.10000000e-01	3.08286524e-03	1.48829559e-04
9.15000000e-01	3.09777788e-03	1.47129172e-04
9.20000000e-01	3.09795891e-03	1.47030005e-04
9.25000000e-01	3.11464756e-03	1.41431238e-04
9.30000000e-01	3.13922323e-03	1.41094607e-04
9.35000000e-01	3.13020544e-03	1.37943115e-04
9.40000000e-01	3.13979683e-03	1.38812362e-04
9.45000000e-01	3.14595770e-03	1.35602352e-04
9.50000000e-01	3.13739063e-03	1.33296561e-04
9.55000000e-01	3.12612998e-03	1.30493790e-04
9.60000000e-01	3.16781851e-03	1.32250626e-04
9.65000000e-01	3.16052141e-03	1.29786307e-04
9.70000000e-01	3.18340394e-03	1.28639392e-04
9.75000000e-01	3.17925621e-03	1.27079744e-04
9.80000000e-01	3.18284057e-03	1.26113665e-04
9.85000000e-01	3.21284155e-03	1.27412558e-04
9.90000000e-01	3.20255880e-03	1.23092807e-04
9.95000000e-01	3.20732091e-03	1.22617540e-04
1.00000000e+00	3.22265486e-03	1.22623377e-04
1.00500000e+00	3.22670739e-03	1.22925737e-04
1.01000000e+00	3.23771054e-03	1.20588000e-04
1.01500000e+00	3.22935306e-03	1.19113507e-04
1.02000000e+00	3.24090836e-03	1.19583916e-04
1.02500000e+00	3.19303595e-03	1.16426565e-04
1.03000000e+00	3.22193870e-03	1.17051956e-04
1.03500000e+00	3.23008498e-03	1.15594765e-04
1.04000000e+00	3.22530756e-03	1.14706658e-04
1.04500000e+00	3.22906391e-03	1.14844865e-04
1.05000000e+00	3.19851911e-03	1.13010786e-04
1.05500000e+00	3.20932637e-03	1.11574935e-04
1.06000000e+00	3.20021618e-03	1.11061012e-04
1.06500000e+00	3.23711619e-03	1.12501248e-04
1.07000000e+00	3.22165770e-03	1.11631564e-04
1.07500000e+00	3.26163061e-03	1.12143053e-04
1.08000000e+00	3.26047902e-03	1.11430766e-04
1.08500000e+00	3.25906476e-03	1.11574541e-04
1.09000000e+00	3.28241354e-03	1.13089745e-04
1.09500000e+00	3.28153753e-03	1.10792918e-04
1.10000000e+00	3.31092423e-03	1.12396558e-04
1.10500000e+00	3.30227231e-03	1.12525034e-04
1.11000000e+00	3.30092461e-03	1.12681048e-04
1.11500000e+00	3.31599411e-03	1.12323942e-04
1.12000000e+00	3.35443620e-03	1.14023787e-04
1.12500000e+00	3.33891657e-03	1.13265757e-04
1.13000000e+00	3.34061913e-03	1.14710690e-04
1.13500000e+00	3.35521011e-03	1.13752047e-04
1.14000000e+00	3.37709545e-03	1.14346803e-04
1.14500000e+00	3.36717103e-03	1.14941208e-04
1.15000000e+00	3.38329023e-03	1.16070951e-04
1.15500000e+00	3.39388273e-03	1.15224223e-04
1.16000000e+00	3.40233260e-03	1.15918535e-04
1.16500000e+00	3.40820564e-03	1.16008083e-04
1.17000000e+00	3.41616155e-03	1.17659561e-04
1.17500000e+00	3.43073471e-03	1.16483069e-04
1.18000000e+00	3.42041364e-03	1.16633233e-04
1.18500000e+00	3.45101360e-03	1.17570615e-04
1.19000000e+00	3.45245366e-03	1.18869548e-04
1.19500000e+00	3.45620719e-03	1.17538462e-04
1.20000000e+00	3.46125027e-03	1.18492740e-04
1.20500000e+00	3.47222144e-03	1.18606838e-04
1.21000000e+00	3.46780681e-03	1.19975184e-04
1.21500000e+00	3.47224099e-03	1.18274078e-04
1.22000000e+00	3.48476108e-03	1.18687834e-04
1.22500000e+00	3.47822071e-03	1.18988306e-04
1.23000000e+00	3.49792857e-03	1.20632628e-04
1.23500000e+00	3.51456277e-03	1.20336864e-04
1.24000000e+00	3.49661437e-03	1.19203224e-04
1.24500000e+00	3.49836961e-03	1.20177428e-04
1.25000000e+00	3.53658273e-03	1.22221430e-04
1.25500000e+00	3.51516393e-03	1.19914382e-04
1.26000000e+00	3.51139303e-03	1.20649758e-04
1.26500000e+00	3.52055146e-03	1.20501055e-04
1.27000000e+00	3.51348959e-03	1.21975853e-04
1.27500000e+00	3.53200463e-03	1.21470922e-04
1.28000000e+00	3.54905437e-03	1.21249256e-04
1.28500000e+00	3.54207874e-03	1.21639845e-04
1.29000000e+00	3.56095489e-03	1.23402574e-04
1.29500000e+00	3.54282276e-03	1.21499612e-04
1.30000000e+00	3.55271332e-03	1.21583579e-04
1.30500000e+00	3.55551798e-03	1.22251658e-04
1.31000000e+00	3.55539793e-03	1.23651042e-04
1.31500000e+00	3.56892141e-03	1.22699651e-04
1.32000000e+00	3.58418487e-03	1.22952122e-04
1.32500000e+00	3.57577443e-03	1.23044383e-04
1.33000000e+00	3.57822921e-03	1.24665446e-04
1.33500000e+00	3.57956325e-03	1.22971464e-04
1.34000000e+00	3.61214944e-03	1.24159942e-04
1.34500000e+00	3.57575471e-03	1.23453417e-04
1.35000000e+00	3.57951064e-03	1.24814170e-04
1.35500000e+00	3.56313505e-03	1.22426865e-04
1.36000000e+00	3.58291233e-03	1.22924712e-04
1.36500000e+00	3.57627032e-03	1.23152165e-04
1.37000000e+00	3.58700949e-03	1.25378864e-04
1.37500000e+00	3.61012400e-03	1.24234818e-04
1.38000000e+00	3.60462104e-03	1.24268221e-04
1.38500000e+00	3.58422203e-03	1.24272773e-04
1.39000000e+00	3.60515335e-03	1.25792051e-04
1.39500000e+00	3.60850715e-03	1.24067727e-04
1.40000000e+00	3.63731757e-03	1.28873908e-04
1.40500000e+00	3.60196834e-03	1.37424276e-04
1.41000000e+00	3.61295251e-03	1.44173896e-04
1.41500000e+00	3.59903498e-03	1.48854406e-04
1.42000000e+00	3.58316778e-03	1.54136854e-04
1.42500000e+00	3.57432458e-03	1.58414433e-04
1.43000000e+00	3.57763091e-03	1.64480452e-04
1.43500000e+00	3.56835785e-03	1.69121370e-04
1.44000000e+00	3.60780224e-03	1.77559695e-04
1.44500000e+00	3.58394898e-03	1.81063372e-04
1.45000000e+00	3.64668884e-03	1.78238393e-04
1.45500000e+00	3.66409156e-03	1.60667470e-04
1.46000000e+00	3.63924882e-03	1.56020982e-04
1.46500000e+00	3.65474301e-03	1.53738513e-04
1.47000000e+00	3.61719800e-03	1.51912813e-04
1.47500000e+00	3.59967921e-03	1.46790833e-04
1.48000000e+00	3.59950657e-03	1.45242345e-04
1.48500000e+00	3.62912268e-03	1.46499702e-04
1.49000000e+00	3.60875668e-03	1.46012533e-04
1.49500000e+00	3.61735214e-03	1.43210468e-04
1.50000000e+00	3.64101959e-03	1.43549033e-04
1.50500000e+00	3.61397591e-03	1.43284478e-04
1.51000000e+00	3.62383338e-03	1.44041425e-04
1.51500000e+00	3.60529004e-03	1.41017879e-04
1.52000000e+00	3.64866510e-03	1.42231396e-04
1.52500000e+00	3.64491860e-03	1.41904264e-04
1.53000000e+00	3.62493125e-03	1.42017680e-04
1.53500000e+00	3.62307805e-03	1.37952922e-04
1.54000000e+00	3.61440459e-03	1.37328105e-04
1.54500000e+00	3.59919984e-03	1.36427790e-04
1.55000000e+00	3.57981775e-03	1.35356220e-04
1.55500000e+00	3.57311118e-03	1.32096689e-04
1.56000000e+00	3.55062744e-03	1.31495240e-04
1.56500000e+00	3.54988127e-03	1.30855475e-04
1.57000000e+00	3.48680035e-03	1.27548980e-04
1.57500000e+00	3.52000457e-03	1.26406122e-04
1.58000000e+00	3.50491341e-03	1.25633610e-04
1.58500000e+00	3.46267372e-03	1.24099418e-04
1.59000000e+00	3.45873807e-03	1.24024509e-04
1.59500000e+00	3.48040745e-03	1.22452362e-04
1.60000000e+00	3.47386448e-03	1.22165675e-04
1.60500000e+00	3.45998873e-03	1.21746534e-04
1.61000000e+00	3.45326388e-03	1.20940651e-04
1.61500000e+00	3.44989216e-03	1.19866939e-04
1.62000000e+00	3.45792428e-03	1.20642100e-04
1.62500000e+00	3.42650422e-03	1.20884402e-04
1.63000000e+00	3.45025765e-03	1.20361014e-04
1.63500000e+00	3.41868436e-03	1.19237249e-04
1.64000000e+00	3.41214961e-03	1.19120007e-04
1.64500000e+00	3.41187874e-03	1.20384228e-04
1.65000000e+00	3.38574141e-03	1.18138191e-04
1.65500000e+00	3.38811213e-03	1.18133970e-04
1.66000000e+00	3.37469852e-03	1.17757975e-04
1.66500000e+00	3.37602148e-03	1.19753579e-04
1.67000000e+00	3.36795647e-03	1.17070558e-04
1.67500000e+00	3.39302923e-03	1.18209676e-04
1.68000000e+00	3.38453671e-03	1.18341701e-04
1.68500000e+00	3.34188307e-03	1.18693878e-04
1.69000000e+00	3.34651854e-03	1.16551795e-04
1.69500000e+00	3.32992206e-03	1.15832343e-04
1.70000000e+00	3.34132627e-03	1.17516506e-04
1.70500000e+00	3.31468469e-03	1.17181732e-04
1.71000000e+00	3.31374190e-03	1.15604306e-04
1.71500000e+00	3.32611742e-03	1.15991710e-04
1.72000000e+00	3.31816730e-03	1.16606002e-04
1.72500000e+00	3.29662377e-03	1.16555996e-04
1.73000000e+00	3.30993989e-03	1.15451244e-04
1.73500000e+00	3.30217183e-03	1.15455709e-04
1.74000000e+00	3.30083342e-03	1.15754060e-04
1.74500000e+00	3.29182099e-03	1.16850317e-04
1.75000000e+00	3.26933566e-03	1.13875832e-04
1.75500000e+00	3.28583858e-03	1.15081729e-04
1.76000000e+00	3.26646122e-03	1.14380942e-04
1.76500000e+00	3.28516597e-03	1.16481732e-04
1.77000000e+00	3.29025313e-03	1.14735486e-04
1.77500000e+00	3.28704358e-03	1.14928614e-04
1.78000000e+00	3.27968978e-03	1.15003521e-04
1.78500000e+00	3.30256785e-03	1.17120384e-04
1.79000000e+00	3.29208979e-03	1.14698607e-04
1.79500000e+00	3.28299261e-03	1.14730143e-04
1.80000000e+00	3.33099611e-03	1.17218938e-04
1.80500000e+00	3.29301775e-03	1.16630764e-04
1.81000000e+00	3.31322438e-03	1.15635372e-04
1.81500000e+00	3.26505514e-03	1.13963943e-04
1.82000000e+00	3.28485756e-03	1.15459447e-04
1.82500000e+00	3.27405967e-03	1.15854697e-04
1.83000000e+00	3.26462404e-03	1.13998310e-04
1.83500000e+00	3.22257503e-03	1.12665087e-04
1.84000000e+00	3.23101229e-03	1.13659477e-04
1.84500000e+00	3.22969945e-03	1.14193294e-04
1.85000000e+00	3.22845492e-03	1.12809127e-04
1.85500000e+00	3.20828943e-03	1.12194494e-04
1.86000000e+00	3.20930762e-03	1.12909129e-04
1.86500000e+00	3.18169644e-03	1.12329861e-04
1.87000000e+00	3.21885986e-03	1.12377842e-04
1.87500000e+00	3.16803791e-03	1.10942698e-04
1.88000000e+00	3.18925171e-03	1.12097501e-04
1.88500000e+00	3.14857248e-03	1.11395101e-04
1.89000000e+00	3.15925396e-03	1.10278255e-04
1.89500000e+00	3.15429971e-03	1.10587797e-04
1.90000000e+00	3.14749945e-03	1.10711109e-04
1.90500000e+00	3.13146184e-03	1.10190930e-04
1.91000000e+00	3.13470674e-03	1.09572414e-04
1.91500000e+00	3.11571333e-03	1.09013098e-04
1.92000000e+00	3.09504009e-03	1.08944967e-04
1.92500000e+00	3.08661363e-03	1.08688530e-04
1.93000000e+00	3.09020508e-03	1.07879942e-04
1.93500000e+00	3.06046141e-03	1.07142698e-04
1.94000000e+00	3.01108713e-03	1.06299095e-04
1.94500000e+00	3.02316464e-03	1.06407777e-04
1.95000000e+00	2.98121910e-03	1.03977455e-04
1.95500000e+00	2.97378876e-03	1.04159030e-04
1.96000000e+00	2.97877488e-03	1.04841415e-04
1.96500000e+00	2.95861261e-03	1.04291217e-04
1.97000000e+00	2.92202824e-03	1.01826891e-04
1.97500000e+00	2.91639290e-03	1.02260287e-04
1.98000000e+00	2.88606850e-03	1.01622498e-04
1.98500000e+00	2.87677769e-03	1.01488996e-04
1.99000000e+00	2.87584536e-03	1.00232910e-04
1.99500000e+00	2.87273704e-03	1.00497987e-04
2.00000000e+00	2.84953369e-03	1.00440336e-04
2.00500000e+00	2.87335184e-03	1.01438265e-04
2.01000000e+00	2.85465272e-03	1.10556149e-04
2.01500000e+00	2.82023290e-03	1.16024494e-04
2.02000000e+00	2.79009028e-03	1.22401639e-04
2.02500000e+00	2.77484886e-03	1.26565102e-04
2.03000000e+00	2.78779797e-03	1.34599884e-04
2.03500000e+00	2.77935236e-03	1.40048559e-04
2.04000000e+00	2.74292060e-03	1.44784885e-04
2.04500000e+00	2.69862862e-03	1.49755939e-04
2.05000000e+00	2.69030979e-03	1.56642135e-04
2.05500000e+00	2.78390367e-03	1.58825858e-04
2.06000000e+00	2.79639600e-03	1.38930789e-04
2.06500000e+00	2.78479111e-03	1.32153694e-04
2.07000000e+00	2.76433678e-03	1.24115403e-04
2.07500000e+00	2.74038134e-03	1.20399116e-04
2.08000000e+00	2.75756612e-03	1.20843298e-04
2.08500000e+00	2.76265516e-03	1.20092362e-04
2.09000000e+00	2.74803811e-03	1.15901598e-04
2.09500000e+00	2.76751050e-03	1.15553873e-04
2.10000000e+00	2.74901425e-03	1.13913399e-04
2.10500000e+00	2.74481942e-03	1.13388025e-04
2.11000000e+00	2.73256955e-03	1.08822505e-04
2.11500000e+00	2.73096653e-03	1.07583548e-04
2.12000000e+00	2.72182472e-03	1.06796019e-04
2.12500000e+00	2.72022873e-03	1.06466531e-04
2.13000000e+00	2.72375548e-03	1.02126212e-04
2.13500000e+00	2.73135899e-03	1.01231118e-04
2.14000000e+00	2.69383240e-03	9.90024355e-05
2.14500000e+00	2.70937042e-03	9.98448168e-05
2.15000000e+00	2.67714602e-03	9.54485611e-05
2.15500000e+00	2.69795629e-03	9.64349969e-05
2.16000000e+00	2.67076736e-03	9.49538011e-05
2.16500000e+00	2.66793280e-03	9.55787427e-05
2.17000000e+00	2.67651735e-03	9.35356407e-05
2.17500000e+00	2.66841812e-03	9.34779817e-05
2.18000000e+00	2.62731755e-03	9.23484803e-05
2.18500000e+00	2.61438374e-03	9.22922024e-05
2.19000000e+00	2.59633743e-03	9.13484537e-05
2.19500000e+00	2.58526459e-03	9.04921597e-05
2.20000000e+00	2.56051684e-03	8.98371627e-05
2.20500000e+00	2.56168579e-03	9.01949919e-05
2.21000000e+00	2.52348633e-03	8.91007699e-05
2.21500000e+00	2.51453749e-03	8.79304050e-05
2.22000000e+00	2.46092078e-03	8.59352224e-05
2.22500000e+00	2.44367113e-03	8.61266998e-05
2.23000000e+00	2.43047934e-03	8.60913695e-05
2.23500000e+00	2.42534419e-03	8.47426239e-05
2.24000000e+00	2.41325286e-03	8.43988372e-05
2.24500000e+00	2.37166742e-03	8.34624004e-05
2.25000000e+00	2.38275993e-03	8.44806066e-05
2.25500000e+00	2.36601741e-03	8.24512819e-05
2.26000000e+00	2.29797644e-03	8.03334692e-05
2.26500000e+00	2.28803267e-03	8.03634505e-05
2.27000000e+00	2.30845921e-03	8.21294259e-05
2.27500000e+00	2.28158615e-03	7.94431726e-05
2.28000000e+00	2.23663755e-03	7.79420006e-05
2.28500000e+00	2.21962109e-03	7.78625705e-05
2.29000000e+00	2.20951535e-03	7.79360951e-05
2.29500000e+00	2.20153757e-03	7.74538188e-05
2.30000000e+00	2.17583948e-03	7.58099948e-05
2.30500000e+00	2.18714276e-03	7.64794897e-05
2.31000000e+00	2.16605272e-03	7.60528063e-05
2.31500000e+00	2.14842647e-03	7.60461254e-05
2.32000000e+00	2.13612978e-03	7.40964349e-05
2.32500000e+00	2.12123182e-03	7.41392677e-05
2.33000000e+00	2.10844244e-03	7.39125148e-05
2.33500000e+00	2.07495975e-03	7.34732171e-05
2.34000000e+00	2.05811134e-03	7.16876141e-05
2.34500000e+00	2.06017084e-03	7.17467598e-05
2.35000000e+00	2.04783827e-03	7.15985207e-05
2.35500000e+00	2.02306104e-03	7.16465832e-05
2.36000000e+00	2.00584676e-03	7.00509503e-05
2.36500000e+00	1.98795978e-03	6.93280481e-05
2.37000000e+00	1.98929766e-03	6.94287686e-05
2.37500000e+00	1.98904850e-03	7.01026738e-05
2.38000000e+00	1.95745842e-03	6.93285724e-05
2.38500000e+00	1.94326127e-03	6.77890339e-05
2.39000000e+00	1.93119364e-03	6.76089195e-05
2.39500000e+00	1.93188132e-03	6.81018133e-05
2.40000000e+00	1.92203475e-03	6.85636816e-05
2.40500000e+00	1.92422863e-03	6.73290870e-05
2.41000000e+00	1.90330598e-03	6.68263693e-05
2.41500000e+00	1.88726313e-03	6.63101573e-05
2.42000000e+00	1.87466331e-03	6.67018776e-05
2.42500000e+00	1.85772424e-03	6.59981940e-05
2.43000000e+00	1.83138455e-03	6.44354379e-05
2.43500000e+00	1.85280023e-03	6.54833633e-05
2.44000000e+00	1.81578538e-03	6.43082504e-05
2.44500000e+00	1.82382383e-03	6.54550425e-05
2.45000000e+00	1.81270331e-03	6.38987555e-05
2.45500000e+00	1.81663430e-03	6.41837720e-05
2.46000000e+00	1.78032287e-03	6.32249190e-05
2.46500000e+00	1.75743421e-03	6.31651799e-05
2.47000000e+00	1.76100420e-03	6.26675709e-05
2.47500000e+00	1.76582978e-03	6.25087781e-05
2.48000000e+00	1.74967820e-03	6.24844825e-05
2.48500000e+00	1.74557043e-03	6.23259115e-05
2.49000000e+00	1.73096653e-03	6.26312490e-05
2.49500000e+00	1.73404229e-03	6.15851776e-05
2.50000000e+00	1.72173215e-03	6.13301275e-05
2.50500000e+00	1.70405066e-03	6.10081895e-05
2.51000000e+00	1.69477023e-03	6.10508148e-05
2.51500000e+00	1.69325607e-03	6.12262406e-05
2.52000000e+00	1.68032477e-03	6.02791767e-05
2.52500000e+00	1.65714123e-03	5.95923060e-05
2.53000000e+00	1.66364351e-03	6.03630466e-05
2.53500000e+00	1.64317451e-03	6.04568197e-05
2.54000000e+00	1.65054449e-03	5.96524821e-05
2.54500000e+00	1.63893598e-03	5.95457625e-05
2.55000000e+00	1.64670468e-03	6.00105606e-05
2.55500000e+00	1.62723134e-03	5.99146417e-05
2.56000000e+00	1.63116359e-03	6.03475576e-05
2.56500000e+00	1.62154145e-03	5.93815281e-05
2.57000000e+00	1.60566673e-03	5.91261359e-05
2.57500000e+00	1.59907192e-03	5.89527506e-05
2.58000000e+00	1.58439810e-03	5.94438010e-05
2.58500000e+00	1.58551629e-03	5.89349024e-05
2.59000000e+00	1.57215224e-03	5.82953158e-05
2.59500000e+00	1.57885097e-03	5.88206758e-05
2.60000000e+00	1.57668204e-03	5.90499525e-05
2.60500000e+00	1.55870543e-03	5.97234237e-05
2.61000000e+00	1.56309717e-03	6.82752446e-05
2.61500000e+00	1.54108782e-03	7.47774934e-05
2.62000000e+00	1.51681754e-03	8.09463539e-05
2.62500000e+00	1.48733566e-03	8.58328300e-05
2.63000000e+00	1.52405965e-03	9.70513388e-05
2.63500000e+00	1.53460812e-03	1.08048418e-04
2.64000000e+00	1.58530252e-03	1.22800669e-04
2.64500000e+00	1.56116664e-03	1.29056598e-04
2.65000000e+00	1.56268530e-03	1.36636136e-04
2.65500000e+00	1.58437314e-03	1.48422411e-04
2.66000000e+00	1.55512544e-03	1.56796212e-04
2.66500000e+00	1.54002020e-03	1.74507776e-04
2.67000000e+00	1.51487651e-03	1.86164078e-04
2.67500000e+00	1.53127600e-03	2.19566358e-04
2.68000000e+00	1.40021421e-03	2.35014169e-04
2.68500000e+00	1.33780792e-03	2.95964119e-04
2.69000000e+00	1.33767410e-03	4.80825492e-04
2.69500000e+00	0.00000000e+00	0.00000000e+00
2.70000000e+00	0.00000000e+00	0.00000000e+00
