3997.70013	0.00527
3995.64052	0.00551
3993.58092	0.00575
3991.52131	0.00593
3989.46170	0.00567
3987.40209	0.00519
3985.34248	0.00488
3983.28287	0.00472
3981.22327	0.00478
3979.16366	0.00502
3977.10405	0.00540
3975.04444	0.00572
3972.98483	0.00573
3970.92522	0.00534
3968.86561	0.00492
3966.80601	0.00502
3964.74640	0.00488
3962.68679	0.00434
3960.62718	0.00436
3958.56757	0.00479
3956.50796	0.00503
3954.44835	0.00507
3952.38875	0.00514
3950.32914	0.00560
3948.26953	0.00601
3946.20992	0.00563
3944.15031	0.00565
3942.09070	0.00618
3940.03109	0.00620
3937.97149	0.00605
3935.91188	0.00582
3933.85227	0.00562
3931.79266	0.00586
3929.73305	0.00629
3927.67344	0.00649
3925.61384	0.00638
3923.55423	0.00621
3921.49462	0.00664
3919.43501	0.00730
3917.37540	0.00709
3915.31579	0.00643
3913.25618	0.00581
3911.19658	0.00518
3909.13697	0.00531
3907.07736	0.00637
3905.01775	0.00755
3902.95814	0.00845
3900.89853	0.00867
3898.83892	0.00775
3896.77932	0.00662
3894.71971	0.00678
3892.66010	0.00802
3890.60049	0.00821
3888.54088	0.00756
3886.48127	0.00761
3884.42166	0.00764
3882.36206	0.00800
3880.30245	0.00846
3878.24284	0.00747
3876.18323	0.00683
3874.12362	0.00766
3872.06401	0.00836
3870.00441	0.00824
3867.94480	0.00816
3865.88519	0.00866
3863.82558	0.00844
3861.76597	0.00657
3859.70636	0.00511
3857.64675	0.00519
3855.58715	0.00675
3853.52754	0.00973
3851.46793	0.01055
3849.40832	0.00854
3847.34871	0.00654
3845.28910	0.00625
3843.22949	0.00790
3841.16989	0.01002
3839.11028	0.01124
3837.05067	0.01077
3834.99106	0.00924
3832.93145	0.00784
3830.87184	0.00705
3828.81223	0.00697
3826.75263	0.00670
3824.69302	0.00617
3822.63341	0.00663
3820.57380	0.00748
3818.51419	0.00778
3816.45458	0.00795
3814.39498	0.00686
3812.33537	0.00543
3810.27576	0.00520
3808.21615	0.00621
3806.15654	0.00732
3804.09693	0.00834
3802.03732	0.00975
3799.97772	0.00967
3797.91811	0.00838
3795.85850	0.00718
3793.79889	0.00624
3791.73928	0.00596
3789.67967	0.00614
3787.62006	0.00662
3785.56046	0.00684
3783.50085	0.00628
3781.44124	0.00598
3779.38163	0.00599
3777.32202	0.00505
3775.26241	0.00430
3773.20280	0.00524
3771.14320	0.00702
3769.08359	0.00764
3767.02398	0.00699
3764.96437	0.00614
3762.90476	0.00570
3760.84515	0.00652
3758.78555	0.00793
3756.72594	0.00828
3754.66633	0.00849
3752.60672	0.01011
3750.54711	0.01180
3748.48750	0.01160
3746.42789	0.01202
3744.36829	0.01266
3742.30868	0.01072
3740.24907	0.00869
3738.18946	0.00868
3736.12985	0.01025
3734.07024	0.01063
3732.01063	0.00907
3729.95103	0.00783
3727.89142	0.00812
3725.83181	0.00936
3723.77220	0.00988
3721.71259	0.00886
3719.65298	0.00689
3717.59337	0.00570
3715.53377	0.00619
3713.47416	0.00799
3711.41455	0.00977
3709.35494	0.00913
3707.29533	0.00706
3705.23572	0.00631
3703.17612	0.00679
3701.11651	0.00618
3699.05690	0.00446
3696.99729	0.00384
3694.93768	0.00472
3692.87807	0.00621
3690.81846	0.00792
3688.75886	0.00840
3686.69925	0.00699
3684.63964	0.00599
3682.58003	0.00643
3680.52042	0.00823
3678.46081	0.01084
3676.40120	0.01314
3674.34160	0.01250
3672.28199	0.01098
3670.22238	0.01143
3668.16277	0.01123
3666.10316	0.00970
3664.04355	0.00884
3661.98394	0.00894
3659.92434	0.00987
3657.86473	0.01149
3655.80512	0.01299
3653.74551	0.01387
3651.68590	0.01528
3649.62629	0.01770
3647.56669	0.01813
3645.50708	0.01610
3643.44747	0.01471
3641.38786	0.01490
3639.32825	0.01552
3637.26864	0.01586
3635.20903	0.01635
3633.14943	0.01720
3631.08982	0.01876
3629.03021	0.02112
3626.97060	0.02167
3624.91099	0.02061
3622.85138	0.02028
3620.79177	0.02162
3618.73217	0.02387
3616.67256	0.02471
3614.61295	0.02452
3612.55334	0.02448
3610.49373	0.02489
3608.43412	0.02560
3606.37451	0.02573
3604.31491	0.02559
3602.25530	0.02601
3600.19569	0.02674
3598.13608	0.02777
3596.07647	0.02930
3594.01686	0.03009
3591.95726	0.02993
3589.89765	0.03075
3587.83804	0.03249
3585.77843	0.03278
3583.71882	0.03225
3581.65921	0.03233
3579.59960	0.03275
3577.54000	0.03337
3575.48039	0.03430
3573.42078	0.03546
3571.36117	0.03702
3569.30156	0.03972
3567.24195	0.04273
3565.18234	0.04296
3563.12274	0.04156
3561.06313	0.04126
3559.00352	0.04154
3556.94391	0.04187
3554.88430	0.04296
3552.82469	0.04396
3550.76508	0.04424
3548.70548	0.04546
3546.64587	0.04764
3544.58626	0.04866
3542.52665	0.04828
3540.46704	0.04829
3538.40743	0.04928
3536.34783	0.05020
3534.28822	0.05050
3532.22861	0.05095
3530.16900	0.05182
3528.10939	0.05280
3526.04978	0.05373
3523.99017	0.05439
3521.93057	0.05504
3519.87096	0.05593
3517.81135	0.05662
3515.75174	0.05678
3513.69213	0.05664
3511.63252	0.05707
3509.57291	0.05844
3507.51331	0.05977
3505.45370	0.06038
3503.39409	0.06114
3501.33448	0.06194
3499.27487	0.06173
3497.21526	0.06120
3495.15565	0.06150
3493.09605	0.06247
3491.03644	0.06332
3488.97683	0.06382
3486.91722	0.06417
3484.85761	0.06467
3482.79800	0.06535
3480.73840	0.06599
3478.67879	0.06626
3476.61918	0.06626
3474.55957	0.06643
3472.49996	0.06659
3470.44035	0.06675
3468.38074	0.06736
3466.32114	0.06802
3464.26153	0.06823
3462.20192	0.06861
3460.14231	0.06943
3458.08270	0.07030
3456.02309	0.07072
3453.96348	0.07075
3451.90388	0.07110
3449.84427	0.07169
3447.78466	0.07229
3445.72505	0.07296
3443.66544	0.07353
3441.60583	0.07373
3439.54622	0.07360
3437.48662	0.07352
3435.42701	0.07386
3433.36740	0.07478
3431.30779	0.07594
3429.24818	0.07658
3427.18857	0.07660
3425.12897	0.07657
3423.06936	0.07688
3421.00975	0.07745
3418.95014	0.07819
3416.89053	0.07886
3414.83092	0.07955
3412.77131	0.08066
3410.71171	0.08205
3408.65210	0.08313
3406.59249	0.08370
3404.53288	0.08414
3402.47327	0.08493
3400.41366	0.08611
3398.35405	0.08738
3396.29445	0.08833
3394.23484	0.08896
3392.17523	0.08971
3390.11562	0.09060
3388.05601	0.09129
3385.99640	0.09167
3383.93679	0.09208
3381.87719	0.09298
3379.81758	0.09433
3377.75797	0.09575
3375.69836	0.09664
3373.63875	0.09706
3371.57914	0.09788
3369.51954	0.09925
3367.45993	0.10063
3365.40032	0.10163
3363.34071	0.10250
3361.28110	0.10371
3359.22149	0.10475
3357.16188	0.10520
3355.10228	0.10586
3353.04267	0.10706
3350.98306	0.10835
3348.92345	0.10956
3346.86384	0.11058
3344.80423	0.11176
3342.74462	0.11353
3340.68502	0.11510
3338.62541	0.11601
3336.56580	0.11735
3334.50619	0.11910
3332.44658	0.12026
3330.38697	0.12118
3328.32736	0.12271
3326.26776	0.12449
3324.20815	0.12567
3322.14854	0.12659
3320.08893	0.12786
3318.02932	0.12912
3315.96971	0.13055
3313.91011	0.13240
3311.85050	0.13405
3309.79089	0.13520
3307.73128	0.13611
3305.67167	0.13708
3303.61206	0.13851
3301.55245	0.14015
3299.49285	0.14140
3297.43324	0.14249
3295.37363	0.14413
3293.31402	0.14600
3291.25441	0.14699
3289.19480	0.14716
3287.13519	0.14761
3285.07559	0.14832
3283.01598	0.14863
3280.95637	0.14866
3278.89676	0.14873
3276.83715	0.14886
3274.77754	0.14904
3272.71793	0.14899
3270.65833	0.14828
3268.59872	0.14742
3266.53911	0.14691
3264.47950	0.14635
3262.41989	0.14507
3260.36028	0.14343
3258.30068	0.14223
3256.24107	0.14126
3254.18146	0.14024
3252.12185	0.13914
3250.06224	0.13771
3248.00263	0.13624
3245.94302	0.13501
3243.88342	0.13375
3241.82381	0.13254
3239.76420	0.13165
3237.70459	0.13068
3235.64498	0.12948
3233.58537	0.12852
3231.52576	0.12764
3229.46616	0.12623
3227.40655	0.12465
3225.34694	0.12342
3223.28733	0.12224
3221.22772	0.12103
3219.16811	0.12002
3217.10850	0.11924
3215.04890	0.11834
3212.98929	0.11711
3210.92968	0.11586
3208.87007	0.11454
3206.81046	0.11327
3204.75085	0.11215
3202.69125	0.11073
3200.63164	0.10906
3198.57203	0.10750
3196.51242	0.10606
3194.45281	0.10463
3192.39320	0.10320
3190.33359	0.10181
3188.27399	0.10072
3186.21438	0.09977
3184.15477	0.09864
3182.09516	0.09737
3180.03555	0.09587
3177.97594	0.09426
3175.91633	0.09255
3173.85673	0.09096
3171.79712	0.09003
3169.73751	0.08897
3167.67790	0.08716
3165.61829	0.08543
3163.55868	0.08447
3161.49907	0.08376
3159.43947	0.08246
3157.37986	0.08085
3155.32025	0.07985
3153.26064	0.07942
3151.20103	0.07891
3149.14142	0.07796
3147.08182	0.07680
3145.02221	0.07575
3142.96260	0.07481
3140.90299	0.07399
3138.84338	0.07324
3136.78377	0.07222
3134.72416	0.07135
3132.66456	0.07109
3130.60495	0.07082
3128.54534	0.07038
3126.48573	0.07012
3124.42612	0.06986
3122.36651	0.06949
3120.30690	0.06936
3118.24730	0.06976
3116.18769	0.07001
3114.12808	0.06981
3112.06847	0.06984
3110.00886	0.07006
3107.94925	0.07018
3105.88965	0.07045
3103.83004	0.07095
3101.77043	0.07141
3099.71082	0.07173
3097.65121	0.07208
3095.59160	0.07252
3093.53199	0.07293
3091.47239	0.07331
3089.41278	0.07371
3087.35317	0.07411
3085.29356	0.07459
3083.23395	0.07502
3081.17434	0.07522
3079.11473	0.07521
3077.05513	0.07500
3074.99552	0.07455
3072.93591	0.07411
3070.87630	0.07396
3068.81669	0.07414
3066.75708	0.07431
3064.69747	0.07402
3062.63787	0.07353
3060.57826	0.07322
3058.51865	0.07276
3056.45904	0.07198
3054.39943	0.07116
3052.33982	0.07021
3050.28022	0.06903
3048.22061	0.06794
3046.16100	0.06706
3044.10139	0.06591
3042.04178	0.06432
3039.98217	0.06267
3037.92256	0.06143
3035.86296	0.06076
3033.80335	0.06010
3031.74374	0.05906
3029.68413	0.05783
3027.62452	0.05656
3025.56491	0.05554
3023.50530	0.05479
3021.44570	0.05390
3019.38609	0.05309
3017.32648	0.05275
3015.26687	0.05258
3013.20726	0.05223
3011.14765	0.05168
3009.08804	0.05073
3007.02844	0.04984
3004.96883	0.04972
3002.90922	0.04981
3000.84961	0.04972
2998.79000	0.04979
2996.73039	0.05003
2994.67079	0.05056
2992.61118	0.05117
2990.55157	0.05139
2988.49196	0.05152
2986.43235	0.05189
2984.37274	0.05237
2982.31313	0.05286
2980.25353	0.05325
2978.19392	0.05311
2976.13431	0.05251
2974.07470	0.05215
2972.01509	0.05182
2969.95548	0.05108
2967.89587	0.05043
2965.83627	0.04995
2963.77666	0.04948
2961.71705	0.04928
2959.65744	0.04919
2957.59783	0.04904
2955.53822	0.04897
2953.47861	0.04913
2951.41901	0.04962
2949.35940	0.05029
2947.29979	0.05112
2945.24018	0.05229
2943.18057	0.05331
2941.12096	0.05385
2939.06136	0.05415
2937.00175	0.05419
2934.94214	0.05397
2932.88253	0.05336
2930.82292	0.05215
2928.76331	0.05080
2926.70370	0.04970
2924.64410	0.04862
2922.58449	0.04748
2920.52488	0.04648
2918.46527	0.04564
2916.40566	0.04492
2914.34605	0.04415
2912.28644	0.04296
2910.22684	0.04141
2908.16723	0.04016
2906.10762	0.03934
2904.04801	0.03874
2901.98840	0.03823
2899.92879	0.03777
2897.86918	0.03729
2895.80958	0.03675
2893.74997	0.03620
2891.69036	0.03568
2889.63075	0.03539
2887.57114	0.03543
2885.51153	0.03544
2883.45193	0.03529
2881.39232	0.03529
2879.33271	0.03536
2877.27310	0.03515
2875.21349	0.03480
2873.15388	0.03438
2871.09427	0.03368
2869.03467	0.03289
2866.97506	0.03228
2864.91545	0.03164
2862.85584	0.03084
2860.79623	0.03032
2858.73662	0.03021
2856.67701	0.03000
2854.61741	0.02962
2852.55780	0.02936
2850.49819	0.02926
2848.43858	0.02901
2846.37897	0.02848
2844.31936	0.02799
2842.25975	0.02770
2840.20015	0.02750
2838.14054	0.02735
2836.08093	0.02705
2834.02132	0.02662
2831.96171	0.02654
2829.90210	0.02684
2827.84250	0.02705
2825.78289	0.02692
2823.72328	0.02651
2821.66367	0.02599
2819.60406	0.02551
2817.54445	0.02524
2815.48484	0.02527
2813.42524	0.02534
2811.36563	0.02533
2809.30602	0.02514
2807.24641	0.02470
2805.18680	0.02425
2803.12719	0.02386
2801.06758	0.02352
2799.00798	0.02334
2796.94837	0.02323
2794.88876	0.02298
2792.82915	0.02263
2790.76954	0.02240
2788.70993	0.02220
2786.65032	0.02180
2784.59072	0.02130
2782.53111	0.02079
2780.47150	0.02044
2778.41189	0.02039
2776.35228	0.02043
2774.29267	0.02043
2772.23307	0.02027
2770.17346	0.01977
2768.11385	0.01939
2766.05424	0.01944
2763.99463	0.01936
2761.93502	0.01891
2759.87541	0.01855
2757.81581	0.01842
2755.75620	0.01832
2753.69659	0.01817
2751.63698	0.01803
2749.57737	0.01780
2747.51776	0.01759
2745.45815	0.01748
2743.39855	0.01719
2741.33894	0.01682
2739.27933	0.01662
2737.21972	0.01633
2735.16011	0.01599
2733.10050	0.01589
2731.04089	0.01580
2728.98129	0.01560
2726.92168	0.01546
2724.86207	0.01533
2722.80246	0.01510
2720.74285	0.01498
2718.68324	0.01517
2716.62364	0.01535
2714.56403	0.01521
2712.50442	0.01492
2710.44481	0.01463
2708.38520	0.01441
2706.32559	0.01424
2704.26598	0.01405
2702.20638	0.01396
2700.14677	0.01393
2698.08716	0.01371
2696.02755	0.01366
2693.96794	0.01387
2691.90833	0.01387
2689.84872	0.01369
2687.78912	0.01362
2685.72951	0.01363
2683.66990	0.01363
2681.61029	0.01350
2679.55068	0.01338
2677.49107	0.01328
2675.43146	0.01310
2673.37186	0.01312
2671.31225	0.01320
2669.25264	0.01301
2667.19303	0.01283
2665.13342	0.01281
2663.07381	0.01275
2661.01421	0.01266
2658.95460	0.01266
2656.89499	0.01275
2654.83538	0.01288
2652.77577	0.01290
2650.71616	0.01274
2648.65655	0.01263
2646.59695	0.01259
2644.53734	0.01240
2642.47773	0.01212
2640.41812	0.01210
2638.35851	0.01228
2636.29890	0.01244
2634.23929	0.01253
2632.17969	0.01257
2630.12008	0.01261
2628.06047	0.01267
2626.00086	0.01258
2623.94125	0.01240
2621.88164	0.01236
2619.82203	0.01224
2617.76243	0.01208
2615.70282	0.01220
2613.64321	0.01231
2611.58360	0.01212
2609.52399	0.01180
2607.46438	0.01159
2605.40478	0.01160
2603.34517	0.01166
2601.28556	0.01138
2599.22595	0.01080
2597.16634	0.01046
2595.10673	0.01055
2593.04712	0.01076
2590.98752	0.01071
2588.92791	0.01048
2586.86830	0.01035
2584.80869	0.01027
2582.74908	0.01006
2580.68947	0.00967
2578.62986	0.00938
2576.57026	0.00944
2574.51065	0.00963
2572.45104	0.00962
2570.39143	0.00926
2568.33182	0.00908
2566.27221	0.00942
2564.21260	0.00979
2562.15300	0.00977
2560.09339	0.00942
2558.03378	0.00913
2555.97417	0.00909
2553.91456	0.00902
2551.85495	0.00892
2549.79535	0.00910
2547.73574	0.00928
2545.67613	0.00920
2543.61652	0.00915
2541.55691	0.00900
2539.49730	0.00870
2537.43769	0.00882
2535.37809	0.00905
2533.31848	0.00863
2531.25887	0.00814
2529.19926	0.00822
2527.13965	0.00831
2525.08004	0.00827
2523.02043	0.00848
2520.96083	0.00865
2518.90122	0.00859
2516.84161	0.00868
2514.78200	0.00891
2512.72239	0.00893
2510.66278	0.00861
2508.60317	0.00830
2506.54357	0.00825
2504.48396	0.00828
2502.42435	0.00812
2500.36474	0.00790
2498.30513	0.00802
2496.24552	0.00822
2494.18592	0.00839
2492.12631	0.00867
2490.06670	0.00885
2488.00709	0.00893
2485.94748	0.00888
2483.88787	0.00865
2481.82826	0.00824
2479.76866	0.00783
2477.70905	0.00773
2475.64944	0.00792
2473.58983	0.00812
2471.53022	0.00808
2469.47061	0.00776
2467.41100	0.00753
2465.35140	0.00783
2463.29179	0.00852
2461.23218	0.00893
2459.17257	0.00874
2457.11296	0.00847
2455.05335	0.00842
2452.99374	0.00805
2450.93414	0.00766
2448.87453	0.00787
2446.81492	0.00815
2444.75531	0.00805
2442.69570	0.00789
2440.63609	0.00781
2438.57649	0.00761
2436.51688	0.00745
2434.45727	0.00738
2432.39766	0.00717
2430.33805	0.00691
2428.27844	0.00681
2426.21883	0.00689
2424.15923	0.00699
2422.09962	0.00706
2420.04001	0.00693
2417.98040	0.00675
2415.92079	0.00691
2413.86118	0.00719
2411.80157	0.00716
2409.74197	0.00690
2407.68236	0.00679
2405.62275	0.00688
2403.56314	0.00685
2401.50353	0.00661
2399.44392	0.00653
2397.38431	0.00676
2395.32471	0.00696
2393.26510	0.00697
2391.20549	0.00706
2389.14588	0.00725
2387.08627	0.00726
2385.02666	0.00710
2382.96706	0.00700
2380.90745	0.00695
2378.84784	0.00665
2376.78823	0.00635
2374.72862	0.00656
2372.66901	0.00692
2370.60940	0.00688
2368.54980	0.00674
2366.49019	0.00672
2364.43058	0.00663
2362.37097	0.00652
2360.31136	0.00650
2358.25175	0.00652
2356.19214	0.00651
2354.13254	0.00689
2352.07293	0.00746
2350.01332	0.00776
2347.95371	0.00812
2345.89410	0.00853
2343.83449	0.00856
2341.77488	0.00829
2339.71528	0.00789
2337.65567	0.00755
2335.59606	0.00753
2333.53645	0.00752
2331.47684	0.00721
2329.41723	0.00713
2327.35763	0.00786
2325.29802	0.00889
2323.23841	0.00915
2321.17880	0.00864
2319.11919	0.00826
2317.05958	0.00827
2314.99997	0.00847
2312.94037	0.00862
2310.88076	0.00832
2308.82115	0.00770
2306.76154	0.00749
2304.70193	0.00761
2302.64232	0.00781
2300.58271	0.00782
2298.52311	0.00755
2296.46350	0.00759
2294.40389	0.00789
2292.34428	0.00787
2290.28467	0.00779
2288.22506	0.00794
2286.16545	0.00785
2284.10585	0.00750
2282.04624	0.00714
2279.98663	0.00684
2277.92702	0.00697
2275.86741	0.00752
2273.80780	0.00787
2271.74820	0.00779
2269.68859	0.00743
2267.62898	0.00706
2265.56937	0.00704
2263.50976	0.00702
2261.45015	0.00661
2259.39054	0.00632
2257.33094	0.00650
2255.27133	0.00636
2253.21172	0.00575
2251.15211	0.00554
2249.09250	0.00595
2247.03289	0.00668
2244.97328	0.00725
2242.91368	0.00720
2240.85407	0.00686
2238.79446	0.00691
2236.73485	0.00725
2234.67524	0.00739
2232.61563	0.00690
2230.55602	0.00613
2228.49642	0.00610
2226.43681	0.00641
2224.37720	0.00620
2222.31759	0.00616
2220.25798	0.00671
2218.19837	0.00700
2216.13877	0.00664
2214.07916	0.00633
2212.01955	0.00671
2209.95994	0.00704
2207.90033	0.00664
2205.84072	0.00601
2203.78111	0.00559
2201.72151	0.00537
2199.66190	0.00517
2197.60229	0.00481
2195.54268	0.00442
2193.48307	0.00459
2191.42346	0.00591
2189.36385	0.00723
2187.30425	0.00661
2185.24464	0.00483
2183.18503	0.00403
2181.12542	0.00502
2179.06581	0.00653
2177.00620	0.00664
2174.94659	0.00612
2172.88699	0.00642
2170.82738	0.00694
2168.76777	0.00709
2166.70816	0.00716
2164.64855	0.00745
2162.58894	0.00767
2160.52934	0.00652
2158.46973	0.00439
2156.41012	0.00330
2154.35051	0.00261
2152.29090	0.00193
2150.23129	0.00214
2148.17168	0.00307
2146.11208	0.00389
2144.05247	0.00417
2141.99286	0.00424
2139.93325	0.00458
2137.87364	0.00475
2135.81403	0.00405
2133.75442	0.00337
2131.69482	0.00399
2129.63521	0.00504
2127.57560	0.00532
2125.51599	0.00530
2123.45638	0.00563
2121.39677	0.00604
2119.33716	0.00657
2117.27756	0.00711
2115.21795	0.00695
2113.15834	0.00660
2111.09873	0.00698
2109.03912	0.00742
2106.97951	0.00706
2104.91991	0.00649
2102.86030	0.00624
2100.80069	0.00630
2098.74108	0.00663
2096.68147	0.00665
2094.62186	0.00614
2092.56225	0.00589
2090.50265	0.00624
2088.44304	0.00650
2086.38343	0.00650
2084.32382	0.00637
2082.26421	0.00635
2080.20460	0.00644
2078.14499	0.00610
2076.08539	0.00581
2074.02578	0.00607
2071.96617	0.00661
2069.90656	0.00692
2067.84695	0.00665
2065.78734	0.00583
2063.72773	0.00508
2061.66813	0.00509
2059.60852	0.00553
2057.54891	0.00597
2055.48930	0.00614
2053.42969	0.00583
2051.37008	0.00557
2049.31048	0.00595
2047.25087	0.00658
2045.19126	0.00665
2043.13165	0.00597
2041.07204	0.00508
2039.01243	0.00439
2036.95282	0.00401
2034.89322	0.00469
2032.83361	0.00614
2030.77400	0.00615
2028.71439	0.00490
2026.65478	0.00492
2024.59517	0.00589
2022.53556	0.00545
2020.47596	0.00378
2018.41635	0.00297
2016.35674	0.00331
2014.29713	0.00386
2012.23752	0.00450
2010.17791	0.00532
2008.11830	0.00545
2006.05870	0.00415
2003.99909	0.00286
2001.93948	0.00328
1999.87987	0.00473
1997.82026	0.00607
1995.76065	0.00701
1993.70105	0.00730
1991.64144	0.00689
1989.58183	0.00554
1987.52222	0.00434
1985.46261	0.00450
1983.40300	0.00481
1981.34339	0.00450
1979.28379	0.00437
1977.22418	0.00446
1975.16457	0.00413
1973.10496	0.00401
1971.04535	0.00437
1968.98574	0.00469
1966.92613	0.00503
1964.86653	0.00525
1962.80692	0.00487
1960.74731	0.00416
1958.68770	0.00386
1956.62809	0.00384
1954.56848	0.00365
1952.50887	0.00361
1950.44927	0.00415
1948.38966	0.00459
1946.33005	0.00420
1944.27044	0.00384
1942.21083	0.00416
1940.15122	0.00437
1938.09162	0.00417
1936.03201	0.00418
1933.97240	0.00437
1931.91279	0.00410
1929.85318	0.00355
1927.79357	0.00340
1925.73396	0.00398
1923.67436	0.00493
1921.61475	0.00523
1919.55514	0.00490
1917.49553	0.00479
1915.43592	0.00496
1913.37631	0.00513
1911.31670	0.00513
1909.25710	0.00478
1907.19749	0.00452
1905.13788	0.00445
1903.07827	0.00405
1901.01866	0.00390
1898.95905	0.00452
1896.89944	0.00506
1894.83984	0.00499
1892.78023	0.00468
1890.72062	0.00446
1888.66101	0.00427
1886.60140	0.00441
1884.54179	0.00496
1882.48219	0.00530
1880.42258	0.00527
1878.36297	0.00514
1876.30336	0.00482
1874.24375	0.00456
1872.18414	0.00506
1870.12453	0.00626
1868.06493	0.00666
1866.00532	0.00583
1863.94571	0.00518
1861.88610	0.00507
1859.82649	0.00504
1857.76688	0.00495
1855.70727	0.00498
1853.64767	0.00502
1851.58806	0.00484
1849.52845	0.00463
1847.46884	0.00479
1845.40923	0.00541
1843.34962	0.00570
1841.29002	0.00526
1839.23041	0.00499
1837.17080	0.00502
1835.11119	0.00478
1833.05158	0.00459
1830.99197	0.00502
1828.93236	0.00558
1826.87276	0.00576
1824.81315	0.00556
1822.75354	0.00511
1820.69393	0.00488
1818.63432	0.00495
1816.57471	0.00495
1814.51510	0.00491
1812.45550	0.00521
1810.39589	0.00552
1808.33628	0.00542
1806.27667	0.00537
1804.21706	0.00576
1802.15745	0.00623
1800.09784	0.00627
1798.03824	0.00616
1795.97863	0.00636
1793.91902	0.00677
1791.85941	0.00699
1789.79980	0.00664
1787.74019	0.00619
1785.68059	0.00619
1783.62098	0.00652
1781.56137	0.00691
1779.50176	0.00706
1777.44215	0.00690
1775.38254	0.00705
1773.32293	0.00787
1771.26333	0.00838
1769.20372	0.00806
1767.14411	0.00752
1765.08450	0.00723
1763.02489	0.00747
1760.96528	0.00780
1758.90567	0.00792
1756.84607	0.00810
1754.78646	0.00838
1752.72685	0.00908
1750.66724	0.01003
1748.60763	0.01023
1746.54802	0.00985
1744.48841	0.00981
1742.42881	0.01017
1740.36920	0.01047
1738.30959	0.01061
1736.24998	0.01109
1734.19037	0.01188
1732.13076	0.01189
1730.07116	0.01150
1728.01155	0.01130
1725.95194	0.01125
1723.89233	0.01150
1721.83272	0.01213
1719.77311	0.01345
1717.71350	0.01553
1715.65390	0.01693
1713.59429	0.01735
1711.53468	0.01826
1709.47507	0.02014
1707.41546	0.02300
1705.35585	0.02674
1703.29624	0.03037
1701.23664	0.03475
1699.17703	0.03998
1697.11742	0.04353
1695.05781	0.04620
1692.99820	0.04841
1690.93859	0.05104
1688.87898	0.05454
1686.81938	0.05820
1684.75977	0.06304
1682.70016	0.06745
1680.64055	0.06955
1678.58094	0.07173
1676.52133	0.07522
1674.46173	0.07974
1672.40212	0.08367
1670.34251	0.08763
1668.28290	0.09157
1666.22329	0.09426
1664.16368	0.09738
1662.10407	0.10137
1660.04447	0.10477
1657.98486	0.10776
1655.92525	0.11104
1653.86564	0.11603
1651.80603	0.12068
1649.74642	0.12225
1647.68681	0.12435
1645.62721	0.12669
1643.56760	0.12751
1641.50799	0.12814
1639.44838	0.12923
1637.38877	0.13092
1635.32916	0.13243
1633.26955	0.13207
1631.20995	0.13126
1629.15034	0.13092
1627.09073	0.13065
1625.03112	0.13008
1622.97151	0.12869
1620.91190	0.12625
1618.85230	0.12375
1616.79269	0.12035
1614.73308	0.11536
1612.67347	0.11037
1610.61386	0.10529
1608.55425	0.09959
1606.49464	0.09360
1604.43504	0.08795
1602.37543	0.08294
1600.31582	0.07868
1598.25621	0.07522
1596.19660	0.07238
1594.13699	0.06962
1592.07738	0.06692
1590.01778	0.06461
1587.95817	0.06289
1585.89856	0.06184
1583.83895	0.06157
1581.77934	0.06198
1579.71973	0.06297
1577.66012	0.06477
1575.60052	0.06722
1573.54091	0.06898
1571.48130	0.07089
1569.42169	0.07400
1567.36208	0.07699
1565.30247	0.07977
1563.24287	0.08279
1561.18326	0.08620
1559.12365	0.09195
1557.06404	0.09649
1555.00443	0.09822
1552.94482	0.10025
1550.88521	0.10273
1548.82561	0.10532
1546.76600	0.10780
1544.70639	0.11069
1542.64678	0.11401
1540.58717	0.11732
1538.52756	0.11911
1536.46795	0.11947
1534.40835	0.12047
1532.34874	0.12200
1530.28913	0.12293
1528.22952	0.12395
1526.16991	0.12523
1524.11030	0.12630
1522.05069	0.12767
1519.99109	0.12898
1517.93148	0.12994
1515.87187	0.13065
1513.81226	0.13044
1511.75265	0.12964
1509.69304	0.12905
1507.63344	0.12758
1505.57383	0.12247
1503.51422	0.11719
1501.45461	0.11324
1499.39500	0.10940
1497.33539	0.10469
1495.27578	0.09927
1493.21618	0.09481
1491.15657	0.09106
1489.09696	0.08649
1487.03735	0.08124
1484.97774	0.07665
1482.91813	0.07305
1480.85852	0.07005
1478.79892	0.06768
1476.73931	0.06613
1474.67970	0.06526
1472.62009	0.06453
1470.56048	0.06335
1468.50087	0.06251
1466.44126	0.06261
1464.38166	0.06331
1462.32205	0.06410
1460.26244	0.06545
1458.20283	0.06790
1456.14322	0.07014
1454.08361	0.07064
1452.02401	0.07072
1449.96440	0.07085
1447.90479	0.07059
1445.84518	0.06950
1443.78557	0.06790
1441.72596	0.06615
1439.66635	0.06456
1437.60675	0.06312
1435.54714	0.06133
1433.48753	0.05966
1431.42792	0.05857
1429.36831	0.05792
1427.30870	0.05775
1425.24909	0.05824
1423.18949	0.05909
1421.12988	0.06015
1419.07027	0.06176
1417.01066	0.06310
1414.95105	0.06359
1412.89144	0.06393
1410.83183	0.06421
1408.77223	0.06407
1406.71262	0.06343
1404.65301	0.06231
1402.59340	0.06089
1400.53379	0.05973
1398.47418	0.05892
1396.41458	0.05831
1394.35497	0.05781
1392.29536	0.05748
1390.23575	0.05763
1388.17614	0.05824
1386.11653	0.05879
1384.05692	0.05909
1381.99732	0.05935
1379.93771	0.05947
1377.87810	0.05938
1375.81849	0.05917
1373.75888	0.05860
1371.69927	0.05748
1369.63966	0.05603
1367.58006	0.05444
1365.52045	0.05299
1363.46084	0.05172
1361.40123	0.05024
1359.34162	0.04871
1357.28201	0.04758
1355.22240	0.04699
1353.16280	0.04686
1351.10319	0.04706
1349.04358	0.04755
1346.98397	0.04841
1344.92436	0.04953
1342.86475	0.05080
1340.80515	0.05220
1338.74554	0.05336
1336.68593	0.05387
1334.62632	0.05389
1332.56671	0.05364
1330.50710	0.05315
1328.44749	0.05232
1326.38789	0.05119
1324.32828	0.05001
1322.26867	0.04901
1320.20906	0.04819
1318.14945	0.04753
1316.08984	0.04716
1314.03023	0.04708
1311.97063	0.04714
1309.91102	0.04724
1307.85141	0.04745
1305.79180	0.04778
1303.73219	0.04815
1301.67258	0.04856
1299.61297	0.04903
1297.55337	0.04952
1295.49376	0.04994
1293.43415	0.05027
1291.37454	0.05057
1289.31493	0.05093
1287.25532	0.05133
1285.19572	0.05163
1283.13611	0.05187
1281.07650	0.05236
1279.01689	0.05311
1276.95728	0.05397
1274.89767	0.05501
1272.83806	0.05618
1270.77846	0.05734
1268.71885	0.05846
1266.65924	0.05953
1264.59963	0.06055
1262.54002	0.06149
1260.48041	0.06235
1258.42080	0.06317
1256.36120	0.06408
1254.30159	0.06508
1252.24198	0.06615
1250.18237	0.06730
1248.12276	0.06850
1246.06315	0.06965
1244.00354	0.07076
1241.94394	0.07184
1239.88433	0.07284
1237.82472	0.07366
1235.76511	0.07414
1233.70550	0.07428
1231.64589	0.07416
1229.58629	0.07373
1227.52668	0.07288
1225.46707	0.07160
1223.40746	0.06981
1221.34785	0.06762
1219.28824	0.06520
1217.22863	0.06265
1215.16903	0.06009
1213.10942	0.05768
1211.04981	0.05535
1208.99020	0.05302
1206.93059	0.05080
1204.87098	0.04879
1202.81137	0.04693
1200.75177	0.04513
1198.69216	0.04351
1196.63255	0.04218
1194.57294	0.04116
1192.51333	0.04038
1190.45372	0.03976
1188.39411	0.03936
1186.33451	0.03924
1184.27490	0.03933
1182.21529	0.03957
1180.15568	0.04010
1178.09607	0.04104
1176.03646	0.04215
1173.97686	0.04308
1171.91725	0.04377
1169.85764	0.04411
1167.79803	0.04406
1165.73842	0.04382
1163.67881	0.04358
1161.61920	0.04324
1159.55960	0.04266
1157.49999	0.04192
1155.44038	0.04114
1153.38077	0.04034
1151.32116	0.03944
1149.26155	0.03846
1147.20194	0.03762
1145.14234	0.03686
1143.08273	0.03596
1141.02312	0.03506
1138.96351	0.03444
1136.90390	0.03411
1134.84429	0.03388
1132.78468	0.03368
1130.72508	0.03345
1128.66547	0.03316
1126.60586	0.03285
1124.54625	0.03267
1122.48664	0.03264
1120.42703	0.03271
1118.36743	0.03272
1116.30782	0.03261
1114.24821	0.03250
1112.18860	0.03258
1110.12899	0.03276
1108.06938	0.03287
1106.00977	0.03292
1103.95017	0.03290
1101.89056	0.03263
1099.83095	0.03205
1097.77134	0.03143
1095.71173	0.03104
1093.65212	0.03089
1091.59251	0.03100
1089.53291	0.03141
1087.47330	0.03205
1085.41369	0.03288
1083.35408	0.03388
1081.29447	0.03488
1079.23486	0.03583
1077.17525	0.03672
1075.11565	0.03755
1073.05604	0.03820
1070.99643	0.03854
1068.93682	0.03868
1066.87721	0.03880
1064.81760	0.03893
1062.75800	0.03903
1060.69839	0.03916
1058.63878	0.03934
1056.57917	0.03947
1054.51956	0.03938
1052.45995	0.03896
1050.40034	0.03823
1048.34074	0.03736
1046.28113	0.03659
1044.22152	0.03593
1042.16191	0.03525
1040.10230	0.03451
1038.04269	0.03387
1035.98308	0.03340
1033.92348	0.03305
1031.86387	0.03277
1029.80426	0.03256
1027.74465	0.03240
1025.68504	0.03222
1023.62543	0.03228
1021.56582	0.03284
1019.50622	0.03375
1017.44661	0.03474
1015.38700	0.03554
1013.32739	0.03570
1011.26778	0.03505
1009.20817	0.03385
1007.14857	0.03240
1005.08896	0.03095
1003.02935	0.02958
1000.96974	0.02828
998.91013	0.02711
996.85052	0.02610
994.79091	0.02523
992.73131	0.02445
990.67170	0.02365
988.61209	0.02293
986.55248	0.02240
984.49287	0.02204
982.43326	0.02186
980.37365	0.02183
978.31405	0.02180
976.25444	0.02174
974.19483	0.02170
972.13522	0.02160
970.07561	0.02152
968.01600	0.02158
965.95639	0.02174
963.89679	0.02199
961.83718	0.02229
959.77757	0.02247
957.71796	0.02253
955.65835	0.02265
953.59874	0.02287
951.53914	0.02307
949.47953	0.02321
947.41992	0.02319
945.36031	0.02299
943.30070	0.02274
941.24109	0.02246
939.18148	0.02215
937.12188	0.02191
935.06227	0.02174
933.00266	0.02155
930.94305	0.02132
928.88344	0.02105
926.82383	0.02077
924.76422	0.02049
922.70462	0.02028
920.64501	0.02011
918.58540	0.01986
916.52579	0.01957
914.46618	0.01932
912.40657	0.01912
910.34696	0.01894
908.28736	0.01870
906.22775	0.01848
904.16814	0.01839
902.10853	0.01837
900.04892	0.01833
897.98931	0.01831
895.92971	0.01821
893.87010	0.01799
891.81049	0.01786
889.75088	0.01788
887.69127	0.01794
885.63166	0.01800
883.57205	0.01808
881.51245	0.01811
879.45284	0.01806
877.39323	0.01807
875.33362	0.01826
873.27401	0.01845
871.21440	0.01852
869.15479	0.01864
867.09519	0.01893
865.03558	0.01929
862.97597	0.01956
860.91636	0.01987
858.85675	0.02045
856.79714	0.02113
854.73753	0.02161
852.67793	0.02183
850.61832	0.02191
848.55871	0.02190
846.49910	0.02193
844.43949	0.02203
842.37988	0.02209
840.32028	0.02222
838.26067	0.02262
836.20106	0.02311
834.14145	0.02348
832.08184	0.02373
830.02223	0.02392
827.96262	0.02398
825.90302	0.02383
823.84341	0.02365
821.78380	0.02362
819.72419	0.02371
817.66458	0.02385
815.60497	0.02396
813.54536	0.02407
811.48576	0.02426
809.42615	0.02446
807.36654	0.02466
805.30693	0.02496
803.24732	0.02515
801.18771	0.02513
799.12810	0.02515
797.06850	0.02530
795.00889	0.02536
792.94928	0.02533
790.88967	0.02547
788.83006	0.02581
786.77045	0.02603
784.71085	0.02617
782.65124	0.02647
780.59163	0.02685
778.53202	0.02709
776.47241	0.02724
774.41280	0.02736
772.35319	0.02754
770.29359	0.02785
768.23398	0.02826
766.17437	0.02857
764.11476	0.02865
762.05515	0.02875
759.99554	0.02906
757.93593	0.02947
755.87633	0.02984
753.81672	0.03009
751.75711	0.03030
749.69750	0.03074
747.63789	0.03137
745.57828	0.03183
743.51867	0.03209
741.45907	0.03239
739.39946	0.03273
737.33985	0.03307
735.28024	0.03346
733.22063	0.03387
731.16102	0.03433
729.10142	0.03476
727.04181	0.03505
724.98220	0.03531
722.92259	0.03564
720.86298	0.03601
718.80337	0.03637
716.74376	0.03670
714.68416	0.03695
712.62455	0.03719
710.56494	0.03753
708.50533	0.03794
706.44572	0.03837
704.38611	0.03873
702.32650	0.03901
700.26690	0.03929
698.20729	0.03958
696.14768	0.03982
694.08807	0.04004
692.02846	0.04038
689.96885	0.04079
687.90924	0.04109
685.84964	0.04118
683.79003	0.04122
681.73042	0.04138
679.67081	0.04163
677.61120	0.04197
675.55159	0.04238
673.49199	0.04261
671.43238	0.04260
669.37277	0.04267
667.31316	0.04286
665.25355	0.04285
663.19394	0.04295
661.13433	0.04322
659.07473	0.04335
657.01512	0.04341
654.95551	0.04360
652.89590	0.04381
650.83629	0.04392
648.77668	0.04397
646.71707	0.04398
644.65747	0.04404
642.59786	0.04411
640.53825	0.04409
638.47864	0.04411
636.41903	0.04418
634.35942	0.04415
632.29981	0.04403
630.24021	0.04405
628.18060	0.04416
626.12099	0.04419
624.06138	0.04415
622.00177	0.04397
619.94216	0.04375
617.88256	0.04378
615.82295	0.04403
613.76334	0.04408
611.70373	0.04397
609.64412	0.04392
607.58451	0.04394
605.52490	0.04400
603.46530	0.04402
601.40569	0.04393
599.34608	0.04391
597.28647	0.04412
595.22686	0.04426
593.16725	0.04413
591.10764	0.04407
589.04804	0.04431
586.98843	0.04460
584.92882	0.04480
582.86921	0.04495
580.80960	0.04500
578.74999	0.04500
576.69039	0.04514
574.63078	0.04534
572.57117	0.04539
570.51156	0.04556
568.45195	0.04597
566.39234	0.04622
564.33273	0.04639
562.27313	0.04677
560.21352	0.04709
558.15391	0.04725
556.09430	0.04747
554.03469	0.04782
551.97508	0.04816
549.91547	0.04835
547.85587	0.04858
545.79626	0.04891
543.73665	0.04907
541.67704	0.04907
539.61743	0.04905
537.55782	0.04897
535.49821	0.04885
533.43861	0.04878
531.37900	0.04874
529.31939	0.04867
527.25978	0.04859
525.20017	0.04841
523.14056	0.04812
521.08096	0.04804
519.02135	0.04810
516.96174	0.04807
514.90213	0.04796
512.84252	0.04772
510.78291	0.04754
508.72330	0.04757
506.66370	0.04760
504.60409	0.04745
502.54448	0.04723
500.48487	0.04698
498.42526	0.04685
496.36565	0.04680
494.30604	0.04668
492.24644	0.04666
490.18683	0.04666
488.12722	0.04646
486.06761	0.04646
484.00800	0.04675
481.94839	0.04668
479.88878	0.04624
477.82918	0.04575
475.76957	0.04541
473.70996	0.04536
471.65035	0.04537
469.59074	0.04500
467.53113	0.04450
465.47153	0.04431
463.41192	0.04427
461.35231	0.04422
459.29270	0.04423
457.23309	0.04387
455.17348	0.04312
453.11387	0.04282
451.05427	0.04296
448.99466	0.04295
446.93505	0.04273
444.87544	0.04263
442.81583	0.04265
440.75622	0.04258
438.69661	0.04250
436.63701	0.04249
434.57740	0.04239
432.51779	0.04199
430.45818	0.04145
428.39857	0.04115
426.33896	0.04148
424.27935	0.04206
422.21975	0.04213
420.16014	0.04206
418.10053	0.04187
416.04092	0.04125
413.98131	0.04083
411.92170	0.04061
409.86210	0.04029
407.80249	0.03998
405.74288	0.03974
403.68327	0.03955
401.62366	0.03950
399.56405	0.03952
