3997.70013	0.00736
3995.64052	0.00725
3993.58092	0.00699
3991.52131	0.00711
3989.46170	0.00718
3987.40209	0.00689
3985.34248	0.00650
3983.28287	0.00649
3981.22327	0.00697
3979.16366	0.00747
3977.10405	0.00767
3975.04444	0.00766
3972.98483	0.00792
3970.92522	0.00788
3968.86561	0.00698
3966.80601	0.00647
3964.74640	0.00665
3962.68679	0.00664
3960.62718	0.00648
3958.56757	0.00684
3956.50796	0.00775
3954.44835	0.00837
3952.38875	0.00846
3950.32914	0.00861
3948.26953	0.00839
3946.20992	0.00738
3944.15031	0.00709
3942.09070	0.00770
3940.03109	0.00786
3937.97149	0.00739
3935.91188	0.00694
3933.85227	0.00728
3931.79266	0.00816
3929.73305	0.00877
3927.67344	0.00934
3925.61384	0.00986
3923.55423	0.00964
3921.49462	0.00935
3919.43501	0.00956
3917.37540	0.00870
3915.31579	0.00715
3913.25618	0.00657
3911.19658	0.00666
3909.13697	0.00732
3907.07736	0.00864
3905.01775	0.01001
3902.95814	0.01079
3900.89853	0.01079
3898.83892	0.00970
3896.77932	0.00830
3894.71971	0.00860
3892.66010	0.01026
3890.60049	0.01049
3888.54088	0.00966
3886.48127	0.00943
3884.42166	0.00935
3882.36206	0.00980
3880.30245	0.01029
3878.24284	0.00944
3876.18323	0.00883
3874.12362	0.00950
3872.06401	0.01062
3870.00441	0.01095
3867.94480	0.01056
3865.88519	0.01094
3863.82558	0.01097
3861.76597	0.00940
3859.70636	0.00819
3857.64675	0.00848
3855.58715	0.01011
3853.52754	0.01251
3851.46793	0.01256
3849.40832	0.01027
3847.34871	0.00819
3845.28910	0.00797
3843.22949	0.00957
3841.16989	0.01146
3839.11028	0.01252
3837.05067	0.01211
3834.99106	0.01109
3832.93145	0.01003
3830.87184	0.00887
3828.81223	0.00852
3826.75263	0.00857
3824.69302	0.00826
3822.63341	0.00903
3820.57380	0.01057
3818.51419	0.01083
3816.45458	0.01051
3814.39498	0.00947
3812.33537	0.00778
3810.27576	0.00658
3808.21615	0.00695
3806.15654	0.00819
3804.09693	0.00963
3802.03732	0.01147
3799.97772	0.01131
3797.91811	0.00970
3795.85850	0.00836
3793.79889	0.00721
3791.73928	0.00657
3789.67967	0.00659
3787.62006	0.00696
3785.56046	0.00709
3783.50085	0.00663
3781.44124	0.00660
3779.38163	0.00719
3777.32202	0.00687
3775.26241	0.00632
3773.20280	0.00682
3771.14320	0.00813
3769.08359	0.00875
3767.02398	0.00833
3764.96437	0.00798
3762.90476	0.00807
3760.84515	0.00907
3758.78555	0.01005
3756.72594	0.00985
3754.66633	0.01014
3752.60672	0.01214
3750.54711	0.01424
3748.48750	0.01471
3746.42789	0.01550
3744.36829	0.01572
3742.30868	0.01352
3740.24907	0.01205
3738.18946	0.01276
3736.12985	0.01470
3734.07024	0.01504
3732.01063	0.01271
3729.95103	0.01054
3727.89142	0.01071
3725.83181	0.01200
3723.77220	0.01201
3721.71259	0.01090
3719.65298	0.00968
3717.59337	0.00887
3715.53377	0.00889
3713.47416	0.01032
3711.41455	0.01205
3709.35494	0.01106
3707.29533	0.00922
3705.23572	0.00909
3703.17612	0.00985
3701.11651	0.00979
3699.05690	0.00882
3696.99729	0.00826
3694.93768	0.00864
3692.87807	0.00985
3690.81846	0.01177
3688.75886	0.01269
3686.69925	0.01166
3684.63964	0.01078
3682.58003	0.01110
3680.52042	0.01283
3678.46081	0.01581
3676.40120	0.01904
3674.34160	0.01951
3672.28199	0.01870
3670.22238	0.01882
3668.16277	0.01740
3666.10316	0.01533
3664.04355	0.01460
3661.98394	0.01490
3659.92434	0.01605
3657.86473	0.01838
3655.80512	0.02104
3653.74551	0.02299
3651.68590	0.02544
3649.62629	0.02855
3647.56669	0.02929
3645.50708	0.02736
3643.44747	0.02587
3641.38786	0.02630
3639.32825	0.02753
3637.26864	0.02882
3635.20903	0.03055
3633.14943	0.03271
3631.08982	0.03574
3629.03021	0.03873
3626.97060	0.03832
3624.91099	0.03723
3622.85138	0.03823
3620.79177	0.04118
3618.73217	0.04438
3616.67256	0.04555
3614.61295	0.04573
3612.55334	0.04622
3610.49373	0.04741
3608.43412	0.04896
3606.37451	0.04968
3604.31491	0.05021
3602.25530	0.05177
3600.19569	0.05382
3598.13608	0.05577
3596.07647	0.05780
3594.01686	0.05915
3591.95726	0.05978
3589.89765	0.06147
3587.83804	0.06433
3585.77843	0.06526
3583.71882	0.06477
3581.65921	0.06545
3579.59960	0.06723
3577.54000	0.06949
3575.48039	0.07148
3573.42078	0.07253
3571.36117	0.07391
3569.30156	0.07746
3567.24195	0.08206
3565.18234	0.08337
3563.12274	0.08261
3561.06313	0.08338
3559.00352	0.08506
3556.94391	0.08620
3554.88430	0.08752
3552.82469	0.08926
3550.76508	0.09085
3548.70548	0.09306
3546.64587	0.09565
3544.58626	0.09708
3542.52665	0.09775
3540.46704	0.09894
3538.40743	0.10088
3536.34783	0.10280
3534.28822	0.10419
3532.22861	0.10568
3530.16900	0.10740
3528.10939	0.10897
3526.04978	0.11045
3523.99017	0.11188
3521.93057	0.11320
3519.87096	0.11422
3517.81135	0.11551
3515.75174	0.11737
3513.69213	0.11896
3511.63252	0.12017
3509.57291	0.12175
3507.51331	0.12335
3505.45370	0.12442
3503.39409	0.12563
3501.33448	0.12681
3499.27487	0.12730
3497.21526	0.12761
3495.15565	0.12841
3493.09605	0.12957
3491.03644	0.13070
3488.97683	0.13209
3486.91722	0.13344
3484.85761	0.13420
3482.79800	0.13509
3480.73840	0.13663
3478.67879	0.13783
3476.61918	0.13842
3474.55957	0.13897
3472.49996	0.13939
3470.44035	0.14020
3468.38074	0.14159
3466.32114	0.14249
3464.26153	0.14309
3462.20192	0.14414
3460.14231	0.14526
3458.08270	0.14640
3456.02309	0.14752
3453.96348	0.14806
3451.90388	0.14862
3449.84427	0.15007
3447.78466	0.15159
3445.72505	0.15226
3443.66544	0.15251
3441.60583	0.15302
3439.54622	0.15402
3437.48662	0.15530
3435.42701	0.15639
3433.36740	0.15752
3431.30779	0.15938
3429.24818	0.16163
3427.18857	0.16306
3425.12897	0.16354
3423.06936	0.16413
3421.00975	0.16549
3418.95014	0.16723
3416.89053	0.16876
3414.83092	0.17034
3412.77131	0.17221
3410.71171	0.17388
3408.65210	0.17507
3406.59249	0.17616
3404.53288	0.17779
3402.47327	0.17993
3400.41366	0.18199
3398.35405	0.18374
3396.29445	0.18517
3394.23484	0.18652
3392.17523	0.18823
3390.11562	0.19034
3388.05601	0.19234
3385.99640	0.19397
3383.93679	0.19555
3381.87719	0.19731
3379.81758	0.19907
3377.75797	0.20055
3375.69836	0.20221
3373.63875	0.20449
3371.57914	0.20692
3369.51954	0.20915
3367.45993	0.21137
3365.40032	0.21372
3363.34071	0.21601
3361.28110	0.21824
3359.22149	0.22042
3357.16188	0.22286
3355.10228	0.22615
3353.04267	0.22959
3350.98306	0.23230
3348.92345	0.23491
3346.86384	0.23787
3344.80423	0.24114
3342.74462	0.24482
3340.68502	0.24841
3338.62541	0.25190
3336.56580	0.25585
3334.50619	0.25973
3332.44658	0.26341
3330.38697	0.26779
3328.32736	0.27286
3326.26776	0.27768
3324.20815	0.28177
3322.14854	0.28602
3320.08893	0.29098
3318.02932	0.29576
3315.96971	0.30029
3313.91011	0.30510
3311.85050	0.31014
3309.79089	0.31537
3307.73128	0.32084
3305.67167	0.32688
3303.61206	0.33341
3301.55245	0.33974
3299.49285	0.34607
3297.43324	0.35257
3295.37363	0.35885
3293.31402	0.36472
3291.25441	0.37017
3289.19480	0.37526
3287.13519	0.37992
3285.07559	0.38397
3283.01598	0.38757
3280.95637	0.39093
3278.89676	0.39346
3276.83715	0.39435
3274.77754	0.39408
3272.71793	0.39333
3270.65833	0.39140
3268.59872	0.38808
3266.53911	0.38418
3264.47950	0.37973
3262.41989	0.37437
3260.36028	0.36850
3258.30068	0.36286
3256.24107	0.35761
3254.18146	0.35237
3252.12185	0.34724
3250.06224	0.34240
3248.00263	0.33744
3245.94302	0.33211
3243.88342	0.32669
3241.82381	0.32154
3239.76420	0.31700
3237.70459	0.31319
3235.64498	0.30970
3233.58537	0.30594
3231.52576	0.30174
3229.46616	0.29738
3227.40655	0.29299
3225.34694	0.28886
3223.28733	0.28551
3221.22772	0.28264
3219.16811	0.27943
3217.10850	0.27573
3215.04890	0.27173
3212.98929	0.26777
3210.92968	0.26428
3208.87007	0.26103
3206.81046	0.25772
3204.75085	0.25424
3202.69125	0.25047
3200.63164	0.24679
3198.57203	0.24327
3196.51242	0.23949
3194.45281	0.23551
3192.39320	0.23129
3190.33359	0.22693
3188.27399	0.22343
3186.21438	0.22058
3184.15477	0.21747
3182.09516	0.21408
3180.03555	0.21053
3177.97594	0.20692
3175.91633	0.20295
3173.85673	0.19874
3171.79712	0.19521
3169.73751	0.19226
3167.67790	0.18910
3165.61829	0.18581
3163.55868	0.18271
3161.49907	0.17976
3159.43947	0.17674
3157.37986	0.17378
3155.32025	0.17128
3153.26064	0.16911
3151.20103	0.16695
3149.14142	0.16475
3147.08182	0.16253
3145.02221	0.16027
3142.96260	0.15807
3140.90299	0.15627
3138.84338	0.15465
3136.78377	0.15293
3134.72416	0.15158
3132.66456	0.15077
3130.60495	0.14977
3128.54534	0.14850
3126.48573	0.14762
3124.42612	0.14702
3122.36651	0.14645
3120.30690	0.14620
3118.24730	0.14640
3116.18769	0.14663
3114.12808	0.14663
3112.06847	0.14685
3110.00886	0.14749
3107.94925	0.14812
3105.88965	0.14863
3103.83004	0.14939
3101.77043	0.15051
3099.71082	0.15178
3097.65121	0.15274
3095.59160	0.15341
3093.53199	0.15429
3091.47239	0.15532
3089.41278	0.15639
3087.35317	0.15755
3085.29356	0.15861
3083.23395	0.15935
3081.17434	0.15979
3079.11473	0.16010
3077.05513	0.16016
3074.99552	0.15979
3072.93591	0.15929
3070.87630	0.15906
3068.81669	0.15888
3066.75708	0.15813
3064.69747	0.15655
3062.63787	0.15482
3060.57826	0.15341
3058.51865	0.15180
3056.45904	0.14966
3054.39943	0.14732
3052.33982	0.14484
3050.28022	0.14197
3048.22061	0.13915
3046.16100	0.13682
3044.10139	0.13428
3042.04178	0.13130
3039.98217	0.12830
3037.92256	0.12549
3035.86296	0.12299
3033.80335	0.12054
3031.74374	0.11818
3029.68413	0.11607
3027.62452	0.11386
3025.56491	0.11158
3023.50530	0.10947
3021.44570	0.10754
3019.38609	0.10607
3017.32648	0.10497
3015.26687	0.10376
3013.20726	0.10234
3011.14765	0.10108
3009.08804	0.09999
3007.02844	0.09897
3004.96883	0.09832
3002.90922	0.09818
3000.84961	0.09852
2998.79000	0.09925
2996.73039	0.10021
2994.67079	0.10155
2992.61118	0.10311
2990.55157	0.10431
2988.49196	0.10531
2986.43235	0.10644
2984.37274	0.10768
2982.31313	0.10889
2980.25353	0.10960
2978.19392	0.10952
2976.13431	0.10918
2974.07470	0.10888
2972.01509	0.10832
2969.95548	0.10753
2967.89587	0.10663
2965.83627	0.10552
2963.77666	0.10441
2961.71705	0.10331
2959.65744	0.10217
2957.59783	0.10121
2955.53822	0.10042
2953.47861	0.10013
2951.41901	0.10092
2949.35940	0.10243
2947.29979	0.10419
2945.24018	0.10644
2943.18057	0.10882
2941.12096	0.11064
2939.06136	0.11194
2937.00175	0.11268
2934.94214	0.11276
2932.88253	0.11217
2930.82292	0.11074
2928.76331	0.10846
2926.70370	0.10549
2924.64410	0.10215
2922.58449	0.09886
2920.52488	0.09615
2918.46527	0.09393
2916.40566	0.09158
2914.34605	0.08908
2912.28644	0.08654
2910.22684	0.08402
2908.16723	0.08180
2906.10762	0.08013
2904.04801	0.07875
2901.98840	0.07729
2899.92879	0.07606
2897.86918	0.07528
2895.80958	0.07444
2893.74997	0.07338
2891.69036	0.07246
2889.63075	0.07190
2887.57114	0.07181
2885.51153	0.07201
2883.45193	0.07223
2881.39232	0.07253
2879.33271	0.07283
2877.27310	0.07278
2875.21349	0.07220
2873.15388	0.07095
2871.09427	0.06905
2869.03467	0.06683
2866.97506	0.06479
2864.91545	0.06313
2862.85584	0.06161
2860.79623	0.06031
2858.73662	0.05943
2856.67701	0.05863
2854.61741	0.05767
2852.55780	0.05665
2850.49819	0.05563
2848.43858	0.05462
2846.37897	0.05364
2844.31936	0.05276
2842.25975	0.05206
2840.20015	0.05154
2838.14054	0.05131
2836.08093	0.05119
2834.02132	0.05081
2831.96171	0.05046
2829.90210	0.05042
2827.84250	0.05053
2825.78289	0.05058
2823.72328	0.05031
2821.66367	0.04961
2819.60406	0.04868
2817.54445	0.04802
2815.48484	0.04791
2813.42524	0.04798
2811.36563	0.04796
2809.30602	0.04766
2807.24641	0.04683
2805.18680	0.04588
2803.12719	0.04511
2801.06758	0.04450
2799.00798	0.04410
2796.94837	0.04379
2794.88876	0.04344
2792.82915	0.04301
2790.76954	0.04264
2788.70993	0.04243
2786.65032	0.04199
2784.59072	0.04106
2782.53111	0.04003
2780.47150	0.03946
2778.41189	0.03939
2776.35228	0.03936
2774.29267	0.03905
2772.23307	0.03831
2770.17346	0.03720
2768.11385	0.03642
2766.05424	0.03625
2763.99463	0.03593
2761.93502	0.03515
2759.87541	0.03441
2757.81581	0.03394
2755.75620	0.03359
2753.69659	0.03328
2751.63698	0.03292
2749.57737	0.03249
2747.51776	0.03209
2745.45815	0.03169
2743.39855	0.03121
2741.33894	0.03075
2739.27933	0.03037
2737.21972	0.02991
2735.16011	0.02949
2733.10050	0.02940
2731.04089	0.02936
2728.98129	0.02896
2726.92168	0.02831
2724.86207	0.02765
2722.80246	0.02719
2720.74285	0.02710
2718.68324	0.02719
2716.62364	0.02706
2714.56403	0.02666
2712.50442	0.02627
2710.44481	0.02600
2708.38520	0.02578
2706.32559	0.02555
2704.26598	0.02536
2702.20638	0.02519
2700.14677	0.02485
2698.08716	0.02440
2696.02755	0.02424
2693.96794	0.02435
2691.90833	0.02420
2689.84872	0.02389
2687.78912	0.02374
2685.72951	0.02364
2683.66990	0.02363
2681.61029	0.02373
2679.55068	0.02350
2677.49107	0.02291
2675.43146	0.02252
2673.37186	0.02252
2671.31225	0.02250
2669.25264	0.02226
2667.19303	0.02206
2665.13342	0.02193
2663.07381	0.02178
2661.01421	0.02175
2658.95460	0.02186
2656.89499	0.02199
2654.83538	0.02214
2652.77577	0.02214
2650.71616	0.02190
2648.65655	0.02170
2646.59695	0.02159
2644.53734	0.02143
2642.47773	0.02127
2640.41812	0.02130
2638.35851	0.02146
2636.29890	0.02149
2634.23929	0.02146
2632.17969	0.02152
2630.12008	0.02138
2628.06047	0.02094
2626.00086	0.02062
2623.94125	0.02055
2621.88164	0.02056
2619.82203	0.02058
2617.76243	0.02044
2615.70282	0.02005
2613.64321	0.01976
2611.58360	0.01961
2609.52399	0.01939
2607.46438	0.01918
2605.40478	0.01898
2603.34517	0.01884
2601.28556	0.01885
2599.22595	0.01876
2597.16634	0.01850
2595.10673	0.01808
2593.04712	0.01772
2590.98752	0.01760
2588.92791	0.01731
2586.86830	0.01694
2584.80869	0.01679
2582.74908	0.01646
2580.68947	0.01595
2578.62986	0.01591
2576.57026	0.01621
2574.51065	0.01626
2572.45104	0.01609
2570.39143	0.01583
2568.33182	0.01554
2566.27221	0.01537
2564.21260	0.01544
2562.15300	0.01531
2560.09339	0.01484
2558.03378	0.01464
2555.97417	0.01470
2553.91456	0.01469
2551.85495	0.01457
2549.79535	0.01440
2547.73574	0.01414
2545.67613	0.01385
2543.61652	0.01397
2541.55691	0.01447
2539.49730	0.01478
2537.43769	0.01482
2535.37809	0.01468
2533.31848	0.01420
2531.25887	0.01356
2529.19926	0.01316
2527.13965	0.01305
2525.08004	0.01317
2523.02043	0.01346
2520.96083	0.01350
2518.90122	0.01309
2516.84161	0.01289
2514.78200	0.01329
2512.72239	0.01370
2510.66278	0.01341
2508.60317	0.01282
2506.54357	0.01272
2504.48396	0.01300
2502.42435	0.01317
2500.36474	0.01315
2498.30513	0.01310
2496.24552	0.01324
2494.18592	0.01364
2492.12631	0.01391
2490.06670	0.01365
2488.00709	0.01313
2485.94748	0.01285
2483.88787	0.01294
2481.82826	0.01294
2479.76866	0.01269
2477.70905	0.01250
2475.64944	0.01236
2473.58983	0.01238
2471.53022	0.01272
2469.47061	0.01284
2467.41100	0.01255
2465.35140	0.01236
2463.29179	0.01255
2461.23218	0.01266
2459.17257	0.01229
2457.11296	0.01202
2455.05335	0.01216
2452.99374	0.01205
2450.93414	0.01173
2448.87453	0.01170
2446.81492	0.01183
2444.75531	0.01188
2442.69570	0.01189
2440.63609	0.01178
2438.57649	0.01153
2436.51688	0.01135
2434.45727	0.01130
2432.39766	0.01132
2430.33805	0.01116
2428.27844	0.01069
2426.21883	0.01043
2424.15923	0.01062
2422.09962	0.01076
2420.04001	0.01061
2417.98040	0.01065
2415.92079	0.01101
2413.86118	0.01107
2411.80157	0.01072
2409.74197	0.01059
2407.68236	0.01090
2405.62275	0.01100
2403.56314	0.01065
2401.50353	0.01036
2399.44392	0.01023
2397.38431	0.01013
2395.32471	0.01012
2393.26510	0.01018
2391.20549	0.01021
2389.14588	0.01027
2387.08627	0.01034
2385.02666	0.01037
2382.96706	0.01066
2380.90745	0.01095
2378.84784	0.01071
2376.78823	0.01022
2374.72862	0.01008
2372.66901	0.01015
2370.60940	0.00997
2368.54980	0.00963
2366.49019	0.00966
2364.43058	0.00978
2362.37097	0.00978
2360.31136	0.01004
2358.25175	0.01017
2356.19214	0.00979
2354.13254	0.00993
2352.07293	0.01090
2350.01332	0.01155
2347.95371	0.01186
2345.89410	0.01236
2343.83449	0.01237
2341.77488	0.01160
2339.71528	0.01120
2337.65567	0.01129
2335.59606	0.01142
2333.53645	0.01167
2331.47684	0.01172
2329.41723	0.01156
2327.35763	0.01204
2325.29802	0.01307
2323.23841	0.01342
2321.17880	0.01274
2319.11919	0.01189
2317.05958	0.01157
2314.99997	0.01180
2312.94037	0.01194
2310.88076	0.01150
2308.82115	0.01106
2306.76154	0.01103
2304.70193	0.01101
2302.64232	0.01100
2300.58271	0.01089
2298.52311	0.01060
2296.46350	0.01071
2294.40389	0.01110
2292.34428	0.01134
2290.28467	0.01162
2288.22506	0.01183
2286.16545	0.01161
2284.10585	0.01115
2282.04624	0.01080
2279.98663	0.01061
2277.92702	0.01060
2275.86741	0.01081
2273.80780	0.01115
2271.74820	0.01123
2269.68859	0.01096
2267.62898	0.01068
2265.56937	0.01039
2263.50976	0.00966
2261.45015	0.00868
2259.39054	0.00858
2257.33094	0.00924
2255.27133	0.00932
2253.21172	0.00904
2251.15211	0.00912
2249.09250	0.00921
2247.03289	0.00954
2244.97328	0.01030
2242.91368	0.01034
2240.85407	0.00981
2238.79446	0.00973
2236.73485	0.00986
2234.67524	0.01004
2232.61563	0.01027
2230.55602	0.01033
2228.49642	0.01050
2226.43681	0.01045
2224.37720	0.00947
2222.31759	0.00834
2220.25798	0.00819
2218.19837	0.00857
2216.13877	0.00876
2214.07916	0.00892
2212.01955	0.00952
2209.95994	0.01016
2207.90033	0.00995
2205.84072	0.00908
2203.78111	0.00851
2201.72151	0.00832
2199.66190	0.00823
2197.60229	0.00826
2195.54268	0.00771
2193.48307	0.00699
2191.42346	0.00757
2189.36385	0.00872
2187.30425	0.00874
2185.24464	0.00835
2183.18503	0.00863
2181.12542	0.00930
2179.06581	0.01013
2177.00620	0.00990
2174.94659	0.00833
2172.88699	0.00748
2170.82738	0.00847
2168.76777	0.00998
2166.70816	0.01009
2164.64855	0.00888
2162.58894	0.00761
2160.52934	0.00623
2158.46973	0.00507
2156.41012	0.00551
2154.35051	0.00594
2152.29090	0.00517
2150.23129	0.00522
2148.17168	0.00662
2146.11208	0.00758
2144.05247	0.00747
2141.99286	0.00752
2139.93325	0.00845
2137.87364	0.00893
2135.81403	0.00804
2133.75442	0.00730
2131.69482	0.00804
2129.63521	0.00900
2127.57560	0.00881
2125.51599	0.00821
2123.45638	0.00846
2121.39677	0.00951
2119.33716	0.01051
2117.27756	0.01101
2115.21795	0.01095
2113.15834	0.01060
2111.09873	0.01038
2109.03912	0.01062
2106.97951	0.01107
2104.91991	0.01102
2102.86030	0.01062
2100.80069	0.01058
2098.74108	0.01096
2096.68147	0.01074
2094.62186	0.00994
2092.56225	0.00980
2090.50265	0.01007
2088.44304	0.00996
2086.38343	0.00982
2084.32382	0.00961
2082.26421	0.00944
2080.20460	0.00986
2078.14499	0.01004
2076.08539	0.00950
2074.02578	0.00896
2071.96617	0.00905
2069.90656	0.00988
2067.84695	0.01059
2065.78734	0.01017
2063.72773	0.00909
2061.66813	0.00845
2059.60852	0.00826
2057.54891	0.00818
2055.48930	0.00819
2053.42969	0.00812
2051.37008	0.00828
2049.31048	0.00912
2047.25087	0.00996
2045.19126	0.00989
2043.13165	0.00927
2041.07204	0.00889
2039.01243	0.00857
2036.95282	0.00737
2034.89322	0.00603
2032.83361	0.00636
2030.77400	0.00749
2028.71439	0.00731
2026.65478	0.00652
2024.59517	0.00654
2022.53556	0.00628
2020.47596	0.00484
2018.41635	0.00388
2016.35674	0.00442
2014.29713	0.00557
2012.23752	0.00684
2010.17791	0.00775
2008.11830	0.00779
2006.05870	0.00731
2003.99909	0.00677
2001.93948	0.00645
1999.87987	0.00677
1997.82026	0.00752
1995.76065	0.00828
1993.70105	0.00913
1991.64144	0.00960
1989.58183	0.00854
1987.52222	0.00706
1985.46261	0.00689
1983.40300	0.00703
1981.34339	0.00653
1979.28379	0.00608
1977.22418	0.00588
1975.16457	0.00536
1973.10496	0.00518
1971.04535	0.00606
1968.98574	0.00743
1966.92613	0.00823
1964.86653	0.00804
1962.80692	0.00731
1960.74731	0.00640
1958.68770	0.00585
1956.62809	0.00586
1954.56848	0.00610
1952.50887	0.00633
1950.44927	0.00649
1948.38966	0.00660
1946.33005	0.00663
1944.27044	0.00698
1942.21083	0.00745
1940.15122	0.00747
1938.09162	0.00732
1936.03201	0.00736
1933.97240	0.00736
1931.91279	0.00711
1929.85318	0.00680
1927.79357	0.00677
1925.73396	0.00746
1923.67436	0.00844
1921.61475	0.00874
1919.55514	0.00860
1917.49553	0.00848
1915.43592	0.00825
1913.37631	0.00800
1911.31670	0.00779
1909.25710	0.00749
1907.19749	0.00728
1905.13788	0.00722
1903.07827	0.00721
1901.01866	0.00746
1898.95905	0.00801
1896.89944	0.00847
1894.83984	0.00846
1892.78023	0.00818
1890.72062	0.00818
1888.66101	0.00816
1886.60140	0.00810
1884.54179	0.00844
1882.48219	0.00881
1880.42258	0.00889
1878.36297	0.00890
1876.30336	0.00877
1874.24375	0.00828
1872.18414	0.00827
1870.12453	0.00931
1868.06493	0.00996
1866.00532	0.00936
1863.94571	0.00878
1861.88610	0.00860
1859.82649	0.00838
1857.76688	0.00811
1855.70727	0.00812
1853.64767	0.00845
1851.58806	0.00868
1849.52845	0.00879
1847.46884	0.00914
1845.40923	0.00969
1843.34962	0.00968
1841.29002	0.00908
1839.23041	0.00885
1837.17080	0.00902
1835.11119	0.00896
1833.05158	0.00901
1830.99197	0.00968
1828.93236	0.01032
1826.87276	0.01047
1824.81315	0.01018
1822.75354	0.00963
1820.69393	0.00933
1818.63432	0.00934
1816.57471	0.00931
1814.51510	0.00944
1812.45550	0.00998
1810.39589	0.01037
1808.33628	0.01035
1806.27667	0.01051
1804.21706	0.01116
1802.15745	0.01175
1800.09784	0.01180
1798.03824	0.01173
1795.97863	0.01205
1793.91902	0.01267
1791.85941	0.01311
1789.79980	0.01268
1787.74019	0.01219
1785.68059	0.01236
1783.62098	0.01275
1781.56137	0.01303
1779.50176	0.01311
1777.44215	0.01312
1775.38254	0.01364
1773.32293	0.01472
1771.26333	0.01534
1769.20372	0.01518
1767.14411	0.01474
1765.08450	0.01456
1763.02489	0.01508
1760.96528	0.01569
1758.90567	0.01593
1756.84607	0.01614
1754.78646	0.01642
1752.72685	0.01727
1750.66724	0.01877
1748.60763	0.01965
1746.54802	0.01978
1744.48841	0.02007
1742.42881	0.02071
1740.36920	0.02119
1738.30959	0.02149
1736.24998	0.02241
1734.19037	0.02401
1732.13076	0.02465
1730.07116	0.02442
1728.01155	0.02446
1725.95194	0.02504
1723.89233	0.02617
1721.83272	0.02759
1719.77311	0.02990
1717.71350	0.03345
1715.65390	0.03631
1713.59429	0.03821
1711.53468	0.04130
1709.47507	0.04662
1707.41546	0.05492
1705.35585	0.06694
1703.29624	0.07921
1701.23664	0.09147
1699.17703	0.10349
1697.11742	0.11026
1695.05781	0.11504
1692.99820	0.11979
1690.93859	0.12554
1688.87898	0.13299
1686.81938	0.14072
1684.75977	0.15126
1682.70016	0.16293
1680.64055	0.17064
1678.58094	0.17798
1676.52133	0.18732
1674.46173	0.19888
1672.40212	0.20952
1670.34251	0.22051
1668.28290	0.23257
1666.22329	0.24200
1664.16368	0.25160
1662.10407	0.26358
1660.04447	0.27467
1657.98486	0.28411
1655.92525	0.29324
1653.86564	0.30564
1651.80603	0.31885
1649.74642	0.32480
1647.68681	0.33043
1645.62721	0.33687
1643.56760	0.34071
1641.50799	0.34394
1639.44838	0.34784
1637.38877	0.35289
1635.32916	0.35958
1633.26955	0.36489
1631.20995	0.36967
1629.15034	0.37698
1627.09073	0.38652
1625.03112	0.39636
1622.97151	0.40574
1620.91190	0.41099
1618.85230	0.41062
1616.79269	0.40314
1614.73308	0.38858
1612.67347	0.37202
1610.61386	0.35246
1608.55425	0.32882
1606.49464	0.30352
1604.43504	0.27914
1602.37543	0.25661
1600.31582	0.23696
1598.25621	0.22087
1596.19660	0.20738
1594.13699	0.19494
1592.07738	0.18365
1590.01778	0.17408
1587.95817	0.16661
1585.89856	0.16164
1583.83895	0.15923
1581.77934	0.15890
1579.71973	0.16028
1577.66012	0.16391
1575.60052	0.16996
1573.54091	0.17546
1571.48130	0.18122
1569.42169	0.19023
1567.36208	0.19977
1565.30247	0.20856
1563.24287	0.21738
1561.18326	0.22638
1559.12365	0.24112
1557.06404	0.25559
1555.00443	0.26338
1552.94482	0.27151
1550.88521	0.28052
1548.82561	0.28964
1546.76600	0.29808
1544.70639	0.30697
1542.64678	0.31700
1540.58717	0.32838
1538.52756	0.33807
1536.46795	0.34298
1534.40835	0.34839
1532.34874	0.35573
1530.28913	0.36147
1528.22952	0.36643
1526.16991	0.37179
1524.11030	0.37629
1522.05069	0.38063
1519.99109	0.38514
1517.93148	0.38971
1515.87187	0.39432
1513.81226	0.39605
1511.75265	0.39416
1509.69304	0.39034
1507.63344	0.38186
1505.57383	0.36542
1503.51422	0.35127
1501.45461	0.33920
1499.39500	0.32536
1497.33539	0.30824
1495.27578	0.29018
1493.21618	0.27550
1491.15657	0.26153
1489.09696	0.24467
1487.03735	0.22832
1484.97774	0.21517
1482.91813	0.20425
1480.85852	0.19454
1478.79892	0.18659
1476.73931	0.18062
1474.67970	0.17614
1472.62009	0.17248
1470.56048	0.16936
1468.50087	0.16770
1466.44126	0.16766
1464.38166	0.16899
1462.32205	0.17111
1460.26244	0.17448
1458.20283	0.18076
1456.14322	0.18898
1454.08361	0.19416
1452.02401	0.19781
1449.96440	0.20116
1447.90479	0.20295
1445.84518	0.20218
1443.78557	0.19956
1441.72596	0.19613
1439.66635	0.19239
1437.60675	0.18737
1435.54714	0.18024
1433.48753	0.17373
1431.42792	0.16842
1429.36831	0.16382
1427.30870	0.16091
1425.24909	0.16010
1423.18949	0.16087
1421.12988	0.16278
1419.07027	0.16626
1417.01066	0.16984
1414.95105	0.17220
1412.89144	0.17422
1410.83183	0.17573
1408.77223	0.17591
1406.71262	0.17448
1404.65301	0.17136
1402.59340	0.16730
1400.53379	0.16339
1398.47418	0.15986
1396.41458	0.15719
1394.35497	0.15559
1392.29536	0.15497
1390.23575	0.15522
1388.17614	0.15608
1386.11653	0.15692
1384.05692	0.15728
1381.99732	0.15734
1379.93771	0.15713
1377.87810	0.15668
1375.81849	0.15598
1373.75888	0.15454
1371.69927	0.15225
1369.63966	0.14945
1367.58006	0.14593
1365.52045	0.14190
1363.46084	0.13748
1361.40123	0.13267
1359.34162	0.12839
1357.28201	0.12525
1355.22240	0.12324
1353.16280	0.12236
1351.10319	0.12263
1349.04358	0.12388
1346.98397	0.12581
1344.92436	0.12831
1342.86475	0.13133
1340.80515	0.13465
1338.74554	0.13771
1336.68593	0.13966
1334.62632	0.14028
1332.56671	0.13971
1330.50710	0.13803
1328.44749	0.13535
1326.38789	0.13203
1324.32828	0.12861
1322.26867	0.12558
1320.20906	0.12319
1318.14945	0.12147
1316.08984	0.12045
1314.03023	0.12002
1311.97063	0.11997
1309.91102	0.12016
1307.85141	0.12057
1305.79180	0.12115
1303.73219	0.12180
1301.67258	0.12244
1299.61297	0.12310
1297.55337	0.12380
1295.49376	0.12454
1293.43415	0.12538
1291.37454	0.12632
1289.31493	0.12729
1287.25532	0.12831
1285.19572	0.12940
1283.13611	0.13071
1281.07650	0.13250
1279.01689	0.13484
1276.95728	0.13782
1274.89767	0.14154
1272.83806	0.14586
1270.77846	0.15034
1268.71885	0.15464
1266.65924	0.15865
1264.59963	0.16212
1262.54002	0.16477
1260.48041	0.16675
1258.42080	0.16853
1256.36120	0.17051
1254.30159	0.17276
1252.24198	0.17539
1250.18237	0.17851
1248.12276	0.18201
1246.06315	0.18570
1244.00354	0.18949
1241.94394	0.19334
1239.88433	0.19705
1237.82472	0.20043
1235.76511	0.20327
1233.70550	0.20526
1231.64589	0.20599
1229.58629	0.20524
1227.52668	0.20294
1225.46707	0.19917
1223.40746	0.19409
1221.34785	0.18802
1219.28824	0.18121
1217.22863	0.17385
1215.16903	0.16614
1213.10942	0.15822
1211.04981	0.15037
1208.99020	0.14288
1206.93059	0.13587
1204.87098	0.12943
1202.81137	0.12350
1200.75177	0.11795
1198.69216	0.11290
1196.63255	0.10867
1194.57294	0.10538
1192.51333	0.10290
1190.45372	0.10097
1188.39411	0.09943
1186.33451	0.09844
1184.27490	0.09821
1182.21529	0.09881
1180.15568	0.10044
1178.09607	0.10323
1176.03646	0.10680
1173.97686	0.11032
1171.91725	0.11299
1169.85764	0.11449
1167.79803	0.11509
1165.73842	0.11510
1163.67881	0.11455
1161.61920	0.11338
1159.55960	0.11161
1157.49999	0.10930
1155.44038	0.10659
1153.38077	0.10361
1151.32116	0.10041
1149.26155	0.09716
1147.20194	0.09411
1145.14234	0.09123
1143.08273	0.08853
1141.02312	0.08619
1138.96351	0.08428
1136.90390	0.08279
1134.84429	0.08167
1132.78468	0.08084
1130.72508	0.08014
1128.66547	0.07942
1126.60586	0.07878
1124.54625	0.07836
1122.48664	0.07823
1120.42703	0.07821
1118.36743	0.07808
1116.30782	0.07785
1114.24821	0.07768
1112.18860	0.07764
1110.12899	0.07781
1108.06938	0.07826
1106.00977	0.07876
1103.95017	0.07888
1101.89056	0.07832
1099.83095	0.07718
1097.77134	0.07589
1095.71173	0.07493
1093.65212	0.07458
1091.59251	0.07503
1089.53291	0.07635
1087.47330	0.07843
1085.41369	0.08118
1083.35408	0.08444
1081.29447	0.08787
1079.23486	0.09112
1077.17525	0.09407
1075.11565	0.09675
1073.05604	0.09898
1070.99643	0.10049
1068.93682	0.10128
1066.87721	0.10168
1064.81760	0.10192
1062.75800	0.10204
1060.69839	0.10222
1058.63878	0.10242
1056.57917	0.10224
1054.51956	0.10140
1052.45995	0.09992
1050.40034	0.09798
1048.34074	0.09587
1046.28113	0.09381
1044.22152	0.09176
1042.16191	0.08963
1040.10230	0.08756
1038.04269	0.08566
1035.98308	0.08404
1033.92348	0.08278
1031.86387	0.08169
1029.80426	0.08061
1027.74465	0.07958
1025.68504	0.07870
1023.62543	0.07841
1021.56582	0.07925
1019.50622	0.08119
1017.44661	0.08355
1015.38700	0.08529
1013.32739	0.08545
1011.26778	0.08392
1009.20817	0.08136
1007.14857	0.07862
1005.08896	0.07624
1003.02935	0.07426
1000.96974	0.07245
998.91013	0.07072
996.85052	0.06892
994.79091	0.06678
992.73131	0.06419
990.67170	0.06137
988.61209	0.05885
986.55248	0.05707
984.49287	0.05621
982.43326	0.05615
980.37365	0.05660
978.31405	0.05717
976.25444	0.05750
974.19483	0.05733
972.13522	0.05662
970.07561	0.05566
968.01600	0.05479
965.95639	0.05418
963.89679	0.05397
961.83718	0.05401
959.77757	0.05404
957.71796	0.05410
955.65835	0.05429
953.59874	0.05453
951.53914	0.05465
949.47953	0.05460
947.41992	0.05443
945.36031	0.05404
943.30070	0.05351
941.24109	0.05298
939.18148	0.05245
937.12188	0.05192
935.06227	0.05149
933.00266	0.05115
930.94305	0.05087
928.88344	0.05046
926.82383	0.04975
924.76422	0.04883
922.70462	0.04791
920.64501	0.04704
918.58540	0.04621
916.52579	0.04537
914.46618	0.04460
912.40657	0.04393
910.34696	0.04334
908.28736	0.04285
906.22775	0.04255
904.16814	0.04231
902.10853	0.04208
900.04892	0.04195
897.98931	0.04186
895.92971	0.04174
893.87010	0.04162
891.81049	0.04151
889.75088	0.04144
887.69127	0.04140
885.63166	0.04139
883.57205	0.04150
881.51245	0.04174
879.45284	0.04189
877.39323	0.04184
875.33362	0.04190
873.27401	0.04221
871.21440	0.04254
869.15479	0.04292
867.09519	0.04349
865.03558	0.04423
862.97597	0.04514
860.91636	0.04631
858.85675	0.04768
856.79714	0.04911
854.73753	0.05045
852.67793	0.05141
850.61832	0.05174
848.55871	0.05152
846.49910	0.05126
844.43949	0.05133
842.37988	0.05167
840.32028	0.05229
838.26067	0.05329
836.20106	0.05452
834.14145	0.05574
832.08184	0.05670
830.02223	0.05730
827.96262	0.05757
825.90302	0.05755
823.84341	0.05739
821.78380	0.05726
819.72419	0.05717
817.66458	0.05724
815.60497	0.05756
813.54536	0.05807
811.48576	0.05864
809.42615	0.05921
807.36654	0.05977
805.30693	0.06030
803.24732	0.06060
801.18771	0.06058
799.12810	0.06057
797.06850	0.06082
795.00889	0.06117
792.94928	0.06156
790.88967	0.06215
788.83006	0.06301
786.77045	0.06396
784.71085	0.06481
782.65124	0.06558
780.59163	0.06631
778.53202	0.06715
776.47241	0.06802
774.41280	0.06886
772.35319	0.06979
770.29359	0.07087
768.23398	0.07193
766.17437	0.07282
764.11476	0.07353
762.05515	0.07426
759.99554	0.07518
757.93593	0.07618
755.87633	0.07711
753.81672	0.07801
751.75711	0.07913
749.69750	0.08055
747.63789	0.08208
745.57828	0.08349
743.51867	0.08494
741.45907	0.08649
739.39946	0.08791
737.33985	0.08926
735.28024	0.09074
733.22063	0.09225
731.16102	0.09381
729.10142	0.09543
727.04181	0.09682
724.98220	0.09798
722.92259	0.09923
720.86298	0.10061
718.80337	0.10194
716.74376	0.10305
714.68416	0.10404
712.62455	0.10525
710.56494	0.10673
708.50533	0.10823
706.44572	0.10971
704.38611	0.11122
702.32650	0.11265
700.26690	0.11380
698.20729	0.11477
696.14768	0.11566
694.08807	0.11647
692.02846	0.11719
689.96885	0.11784
687.90924	0.11853
685.84964	0.11911
683.79003	0.11942
681.73042	0.11984
679.67081	0.12045
677.61120	0.12087
675.55159	0.12106
673.49199	0.12115
671.43238	0.12121
669.37277	0.12156
667.31316	0.12225
665.25355	0.12246
663.19394	0.12261
661.13433	0.12314
659.07473	0.12364
657.01512	0.12394
654.95551	0.12438
652.89590	0.12497
650.83629	0.12539
648.77668	0.12560
646.71707	0.12574
644.65747	0.12587
642.59786	0.12602
640.53825	0.12625
638.47864	0.12646
636.41903	0.12654
634.35942	0.12647
632.29981	0.12637
630.24021	0.12649
628.18060	0.12670
626.12099	0.12680
624.06138	0.12680
622.00177	0.12661
619.94216	0.12634
617.88256	0.12630
615.82295	0.12649
613.76334	0.12679
611.70373	0.12701
609.64412	0.12693
607.58451	0.12656
605.52490	0.12614
603.46530	0.12584
601.40569	0.12556
599.34608	0.12510
597.28647	0.12446
595.22686	0.12387
593.16725	0.12347
591.10764	0.12321
589.04804	0.12310
586.98843	0.12311
584.92882	0.12323
582.86921	0.12352
580.80960	0.12386
578.74999	0.12417
576.69039	0.12459
574.63078	0.12484
572.57117	0.12479
570.51156	0.12521
568.45195	0.12625
566.39234	0.12728
564.33273	0.12846
562.27313	0.13001
560.21352	0.13143
558.15391	0.13273
556.09430	0.13419
554.03469	0.13556
551.97508	0.13664
549.91547	0.13754
547.85587	0.13826
545.79626	0.13866
543.73665	0.13848
541.67704	0.13790
539.61743	0.13720
537.55782	0.13641
535.49821	0.13575
533.43861	0.13532
531.37900	0.13490
529.31939	0.13441
527.25978	0.13382
525.20017	0.13292
523.14056	0.13206
521.08096	0.13176
519.02135	0.13161
516.96174	0.13123
514.90213	0.13076
512.84252	0.13011
510.78291	0.12931
508.72330	0.12877
506.66370	0.12843
504.60409	0.12803
502.54448	0.12753
500.48487	0.12698
498.42526	0.12650
496.36565	0.12610
494.30604	0.12560
492.24644	0.12509
490.18683	0.12491
488.12722	0.12484
486.06761	0.12446
484.00800	0.12371
481.94839	0.12287
479.88878	0.12227
477.82918	0.12167
475.76957	0.12081
473.70996	0.11971
471.65035	0.11849
469.59074	0.11756
467.53113	0.11702
465.47153	0.11665
463.41192	0.11601
461.35231	0.11508
459.29270	0.11425
457.23309	0.11338
455.17348	0.11260
453.11387	0.11234
451.05427	0.11227
448.99466	0.11196
446.93505	0.11158
444.87544	0.11124
442.81583	0.11087
440.75622	0.11023
438.69661	0.10918
436.63701	0.10817
434.57740	0.10772
432.51779	0.10769
430.45818	0.10775
428.39857	0.10807
426.33896	0.10855
424.27935	0.10882
422.21975	0.10896
420.16014	0.10914
418.10053	0.10841
416.04092	0.10696
413.98131	0.10596
411.92170	0.10553
409.86210	0.10530
407.80249	0.10454
405.74288	0.10340
403.68327	0.10229
401.62366	0.10102
399.56405	0.10031
