% Filename : SB2_00042_00013.h5
% Date & Time : 30-Oct-2025 18:00:18
% X-ray Energy (keV) : 13.30001
% Exposure Time (s) : 0.500
% Beam Center : 1461.24000, 208.98300
% Sample to Detector Distance (SDD) (mm) : 1990.750
% Detector Pixel Size (mm) : 0.075
% Photodiode Value : 137154.000
% I0 of Sample : 0
% I0 of Standard : 1
% 
% q(A^-1)   I(q)    I(q)_SE
0.00000000e+00	1.58071319e-02	8.93411453e-03
2.50000000e-04	0.00000000e+00	0.00000000e+00
5.00000000e-04	0.00000000e+00	0.00000000e+00
7.50000000e-04	0.00000000e+00	0.00000000e+00
1.00000000e-03	0.00000000e+00	0.00000000e+00
1.25000000e-03	0.00000000e+00	0.00000000e+00
1.50000000e-03	0.00000000e+00	0.00000000e+00
1.75000000e-03	0.00000000e+00	0.00000000e+00
2.00000000e-03	0.00000000e+00	0.00000000e+00
2.25000000e-03	0.00000000e+00	0.00000000e+00
2.50000000e-03	0.00000000e+00	0.00000000e+00
2.75000000e-03	0.00000000e+00	0.00000000e+00
3.00000000e-03	0.00000000e+00	0.00000000e+00
3.25000000e-03	0.00000000e+00	0.00000000e+00
3.50000000e-03	3.49810580e+03	1.07772779e+03
3.75000000e-03	2.56066347e+03	5.87678409e+02
4.00000000e-03	2.12338019e+03	4.61501914e+02
4.25000000e-03	1.87916732e+03	3.46017714e+02
4.50000000e-03	1.71881074e+03	2.68904879e+02
4.75000000e-03	1.52013656e+03	2.07310090e+02
5.00000000e-03	1.20023734e+03	1.55244086e+02
5.25000000e-03	9.90567915e+02	1.26769815e+02
5.50000000e-03	8.32896114e+02	1.02397905e+02
5.75000000e-03	7.07828243e+02	8.38562671e+01
6.00000000e-03	5.79125837e+02	6.67034606e+01
6.25000000e-03	5.07287856e+02	5.80886975e+01
6.50000000e-03	4.25591694e+02	4.74068365e+01
6.75000000e-03	3.72104375e+02	4.05819341e+01
7.00000000e-03	3.25392718e+02	3.41077325e+01
7.25000000e-03	2.82326776e+02	2.89693194e+01
7.50000000e-03	2.45820870e+02	2.52833061e+01
7.75000000e-03	2.15027519e+02	2.16098497e+01
8.00000000e-03	1.97175259e+02	1.93700900e+01
8.25000000e-03	1.72328829e+02	1.63611857e+01
8.50000000e-03	1.52910537e+02	1.42957774e+01
8.75000000e-03	1.37592452e+02	1.26941198e+01
9.00000000e-03	1.23384218e+02	1.12352110e+01
9.25000000e-03	1.10893531e+02	9.79145526e+00
9.50000000e-03	1.00019253e+02	8.63861262e+00
9.75000000e-03	9.01678421e+01	7.72372409e+00
1.00000000e-02	8.04854849e+01	6.78859343e+00
1.02500000e-02	7.45402853e+01	6.32465085e+00
1.05000000e-02	6.84934320e+01	5.54974365e+00
1.07500000e-02	6.22858257e+01	5.04267828e+00
1.10000000e-02	5.67649189e+01	4.48094720e+00
1.12500000e-02	5.29386543e+01	4.26280001e+00
1.15000000e-02	4.81539969e+01	3.76083861e+00
1.17500000e-02	4.35902838e+01	3.31712129e+00
1.20000000e-02	4.13469469e+01	3.12351476e+00
1.22500000e-02	3.80408528e+01	2.83277920e+00
1.25000000e-02	3.56229638e+01	2.63541297e+00
1.27500000e-02	3.31230281e+01	2.42408736e+00
1.30000000e-02	3.11387559e+01	2.24105861e+00
1.32500000e-02	2.83330791e+01	1.98851897e+00
1.35000000e-02	2.63868545e+01	1.84836928e+00
1.37500000e-02	2.47760114e+01	1.72810618e+00
1.40000000e-02	2.29286595e+01	1.57958215e+00
1.42500000e-02	2.15959249e+01	1.45453490e+00
1.45000000e-02	2.03353297e+01	1.36738988e+00
1.47500000e-02	1.89624587e+01	1.26327364e+00
1.50000000e-02	1.79088784e+01	1.18493603e+00
1.52500000e-02	1.67335288e+01	1.09444311e+00
1.55000000e-02	1.57784045e+01	1.01049061e+00
1.57500000e-02	1.48133261e+01	9.46371833e-01
1.60000000e-02	1.39837755e+01	8.78463333e-01
1.62500000e-02	1.33358303e+01	8.46330345e-01
1.65000000e-02	1.23751693e+01	7.69237698e-01
1.67500000e-02	1.19791371e+01	7.31276561e-01
1.70000000e-02	1.11639900e+01	6.81382250e-01
1.72500000e-02	1.06501413e+01	6.45720406e-01
1.75000000e-02	1.00814593e+01	6.09815351e-01
1.77500000e-02	9.50581405e+00	5.63689322e-01
1.80000000e-02	9.13513462e+00	5.41038388e-01
1.82500000e-02	8.57984366e+00	4.93821360e-01
1.85000000e-02	8.18170518e+00	4.83465572e-01
1.87500000e-02	7.82476818e+00	4.51951452e-01
1.90000000e-02	7.42090033e+00	4.26811602e-01
1.92500000e-02	7.13271745e+00	4.03880872e-01
1.95000000e-02	6.74417092e+00	3.79966598e-01
1.97500000e-02	6.47766617e+00	3.66557578e-01
2.00000000e-02	6.13318280e+00	3.42564313e-01
2.02500000e-02	5.86648099e+00	3.26024260e-01
2.05000000e-02	5.63361494e+00	3.05606569e-01
2.07500000e-02	5.40311419e+00	2.93422549e-01
2.10000000e-02	5.17788396e+00	2.82779123e-01
2.12500000e-02	5.10284580e+00	2.77577088e-01
2.15000000e-02	4.85150596e+00	2.61935312e-01
2.17500000e-02	4.73397239e+00	2.54617168e-01
2.20000000e-02	4.55589937e+00	2.46661017e-01
2.22500000e-02	4.36746647e+00	2.34732352e-01
2.25000000e-02	4.26247891e+00	2.30115297e-01
2.27500000e-02	4.06033623e+00	2.17170080e-01
2.30000000e-02	4.01090670e+00	2.15531627e-01
2.32500000e-02	3.80046214e+00	2.02256536e-01
2.35000000e-02	3.70507895e+00	1.98929665e-01
2.37500000e-02	3.56681969e+00	1.88912050e-01
2.40000000e-02	3.43911180e+00	1.84229745e-01
2.42500000e-02	3.35807660e+00	1.77486425e-01
2.45000000e-02	3.23352781e+00	1.71790553e-01
2.47500000e-02	3.11017768e+00	1.62932173e-01
2.50000000e-02	3.01466491e+00	1.58500779e-01
2.52500000e-02	2.92353262e+00	1.54459265e-01
2.55000000e-02	2.83704774e+00	1.45375647e-01
2.57500000e-02	2.75021195e+00	1.43129601e-01
2.60000000e-02	2.63141328e+00	1.35517672e-01
2.62500000e-02	2.58155811e+00	1.34559625e-01
2.65000000e-02	2.47068954e+00	1.27067671e-01
2.67500000e-02	2.41596872e+00	1.22727989e-01
2.70000000e-02	2.32095119e+00	1.18684942e-01
2.72500000e-02	2.26046728e+00	1.14701222e-01
2.75000000e-02	2.16605835e+00	1.11323290e-01
2.77500000e-02	2.11836000e+00	1.08998891e-01
2.80000000e-02	2.04436958e+00	1.01960832e-01
2.82500000e-02	1.98075883e+00	9.91245150e-02
2.85000000e-02	1.93978880e+00	9.72653518e-02
2.87500000e-02	1.88451456e+00	9.49909311e-02
2.90000000e-02	1.83582766e+00	9.24831220e-02
2.92500000e-02	1.77641248e+00	8.66650660e-02
2.95000000e-02	1.72543684e+00	8.58045458e-02
2.97500000e-02	1.67072306e+00	8.23661594e-02
3.00000000e-02	1.63195940e+00	8.08885033e-02
3.02500000e-02	1.57984244e+00	7.81402403e-02
3.05000000e-02	1.52896648e+00	7.37138882e-02
3.07500000e-02	1.49519191e+00	7.30582935e-02
3.10000000e-02	1.46162617e+00	7.11756004e-02
3.12500000e-02	1.41012405e+00	6.95397898e-02
3.15000000e-02	1.35460883e+00	6.57864253e-02
3.17500000e-02	1.33834201e+00	6.36916227e-02
3.20000000e-02	1.30532236e+00	6.32156687e-02
3.22500000e-02	1.27385077e+00	6.17417112e-02
3.25000000e-02	1.23343228e+00	5.94966152e-02
3.27500000e-02	1.19871360e+00	5.72324723e-02
3.30000000e-02	1.16573630e+00	5.49719410e-02
3.32500000e-02	1.13174132e+00	5.37069290e-02
3.35000000e-02	1.11969684e+00	5.35869777e-02
3.37500000e-02	1.07905152e+00	5.10440499e-02
3.40000000e-02	1.05232172e+00	4.97931154e-02
3.42500000e-02	1.02623477e+00	4.77301796e-02
3.45000000e-02	1.00042256e+00	4.72258238e-02
3.47500000e-02	9.83710299e-01	4.60386343e-02
3.50000000e-02	9.49109789e-01	4.44360257e-02
3.52500000e-02	9.28504939e-01	4.33501995e-02
3.55000000e-02	9.00370963e-01	4.13380236e-02
3.57500000e-02	8.86663870e-01	4.12127177e-02
3.60000000e-02	8.63693855e-01	4.00348789e-02
3.62500000e-02	8.45863606e-01	3.93123271e-02
3.65000000e-02	8.16156985e-01	3.76386693e-02
3.67500000e-02	8.03258803e-01	3.67413088e-02
3.70000000e-02	7.86277904e-01	3.59764587e-02
3.72500000e-02	7.63126303e-01	3.48535428e-02
3.75000000e-02	7.49527645e-01	3.44172578e-02
3.77500000e-02	7.27675444e-01	3.31508409e-02
3.80000000e-02	7.13916904e-01	3.23077763e-02
3.82500000e-02	6.95537910e-01	3.11946598e-02
3.85000000e-02	6.83665809e-01	3.09890803e-02
3.87500000e-02	6.64100442e-01	2.97225481e-02
3.90000000e-02	6.51147048e-01	2.95288063e-02
3.92500000e-02	6.37822347e-01	2.82810389e-02
3.95000000e-02	6.25383275e-01	2.79784081e-02
3.97500000e-02	6.10014444e-01	2.73096562e-02
4.00000000e-02	6.01042918e-01	2.67664514e-02
4.02500000e-02	5.91939747e-01	2.62553404e-02
4.05000000e-02	5.72499544e-01	2.50933073e-02
4.07500000e-02	5.60535651e-01	2.45692567e-02
4.10000000e-02	5.47052712e-01	2.41744727e-02
4.12500000e-02	5.35487193e-01	2.35394918e-02
4.15000000e-02	5.27297145e-01	2.29199671e-02
4.17500000e-02	5.20840730e-01	2.26502347e-02
4.20000000e-02	5.02405945e-01	2.17093862e-02
4.22500000e-02	4.96322090e-01	2.15259105e-02
4.25000000e-02	4.89941603e-01	2.11681953e-02
4.27500000e-02	4.77031338e-01	2.05109166e-02
4.30000000e-02	4.67119322e-01	1.99860813e-02
4.32500000e-02	4.57079536e-01	1.95229435e-02
4.35000000e-02	4.49220288e-01	1.93914948e-02
4.37500000e-02	4.38548848e-01	1.85775044e-02
4.40000000e-02	4.35450411e-01	1.85787144e-02
4.42500000e-02	4.23220522e-01	1.80191845e-02
4.45000000e-02	4.17230693e-01	1.75779091e-02
4.47500000e-02	4.06976715e-01	1.71687836e-02
4.50000000e-02	4.04379870e-01	1.71067283e-02
4.52500000e-02	3.97272054e-01	1.66321613e-02
4.55000000e-02	3.87913875e-01	1.62359501e-02
4.57500000e-02	3.80556496e-01	1.58425005e-02
4.60000000e-02	3.74191074e-01	1.55992089e-02
4.62500000e-02	3.66454441e-01	1.52717149e-02
4.65000000e-02	3.58447015e-01	1.48293338e-02
4.67500000e-02	3.55294176e-01	1.45794966e-02
4.70000000e-02	3.48373819e-01	1.43002359e-02
4.72500000e-02	3.42896910e-01	1.41180415e-02
4.75000000e-02	3.38356028e-01	1.39786547e-02
4.77500000e-02	3.30308004e-01	1.33903681e-02
4.80000000e-02	3.24109863e-01	1.31661449e-02
4.82500000e-02	3.15722289e-01	1.28329502e-02
4.85000000e-02	3.12329195e-01	1.27643100e-02
4.87500000e-02	3.10305006e-01	1.25782680e-02
4.90000000e-02	3.08360261e-01	1.24246444e-02
4.92500000e-02	2.97226280e-01	1.19053429e-02
4.95000000e-02	2.91476316e-01	1.16821419e-02
4.97500000e-02	2.89740301e-01	1.17462410e-02
5.00000000e-02	2.81487324e-01	1.12814497e-02
5.02500000e-02	2.80694759e-01	1.10934164e-02
5.05000000e-02	2.77620990e-01	1.10069870e-02
5.07500000e-02	2.71331769e-01	1.08298931e-02
5.10000000e-02	2.68683772e-01	1.06553263e-02
5.12500000e-02	2.62269899e-01	1.04119833e-02
5.15000000e-02	2.56494892e-01	1.00577872e-02
5.17500000e-02	2.52706252e-01	9.96900636e-03
5.20000000e-02	2.50667776e-01	9.81241918e-03
5.22500000e-02	2.49688362e-01	9.88804249e-03
5.25000000e-02	2.42656800e-01	9.47084573e-03
5.27500000e-02	2.38723626e-01	9.26669424e-03
5.30000000e-02	2.37736365e-01	9.31457920e-03
5.32500000e-02	2.34148443e-01	9.05101803e-03
5.35000000e-02	2.28830531e-01	8.84819224e-03
5.37500000e-02	2.25331629e-01	8.68819566e-03
5.40000000e-02	2.22809298e-01	8.59550449e-03
5.42500000e-02	2.19293694e-01	8.44713334e-03
5.45000000e-02	2.16814087e-01	8.31085195e-03
5.47500000e-02	2.16000284e-01	8.17118215e-03
5.50000000e-02	2.11075112e-01	8.07098082e-03
5.52500000e-02	2.05957686e-01	7.81837430e-03
5.55000000e-02	2.05454871e-01	7.79559105e-03
5.57500000e-02	2.02052174e-01	7.72653224e-03
5.60000000e-02	2.02250654e-01	7.61845552e-03
5.62500000e-02	1.95566099e-01	7.41210267e-03
5.65000000e-02	1.94073018e-01	7.31113860e-03
5.67500000e-02	1.91282408e-01	7.25402151e-03
5.70000000e-02	1.87696754e-01	7.02653324e-03
5.72500000e-02	1.86735407e-01	7.00803083e-03
5.75000000e-02	1.85243584e-01	6.96576256e-03
5.77500000e-02	1.83451387e-01	6.78575987e-03
5.80000000e-02	1.79568230e-01	6.69784984e-03
5.82500000e-02	1.77837141e-01	6.61898526e-03
5.85000000e-02	1.75447561e-01	6.49788531e-03
5.87500000e-02	1.75234225e-01	6.44595423e-03
5.90000000e-02	1.71273586e-01	6.31486441e-03
5.92500000e-02	1.69972272e-01	6.25937370e-03
5.95000000e-02	1.66057414e-01	6.08345409e-03
5.97500000e-02	1.65304561e-01	6.11046633e-03
6.00000000e-02	1.64326054e-01	6.02215881e-03
6.02500000e-02	1.61520096e-01	5.88157703e-03
6.05000000e-02	1.58351308e-01	5.79106213e-03
6.07500000e-02	1.56311709e-01	5.69465789e-03
6.10000000e-02	1.54523786e-01	5.61135041e-03
6.12500000e-02	1.54922601e-01	5.60602827e-03
6.15000000e-02	1.51307533e-01	5.46148970e-03
6.17500000e-02	1.49191007e-01	5.37688278e-03
6.20000000e-02	1.48339566e-01	5.35318726e-03
6.22500000e-02	1.48006778e-01	5.31299706e-03
6.25000000e-02	1.46170233e-01	5.25274196e-03
6.27500000e-02	1.43841365e-01	5.11328367e-03
6.30000000e-02	1.42200535e-01	5.05445124e-03
6.32500000e-02	1.39673185e-01	4.97242281e-03
6.35000000e-02	1.39127300e-01	4.96495800e-03
6.37500000e-02	1.38627234e-01	4.95474796e-03
6.40000000e-02	1.36409026e-01	4.82896744e-03
6.42500000e-02	1.34259810e-01	4.71676859e-03
6.45000000e-02	1.32948074e-01	4.67529120e-03
6.47500000e-02	1.33735466e-01	4.70322591e-03
6.50000000e-02	1.30351235e-01	4.59297758e-03
6.52500000e-02	1.29193190e-01	4.51013967e-03
6.55000000e-02	1.26499135e-01	4.42790651e-03
6.57500000e-02	1.28622244e-01	4.50156078e-03
6.60000000e-02	1.25242251e-01	4.36607416e-03
6.62500000e-02	1.22776225e-01	4.28939215e-03
6.65000000e-02	1.23104970e-01	4.26027142e-03
6.67500000e-02	1.20126393e-01	4.14773873e-03
6.70000000e-02	1.20278675e-01	4.17997593e-03
6.72500000e-02	1.19588885e-01	4.13341108e-03
6.75000000e-02	1.18409769e-01	4.06194455e-03
6.77500000e-02	1.17270324e-01	4.04504204e-03
6.80000000e-02	1.15049088e-01	3.95938794e-03
6.82500000e-02	1.14981343e-01	3.94224122e-03
6.85000000e-02	1.14809898e-01	3.98423600e-03
6.87500000e-02	1.11602073e-01	3.79547740e-03
6.90000000e-02	1.13146912e-01	3.85609430e-03
6.92500000e-02	1.10026683e-01	3.74599751e-03
6.95000000e-02	1.09610144e-01	3.74334497e-03
6.97500000e-02	1.08478131e-01	3.67627002e-03
7.00000000e-02	1.08380796e-01	3.66712152e-03
7.02500000e-02	1.07176730e-01	3.60723802e-03
7.05000000e-02	1.05540830e-01	3.57001997e-03
7.07500000e-02	1.05721534e-01	3.58938873e-03
7.10000000e-02	1.04559103e-01	3.51519042e-03
7.12500000e-02	1.02884853e-01	3.45016954e-03
7.15000000e-02	1.03745779e-01	3.48194750e-03
7.17500000e-02	1.02582709e-01	3.43793317e-03
7.20000000e-02	1.01197190e-01	3.40171327e-03
7.22500000e-02	9.99902740e-02	3.34146321e-03
7.25000000e-02	1.00255748e-01	3.34382625e-03
7.27500000e-02	9.71719048e-02	3.24401100e-03
7.30000000e-02	9.93588830e-02	3.30837743e-03
7.32500000e-02	9.59028711e-02	3.16595350e-03
7.35000000e-02	9.58283550e-02	3.17530256e-03
7.37500000e-02	9.60007511e-02	3.17295488e-03
7.40000000e-02	9.53682302e-02	3.14572624e-03
7.42500000e-02	9.41939344e-02	3.11277047e-03
7.45000000e-02	9.36210490e-02	3.07345393e-03
7.47500000e-02	9.31380493e-02	3.04406518e-03
7.50000000e-02	9.17307032e-02	3.01205514e-03
7.52500000e-02	9.31376734e-02	3.05780556e-03
7.55000000e-02	9.16577560e-02	2.99214681e-03
7.57500000e-02	9.10794745e-02	2.95522077e-03
7.60000000e-02	8.91889613e-02	2.90803781e-03
7.62500000e-02	8.84379064e-02	2.86640072e-03
7.65000000e-02	8.80160353e-02	2.85139838e-03
7.67500000e-02	8.66159045e-02	2.80896072e-03
7.70000000e-02	8.81454403e-02	2.84506757e-03
7.72500000e-02	8.80147313e-02	2.88420614e-03
7.75000000e-02	8.78405245e-02	2.90834783e-03
7.77500000e-02	8.66053354e-02	2.88085849e-03
7.80000000e-02	8.67209695e-02	2.89446638e-03
7.82500000e-02	8.73097567e-02	2.94735316e-03
7.85000000e-02	8.49589375e-02	2.86352687e-03
7.87500000e-02	8.57821650e-02	2.88349957e-03
7.90000000e-02	8.45515009e-02	2.86362996e-03
7.92500000e-02	8.50102334e-02	2.88351895e-03
7.95000000e-02	8.43695208e-02	2.87208966e-03
7.97500000e-02	8.46289031e-02	2.89273327e-03
8.00000000e-02	8.43283009e-02	2.88267912e-03
8.02500000e-02	8.47135729e-02	2.89730637e-03
8.05000000e-02	8.43214148e-02	2.87388425e-03
8.07500000e-02	8.40252589e-02	2.89244959e-03
8.10000000e-02	8.31202194e-02	2.85424634e-03
8.12500000e-02	8.20631536e-02	2.82993481e-03
8.15000000e-02	8.22354142e-02	2.81679409e-03
8.17500000e-02	8.29762342e-02	2.86858802e-03
8.20000000e-02	8.16657681e-02	2.82593056e-03
8.22500000e-02	8.12217646e-02	2.81174677e-03
8.25000000e-02	8.15087291e-02	2.83233835e-03
8.27500000e-02	8.07140311e-02	2.77444946e-03
8.30000000e-02	8.11453491e-02	2.81464325e-03
8.32500000e-02	7.97206147e-02	2.78084240e-03
8.35000000e-02	7.95759502e-02	2.79910502e-03
8.37500000e-02	7.86026638e-02	2.71535689e-03
8.40000000e-02	8.01081009e-02	2.79086798e-03
8.42500000e-02	7.73454596e-02	2.70173014e-03
8.45000000e-02	7.87322610e-02	2.75809213e-03
8.47500000e-02	7.84508111e-02	2.75476984e-03
8.50000000e-02	7.70887850e-02	2.69576419e-03
8.52500000e-02	7.73101585e-02	2.72574475e-03
8.55000000e-02	7.69772896e-02	2.68443934e-03
8.57500000e-02	7.58897641e-02	2.66326148e-03
8.60000000e-02	7.64600584e-02	2.69693770e-03
8.62500000e-02	7.68871514e-02	2.69282357e-03
8.65000000e-02	7.50073722e-02	2.62345023e-03
8.67500000e-02	7.53360333e-02	2.63004131e-03
8.70000000e-02	7.32098112e-02	2.53663981e-03
8.72500000e-02	7.27912673e-02	2.47301783e-03
8.75000000e-02	7.12656971e-02	2.39800182e-03
8.77500000e-02	7.24636695e-02	2.42139184e-03
8.80000000e-02	7.01460078e-02	2.36048257e-03
8.82500000e-02	6.95297566e-02	2.31363940e-03
8.85000000e-02	7.09490393e-02	2.35802183e-03
8.87500000e-02	6.96330091e-02	2.27235898e-03
8.90000000e-02	6.92751895e-02	2.28161393e-03
8.92500000e-02	6.82613657e-02	2.23807712e-03
8.95000000e-02	6.77229468e-02	2.22544355e-03
8.97500000e-02	6.88214054e-02	2.23623033e-03
9.00000000e-02	6.72090208e-02	2.17406734e-03
9.02500000e-02	6.67218858e-02	2.16520162e-03
9.05000000e-02	6.68264344e-02	2.16871894e-03
9.07500000e-02	6.57037097e-02	2.12851644e-03
9.10000000e-02	6.63247179e-02	2.13471576e-03
9.12500000e-02	6.56800352e-02	2.09824977e-03
9.15000000e-02	6.65072591e-02	2.12480212e-03
9.17500000e-02	6.50299884e-02	2.07764997e-03
9.20000000e-02	6.39866744e-02	2.04213771e-03
9.22500000e-02	6.51662200e-02	2.06910533e-03
9.25000000e-02	6.50694299e-02	2.05208069e-03
9.27500000e-02	6.37637980e-02	2.02427504e-03
9.30000000e-02	6.36961344e-02	2.01742408e-03
9.32500000e-02	6.39022402e-02	2.01674174e-03
9.35000000e-02	6.40299603e-02	2.00714915e-03
9.37500000e-02	6.32528148e-02	1.97967038e-03
9.40000000e-02	6.26280504e-02	1.96805987e-03
9.42500000e-02	6.26931488e-02	1.96010268e-03
9.45000000e-02	6.18582953e-02	1.92279908e-03
9.47500000e-02	6.22887606e-02	1.93588832e-03
9.50000000e-02	6.24010199e-02	1.93870861e-03
9.52500000e-02	6.17396435e-02	1.91905629e-03
9.55000000e-02	6.11049971e-02	1.88462718e-03
9.57500000e-02	6.09560341e-02	1.89276408e-03
9.60000000e-02	6.12625214e-02	1.89476833e-03
9.62500000e-02	6.15076950e-02	1.89377065e-03
9.65000000e-02	6.03303768e-02	1.86013795e-03
9.67500000e-02	6.01993533e-02	1.84762446e-03
9.70000000e-02	5.93283861e-02	1.81940666e-03
9.72500000e-02	6.05475604e-02	1.84805877e-03
9.75000000e-02	5.91142419e-02	1.81587369e-03
9.77500000e-02	5.95788027e-02	1.80641689e-03
9.80000000e-02	5.92168123e-02	1.79527324e-03
9.82500000e-02	6.00364116e-02	1.82549018e-03
9.85000000e-02	5.78482525e-02	1.75827430e-03
9.87500000e-02	5.88844535e-02	1.77605740e-03
9.90000000e-02	5.84699200e-02	1.76927160e-03
9.92500000e-02	5.82539087e-02	1.76160090e-03
9.95000000e-02	5.84058261e-02	1.76496899e-03
9.97500000e-02	5.75777692e-02	1.73967117e-03
1.00000000e-01	5.73418342e-02	1.41409811e-03
1.00500000e-01	5.79021822e-02	1.23541710e-03
1.01000000e-01	5.73497070e-02	1.21120217e-03
1.01500000e-01	5.68877436e-02	1.20390705e-03
1.02000000e-01	5.72501997e-02	1.20496158e-03
1.02500000e-01	5.61508796e-02	1.17444991e-03
1.03000000e-01	5.63617664e-02	1.18386282e-03
1.03500000e-01	5.58886259e-02	1.16793816e-03
1.04000000e-01	5.63039362e-02	1.16979380e-03
1.04500000e-01	5.57357237e-02	1.16207165e-03
1.05000000e-01	5.53038591e-02	1.14541802e-03
1.05500000e-01	5.49692834e-02	1.13776210e-03
1.06000000e-01	5.54802098e-02	1.14695474e-03
1.06500000e-01	5.53439806e-02	1.14127215e-03
1.07000000e-01	5.49205695e-02	1.14929887e-03
1.07500000e-01	5.36539000e-02	1.13849430e-03
1.08000000e-01	5.30327347e-02	1.13641200e-03
1.08500000e-01	5.22261809e-02	1.12307795e-03
1.09000000e-01	5.15135251e-02	1.11535893e-03
1.09500000e-01	5.19770524e-02	1.13494186e-03
1.10000000e-01	5.25700106e-02	1.13257039e-03
1.10500000e-01	5.35089822e-02	1.13037446e-03
1.11000000e-01	5.35778604e-02	1.11932264e-03
1.11500000e-01	5.44324156e-02	1.13313953e-03
1.12000000e-01	5.56008996e-02	1.14158772e-03
1.12500000e-01	5.52629322e-02	1.13418431e-03
1.13000000e-01	5.54206443e-02	1.13464290e-03
1.13500000e-01	5.57272445e-02	1.13473315e-03
1.14000000e-01	5.66606611e-02	1.15503688e-03
1.14500000e-01	5.64835921e-02	1.14757960e-03
1.15000000e-01	5.69676383e-02	1.15107919e-03
1.15500000e-01	5.80005829e-02	1.17471643e-03
1.16000000e-01	5.81904797e-02	1.17035662e-03
1.16500000e-01	5.88123624e-02	1.18470231e-03
1.17000000e-01	5.91540049e-02	1.19413510e-03
1.17500000e-01	6.02698003e-02	1.21099067e-03
1.18000000e-01	6.13010024e-02	1.23569464e-03
1.18500000e-01	6.25238238e-02	1.25422021e-03
1.19000000e-01	6.21798973e-02	1.24923388e-03
1.19500000e-01	6.44451869e-02	1.29100088e-03
1.20000000e-01	6.46624806e-02	1.29091575e-03
1.20500000e-01	6.63628944e-02	1.32903977e-03
1.21000000e-01	6.75312101e-02	1.35623667e-03
1.21500000e-01	6.93021641e-02	1.38647545e-03
1.22000000e-01	7.00303135e-02	1.39890530e-03
1.22500000e-01	7.23451240e-02	1.44475456e-03
1.23000000e-01	7.47174930e-02	1.49096225e-03
1.23500000e-01	7.67300402e-02	1.53005509e-03
1.24000000e-01	7.95363337e-02	1.58600643e-03
1.24500000e-01	8.16308638e-02	1.62814303e-03
1.25000000e-01	8.35779447e-02	1.67365663e-03
1.25500000e-01	8.57939601e-02	1.71686003e-03
1.26000000e-01	8.86420829e-02	1.77450561e-03
1.26500000e-01	8.94656236e-02	1.79431182e-03
1.27000000e-01	9.22527595e-02	1.84985479e-03
1.27500000e-01	9.39858039e-02	1.88857849e-03
1.28000000e-01	9.62558134e-02	1.93991741e-03
1.28500000e-01	9.73682126e-02	1.95129083e-03
1.29000000e-01	9.90022964e-02	1.98701942e-03
1.29500000e-01	1.00066691e-01	2.00713018e-03
1.30000000e-01	1.00606993e-01	2.01142484e-03
1.30500000e-01	1.00093159e-01	2.00467574e-03
1.31000000e-01	1.01291306e-01	2.01826016e-03
1.31500000e-01	9.89560269e-02	1.97091421e-03
1.32000000e-01	9.88513892e-02	1.95987821e-03
1.32500000e-01	9.68573728e-02	1.90956922e-03
1.33000000e-01	9.45430931e-02	1.85630591e-03
1.33500000e-01	9.15086414e-02	1.78017919e-03
1.34000000e-01	8.89123070e-02	1.72712014e-03
1.34500000e-01	8.59561158e-02	1.65242307e-03
1.35000000e-01	8.21732592e-02	1.57108382e-03
1.35500000e-01	8.02709664e-02	1.53166018e-03
1.36000000e-01	7.74150010e-02	1.46477277e-03
1.36500000e-01	7.49139238e-02	1.41637142e-03
1.37000000e-01	7.16609353e-02	1.34019389e-03
1.37500000e-01	6.92140990e-02	1.28929367e-03
1.38000000e-01	6.63597956e-02	1.23789741e-03
1.38500000e-01	6.41269761e-02	1.18862933e-03
1.39000000e-01	6.10133905e-02	1.13300819e-03
1.39500000e-01	5.94763575e-02	1.09547740e-03
1.40000000e-01	5.69435360e-02	1.05220284e-03
1.40500000e-01	5.51626628e-02	1.01396389e-03
1.41000000e-01	5.28733960e-02	9.62429863e-04
1.41500000e-01	5.06854782e-02	9.22226982e-04
1.42000000e-01	4.89812109e-02	8.84881097e-04
1.42500000e-01	4.80348559e-02	8.70828332e-04
1.43000000e-01	4.67209333e-02	8.41288060e-04
1.43500000e-01	4.55045039e-02	8.15473899e-04
1.44000000e-01	4.48341294e-02	8.01672101e-04
1.44500000e-01	4.43955076e-02	7.89649795e-04
1.45000000e-01	4.25911741e-02	7.57661685e-04
1.45500000e-01	4.25228524e-02	7.54379884e-04
1.46000000e-01	4.18536639e-02	7.41504478e-04
1.46500000e-01	4.09105041e-02	7.22475469e-04
1.47000000e-01	4.04718884e-02	7.14074187e-04
1.47500000e-01	4.03311413e-02	7.10678149e-04
1.48000000e-01	4.00170250e-02	7.03441552e-04
1.48500000e-01	3.93154996e-02	6.91223979e-04
1.49000000e-01	3.88216779e-02	6.79459399e-04
1.49500000e-01	3.83936482e-02	6.68835549e-04
1.50000000e-01	3.81084263e-02	6.62833479e-04
1.50500000e-01	3.81296781e-02	6.66228108e-04
1.51000000e-01	3.76537951e-02	6.54802296e-04
1.51500000e-01	3.74736281e-02	6.48464554e-04
1.52000000e-01	3.72916758e-02	6.43590889e-04
1.52500000e-01	3.68648853e-02	6.37825914e-04
1.53000000e-01	3.66354809e-02	6.32732959e-04
1.53500000e-01	3.66641920e-02	6.30879702e-04
1.54000000e-01	3.59194068e-02	6.18144689e-04
1.54500000e-01	3.59389504e-02	6.29737250e-04
1.55000000e-01	3.54937291e-02	6.28497516e-04
1.55500000e-01	3.55209303e-02	6.33032989e-04
1.56000000e-01	3.55609341e-02	6.40198008e-04
1.56500000e-01	3.52079056e-02	6.33344831e-04
1.57000000e-01	3.45704012e-02	6.23286864e-04
1.57500000e-01	3.49083129e-02	6.18297233e-04
1.58000000e-01	3.52330821e-02	6.11685039e-04
1.58500000e-01	3.48907604e-02	6.03325158e-04
1.59000000e-01	3.46465730e-02	5.96518797e-04
1.59500000e-01	3.46387156e-02	5.97172110e-04
1.60000000e-01	3.44942089e-02	5.94934540e-04
1.60500000e-01	3.39723147e-02	5.79458693e-04
1.61000000e-01	3.37837411e-02	5.76958678e-04
1.61500000e-01	3.45702973e-02	5.87323204e-04
1.62000000e-01	3.43773116e-02	5.83086211e-04
1.62500000e-01	3.41148182e-02	5.79084567e-04
1.63000000e-01	3.37261274e-02	5.69835143e-04
1.63500000e-01	3.36831713e-02	5.73617064e-04
1.64000000e-01	3.39259799e-02	5.72017412e-04
1.64500000e-01	3.38066773e-02	5.68949895e-04
1.65000000e-01	3.35617607e-02	5.64197109e-04
1.65500000e-01	3.35517947e-02	5.62425738e-04
1.66000000e-01	3.34378394e-02	5.60673760e-04
1.66500000e-01	3.35561011e-02	5.61296869e-04
1.67000000e-01	3.33555637e-02	5.58664598e-04
1.67500000e-01	3.33764723e-02	5.57272427e-04
1.68000000e-01	3.27800687e-02	5.46652609e-04
1.68500000e-01	3.33019403e-02	5.52001044e-04
1.69000000e-01	3.27749166e-02	5.45851017e-04
1.69500000e-01	3.29933667e-02	5.45645635e-04
1.70000000e-01	3.30989540e-02	5.48450961e-04
1.70500000e-01	3.28667037e-02	5.43004360e-04
1.71000000e-01	3.25708593e-02	5.37190091e-04
1.71500000e-01	3.26301325e-02	5.38335625e-04
1.72000000e-01	3.26676893e-02	5.37636449e-04
1.72500000e-01	3.26834283e-02	5.37457132e-04
1.73000000e-01	3.24953649e-02	5.32587721e-04
1.73500000e-01	3.23602101e-02	5.29835425e-04
1.74000000e-01	3.21278205e-02	5.25001501e-04
1.74500000e-01	3.24711575e-02	5.27127715e-04
1.75000000e-01	3.20942446e-02	5.21324128e-04
1.75500000e-01	3.21198335e-02	5.18972219e-04
1.76000000e-01	3.19174180e-02	5.16978165e-04
1.76500000e-01	3.22543744e-02	5.21600168e-04
1.77000000e-01	3.17464998e-02	5.12292631e-04
1.77500000e-01	3.18070891e-02	5.15214196e-04
1.78000000e-01	3.20552747e-02	5.16785768e-04
1.78500000e-01	3.18339253e-02	5.15533651e-04
1.79000000e-01	3.21503059e-02	5.18259808e-04
1.79500000e-01	3.22542750e-02	5.18952383e-04
1.80000000e-01	3.14444919e-02	5.08671917e-04
1.80500000e-01	3.16568956e-02	5.09655555e-04
1.81000000e-01	3.15583860e-02	5.08496600e-04
1.81500000e-01	3.18683905e-02	5.09583205e-04
1.82000000e-01	3.17533293e-02	5.09200184e-04
1.82500000e-01	3.12724407e-02	5.00213763e-04
1.83000000e-01	3.16845066e-02	5.05795182e-04
1.83500000e-01	3.17183141e-02	5.05064478e-04
1.84000000e-01	3.11792096e-02	4.97836256e-04
1.84500000e-01	3.14855839e-02	5.00577833e-04
1.85000000e-01	3.15959664e-02	5.02617038e-04
1.85500000e-01	3.15215514e-02	5.00651651e-04
1.86000000e-01	3.12617779e-02	4.95982341e-04
1.86500000e-01	3.14750730e-02	4.98141751e-04
1.87000000e-01	3.10817647e-02	4.91859583e-04
1.87500000e-01	3.11520881e-02	4.93835410e-04
1.88000000e-01	3.11852259e-02	4.92723577e-04
1.88500000e-01	3.13505000e-02	4.94549533e-04
1.89000000e-01	3.13417303e-02	4.93199381e-04
1.89500000e-01	3.13996688e-02	4.94976274e-04
1.90000000e-01	3.16201957e-02	4.95894542e-04
1.90500000e-01	3.17498944e-02	4.98387520e-04
1.91000000e-01	3.15527938e-02	4.94308406e-04
1.91500000e-01	3.10799749e-02	4.87940964e-04
1.92000000e-01	3.09081660e-02	4.80639429e-04
1.92500000e-01	3.12398989e-02	4.87222836e-04
1.93000000e-01	3.08711966e-02	4.82055798e-04
1.93500000e-01	3.07469186e-02	4.78972765e-04
1.94000000e-01	3.10996931e-02	4.84113140e-04
1.94500000e-01	3.08589681e-02	4.78717608e-04
1.95000000e-01	3.08221101e-02	4.77552707e-04
1.95500000e-01	3.10137383e-02	4.78517482e-04
1.96000000e-01	3.10620391e-02	4.80645276e-04
1.96500000e-01	3.09028620e-02	4.78977063e-04
1.97000000e-01	3.10010536e-02	4.79176810e-04
1.97500000e-01	3.03309311e-02	4.67809271e-04
1.98000000e-01	3.08780681e-02	4.76034705e-04
1.98500000e-01	3.09030257e-02	4.74928257e-04
1.99000000e-01	3.09529973e-02	4.76458254e-04
1.99500000e-01	3.08682117e-02	4.72826178e-04
2.00000000e-01	3.05676645e-02	4.68862562e-04
2.00500000e-01	3.08449467e-02	4.71893040e-04
2.01000000e-01	3.07388357e-02	4.69898556e-04
2.01500000e-01	3.06959977e-02	4.69968317e-04
2.02000000e-01	3.02435507e-02	4.61727046e-04
2.02500000e-01	3.02945328e-02	4.61774159e-04
2.03000000e-01	3.03803412e-02	4.63966269e-04
2.03500000e-01	3.04689237e-02	4.61449559e-04
2.04000000e-01	3.03866191e-02	4.60474482e-04
2.04500000e-01	3.03719258e-02	4.61455941e-04
2.05000000e-01	3.01530189e-02	4.56165376e-04
2.05500000e-01	3.02078199e-02	4.56471966e-04
2.06000000e-01	3.02053985e-02	4.55526178e-04
2.06500000e-01	3.03064587e-02	4.58226290e-04
2.07000000e-01	3.04540843e-02	4.57730115e-04
2.07500000e-01	3.00593108e-02	4.51873174e-04
2.08000000e-01	3.02903325e-02	4.57255064e-04
2.08500000e-01	3.04320052e-02	4.55644363e-04
2.09000000e-01	3.01463384e-02	4.53402165e-04
2.09500000e-01	3.02676799e-02	4.52673283e-04
2.10000000e-01	3.03099748e-02	4.54138041e-04
2.10500000e-01	2.97863297e-02	4.46157556e-04
2.11000000e-01	3.02516099e-02	4.51621390e-04
2.11500000e-01	3.02364640e-02	4.52032458e-04
2.12000000e-01	2.99153389e-02	4.44058385e-04
2.12500000e-01	2.97163894e-02	4.42499135e-04
2.13000000e-01	2.94410125e-02	4.37758184e-04
2.13500000e-01	2.95135660e-02	4.39165025e-04
2.14000000e-01	2.94495205e-02	4.37918761e-04
2.14500000e-01	2.98386560e-02	4.40814123e-04
2.15000000e-01	2.93949250e-02	4.36544695e-04
2.15500000e-01	2.90325970e-02	4.28503106e-04
2.16000000e-01	2.88278611e-02	4.27120542e-04
2.16500000e-01	2.93748950e-02	4.33710083e-04
2.17000000e-01	2.92723310e-02	4.38224691e-04
2.17500000e-01	2.91614316e-02	4.43649481e-04
2.18000000e-01	2.90361738e-02	4.41745003e-04
2.18500000e-01	2.91239496e-02	4.47068621e-04
2.19000000e-01	2.90039493e-02	4.46497395e-04
2.19500000e-01	2.89488539e-02	4.47076456e-04
2.20000000e-01	2.90682126e-02	4.52903725e-04
2.20500000e-01	2.91992418e-02	4.54269607e-04
2.21000000e-01	2.88163516e-02	4.50214341e-04
2.21500000e-01	2.92643262e-02	4.58906375e-04
2.22000000e-01	2.89815569e-02	4.54314222e-04
2.22500000e-01	2.86831688e-02	4.51568863e-04
2.23000000e-01	2.90846398e-02	4.58573053e-04
2.23500000e-01	2.90947264e-02	4.60078526e-04
2.24000000e-01	2.89432126e-02	4.59705034e-04
2.24500000e-01	2.88056233e-02	4.59824841e-04
2.25000000e-01	2.89064168e-02	4.60285682e-04
2.25500000e-01	2.87302432e-02	4.57615896e-04
2.26000000e-01	2.88911151e-02	4.63336977e-04
2.26500000e-01	2.88835766e-02	4.52220630e-04
2.27000000e-01	2.86802057e-02	4.47974888e-04
2.27500000e-01	2.83601196e-02	4.38965056e-04
2.28000000e-01	2.90646271e-02	4.46750828e-04
2.28500000e-01	2.85409855e-02	4.37297653e-04
2.29000000e-01	2.87124666e-02	4.37685551e-04
2.29500000e-01	2.86057227e-02	4.34544958e-04
2.30000000e-01	2.85512139e-02	4.32133528e-04
2.30500000e-01	2.87144325e-02	4.32605364e-04
2.31000000e-01	2.84410489e-02	4.28600549e-04
2.31500000e-01	2.82839592e-02	4.25053839e-04
2.32000000e-01	2.83760691e-02	4.25503913e-04
2.32500000e-01	2.83765666e-02	4.24610973e-04
2.33000000e-01	2.81584060e-02	4.20032969e-04
2.33500000e-01	2.81614916e-02	4.19235745e-04
2.34000000e-01	2.84262517e-02	4.21136562e-04
2.34500000e-01	2.83639501e-02	4.19906740e-04
2.35000000e-01	2.80434911e-02	4.14083610e-04
2.35500000e-01	2.82116034e-02	4.16947064e-04
2.36000000e-01	2.80228247e-02	4.13702764e-04
2.36500000e-01	2.80681803e-02	4.14163136e-04
2.37000000e-01	2.79364242e-02	4.11335933e-04
2.37500000e-01	2.81583179e-02	4.14065189e-04
2.38000000e-01	2.78912906e-02	4.08033134e-04
2.38500000e-01	2.80147639e-02	4.09616283e-04
2.39000000e-01	2.77660739e-02	4.04304352e-04
2.39500000e-01	2.82240506e-02	4.11235653e-04
2.40000000e-01	2.76300290e-02	4.02710717e-04
2.40500000e-01	2.76936152e-02	4.02151489e-04
2.41000000e-01	2.76473402e-02	4.01775661e-04
2.41500000e-01	2.78173417e-02	4.02602946e-04
2.42000000e-01	2.80794861e-02	4.07018136e-04
2.42500000e-01	2.79653526e-02	4.03979698e-04
2.43000000e-01	2.77422110e-02	3.99952545e-04
2.43500000e-01	2.75431106e-02	3.96839487e-04
2.44000000e-01	2.75463757e-02	3.96817961e-04
2.44500000e-01	2.80623342e-02	4.02349201e-04
2.45000000e-01	2.78518726e-02	3.99052581e-04
2.45500000e-01	2.78869949e-02	3.99229444e-04
2.46000000e-01	2.77194144e-02	3.96043157e-04
2.46500000e-01	2.77580551e-02	3.96025286e-04
2.47000000e-01	2.76991077e-02	3.95800104e-04
2.47500000e-01	2.78009429e-02	3.94116990e-04
2.48000000e-01	2.78003124e-02	3.95397485e-04
2.48500000e-01	2.78495137e-02	3.95548204e-04
2.49000000e-01	2.80636829e-02	3.97894923e-04
2.49500000e-01	2.77300486e-02	3.93207376e-04
2.50000000e-01	2.81357412e-02	3.97987900e-04
2.50500000e-01	2.81806376e-02	3.99755907e-04
2.51000000e-01	2.81473111e-02	3.97006436e-04
2.51500000e-01	2.85428888e-02	4.02679954e-04
2.52000000e-01	2.82494367e-02	3.99426545e-04
2.52500000e-01	2.82877412e-02	3.96986470e-04
2.53000000e-01	2.82049969e-02	3.96726759e-04
2.53500000e-01	2.81739167e-02	3.95092193e-04
2.54000000e-01	2.84635075e-02	3.99593613e-04
2.54500000e-01	2.85123295e-02	3.98453804e-04
2.55000000e-01	2.85216371e-02	3.98975205e-04
2.55500000e-01	2.86406034e-02	4.00981471e-04
2.56000000e-01	2.86142139e-02	3.98698763e-04
2.56500000e-01	2.85973172e-02	3.99708766e-04
2.57000000e-01	2.87518006e-02	3.99999805e-04
2.57500000e-01	2.84302543e-02	3.94710592e-04
2.58000000e-01	2.86779171e-02	3.99358469e-04
2.58500000e-01	2.88991473e-02	3.99643965e-04
2.59000000e-01	2.87538533e-02	3.98481470e-04
2.59500000e-01	2.85639398e-02	3.95272330e-04
2.60000000e-01	2.85919704e-02	3.95683884e-04
2.60500000e-01	2.90590330e-02	4.00803702e-04
2.61000000e-01	2.88843359e-02	3.97961462e-04
2.61500000e-01	2.90898252e-02	4.01882766e-04
2.62000000e-01	2.88615896e-02	3.98032414e-04
2.62500000e-01	2.89712877e-02	3.99842177e-04
2.63000000e-01	2.86535516e-02	3.93867885e-04
2.63500000e-01	2.86324697e-02	3.92383035e-04
2.64000000e-01	2.86068321e-02	3.92994244e-04
2.64500000e-01	2.88214081e-02	3.94186777e-04
2.65000000e-01	2.87086149e-02	3.92480916e-04
2.65500000e-01	2.84611346e-02	3.88752590e-04
2.66000000e-01	2.89061642e-02	3.94940287e-04
2.66500000e-01	2.83455715e-02	3.87424423e-04
2.67000000e-01	2.81945989e-02	3.84541634e-04
2.67500000e-01	2.82287196e-02	3.82828943e-04
2.68000000e-01	2.78847216e-02	3.79594587e-04
2.68500000e-01	2.76914088e-02	3.76225980e-04
2.69000000e-01	2.78309846e-02	3.76951351e-04
2.69500000e-01	2.74235497e-02	3.72321572e-04
2.70000000e-01	2.76129255e-02	3.74739933e-04
2.70500000e-01	2.72935087e-02	3.68654765e-04
2.71000000e-01	2.74350562e-02	3.70574197e-04
2.71500000e-01	2.73656112e-02	3.69702994e-04
2.72000000e-01	2.73178961e-02	3.68616645e-04
2.72500000e-01	2.69750840e-02	3.64602833e-04
2.73000000e-01	2.69681228e-02	3.63458943e-04
2.73500000e-01	2.67677481e-02	3.60365050e-04
2.74000000e-01	2.67670556e-02	3.61111545e-04
2.74500000e-01	2.68736308e-02	3.62031874e-04
2.75000000e-01	2.68685039e-02	3.61998800e-04
2.75500000e-01	2.63430546e-02	3.55066594e-04
2.76000000e-01	2.65884863e-02	3.56627911e-04
2.76500000e-01	2.66330535e-02	3.57457763e-04
2.77000000e-01	2.65551161e-02	3.55829597e-04
2.77500000e-01	2.66680939e-02	3.57808068e-04
2.78000000e-01	2.64930949e-02	3.54200613e-04
2.78500000e-01	2.67706336e-02	3.58197647e-04
2.79000000e-01	2.67286203e-02	3.57154218e-04
2.79500000e-01	2.63385553e-02	3.50242668e-04
2.80000000e-01	2.65659484e-02	3.55192780e-04
2.80500000e-01	2.62247495e-02	3.49888390e-04
2.81000000e-01	2.59674979e-02	3.46720344e-04
2.81500000e-01	2.60716150e-02	3.48076628e-04
2.82000000e-01	2.63262636e-02	3.50663928e-04
2.82500000e-01	2.57447785e-02	3.42810172e-04
2.83000000e-01	2.57375405e-02	3.41553696e-04
2.83500000e-01	2.56450860e-02	3.40288724e-04
2.84000000e-01	2.57403072e-02	3.41725428e-04
2.84500000e-01	2.54883027e-02	3.37714152e-04
2.85000000e-01	2.56117414e-02	3.40180101e-04
2.85500000e-01	2.53482111e-02	3.35210565e-04
2.86000000e-01	2.54460137e-02	3.37452111e-04
2.86500000e-01	2.51690930e-02	3.32522361e-04
2.87000000e-01	2.53181053e-02	3.34126502e-04
2.87500000e-01	2.50431002e-02	3.29723855e-04
2.88000000e-01	2.49862751e-02	3.28083456e-04
2.88500000e-01	2.52542194e-02	3.31551877e-04
2.89000000e-01	2.53688951e-02	3.32411863e-04
2.89500000e-01	2.50722594e-02	3.29148396e-04
2.90000000e-01	2.49006861e-02	3.26614158e-04
2.90500000e-01	2.48373844e-02	3.25884553e-04
2.91000000e-01	2.49880165e-02	3.26391730e-04
2.91500000e-01	2.47995420e-02	3.24724195e-04
2.92000000e-01	2.47806758e-02	3.24362145e-04
2.92500000e-01	2.48478937e-02	3.24399015e-04
2.93000000e-01	2.47350755e-02	3.23504719e-04
2.93500000e-01	2.50855149e-02	3.26839417e-04
2.94000000e-01	2.48686932e-02	3.23998312e-04
2.94500000e-01	2.46593313e-02	3.21975957e-04
2.95000000e-01	2.49244934e-02	3.23654411e-04
2.95500000e-01	2.45026198e-02	3.18874438e-04
2.96000000e-01	2.48157999e-02	3.22887082e-04
2.96500000e-01	2.46690909e-02	3.20029628e-04
2.97000000e-01	2.48468183e-02	3.22507763e-04
2.97500000e-01	2.46416860e-02	3.18137157e-04
2.98000000e-01	2.47286365e-02	3.21060307e-04
2.98500000e-01	2.46797112e-02	3.19488016e-04
2.99000000e-01	2.47548592e-02	3.19238982e-04
2.99500000e-01	2.44364081e-02	3.15739965e-04
3.00000000e-01	2.46517420e-02	3.17643501e-04
3.00500000e-01	2.47180862e-02	3.19736547e-04
3.01000000e-01	2.44149726e-02	3.13907415e-04
3.01500000e-01	2.46717932e-02	3.17565623e-04
3.02000000e-01	2.44832989e-02	3.15781891e-04
3.02500000e-01	2.46150034e-02	3.16086808e-04
3.03000000e-01	2.46365180e-02	3.17237406e-04
3.03500000e-01	2.42478865e-02	3.12015817e-04
3.04000000e-01	2.45616088e-02	3.16012643e-04
3.04500000e-01	2.44783390e-02	3.12943636e-04
3.05000000e-01	2.42114646e-02	3.11408216e-04
3.05500000e-01	2.43188220e-02	3.11533682e-04
3.06000000e-01	2.41961098e-02	3.07570944e-04
3.06500000e-01	2.43006138e-02	3.09489457e-04
3.07000000e-01	2.41453980e-02	3.08353152e-04
3.07500000e-01	2.45782841e-02	3.13066468e-04
3.08000000e-01	2.41752916e-02	3.08780621e-04
3.08500000e-01	2.41126211e-02	3.06637782e-04
3.09000000e-01	2.40548943e-02	3.06728589e-04
3.09500000e-01	2.38226528e-02	3.02920555e-04
3.10000000e-01	2.41567183e-02	3.07459877e-04
3.10500000e-01	2.40270612e-02	3.04782209e-04
3.11000000e-01	2.41876470e-02	3.07008681e-04
3.11500000e-01	2.41081090e-02	3.04931058e-04
3.12000000e-01	2.42790469e-02	3.06586813e-04
3.12500000e-01	2.40021155e-02	3.03717798e-04
3.13000000e-01	2.39573862e-02	3.02833445e-04
3.13500000e-01	2.39504206e-02	3.03285999e-04
3.14000000e-01	2.39724712e-02	3.02515138e-04
3.14500000e-01	2.38000238e-02	2.99668015e-04
3.15000000e-01	2.38709334e-02	3.00698746e-04
3.15500000e-01	2.38660826e-02	3.00323959e-04
3.16000000e-01	2.38135295e-02	3.00029341e-04
3.16500000e-01	2.40137756e-02	3.00919799e-04
3.17000000e-01	2.38661111e-02	3.00029695e-04
3.17500000e-01	2.40274319e-02	3.01497852e-04
3.18000000e-01	2.36800915e-02	2.97212805e-04
3.18500000e-01	2.37429027e-02	2.98376364e-04
3.19000000e-01	2.38175620e-02	2.98047816e-04
3.19500000e-01	2.36887795e-02	2.96490220e-04
3.20000000e-01	2.37019074e-02	2.97764559e-04
3.20500000e-01	2.39653109e-02	3.00037476e-04
3.21000000e-01	2.37455267e-02	2.97789080e-04
3.21500000e-01	2.35827044e-02	2.94651650e-04
3.22000000e-01	2.38993521e-02	2.98147266e-04
3.22500000e-01	2.36302772e-02	2.95384462e-04
3.23000000e-01	2.34832519e-02	2.91824874e-04
3.23500000e-01	2.36059018e-02	2.94433074e-04
3.24000000e-01	2.36641569e-02	2.93448468e-04
3.24500000e-01	2.35028409e-02	2.93099074e-04
3.25000000e-01	2.36140725e-02	2.93027769e-04
3.25500000e-01	2.37401961e-02	2.95489870e-04
3.26000000e-01	2.34914772e-02	2.91472527e-04
3.26500000e-01	2.32890378e-02	2.88575056e-04
3.27000000e-01	2.34507825e-02	2.91250139e-04
3.27500000e-01	2.35336817e-02	2.91224367e-04
3.28000000e-01	2.33147834e-02	2.89133207e-04
3.28500000e-01	2.33441603e-02	2.88902481e-04
3.29000000e-01	2.32839125e-02	2.87328241e-04
3.29500000e-01	2.33439353e-02	2.89002660e-04
3.30000000e-01	2.33584623e-02	2.87916866e-04
3.30500000e-01	2.34444889e-02	2.89083799e-04
3.31000000e-01	2.32807519e-02	2.86321788e-04
3.31500000e-01	2.32535279e-02	2.86588643e-04
3.32000000e-01	2.33451620e-02	2.87360583e-04
3.32500000e-01	2.33767264e-02	2.87194319e-04
3.33000000e-01	2.32870019e-02	2.85883600e-04
3.33500000e-01	2.33993273e-02	2.86840459e-04
3.34000000e-01	2.33306448e-02	2.85999798e-04
3.34500000e-01	2.30388847e-02	2.82908825e-04
3.35000000e-01	2.32985002e-02	2.84171939e-04
3.35500000e-01	2.32060414e-02	2.83427961e-04
3.36000000e-01	2.32050263e-02	2.83628165e-04
3.36500000e-01	2.30411994e-02	2.81836423e-04
3.37000000e-01	2.30373809e-02	2.81559940e-04
3.37500000e-01	2.32670360e-02	2.84275340e-04
3.38000000e-01	2.32164259e-02	2.83973464e-04
3.38500000e-01	2.29148361e-02	2.79410528e-04
3.39000000e-01	2.31902580e-02	2.83622913e-04
3.39500000e-01	2.31479925e-02	2.81260461e-04
3.40000000e-01	2.29417564e-02	2.79375299e-04
3.40500000e-01	2.30109147e-02	2.79357748e-04
3.41000000e-01	2.29845610e-02	2.78215345e-04
3.41500000e-01	2.29655292e-02	2.79801955e-04
3.42000000e-01	2.31015760e-02	2.79081321e-04
3.42500000e-01	2.29173297e-02	2.77504433e-04
3.43000000e-01	2.29688842e-02	2.77825016e-04
3.43500000e-01	2.29598784e-02	2.77080514e-04
3.44000000e-01	2.27829982e-02	2.77231010e-04
3.44500000e-01	2.28818224e-02	2.76104003e-04
3.45000000e-01	2.32523912e-02	2.81380661e-04
3.45500000e-01	2.29430388e-02	2.76968618e-04
3.46000000e-01	2.27536217e-02	2.74185799e-04
3.46500000e-01	2.29261655e-02	2.76467599e-04
3.47000000e-01	2.30703688e-02	2.76666530e-04
3.47500000e-01	2.28287371e-02	2.74433474e-04
3.48000000e-01	2.26661778e-02	2.73122006e-04
3.48500000e-01	2.27234141e-02	2.73476345e-04
3.49000000e-01	2.27877563e-02	2.73529730e-04
3.49500000e-01	2.28826237e-02	2.74486276e-04
3.50000000e-01	2.28740723e-02	2.23688743e-04
3.51000000e-01	2.28079578e-02	1.93006618e-04
3.52000000e-01	2.27057412e-02	1.92030858e-04
3.53000000e-01	2.28273063e-02	1.92396971e-04
3.54000000e-01	2.26965106e-02	1.90964427e-04
3.55000000e-01	2.27094387e-02	1.91308748e-04
3.56000000e-01	2.26423154e-02	1.91433694e-04
3.57000000e-01	2.26909036e-02	1.95312076e-04
3.58000000e-01	2.27050579e-02	1.96919433e-04
3.59000000e-01	2.26531213e-02	1.97792322e-04
3.60000000e-01	2.25227905e-02	1.98194216e-04
3.61000000e-01	2.25731194e-02	1.99630622e-04
3.62000000e-01	2.25320743e-02	1.99697837e-04
3.63000000e-01	2.25164720e-02	2.00648345e-04
3.64000000e-01	2.26495122e-02	2.02668779e-04
3.65000000e-01	2.24316910e-02	2.01148712e-04
3.66000000e-01	2.25014847e-02	1.98920694e-04
3.67000000e-01	2.24474522e-02	1.96183624e-04
3.68000000e-01	2.25510176e-02	1.96126594e-04
3.69000000e-01	2.25245118e-02	1.94435836e-04
3.70000000e-01	2.23122528e-02	1.91920885e-04
3.71000000e-01	2.25501140e-02	1.96510323e-04
3.72000000e-01	2.24287077e-02	1.96585673e-04
3.73000000e-01	2.23788214e-02	1.96407540e-04
3.74000000e-01	2.23513349e-02	1.96181362e-04
3.75000000e-01	2.23518754e-02	1.96341105e-04
3.76000000e-01	2.23472529e-02	1.96544992e-04
3.77000000e-01	2.24576563e-02	1.97711932e-04
3.78000000e-01	2.24972344e-02	1.97890169e-04
3.79000000e-01	2.25335155e-02	1.98096544e-04
3.80000000e-01	2.25295567e-02	1.97322301e-04
3.81000000e-01	2.26050503e-02	1.97976152e-04
3.82000000e-01	2.28634877e-02	2.00130789e-04
3.83000000e-01	2.28135986e-02	1.99774150e-04
3.84000000e-01	2.27301675e-02	1.98869202e-04
3.85000000e-01	2.30123713e-02	2.01217928e-04
3.86000000e-01	2.32644931e-02	2.03249724e-04
3.87000000e-01	2.31542895e-02	2.02570344e-04
3.88000000e-01	2.34241884e-02	2.04579789e-04
3.89000000e-01	2.37521858e-02	2.07149237e-04
3.90000000e-01	2.37357646e-02	2.06545950e-04
3.91000000e-01	2.38420299e-02	2.07866417e-04
3.92000000e-01	2.39919119e-02	2.08902649e-04
3.93000000e-01	2.39642540e-02	2.08428927e-04
3.94000000e-01	2.40886456e-02	2.09401995e-04
3.95000000e-01	2.39692016e-02	2.08071847e-04
3.96000000e-01	2.39970087e-02	2.08595459e-04
3.97000000e-01	2.36795322e-02	2.05681787e-04
3.98000000e-01	2.32984970e-02	2.02815973e-04
3.99000000e-01	2.32958716e-02	2.02545909e-04
4.00000000e-01	2.31953820e-02	2.02137997e-04
4.01000000e-01	2.29819999e-02	1.99702511e-04
4.02000000e-01	2.26075459e-02	1.96920616e-04
4.03000000e-01	2.24801897e-02	1.95689713e-04
4.04000000e-01	2.23471534e-02	1.94445285e-04
4.05000000e-01	2.20658018e-02	1.92798633e-04
4.06000000e-01	2.19752566e-02	1.91667530e-04
4.07000000e-01	2.17883810e-02	1.89934542e-04
4.08000000e-01	2.18557559e-02	1.90699680e-04
4.09000000e-01	2.16828729e-02	1.88919893e-04
4.10000000e-01	2.14486689e-02	1.87162092e-04
4.11000000e-01	2.17599418e-02	1.89828127e-04
4.12000000e-01	2.15928517e-02	1.87942889e-04
4.13000000e-01	2.14963167e-02	1.87495213e-04
4.14000000e-01	2.14923515e-02	1.87474205e-04
4.15000000e-01	2.13720329e-02	1.86351532e-04
4.16000000e-01	2.15028459e-02	1.86957896e-04
4.17000000e-01	2.13056436e-02	1.85650326e-04
4.18000000e-01	2.14352940e-02	1.88687270e-04
4.19000000e-01	2.14782792e-02	1.91491574e-04
4.20000000e-01	2.14354103e-02	1.92175334e-04
4.21000000e-01	2.14670179e-02	1.92500582e-04
4.22000000e-01	2.13779974e-02	1.93227363e-04
4.23000000e-01	2.11808912e-02	1.91904834e-04
4.24000000e-01	2.13813546e-02	1.94317664e-04
4.25000000e-01	2.14501032e-02	1.94677225e-04
4.26000000e-01	2.13684677e-02	1.94399993e-04
4.27000000e-01	2.13836693e-02	1.94238312e-04
4.28000000e-01	2.14064148e-02	1.95201889e-04
4.29000000e-01	2.12986179e-02	1.94752678e-04
4.30000000e-01	2.13155169e-02	1.94428967e-04
4.31000000e-01	2.12254848e-02	1.93488803e-04
4.32000000e-01	2.11583367e-02	1.93471647e-04
4.33000000e-01	2.11748874e-02	1.93405686e-04
4.34000000e-01	2.13479973e-02	1.94573888e-04
4.35000000e-01	2.10428215e-02	1.92733009e-04
4.36000000e-01	2.12808544e-02	1.95023975e-04
4.37000000e-01	2.11286604e-02	1.93778595e-04
4.38000000e-01	2.12195650e-02	1.94974711e-04
4.39000000e-01	2.13564869e-02	1.96287366e-04
4.40000000e-01	2.12285204e-02	1.95535375e-04
4.41000000e-01	2.11204593e-02	1.94407199e-04
4.42000000e-01	2.13029098e-02	1.96482215e-04
4.43000000e-01	2.11856738e-02	1.95992870e-04
4.44000000e-01	2.12593796e-02	1.96504236e-04
4.45000000e-01	2.09840935e-02	1.95006801e-04
4.46000000e-01	2.10756963e-02	1.95734207e-04
4.47000000e-01	2.11987741e-02	1.96271444e-04
4.48000000e-01	2.10786861e-02	1.95989827e-04
4.49000000e-01	2.11658550e-02	1.96926844e-04
4.50000000e-01	2.12517401e-02	1.97992193e-04
4.51000000e-01	2.10939949e-02	1.96886564e-04
4.52000000e-01	2.12414915e-02	1.97947641e-04
4.53000000e-01	2.12309568e-02	1.98299162e-04
4.54000000e-01	2.11333616e-02	1.97303902e-04
4.55000000e-01	2.12003891e-02	1.97813623e-04
4.56000000e-01	2.12353347e-02	1.98552913e-04
4.57000000e-01	2.11692099e-02	1.97917350e-04
4.58000000e-01	2.10631613e-02	1.97211208e-04
4.59000000e-01	2.09913421e-02	1.96929028e-04
4.60000000e-01	2.11808331e-02	1.98756004e-04
4.61000000e-01	2.10755450e-02	1.98136767e-04
4.62000000e-01	2.10195825e-02	1.97280055e-04
4.63000000e-01	2.10636142e-02	1.98288097e-04
4.64000000e-01	2.10606838e-02	1.98234284e-04
4.65000000e-01	2.10104033e-02	1.98093928e-04
4.66000000e-01	2.10927031e-02	1.98678381e-04
4.67000000e-01	2.10407866e-02	1.98609996e-04
4.68000000e-01	2.10604449e-02	1.98839916e-04
4.69000000e-01	2.11070844e-02	1.99196757e-04
4.70000000e-01	2.08815623e-02	1.97409559e-04
4.71000000e-01	2.10036772e-02	1.98355792e-04
4.72000000e-01	2.10462036e-02	1.98432655e-04
4.73000000e-01	2.10140122e-02	1.97770929e-04
4.74000000e-01	2.09628427e-02	1.97424540e-04
4.75000000e-01	2.10124092e-02	1.98107486e-04
4.76000000e-01	2.09859123e-02	1.97397016e-04
4.77000000e-01	2.09702302e-02	1.98280460e-04
4.78000000e-01	2.10275094e-02	1.98489911e-04
4.79000000e-01	2.12156131e-02	2.00173950e-04
4.80000000e-01	2.09546149e-02	1.98046528e-04
4.81000000e-01	2.11175243e-02	1.99343013e-04
4.82000000e-01	2.11117979e-02	1.98902699e-04
4.83000000e-01	2.11794260e-02	2.00247745e-04
4.84000000e-01	2.09912780e-02	1.98756080e-04
4.85000000e-01	2.10850890e-02	2.00103354e-04
4.86000000e-01	2.10652305e-02	1.99704114e-04
4.87000000e-01	2.12076694e-02	2.00788250e-04
4.88000000e-01	2.10602112e-02	1.99643134e-04
4.89000000e-01	2.11561512e-02	2.00724570e-04
4.90000000e-01	2.10724735e-02	2.00051539e-04
4.91000000e-01	2.09612761e-02	1.99035166e-04
4.92000000e-01	2.11649626e-02	2.01202700e-04
4.93000000e-01	2.09515420e-02	1.99092313e-04
4.94000000e-01	2.11046596e-02	2.00988946e-04
4.95000000e-01	2.11206653e-02	2.02368849e-04
4.96000000e-01	2.11587919e-02	2.08985719e-04
4.97000000e-01	2.10876792e-02	2.11269797e-04
4.98000000e-01	2.11325258e-02	2.14867395e-04
4.99000000e-01	2.11743785e-02	2.18526671e-04
5.00000000e-01	2.09653534e-02	2.18835631e-04
5.01000000e-01	2.11930398e-02	2.22682096e-04
5.02000000e-01	2.11052324e-02	2.24102054e-04
5.03000000e-01	2.12094797e-02	2.27263858e-04
5.04000000e-01	2.13057107e-02	2.30123075e-04
5.05000000e-01	2.13464986e-02	2.26579228e-04
5.06000000e-01	2.13712251e-02	2.22155818e-04
5.07000000e-01	2.12782434e-02	2.18909929e-04
5.08000000e-01	2.13465749e-02	2.17965004e-04
5.09000000e-01	2.12385851e-02	2.16174516e-04
5.10000000e-01	2.10217452e-02	2.13667675e-04
5.11000000e-01	2.12472315e-02	2.15151781e-04
5.12000000e-01	2.10731236e-02	2.12753271e-04
5.13000000e-01	2.14018152e-02	2.15712158e-04
5.14000000e-01	2.11906642e-02	2.13705057e-04
5.15000000e-01	2.13029267e-02	2.13637695e-04
5.16000000e-01	2.12828477e-02	2.12927970e-04
5.17000000e-01	2.13221061e-02	2.13200168e-04
5.18000000e-01	2.11724277e-02	2.11300414e-04
5.19000000e-01	2.12993781e-02	2.11965025e-04
5.20000000e-01	2.13778467e-02	2.12027360e-04
5.21000000e-01	2.14377081e-02	2.12572295e-04
5.22000000e-01	2.14580268e-02	2.12451283e-04
5.23000000e-01	2.11999978e-02	2.09659875e-04
5.24000000e-01	2.12326889e-02	2.10626758e-04
5.25000000e-01	2.12316454e-02	2.09923039e-04
5.26000000e-01	2.14576965e-02	2.12197080e-04
5.27000000e-01	2.11976974e-02	2.10191876e-04
5.28000000e-01	2.14191235e-02	2.11951162e-04
5.29000000e-01	2.14665372e-02	2.12329221e-04
5.30000000e-01	2.12126686e-02	2.10417035e-04
5.31000000e-01	2.12755370e-02	2.10832082e-04
5.32000000e-01	2.12480632e-02	2.10268328e-04
5.33000000e-01	2.13772784e-02	2.11094072e-04
5.34000000e-01	2.13963103e-02	2.10877750e-04
5.35000000e-01	2.15094943e-02	2.12686402e-04
5.36000000e-01	2.13179600e-02	2.10511902e-04
5.37000000e-01	2.13412789e-02	2.11431901e-04
5.38000000e-01	2.13631522e-02	2.11045258e-04
5.39000000e-01	2.13211382e-02	2.10641410e-04
5.40000000e-01	2.12928739e-02	2.10452584e-04
5.41000000e-01	2.12659657e-02	2.10128619e-04
5.42000000e-01	2.14571663e-02	2.11292704e-04
5.43000000e-01	2.15277100e-02	2.11813457e-04
5.44000000e-01	2.12918891e-02	2.09979773e-04
5.45000000e-01	2.15073576e-02	2.12040277e-04
5.46000000e-01	2.13655136e-02	2.11182491e-04
5.47000000e-01	2.13084754e-02	2.11302978e-04
5.48000000e-01	2.13519933e-02	2.10585539e-04
5.49000000e-01	2.13549671e-02	2.10754747e-04
5.50000000e-01	2.13841844e-02	2.10756256e-04
5.51000000e-01	2.13994841e-02	2.10105799e-04
5.52000000e-01	2.13179763e-02	2.09404208e-04
5.53000000e-01	2.13000417e-02	2.09430036e-04
5.54000000e-01	2.13018013e-02	2.09102052e-04
5.55000000e-01	2.12288972e-02	2.08018116e-04
5.56000000e-01	2.15315386e-02	2.10419367e-04
5.57000000e-01	2.13316215e-02	2.09405398e-04
5.58000000e-01	2.13200271e-02	2.09075479e-04
5.59000000e-01	2.13276765e-02	2.08970571e-04
5.60000000e-01	2.14103607e-02	2.09983222e-04
5.61000000e-01	2.14059027e-02	2.09483305e-04
5.62000000e-01	2.14165756e-02	2.09903774e-04
5.63000000e-01	2.12406242e-02	2.08623429e-04
5.64000000e-01	2.15126203e-02	2.10384530e-04
5.65000000e-01	2.12948326e-02	2.09053616e-04
5.66000000e-01	2.13038247e-02	2.08730979e-04
5.67000000e-01	2.14418506e-02	2.10012209e-04
5.68000000e-01	2.15632733e-02	2.11353906e-04
5.69000000e-01	2.13595416e-02	2.09346071e-04
5.70000000e-01	2.17219128e-02	2.12339695e-04
5.71000000e-01	2.15079051e-02	2.10425859e-04
5.72000000e-01	2.15319009e-02	2.10181183e-04
5.73000000e-01	2.13920590e-02	2.09722629e-04
5.74000000e-01	2.13732959e-02	2.09271352e-04
5.75000000e-01	2.14674736e-02	2.10336532e-04
5.76000000e-01	2.15404385e-02	2.10831711e-04
5.77000000e-01	2.13997007e-02	2.10077218e-04
5.78000000e-01	2.14572475e-02	2.10776955e-04
5.79000000e-01	2.16152872e-02	2.11201991e-04
5.80000000e-01	2.13440103e-02	2.09153778e-04
5.81000000e-01	2.15239354e-02	2.10422122e-04
5.82000000e-01	2.12761663e-02	2.08852887e-04
5.83000000e-01	2.15209356e-02	2.10972887e-04
5.84000000e-01	2.14552863e-02	2.10549058e-04
5.85000000e-01	2.13111903e-02	2.09109449e-04
5.86000000e-01	2.15214734e-02	2.10890841e-04
5.87000000e-01	2.15607022e-02	2.10840275e-04
5.88000000e-01	2.14096220e-02	2.10159960e-04
5.89000000e-01	2.14921001e-02	2.11225560e-04
5.90000000e-01	2.15027647e-02	2.11250431e-04
5.91000000e-01	2.12832531e-02	2.09093677e-04
5.92000000e-01	2.17263634e-02	2.13098694e-04
5.93000000e-01	2.15192173e-02	2.11532811e-04
5.94000000e-01	2.15232970e-02	2.11251361e-04
5.95000000e-01	2.14666993e-02	2.11241727e-04
5.96000000e-01	2.14530699e-02	2.11200403e-04
5.97000000e-01	2.16193200e-02	2.11889790e-04
5.98000000e-01	2.15013227e-02	2.11018251e-04
5.99000000e-01	2.14334554e-02	2.10884786e-04
6.00000000e-01	2.15994682e-02	2.12036914e-04
6.01000000e-01	2.14229965e-02	2.10135386e-04
6.02000000e-01	2.14841414e-02	2.11120581e-04
6.03000000e-01	2.15817152e-02	2.12458141e-04
6.04000000e-01	2.16220985e-02	2.12608062e-04
6.05000000e-01	2.16176842e-02	2.12608037e-04
6.06000000e-01	2.16117033e-02	2.12685427e-04
6.07000000e-01	2.14847894e-02	2.11469175e-04
6.08000000e-01	2.16187139e-02	2.12414801e-04
6.09000000e-01	2.14496276e-02	2.10631510e-04
6.10000000e-01	2.16177496e-02	2.12837845e-04
6.11000000e-01	2.16509042e-02	2.12635912e-04
6.12000000e-01	2.17245196e-02	2.13082888e-04
6.13000000e-01	2.16889224e-02	2.13565276e-04
6.14000000e-01	2.15074810e-02	2.11737132e-04
6.15000000e-01	2.15481208e-02	2.11638449e-04
6.16000000e-01	2.15643835e-02	2.12272485e-04
6.17000000e-01	2.16828502e-02	2.13577865e-04
6.18000000e-01	2.14790017e-02	2.11208871e-04
6.19000000e-01	2.16089321e-02	2.11394990e-04
6.20000000e-01	2.15940965e-02	2.11847602e-04
6.21000000e-01	2.16402813e-02	2.12269583e-04
6.22000000e-01	2.16808569e-02	2.11999548e-04
6.23000000e-01	2.16908334e-02	2.11412529e-04
6.24000000e-01	2.16329953e-02	2.11099379e-04
6.25000000e-01	2.14549159e-02	2.09375717e-04
6.26000000e-01	2.16220109e-02	2.10753498e-04
6.27000000e-01	2.16509952e-02	2.11105751e-04
6.28000000e-01	2.16892346e-02	2.11887299e-04
6.29000000e-01	2.15611060e-02	2.10220704e-04
6.30000000e-01	2.16193474e-02	2.10766913e-04
6.31000000e-01	2.17962805e-02	2.12716504e-04
6.32000000e-01	2.17048716e-02	2.11885728e-04
6.33000000e-01	2.17498380e-02	2.11671562e-04
6.34000000e-01	2.15982873e-02	2.16605050e-04
6.35000000e-01	2.18462341e-02	2.24993465e-04
6.36000000e-01	2.19648879e-02	2.30237443e-04
6.37000000e-01	2.18485930e-02	2.32019475e-04
6.38000000e-01	2.21611985e-02	2.37708729e-04
6.39000000e-01	2.18738783e-02	2.38777225e-04
6.40000000e-01	2.18267018e-02	2.40734262e-04
6.41000000e-01	2.18067327e-02	2.43871601e-04
6.42000000e-01	2.19048682e-02	2.46943816e-04
6.43000000e-01	2.18751861e-02	2.47320635e-04
6.44000000e-01	2.20313047e-02	2.39682399e-04
6.45000000e-01	2.18438695e-02	2.34591394e-04
6.46000000e-01	2.20102634e-02	2.34207827e-04
6.47000000e-01	2.18921560e-02	2.31173606e-04
6.48000000e-01	2.16772608e-02	2.26932512e-04
6.49000000e-01	2.19285878e-02	2.28216419e-04
6.50000000e-01	2.20606546e-02	2.28307175e-04
6.51000000e-01	2.19819478e-02	2.27316177e-04
6.52000000e-01	2.19768719e-02	2.25649517e-04
6.53000000e-01	2.19136473e-02	2.24257667e-04
6.54000000e-01	2.19356944e-02	2.24173271e-04
6.55000000e-01	2.20762500e-02	2.25310392e-04
6.56000000e-01	2.21942043e-02	2.26169245e-04
6.57000000e-01	2.19503049e-02	2.23267405e-04
6.58000000e-01	2.20604662e-02	2.24014974e-04
6.59000000e-01	2.18329296e-02	2.22092213e-04
6.60000000e-01	2.19392679e-02	2.22379895e-04
6.61000000e-01	2.18778218e-02	2.21222512e-04
6.62000000e-01	2.20160257e-02	2.23022219e-04
6.63000000e-01	2.19834719e-02	2.22452599e-04
6.64000000e-01	2.18740915e-02	2.21336397e-04
6.65000000e-01	2.20965232e-02	2.23832274e-04
6.66000000e-01	2.18651047e-02	2.20856006e-04
6.67000000e-01	2.21985003e-02	2.24445506e-04
6.68000000e-01	2.19277309e-02	2.21581815e-04
6.69000000e-01	2.19025493e-02	2.20890636e-04
6.70000000e-01	2.18176523e-02	2.20120352e-04
6.71000000e-01	2.18480099e-02	2.20516176e-04
6.72000000e-01	2.20176071e-02	2.21609745e-04
6.73000000e-01	2.17250672e-02	2.18804683e-04
6.74000000e-01	2.19324025e-02	2.20415133e-04
6.75000000e-01	2.17686889e-02	2.19223502e-04
6.76000000e-01	2.17852785e-02	2.19328891e-04
6.77000000e-01	2.19065805e-02	2.20297800e-04
6.78000000e-01	2.19102936e-02	2.20994957e-04
6.79000000e-01	2.16638795e-02	2.18239512e-04
6.80000000e-01	2.18035451e-02	2.19462819e-04
6.81000000e-01	2.18084820e-02	2.18656524e-04
6.82000000e-01	2.17703768e-02	2.18721365e-04
6.83000000e-01	2.17312447e-02	2.18524852e-04
6.84000000e-01	2.17365521e-02	2.18752786e-04
6.85000000e-01	2.18086972e-02	2.19153948e-04
6.86000000e-01	2.16104859e-02	2.17329730e-04
6.87000000e-01	2.18895370e-02	2.19914224e-04
6.88000000e-01	2.17948154e-02	2.18806538e-04
6.89000000e-01	2.16198149e-02	2.17282758e-04
6.90000000e-01	2.18452352e-02	2.19466882e-04
6.91000000e-01	2.18449742e-02	2.19754166e-04
6.92000000e-01	2.16905476e-02	2.17980984e-04
6.93000000e-01	2.17242814e-02	2.18058676e-04
6.94000000e-01	2.16519197e-02	2.17526206e-04
6.95000000e-01	2.16591166e-02	2.17174142e-04
6.96000000e-01	2.16716070e-02	2.17763863e-04
6.97000000e-01	2.14747545e-02	2.15450405e-04
6.98000000e-01	2.17078734e-02	2.17935090e-04
6.99000000e-01	2.14924203e-02	2.15900963e-04
7.00000000e-01	2.14157210e-02	2.14917356e-04
7.01000000e-01	2.14179862e-02	2.14961092e-04
7.02000000e-01	2.15223729e-02	2.15720770e-04
7.03000000e-01	2.14805054e-02	2.15936713e-04
7.04000000e-01	2.16197602e-02	2.17007949e-04
7.05000000e-01	2.14982106e-02	2.15704420e-04
7.06000000e-01	2.14328243e-02	2.14591763e-04
7.07000000e-01	2.16313943e-02	2.15769394e-04
7.08000000e-01	2.14693223e-02	2.14130739e-04
7.09000000e-01	2.15052624e-02	2.15243532e-04
7.10000000e-01	2.15391428e-02	2.15356324e-04
7.11000000e-01	2.12990413e-02	2.13284900e-04
7.12000000e-01	2.13563685e-02	2.14016944e-04
7.13000000e-01	2.13521368e-02	2.14012685e-04
7.14000000e-01	2.13520079e-02	2.14147860e-04
7.15000000e-01	2.12162437e-02	2.12303755e-04
7.16000000e-01	2.12164452e-02	2.12570566e-04
7.17000000e-01	2.11531947e-02	2.11948663e-04
7.18000000e-01	2.12564023e-02	2.12693879e-04
7.19000000e-01	2.13300771e-02	2.13514706e-04
7.20000000e-01	2.12097404e-02	2.12547094e-04
7.21000000e-01	2.10768308e-02	2.11420697e-04
7.22000000e-01	2.11798348e-02	2.12221642e-04
7.23000000e-01	2.12063530e-02	2.12847125e-04
7.24000000e-01	2.10716465e-02	2.11021651e-04
7.25000000e-01	2.10688145e-02	2.11531558e-04
7.26000000e-01	2.11185980e-02	2.11357364e-04
7.27000000e-01	2.09231311e-02	2.09826702e-04
7.28000000e-01	2.11567211e-02	2.12517411e-04
7.29000000e-01	2.10252137e-02	2.10805444e-04
7.30000000e-01	2.10452711e-02	2.11516770e-04
7.31000000e-01	2.11705869e-02	2.12097963e-04
7.32000000e-01	2.09235528e-02	2.10459575e-04
7.33000000e-01	2.09253981e-02	2.10426162e-04
7.34000000e-01	2.09364872e-02	2.09304279e-04
7.35000000e-01	2.10573578e-02	2.10688679e-04
7.36000000e-01	2.08778010e-02	2.09029713e-04
7.37000000e-01	2.09006268e-02	2.08274380e-04
7.38000000e-01	2.09328778e-02	2.08364226e-04
7.39000000e-01	2.09976565e-02	2.08439267e-04
7.40000000e-01	2.09572091e-02	2.07998185e-04
7.41000000e-01	2.06328602e-02	2.05040278e-04
7.42000000e-01	2.06633554e-02	2.05212962e-04
7.43000000e-01	2.09924062e-02	2.08190307e-04
7.44000000e-01	2.07091717e-02	2.05237361e-04
7.45000000e-01	2.05585618e-02	2.04381835e-04
7.46000000e-01	2.07642438e-02	2.06351503e-04
7.47000000e-01	2.08794175e-02	2.06598391e-04
7.48000000e-01	2.04807478e-02	2.03431384e-04
7.49000000e-01	2.06062110e-02	2.04862721e-04
7.50000000e-01	2.06262404e-02	2.04732822e-04
7.51000000e-01	2.06580893e-02	2.05172140e-04
7.52000000e-01	2.04727913e-02	2.03222281e-04
7.53000000e-01	2.07037099e-02	2.05641749e-04
7.54000000e-01	2.07201529e-02	2.05537829e-04
7.55000000e-01	2.04709604e-02	2.03747092e-04
7.56000000e-01	2.03293419e-02	2.02138214e-04
7.57000000e-01	2.03117652e-02	2.01786478e-04
7.58000000e-01	2.04916030e-02	2.03532266e-04
7.59000000e-01	2.03647242e-02	2.02032219e-04
7.60000000e-01	2.02753496e-02	2.00908522e-04
7.61000000e-01	2.02701428e-02	2.00645926e-04
7.62000000e-01	2.03509802e-02	2.01613076e-04
7.63000000e-01	2.03534845e-02	2.01436087e-04
7.64000000e-01	2.03470851e-02	2.00026335e-04
7.65000000e-01	2.02188006e-02	1.99136219e-04
7.66000000e-01	2.00257176e-02	1.97505947e-04
7.67000000e-01	2.03533326e-02	2.00536207e-04
7.68000000e-01	2.02615697e-02	1.99404138e-04
7.69000000e-01	2.02237836e-02	1.99021181e-04
7.70000000e-01	2.00937017e-02	1.97826476e-04
7.71000000e-01	2.00695000e-02	1.97137927e-04
7.72000000e-01	2.01628789e-02	2.04997784e-04
7.73000000e-01	2.01032806e-02	2.11052644e-04
7.74000000e-01	2.01535016e-02	2.15953691e-04
7.75000000e-01	2.00904546e-02	2.18333600e-04
7.76000000e-01	1.98768829e-02	2.19443831e-04
7.77000000e-01	2.00399131e-02	2.24276007e-04
7.78000000e-01	1.99582304e-02	2.26732941e-04
7.79000000e-01	2.00715285e-02	2.29876426e-04
7.80000000e-01	1.99766717e-02	2.32206269e-04
7.81000000e-01	2.00653642e-02	2.36233417e-04
7.82000000e-01	2.00342843e-02	2.38433336e-04
7.83000000e-01	1.99284098e-02	2.40343131e-04
7.84000000e-01	2.00137745e-02	2.43226426e-04
7.85000000e-01	1.95459408e-02	2.40656520e-04
7.86000000e-01	1.96723780e-02	2.44118637e-04
7.87000000e-01	1.97136875e-02	2.47142713e-04
7.88000000e-01	1.98438409e-02	2.51408504e-04
7.89000000e-01	1.97365672e-02	2.52857322e-04
7.90000000e-01	1.96698956e-02	2.53623248e-04
7.91000000e-01	1.94917509e-02	2.54172622e-04
7.92000000e-01	1.96987640e-02	2.59207119e-04
7.93000000e-01	1.97883577e-02	2.62215094e-04
7.94000000e-01	1.96340252e-02	2.63727012e-04
7.95000000e-01	1.99391985e-02	2.69963365e-04
7.96000000e-01	1.94934850e-02	2.67271741e-04
7.97000000e-01	1.93881240e-02	2.69045466e-04
7.98000000e-01	1.94954520e-02	2.73713489e-04
7.99000000e-01	1.93922443e-02	2.74378757e-04
8.00000000e-01	1.94716195e-02	2.77928732e-04
8.01000000e-01	1.94807977e-02	2.81175731e-04
8.02000000e-01	1.92860028e-02	2.81797953e-04
8.03000000e-01	1.92715819e-02	2.84097507e-04
8.04000000e-01	1.93133984e-02	2.88299386e-04
8.05000000e-01	1.91283553e-02	2.89191266e-04
8.06000000e-01	1.95007985e-02	2.96567515e-04
8.07000000e-01	1.95643781e-02	2.99965771e-04
8.08000000e-01	1.92898095e-02	3.00802050e-04
8.09000000e-01	1.93107094e-02	3.04120099e-04
8.10000000e-01	1.93332934e-02	3.07556825e-04
8.11000000e-01	1.91737121e-02	3.08038936e-04
8.12000000e-01	1.92419507e-02	3.12834615e-04
8.13000000e-01	1.92121139e-02	3.17134945e-04
8.14000000e-01	1.91316930e-02	3.18884389e-04
8.15000000e-01	1.90773666e-02	3.22289573e-04
8.16000000e-01	1.91586499e-02	3.27184291e-04
8.17000000e-01	1.91509933e-02	3.30916702e-04
8.18000000e-01	1.94852253e-02	3.40933228e-04
8.19000000e-01	1.88285022e-02	3.33843670e-04
8.20000000e-01	1.88785736e-02	3.39084482e-04
8.21000000e-01	1.91096019e-02	3.45932400e-04
8.22000000e-01	1.86780516e-02	3.44901004e-04
8.23000000e-01	1.89583419e-02	3.54615112e-04
8.24000000e-01	1.91307816e-02	3.63034185e-04
8.25000000e-01	1.87332957e-02	3.58926860e-04
8.26000000e-01	1.89606430e-02	3.68499107e-04
8.27000000e-01	1.85480357e-02	3.66100720e-04
8.28000000e-01	1.87538075e-02	3.77469505e-04
8.29000000e-01	1.85885789e-02	3.77977494e-04
8.30000000e-01	1.82976466e-02	3.76711667e-04
8.31000000e-01	1.87456754e-02	3.92606694e-04
8.32000000e-01	1.87668186e-02	4.00343277e-04
8.33000000e-01	1.85192216e-02	4.03142081e-04
8.34000000e-01	1.87263154e-02	4.14458539e-04
8.35000000e-01	1.87977431e-02	4.24158773e-04
8.36000000e-01	1.87838007e-02	4.29571084e-04
8.37000000e-01	1.80962305e-02	4.24845588e-04
8.38000000e-01	1.81302629e-02	4.30557559e-04
8.39000000e-01	1.83376719e-02	4.49192472e-04
8.40000000e-01	1.81864174e-02	4.52582311e-04
8.41000000e-01	1.82869663e-02	4.67727464e-04
8.42000000e-01	1.85154826e-02	4.84906304e-04
8.43000000e-01	1.84514950e-02	4.92493767e-04
8.44000000e-01	1.84791214e-02	5.03520792e-04
8.45000000e-01	1.81730770e-02	5.10348390e-04
8.46000000e-01	1.85891529e-02	5.39039513e-04
8.47000000e-01	1.78448032e-02	5.32530749e-04
8.48000000e-01	1.85354615e-02	5.65309884e-04
8.49000000e-01	1.82044360e-02	5.74974674e-04
8.50000000e-01	1.82166858e-02	5.93110156e-04
8.51000000e-01	1.81550975e-02	6.19349749e-04
8.52000000e-01	1.78979965e-02	6.39814715e-04
8.53000000e-01	1.77417316e-02	6.52491489e-04
8.54000000e-01	1.79388647e-02	6.80878522e-04
8.55000000e-01	1.82943273e-02	7.22470321e-04
8.56000000e-01	1.75961668e-02	7.16180789e-04
8.57000000e-01	1.81746224e-02	7.58824624e-04
8.58000000e-01	1.79244574e-02	7.69162074e-04
8.59000000e-01	1.77279863e-02	7.94537374e-04
8.60000000e-01	1.76172669e-02	8.01648032e-04
8.61000000e-01	1.70965470e-02	8.18815245e-04
8.62000000e-01	1.77932210e-02	8.77523196e-04
8.63000000e-01	1.68965545e-02	8.69619794e-04
8.64000000e-01	1.88714932e-02	1.02478874e-03
8.65000000e-01	1.75102246e-02	9.91972640e-04
8.66000000e-01	1.74685135e-02	1.04777647e-03
8.67000000e-01	1.82884073e-02	1.14385298e-03
8.68000000e-01	1.85706743e-02	1.24794004e-03
8.69000000e-01	1.84245502e-02	1.30948419e-03
8.70000000e-01	1.76247797e-02	1.37235415e-03
8.71000000e-01	1.86850812e-02	1.60325246e-03
8.72000000e-01	1.79827302e-02	1.74821223e-03
8.73000000e-01	1.89661563e-02	2.16067516e-03
8.74000000e-01	1.70743939e-02	2.49705122e-03
8.75000000e-01	1.75630252e-02	5.41329001e-03
