% Filename : SB3_00041_00029.h5
% Date & Time : 30-Oct-2025 17:58:10
% X-ray Energy (keV) : 13.30001
% Exposure Time (s) : 0.500
% Beam Center : 1461.24000, 208.98300
% Sample to Detector Distance (SDD) (mm) : 1990.750
% Detector Pixel Size (mm) : 0.075
% Photodiode Value : 140718.000
% I0 of Sample : 0
% I0 of Standard : 1
% 
% q(A^-1)   I(q)    I(q)_SE
0.00000000e+00	1.28389785e-02	7.03221058e-03
2.50000000e-04	0.00000000e+00	0.00000000e+00
5.00000000e-04	0.00000000e+00	0.00000000e+00
7.50000000e-04	0.00000000e+00	0.00000000e+00
1.00000000e-03	0.00000000e+00	0.00000000e+00
1.25000000e-03	0.00000000e+00	0.00000000e+00
1.50000000e-03	0.00000000e+00	0.00000000e+00
1.75000000e-03	0.00000000e+00	0.00000000e+00
2.00000000e-03	0.00000000e+00	0.00000000e+00
2.25000000e-03	0.00000000e+00	0.00000000e+00
2.50000000e-03	0.00000000e+00	0.00000000e+00
2.75000000e-03	0.00000000e+00	0.00000000e+00
3.00000000e-03	0.00000000e+00	0.00000000e+00
3.25000000e-03	4.58951746e+03	2.76394289e+03
3.50000000e-03	2.82715274e+03	6.95013970e+02
3.75000000e-03	2.00460988e+03	4.09424271e+02
4.00000000e-03	1.47622207e+03	2.68996347e+02
4.25000000e-03	1.00611184e+03	1.52343229e+02
4.50000000e-03	9.71007315e+02	1.30535819e+02
4.75000000e-03	8.52160305e+02	1.05222833e+02
5.00000000e-03	6.68943792e+02	7.81345344e+01
5.25000000e-03	5.51160672e+02	6.37750534e+01
5.50000000e-03	4.52796736e+02	5.01516501e+01
5.75000000e-03	3.83206289e+02	4.14242660e+01
6.00000000e-03	3.13632184e+02	3.25003501e+01
6.25000000e-03	2.65253648e+02	2.74994978e+01
6.50000000e-03	2.23954970e+02	2.24886972e+01
6.75000000e-03	1.94081041e+02	1.91422545e+01
7.00000000e-03	1.70854998e+02	1.63115403e+01
7.25000000e-03	1.46091141e+02	1.36333345e+01
7.50000000e-03	1.25902822e+02	1.17129494e+01
7.75000000e-03	1.09027755e+02	9.85828417e+00
8.00000000e-03	9.88646282e+01	8.83608643e+00
8.25000000e-03	8.67603984e+01	7.47865726e+00
8.50000000e-03	7.64568965e+01	6.44548319e+00
8.75000000e-03	6.84452932e+01	5.73411500e+00
9.00000000e-03	6.12733766e+01	5.05263771e+00
9.25000000e-03	5.46422097e+01	4.39900133e+00
9.50000000e-03	4.87705117e+01	3.83672575e+00
9.75000000e-03	4.40112203e+01	3.43628540e+00
1.00000000e-02	3.98205411e+01	3.06017382e+00
1.02500000e-02	3.57880362e+01	2.74986083e+00
1.05000000e-02	3.28919063e+01	2.42180461e+00
1.07500000e-02	2.97322447e+01	2.18696419e+00
1.10000000e-02	2.71535805e+01	1.94094405e+00
1.12500000e-02	2.48763769e+01	1.82384290e+00
1.15000000e-02	2.28448817e+01	1.63384966e+00
1.17500000e-02	2.08234806e+01	1.44641036e+00
1.20000000e-02	1.93904211e+01	1.34428682e+00
1.22500000e-02	1.78537401e+01	1.21207812e+00
1.25000000e-02	1.66146580e+01	1.12874354e+00
1.27500000e-02	1.54373612e+01	1.03405437e+00
1.30000000e-02	1.42220041e+01	9.35749497e-01
1.32500000e-02	1.30834224e+01	8.38822297e-01
1.35000000e-02	1.22780685e+01	7.89929030e-01
1.37500000e-02	1.13810051e+01	7.27648622e-01
1.40000000e-02	1.05657556e+01	6.65549303e-01
1.42500000e-02	9.87979167e+00	6.11395330e-01
1.45000000e-02	9.20268893e+00	5.65877092e-01
1.47500000e-02	8.61266960e+00	5.27210184e-01
1.50000000e-02	8.12178252e+00	4.93833211e-01
1.52500000e-02	7.63341528e+00	4.58025664e-01
1.55000000e-02	7.10219107e+00	4.17507737e-01
1.57500000e-02	6.63059455e+00	3.89587161e-01
1.60000000e-02	6.26086414e+00	3.60787437e-01
1.62500000e-02	5.93495684e+00	3.46634154e-01
1.65000000e-02	5.55142765e+00	3.17419379e-01
1.67500000e-02	5.29144648e+00	2.98223075e-01
1.70000000e-02	4.97948032e+00	2.79389694e-01
1.72500000e-02	4.73078095e+00	2.64009424e-01
1.75000000e-02	4.45122558e+00	2.47431800e-01
1.77500000e-02	4.17794045e+00	2.27300239e-01
1.80000000e-02	3.99299933e+00	2.17835862e-01
1.82500000e-02	3.77481268e+00	2.00226392e-01
1.85000000e-02	3.59411310e+00	1.95441369e-01
1.87500000e-02	3.40986217e+00	1.80997403e-01
1.90000000e-02	3.24684238e+00	1.71903104e-01
1.92500000e-02	3.08736587e+00	1.60219655e-01
1.95000000e-02	2.94199803e+00	1.52218815e-01
1.97500000e-02	2.79444488e+00	1.45290354e-01
2.00000000e-02	2.66112870e+00	1.36702965e-01
2.02500000e-02	2.53681187e+00	1.29672671e-01
2.05000000e-02	2.43665150e+00	1.21702009e-01
2.07500000e-02	2.31035396e+00	1.15606351e-01
2.10000000e-02	2.23967717e+00	1.12530474e-01
2.12500000e-02	2.17114902e+00	1.08944899e-01
2.15000000e-02	2.06889350e+00	1.03173054e-01
2.17500000e-02	2.01490216e+00	1.00771771e-01
2.20000000e-02	1.93496300e+00	9.69558328e-02
2.22500000e-02	1.85313479e+00	9.21884050e-02
2.25000000e-02	1.79387180e+00	9.02576493e-02
2.27500000e-02	1.71534656e+00	8.49149601e-02
2.30000000e-02	1.67404727e+00	8.37645895e-02
2.32500000e-02	1.59617734e+00	7.87391592e-02
2.35000000e-02	1.54329303e+00	7.71502392e-02
2.37500000e-02	1.49322599e+00	7.39137327e-02
2.40000000e-02	1.42682124e+00	7.13110590e-02
2.42500000e-02	1.39089445e+00	6.87064034e-02
2.45000000e-02	1.33626111e+00	6.62074605e-02
2.47500000e-02	1.28573653e+00	6.29564268e-02
2.50000000e-02	1.23756812e+00	6.06440399e-02
2.52500000e-02	1.19879755e+00	5.92033166e-02
2.55000000e-02	1.16768724e+00	5.63925715e-02
2.57500000e-02	1.11799418e+00	5.43796001e-02
2.60000000e-02	1.07582297e+00	5.17769026e-02
2.62500000e-02	1.05020779e+00	5.12133002e-02
2.65000000e-02	1.00502156e+00	4.85871501e-02
2.67500000e-02	9.77156410e-01	4.67858342e-02
2.70000000e-02	9.46001637e-01	4.55005487e-02
2.72500000e-02	9.20104131e-01	4.36917675e-02
2.75000000e-02	8.89867402e-01	4.29238647e-02
2.77500000e-02	8.59404612e-01	4.14552750e-02
2.80000000e-02	8.28315631e-01	3.88992751e-02
2.82500000e-02	8.04506177e-01	3.78197395e-02
2.85000000e-02	7.84095427e-01	3.70518528e-02
2.87500000e-02	7.64203661e-01	3.61728299e-02
2.90000000e-02	7.41348308e-01	3.51467104e-02
2.92500000e-02	7.19578521e-01	3.30151018e-02
2.95000000e-02	7.00077311e-01	3.29211326e-02
2.97500000e-02	6.76032586e-01	3.14303470e-02
3.00000000e-02	6.58727072e-01	3.07441987e-02
3.02500000e-02	6.38340733e-01	2.97144955e-02
3.05000000e-02	6.17780451e-01	2.80055061e-02
3.07500000e-02	6.07143301e-01	2.79734594e-02
3.10000000e-02	5.87818365e-01	2.70034130e-02
3.12500000e-02	5.72732232e-01	2.66315971e-02
3.15000000e-02	5.54233008e-01	2.54051724e-02
3.17500000e-02	5.42715988e-01	2.43893635e-02
3.20000000e-02	5.28367795e-01	2.40701067e-02
3.22500000e-02	5.15232162e-01	2.34111608e-02
3.25000000e-02	5.00110117e-01	2.27958972e-02
3.27500000e-02	4.86022948e-01	2.18858037e-02
3.30000000e-02	4.76319590e-01	2.13233382e-02
3.32500000e-02	4.64424828e-01	2.06913864e-02
3.35000000e-02	4.56315068e-01	2.06568885e-02
3.37500000e-02	4.42493635e-01	1.97491183e-02
3.40000000e-02	4.33005613e-01	1.93745467e-02
3.42500000e-02	4.19932805e-01	1.84867940e-02
3.45000000e-02	4.09543851e-01	1.81945792e-02
3.47500000e-02	4.00988867e-01	1.77282903e-02
3.50000000e-02	3.90777033e-01	1.72427327e-02
3.52500000e-02	3.84292846e-01	1.69777210e-02
3.55000000e-02	3.73163464e-01	1.61416654e-02
3.57500000e-02	3.63284522e-01	1.59760380e-02
3.60000000e-02	3.56112130e-01	1.55810635e-02
3.62500000e-02	3.46622965e-01	1.51919588e-02
3.65000000e-02	3.39787839e-01	1.48124576e-02
3.67500000e-02	3.34895826e-01	1.45033713e-02
3.70000000e-02	3.26481829e-01	1.41220780e-02
3.72500000e-02	3.20515873e-01	1.37804710e-02
3.75000000e-02	3.10050955e-01	1.34294584e-02
3.77500000e-02	3.04734241e-01	1.31004876e-02
3.80000000e-02	3.01242804e-01	1.28852122e-02
3.82500000e-02	2.91927842e-01	1.24149745e-02
3.85000000e-02	2.85281103e-01	1.22400754e-02
3.87500000e-02	2.76584960e-01	1.17350729e-02
3.90000000e-02	2.73625994e-01	1.16801667e-02
3.92500000e-02	2.66251732e-01	1.12126772e-02
3.95000000e-02	2.62729898e-01	1.10706087e-02
3.97500000e-02	2.59223771e-01	1.09463561e-02
4.00000000e-02	2.51170186e-01	1.05508141e-02
4.02500000e-02	2.48118261e-01	1.04083281e-02
4.05000000e-02	2.41607018e-01	1.00460366e-02
4.07500000e-02	2.40415666e-01	9.93504074e-03
4.10000000e-02	2.36079281e-01	9.87856754e-03
4.12500000e-02	2.29435963e-01	9.54325792e-03
4.15000000e-02	2.26494402e-01	9.30731509e-03
4.17500000e-02	2.22680621e-01	9.14293015e-03
4.20000000e-02	2.18253417e-01	8.90504249e-03
4.22500000e-02	2.14440264e-01	8.73515609e-03
4.25000000e-02	2.08968858e-01	8.52280938e-03
4.27500000e-02	2.06723326e-01	8.38086429e-03
4.30000000e-02	2.01443010e-01	8.17666541e-03
4.32500000e-02	1.98729657e-01	8.01005626e-03
4.35000000e-02	1.94118395e-01	7.91833346e-03
4.37500000e-02	1.91928012e-01	7.66897831e-03
4.40000000e-02	1.89769571e-01	7.66367088e-03
4.42500000e-02	1.83779884e-01	7.39891403e-03
4.45000000e-02	1.81739293e-01	7.24086226e-03
4.47500000e-02	1.79166478e-01	7.12926456e-03
4.50000000e-02	1.78110337e-01	7.12683261e-03
4.52500000e-02	1.74244610e-01	6.93066694e-03
4.55000000e-02	1.69788677e-01	6.70664062e-03
4.57500000e-02	1.66907573e-01	6.58022452e-03
4.60000000e-02	1.64678433e-01	6.50094593e-03
4.62500000e-02	1.62200125e-01	6.37057767e-03
4.65000000e-02	1.61836656e-01	6.37889278e-03
4.67500000e-02	1.57915928e-01	6.14920749e-03
4.70000000e-02	1.55467073e-01	6.07277462e-03
4.72500000e-02	1.53592206e-01	5.99562388e-03
4.75000000e-02	1.51494854e-01	5.94079362e-03
4.77500000e-02	1.47625277e-01	5.68816643e-03
4.80000000e-02	1.48477639e-01	5.75550871e-03
4.82500000e-02	1.44708653e-01	5.59205373e-03
4.85000000e-02	1.42827680e-01	5.56014239e-03
4.87500000e-02	1.42655329e-01	5.51082508e-03
4.90000000e-02	1.37780058e-01	5.27655959e-03
4.92500000e-02	1.37164905e-01	5.24276060e-03
4.95000000e-02	1.33530155e-01	5.10441130e-03
4.97500000e-02	1.32092740e-01	5.07157686e-03
5.00000000e-02	1.30233612e-01	4.96157059e-03
5.02500000e-02	1.29387574e-01	4.87208250e-03
5.05000000e-02	1.27877040e-01	4.83176161e-03
5.07500000e-02	1.25542755e-01	4.74851831e-03
5.10000000e-02	1.22889271e-01	4.64012922e-03
5.12500000e-02	1.21591659e-01	4.60010678e-03
5.15000000e-02	1.20230481e-01	4.50011563e-03
5.17500000e-02	1.17826761e-01	4.43183888e-03
5.20000000e-02	1.16586829e-01	4.35406443e-03
5.22500000e-02	1.16293210e-01	4.37786886e-03
5.25000000e-02	1.14022634e-01	4.22658901e-03
5.27500000e-02	1.13349798e-01	4.21219054e-03
5.30000000e-02	1.12469196e-01	4.18739113e-03
5.32500000e-02	1.10438699e-01	4.09835879e-03
5.35000000e-02	1.09918581e-01	4.08966297e-03
5.37500000e-02	1.08591009e-01	3.99786005e-03
5.40000000e-02	1.07507027e-01	3.95167814e-03
5.42500000e-02	1.04602281e-01	3.83929034e-03
5.45000000e-02	1.04581445e-01	3.85504056e-03
5.47500000e-02	1.02168330e-01	3.74256313e-03
5.50000000e-02	1.01924197e-01	3.72808271e-03
5.52500000e-02	9.98591717e-02	3.62414459e-03
5.55000000e-02	9.84476153e-02	3.56816421e-03
5.57500000e-02	9.90511608e-02	3.61838717e-03
5.60000000e-02	9.76606552e-02	3.52074414e-03
5.62500000e-02	9.49125713e-02	3.44812732e-03
5.65000000e-02	9.62489327e-02	3.47633949e-03
5.67500000e-02	9.40031221e-02	3.40007731e-03
5.70000000e-02	9.18906755e-02	3.29580176e-03
5.72500000e-02	9.24812060e-02	3.33625232e-03
5.75000000e-02	9.05775495e-02	3.25763721e-03
5.77500000e-02	9.01667558e-02	3.19696880e-03
5.80000000e-02	8.95356800e-02	3.21019361e-03
5.82500000e-02	8.80186128e-02	3.13378969e-03
5.85000000e-02	8.79884198e-02	3.13465947e-03
5.87500000e-02	8.58294868e-02	3.04042837e-03
5.90000000e-02	8.60427511e-02	3.07049812e-03
5.92500000e-02	8.58595583e-02	3.02833531e-03
5.95000000e-02	8.48846334e-02	2.99111951e-03
5.97500000e-02	8.40345512e-02	2.98653358e-03
6.00000000e-02	8.22829676e-02	2.89627432e-03
6.02500000e-02	8.08833796e-02	2.84614222e-03
6.05000000e-02	8.19415708e-02	2.86575019e-03
6.07500000e-02	8.04087134e-02	2.82002180e-03
6.10000000e-02	7.91284120e-02	2.76510077e-03
6.12500000e-02	7.89633512e-02	2.76617548e-03
6.15000000e-02	7.72889415e-02	2.69188134e-03
6.17500000e-02	7.78419729e-02	2.69091803e-03
6.20000000e-02	7.67717575e-02	2.67040850e-03
6.22500000e-02	7.59227760e-02	2.63795715e-03
6.25000000e-02	7.60351481e-02	2.63857816e-03
6.27500000e-02	7.55292304e-02	2.60075517e-03
6.30000000e-02	7.51442230e-02	2.59602146e-03
6.32500000e-02	7.39259771e-02	2.55067271e-03
6.35000000e-02	7.55138468e-02	2.59206225e-03
6.37500000e-02	7.41730175e-02	2.56792106e-03
6.40000000e-02	7.45529876e-02	2.56314005e-03
6.42500000e-02	7.42490541e-02	2.52032338e-03
6.45000000e-02	7.56373903e-02	2.57214688e-03
6.47500000e-02	7.62693724e-02	2.59375393e-03
6.50000000e-02	7.74586118e-02	2.63728575e-03
6.52500000e-02	7.81858848e-02	2.63606334e-03
6.55000000e-02	7.81183709e-02	2.64565482e-03
6.57500000e-02	8.00114540e-02	2.69765271e-03
6.60000000e-02	8.15608242e-02	2.74951706e-03
6.62500000e-02	8.59540703e-02	2.91424865e-03
6.65000000e-02	9.50361229e-02	3.19644623e-03
6.67500000e-02	1.06411682e-01	3.66723202e-03
6.70000000e-02	1.23032466e-01	4.41609548e-03
6.72500000e-02	1.40784548e-01	5.28787919e-03
6.75000000e-02	1.37879330e-01	5.13700450e-03
6.77500000e-02	1.35144141e-01	4.89717093e-03
6.80000000e-02	1.24925587e-01	4.45008386e-03
6.82500000e-02	1.15818578e-01	3.93048426e-03
6.85000000e-02	1.09395749e-01	3.70183076e-03
6.87500000e-02	1.04650719e-01	3.49865979e-03
6.90000000e-02	1.00945262e-01	3.34619619e-03
6.92500000e-02	9.53871922e-02	3.15361715e-03
6.95000000e-02	9.15812982e-02	3.02158225e-03
6.97500000e-02	8.51890291e-02	2.79821902e-03
7.00000000e-02	8.16816212e-02	2.65712998e-03
7.02500000e-02	7.81307060e-02	2.54105568e-03
7.05000000e-02	7.59499186e-02	2.50295333e-03
7.07500000e-02	7.31263360e-02	2.43008435e-03
7.10000000e-02	6.74385497e-02	2.19810120e-03
7.12500000e-02	6.39990424e-02	2.08327227e-03
7.15000000e-02	6.21131919e-02	2.01861418e-03
7.17500000e-02	6.11812074e-02	2.00024889e-03
7.20000000e-02	5.91098467e-02	1.93629236e-03
7.22500000e-02	5.80535336e-02	1.89303836e-03
7.25000000e-02	5.69111007e-02	1.85132369e-03
7.27500000e-02	5.75286128e-02	1.87209709e-03
7.30000000e-02	5.48559162e-02	1.77960505e-03
7.32500000e-02	5.56578021e-02	1.79744046e-03
7.35000000e-02	5.53503153e-02	1.80292583e-03
7.37500000e-02	5.36620705e-02	1.74175332e-03
7.40000000e-02	5.41594485e-02	1.74977367e-03
7.42500000e-02	5.26351689e-02	1.70818502e-03
7.45000000e-02	5.28028437e-02	1.71084904e-03
7.47500000e-02	5.26971437e-02	1.69723697e-03
7.50000000e-02	5.18377720e-02	1.66991498e-03
7.52500000e-02	5.18100409e-02	1.67103469e-03
7.55000000e-02	5.05640892e-02	1.62176597e-03
7.57500000e-02	5.13203401e-02	1.65066438e-03
7.60000000e-02	5.08594133e-02	1.64212181e-03
7.62500000e-02	4.99215247e-02	1.60437350e-03
7.65000000e-02	5.00045540e-02	1.60640725e-03
7.67500000e-02	4.97955999e-02	1.58937507e-03
7.70000000e-02	4.88778552e-02	1.55897813e-03
7.72500000e-02	4.96176054e-02	1.61011471e-03
7.75000000e-02	4.86479305e-02	1.59581104e-03
7.77500000e-02	5.01748819e-02	1.64955470e-03
7.80000000e-02	4.84332379e-02	1.59845192e-03
7.82500000e-02	4.84336606e-02	1.61543245e-03
7.85000000e-02	4.80430915e-02	1.60417254e-03
7.87500000e-02	4.82916306e-02	1.60844955e-03
7.90000000e-02	4.83385513e-02	1.62010612e-03
7.92500000e-02	4.81664139e-02	1.62215723e-03
7.95000000e-02	4.77222287e-02	1.61023412e-03
7.97500000e-02	4.78941337e-02	1.62973299e-03
8.00000000e-02	4.78177406e-02	1.61492580e-03
8.02500000e-02	4.81014293e-02	1.64114856e-03
8.05000000e-02	4.68326974e-02	1.58698911e-03
8.07500000e-02	4.74409552e-02	1.62197634e-03
8.10000000e-02	4.67438534e-02	1.59860841e-03
8.12500000e-02	4.69294088e-02	1.60833162e-03
8.15000000e-02	4.64573551e-02	1.58902320e-03
8.17500000e-02	4.69439153e-02	1.62127328e-03
8.20000000e-02	4.61935957e-02	1.58610588e-03
8.22500000e-02	4.59272933e-02	1.59056137e-03
8.25000000e-02	4.50554350e-02	1.55703982e-03
8.27500000e-02	4.56226353e-02	1.57533425e-03
8.30000000e-02	4.50178246e-02	1.56608602e-03
8.32500000e-02	4.45918479e-02	1.55128496e-03
8.35000000e-02	4.50607350e-02	1.57442340e-03
8.37500000e-02	4.43760445e-02	1.53633860e-03
8.40000000e-02	4.44357017e-02	1.54553914e-03
8.42500000e-02	4.33571789e-02	1.52073431e-03
8.45000000e-02	4.35137681e-02	1.52968467e-03
8.47500000e-02	4.34099749e-02	1.53026626e-03
8.50000000e-02	4.35019799e-02	1.52502670e-03
8.52500000e-02	4.31616771e-02	1.52550756e-03
8.55000000e-02	4.42220742e-02	1.54954439e-03
8.57500000e-02	4.26509661e-02	1.51049809e-03
8.60000000e-02	4.26180430e-02	1.51445012e-03
8.62500000e-02	4.27162951e-02	1.50877713e-03
8.65000000e-02	4.21213673e-02	1.48594059e-03
8.67500000e-02	4.26634301e-02	1.48888823e-03
8.70000000e-02	4.25871260e-02	1.47269503e-03
8.72500000e-02	4.18773007e-02	1.42793915e-03
8.75000000e-02	4.16754365e-02	1.40447141e-03
8.77500000e-02	4.21501437e-02	1.41510793e-03
8.80000000e-02	4.11677106e-02	1.38868588e-03
8.82500000e-02	4.11242961e-02	1.37400390e-03
8.85000000e-02	4.01237159e-02	1.34087881e-03
8.87500000e-02	4.09862169e-02	1.34536030e-03
8.90000000e-02	4.00072415e-02	1.32187944e-03
8.92500000e-02	3.98605206e-02	1.31943537e-03
8.95000000e-02	3.97422903e-02	1.30219769e-03
8.97500000e-02	3.98553107e-02	1.29540386e-03
9.00000000e-02	3.91990339e-02	1.26621550e-03
9.02500000e-02	3.96486941e-02	1.28830176e-03
9.05000000e-02	3.94086713e-02	1.28073497e-03
9.07500000e-02	3.86554086e-02	1.24954481e-03
9.10000000e-02	3.91425314e-02	1.25148472e-03
9.12500000e-02	3.83991152e-02	1.22852983e-03
9.15000000e-02	3.82010071e-02	1.22461238e-03
9.17500000e-02	3.85545731e-02	1.24196850e-03
9.20000000e-02	3.77713763e-02	1.21209167e-03
9.22500000e-02	3.75439140e-02	1.19441134e-03
9.25000000e-02	3.78125507e-02	1.19553970e-03
9.27500000e-02	3.80423006e-02	1.20458029e-03
9.30000000e-02	3.82443574e-02	1.20675043e-03
9.32500000e-02	3.79384816e-02	1.19958452e-03
9.35000000e-02	3.76182511e-02	1.18431594e-03
9.37500000e-02	3.72473552e-02	1.17080837e-03
9.40000000e-02	3.71341922e-02	1.17214412e-03
9.42500000e-02	3.66118154e-02	1.15332091e-03
9.45000000e-02	3.70305933e-02	1.15786012e-03
9.47500000e-02	3.68415576e-02	1.15312510e-03
9.50000000e-02	3.73523646e-02	1.15966760e-03
9.52500000e-02	3.71029974e-02	1.15394070e-03
9.55000000e-02	3.70220389e-02	1.14771780e-03
9.57500000e-02	3.64717655e-02	1.13412509e-03
9.60000000e-02	3.67403475e-02	1.14137808e-03
9.62500000e-02	3.62103248e-02	1.11806280e-03
9.65000000e-02	3.59902479e-02	1.11222071e-03
9.67500000e-02	3.65461492e-02	1.12324364e-03
9.70000000e-02	3.64316357e-02	1.12712840e-03
9.72500000e-02	3.65566161e-02	1.12388126e-03
9.75000000e-02	3.52608372e-02	1.08385090e-03
9.77500000e-02	3.54916168e-02	1.08197875e-03
9.80000000e-02	3.51649273e-02	1.07884588e-03
9.82500000e-02	3.57165674e-02	1.09388543e-03
9.85000000e-02	3.52733291e-02	1.07805915e-03
9.87500000e-02	3.58136648e-02	1.08798987e-03
9.90000000e-02	3.48013597e-02	1.06292857e-03
9.92500000e-02	3.50348310e-02	1.07130765e-03
9.95000000e-02	3.45627014e-02	1.04595542e-03
9.97500000e-02	3.51350855e-02	1.05887312e-03
1.00000000e-01	3.52180194e-02	8.65923227e-04
1.00500000e-01	3.51152228e-02	7.54136490e-04
1.01000000e-01	3.49242309e-02	7.41828163e-04
1.01500000e-01	3.47004539e-02	7.38090898e-04
1.02000000e-01	3.44833848e-02	7.27176844e-04
1.02500000e-01	3.42753947e-02	7.22055738e-04
1.03000000e-01	3.42081795e-02	7.19696020e-04
1.03500000e-01	3.41157159e-02	7.16573989e-04
1.04000000e-01	3.40831925e-02	7.11835179e-04
1.04500000e-01	3.37650888e-02	7.06070424e-04
1.05000000e-01	3.40108201e-02	7.09506680e-04
1.05500000e-01	3.37238037e-02	7.00867263e-04
1.06000000e-01	3.31984676e-02	6.89379967e-04
1.06500000e-01	3.37707515e-02	6.96900600e-04
1.07000000e-01	3.30342360e-02	6.94465879e-04
1.07500000e-01	3.28965052e-02	7.00601933e-04
1.08000000e-01	3.30564864e-02	7.12329137e-04
1.08500000e-01	3.28349690e-02	7.12261001e-04
1.09000000e-01	3.23672434e-02	7.07462888e-04
1.09500000e-01	3.25364164e-02	7.12027407e-04
1.10000000e-01	3.27264049e-02	7.07696730e-04
1.10500000e-01	3.30353128e-02	6.99704042e-04
1.11000000e-01	3.32516764e-02	6.94492728e-04
1.11500000e-01	3.30406580e-02	6.86506742e-04
1.12000000e-01	3.34947599e-02	6.88042119e-04
1.12500000e-01	3.35792807e-02	6.85859761e-04
1.13000000e-01	3.31318102e-02	6.75623553e-04
1.13500000e-01	3.39556359e-02	6.88728055e-04
1.14000000e-01	3.38576820e-02	6.85994766e-04
1.14500000e-01	3.43570959e-02	6.92783547e-04
1.15000000e-01	3.42860928e-02	6.88757350e-04
1.15500000e-01	3.43477997e-02	6.90902032e-04
1.16000000e-01	3.47695252e-02	6.95916123e-04
1.16500000e-01	3.53094589e-02	7.01928669e-04
1.17000000e-01	3.59532312e-02	7.11980573e-04
1.17500000e-01	3.59447207e-02	7.11177833e-04
1.18000000e-01	3.53396253e-02	7.02446685e-04
1.18500000e-01	3.56361698e-02	7.01273899e-04
1.19000000e-01	3.59940586e-02	7.08629736e-04
1.19500000e-01	3.64323208e-02	7.14936398e-04
1.20000000e-01	3.69272754e-02	7.21621492e-04
1.20500000e-01	3.67292751e-02	7.16931880e-04
1.21000000e-01	3.69301393e-02	7.19523259e-04
1.21500000e-01	3.74306634e-02	7.29206104e-04
1.22000000e-01	3.78087839e-02	7.27862483e-04
1.22500000e-01	3.81332268e-02	7.36036860e-04
1.23000000e-01	3.85265895e-02	7.41961864e-04
1.23500000e-01	3.93904882e-02	7.52745277e-04
1.24000000e-01	4.05398888e-02	7.77836560e-04
1.24500000e-01	4.02991598e-02	7.70515338e-04
1.25000000e-01	4.09071504e-02	7.82026341e-04
1.25500000e-01	4.20272181e-02	7.98906618e-04
1.26000000e-01	4.26653907e-02	8.12070359e-04
1.26500000e-01	4.32532373e-02	8.18393419e-04
1.27000000e-01	4.34154868e-02	8.18607024e-04
1.27500000e-01	4.46125558e-02	8.38190248e-04
1.28000000e-01	4.51834924e-02	8.49316373e-04
1.28500000e-01	4.54699277e-02	8.51994138e-04
1.29000000e-01	4.60424740e-02	8.62419434e-04
1.29500000e-01	4.68224745e-02	8.72970641e-04
1.30000000e-01	4.71464567e-02	8.81462193e-04
1.30500000e-01	4.73798905e-02	8.81935572e-04
1.31000000e-01	4.74263964e-02	8.79251611e-04
1.31500000e-01	4.73974618e-02	8.77834517e-04
1.32000000e-01	4.74578861e-02	8.79051525e-04
1.32500000e-01	4.69400194e-02	8.64960200e-04
1.33000000e-01	4.68129802e-02	8.58839617e-04
1.33500000e-01	4.58296406e-02	8.38529598e-04
1.34000000e-01	4.55772579e-02	8.33631525e-04
1.34500000e-01	4.54645483e-02	8.25560915e-04
1.35000000e-01	4.47031723e-02	8.12333117e-04
1.35500000e-01	4.38805549e-02	7.96140151e-04
1.36000000e-01	4.28150053e-02	7.73400856e-04
1.36500000e-01	4.18155052e-02	7.60742421e-04
1.37000000e-01	4.13047948e-02	7.43236552e-04
1.37500000e-01	4.07219550e-02	7.34730029e-04
1.38000000e-01	3.92953753e-02	7.09922425e-04
1.38500000e-01	3.88997196e-02	7.01830146e-04
1.39000000e-01	3.72320103e-02	6.74757429e-04
1.39500000e-01	3.65564416e-02	6.57067616e-04
1.40000000e-01	3.55559491e-02	6.42433141e-04
1.40500000e-01	3.45630622e-02	6.22780103e-04
1.41000000e-01	3.39764919e-02	6.12143134e-04
1.41500000e-01	3.29148388e-02	5.94509173e-04
1.42000000e-01	3.19362180e-02	5.73924261e-04
1.42500000e-01	3.17375830e-02	5.72939182e-04
1.43000000e-01	3.10973722e-02	5.60630771e-04
1.43500000e-01	3.04402414e-02	5.44780974e-04
1.44000000e-01	3.02457900e-02	5.41614349e-04
1.44500000e-01	2.98191156e-02	5.32907060e-04
1.45000000e-01	2.91557502e-02	5.22606233e-04
1.45500000e-01	2.91756275e-02	5.21503878e-04
1.46000000e-01	2.84912150e-02	5.07943441e-04
1.46500000e-01	2.82476070e-02	5.04918901e-04
1.47000000e-01	2.79042232e-02	4.98362546e-04
1.47500000e-01	2.77885364e-02	4.95579885e-04
1.48000000e-01	2.75346401e-02	4.91745302e-04
1.48500000e-01	2.73508673e-02	4.86111080e-04
1.49000000e-01	2.69505705e-02	4.78336341e-04
1.49500000e-01	2.72704605e-02	4.82076125e-04
1.50000000e-01	2.67153847e-02	4.71802519e-04
1.50500000e-01	2.64991376e-02	4.70262278e-04
1.51000000e-01	2.62776951e-02	4.64981697e-04
1.51500000e-01	2.59976739e-02	4.58521712e-04
1.52000000e-01	2.58269243e-02	4.52995099e-04
1.52500000e-01	2.58955624e-02	4.56413180e-04
1.53000000e-01	2.58392557e-02	4.55545256e-04
1.53500000e-01	2.59163506e-02	4.53600055e-04
1.54000000e-01	2.57225406e-02	4.49420008e-04
1.54500000e-01	2.56410302e-02	4.56541970e-04
1.55000000e-01	2.53175102e-02	4.56616727e-04
1.55500000e-01	2.57819229e-02	4.68063072e-04
1.56000000e-01	2.51423417e-02	4.60345426e-04
1.56500000e-01	2.49915749e-02	4.59248059e-04
1.57000000e-01	2.47683491e-02	4.55324074e-04
1.57500000e-01	2.50004762e-02	4.50398106e-04
1.58000000e-01	2.49067474e-02	4.41013208e-04
1.58500000e-01	2.45926852e-02	4.34115860e-04
1.59000000e-01	2.44638555e-02	4.30712382e-04
1.59500000e-01	2.44336773e-02	4.28362213e-04
1.60000000e-01	2.43965566e-02	4.27457078e-04
1.60500000e-01	2.40259334e-02	4.18305432e-04
1.61000000e-01	2.42828052e-02	4.25787502e-04
1.61500000e-01	2.42364919e-02	4.21366319e-04
1.62000000e-01	2.42850099e-02	4.20684843e-04
1.62500000e-01	2.40571632e-02	4.16902428e-04
1.63000000e-01	2.41260684e-02	4.15761162e-04
1.63500000e-01	2.39855416e-02	4.18869013e-04
1.64000000e-01	2.38647209e-02	4.10045085e-04
1.64500000e-01	2.41033127e-02	4.15800780e-04
1.65000000e-01	2.38337076e-02	4.09410827e-04
1.65500000e-01	2.37166258e-02	4.06504664e-04
1.66000000e-01	2.38977577e-02	4.08278929e-04
1.66500000e-01	2.38177141e-02	4.05413067e-04
1.67000000e-01	2.36999407e-02	4.06460448e-04
1.67500000e-01	2.36991436e-02	4.03738664e-04
1.68000000e-01	2.37010023e-02	4.04041935e-04
1.68500000e-01	2.37954199e-02	4.03794793e-04
1.69000000e-01	2.37091102e-02	4.03550303e-04
1.69500000e-01	2.35004297e-02	3.97726012e-04
1.70000000e-01	2.33306435e-02	3.96395266e-04
1.70500000e-01	2.32374113e-02	3.94006211e-04
1.71000000e-01	2.33434247e-02	3.92706003e-04
1.71500000e-01	2.34411107e-02	3.95674784e-04
1.72000000e-01	2.34365463e-02	3.95141390e-04
1.72500000e-01	2.29387712e-02	3.85231299e-04
1.73000000e-01	2.31346040e-02	3.88313008e-04
1.73500000e-01	2.33155761e-02	3.89183608e-04
1.74000000e-01	2.33930911e-02	3.91069645e-04
1.74500000e-01	2.30775001e-02	3.84472693e-04
1.75000000e-01	2.30830196e-02	3.83208018e-04
1.75500000e-01	2.30002665e-02	3.80251739e-04
1.76000000e-01	2.27452634e-02	3.77957974e-04
1.76500000e-01	2.31429221e-02	3.82994030e-04
1.77000000e-01	2.26852209e-02	3.75613258e-04
1.77500000e-01	2.29193335e-02	3.78661202e-04
1.78000000e-01	2.29977299e-02	3.78435843e-04
1.78500000e-01	2.31366524e-02	3.81790082e-04
1.79000000e-01	2.27291657e-02	3.75780713e-04
1.79500000e-01	2.28312300e-02	3.77448830e-04
1.80000000e-01	2.29217370e-02	3.77315439e-04
1.80500000e-01	2.29892994e-02	3.78303110e-04
1.81000000e-01	2.31607335e-02	3.79769638e-04
1.81500000e-01	2.26086405e-02	3.70744448e-04
1.82000000e-01	2.30532259e-02	3.77583556e-04
1.82500000e-01	2.26995188e-02	3.70210373e-04
1.83000000e-01	2.29051308e-02	3.74280448e-04
1.83500000e-01	2.28973499e-02	3.74739364e-04
1.84000000e-01	2.27128376e-02	3.70453041e-04
1.84500000e-01	2.28284116e-02	3.72798081e-04
1.85000000e-01	2.26181094e-02	3.68694054e-04
1.85500000e-01	2.30078288e-02	3.73524314e-04
1.86000000e-01	2.28611313e-02	3.69856321e-04
1.86500000e-01	2.26549928e-02	3.66034744e-04
1.87000000e-01	2.25309269e-02	3.64663341e-04
1.87500000e-01	2.26556270e-02	3.65946456e-04
1.88000000e-01	2.25366689e-02	3.64229337e-04
1.88500000e-01	2.23727313e-02	3.60441772e-04
1.89000000e-01	2.26229551e-02	3.64778736e-04
1.89500000e-01	2.26321202e-02	3.64164587e-04
1.90000000e-01	2.25079522e-02	3.61672756e-04
1.90500000e-01	2.25133861e-02	3.61928591e-04
1.91000000e-01	2.24293210e-02	3.60425437e-04
1.91500000e-01	2.24034075e-02	3.59636993e-04
1.92000000e-01	2.25247923e-02	3.59197997e-04
1.92500000e-01	2.22341219e-02	3.56005793e-04
1.93000000e-01	2.24135211e-02	3.58231379e-04
1.93500000e-01	2.21838769e-02	3.53778776e-04
1.94000000e-01	2.24531594e-02	3.57551014e-04
1.94500000e-01	2.23510163e-02	3.54763169e-04
1.95000000e-01	2.21111081e-02	3.50571414e-04
1.95500000e-01	2.22899284e-02	3.52282614e-04
1.96000000e-01	2.22356448e-02	3.51293802e-04
1.96500000e-01	2.20841015e-02	3.49779873e-04
1.97000000e-01	2.22845443e-02	3.51855095e-04
1.97500000e-01	2.22352599e-02	3.50420705e-04
1.98000000e-01	2.24336243e-02	3.53068559e-04
1.98500000e-01	2.20788323e-02	3.47151638e-04
1.99000000e-01	2.20699101e-02	3.47372935e-04
1.99500000e-01	2.24729847e-02	3.53435214e-04
2.00000000e-01	2.20825853e-02	3.47811577e-04
2.00500000e-01	2.19657509e-02	3.44261482e-04
2.01000000e-01	2.20456226e-02	3.44515283e-04
2.01500000e-01	2.20146349e-02	3.44672020e-04
2.02000000e-01	2.21283170e-02	3.45563784e-04
2.02500000e-01	2.20793563e-02	3.43482178e-04
2.03000000e-01	2.18916007e-02	3.41682873e-04
2.03500000e-01	2.19300952e-02	3.41807648e-04
2.04000000e-01	2.19125549e-02	3.40029644e-04
2.04500000e-01	2.21924120e-02	3.44873802e-04
2.05000000e-01	2.23191552e-02	3.44670059e-04
2.05500000e-01	2.20331200e-02	3.42096017e-04
2.06000000e-01	2.18376003e-02	3.37756351e-04
2.06500000e-01	2.17955737e-02	3.37264049e-04
2.07000000e-01	2.20298149e-02	3.39347142e-04
2.07500000e-01	2.16887752e-02	3.34411824e-04
2.08000000e-01	2.17921990e-02	3.35978618e-04
2.08500000e-01	2.17740139e-02	3.34505547e-04
2.09000000e-01	2.19532872e-02	3.38011851e-04
2.09500000e-01	2.18848156e-02	3.35160302e-04
2.10000000e-01	2.18977508e-02	3.36467474e-04
2.10500000e-01	2.16316860e-02	3.30757569e-04
2.11000000e-01	2.16993747e-02	3.30785245e-04
2.11500000e-01	2.16987214e-02	3.32262500e-04
2.12000000e-01	2.20439887e-02	3.34897684e-04
2.12500000e-01	2.15732375e-02	3.28608828e-04
2.13000000e-01	2.15815341e-02	3.28338858e-04
2.13500000e-01	2.14131845e-02	3.26401186e-04
2.14000000e-01	2.15503085e-02	3.27146962e-04
2.14500000e-01	2.14899979e-02	3.25433018e-04
2.15000000e-01	2.15441002e-02	3.28812942e-04
2.15500000e-01	2.13032795e-02	3.22094036e-04
2.16000000e-01	2.14624603e-02	3.25155808e-04
2.16500000e-01	2.14961871e-02	3.24656296e-04
2.17000000e-01	2.11149784e-02	3.24138746e-04
2.17500000e-01	2.11600324e-02	3.28856757e-04
2.18000000e-01	2.13981893e-02	3.34509896e-04
2.18500000e-01	2.13070198e-02	3.34458325e-04
2.19000000e-01	2.13758474e-02	3.36339614e-04
2.19500000e-01	2.11967868e-02	3.35528517e-04
2.20000000e-01	2.13114504e-02	3.39418046e-04
2.20500000e-01	2.12568269e-02	3.38196245e-04
2.21000000e-01	2.12900373e-02	3.41213360e-04
2.21500000e-01	2.11653305e-02	3.39496366e-04
2.22000000e-01	2.12625861e-02	3.40630745e-04
2.22500000e-01	2.12078432e-02	3.41928499e-04
2.23000000e-01	2.12858790e-02	3.43845521e-04
2.23500000e-01	2.12019427e-02	3.42888890e-04
2.24000000e-01	2.11962437e-02	3.42176639e-04
2.24500000e-01	2.09333260e-02	3.40594667e-04
2.25000000e-01	2.10616497e-02	3.43185766e-04
2.25500000e-01	2.10988419e-02	3.43003493e-04
2.26000000e-01	2.10271655e-02	3.44401282e-04
2.26500000e-01	2.12074465e-02	3.41168813e-04
2.27000000e-01	2.10716536e-02	3.35514974e-04
2.27500000e-01	2.10120926e-02	3.32652517e-04
2.28000000e-01	2.07767143e-02	3.27052920e-04
2.28500000e-01	2.12050786e-02	3.31498747e-04
2.29000000e-01	2.10956092e-02	3.28202375e-04
2.29500000e-01	2.10517281e-02	3.25904435e-04
2.30000000e-01	2.13547914e-02	3.31121486e-04
2.30500000e-01	2.07889865e-02	3.20052996e-04
2.31000000e-01	2.10072173e-02	3.24029622e-04
2.31500000e-01	2.08105381e-02	3.20583086e-04
2.32000000e-01	2.12042463e-02	3.25143760e-04
2.32500000e-01	2.13131774e-02	3.26146201e-04
2.33000000e-01	2.07098121e-02	3.15903234e-04
2.33500000e-01	2.11723448e-02	3.22208931e-04
2.34000000e-01	2.06551396e-02	3.14260704e-04
2.34500000e-01	2.10629374e-02	3.19224659e-04
2.35000000e-01	2.07456093e-02	3.14488706e-04
2.35500000e-01	2.07743422e-02	3.14306752e-04
2.36000000e-01	2.07073695e-02	3.14114189e-04
2.36500000e-01	2.08002879e-02	3.13956603e-04
2.37000000e-01	2.06551570e-02	3.10201060e-04
2.37500000e-01	2.04659583e-02	3.07867447e-04
2.38000000e-01	2.05656467e-02	3.08078169e-04
2.38500000e-01	2.08253285e-02	3.11588056e-04
2.39000000e-01	2.08466947e-02	3.11075304e-04
2.39500000e-01	2.07728506e-02	3.09715847e-04
2.40000000e-01	2.03792993e-02	3.03779509e-04
2.40500000e-01	2.07701786e-02	3.07430922e-04
2.41000000e-01	2.07870549e-02	3.09915505e-04
2.41500000e-01	2.06489074e-02	3.05334721e-04
2.42000000e-01	2.06728526e-02	3.06280023e-04
2.42500000e-01	2.07745378e-02	3.06036243e-04
2.43000000e-01	2.05978240e-02	3.04028248e-04
2.43500000e-01	2.05243950e-02	3.02271449e-04
2.44000000e-01	2.05393480e-02	3.01796003e-04
2.44500000e-01	2.05970588e-02	3.01988898e-04
2.45000000e-01	2.04024230e-02	2.99749255e-04
2.45500000e-01	2.02195209e-02	2.97532296e-04
2.46000000e-01	2.06390639e-02	3.01291751e-04
2.46500000e-01	2.04703779e-02	2.97826437e-04
2.47000000e-01	2.06527500e-02	3.00533917e-04
2.47500000e-01	2.04577892e-02	2.96981714e-04
2.48000000e-01	2.04994415e-02	2.98743104e-04
2.48500000e-01	2.06485299e-02	2.98938676e-04
2.49000000e-01	2.07378688e-02	3.00299641e-04
2.49500000e-01	2.06739533e-02	2.99129603e-04
2.50000000e-01	2.04018178e-02	2.95044195e-04
2.50500000e-01	2.07654202e-02	3.00510336e-04
2.51000000e-01	2.06560179e-02	2.97769013e-04
2.51500000e-01	2.03614419e-02	2.94146606e-04
2.52000000e-01	2.04196384e-02	2.94501642e-04
2.52500000e-01	2.07026942e-02	2.97786630e-04
2.53000000e-01	2.05126680e-02	2.95285385e-04
2.53500000e-01	2.06539237e-02	2.96251348e-04
2.54000000e-01	2.05454439e-02	2.95524674e-04
2.54500000e-01	2.05698969e-02	2.95581924e-04
2.55000000e-01	2.04721771e-02	2.93454423e-04
2.55500000e-01	2.06135489e-02	2.94827400e-04
2.56000000e-01	2.06668537e-02	2.94595311e-04
2.56500000e-01	2.05151526e-02	2.92759149e-04
2.57000000e-01	2.03639826e-02	2.91356022e-04
2.57500000e-01	2.03122017e-02	2.89518628e-04
2.58000000e-01	2.06253200e-02	2.94644661e-04
2.58500000e-01	2.03899535e-02	2.89568135e-04
2.59000000e-01	2.08964573e-02	2.96047850e-04
2.59500000e-01	2.07099193e-02	2.93682450e-04
2.60000000e-01	2.05585963e-02	2.91148108e-04
2.60500000e-01	2.08937202e-02	2.95898200e-04
2.61000000e-01	2.07760210e-02	2.92866625e-04
2.61500000e-01	2.07770897e-02	2.93303583e-04
2.62000000e-01	2.06049401e-02	2.89788714e-04
2.62500000e-01	2.05167534e-02	2.89042885e-04
2.63000000e-01	2.08501398e-02	2.92911127e-04
2.63500000e-01	2.06586213e-02	2.89091157e-04
2.64000000e-01	2.04480299e-02	2.87544539e-04
2.64500000e-01	2.05602813e-02	2.87202719e-04
2.65000000e-01	2.04883273e-02	2.87361609e-04
2.65500000e-01	2.05139294e-02	2.87132824e-04
2.66000000e-01	2.05185894e-02	2.87239534e-04
2.66500000e-01	2.05076124e-02	2.86284597e-04
2.67000000e-01	2.03715206e-02	2.84168421e-04
2.67500000e-01	2.05142993e-02	2.85661804e-04
2.68000000e-01	2.04598531e-02	2.84437066e-04
2.68500000e-01	2.02662602e-02	2.82290636e-04
2.69000000e-01	2.03066436e-02	2.82164544e-04
2.69500000e-01	2.04627849e-02	2.83843762e-04
2.70000000e-01	2.00639496e-02	2.79055277e-04
2.70500000e-01	2.03156957e-02	2.81298587e-04
2.71000000e-01	2.02871268e-02	2.80536388e-04
2.71500000e-01	2.01637057e-02	2.78506256e-04
2.72000000e-01	2.03787236e-02	2.80655864e-04
2.72500000e-01	2.00641686e-02	2.77190686e-04
2.73000000e-01	2.02506598e-02	2.79878698e-04
2.73500000e-01	2.03193508e-02	2.80205141e-04
2.74000000e-01	2.03309024e-02	2.79410183e-04
2.74500000e-01	1.99537187e-02	2.74493834e-04
2.75000000e-01	1.99265246e-02	2.73813531e-04
2.75500000e-01	2.00661404e-02	2.76853543e-04
2.76000000e-01	2.00814820e-02	2.75388691e-04
2.76500000e-01	1.99191161e-02	2.74058417e-04
2.77000000e-01	1.99660429e-02	2.73669104e-04
2.77500000e-01	1.99261028e-02	2.72432009e-04
2.78000000e-01	1.99810016e-02	2.74502418e-04
2.78500000e-01	1.99803187e-02	2.73472377e-04
2.79000000e-01	1.98345473e-02	2.71632606e-04
2.79500000e-01	1.97863011e-02	2.69084642e-04
2.80000000e-01	1.95587090e-02	2.67240434e-04
2.80500000e-01	1.94822974e-02	2.66673742e-04
2.81000000e-01	1.99085817e-02	2.71212178e-04
2.81500000e-01	1.96630155e-02	2.67137070e-04
2.82000000e-01	1.95048214e-02	2.65770772e-04
2.82500000e-01	1.96926474e-02	2.67965052e-04
2.83000000e-01	1.96665546e-02	2.66892773e-04
2.83500000e-01	1.94605039e-02	2.64893402e-04
2.84000000e-01	1.97747576e-02	2.67542479e-04
2.84500000e-01	1.95173728e-02	2.64666443e-04
2.85000000e-01	1.94263655e-02	2.62800916e-04
2.85500000e-01	1.93806687e-02	2.61650164e-04
2.86000000e-01	1.94509673e-02	2.63261653e-04
2.86500000e-01	1.93377799e-02	2.61231536e-04
2.87000000e-01	1.92201061e-02	2.59385384e-04
2.87500000e-01	1.94425194e-02	2.60663958e-04
2.88000000e-01	1.92609136e-02	2.58645807e-04
2.88500000e-01	1.91815888e-02	2.58323647e-04
2.89000000e-01	1.90447920e-02	2.55942696e-04
2.89500000e-01	1.91326775e-02	2.56615778e-04
2.90000000e-01	1.89080643e-02	2.54255656e-04
2.90500000e-01	1.89684597e-02	2.54711749e-04
2.91000000e-01	1.89293722e-02	2.53551539e-04
2.91500000e-01	1.91562586e-02	2.56068048e-04
2.92000000e-01	1.91606075e-02	2.55151073e-04
2.92500000e-01	1.90756204e-02	2.54224048e-04
2.93000000e-01	1.90067712e-02	2.53122491e-04
2.93500000e-01	1.91269461e-02	2.54659755e-04
2.94000000e-01	1.90210916e-02	2.52589686e-04
2.94500000e-01	1.90908164e-02	2.54851723e-04
2.95000000e-01	1.89409440e-02	2.51283424e-04
2.95500000e-01	1.89297576e-02	2.52417912e-04
2.96000000e-01	1.91316241e-02	2.54207035e-04
2.96500000e-01	1.89145631e-02	2.51896778e-04
2.97000000e-01	1.88708199e-02	2.50533847e-04
2.97500000e-01	1.88056742e-02	2.49255123e-04
2.98000000e-01	1.89455606e-02	2.50075243e-04
2.98500000e-01	1.87349401e-02	2.48832428e-04
2.99000000e-01	1.90078975e-02	2.50569246e-04
2.99500000e-01	1.88889279e-02	2.50600565e-04
3.00000000e-01	1.87685404e-02	2.48203655e-04
3.00500000e-01	1.88122690e-02	2.48179051e-04
3.01000000e-01	1.89610113e-02	2.48392728e-04
3.01500000e-01	1.86803350e-02	2.46794892e-04
3.02000000e-01	1.89708596e-02	2.48792283e-04
3.02500000e-01	1.88661355e-02	2.47252062e-04
3.03000000e-01	1.86687998e-02	2.44698799e-04
3.03500000e-01	1.87097148e-02	2.45138235e-04
3.04000000e-01	1.85494358e-02	2.44206927e-04
3.04500000e-01	1.86033510e-02	2.44193613e-04
3.05000000e-01	1.87229641e-02	2.44939806e-04
3.05500000e-01	1.85798214e-02	2.43304279e-04
3.06000000e-01	1.85650092e-02	2.41522464e-04
3.06500000e-01	1.86159598e-02	2.43173197e-04
3.07000000e-01	1.86643454e-02	2.42880488e-04
3.07500000e-01	1.87339176e-02	2.43777116e-04
3.08000000e-01	1.85640311e-02	2.41880110e-04
3.08500000e-01	1.87540871e-02	2.43318652e-04
3.09000000e-01	1.85028722e-02	2.40583199e-04
3.09500000e-01	1.86210142e-02	2.42640169e-04
3.10000000e-01	1.86954295e-02	2.43541450e-04
3.10500000e-01	1.87668569e-02	2.43521227e-04
3.11000000e-01	1.84263837e-02	2.38959060e-04
3.11500000e-01	1.84507031e-02	2.39524208e-04
3.12000000e-01	1.84720522e-02	2.40015547e-04
3.12500000e-01	1.84726708e-02	2.39809853e-04
3.13000000e-01	1.84622908e-02	2.39046646e-04
3.13500000e-01	1.85808950e-02	2.40448207e-04
3.14000000e-01	1.86236857e-02	2.40953034e-04
3.14500000e-01	1.85570005e-02	2.39028525e-04
3.15000000e-01	1.83404949e-02	2.37008909e-04
3.15500000e-01	1.85109793e-02	2.38542888e-04
3.16000000e-01	1.84336188e-02	2.37330069e-04
3.16500000e-01	1.85264727e-02	2.38200600e-04
3.17000000e-01	1.85337606e-02	2.37767822e-04
3.17500000e-01	1.84051730e-02	2.36665581e-04
3.18000000e-01	1.87526142e-02	2.40751974e-04
3.18500000e-01	1.83689918e-02	2.34639750e-04
3.19000000e-01	1.84367558e-02	2.36788581e-04
3.19500000e-01	1.84522697e-02	2.36136950e-04
3.20000000e-01	1.83805484e-02	2.36088189e-04
3.20500000e-01	1.83099935e-02	2.33864023e-04
3.21000000e-01	1.83173114e-02	2.33709508e-04
3.21500000e-01	1.82162814e-02	2.32874501e-04
3.22000000e-01	1.82758394e-02	2.33389784e-04
3.22500000e-01	1.80820781e-02	2.30012304e-04
3.23000000e-01	1.83784329e-02	2.34746516e-04
3.23500000e-01	1.81095125e-02	2.30966196e-04
3.24000000e-01	1.81544129e-02	2.30749879e-04
3.24500000e-01	1.83392537e-02	2.34141355e-04
3.25000000e-01	1.81827482e-02	2.30684320e-04
3.25500000e-01	1.81469776e-02	2.30667649e-04
3.26000000e-01	1.79481700e-02	2.27307371e-04
3.26500000e-01	1.81294181e-02	2.29119448e-04
3.27000000e-01	1.82397882e-02	2.31466951e-04
3.27500000e-01	1.80316197e-02	2.27704999e-04
3.28000000e-01	1.82676260e-02	2.31066544e-04
3.28500000e-01	1.82469776e-02	2.30438259e-04
3.29000000e-01	1.80716521e-02	2.28196757e-04
3.29500000e-01	1.80642248e-02	2.27545661e-04
3.30000000e-01	1.80188662e-02	2.27229869e-04
3.30500000e-01	1.80261866e-02	2.27442467e-04
3.31000000e-01	1.81075667e-02	2.27801892e-04
3.31500000e-01	1.80590854e-02	2.27331630e-04
3.32000000e-01	1.80052821e-02	2.26588542e-04
3.32500000e-01	1.80939550e-02	2.27472428e-04
3.33000000e-01	1.79683107e-02	2.26007705e-04
3.33500000e-01	1.78371409e-02	2.24670293e-04
3.34000000e-01	1.79544807e-02	2.24748238e-04
3.34500000e-01	1.81032834e-02	2.26981800e-04
3.35000000e-01	1.77328018e-02	2.22554931e-04
3.35500000e-01	1.79921065e-02	2.26027026e-04
3.36000000e-01	1.79811028e-02	2.25436951e-04
3.36500000e-01	1.79118491e-02	2.24340532e-04
3.37000000e-01	1.78178226e-02	2.21910570e-04
3.37500000e-01	1.80548949e-02	2.25012075e-04
3.38000000e-01	1.79751762e-02	2.24451195e-04
3.38500000e-01	1.80501856e-02	2.24186820e-04
3.39000000e-01	1.78106164e-02	2.22405061e-04
3.39500000e-01	1.77626821e-02	2.20107443e-04
3.40000000e-01	1.78927020e-02	2.22102796e-04
3.40500000e-01	1.78426110e-02	2.22015715e-04
3.41000000e-01	1.77422474e-02	2.20234613e-04
3.41500000e-01	1.77912527e-02	2.21532499e-04
3.42000000e-01	1.78092690e-02	2.20165201e-04
3.42500000e-01	1.78894555e-02	2.21999261e-04
3.43000000e-01	1.76729862e-02	2.18998585e-04
3.43500000e-01	1.78283890e-02	2.20384290e-04
3.44000000e-01	1.77369631e-02	2.19538181e-04
3.44500000e-01	1.78365640e-02	2.19745627e-04
3.45000000e-01	1.76507127e-02	2.18229078e-04
3.45500000e-01	1.77668036e-02	2.18913364e-04
3.46000000e-01	1.77523957e-02	2.18883266e-04
3.46500000e-01	1.77652184e-02	2.18662383e-04
3.47000000e-01	1.77322582e-02	2.17942059e-04
3.47500000e-01	1.78820798e-02	2.19959431e-04
3.48000000e-01	1.78172094e-02	2.19125350e-04
3.48500000e-01	1.76709194e-02	2.18140330e-04
3.49000000e-01	1.77517290e-02	2.17767519e-04
3.49500000e-01	1.76295955e-02	2.17081001e-04
3.50000000e-01	1.76265425e-02	1.76370834e-04
3.51000000e-01	1.76025229e-02	1.52397823e-04
3.52000000e-01	1.76665355e-02	1.53174991e-04
3.53000000e-01	1.75670892e-02	1.51602169e-04
3.54000000e-01	1.76836161e-02	1.51989234e-04
3.55000000e-01	1.76717524e-02	1.52104305e-04
3.56000000e-01	1.76303452e-02	1.52314431e-04
3.57000000e-01	1.75395594e-02	1.54382310e-04
3.58000000e-01	1.76706905e-02	1.56574783e-04
3.59000000e-01	1.74666184e-02	1.56132003e-04
3.60000000e-01	1.75519959e-02	1.57808403e-04
3.61000000e-01	1.73060222e-02	1.56993958e-04
3.62000000e-01	1.74444441e-02	1.58459338e-04
3.63000000e-01	1.74001022e-02	1.58382826e-04
3.64000000e-01	1.73467228e-02	1.58723544e-04
3.65000000e-01	1.72629349e-02	1.58244974e-04
3.66000000e-01	1.73943030e-02	1.57609811e-04
3.67000000e-01	1.73936717e-02	1.55511460e-04
3.68000000e-01	1.73221064e-02	1.54031545e-04
3.69000000e-01	1.73851291e-02	1.53588201e-04
3.70000000e-01	1.72813984e-02	1.52173660e-04
3.71000000e-01	1.73021679e-02	1.54053245e-04
3.72000000e-01	1.73504855e-02	1.55903733e-04
3.73000000e-01	1.72007755e-02	1.54894427e-04
3.74000000e-01	1.72794917e-02	1.54943383e-04
3.75000000e-01	1.72868157e-02	1.55825389e-04
3.76000000e-01	1.72914691e-02	1.55549688e-04
3.77000000e-01	1.72958124e-02	1.55665579e-04
3.78000000e-01	1.71812503e-02	1.54831641e-04
3.79000000e-01	1.70954548e-02	1.53919243e-04
3.80000000e-01	1.72205103e-02	1.54717507e-04
3.81000000e-01	1.71911902e-02	1.54143348e-04
3.82000000e-01	1.72392764e-02	1.54669534e-04
3.83000000e-01	1.73372896e-02	1.55235285e-04
3.84000000e-01	1.73015595e-02	1.55122509e-04
3.85000000e-01	1.73239383e-02	1.55084370e-04
3.86000000e-01	1.72450709e-02	1.54800380e-04
3.87000000e-01	1.74324719e-02	1.56302612e-04
3.88000000e-01	1.73501211e-02	1.55409806e-04
3.89000000e-01	1.73604536e-02	1.55181705e-04
3.90000000e-01	1.73621785e-02	1.55244486e-04
3.91000000e-01	1.76264867e-02	1.57078908e-04
3.92000000e-01	1.75322714e-02	1.56428561e-04
3.93000000e-01	1.75095774e-02	1.55789924e-04
3.94000000e-01	1.74085761e-02	1.55492300e-04
3.95000000e-01	1.75802197e-02	1.56359798e-04
3.96000000e-01	1.75047383e-02	1.55981318e-04
3.97000000e-01	1.75230260e-02	1.56419602e-04
3.98000000e-01	1.73653462e-02	1.54864932e-04
3.99000000e-01	1.71782708e-02	1.53490489e-04
4.00000000e-01	1.73157668e-02	1.54556504e-04
4.01000000e-01	1.71607259e-02	1.53210232e-04
4.02000000e-01	1.72480600e-02	1.54414228e-04
4.03000000e-01	1.70884541e-02	1.52715254e-04
4.04000000e-01	1.69517277e-02	1.51618044e-04
4.05000000e-01	1.69342986e-02	1.51155446e-04
4.06000000e-01	1.69720326e-02	1.52147623e-04
4.07000000e-01	1.67864619e-02	1.50024989e-04
4.08000000e-01	1.69425210e-02	1.51392647e-04
4.09000000e-01	1.68920865e-02	1.50726747e-04
4.10000000e-01	1.67935673e-02	1.49838692e-04
4.11000000e-01	1.67445232e-02	1.49251966e-04
4.12000000e-01	1.66558700e-02	1.48688173e-04
4.13000000e-01	1.67334056e-02	1.49337116e-04
4.14000000e-01	1.64664493e-02	1.47090681e-04
4.15000000e-01	1.65588051e-02	1.47645222e-04
4.16000000e-01	1.65053842e-02	1.47457077e-04
4.17000000e-01	1.65515640e-02	1.47648994e-04
4.18000000e-01	1.65491890e-02	1.49351982e-04
4.19000000e-01	1.66240732e-02	1.51631179e-04
4.20000000e-01	1.64705633e-02	1.51369115e-04
4.21000000e-01	1.66478132e-02	1.52857578e-04
4.22000000e-01	1.64932402e-02	1.52470487e-04
4.23000000e-01	1.66014072e-02	1.54181367e-04
4.24000000e-01	1.65381603e-02	1.53828546e-04
4.25000000e-01	1.66123179e-02	1.54526188e-04
4.26000000e-01	1.66223497e-02	1.55044501e-04
4.27000000e-01	1.66178671e-02	1.54537117e-04
4.28000000e-01	1.64812236e-02	1.53851273e-04
4.29000000e-01	1.65193821e-02	1.54744587e-04
4.30000000e-01	1.65082181e-02	1.54102784e-04
4.31000000e-01	1.64076239e-02	1.52949694e-04
4.32000000e-01	1.64484684e-02	1.53719382e-04
4.33000000e-01	1.64254769e-02	1.53860500e-04
4.34000000e-01	1.63493777e-02	1.53545348e-04
4.35000000e-01	1.64604198e-02	1.54396265e-04
4.36000000e-01	1.63915388e-02	1.54060236e-04
4.37000000e-01	1.63752617e-02	1.53955041e-04
4.38000000e-01	1.62555020e-02	1.52988335e-04
4.39000000e-01	1.64306116e-02	1.54629506e-04
4.40000000e-01	1.62717733e-02	1.53897459e-04
4.41000000e-01	1.62773682e-02	1.53579350e-04
4.42000000e-01	1.63753988e-02	1.54931798e-04
4.43000000e-01	1.62773994e-02	1.54366648e-04
4.44000000e-01	1.63291067e-02	1.55280277e-04
4.45000000e-01	1.64968897e-02	1.56600279e-04
4.46000000e-01	1.63238406e-02	1.54840754e-04
4.47000000e-01	1.62702734e-02	1.54894963e-04
4.48000000e-01	1.63008060e-02	1.55302822e-04
4.49000000e-01	1.61156041e-02	1.53665970e-04
4.50000000e-01	1.61605207e-02	1.54376372e-04
4.51000000e-01	1.62099239e-02	1.54867014e-04
4.52000000e-01	1.62533450e-02	1.55683620e-04
4.53000000e-01	1.62794118e-02	1.55891094e-04
4.54000000e-01	1.61753279e-02	1.54988065e-04
4.55000000e-01	1.62047958e-02	1.55319553e-04
4.56000000e-01	1.61801323e-02	1.55299357e-04
4.57000000e-01	1.62105178e-02	1.55651035e-04
4.58000000e-01	1.60095760e-02	1.54170005e-04
4.59000000e-01	1.61202505e-02	1.55228679e-04
4.60000000e-01	1.61353327e-02	1.55375999e-04
4.61000000e-01	1.60958858e-02	1.55135918e-04
4.62000000e-01	1.60698312e-02	1.54839131e-04
4.63000000e-01	1.61276426e-02	1.55573057e-04
4.64000000e-01	1.59912898e-02	1.54789392e-04
4.65000000e-01	1.59600142e-02	1.54201374e-04
4.66000000e-01	1.60085330e-02	1.55039693e-04
4.67000000e-01	1.60455126e-02	1.55469492e-04
4.68000000e-01	1.61310921e-02	1.55701606e-04
4.69000000e-01	1.61236303e-02	1.56077717e-04
4.70000000e-01	1.59069805e-02	1.54752615e-04
4.71000000e-01	1.59553683e-02	1.54454523e-04
4.72000000e-01	1.58666976e-02	1.54170276e-04
4.73000000e-01	1.60776237e-02	1.56191973e-04
4.74000000e-01	1.59384023e-02	1.54986859e-04
4.75000000e-01	1.59001924e-02	1.54368837e-04
4.76000000e-01	1.59224426e-02	1.54174702e-04
4.77000000e-01	1.61162366e-02	1.55862917e-04
4.78000000e-01	1.59201359e-02	1.54341926e-04
4.79000000e-01	1.59998565e-02	1.54971302e-04
4.80000000e-01	1.59630080e-02	1.55226963e-04
4.81000000e-01	1.60168682e-02	1.55313600e-04
4.82000000e-01	1.57755184e-02	1.53660417e-04
4.83000000e-01	1.57826541e-02	1.53285668e-04
4.84000000e-01	1.58713686e-02	1.54421387e-04
4.85000000e-01	1.61059571e-02	1.56911167e-04
4.86000000e-01	1.58334588e-02	1.54291923e-04
4.87000000e-01	1.57610887e-02	1.53781189e-04
4.88000000e-01	1.58424416e-02	1.54745748e-04
4.89000000e-01	1.58355562e-02	1.54211379e-04
4.90000000e-01	1.58662158e-02	1.55382163e-04
4.91000000e-01	1.57772046e-02	1.54115591e-04
4.92000000e-01	1.59823663e-02	1.55870997e-04
4.93000000e-01	1.59146842e-02	1.55388461e-04
4.94000000e-01	1.58693031e-02	1.55330740e-04
4.95000000e-01	1.59311742e-02	1.56948850e-04
4.96000000e-01	1.58198472e-02	1.60647140e-04
4.97000000e-01	1.58784541e-02	1.63942219e-04
4.98000000e-01	1.58512358e-02	1.65906776e-04
4.99000000e-01	1.58118793e-02	1.67731226e-04
5.00000000e-01	1.56664292e-02	1.68255801e-04
5.01000000e-01	1.59768203e-02	1.72686598e-04
5.02000000e-01	1.58823178e-02	1.73665247e-04
5.03000000e-01	1.59270234e-02	1.75227696e-04
5.04000000e-01	1.58408700e-02	1.76346312e-04
5.05000000e-01	1.58727516e-02	1.73764009e-04
5.06000000e-01	1.59721926e-02	1.70421637e-04
5.07000000e-01	1.59861497e-02	1.68975631e-04
5.08000000e-01	1.57596082e-02	1.65830585e-04
5.09000000e-01	1.58447506e-02	1.66084316e-04
5.10000000e-01	1.58831461e-02	1.65843267e-04
5.11000000e-01	1.58279844e-02	1.64819513e-04
5.12000000e-01	1.57957843e-02	1.63951978e-04
5.13000000e-01	1.58038289e-02	1.64185988e-04
5.14000000e-01	1.55888562e-02	1.61455667e-04
5.15000000e-01	1.57124656e-02	1.62250494e-04
5.16000000e-01	1.58476114e-02	1.63236859e-04
5.17000000e-01	1.58241466e-02	1.62738061e-04
5.18000000e-01	1.58571705e-02	1.62990576e-04
5.19000000e-01	1.58214194e-02	1.61728931e-04
5.20000000e-01	1.57099537e-02	1.60401656e-04
5.21000000e-01	1.57485956e-02	1.61243996e-04
5.22000000e-01	1.57282253e-02	1.60455204e-04
5.23000000e-01	1.56636580e-02	1.59552501e-04
5.24000000e-01	1.56623700e-02	1.59768140e-04
5.25000000e-01	1.57150527e-02	1.59840686e-04
5.26000000e-01	1.56257765e-02	1.58882604e-04
5.27000000e-01	1.57249705e-02	1.59900312e-04
5.28000000e-01	1.56350152e-02	1.59183051e-04
5.29000000e-01	1.56367338e-02	1.59244416e-04
5.30000000e-01	1.57789370e-02	1.60944305e-04
5.31000000e-01	1.55977259e-02	1.59297895e-04
5.32000000e-01	1.56540261e-02	1.59705664e-04
5.33000000e-01	1.55890075e-02	1.58396667e-04
5.34000000e-01	1.55735016e-02	1.58713883e-04
5.35000000e-01	1.55790363e-02	1.58753244e-04
5.36000000e-01	1.57004207e-02	1.59666987e-04
5.37000000e-01	1.56187596e-02	1.59603410e-04
5.38000000e-01	1.56854985e-02	1.59495762e-04
5.39000000e-01	1.55507899e-02	1.58177313e-04
5.40000000e-01	1.55443659e-02	1.58921793e-04
5.41000000e-01	1.55191412e-02	1.58269330e-04
5.42000000e-01	1.54933031e-02	1.57752152e-04
5.43000000e-01	1.56097642e-02	1.58889547e-04
5.44000000e-01	1.56291786e-02	1.58868072e-04
5.45000000e-01	1.53663313e-02	1.57100352e-04
5.46000000e-01	1.55066762e-02	1.57925016e-04
5.47000000e-01	1.55155027e-02	1.58358544e-04
5.48000000e-01	1.54041451e-02	1.56661873e-04
5.49000000e-01	1.54879382e-02	1.57272096e-04
5.50000000e-01	1.55379457e-02	1.57907974e-04
5.51000000e-01	1.54526356e-02	1.57203939e-04
5.52000000e-01	1.55976670e-02	1.57997922e-04
5.53000000e-01	1.54036868e-02	1.55936449e-04
5.54000000e-01	1.54263281e-02	1.56766346e-04
5.55000000e-01	1.54873457e-02	1.57234396e-04
5.56000000e-01	1.53978540e-02	1.55742387e-04
5.57000000e-01	1.54431822e-02	1.56248336e-04
5.58000000e-01	1.53619192e-02	1.55944723e-04
5.59000000e-01	1.53859507e-02	1.55793549e-04
5.60000000e-01	1.56033668e-02	1.57488996e-04
5.61000000e-01	1.54942006e-02	1.56860514e-04
5.62000000e-01	1.55636524e-02	1.57810187e-04
5.63000000e-01	1.53481223e-02	1.55717444e-04
5.64000000e-01	1.54689838e-02	1.56737861e-04
5.65000000e-01	1.53281564e-02	1.55343070e-04
5.66000000e-01	1.53319091e-02	1.55229323e-04
5.67000000e-01	1.52264888e-02	1.54962906e-04
5.68000000e-01	1.52891728e-02	1.55084093e-04
5.69000000e-01	1.53045686e-02	1.54726324e-04
5.70000000e-01	1.53960383e-02	1.55749001e-04
5.71000000e-01	1.53465516e-02	1.55065577e-04
5.72000000e-01	1.53796001e-02	1.55523606e-04
5.73000000e-01	1.52409995e-02	1.54559465e-04
5.74000000e-01	1.52421125e-02	1.54256393e-04
5.75000000e-01	1.52837948e-02	1.55032079e-04
5.76000000e-01	1.52775585e-02	1.54383487e-04
5.77000000e-01	1.50958412e-02	1.53819115e-04
5.78000000e-01	1.50804853e-02	1.53351385e-04
5.79000000e-01	1.51938147e-02	1.54579645e-04
5.80000000e-01	1.52544827e-02	1.54815965e-04
5.81000000e-01	1.51412081e-02	1.53839639e-04
5.82000000e-01	1.51359123e-02	1.53566586e-04
5.83000000e-01	1.53301507e-02	1.55377201e-04
5.84000000e-01	1.51052514e-02	1.53489379e-04
5.85000000e-01	1.51898800e-02	1.54734257e-04
5.86000000e-01	1.50684404e-02	1.53538296e-04
5.87000000e-01	1.51529744e-02	1.54334633e-04
5.88000000e-01	1.50464927e-02	1.53153222e-04
5.89000000e-01	1.50108570e-02	1.52711280e-04
5.90000000e-01	1.52993691e-02	1.55279632e-04
5.91000000e-01	1.51359080e-02	1.53751014e-04
5.92000000e-01	1.51818281e-02	1.54581496e-04
5.93000000e-01	1.51579857e-02	1.54372842e-04
5.94000000e-01	1.52129456e-02	1.54334698e-04
5.95000000e-01	1.51099418e-02	1.53749522e-04
5.96000000e-01	1.52346989e-02	1.55024858e-04
5.97000000e-01	1.52840139e-02	1.55024259e-04
5.98000000e-01	1.52193022e-02	1.54609499e-04
5.99000000e-01	1.51382848e-02	1.54293486e-04
6.00000000e-01	1.50959458e-02	1.54164042e-04
6.01000000e-01	1.51101964e-02	1.53886486e-04
6.02000000e-01	1.49801184e-02	1.52455274e-04
6.03000000e-01	1.50597068e-02	1.54000479e-04
6.04000000e-01	1.50087268e-02	1.53582872e-04
6.05000000e-01	1.49914754e-02	1.53023225e-04
6.06000000e-01	1.49911718e-02	1.53115398e-04
6.07000000e-01	1.49585007e-02	1.52839930e-04
6.08000000e-01	1.51803899e-02	1.54412168e-04
6.09000000e-01	1.50205620e-02	1.53271558e-04
6.10000000e-01	1.50860020e-02	1.54275772e-04
6.11000000e-01	1.49987423e-02	1.53201903e-04
6.12000000e-01	1.50144366e-02	1.53278631e-04
6.13000000e-01	1.51751010e-02	1.55069090e-04
6.14000000e-01	1.50100610e-02	1.53351174e-04
6.15000000e-01	1.50510120e-02	1.53214605e-04
6.16000000e-01	1.50248392e-02	1.53457695e-04
6.17000000e-01	1.49839324e-02	1.53296910e-04
6.18000000e-01	1.50745137e-02	1.53643130e-04
6.19000000e-01	1.49890979e-02	1.53191708e-04
6.20000000e-01	1.48189113e-02	1.51357334e-04
6.21000000e-01	1.50260224e-02	1.53025065e-04
6.22000000e-01	1.48585878e-02	1.51210383e-04
6.23000000e-01	1.49414539e-02	1.52043971e-04
6.24000000e-01	1.49209832e-02	1.50879768e-04
6.25000000e-01	1.49845783e-02	1.51947389e-04
6.26000000e-01	1.50104188e-02	1.51865311e-04
6.27000000e-01	1.49351370e-02	1.51579478e-04
6.28000000e-01	1.50309380e-02	1.51959008e-04
6.29000000e-01	1.49802095e-02	1.51797640e-04
6.30000000e-01	1.49684412e-02	1.51888234e-04
6.31000000e-01	1.48398015e-02	1.50647734e-04
6.32000000e-01	1.50459732e-02	1.52586505e-04
6.33000000e-01	1.50384848e-02	1.52509376e-04
6.34000000e-01	1.49162685e-02	1.54624149e-04
6.35000000e-01	1.49064866e-02	1.59486552e-04
6.36000000e-01	1.51750915e-02	1.64568122e-04
6.37000000e-01	1.49451342e-02	1.64826149e-04
6.38000000e-01	1.50388090e-02	1.68160285e-04
6.39000000e-01	1.49122716e-02	1.69075940e-04
6.40000000e-01	1.50134175e-02	1.72494782e-04
6.41000000e-01	1.51606289e-02	1.75607718e-04
6.42000000e-01	1.51298449e-02	1.77184509e-04
6.43000000e-01	1.52399384e-02	1.78675429e-04
6.44000000e-01	1.51031915e-02	1.70934486e-04
6.45000000e-01	1.52187374e-02	1.69286667e-04
6.46000000e-01	1.51508083e-02	1.67145990e-04
6.47000000e-01	1.50375656e-02	1.65066564e-04
6.48000000e-01	1.49693861e-02	1.63175838e-04
6.49000000e-01	1.50740623e-02	1.63663109e-04
6.50000000e-01	1.51061887e-02	1.62967641e-04
6.51000000e-01	1.51329452e-02	1.62562947e-04
6.52000000e-01	1.51488666e-02	1.61388426e-04
6.53000000e-01	1.50143010e-02	1.60114434e-04
6.54000000e-01	1.51061523e-02	1.60535241e-04
6.55000000e-01	1.50335215e-02	1.59467800e-04
6.56000000e-01	1.51582466e-02	1.60567372e-04
6.57000000e-01	1.49538643e-02	1.58018369e-04
6.58000000e-01	1.49867532e-02	1.58145646e-04
6.59000000e-01	1.50638868e-02	1.58734470e-04
6.60000000e-01	1.50124385e-02	1.58075174e-04
6.61000000e-01	1.51238008e-02	1.58877397e-04
6.62000000e-01	1.50188666e-02	1.58426207e-04
6.63000000e-01	1.51155290e-02	1.59742585e-04
6.64000000e-01	1.48780235e-02	1.57196092e-04
6.65000000e-01	1.50042694e-02	1.57955058e-04
6.66000000e-01	1.48794275e-02	1.56319651e-04
6.67000000e-01	1.50963728e-02	1.58244523e-04
6.68000000e-01	1.48398452e-02	1.55938701e-04
6.69000000e-01	1.49099210e-02	1.56784145e-04
6.70000000e-01	1.49409777e-02	1.56484244e-04
6.71000000e-01	1.50518744e-02	1.57911724e-04
6.72000000e-01	1.49061047e-02	1.56037079e-04
6.73000000e-01	1.47764623e-02	1.54439208e-04
6.74000000e-01	1.48775719e-02	1.56377468e-04
6.75000000e-01	1.48370618e-02	1.55880124e-04
6.76000000e-01	1.46967623e-02	1.54131233e-04
6.77000000e-01	1.48561208e-02	1.55496008e-04
6.78000000e-01	1.47959349e-02	1.55491890e-04
6.79000000e-01	1.48161429e-02	1.54657968e-04
6.80000000e-01	1.49261666e-02	1.55924788e-04
6.81000000e-01	1.47202223e-02	1.54208261e-04
6.82000000e-01	1.45868369e-02	1.52932707e-04
6.83000000e-01	1.47281412e-02	1.54310280e-04
6.84000000e-01	1.48274382e-02	1.55135780e-04
6.85000000e-01	1.46570746e-02	1.53115242e-04
6.86000000e-01	1.47431289e-02	1.54718196e-04
6.87000000e-01	1.49440821e-02	1.55895173e-04
6.88000000e-01	1.48480372e-02	1.55164786e-04
6.89000000e-01	1.47735920e-02	1.54360811e-04
6.90000000e-01	1.47290545e-02	1.53837698e-04
6.91000000e-01	1.46348925e-02	1.53233949e-04
6.92000000e-01	1.46546853e-02	1.53183663e-04
6.93000000e-01	1.47446358e-02	1.53753076e-04
6.94000000e-01	1.47835955e-02	1.54540009e-04
6.95000000e-01	1.47035659e-02	1.53524345e-04
6.96000000e-01	1.45767163e-02	1.52730963e-04
6.97000000e-01	1.46574542e-02	1.52718200e-04
6.98000000e-01	1.46387147e-02	1.53284457e-04
6.99000000e-01	1.46761153e-02	1.53184377e-04
7.00000000e-01	1.46291854e-02	1.52448379e-04
7.01000000e-01	1.47977644e-02	1.54254850e-04
7.02000000e-01	1.46160122e-02	1.52489953e-04
7.03000000e-01	1.45504787e-02	1.51745992e-04
7.04000000e-01	1.46741417e-02	1.53130716e-04
7.05000000e-01	1.46680595e-02	1.53237941e-04
7.06000000e-01	1.45307352e-02	1.51817826e-04
7.07000000e-01	1.45691987e-02	1.51733303e-04
7.08000000e-01	1.45306923e-02	1.50881300e-04
7.09000000e-01	1.44175233e-02	1.50160426e-04
7.10000000e-01	1.44101907e-02	1.50272639e-04
7.11000000e-01	1.43224356e-02	1.49986124e-04
7.12000000e-01	1.42960332e-02	1.49564491e-04
7.13000000e-01	1.46083984e-02	1.51826575e-04
7.14000000e-01	1.44147680e-02	1.50467187e-04
7.15000000e-01	1.43661558e-02	1.50006440e-04
7.16000000e-01	1.44300643e-02	1.50683371e-04
7.17000000e-01	1.44692045e-02	1.51168767e-04
7.18000000e-01	1.42624954e-02	1.48671400e-04
7.19000000e-01	1.43303997e-02	1.49894008e-04
7.20000000e-01	1.43729169e-02	1.50269168e-04
7.21000000e-01	1.44068783e-02	1.50227713e-04
7.22000000e-01	1.42487669e-02	1.49459658e-04
7.23000000e-01	1.42871542e-02	1.49585352e-04
7.24000000e-01	1.41042398e-02	1.47783973e-04
7.25000000e-01	1.42743553e-02	1.49115190e-04
7.26000000e-01	1.41883992e-02	1.48251321e-04
7.27000000e-01	1.44236097e-02	1.50388440e-04
7.28000000e-01	1.42738731e-02	1.49402271e-04
7.29000000e-01	1.42003282e-02	1.48643963e-04
7.30000000e-01	1.40816952e-02	1.47618872e-04
7.31000000e-01	1.42647591e-02	1.49138725e-04
7.32000000e-01	1.42906391e-02	1.49446194e-04
7.33000000e-01	1.42836557e-02	1.49023592e-04
7.34000000e-01	1.41907871e-02	1.47684020e-04
7.35000000e-01	1.40436396e-02	1.46455589e-04
7.36000000e-01	1.42222260e-02	1.48219261e-04
7.37000000e-01	1.41288426e-02	1.46645391e-04
7.38000000e-01	1.41725629e-02	1.46981835e-04
7.39000000e-01	1.40523278e-02	1.45826142e-04
7.40000000e-01	1.41759115e-02	1.47309068e-04
7.41000000e-01	1.40520453e-02	1.45354982e-04
7.42000000e-01	1.40396931e-02	1.45130662e-04
7.43000000e-01	1.40529515e-02	1.45246673e-04
7.44000000e-01	1.39258660e-02	1.44757841e-04
7.45000000e-01	1.41009466e-02	1.46181959e-04
7.46000000e-01	1.40426455e-02	1.45577754e-04
7.47000000e-01	1.38930690e-02	1.44058598e-04
7.48000000e-01	1.38810336e-02	1.44662202e-04
7.49000000e-01	1.39302323e-02	1.44520067e-04
7.50000000e-01	1.40263522e-02	1.45271648e-04
7.51000000e-01	1.39315289e-02	1.44897523e-04
7.52000000e-01	1.39732608e-02	1.44797111e-04
7.53000000e-01	1.38741516e-02	1.44093963e-04
7.54000000e-01	1.40782834e-02	1.45635031e-04
7.55000000e-01	1.38209400e-02	1.43700828e-04
7.56000000e-01	1.39306398e-02	1.43888714e-04
7.57000000e-01	1.39351908e-02	1.44450031e-04
7.58000000e-01	1.38288255e-02	1.43337572e-04
7.59000000e-01	1.39114890e-02	1.44203224e-04
7.60000000e-01	1.39476686e-02	1.44150813e-04
7.61000000e-01	1.37715378e-02	1.41677538e-04
7.62000000e-01	1.38798352e-02	1.43185915e-04
7.63000000e-01	1.37914551e-02	1.42002579e-04
7.64000000e-01	1.38047639e-02	1.42040183e-04
7.65000000e-01	1.38399812e-02	1.42068107e-04
7.66000000e-01	1.37401444e-02	1.41206715e-04
7.67000000e-01	1.37757401e-02	1.41845577e-04
7.68000000e-01	1.37496319e-02	1.40785147e-04
7.69000000e-01	1.37142842e-02	1.41132611e-04
7.70000000e-01	1.36673647e-02	1.40572889e-04
7.71000000e-01	1.37391877e-02	1.41304691e-04
7.72000000e-01	1.37258636e-02	1.45398189e-04
7.73000000e-01	1.38408652e-02	1.51270028e-04
7.74000000e-01	1.36759528e-02	1.52445070e-04
7.75000000e-01	1.37741561e-02	1.56419433e-04
7.76000000e-01	1.35707902e-02	1.57000937e-04
7.77000000e-01	1.35335934e-02	1.59124647e-04
7.78000000e-01	1.36331054e-02	1.61359421e-04
7.79000000e-01	1.35137455e-02	1.61884678e-04
7.80000000e-01	1.34168498e-02	1.63632589e-04
7.81000000e-01	1.35462233e-02	1.66187458e-04
7.82000000e-01	1.34591991e-02	1.68027873e-04
7.83000000e-01	1.35980995e-02	1.70556915e-04
7.84000000e-01	1.35042561e-02	1.71215759e-04
7.85000000e-01	1.35451436e-02	1.74069598e-04
7.86000000e-01	1.33100508e-02	1.73130676e-04
7.87000000e-01	1.34077446e-02	1.75571541e-04
7.88000000e-01	1.33371193e-02	1.77096302e-04
7.89000000e-01	1.33702745e-02	1.79107448e-04
7.90000000e-01	1.35507044e-02	1.82798448e-04
7.91000000e-01	1.34656926e-02	1.83451806e-04
7.92000000e-01	1.34716206e-02	1.85053567e-04
7.93000000e-01	1.33753950e-02	1.85933848e-04
7.94000000e-01	1.33694568e-02	1.87788962e-04
7.95000000e-01	1.32194293e-02	1.88603680e-04
7.96000000e-01	1.32716715e-02	1.89980631e-04
7.97000000e-01	1.32876031e-02	1.92685010e-04
7.98000000e-01	1.32173610e-02	1.93880962e-04
7.99000000e-01	1.33557593e-02	1.98057439e-04
8.00000000e-01	1.32833508e-02	1.98583836e-04
8.01000000e-01	1.32695773e-02	1.99826035e-04
8.02000000e-01	1.30831189e-02	1.99913620e-04
8.03000000e-01	1.30500400e-02	2.01409314e-04
8.04000000e-01	1.31871044e-02	2.05365837e-04
8.05000000e-01	1.32455271e-02	2.07865766e-04
8.06000000e-01	1.30397578e-02	2.08580102e-04
8.07000000e-01	1.31744876e-02	2.11439112e-04
8.08000000e-01	1.31319002e-02	2.13518219e-04
8.09000000e-01	1.31817166e-02	2.16018883e-04
8.10000000e-01	1.31122138e-02	2.18733434e-04
8.11000000e-01	1.31005383e-02	2.19523842e-04
8.12000000e-01	1.31046362e-02	2.22439463e-04
8.13000000e-01	1.32078633e-02	2.26728594e-04
8.14000000e-01	1.30902951e-02	2.27593606e-04
8.15000000e-01	1.31882230e-02	2.32699630e-04
8.16000000e-01	1.31624189e-02	2.33062826e-04
8.17000000e-01	1.29208213e-02	2.33837900e-04
8.18000000e-01	1.31629929e-02	2.39945257e-04
8.19000000e-01	1.30162791e-02	2.39686940e-04
8.20000000e-01	1.28837927e-02	2.41939192e-04
8.21000000e-01	1.28124066e-02	2.44255565e-04
8.22000000e-01	1.29729867e-02	2.50362499e-04
8.23000000e-01	1.28179706e-02	2.50009506e-04
8.24000000e-01	1.28689863e-02	2.54555725e-04
8.25000000e-01	1.27582918e-02	2.55106609e-04
8.26000000e-01	1.25284463e-02	2.55791140e-04
8.27000000e-01	1.31257642e-02	2.69969847e-04
8.28000000e-01	1.25413429e-02	2.63914529e-04
8.29000000e-01	1.26986367e-02	2.72521144e-04
8.30000000e-01	1.27186358e-02	2.75409547e-04
8.31000000e-01	1.26623145e-02	2.79033093e-04
8.32000000e-01	1.28093683e-02	2.86378985e-04
8.33000000e-01	1.25301569e-02	2.85055646e-04
8.34000000e-01	1.27560370e-02	2.93720578e-04
8.35000000e-01	1.28127249e-02	3.02588775e-04
8.36000000e-01	1.25988936e-02	3.03548366e-04
8.37000000e-01	1.25464221e-02	3.09403036e-04
8.38000000e-01	1.23253130e-02	3.08159850e-04
8.39000000e-01	1.25124478e-02	3.18677413e-04
8.40000000e-01	1.25930915e-02	3.28020116e-04
8.41000000e-01	1.25369995e-02	3.34697253e-04
8.42000000e-01	1.26515964e-02	3.47300436e-04
8.43000000e-01	1.26505754e-02	3.51526148e-04
8.44000000e-01	1.26223717e-02	3.60836144e-04
8.45000000e-01	1.22313196e-02	3.57374397e-04
8.46000000e-01	1.23458877e-02	3.72270541e-04
8.47000000e-01	1.23322100e-02	3.80836017e-04
8.48000000e-01	1.22629403e-02	3.93354515e-04
8.49000000e-01	1.19174791e-02	3.98033248e-04
8.50000000e-01	1.25294098e-02	4.23401394e-04
8.51000000e-01	1.18381011e-02	4.20870695e-04
8.52000000e-01	1.21431639e-02	4.48302346e-04
8.53000000e-01	1.27445853e-02	4.86766397e-04
8.54000000e-01	1.21313949e-02	4.88469826e-04
8.55000000e-01	1.17698302e-02	4.95112348e-04
8.56000000e-01	1.23250592e-02	5.30367297e-04
8.57000000e-01	1.22411410e-02	5.32425364e-04
8.58000000e-01	1.19612938e-02	5.45454772e-04
8.59000000e-01	1.21955207e-02	5.69375373e-04
8.60000000e-01	1.21073785e-02	5.81723123e-04
8.61000000e-01	1.13520743e-02	5.71707924e-04
8.62000000e-01	1.16948055e-02	6.17318240e-04
8.63000000e-01	1.17572862e-02	6.35870190e-04
8.64000000e-01	1.11830735e-02	6.37202616e-04
8.65000000e-01	1.21600387e-02	7.16395783e-04
8.66000000e-01	1.14202829e-02	7.01191142e-04
8.67000000e-01	1.18469552e-02	7.97836856e-04
8.68000000e-01	1.25227986e-02	8.74717943e-04
8.69000000e-01	1.14538007e-02	8.80677743e-04
8.70000000e-01	1.24093136e-02	1.01029060e-03
8.71000000e-01	1.26546506e-02	1.14568795e-03
8.72000000e-01	1.12730448e-02	1.14133670e-03
8.73000000e-01	1.17292888e-02	1.45539598e-03
8.74000000e-01	1.13165631e-02	1.83663237e-03
8.75000000e-01	1.02709179e-02	3.58052623e-03
