% Filename : SB3_00041_00028.h5
% Date & Time : 30-Oct-2025 17:58:07
% X-ray Energy (keV) : 13.30001
% Exposure Time (s) : 0.500
% Beam Center : 1461.24000, 208.98300
% Sample to Detector Distance (SDD) (mm) : 1990.750
% Detector Pixel Size (mm) : 0.075
% Photodiode Value : 140577.000
% I0 of Sample : 0
% I0 of Standard : 1
% 
% q(A^-1)   I(q)    I(q)_SE
0.00000000e+00	7.71109166e-03	4.06410055e-03
2.50000000e-04	0.00000000e+00	0.00000000e+00
5.00000000e-04	0.00000000e+00	0.00000000e+00
7.50000000e-04	0.00000000e+00	0.00000000e+00
1.00000000e-03	0.00000000e+00	0.00000000e+00
1.25000000e-03	0.00000000e+00	0.00000000e+00
1.50000000e-03	0.00000000e+00	0.00000000e+00
1.75000000e-03	0.00000000e+00	0.00000000e+00
2.00000000e-03	0.00000000e+00	0.00000000e+00
2.25000000e-03	0.00000000e+00	0.00000000e+00
2.50000000e-03	0.00000000e+00	0.00000000e+00
2.75000000e-03	0.00000000e+00	0.00000000e+00
3.00000000e-03	0.00000000e+00	0.00000000e+00
3.25000000e-03	5.13251221e+03	3.03639215e+03
3.50000000e-03	3.34652368e+03	8.18788835e+02
3.75000000e-03	2.22755748e+03	4.46525593e+02
4.00000000e-03	1.75007232e+03	3.16437640e+02
4.25000000e-03	1.17983161e+03	1.75991358e+02
4.50000000e-03	1.10813897e+03	1.46819853e+02
4.75000000e-03	9.78931130e+02	1.18233042e+02
5.00000000e-03	7.72336738e+02	8.85956012e+01
5.25000000e-03	6.34011053e+02	7.16649535e+01
5.50000000e-03	5.21085212e+02	5.67539892e+01
5.75000000e-03	4.44521800e+02	4.74752261e+01
6.00000000e-03	3.59542382e+02	3.65333124e+01
6.25000000e-03	3.05870099e+02	3.11597174e+01
6.50000000e-03	2.59630941e+02	2.56897996e+01
6.75000000e-03	2.24047407e+02	2.17816515e+01
7.00000000e-03	1.97422892e+02	1.85802529e+01
7.25000000e-03	1.68660964e+02	1.54999615e+01
7.50000000e-03	1.46368493e+02	1.34810784e+01
7.75000000e-03	1.24920291e+02	1.10895696e+01
8.00000000e-03	1.14014243e+02	1.00219597e+01
8.25000000e-03	1.00707020e+02	8.53383369e+00
8.50000000e-03	8.82184809e+01	7.34945416e+00
8.75000000e-03	7.87457187e+01	6.52174830e+00
9.00000000e-03	7.02771223e+01	5.72550745e+00
9.25000000e-03	6.30060395e+01	4.99726871e+00
9.50000000e-03	5.63258448e+01	4.36771853e+00
9.75000000e-03	5.08424105e+01	3.91026609e+00
1.00000000e-02	4.56432073e+01	3.46090519e+00
1.02500000e-02	4.14324383e+01	3.14719154e+00
1.05000000e-02	3.79318816e+01	2.75336430e+00
1.07500000e-02	3.43306578e+01	2.50255501e+00
1.10000000e-02	3.12758344e+01	2.21125834e+00
1.12500000e-02	2.85390755e+01	2.05860882e+00
1.15000000e-02	2.63433618e+01	1.85892869e+00
1.17500000e-02	2.39536781e+01	1.64450710e+00
1.20000000e-02	2.23262531e+01	1.52872578e+00
1.22500000e-02	2.06692243e+01	1.38657246e+00
1.25000000e-02	1.91279573e+01	1.28441568e+00
1.27500000e-02	1.77001978e+01	1.17048312e+00
1.30000000e-02	1.63980519e+01	1.06428162e+00
1.32500000e-02	1.50638867e+01	9.57037796e-01
1.35000000e-02	1.41086231e+01	8.95260385e-01
1.37500000e-02	1.31470243e+01	8.32998745e-01
1.40000000e-02	1.21124274e+01	7.56399391e-01
1.42500000e-02	1.13475035e+01	6.92545210e-01
1.45000000e-02	1.06356651e+01	6.46565376e-01
1.47500000e-02	9.90889767e+00	5.99117986e-01
1.50000000e-02	9.36013789e+00	5.62399480e-01
1.52500000e-02	8.77530129e+00	5.21327312e-01
1.55000000e-02	8.19140595e+00	4.75694689e-01
1.57500000e-02	7.62577508e+00	4.43304999e-01
1.60000000e-02	7.19597145e+00	4.10795181e-01
1.62500000e-02	6.81574244e+00	3.93157514e-01
1.65000000e-02	6.40024765e+00	3.61761887e-01
1.67500000e-02	6.10305441e+00	3.40126665e-01
1.70000000e-02	5.71612066e+00	3.17453708e-01
1.72500000e-02	5.40941696e+00	2.98707871e-01
1.75000000e-02	5.10674772e+00	2.81047256e-01
1.77500000e-02	4.77415698e+00	2.57111935e-01
1.80000000e-02	4.62493088e+00	2.49983885e-01
1.82500000e-02	4.33916549e+00	2.28190149e-01
1.85000000e-02	4.10909951e+00	2.21638784e-01
1.87500000e-02	3.91877067e+00	2.06182367e-01
1.90000000e-02	3.71596587e+00	1.94918047e-01
1.92500000e-02	3.54402799e+00	1.82182019e-01
1.95000000e-02	3.36793982e+00	1.72309313e-01
1.97500000e-02	3.19293322e+00	1.64834469e-01
2.00000000e-02	3.03991667e+00	1.54753969e-01
2.02500000e-02	2.88109533e+00	1.45855930e-01
2.05000000e-02	2.78174977e+00	1.37396998e-01
2.07500000e-02	2.65566390e+00	1.31442696e-01
2.10000000e-02	2.55936860e+00	1.27408655e-01
2.12500000e-02	2.48141782e+00	1.23471627e-01
2.15000000e-02	2.36729910e+00	1.16860723e-01
2.17500000e-02	2.29697286e+00	1.13843318e-01
2.20000000e-02	2.20847761e+00	1.09722174e-01
2.22500000e-02	2.10577723e+00	1.04059448e-01
2.25000000e-02	2.04134015e+00	1.01591577e-01
2.27500000e-02	1.95312228e+00	9.56905269e-02
2.30000000e-02	1.89893660e+00	9.40192646e-02
2.32500000e-02	1.81974232e+00	8.91225388e-02
2.35000000e-02	1.75075463e+00	8.67952852e-02
2.37500000e-02	1.68642992e+00	8.27460493e-02
2.40000000e-02	1.61896889e+00	7.99616047e-02
2.42500000e-02	1.57001073e+00	7.68020413e-02
2.45000000e-02	1.52159154e+00	7.46862231e-02
2.47500000e-02	1.45580891e+00	7.05235156e-02
2.50000000e-02	1.40531027e+00	6.82486816e-02
2.52500000e-02	1.35371331e+00	6.62385785e-02
2.55000000e-02	1.30871452e+00	6.26487864e-02
2.57500000e-02	1.25618261e+00	6.05577353e-02
2.60000000e-02	1.21181684e+00	5.78939543e-02
2.62500000e-02	1.18590866e+00	5.74355631e-02
2.65000000e-02	1.13906506e+00	5.43761189e-02
2.67500000e-02	1.10631472e+00	5.25605379e-02
2.70000000e-02	1.06805445e+00	5.10263091e-02
2.72500000e-02	1.02562857e+00	4.84102300e-02
2.75000000e-02	9.97359682e-01	4.78195917e-02
2.77500000e-02	9.65727868e-01	4.62941497e-02
2.80000000e-02	9.40372006e-01	4.38521231e-02
2.82500000e-02	9.13323352e-01	4.25909439e-02
2.85000000e-02	8.79581195e-01	4.12273507e-02
2.87500000e-02	8.61835945e-01	4.05932258e-02
2.90000000e-02	8.31783903e-01	3.91077973e-02
2.92500000e-02	8.13811491e-01	3.70822749e-02
2.95000000e-02	7.85553518e-01	3.66688680e-02
2.97500000e-02	7.60252989e-01	3.49718975e-02
3.00000000e-02	7.37858407e-01	3.43133446e-02
3.02500000e-02	7.17778445e-01	3.33324678e-02
3.05000000e-02	6.89116807e-01	3.10659484e-02
3.07500000e-02	6.69751422e-01	3.06985850e-02
3.10000000e-02	6.56617035e-01	3.00010389e-02
3.12500000e-02	6.36926239e-01	2.93591207e-02
3.15000000e-02	6.16923075e-01	2.81189406e-02
3.17500000e-02	6.06064491e-01	2.70508040e-02
3.20000000e-02	5.87129436e-01	2.66575628e-02
3.22500000e-02	5.71079683e-01	2.58836984e-02
3.25000000e-02	5.59187881e-01	2.53984605e-02
3.27500000e-02	5.42740593e-01	2.43369387e-02
3.30000000e-02	5.34247443e-01	2.38076106e-02
3.32500000e-02	5.14845490e-01	2.28055578e-02
3.35000000e-02	5.03033428e-01	2.25825274e-02
3.37500000e-02	4.91282591e-01	2.17971885e-02
3.40000000e-02	4.75218418e-01	2.11077471e-02
3.42500000e-02	4.69153081e-01	2.05659911e-02
3.45000000e-02	4.55661226e-01	2.01994611e-02
3.47500000e-02	4.42738197e-01	1.95081227e-02
3.50000000e-02	4.30114556e-01	1.89172729e-02
3.52500000e-02	4.22106083e-01	1.85041642e-02
3.55000000e-02	4.10441600e-01	1.77172727e-02
3.57500000e-02	4.01048425e-01	1.75156648e-02
3.60000000e-02	3.95371553e-01	1.72196333e-02
3.62500000e-02	3.80772444e-01	1.66197455e-02
3.65000000e-02	3.73481288e-01	1.62478093e-02
3.67500000e-02	3.67443867e-01	1.58391005e-02
3.70000000e-02	3.55290264e-01	1.52790066e-02
3.72500000e-02	3.44338543e-01	1.47752927e-02
3.75000000e-02	3.40458987e-01	1.46937756e-02
3.77500000e-02	3.32432188e-01	1.42029008e-02
3.80000000e-02	3.24915854e-01	1.38445859e-02
3.82500000e-02	3.18326199e-01	1.34471375e-02
3.85000000e-02	3.11322861e-01	1.33250411e-02
3.87500000e-02	3.02056759e-01	1.27419250e-02
3.90000000e-02	2.99065122e-01	1.27485133e-02
3.92500000e-02	2.90677829e-01	1.21566447e-02
3.95000000e-02	2.87700360e-01	1.21100126e-02
3.97500000e-02	2.81273447e-01	1.18356405e-02
4.00000000e-02	2.76544867e-01	1.15889711e-02
4.02500000e-02	2.69868654e-01	1.13005516e-02
4.05000000e-02	2.66367408e-01	1.10451469e-02
4.07500000e-02	2.58936259e-01	1.06961818e-02
4.10000000e-02	2.55017176e-01	1.06190360e-02
4.12500000e-02	2.49128027e-01	1.03397207e-02
4.15000000e-02	2.42851760e-01	9.95505082e-03
4.17500000e-02	2.40837736e-01	9.90345547e-03
4.20000000e-02	2.34976753e-01	9.56566274e-03
4.22500000e-02	2.31483370e-01	9.40423748e-03
4.25000000e-02	2.25754187e-01	9.20366609e-03
4.27500000e-02	2.22062619e-01	9.01330485e-03
4.30000000e-02	2.18596805e-01	8.86933394e-03
4.32500000e-02	2.12466864e-01	8.56994171e-03
4.35000000e-02	2.12469193e-01	8.67419865e-03
4.37500000e-02	2.04776018e-01	8.16719756e-03
4.40000000e-02	2.03679684e-01	8.21960242e-03
4.42500000e-02	1.98286727e-01	7.97818666e-03
4.45000000e-02	1.97724796e-01	7.86203217e-03
4.47500000e-02	1.94843486e-01	7.72042729e-03
4.50000000e-02	1.90062582e-01	7.56530142e-03
4.52500000e-02	1.86914612e-01	7.38452369e-03
4.55000000e-02	1.84435486e-01	7.28788164e-03
4.57500000e-02	1.81646404e-01	7.14071568e-03
4.60000000e-02	1.78372315e-01	7.03876385e-03
4.62500000e-02	1.75816947e-01	6.93832802e-03
4.65000000e-02	1.72690280e-01	6.75517268e-03
4.67500000e-02	1.69850941e-01	6.60448427e-03
4.70000000e-02	1.69000207e-01	6.54874167e-03
4.72500000e-02	1.63053662e-01	6.34363972e-03
4.75000000e-02	1.62153161e-01	6.36961526e-03
4.77500000e-02	1.58940553e-01	6.11924893e-03
4.80000000e-02	1.58303016e-01	6.10329163e-03
4.82500000e-02	1.54164111e-01	5.94944814e-03
4.85000000e-02	1.50468841e-01	5.83975460e-03
4.87500000e-02	1.50139891e-01	5.77910542e-03
4.90000000e-02	1.47719949e-01	5.64705431e-03
4.92500000e-02	1.44332717e-01	5.51465273e-03
4.95000000e-02	1.42323977e-01	5.41635410e-03
4.97500000e-02	1.42229853e-01	5.44414707e-03
5.00000000e-02	1.37339506e-01	5.24516993e-03
5.02500000e-02	1.37221604e-01	5.17052764e-03
5.05000000e-02	1.36069893e-01	5.12052160e-03
5.07500000e-02	1.36378744e-01	5.17164531e-03
5.10000000e-02	1.32375182e-01	4.98986325e-03
5.12500000e-02	1.30048045e-01	4.91251721e-03
5.15000000e-02	1.28422214e-01	4.77757483e-03
5.17500000e-02	1.27650242e-01	4.78705402e-03
5.20000000e-02	1.24634114e-01	4.64945859e-03
5.22500000e-02	1.23128991e-01	4.62869999e-03
5.25000000e-02	1.22013455e-01	4.51871062e-03
5.27500000e-02	1.20870546e-01	4.47195055e-03
5.30000000e-02	1.19246225e-01	4.44363363e-03
5.32500000e-02	1.16813299e-01	4.33263491e-03
5.35000000e-02	1.14650327e-01	4.25427760e-03
5.37500000e-02	1.15130356e-01	4.21720299e-03
5.40000000e-02	1.12884216e-01	4.16655470e-03
5.42500000e-02	1.12022641e-01	4.09976336e-03
5.45000000e-02	1.10989812e-01	4.06446874e-03
5.47500000e-02	1.09156734e-01	3.97984487e-03
5.50000000e-02	1.07868098e-01	3.95172169e-03
5.52500000e-02	1.06947861e-01	3.88986609e-03
5.55000000e-02	1.05134350e-01	3.80511488e-03
5.57500000e-02	1.04488179e-01	3.80158975e-03
5.60000000e-02	1.03734422e-01	3.73278648e-03
5.62500000e-02	1.02881771e-01	3.72725713e-03
5.65000000e-02	1.00023946e-01	3.60141801e-03
5.67500000e-02	9.99688685e-02	3.60150322e-03
5.70000000e-02	9.85164104e-02	3.52597156e-03
5.72500000e-02	9.76623757e-02	3.50643962e-03
5.75000000e-02	9.55107695e-02	3.44512637e-03
5.77500000e-02	9.58975548e-02	3.39828695e-03
5.80000000e-02	9.53746509e-02	3.41843449e-03
5.82500000e-02	9.32225214e-02	3.31461016e-03
5.85000000e-02	9.21683112e-02	3.28375770e-03
5.87500000e-02	9.22748502e-02	3.27092494e-03
5.90000000e-02	8.97785884e-02	3.17201104e-03
5.92500000e-02	9.03082286e-02	3.18879759e-03
5.95000000e-02	9.00102586e-02	3.15687886e-03
5.97500000e-02	8.75723474e-02	3.10954479e-03
6.00000000e-02	8.78887125e-02	3.08442630e-03
6.02500000e-02	8.77315725e-02	3.07321615e-03
6.05000000e-02	8.60014439e-02	3.00901016e-03
6.07500000e-02	8.42793970e-02	2.95339817e-03
6.10000000e-02	8.49070166e-02	2.96819295e-03
6.12500000e-02	8.34270728e-02	2.90841915e-03
6.15000000e-02	8.24008831e-02	2.87388153e-03
6.17500000e-02	8.18228840e-02	2.84444476e-03
6.20000000e-02	8.17300426e-02	2.83676388e-03
6.22500000e-02	8.18613443e-02	2.83364616e-03
6.25000000e-02	7.96505925e-02	2.76117362e-03
6.27500000e-02	7.98838077e-02	2.73966975e-03
6.30000000e-02	7.97915436e-02	2.74699548e-03
6.32500000e-02	7.92436370e-02	2.71381588e-03
6.35000000e-02	7.83236792e-02	2.68594444e-03
6.37500000e-02	8.04633512e-02	2.76636890e-03
6.40000000e-02	7.93949837e-02	2.72130493e-03
6.42500000e-02	7.83251594e-02	2.66093673e-03
6.45000000e-02	8.00584926e-02	2.71712079e-03
6.47500000e-02	8.13583992e-02	2.76962334e-03
6.50000000e-02	8.31280156e-02	2.81372177e-03
6.52500000e-02	8.43178701e-02	2.83175713e-03
6.55000000e-02	8.33914476e-02	2.81330136e-03
6.57500000e-02	8.52548913e-02	2.87153693e-03
6.60000000e-02	8.59472263e-02	2.89012481e-03
6.62500000e-02	9.27999594e-02	3.12515431e-03
6.65000000e-02	9.95257430e-02	3.32822944e-03
6.67500000e-02	1.13382015e-01	3.86505983e-03
6.70000000e-02	1.32114626e-01	4.72741354e-03
6.72500000e-02	1.48887519e-01	5.56877478e-03
6.75000000e-02	1.49121967e-01	5.36110887e-03
6.77500000e-02	1.41815671e-01	4.96893449e-03
6.80000000e-02	1.33435691e-01	4.61066081e-03
6.82500000e-02	1.26252146e-01	4.26107714e-03
6.85000000e-02	1.24401104e-01	4.18455592e-03
6.87500000e-02	1.20637290e-01	4.05286886e-03
6.90000000e-02	1.19647804e-01	4.00818042e-03
6.92500000e-02	1.13242739e-01	3.78670081e-03
6.95000000e-02	1.08056761e-01	3.62490698e-03
6.97500000e-02	1.02547958e-01	3.40905532e-03
7.00000000e-02	9.47492924e-02	3.12386308e-03
7.02500000e-02	8.92798964e-02	2.92148069e-03
7.05000000e-02	8.14909135e-02	2.66107854e-03
7.07500000e-02	7.91062276e-02	2.59874615e-03
7.10000000e-02	7.30812082e-02	2.36890846e-03
7.12500000e-02	6.82946484e-02	2.23406641e-03
7.15000000e-02	6.48476396e-02	2.11305931e-03
7.17500000e-02	6.44122879e-02	2.09465141e-03
7.20000000e-02	6.18377267e-02	2.02589718e-03
7.22500000e-02	6.18616820e-02	2.01335319e-03
7.25000000e-02	6.05391377e-02	1.96684887e-03
7.27500000e-02	5.92141285e-02	1.92974129e-03
7.30000000e-02	5.88219041e-02	1.91817604e-03
7.32500000e-02	5.87466528e-02	1.89965674e-03
7.35000000e-02	5.86954346e-02	1.90905121e-03
7.37500000e-02	5.79462667e-02	1.86728433e-03
7.40000000e-02	5.70681169e-02	1.84522841e-03
7.42500000e-02	5.56061811e-02	1.80059705e-03
7.45000000e-02	5.56308051e-02	1.79705108e-03
7.47500000e-02	5.54141881e-02	1.78541177e-03
7.50000000e-02	5.42408032e-02	1.74723550e-03
7.52500000e-02	5.43985336e-02	1.75276705e-03
7.55000000e-02	5.46764878e-02	1.75251308e-03
7.57500000e-02	5.41730765e-02	1.74034215e-03
7.60000000e-02	5.27148458e-02	1.69110364e-03
7.62500000e-02	5.33885761e-02	1.70908836e-03
7.65000000e-02	5.28635276e-02	1.68306079e-03
7.67500000e-02	5.18871254e-02	1.65615273e-03
7.70000000e-02	5.25216556e-02	1.66384404e-03
7.72500000e-02	5.18869329e-02	1.67210609e-03
7.75000000e-02	5.22875756e-02	1.71085358e-03
7.77500000e-02	5.23804842e-02	1.72001900e-03
7.80000000e-02	5.15752609e-02	1.70141813e-03
7.82500000e-02	5.16461671e-02	1.71770550e-03
7.85000000e-02	5.14331821e-02	1.72182466e-03
7.87500000e-02	5.10526757e-02	1.70350210e-03
7.90000000e-02	5.10726804e-02	1.71825176e-03
7.92500000e-02	4.97793492e-02	1.67167105e-03
7.95000000e-02	5.02969122e-02	1.68801212e-03
7.97500000e-02	4.97730097e-02	1.69829972e-03
8.00000000e-02	5.05948873e-02	1.70643769e-03
8.02500000e-02	5.02220185e-02	1.71257690e-03
8.05000000e-02	4.95480793e-02	1.67709560e-03
8.07500000e-02	4.98556021e-02	1.70738327e-03
8.10000000e-02	4.82925207e-02	1.65948972e-03
8.12500000e-02	4.89049323e-02	1.66908239e-03
8.15000000e-02	4.94720680e-02	1.68439538e-03
8.17500000e-02	4.87699570e-02	1.67225266e-03
8.20000000e-02	4.81582014e-02	1.65027554e-03
8.22500000e-02	4.79317103e-02	1.65078775e-03
8.25000000e-02	4.84799701e-02	1.67204391e-03
8.27500000e-02	4.65755034e-02	1.60492322e-03
8.30000000e-02	4.77254480e-02	1.65270533e-03
8.32500000e-02	4.67680350e-02	1.62000897e-03
8.35000000e-02	4.68645861e-02	1.63754655e-03
8.37500000e-02	4.58399279e-02	1.58044627e-03
8.40000000e-02	4.60073751e-02	1.60004025e-03
8.42500000e-02	4.62504526e-02	1.60971163e-03
8.45000000e-02	4.55057030e-02	1.59661985e-03
8.47500000e-02	4.57321621e-02	1.60581579e-03
8.50000000e-02	4.56321166e-02	1.58601390e-03
8.52500000e-02	4.60900900e-02	1.62588371e-03
8.55000000e-02	4.54665051e-02	1.59119233e-03
8.57500000e-02	4.49463055e-02	1.58444456e-03
8.60000000e-02	4.63624843e-02	1.63010980e-03
8.62500000e-02	4.52272788e-02	1.59388489e-03
8.65000000e-02	4.55953455e-02	1.60008581e-03
8.67500000e-02	4.33688390e-02	1.51322561e-03
8.70000000e-02	4.30285491e-02	1.49351315e-03
8.72500000e-02	4.42925782e-02	1.51773144e-03
8.75000000e-02	4.30835331e-02	1.44944562e-03
8.77500000e-02	4.31543823e-02	1.44321473e-03
8.80000000e-02	4.31386539e-02	1.44257400e-03
8.82500000e-02	4.30264388e-02	1.43571482e-03
8.85000000e-02	4.17302561e-02	1.38826841e-03
8.87500000e-02	4.26920670e-02	1.39506941e-03
8.90000000e-02	4.16509981e-02	1.36821008e-03
8.92500000e-02	4.20619170e-02	1.38281367e-03
8.95000000e-02	4.21628088e-02	1.37618024e-03
8.97500000e-02	4.13096150e-02	1.34071001e-03
9.00000000e-02	4.18302587e-02	1.35010831e-03
9.02500000e-02	4.07124110e-02	1.32083527e-03
9.05000000e-02	4.07119109e-02	1.31670786e-03
9.07500000e-02	4.09899860e-02	1.31855873e-03
9.10000000e-02	4.05630269e-02	1.29910409e-03
9.12500000e-02	4.06692305e-02	1.29761072e-03
9.15000000e-02	4.01237889e-02	1.28817263e-03
9.17500000e-02	4.02824339e-02	1.29197053e-03
9.20000000e-02	4.01594940e-02	1.27874229e-03
9.22500000e-02	4.00526998e-02	1.27048154e-03
9.25000000e-02	4.04275873e-02	1.28132620e-03
9.27500000e-02	3.93249453e-02	1.24518441e-03
9.30000000e-02	3.88451164e-02	1.22645366e-03
9.32500000e-02	3.88186936e-02	1.22880210e-03
9.35000000e-02	3.90697623e-02	1.23225471e-03
9.37500000e-02	3.95454403e-02	1.23758279e-03
9.40000000e-02	3.87236907e-02	1.21664489e-03
9.42500000e-02	3.84567544e-02	1.20314990e-03
9.45000000e-02	3.80763810e-02	1.19178099e-03
9.47500000e-02	3.80815357e-02	1.18600874e-03
9.50000000e-02	3.76487735e-02	1.17128519e-03
9.52500000e-02	3.86997282e-02	1.20008760e-03
9.55000000e-02	3.83767008e-02	1.19645721e-03
9.57500000e-02	3.74501978e-02	1.16155242e-03
9.60000000e-02	3.81425743e-02	1.18376988e-03
9.62500000e-02	3.71198053e-02	1.14971669e-03
9.65000000e-02	3.78251653e-02	1.16793675e-03
9.67500000e-02	3.77327398e-02	1.15791182e-03
9.70000000e-02	3.78343364e-02	1.16088678e-03
9.72500000e-02	3.73347878e-02	1.14582841e-03
9.75000000e-02	3.72743109e-02	1.14111704e-03
9.77500000e-02	3.77261527e-02	1.14703329e-03
9.80000000e-02	3.72962750e-02	1.14071092e-03
9.82500000e-02	3.72449711e-02	1.13870996e-03
9.85000000e-02	3.72930261e-02	1.13200691e-03
9.87500000e-02	3.67464318e-02	1.11736597e-03
9.90000000e-02	3.61823218e-02	1.10369090e-03
9.92500000e-02	3.67937289e-02	1.12100780e-03
9.95000000e-02	3.65410403e-02	1.10511655e-03
9.97500000e-02	3.64496834e-02	1.10688045e-03
1.00000000e-01	3.66225852e-02	8.98870265e-04
1.00500000e-01	3.65400888e-02	7.81963032e-04
1.01000000e-01	3.63544131e-02	7.74170059e-04
1.01500000e-01	3.65367539e-02	7.72236710e-04
1.02000000e-01	3.59029641e-02	7.60261729e-04
1.02500000e-01	3.61881798e-02	7.60493127e-04
1.03000000e-01	3.57510039e-02	7.51756308e-04
1.03500000e-01	3.53842006e-02	7.43545021e-04
1.04000000e-01	3.51752816e-02	7.34638277e-04
1.04500000e-01	3.57134274e-02	7.46643467e-04
1.05000000e-01	3.53859040e-02	7.32646818e-04
1.05500000e-01	3.46709081e-02	7.20636175e-04
1.06000000e-01	3.54865324e-02	7.35335278e-04
1.06500000e-01	3.52402846e-02	7.25763671e-04
1.07000000e-01	3.46122530e-02	7.23370139e-04
1.07500000e-01	3.47816371e-02	7.40754977e-04
1.08000000e-01	3.47074383e-02	7.43928837e-04
1.08500000e-01	3.41863572e-02	7.41227915e-04
1.09000000e-01	3.36485362e-02	7.31325847e-04
1.09500000e-01	3.34309950e-02	7.30416444e-04
1.10000000e-01	3.40040719e-02	7.33319279e-04
1.10500000e-01	3.40895363e-02	7.26783234e-04
1.11000000e-01	3.49010075e-02	7.28317088e-04
1.11500000e-01	3.47078311e-02	7.19584184e-04
1.12000000e-01	3.50243090e-02	7.18837090e-04
1.12500000e-01	3.54794462e-02	7.23004951e-04
1.13000000e-01	3.55272958e-02	7.23297761e-04
1.13500000e-01	3.57329836e-02	7.22756995e-04
1.14000000e-01	3.56683480e-02	7.19229546e-04
1.14500000e-01	3.59489626e-02	7.25527241e-04
1.15000000e-01	3.59332504e-02	7.18321485e-04
1.15500000e-01	3.62133000e-02	7.24686808e-04
1.16000000e-01	3.72707841e-02	7.41378044e-04
1.16500000e-01	3.72395798e-02	7.40737799e-04
1.17000000e-01	3.77619020e-02	7.48722927e-04
1.17500000e-01	3.74109473e-02	7.40414029e-04
1.18000000e-01	3.75600223e-02	7.41945527e-04
1.18500000e-01	3.75532728e-02	7.38383493e-04
1.19000000e-01	3.81961382e-02	7.52305428e-04
1.19500000e-01	3.86473535e-02	7.55816672e-04
1.20000000e-01	3.86368252e-02	7.52165403e-04
1.20500000e-01	3.91980111e-02	7.60329837e-04
1.21000000e-01	3.95442945e-02	7.69258974e-04
1.21500000e-01	3.97904530e-02	7.72541831e-04
1.22000000e-01	3.99026012e-02	7.69989895e-04
1.22500000e-01	4.04992608e-02	7.77450372e-04
1.23000000e-01	4.18406615e-02	8.04906993e-04
1.23500000e-01	4.24765535e-02	8.10901233e-04
1.24000000e-01	4.31755279e-02	8.25974006e-04
1.24500000e-01	4.41620455e-02	8.41875639e-04
1.25000000e-01	4.42651186e-02	8.43173517e-04
1.25500000e-01	4.50808862e-02	8.54957250e-04
1.26000000e-01	4.56543389e-02	8.66494002e-04
1.26500000e-01	4.65794270e-02	8.81701115e-04
1.27000000e-01	4.69363796e-02	8.87054024e-04
1.27500000e-01	4.81300948e-02	9.06483115e-04
1.28000000e-01	4.90856763e-02	9.22317267e-04
1.28500000e-01	4.95836946e-02	9.29459999e-04
1.29000000e-01	4.93993914e-02	9.24152144e-04
1.29500000e-01	5.06089391e-02	9.43953880e-04
1.30000000e-01	5.16829328e-02	9.61034422e-04
1.30500000e-01	5.17482431e-02	9.60821675e-04
1.31000000e-01	5.19296066e-02	9.61907794e-04
1.31500000e-01	5.18683137e-02	9.58435675e-04
1.32000000e-01	5.17562142e-02	9.55909734e-04
1.32500000e-01	5.12699027e-02	9.41146567e-04
1.33000000e-01	5.06693095e-02	9.30253754e-04
1.33500000e-01	4.98798194e-02	9.10262775e-04
1.34000000e-01	4.96833478e-02	9.07057632e-04
1.34500000e-01	4.95083406e-02	8.98368050e-04
1.35000000e-01	4.89451748e-02	8.84946898e-04
1.35500000e-01	4.76463521e-02	8.62297595e-04
1.36000000e-01	4.64461557e-02	8.37058083e-04
1.36500000e-01	4.53076410e-02	8.21614008e-04
1.37000000e-01	4.46691202e-02	8.02230827e-04
1.37500000e-01	4.31226986e-02	7.79142771e-04
1.38000000e-01	4.24111976e-02	7.64657918e-04
1.38500000e-01	4.11935032e-02	7.42733330e-04
1.39000000e-01	4.00463207e-02	7.23389566e-04
1.39500000e-01	3.93455307e-02	7.08958928e-04
1.40000000e-01	3.82018899e-02	6.89264933e-04
1.40500000e-01	3.73641974e-02	6.71953175e-04
1.41000000e-01	3.60539258e-02	6.46002863e-04
1.41500000e-01	3.50737024e-02	6.30599569e-04
1.42000000e-01	3.41592644e-02	6.12363170e-04
1.42500000e-01	3.36987666e-02	6.06497583e-04
1.43000000e-01	3.26190855e-02	5.86619111e-04
1.43500000e-01	3.24804563e-02	5.80689620e-04
1.44000000e-01	3.15815834e-02	5.67116307e-04
1.44500000e-01	3.12726141e-02	5.55489199e-04
1.45000000e-01	3.10850872e-02	5.56719486e-04
1.45500000e-01	3.07260929e-02	5.48736646e-04
1.46000000e-01	3.01111537e-02	5.37254949e-04
1.46500000e-01	2.96694030e-02	5.30307669e-04
1.47000000e-01	2.95163095e-02	5.24828812e-04
1.47500000e-01	2.91679054e-02	5.18529273e-04
1.48000000e-01	2.86915400e-02	5.10884643e-04
1.48500000e-01	2.84513314e-02	5.04421070e-04
1.49000000e-01	2.82142303e-02	5.00331408e-04
1.49500000e-01	2.80983905e-02	4.99046941e-04
1.50000000e-01	2.81298268e-02	4.96351928e-04
1.50500000e-01	2.74365559e-02	4.88071715e-04
1.51000000e-01	2.73239757e-02	4.83148911e-04
1.51500000e-01	2.72727533e-02	4.80008655e-04
1.52000000e-01	2.72021005e-02	4.76299885e-04
1.52500000e-01	2.72911076e-02	4.78228473e-04
1.53000000e-01	2.67634314e-02	4.68907526e-04
1.53500000e-01	2.67892582e-02	4.66800173e-04
1.54000000e-01	2.66581944e-02	4.66048185e-04
1.54500000e-01	2.64891622e-02	4.69497130e-04
1.55000000e-01	2.60770259e-02	4.70078312e-04
1.55500000e-01	2.61727725e-02	4.74890257e-04
1.56000000e-01	2.59295337e-02	4.74686485e-04
1.56500000e-01	2.59600869e-02	4.73735216e-04
1.57000000e-01	2.60636657e-02	4.77024236e-04
1.57500000e-01	2.57606823e-02	4.63623127e-04
1.58000000e-01	2.55031851e-02	4.50396938e-04
1.58500000e-01	2.56491397e-02	4.51759567e-04
1.59000000e-01	2.52264203e-02	4.42401453e-04
1.59500000e-01	2.55614839e-02	4.46291995e-04
1.60000000e-01	2.52378349e-02	4.41304813e-04
1.60500000e-01	2.53554539e-02	4.38980619e-04
1.61000000e-01	2.49804580e-02	4.33865726e-04
1.61500000e-01	2.48817178e-02	4.31602393e-04
1.62000000e-01	2.51245909e-02	4.33621266e-04
1.62500000e-01	2.48245270e-02	4.29974004e-04
1.63000000e-01	2.48144889e-02	4.28054804e-04
1.63500000e-01	2.50063559e-02	4.33360249e-04
1.64000000e-01	2.49527184e-02	4.28515338e-04
1.64500000e-01	2.44520735e-02	4.20833743e-04
1.65000000e-01	2.45198484e-02	4.20552822e-04
1.65500000e-01	2.42516672e-02	4.14174165e-04
1.66000000e-01	2.42166666e-02	4.14104269e-04
1.66500000e-01	2.44576339e-02	4.18098724e-04
1.67000000e-01	2.47226431e-02	4.21210811e-04
1.67500000e-01	2.42587599e-02	4.13273603e-04
1.68000000e-01	2.43435770e-02	4.14065526e-04
1.68500000e-01	2.43626159e-02	4.14061482e-04
1.69000000e-01	2.39692170e-02	4.06300524e-04
1.69500000e-01	2.42543537e-02	4.08696057e-04
1.70000000e-01	2.42540988e-02	4.09672627e-04
1.70500000e-01	2.43513974e-02	4.10157115e-04
1.71000000e-01	2.40092176e-02	4.03785955e-04
1.71500000e-01	2.41470066e-02	4.08032160e-04
1.72000000e-01	2.40635083e-02	4.05556483e-04
1.72500000e-01	2.40729842e-02	4.04104958e-04
1.73000000e-01	2.40808231e-02	4.02192594e-04
1.73500000e-01	2.40015824e-02	4.00283553e-04
1.74000000e-01	2.39157088e-02	3.99204548e-04
1.74500000e-01	2.35473000e-02	3.90982904e-04
1.75000000e-01	2.34073004e-02	3.87778985e-04
1.75500000e-01	2.38191180e-02	3.92547344e-04
1.76000000e-01	2.39535957e-02	3.95592536e-04
1.76500000e-01	2.39022321e-02	3.94863243e-04
1.77000000e-01	2.37264250e-02	3.90610065e-04
1.77500000e-01	2.36577580e-02	3.89960598e-04
1.78000000e-01	2.34529754e-02	3.86241300e-04
1.78500000e-01	2.33918827e-02	3.86014875e-04
1.79000000e-01	2.35574319e-02	3.87327230e-04
1.79500000e-01	2.37210877e-02	3.89948894e-04
1.80000000e-01	2.34632460e-02	3.86826571e-04
1.80500000e-01	2.35631372e-02	3.86564264e-04
1.81000000e-01	2.33397097e-02	3.82639389e-04
1.81500000e-01	2.34313030e-02	3.82667017e-04
1.82000000e-01	2.32500464e-02	3.81345913e-04
1.82500000e-01	2.36226681e-02	3.84711042e-04
1.83000000e-01	2.32592965e-02	3.80572709e-04
1.83500000e-01	2.33821155e-02	3.79968219e-04
1.84000000e-01	2.35496699e-02	3.83037698e-04
1.84500000e-01	2.33050624e-02	3.77577584e-04
1.85000000e-01	2.35126006e-02	3.80255120e-04
1.85500000e-01	2.33704544e-02	3.79098155e-04
1.86000000e-01	2.30406239e-02	3.73579956e-04
1.86500000e-01	2.33777449e-02	3.76743366e-04
1.87000000e-01	2.31519875e-02	3.73564605e-04
1.87500000e-01	2.30076581e-02	3.70159822e-04
1.88000000e-01	2.31752549e-02	3.73448847e-04
1.88500000e-01	2.32525554e-02	3.73501187e-04
1.89000000e-01	2.32397133e-02	3.73322012e-04
1.89500000e-01	2.34357648e-02	3.75948431e-04
1.90000000e-01	2.32918579e-02	3.71113405e-04
1.90500000e-01	2.33940880e-02	3.73995464e-04
1.91000000e-01	2.31395571e-02	3.69928458e-04
1.91500000e-01	2.31488865e-02	3.72164714e-04
1.92000000e-01	2.29620724e-02	3.65374713e-04
1.92500000e-01	2.29282675e-02	3.65645338e-04
1.93000000e-01	2.29346732e-02	3.64941561e-04
1.93500000e-01	2.31595231e-02	3.67796814e-04
1.94000000e-01	2.29437294e-02	3.63578009e-04
1.94500000e-01	2.30206980e-02	3.65113920e-04
1.95000000e-01	2.26983166e-02	3.59732044e-04
1.95500000e-01	2.27466871e-02	3.58765155e-04
1.96000000e-01	2.27860706e-02	3.59065931e-04
1.96500000e-01	2.27419894e-02	3.58874103e-04
1.97000000e-01	2.28707108e-02	3.60954983e-04
1.97500000e-01	2.28491458e-02	3.59370791e-04
1.98000000e-01	2.28651011e-02	3.58719988e-04
1.98500000e-01	2.26573387e-02	3.54832221e-04
1.99000000e-01	2.31664773e-02	3.63151897e-04
1.99500000e-01	2.26813556e-02	3.54682673e-04
2.00000000e-01	2.27760055e-02	3.56316646e-04
2.00500000e-01	2.25932550e-02	3.53644259e-04
2.01000000e-01	2.27196338e-02	3.53549831e-04
2.01500000e-01	2.29325663e-02	3.58346422e-04
2.02000000e-01	2.28983219e-02	3.55281320e-04
2.02500000e-01	2.27719028e-02	3.53540514e-04
2.03000000e-01	2.27206240e-02	3.53844593e-04
2.03500000e-01	2.26147323e-02	3.50848844e-04
2.04000000e-01	2.28392434e-02	3.53155624e-04
2.04500000e-01	2.24069420e-02	3.47629007e-04
2.05000000e-01	2.27563587e-02	3.51624882e-04
2.05500000e-01	2.26371405e-02	3.50327487e-04
2.06000000e-01	2.26621334e-02	3.48581253e-04
2.06500000e-01	2.25631050e-02	3.48221005e-04
2.07000000e-01	2.24626478e-02	3.45342413e-04
2.07500000e-01	2.26949999e-02	3.48355017e-04
2.08000000e-01	2.25723922e-02	3.46835941e-04
2.08500000e-01	2.25923730e-02	3.45379828e-04
2.09000000e-01	2.25105840e-02	3.44584968e-04
2.09500000e-01	2.25912326e-02	3.45655508e-04
2.10000000e-01	2.22988785e-02	3.41100070e-04
2.10500000e-01	2.25015587e-02	3.43892685e-04
2.11000000e-01	2.24323435e-02	3.39823214e-04
2.11500000e-01	2.24063145e-02	3.41747732e-04
2.12000000e-01	2.24056357e-02	3.40022365e-04
2.12500000e-01	2.22193341e-02	3.37717769e-04
2.13000000e-01	2.23750254e-02	3.40310258e-04
2.13500000e-01	2.21682421e-02	3.35962254e-04
2.14000000e-01	2.24183806e-02	3.39661957e-04
2.14500000e-01	2.20712377e-02	3.34561946e-04
2.15000000e-01	2.21870172e-02	3.36240338e-04
2.15500000e-01	2.16054658e-02	3.26550583e-04
2.16000000e-01	2.21347913e-02	3.33975557e-04
2.16500000e-01	2.18778193e-02	3.30228486e-04
2.17000000e-01	2.16797759e-02	3.31679620e-04
2.17500000e-01	2.18142530e-02	3.38555073e-04
2.18000000e-01	2.19488733e-02	3.41421723e-04
2.18500000e-01	2.19250246e-02	3.44073152e-04
2.19000000e-01	2.19971927e-02	3.46354848e-04
2.19500000e-01	2.16755963e-02	3.41742088e-04
2.20000000e-01	2.20377455e-02	3.49697941e-04
2.20500000e-01	2.20792698e-02	3.50392612e-04
2.21000000e-01	2.19965860e-02	3.50548845e-04
2.21500000e-01	2.20223484e-02	3.53211185e-04
2.22000000e-01	2.17124613e-02	3.47887720e-04
2.22500000e-01	2.17366042e-02	3.49460026e-04
2.23000000e-01	2.17585900e-02	3.49880518e-04
2.23500000e-01	2.16977672e-02	3.50789050e-04
2.24000000e-01	2.18062271e-02	3.52812813e-04
2.24500000e-01	2.15764736e-02	3.50924330e-04
2.25000000e-01	2.16004007e-02	3.50912683e-04
2.25500000e-01	2.17742109e-02	3.53181846e-04
2.26000000e-01	2.13887432e-02	3.49395617e-04
2.26500000e-01	2.16490055e-02	3.47351098e-04
2.27000000e-01	2.16764326e-02	3.44625270e-04
2.27500000e-01	2.13963335e-02	3.38122996e-04
2.28000000e-01	2.17146627e-02	3.40814434e-04
2.28500000e-01	2.13676575e-02	3.33851475e-04
2.29000000e-01	2.15823262e-02	3.35861985e-04
2.29500000e-01	2.13674796e-02	3.31410845e-04
2.30000000e-01	2.16116271e-02	3.33797916e-04
2.30500000e-01	2.13635068e-02	3.29561684e-04
2.31000000e-01	2.15193769e-02	3.30819346e-04
2.31500000e-01	2.16680374e-02	3.31403454e-04
2.32000000e-01	2.13560596e-02	3.27260183e-04
2.32500000e-01	2.14533297e-02	3.28789541e-04
2.33000000e-01	2.15549840e-02	3.27127353e-04
2.33500000e-01	2.14809710e-02	3.27129379e-04
2.34000000e-01	2.14717291e-02	3.24932176e-04
2.34500000e-01	2.13508688e-02	3.23010839e-04
2.35000000e-01	2.12015685e-02	3.19633539e-04
2.35500000e-01	2.13363453e-02	3.20737483e-04
2.36000000e-01	2.11570925e-02	3.19459439e-04
2.36500000e-01	2.13417483e-02	3.21186408e-04
2.37000000e-01	2.10825738e-02	3.16526579e-04
2.37500000e-01	2.14160290e-02	3.21159598e-04
2.38000000e-01	2.09826865e-02	3.12804559e-04
2.38500000e-01	2.12050076e-02	3.17382387e-04
2.39000000e-01	2.11512173e-02	3.14816561e-04
2.39500000e-01	2.11492023e-02	3.14765390e-04
2.40000000e-01	2.09671477e-02	3.11557502e-04
2.40500000e-01	2.08500130e-02	3.09239239e-04
2.41000000e-01	2.09392724e-02	3.11147893e-04
2.41500000e-01	2.13187817e-02	3.14443273e-04
2.42000000e-01	2.11735161e-02	3.12609598e-04
2.42500000e-01	2.10226284e-02	3.09650701e-04
2.43000000e-01	2.10978200e-02	3.09326794e-04
2.43500000e-01	2.09691489e-02	3.08815535e-04
2.44000000e-01	2.09599077e-02	3.07307987e-04
2.44500000e-01	2.11685232e-02	3.10568308e-04
2.45000000e-01	2.09265360e-02	3.05839314e-04
2.45500000e-01	2.10812485e-02	3.09232459e-04
2.46000000e-01	2.09281752e-02	3.06720664e-04
2.46500000e-01	2.11091886e-02	3.06720897e-04
2.47000000e-01	2.07994016e-02	3.04451783e-04
2.47500000e-01	2.14269627e-02	3.09213688e-04
2.48000000e-01	2.12349918e-02	3.09237486e-04
2.48500000e-01	2.08206510e-02	3.01418852e-04
2.49000000e-01	2.09710385e-02	3.03684160e-04
2.49500000e-01	2.10882672e-02	3.05671628e-04
2.50000000e-01	2.11695304e-02	3.05610199e-04
2.50500000e-01	2.11446754e-02	3.06398013e-04
2.51000000e-01	2.11861933e-02	3.03916772e-04
2.51500000e-01	2.11053620e-02	3.03627146e-04
2.52000000e-01	2.12970821e-02	3.06635316e-04
2.52500000e-01	2.13096562e-02	3.06109393e-04
2.53000000e-01	2.11611521e-02	3.03973339e-04
2.53500000e-01	2.11219152e-02	3.02616824e-04
2.54000000e-01	2.12248656e-02	3.04772717e-04
2.54500000e-01	2.13521548e-02	3.06525321e-04
2.55000000e-01	2.10961196e-02	3.01979723e-04
2.55500000e-01	2.12930278e-02	3.03512122e-04
2.56000000e-01	2.10607909e-02	2.99648623e-04
2.56500000e-01	2.11139460e-02	3.00139136e-04
2.57000000e-01	2.09767204e-02	2.97373972e-04
2.57500000e-01	2.13181639e-02	3.02454248e-04
2.58000000e-01	2.10252611e-02	2.98940778e-04
2.58500000e-01	2.11767634e-02	2.99838307e-04
2.59000000e-01	2.13012896e-02	3.01261049e-04
2.59500000e-01	2.11837904e-02	2.99589905e-04
2.60000000e-01	2.08936630e-02	2.95355413e-04
2.60500000e-01	2.11168292e-02	2.98569569e-04
2.61000000e-01	2.10617000e-02	2.97830244e-04
2.61500000e-01	2.13224369e-02	3.00693295e-04
2.62000000e-01	2.13971144e-02	3.00855031e-04
2.62500000e-01	2.10419066e-02	2.96090215e-04
2.63000000e-01	2.13039995e-02	2.98120881e-04
2.63500000e-01	2.12613442e-02	2.97385908e-04
2.64000000e-01	2.09081645e-02	2.93374042e-04
2.64500000e-01	2.11752095e-02	2.95781705e-04
2.65000000e-01	2.12523606e-02	2.97385939e-04
2.65500000e-01	2.12074172e-02	2.95206640e-04
2.66000000e-01	2.11237266e-02	2.95093318e-04
2.66500000e-01	2.12000382e-02	2.95431745e-04
2.67000000e-01	2.12086977e-02	2.95395230e-04
2.67500000e-01	2.10639314e-02	2.92499952e-04
2.68000000e-01	2.12317115e-02	2.94804882e-04
2.68500000e-01	2.10819868e-02	2.91279725e-04
2.69000000e-01	2.11267327e-02	2.91868450e-04
2.69500000e-01	2.08533268e-02	2.88101431e-04
2.70000000e-01	2.09118604e-02	2.89089106e-04
2.70500000e-01	2.08842819e-02	2.86518764e-04
2.71000000e-01	2.10571547e-02	2.88648782e-04
2.71500000e-01	2.09742045e-02	2.89266747e-04
2.72000000e-01	2.06942937e-02	2.85367956e-04
2.72500000e-01	2.06082645e-02	2.83103446e-04
2.73000000e-01	2.07921120e-02	2.85305933e-04
2.73500000e-01	2.06989854e-02	2.83450920e-04
2.74000000e-01	2.06922327e-02	2.84405028e-04
2.74500000e-01	2.05703148e-02	2.81074334e-04
2.75000000e-01	2.05154795e-02	2.81290115e-04
2.75500000e-01	2.06741575e-02	2.83042762e-04
2.76000000e-01	2.04123450e-02	2.79544865e-04
2.76500000e-01	2.07148327e-02	2.83929382e-04
2.77000000e-01	2.03729214e-02	2.79069217e-04
2.77500000e-01	2.04346749e-02	2.78958475e-04
2.78000000e-01	2.04144489e-02	2.77063764e-04
2.78500000e-01	2.03819617e-02	2.79248711e-04
2.79000000e-01	2.04840301e-02	2.78342986e-04
2.79500000e-01	2.02996789e-02	2.76596800e-04
2.80000000e-01	2.01851575e-02	2.75867811e-04
2.80500000e-01	2.03088776e-02	2.75584648e-04
2.81000000e-01	2.00766271e-02	2.73292319e-04
2.81500000e-01	2.02932628e-02	2.75892782e-04
2.82000000e-01	2.02184601e-02	2.74640995e-04
2.82500000e-01	2.01818303e-02	2.74056093e-04
2.83000000e-01	2.02630177e-02	2.74343870e-04
2.83500000e-01	2.00381288e-02	2.70547769e-04
2.84000000e-01	1.99216360e-02	2.69676044e-04
2.84500000e-01	1.97970022e-02	2.68184162e-04
2.85000000e-01	1.99269263e-02	2.70168326e-04
2.85500000e-01	1.97783906e-02	2.66123930e-04
2.86000000e-01	1.98602516e-02	2.68139561e-04
2.86500000e-01	1.96666351e-02	2.64953770e-04
2.87000000e-01	1.95938760e-02	2.64486803e-04
2.87500000e-01	1.95871524e-02	2.62004900e-04
2.88000000e-01	1.99719261e-02	2.67333981e-04
2.88500000e-01	1.96513172e-02	2.64320766e-04
2.89000000e-01	1.96664576e-02	2.63651642e-04
2.89500000e-01	1.96633613e-02	2.63081167e-04
2.90000000e-01	1.96438699e-02	2.62261347e-04
2.90500000e-01	1.94626195e-02	2.60752100e-04
2.91000000e-01	1.94109852e-02	2.59218096e-04
2.91500000e-01	1.94467963e-02	2.59320598e-04
2.92000000e-01	1.96725118e-02	2.62438994e-04
2.92500000e-01	1.95128193e-02	2.60751724e-04
2.93000000e-01	1.95451861e-02	2.60552066e-04
2.93500000e-01	1.93536631e-02	2.58168320e-04
2.94000000e-01	1.96962166e-02	2.60440023e-04
2.94500000e-01	1.92290961e-02	2.56422622e-04
2.95000000e-01	1.95953336e-02	2.59087413e-04
2.95500000e-01	1.92412175e-02	2.56032705e-04
2.96000000e-01	1.93724622e-02	2.56232694e-04
2.96500000e-01	1.94079754e-02	2.56424404e-04
2.97000000e-01	1.93374478e-02	2.56204748e-04
2.97500000e-01	1.95125944e-02	2.57396935e-04
2.98000000e-01	1.93546571e-02	2.56123347e-04
2.98500000e-01	1.91058509e-02	2.52922023e-04
2.99000000e-01	1.91815966e-02	2.52752243e-04
2.99500000e-01	1.90900817e-02	2.53170268e-04
3.00000000e-01	1.91451345e-02	2.52624220e-04
3.00500000e-01	1.93165094e-02	2.54860656e-04
3.01000000e-01	1.92957557e-02	2.52663530e-04
3.01500000e-01	1.90758827e-02	2.50929398e-04
3.02000000e-01	1.92348876e-02	2.52063505e-04
3.02500000e-01	1.90688806e-02	2.50368946e-04
3.03000000e-01	1.93693807e-02	2.55056133e-04
3.03500000e-01	1.93383854e-02	2.53061959e-04
3.04000000e-01	1.91558808e-02	2.50926464e-04
3.04500000e-01	1.90936083e-02	2.49364793e-04
3.05000000e-01	1.89289977e-02	2.47922630e-04
3.05500000e-01	1.92863542e-02	2.51588513e-04
3.06000000e-01	1.90537855e-02	2.47032500e-04
3.06500000e-01	1.92315651e-02	2.50363150e-04
3.07000000e-01	1.91678759e-02	2.49157802e-04
3.07500000e-01	1.92496600e-02	2.50039259e-04
3.08000000e-01	1.91331837e-02	2.48734083e-04
3.08500000e-01	1.87762520e-02	2.44135668e-04
3.09000000e-01	1.90493857e-02	2.47159701e-04
3.09500000e-01	1.90839234e-02	2.47257731e-04
3.10000000e-01	1.90014635e-02	2.46450367e-04
3.10500000e-01	1.91230950e-02	2.47540893e-04
3.11000000e-01	1.89826385e-02	2.45582481e-04
3.11500000e-01	1.87938504e-02	2.43115143e-04
3.12000000e-01	1.88039575e-02	2.42816798e-04
3.12500000e-01	1.88356937e-02	2.43439368e-04
3.13000000e-01	1.88615841e-02	2.43021299e-04
3.13500000e-01	1.88084039e-02	2.42886654e-04
3.14000000e-01	1.88271524e-02	2.42805485e-04
3.14500000e-01	1.86321618e-02	2.39865643e-04
3.15000000e-01	1.88325366e-02	2.42796304e-04
3.15500000e-01	1.89120518e-02	2.42929435e-04
3.16000000e-01	1.86995891e-02	2.40584528e-04
3.16500000e-01	1.89529261e-02	2.43150321e-04
3.17000000e-01	1.85654128e-02	2.38165764e-04
3.17500000e-01	1.85466323e-02	2.39021915e-04
3.18000000e-01	1.88592222e-02	2.41763599e-04
3.18500000e-01	1.87005678e-02	2.39903937e-04
3.19000000e-01	1.88882992e-02	2.40484962e-04
3.19500000e-01	1.88252987e-02	2.40600155e-04
3.20000000e-01	1.86254432e-02	2.38217525e-04
3.20500000e-01	1.85323811e-02	2.36895337e-04
3.21000000e-01	1.87819805e-02	2.40117879e-04
3.21500000e-01	1.85842877e-02	2.36722004e-04
3.22000000e-01	1.86782471e-02	2.38002152e-04
3.22500000e-01	1.86582887e-02	2.37087878e-04
3.23000000e-01	1.86202276e-02	2.36844101e-04
3.23500000e-01	1.85158706e-02	2.34938348e-04
3.24000000e-01	1.86875109e-02	2.37062867e-04
3.24500000e-01	1.88127604e-02	2.39567494e-04
3.25000000e-01	1.84862897e-02	2.34206565e-04
3.25500000e-01	1.85120133e-02	2.34412725e-04
3.26000000e-01	1.82308467e-02	2.31382951e-04
3.26500000e-01	1.84301799e-02	2.32663008e-04
3.27000000e-01	1.86248020e-02	2.35498582e-04
3.27500000e-01	1.84146018e-02	2.32599682e-04
3.28000000e-01	1.84737792e-02	2.33107756e-04
3.28500000e-01	1.84761368e-02	2.33250946e-04
3.29000000e-01	1.87241537e-02	2.35413487e-04
3.29500000e-01	1.84940364e-02	2.33508476e-04
3.30000000e-01	1.85255400e-02	2.32780436e-04
3.30500000e-01	1.85075191e-02	2.33464382e-04
3.31000000e-01	1.86654374e-02	2.34673554e-04
3.31500000e-01	1.85874951e-02	2.33448516e-04
3.32000000e-01	1.82488602e-02	2.29367715e-04
3.32500000e-01	1.85319578e-02	2.31935424e-04
3.33000000e-01	1.83724616e-02	2.30387402e-04
3.33500000e-01	1.85451472e-02	2.32114089e-04
3.34000000e-01	1.83657259e-02	2.29505780e-04
3.34500000e-01	1.82775376e-02	2.29200187e-04
3.35000000e-01	1.82946199e-02	2.29120997e-04
3.35500000e-01	1.83419835e-02	2.29115880e-04
3.36000000e-01	1.81767809e-02	2.27293823e-04
3.36500000e-01	1.83737655e-02	2.29038117e-04
3.37000000e-01	1.83884693e-02	2.28405334e-04
3.37500000e-01	1.83040411e-02	2.27613778e-04
3.38000000e-01	1.83213129e-02	2.29269003e-04
3.38500000e-01	1.84318112e-02	2.28565711e-04
3.39000000e-01	1.81767263e-02	2.26030323e-04
3.39500000e-01	1.82146724e-02	2.25653610e-04
3.40000000e-01	1.82608695e-02	2.26970074e-04
3.40500000e-01	1.80949627e-02	2.24560331e-04
3.41000000e-01	1.81801091e-02	2.25424611e-04
3.41500000e-01	1.80406605e-02	2.23854459e-04
3.42000000e-01	1.81729492e-02	2.24305552e-04
3.42500000e-01	1.82690669e-02	2.26006786e-04
3.43000000e-01	1.81573033e-02	2.24789854e-04
3.43500000e-01	1.81185961e-02	2.24137475e-04
3.44000000e-01	1.81590792e-02	2.24232528e-04
3.44500000e-01	1.81833403e-02	2.23804931e-04
3.45000000e-01	1.81902277e-02	2.24705104e-04
3.45500000e-01	1.81640102e-02	2.23235312e-04
3.46000000e-01	1.79869402e-02	2.22121872e-04
3.46500000e-01	1.82066698e-02	2.23358655e-04
3.47000000e-01	1.80054649e-02	2.21930446e-04
3.47500000e-01	1.81022418e-02	2.22651774e-04
3.48000000e-01	1.81696323e-02	2.22764167e-04
3.48500000e-01	1.82504618e-02	2.24035653e-04
3.49000000e-01	1.81427598e-02	2.22566191e-04
3.49500000e-01	1.80396896e-02	2.21244066e-04
3.50000000e-01	1.78853271e-02	1.79025650e-04
3.51000000e-01	1.80170988e-02	1.56012066e-04
3.52000000e-01	1.81021789e-02	1.56266569e-04
3.53000000e-01	1.79363039e-02	1.54155323e-04
3.54000000e-01	1.79644046e-02	1.54455990e-04
3.55000000e-01	1.77508206e-02	1.52530577e-04
3.56000000e-01	1.79751041e-02	1.55064633e-04
3.57000000e-01	1.77438629e-02	1.55664172e-04
3.58000000e-01	1.78696442e-02	1.58072882e-04
3.59000000e-01	1.78301429e-02	1.59107304e-04
3.60000000e-01	1.76342976e-02	1.58732701e-04
3.61000000e-01	1.76820007e-02	1.59907005e-04
3.62000000e-01	1.76670386e-02	1.60170408e-04
3.63000000e-01	1.76821606e-02	1.60887776e-04
3.64000000e-01	1.77505076e-02	1.62237732e-04
3.65000000e-01	1.78478033e-02	1.63528577e-04
3.66000000e-01	1.76551310e-02	1.59825096e-04
3.67000000e-01	1.77352771e-02	1.58314728e-04
3.68000000e-01	1.77406596e-02	1.57364152e-04
3.69000000e-01	1.76481636e-02	1.55410763e-04
3.70000000e-01	1.76605450e-02	1.54870093e-04
3.71000000e-01	1.76602944e-02	1.56820179e-04
3.72000000e-01	1.76141096e-02	1.58069407e-04
3.73000000e-01	1.76235103e-02	1.57813876e-04
3.74000000e-01	1.75847921e-02	1.57476385e-04
3.75000000e-01	1.76853959e-02	1.58517960e-04
3.76000000e-01	1.77328978e-02	1.58963678e-04
3.77000000e-01	1.77392150e-02	1.59162942e-04
3.78000000e-01	1.75918657e-02	1.57895311e-04
3.79000000e-01	1.75322679e-02	1.57688786e-04
3.80000000e-01	1.75734600e-02	1.57583483e-04
3.81000000e-01	1.76174399e-02	1.57614232e-04
3.82000000e-01	1.75457425e-02	1.57064876e-04
3.83000000e-01	1.76899018e-02	1.58258178e-04
3.84000000e-01	1.75744536e-02	1.57384750e-04
3.85000000e-01	1.77608332e-02	1.59054093e-04
3.86000000e-01	1.76878120e-02	1.58195383e-04
3.87000000e-01	1.78718775e-02	1.59635102e-04
3.88000000e-01	1.76995328e-02	1.58245482e-04
3.89000000e-01	1.77171486e-02	1.57955190e-04
3.90000000e-01	1.79087450e-02	1.59605699e-04
3.91000000e-01	1.79553016e-02	1.59898123e-04
3.92000000e-01	1.80200595e-02	1.60434042e-04
3.93000000e-01	1.80267771e-02	1.60367665e-04
3.94000000e-01	1.79678615e-02	1.59592054e-04
3.95000000e-01	1.78571800e-02	1.58777487e-04
3.96000000e-01	1.79764340e-02	1.59769716e-04
3.97000000e-01	1.78265761e-02	1.58320977e-04
3.98000000e-01	1.77919029e-02	1.58585692e-04
3.99000000e-01	1.77071821e-02	1.58079199e-04
4.00000000e-01	1.76046479e-02	1.57228849e-04
4.01000000e-01	1.75459214e-02	1.56669234e-04
4.02000000e-01	1.76019145e-02	1.57142220e-04
4.03000000e-01	1.74340154e-02	1.55356310e-04
4.04000000e-01	1.73706032e-02	1.55188163e-04
4.05000000e-01	1.72969747e-02	1.54341728e-04
4.06000000e-01	1.71626288e-02	1.53102400e-04
4.07000000e-01	1.72191098e-02	1.53515846e-04
4.08000000e-01	1.71970417e-02	1.53312788e-04
4.09000000e-01	1.71385967e-02	1.52859579e-04
4.10000000e-01	1.71865312e-02	1.53113431e-04
4.11000000e-01	1.69201662e-02	1.51021745e-04
4.12000000e-01	1.69324565e-02	1.50836172e-04
4.13000000e-01	1.69799174e-02	1.51647639e-04
4.14000000e-01	1.69934654e-02	1.51273565e-04
4.15000000e-01	1.69543004e-02	1.50816690e-04
4.16000000e-01	1.68121866e-02	1.50146209e-04
4.17000000e-01	1.68114209e-02	1.49549910e-04
4.18000000e-01	1.68212112e-02	1.51395264e-04
4.19000000e-01	1.67497813e-02	1.52982414e-04
4.20000000e-01	1.69243815e-02	1.55137036e-04
4.21000000e-01	1.68975775e-02	1.55089852e-04
4.22000000e-01	1.69295993e-02	1.56151203e-04
4.23000000e-01	1.70304856e-02	1.57529891e-04
4.24000000e-01	1.69396642e-02	1.56845041e-04
4.25000000e-01	1.68237712e-02	1.56265569e-04
4.26000000e-01	1.67006136e-02	1.55404178e-04
4.27000000e-01	1.67128901e-02	1.55738841e-04
4.28000000e-01	1.67955657e-02	1.56288298e-04
4.29000000e-01	1.68264176e-02	1.56746389e-04
4.30000000e-01	1.68186548e-02	1.57122224e-04
4.31000000e-01	1.68173340e-02	1.56779076e-04
4.32000000e-01	1.67888368e-02	1.56674591e-04
4.33000000e-01	1.67386174e-02	1.55855073e-04
4.34000000e-01	1.66529176e-02	1.55926812e-04
4.35000000e-01	1.66858187e-02	1.56054278e-04
4.36000000e-01	1.67358317e-02	1.56583224e-04
4.37000000e-01	1.66539905e-02	1.56091242e-04
4.38000000e-01	1.67741232e-02	1.57501738e-04
4.39000000e-01	1.66353655e-02	1.56783402e-04
4.40000000e-01	1.66617632e-02	1.56921263e-04
4.41000000e-01	1.66285244e-02	1.56682997e-04
4.42000000e-01	1.67037865e-02	1.57835626e-04
4.43000000e-01	1.65688330e-02	1.56445572e-04
4.44000000e-01	1.65301384e-02	1.56735042e-04
4.45000000e-01	1.66290083e-02	1.57734526e-04
4.46000000e-01	1.65393347e-02	1.56923059e-04
4.47000000e-01	1.66050060e-02	1.57574637e-04
4.48000000e-01	1.65290627e-02	1.57399499e-04
4.49000000e-01	1.65503434e-02	1.57744727e-04
4.50000000e-01	1.65310953e-02	1.57428029e-04
4.51000000e-01	1.64343958e-02	1.56889485e-04
4.52000000e-01	1.64915156e-02	1.57627875e-04
4.53000000e-01	1.65687898e-02	1.58540256e-04
4.54000000e-01	1.64605219e-02	1.57395041e-04
4.55000000e-01	1.63128049e-02	1.56293745e-04
4.56000000e-01	1.64368002e-02	1.57963007e-04
4.57000000e-01	1.65450947e-02	1.58191545e-04
4.58000000e-01	1.64619881e-02	1.57613929e-04
4.59000000e-01	1.64046112e-02	1.57506768e-04
4.60000000e-01	1.63678928e-02	1.57646226e-04
4.61000000e-01	1.64091955e-02	1.58020803e-04
4.62000000e-01	1.64701884e-02	1.58331020e-04
4.63000000e-01	1.62033577e-02	1.55799304e-04
4.64000000e-01	1.63980689e-02	1.58185482e-04
4.65000000e-01	1.64747549e-02	1.58838369e-04
4.66000000e-01	1.63669722e-02	1.57838839e-04
4.67000000e-01	1.65541552e-02	1.59643015e-04
4.68000000e-01	1.64513781e-02	1.58854467e-04
4.69000000e-01	1.64069746e-02	1.58506267e-04
4.70000000e-01	1.63729112e-02	1.58447185e-04
4.71000000e-01	1.64200976e-02	1.59081878e-04
4.72000000e-01	1.61381602e-02	1.56120202e-04
4.73000000e-01	1.63811640e-02	1.58669940e-04
4.74000000e-01	1.63270031e-02	1.57864880e-04
4.75000000e-01	1.62587438e-02	1.57247401e-04
4.76000000e-01	1.61760194e-02	1.56819447e-04
4.77000000e-01	1.63059799e-02	1.57507495e-04
4.78000000e-01	1.61323002e-02	1.56158786e-04
4.79000000e-01	1.62433993e-02	1.57139461e-04
4.80000000e-01	1.63059546e-02	1.58377375e-04
4.81000000e-01	1.61883222e-02	1.56703715e-04
4.82000000e-01	1.61600055e-02	1.56720190e-04
4.83000000e-01	1.62581932e-02	1.57748174e-04
4.84000000e-01	1.61340663e-02	1.56872045e-04
4.85000000e-01	1.60631725e-02	1.56015820e-04
4.86000000e-01	1.61043713e-02	1.56859512e-04
4.87000000e-01	1.61818160e-02	1.57293452e-04
4.88000000e-01	1.63038336e-02	1.58335339e-04
4.89000000e-01	1.62498084e-02	1.58210309e-04
4.90000000e-01	1.61678814e-02	1.57469620e-04
4.91000000e-01	1.60960955e-02	1.56756002e-04
4.92000000e-01	1.61543639e-02	1.57494665e-04
4.93000000e-01	1.61101813e-02	1.56965355e-04
4.94000000e-01	1.61322625e-02	1.57770166e-04
4.95000000e-01	1.61987019e-02	1.59479517e-04
4.96000000e-01	1.61220843e-02	1.63116829e-04
4.97000000e-01	1.61541671e-02	1.66950497e-04
4.98000000e-01	1.60296097e-02	1.67428806e-04
4.99000000e-01	1.60645981e-02	1.70168449e-04
5.00000000e-01	1.60143449e-02	1.71415989e-04
5.01000000e-01	1.62901939e-02	1.75556915e-04
5.02000000e-01	1.61518283e-02	1.76001413e-04
5.03000000e-01	1.62608759e-02	1.78209846e-04
5.04000000e-01	1.63113637e-02	1.80466729e-04
5.05000000e-01	1.61358254e-02	1.75871282e-04
5.06000000e-01	1.61589088e-02	1.72048796e-04
5.07000000e-01	1.61025115e-02	1.70179445e-04
5.08000000e-01	1.61819404e-02	1.69385014e-04
5.09000000e-01	1.60505923e-02	1.68303381e-04
5.10000000e-01	1.62303346e-02	1.69132140e-04
5.11000000e-01	1.63213566e-02	1.69212135e-04
5.12000000e-01	1.61650755e-02	1.67430162e-04
5.13000000e-01	1.61650673e-02	1.67018863e-04
5.14000000e-01	1.60822214e-02	1.66055948e-04
5.15000000e-01	1.60510088e-02	1.65283792e-04
5.16000000e-01	1.62476514e-02	1.66491681e-04
5.17000000e-01	1.60354003e-02	1.64955103e-04
5.18000000e-01	1.60660625e-02	1.64531273e-04
5.19000000e-01	1.59123649e-02	1.62822882e-04
5.20000000e-01	1.60614488e-02	1.63488870e-04
5.21000000e-01	1.61611376e-02	1.64789810e-04
5.22000000e-01	1.59648322e-02	1.62538648e-04
5.23000000e-01	1.60229771e-02	1.63282176e-04
5.24000000e-01	1.58994811e-02	1.62138573e-04
5.25000000e-01	1.62086260e-02	1.64490676e-04
5.26000000e-01	1.59078856e-02	1.62015501e-04
5.27000000e-01	1.60798554e-02	1.63639107e-04
5.28000000e-01	1.59901434e-02	1.62432879e-04
5.29000000e-01	1.60275887e-02	1.63842098e-04
5.30000000e-01	1.59420372e-02	1.62149681e-04
5.31000000e-01	1.59909755e-02	1.63201148e-04
5.32000000e-01	1.59563543e-02	1.62502812e-04
5.33000000e-01	1.60139966e-02	1.62343630e-04
5.34000000e-01	1.58948063e-02	1.62113773e-04
5.35000000e-01	1.59691300e-02	1.62777657e-04
5.36000000e-01	1.58698048e-02	1.61746854e-04
5.37000000e-01	1.59997390e-02	1.63216263e-04
5.38000000e-01	1.58519347e-02	1.61202784e-04
5.39000000e-01	1.58125396e-02	1.60908249e-04
5.40000000e-01	1.59712665e-02	1.62112968e-04
5.41000000e-01	1.59623110e-02	1.62250981e-04
5.42000000e-01	1.59402729e-02	1.62285220e-04
5.43000000e-01	1.59342382e-02	1.62021761e-04
5.44000000e-01	1.58349199e-02	1.61046687e-04
5.45000000e-01	1.59890838e-02	1.62295629e-04
5.46000000e-01	1.58016366e-02	1.60798277e-04
5.47000000e-01	1.57876084e-02	1.60558609e-04
5.48000000e-01	1.57801361e-02	1.60470726e-04
5.49000000e-01	1.58010317e-02	1.60469642e-04
5.50000000e-01	1.58348957e-02	1.60404568e-04
5.51000000e-01	1.58431852e-02	1.60701281e-04
5.52000000e-01	1.57127179e-02	1.59387841e-04
5.53000000e-01	1.59733381e-02	1.61430644e-04
5.54000000e-01	1.56285342e-02	1.58035415e-04
5.55000000e-01	1.57881221e-02	1.58987550e-04
5.56000000e-01	1.58676648e-02	1.59913101e-04
5.57000000e-01	1.58312535e-02	1.59671213e-04
5.58000000e-01	1.56331339e-02	1.57653703e-04
5.59000000e-01	1.56419627e-02	1.58018811e-04
5.60000000e-01	1.59076993e-02	1.60465502e-04
5.61000000e-01	1.58024220e-02	1.59762960e-04
5.62000000e-01	1.57267077e-02	1.59390130e-04
5.63000000e-01	1.57229853e-02	1.58750008e-04
5.64000000e-01	1.57087270e-02	1.58579921e-04
5.65000000e-01	1.57116683e-02	1.58988922e-04
5.66000000e-01	1.57081097e-02	1.58920050e-04
5.67000000e-01	1.56695052e-02	1.58539449e-04
5.68000000e-01	1.58504251e-02	1.60294581e-04
5.69000000e-01	1.56522899e-02	1.57666264e-04
5.70000000e-01	1.55292285e-02	1.56592398e-04
5.71000000e-01	1.55951110e-02	1.57110638e-04
5.72000000e-01	1.57014379e-02	1.58553496e-04
5.73000000e-01	1.55145296e-02	1.57096300e-04
5.74000000e-01	1.56139175e-02	1.57929270e-04
5.75000000e-01	1.56615818e-02	1.58016895e-04
5.76000000e-01	1.56253532e-02	1.58242266e-04
5.77000000e-01	1.55409781e-02	1.56641436e-04
5.78000000e-01	1.57347049e-02	1.58893603e-04
5.79000000e-01	1.55931736e-02	1.57662357e-04
5.80000000e-01	1.55547421e-02	1.57576597e-04
5.81000000e-01	1.55988783e-02	1.57981595e-04
5.82000000e-01	1.55746641e-02	1.57542825e-04
5.83000000e-01	1.55170071e-02	1.57124170e-04
5.84000000e-01	1.53601973e-02	1.55758036e-04
5.85000000e-01	1.54719213e-02	1.56776558e-04
5.86000000e-01	1.56686755e-02	1.59019929e-04
5.87000000e-01	1.55132512e-02	1.57131521e-04
5.88000000e-01	1.56081438e-02	1.57876124e-04
5.89000000e-01	1.56285089e-02	1.58023705e-04
5.90000000e-01	1.54957255e-02	1.57039937e-04
5.91000000e-01	1.55916059e-02	1.57771093e-04
5.92000000e-01	1.55153263e-02	1.57144382e-04
5.93000000e-01	1.55087508e-02	1.57376597e-04
5.94000000e-01	1.55732440e-02	1.57962700e-04
5.95000000e-01	1.55079775e-02	1.57480458e-04
5.96000000e-01	1.55206231e-02	1.57932866e-04
5.97000000e-01	1.53509639e-02	1.55974674e-04
5.98000000e-01	1.54768949e-02	1.57010802e-04
5.99000000e-01	1.54116119e-02	1.56557270e-04
6.00000000e-01	1.53103480e-02	1.55870105e-04
6.01000000e-01	1.54605113e-02	1.57033737e-04
6.02000000e-01	1.55636409e-02	1.58142206e-04
6.03000000e-01	1.54684077e-02	1.57083176e-04
6.04000000e-01	1.54400217e-02	1.56444972e-04
6.05000000e-01	1.55098891e-02	1.57678558e-04
6.06000000e-01	1.53608354e-02	1.56132775e-04
6.07000000e-01	1.52847756e-02	1.55750064e-04
6.08000000e-01	1.54617089e-02	1.57085621e-04
6.09000000e-01	1.53742175e-02	1.56393686e-04
6.10000000e-01	1.53471193e-02	1.56531868e-04
6.11000000e-01	1.54028558e-02	1.57228796e-04
6.12000000e-01	1.53088532e-02	1.55734581e-04
6.13000000e-01	1.51855670e-02	1.54678424e-04
6.14000000e-01	1.54253150e-02	1.56943699e-04
6.15000000e-01	1.54493012e-02	1.57311652e-04
6.16000000e-01	1.54280776e-02	1.57324205e-04
6.17000000e-01	1.54611494e-02	1.57667642e-04
6.18000000e-01	1.54957274e-02	1.57849204e-04
6.19000000e-01	1.52099879e-02	1.54542498e-04
6.20000000e-01	1.51948541e-02	1.54599516e-04
6.21000000e-01	1.54007607e-02	1.56691407e-04
6.22000000e-01	1.54125793e-02	1.55833912e-04
6.23000000e-01	1.53921721e-02	1.55452752e-04
6.24000000e-01	1.52456932e-02	1.54230669e-04
6.25000000e-01	1.52525459e-02	1.54401717e-04
6.26000000e-01	1.53049055e-02	1.54395229e-04
6.27000000e-01	1.53327037e-02	1.54536147e-04
6.28000000e-01	1.52271621e-02	1.54480002e-04
6.29000000e-01	1.53812853e-02	1.55218968e-04
6.30000000e-01	1.53848492e-02	1.55629663e-04
6.31000000e-01	1.52239963e-02	1.53436752e-04
6.32000000e-01	1.52749792e-02	1.54517940e-04
6.33000000e-01	1.53649665e-02	1.55020082e-04
6.34000000e-01	1.54270060e-02	1.59523970e-04
6.35000000e-01	1.53644076e-02	1.63907190e-04
6.36000000e-01	1.52164651e-02	1.65721537e-04
6.37000000e-01	1.53941224e-02	1.69832483e-04
6.38000000e-01	1.53767461e-02	1.72040592e-04
6.39000000e-01	1.54094312e-02	1.74585347e-04
6.40000000e-01	1.53159505e-02	1.75801895e-04
6.41000000e-01	1.53605869e-02	1.77418956e-04
6.42000000e-01	1.54490345e-02	1.80668104e-04
6.43000000e-01	1.56221504e-02	1.82201534e-04
6.44000000e-01	1.55664138e-02	1.75098549e-04
6.45000000e-01	1.55914736e-02	1.72504167e-04
6.46000000e-01	1.55529209e-02	1.71268713e-04
6.47000000e-01	1.54726212e-02	1.69238154e-04
6.48000000e-01	1.54514083e-02	1.67727755e-04
6.49000000e-01	1.54544637e-02	1.66933091e-04
6.50000000e-01	1.55886386e-02	1.67201243e-04
6.51000000e-01	1.54438708e-02	1.65174222e-04
6.52000000e-01	1.55994969e-02	1.65995972e-04
6.53000000e-01	1.54932223e-02	1.64384327e-04
6.54000000e-01	1.56729288e-02	1.65538166e-04
6.55000000e-01	1.55033496e-02	1.63636546e-04
6.56000000e-01	1.55023153e-02	1.63866437e-04
6.57000000e-01	1.56539860e-02	1.65007164e-04
6.58000000e-01	1.55885164e-02	1.64181788e-04
6.59000000e-01	1.55426370e-02	1.63594329e-04
6.60000000e-01	1.54713130e-02	1.62344998e-04
6.61000000e-01	1.55096431e-02	1.62711647e-04
6.62000000e-01	1.54434429e-02	1.62237916e-04
6.63000000e-01	1.53877864e-02	1.61591339e-04
6.64000000e-01	1.53768810e-02	1.61077472e-04
6.65000000e-01	1.54984546e-02	1.62444325e-04
6.66000000e-01	1.53957185e-02	1.61277120e-04
6.67000000e-01	1.54303711e-02	1.61638566e-04
6.68000000e-01	1.52999266e-02	1.60398094e-04
6.69000000e-01	1.54678778e-02	1.61419673e-04
6.70000000e-01	1.52647657e-02	1.59311088e-04
6.71000000e-01	1.54266588e-02	1.61347680e-04
6.72000000e-01	1.53501944e-02	1.60761553e-04
6.73000000e-01	1.53823323e-02	1.60578622e-04
6.74000000e-01	1.54328416e-02	1.61275906e-04
6.75000000e-01	1.52648194e-02	1.59397762e-04
6.76000000e-01	1.52655056e-02	1.59379179e-04
6.77000000e-01	1.52445354e-02	1.59152254e-04
6.78000000e-01	1.51940468e-02	1.58816099e-04
6.79000000e-01	1.51814145e-02	1.58612647e-04
6.80000000e-01	1.53106459e-02	1.59656908e-04
6.81000000e-01	1.52917939e-02	1.59294168e-04
6.82000000e-01	1.52841832e-02	1.59335512e-04
6.83000000e-01	1.52782037e-02	1.59529830e-04
6.84000000e-01	1.51780524e-02	1.58456086e-04
6.85000000e-01	1.50451756e-02	1.57407622e-04
6.86000000e-01	1.51724884e-02	1.58251232e-04
6.87000000e-01	1.52772465e-02	1.59881212e-04
6.88000000e-01	1.51837368e-02	1.58264970e-04
6.89000000e-01	1.51872012e-02	1.57957233e-04
6.90000000e-01	1.51624518e-02	1.57776454e-04
6.91000000e-01	1.49716299e-02	1.55649968e-04
6.92000000e-01	1.51420701e-02	1.58145594e-04
6.93000000e-01	1.51795958e-02	1.58030193e-04
6.94000000e-01	1.51302741e-02	1.57521380e-04
6.95000000e-01	1.50642157e-02	1.56747721e-04
6.96000000e-01	1.51337643e-02	1.57185571e-04
6.97000000e-01	1.51022226e-02	1.56973861e-04
6.98000000e-01	1.50059610e-02	1.56378856e-04
6.99000000e-01	1.50179902e-02	1.55993472e-04
7.00000000e-01	1.49733711e-02	1.55552648e-04
7.01000000e-01	1.51987047e-02	1.58142897e-04
7.02000000e-01	1.50256837e-02	1.55906735e-04
7.03000000e-01	1.50045759e-02	1.56291850e-04
7.04000000e-01	1.50530360e-02	1.56400199e-04
7.05000000e-01	1.49168018e-02	1.55264420e-04
7.06000000e-01	1.51042021e-02	1.57284860e-04
7.07000000e-01	1.50823092e-02	1.56615427e-04
7.08000000e-01	1.50240314e-02	1.55556956e-04
7.09000000e-01	1.50677915e-02	1.56506634e-04
7.10000000e-01	1.49227277e-02	1.55219584e-04
7.11000000e-01	1.48578418e-02	1.54605855e-04
7.12000000e-01	1.47958669e-02	1.54061176e-04
7.13000000e-01	1.47797635e-02	1.53758970e-04
7.14000000e-01	1.48067616e-02	1.54141979e-04
7.15000000e-01	1.49046122e-02	1.55279108e-04
7.16000000e-01	1.47550595e-02	1.53721447e-04
7.17000000e-01	1.48095004e-02	1.54086755e-04
7.18000000e-01	1.48269688e-02	1.54594053e-04
7.19000000e-01	1.47187162e-02	1.53693673e-04
7.20000000e-01	1.47713933e-02	1.53850939e-04
7.21000000e-01	1.47202198e-02	1.53484356e-04
7.22000000e-01	1.47181869e-02	1.53115952e-04
7.23000000e-01	1.46975472e-02	1.53447006e-04
7.24000000e-01	1.47011624e-02	1.52934682e-04
7.25000000e-01	1.46678856e-02	1.52796660e-04
7.26000000e-01	1.48090287e-02	1.53581966e-04
7.27000000e-01	1.46362888e-02	1.52288279e-04
7.28000000e-01	1.46493672e-02	1.52448327e-04
7.29000000e-01	1.46866328e-02	1.52926494e-04
7.30000000e-01	1.44584447e-02	1.51109896e-04
7.31000000e-01	1.45519543e-02	1.51956763e-04
7.32000000e-01	1.46029088e-02	1.52658587e-04
7.33000000e-01	1.44049362e-02	1.49930018e-04
7.34000000e-01	1.45438998e-02	1.51421754e-04
7.35000000e-01	1.46855944e-02	1.52509839e-04
7.36000000e-01	1.46688789e-02	1.51997526e-04
7.37000000e-01	1.45297178e-02	1.50699198e-04
7.38000000e-01	1.45626648e-02	1.50157302e-04
7.39000000e-01	1.45319775e-02	1.49811001e-04
7.40000000e-01	1.45290781e-02	1.50423724e-04
7.41000000e-01	1.43698196e-02	1.48134977e-04
7.42000000e-01	1.43206736e-02	1.47670998e-04
7.43000000e-01	1.43186389e-02	1.47640271e-04
7.44000000e-01	1.44671570e-02	1.48869907e-04
7.45000000e-01	1.44715567e-02	1.49351631e-04
7.46000000e-01	1.44230129e-02	1.48827374e-04
7.47000000e-01	1.44375278e-02	1.49253424e-04
7.48000000e-01	1.44056370e-02	1.48499500e-04
7.49000000e-01	1.43262757e-02	1.47733326e-04
7.50000000e-01	1.43250560e-02	1.47949427e-04
7.51000000e-01	1.43810824e-02	1.48080808e-04
7.52000000e-01	1.42807465e-02	1.47538230e-04
7.53000000e-01	1.45380989e-02	1.49646764e-04
7.54000000e-01	1.42673901e-02	1.47685095e-04
7.55000000e-01	1.43405021e-02	1.48114357e-04
7.56000000e-01	1.43938266e-02	1.48501592e-04
7.57000000e-01	1.44144362e-02	1.48702913e-04
7.58000000e-01	1.43517414e-02	1.48463224e-04
7.59000000e-01	1.42330628e-02	1.47022628e-04
7.60000000e-01	1.43069276e-02	1.47210535e-04
7.61000000e-01	1.42881085e-02	1.47270429e-04
7.62000000e-01	1.42442341e-02	1.46415009e-04
7.63000000e-01	1.42314045e-02	1.46282564e-04
7.64000000e-01	1.39867456e-02	1.43514397e-04
7.65000000e-01	1.40324796e-02	1.43715816e-04
7.66000000e-01	1.40224878e-02	1.43658232e-04
7.67000000e-01	1.40747005e-02	1.44566797e-04
7.68000000e-01	1.41620100e-02	1.45048949e-04
7.69000000e-01	1.41080354e-02	1.44484750e-04
7.70000000e-01	1.40168188e-02	1.43627540e-04
7.71000000e-01	1.41336461e-02	1.44690207e-04
7.72000000e-01	1.40820391e-02	1.49306545e-04
7.73000000e-01	1.38851542e-02	1.51648705e-04
7.74000000e-01	1.40059055e-02	1.55487387e-04
7.75000000e-01	1.39029935e-02	1.57754553e-04
7.76000000e-01	1.39183422e-02	1.60561127e-04
7.77000000e-01	1.39462602e-02	1.62567643e-04
7.78000000e-01	1.39089784e-02	1.64759320e-04
7.79000000e-01	1.40317443e-02	1.67897389e-04
7.80000000e-01	1.40279031e-02	1.68802636e-04
7.81000000e-01	1.36997007e-02	1.68249230e-04
7.82000000e-01	1.38305187e-02	1.71734831e-04
7.83000000e-01	1.39809721e-02	1.74752542e-04
7.84000000e-01	1.38869310e-02	1.75470310e-04
7.85000000e-01	1.39101089e-02	1.76984094e-04
7.86000000e-01	1.37435371e-02	1.77842766e-04
7.87000000e-01	1.37164305e-02	1.78576808e-04
7.88000000e-01	1.37280360e-02	1.80237264e-04
7.89000000e-01	1.37653354e-02	1.82349037e-04
7.90000000e-01	1.36420935e-02	1.83644612e-04
7.91000000e-01	1.39850911e-02	1.89206121e-04
7.92000000e-01	1.37710950e-02	1.89044345e-04
7.93000000e-01	1.36309932e-02	1.88548462e-04
7.94000000e-01	1.35557022e-02	1.90198263e-04
7.95000000e-01	1.36444860e-02	1.92610732e-04
7.96000000e-01	1.36880663e-02	1.96065375e-04
7.97000000e-01	1.36854965e-02	1.97936529e-04
7.98000000e-01	1.36978315e-02	1.99507011e-04
7.99000000e-01	1.35709310e-02	1.99893796e-04
8.00000000e-01	1.34916333e-02	2.00451424e-04
8.01000000e-01	1.34704318e-02	2.03289504e-04
8.02000000e-01	1.34921867e-02	2.05857894e-04
8.03000000e-01	1.34430453e-02	2.05776506e-04
8.04000000e-01	1.36204456e-02	2.10556361e-04
8.05000000e-01	1.34604127e-02	2.10936038e-04
8.06000000e-01	1.35193121e-02	2.13233444e-04
8.07000000e-01	1.35127338e-02	2.16842421e-04
8.08000000e-01	1.35095604e-02	2.19638279e-04
8.09000000e-01	1.31679977e-02	2.15278032e-04
8.10000000e-01	1.34283443e-02	2.23095722e-04
8.11000000e-01	1.32212178e-02	2.21677656e-04
8.12000000e-01	1.33068729e-02	2.26174180e-04
8.13000000e-01	1.33786368e-02	2.29180801e-04
8.14000000e-01	1.34432509e-02	2.32920642e-04
8.15000000e-01	1.33758640e-02	2.34353152e-04
8.16000000e-01	1.31439550e-02	2.32945532e-04
8.17000000e-01	1.32153760e-02	2.38643213e-04
8.18000000e-01	1.35202779e-02	2.45562106e-04
8.19000000e-01	1.35237020e-02	2.48698718e-04
8.20000000e-01	1.32216266e-02	2.48374695e-04
8.21000000e-01	1.34049002e-02	2.53751906e-04
8.22000000e-01	1.33326882e-02	2.55377910e-04
8.23000000e-01	1.30729698e-02	2.54016960e-04
8.24000000e-01	1.35376151e-02	2.65907898e-04
8.25000000e-01	1.33268721e-02	2.66908950e-04
8.26000000e-01	1.32823242e-02	2.68086982e-04
8.27000000e-01	1.29916018e-02	2.67921786e-04
8.28000000e-01	1.31943961e-02	2.77809018e-04
8.29000000e-01	1.33009231e-02	2.81594084e-04
8.30000000e-01	1.30181574e-02	2.80977456e-04
8.31000000e-01	1.29199606e-02	2.86352933e-04
8.32000000e-01	1.31688622e-02	2.94999956e-04
8.33000000e-01	1.32134720e-02	3.00496365e-04
8.34000000e-01	1.31376900e-02	3.01985514e-04
8.35000000e-01	1.31070113e-02	3.05544603e-04
8.36000000e-01	1.30243991e-02	3.10511938e-04
8.37000000e-01	1.29393795e-02	3.16116994e-04
8.38000000e-01	1.29603750e-02	3.24392875e-04
8.39000000e-01	1.29040405e-02	3.27757731e-04
8.40000000e-01	1.28434239e-02	3.33940425e-04
8.41000000e-01	1.27734482e-02	3.40211375e-04
8.42000000e-01	1.29009820e-02	3.49909240e-04
8.43000000e-01	1.32861935e-02	3.65380957e-04
8.44000000e-01	1.26469652e-02	3.62354421e-04
8.45000000e-01	1.28092558e-02	3.75511652e-04
8.46000000e-01	1.21495429e-02	3.67915605e-04
8.47000000e-01	1.26010334e-02	3.94064273e-04
8.48000000e-01	1.29252411e-02	4.10646217e-04
8.49000000e-01	1.24891785e-02	4.12444989e-04
8.50000000e-01	1.21336906e-02	4.13587899e-04
8.51000000e-01	1.26390578e-02	4.44105330e-04
8.52000000e-01	1.23332290e-02	4.52544648e-04
8.53000000e-01	1.28651142e-02	4.88978858e-04
8.54000000e-01	1.21671373e-02	4.86465635e-04
8.55000000e-01	1.26069803e-02	5.27462757e-04
8.56000000e-01	1.17410996e-02	5.03481650e-04
8.57000000e-01	1.29189785e-02	5.64664281e-04
8.58000000e-01	1.24563875e-02	5.66313231e-04
8.59000000e-01	1.24843151e-02	5.74909354e-04
8.60000000e-01	1.24062654e-02	5.85715867e-04
8.61000000e-01	1.19582357e-02	5.98500949e-04
8.62000000e-01	1.24375821e-02	6.35298507e-04
8.63000000e-01	1.25796521e-02	6.67359604e-04
8.64000000e-01	1.22631517e-02	6.83332676e-04
8.65000000e-01	1.38303879e-02	8.00701308e-04
8.66000000e-01	1.12228591e-02	7.05611605e-04
8.67000000e-01	1.21408263e-02	8.03844608e-04
8.68000000e-01	1.22330825e-02	8.51987824e-04
8.69000000e-01	1.31441148e-02	9.84441550e-04
8.70000000e-01	1.18372153e-02	9.37010516e-04
8.71000000e-01	1.27278166e-02	1.10874831e-03
8.72000000e-01	1.21732014e-02	1.24206620e-03
8.73000000e-01	1.25526296e-02	1.53226427e-03
8.74000000e-01	1.45644349e-02	2.20180617e-03
8.75000000e-01	1.37082886e-02	4.57388533e-03
