% Filename : SB3_00041_00011.h5
% Date & Time : 30-Oct-2025 17:57:19
% X-ray Energy (keV) : 13.30001
% Exposure Time (s) : 0.500
% Beam Center : 1461.24000, 208.98300
% Sample to Detector Distance (SDD) (mm) : 1990.750
% Detector Pixel Size (mm) : 0.075
% Photodiode Value : 140880.000
% I0 of Sample : 0
% I0 of Standard : 1
% 
% q(A^-1)   I(q)    I(q)_SE
0.00000000e+00	7.69449935e-03	4.44241473e-03
2.50000000e-04	0.00000000e+00	0.00000000e+00
5.00000000e-04	0.00000000e+00	0.00000000e+00
7.50000000e-04	0.00000000e+00	0.00000000e+00
1.00000000e-03	0.00000000e+00	0.00000000e+00
1.25000000e-03	0.00000000e+00	0.00000000e+00
1.50000000e-03	0.00000000e+00	0.00000000e+00
1.75000000e-03	0.00000000e+00	0.00000000e+00
2.00000000e-03	0.00000000e+00	0.00000000e+00
2.25000000e-03	0.00000000e+00	0.00000000e+00
2.50000000e-03	0.00000000e+00	0.00000000e+00
2.75000000e-03	0.00000000e+00	0.00000000e+00
3.00000000e-03	0.00000000e+00	0.00000000e+00
3.25000000e-03	1.25176105e+03	7.86906560e+02
3.50000000e-03	1.71008774e+03	4.70530328e+02
3.75000000e-03	1.38339049e+03	3.10849578e+02
4.00000000e-03	1.07539530e+03	2.45424065e+02
4.25000000e-03	1.03785573e+03	1.96765732e+02
4.50000000e-03	7.41945060e+02	1.16014697e+02
4.75000000e-03	6.01283870e+02	8.34693040e+01
5.00000000e-03	5.18081612e+02	7.31113740e+01
5.25000000e-03	4.03034047e+02	5.34486261e+01
5.50000000e-03	3.37342253e+02	4.37926347e+01
5.75000000e-03	2.68300650e+02	3.38789557e+01
6.00000000e-03	2.38355947e+02	2.90206727e+01
6.25000000e-03	2.01325537e+02	2.45885939e+01
6.50000000e-03	1.69686083e+02	1.93147641e+01
6.75000000e-03	1.42095547e+02	1.62287888e+01
7.00000000e-03	1.26075519e+02	1.42936527e+01
7.25000000e-03	1.07736235e+02	1.16994228e+01
7.50000000e-03	9.84112401e+01	1.07387766e+01
7.75000000e-03	8.28308044e+01	8.68847489e+00
8.00000000e-03	7.07845559e+01	7.21044103e+00
8.25000000e-03	6.70924510e+01	6.66670330e+00
8.50000000e-03	5.81342606e+01	5.66235533e+00
8.75000000e-03	5.28106012e+01	5.05114402e+00
9.00000000e-03	4.55921344e+01	4.21513955e+00
9.25000000e-03	3.99850670e+01	3.63311260e+00
9.50000000e-03	3.75849399e+01	3.38191321e+00
9.75000000e-03	3.37009840e+01	2.97531915e+00
1.00000000e-02	3.05127455e+01	2.65358746e+00
1.02500000e-02	2.74221656e+01	2.38533785e+00
1.05000000e-02	2.47668139e+01	2.05159749e+00
1.07500000e-02	2.33659786e+01	1.97197396e+00
1.10000000e-02	2.09700541e+01	1.67923930e+00
1.12500000e-02	1.94988865e+01	1.63252094e+00
1.15000000e-02	1.73068833e+01	1.36563756e+00
1.17500000e-02	1.60946843e+01	1.23702330e+00
1.20000000e-02	1.52142025e+01	1.17101079e+00
1.22500000e-02	1.36911813e+01	1.02254150e+00
1.25000000e-02	1.27796929e+01	9.52855519e-01
1.27500000e-02	1.16425343e+01	8.44075689e-01
1.30000000e-02	1.09525049e+01	7.91897430e-01
1.32500000e-02	1.02317020e+01	7.23113160e-01
1.35000000e-02	9.36148170e+00	6.57954003e-01
1.37500000e-02	8.68801138e+00	6.06323120e-01
1.40000000e-02	8.22011439e+00	5.67435441e-01
1.42500000e-02	7.70874644e+00	5.22014854e-01
1.45000000e-02	7.23584228e+00	4.89166446e-01
1.47500000e-02	6.64466826e+00	4.43905061e-01
1.50000000e-02	6.18031092e+00	4.03915462e-01
1.52500000e-02	5.95097177e+00	3.88802182e-01
1.55000000e-02	5.54350439e+00	3.56284300e-01
1.57500000e-02	5.22423816e+00	3.36836361e-01
1.60000000e-02	4.80700079e+00	2.99247174e-01
1.62500000e-02	4.51426981e+00	2.84110913e-01
1.65000000e-02	4.39955719e+00	2.72468882e-01
1.67500000e-02	4.09783577e+00	2.47570192e-01
1.70000000e-02	3.83251549e+00	2.30995887e-01
1.72500000e-02	3.65078052e+00	2.18700970e-01
1.75000000e-02	3.43498588e+00	2.05004842e-01
1.77500000e-02	3.26056585e+00	1.90946288e-01
1.80000000e-02	3.10224522e+00	1.82272591e-01
1.82500000e-02	2.93688157e+00	1.66661277e-01
1.85000000e-02	2.75436185e+00	1.58915465e-01
1.87500000e-02	2.65463866e+00	1.51094114e-01
1.90000000e-02	2.53212086e+00	1.43463236e-01
1.92500000e-02	2.40643989e+00	1.33531661e-01
1.95000000e-02	2.28104451e+00	1.25880828e-01
1.97500000e-02	2.17871037e+00	1.21461074e-01
2.00000000e-02	2.07486270e+00	1.13974526e-01
2.02500000e-02	1.96122895e+00	1.06882239e-01
2.05000000e-02	1.89709296e+00	1.01283859e-01
2.07500000e-02	1.78912452e+00	9.52153467e-02
2.10000000e-02	1.72095843e+00	9.25656406e-02
2.12500000e-02	1.64654079e+00	8.87877409e-02
2.15000000e-02	1.59772263e+00	8.57919843e-02
2.17500000e-02	1.52181644e+00	8.17146395e-02
2.20000000e-02	1.44004181e+00	7.75890490e-02
2.22500000e-02	1.39331653e+00	7.51976613e-02
2.25000000e-02	1.33931750e+00	7.27021753e-02
2.27500000e-02	1.27258429e+00	6.81776777e-02
2.30000000e-02	1.22492100e+00	6.62213361e-02
2.32500000e-02	1.14388762e+00	6.14735051e-02
2.35000000e-02	1.11644218e+00	6.08552818e-02
2.37500000e-02	1.05689876e+00	5.67414682e-02
2.40000000e-02	1.01921536e+00	5.51177519e-02
2.42500000e-02	9.77077971e-01	5.17935191e-02
2.45000000e-02	9.23827661e-01	4.93014604e-02
2.47500000e-02	8.92528014e-01	4.72934832e-02
2.50000000e-02	8.56016136e-01	4.51791145e-02
2.52500000e-02	8.21396286e-01	4.33357587e-02
2.55000000e-02	7.78660006e-01	4.03297893e-02
2.57500000e-02	7.56574463e-01	3.93600218e-02
2.60000000e-02	7.23442485e-01	3.73524826e-02
2.62500000e-02	6.89732540e-01	3.59155942e-02
2.65000000e-02	6.72925333e-01	3.43595610e-02
2.67500000e-02	6.50387785e-01	3.31523597e-02
2.70000000e-02	6.09258426e-01	3.10040046e-02
2.72500000e-02	5.94927252e-01	3.00849927e-02
2.75000000e-02	5.71188905e-01	2.93842588e-02
2.77500000e-02	5.48932077e-01	2.79982868e-02
2.80000000e-02	5.44377905e-01	2.72904565e-02
2.82500000e-02	5.17256014e-01	2.56330689e-02
2.85000000e-02	5.05934411e-01	2.53607480e-02
2.87500000e-02	4.83722533e-01	2.41962128e-02
2.90000000e-02	4.69415671e-01	2.34950281e-02
2.92500000e-02	4.58470263e-01	2.24003693e-02
2.95000000e-02	4.40305482e-01	2.19025729e-02
2.97500000e-02	4.30913499e-01	2.12262238e-02
3.00000000e-02	4.12976698e-01	2.04722291e-02
3.02500000e-02	3.99607598e-01	1.95506428e-02
3.05000000e-02	3.95616205e-01	1.90956779e-02
3.07500000e-02	3.74271074e-01	1.81844063e-02
3.10000000e-02	3.68676586e-01	1.80101332e-02
3.12500000e-02	3.58535750e-01	1.75151790e-02
3.15000000e-02	3.41421964e-01	1.64698633e-02
3.17500000e-02	3.39019491e-01	1.61594252e-02
3.20000000e-02	3.24129929e-01	1.55882388e-02
3.22500000e-02	3.20456945e-01	1.55072463e-02
3.25000000e-02	3.12952119e-01	1.50519108e-02
3.27500000e-02	2.98677785e-01	1.41921873e-02
3.30000000e-02	2.98468073e-01	1.41357947e-02
3.32500000e-02	2.82022880e-01	1.33137666e-02
3.35000000e-02	2.73739870e-01	1.30219979e-02
3.37500000e-02	2.78055190e-01	1.31619327e-02
3.40000000e-02	2.60717092e-01	1.21949704e-02
3.42500000e-02	2.59877781e-01	1.19995250e-02
3.45000000e-02	2.50434614e-01	1.17532905e-02
3.47500000e-02	2.44719470e-01	1.13585608e-02
3.50000000e-02	2.41625340e-01	1.12212522e-02
3.52500000e-02	2.33915568e-01	1.08581836e-02
3.55000000e-02	2.33689357e-01	1.06306688e-02
3.57500000e-02	2.22789030e-01	1.02693008e-02
3.60000000e-02	2.16388774e-01	9.91649645e-03
3.62500000e-02	2.17967868e-01	1.01262161e-02
3.65000000e-02	2.07336885e-01	9.46863251e-03
3.67500000e-02	2.03500253e-01	9.31195578e-03
3.70000000e-02	2.00092146e-01	9.11020509e-03
3.72500000e-02	1.89918447e-01	8.52057686e-03
3.75000000e-02	1.93254633e-01	8.77187122e-03
3.77500000e-02	1.82785423e-01	8.19633952e-03
3.80000000e-02	1.80295402e-01	8.07989289e-03
3.82500000e-02	1.74871539e-01	7.80073446e-03
3.85000000e-02	1.71544562e-01	7.69423668e-03
3.87500000e-02	1.70311646e-01	7.53923404e-03
3.90000000e-02	1.61290105e-01	7.16635208e-03
3.92500000e-02	1.62461119e-01	7.09022177e-03
3.95000000e-02	1.61288394e-01	7.12675443e-03
3.97500000e-02	1.54704223e-01	6.75994992e-03
4.00000000e-02	1.53844909e-01	6.72477478e-03
4.02500000e-02	1.49450354e-01	6.54549540e-03
4.05000000e-02	1.45030808e-01	6.24734565e-03
4.07500000e-02	1.45868313e-01	6.27779527e-03
4.10000000e-02	1.39391962e-01	6.03957894e-03
4.12500000e-02	1.42256827e-01	6.09619369e-03
4.15000000e-02	1.37914346e-01	5.90698499e-03
4.17500000e-02	1.35028730e-01	5.77152144e-03
4.20000000e-02	1.32165739e-01	5.60571386e-03
4.22500000e-02	1.27442061e-01	5.41977491e-03
4.25000000e-02	1.29938705e-01	5.53237322e-03
4.27500000e-02	1.25877243e-01	5.29669654e-03
4.30000000e-02	1.21907229e-01	5.13649318e-03
4.32500000e-02	1.21607895e-01	5.11744351e-03
4.35000000e-02	1.17222303e-01	4.95869297e-03
4.37500000e-02	1.18170755e-01	4.92910524e-03
4.40000000e-02	1.16243839e-01	4.88058639e-03
4.42500000e-02	1.11080959e-01	4.63286137e-03
4.45000000e-02	1.12460240e-01	4.66143565e-03
4.47500000e-02	1.10200250e-01	4.57529357e-03
4.50000000e-02	1.08021448e-01	4.49156856e-03
4.52500000e-02	1.06518421e-01	4.38310775e-03
4.55000000e-02	1.03897720e-01	4.29778272e-03
4.57500000e-02	1.03581627e-01	4.27170248e-03
4.60000000e-02	1.01449088e-01	4.16092262e-03
4.62500000e-02	9.95203601e-02	4.04609002e-03
4.65000000e-02	9.97263605e-02	4.05801308e-03
4.67500000e-02	9.63077418e-02	3.90382018e-03
4.70000000e-02	9.65402850e-02	3.90452882e-03
4.72500000e-02	9.40185782e-02	3.80499158e-03
4.75000000e-02	9.17019883e-02	3.72251229e-03
4.77500000e-02	9.20196604e-02	3.69899164e-03
4.80000000e-02	8.90909807e-02	3.57088675e-03
4.82500000e-02	9.04321424e-02	3.62077971e-03
4.85000000e-02	8.67845474e-02	3.52139473e-03
4.87500000e-02	8.54841165e-02	3.42529601e-03
4.90000000e-02	8.72606081e-02	3.46531034e-03
4.92500000e-02	8.36256353e-02	3.32527272e-03
4.95000000e-02	8.36958830e-02	3.29885279e-03
4.97500000e-02	8.34458124e-02	3.32000523e-03
5.00000000e-02	8.07482318e-02	3.18086981e-03
5.02500000e-02	8.12643167e-02	3.17703045e-03
5.05000000e-02	7.91515575e-02	3.10944894e-03
5.07500000e-02	7.95590230e-02	3.13918590e-03
5.10000000e-02	7.84848251e-02	3.05831075e-03
5.12500000e-02	7.53634792e-02	2.92971170e-03
5.15000000e-02	7.60314592e-02	2.94374684e-03
5.17500000e-02	7.44171738e-02	2.88717730e-03
5.20000000e-02	7.32905015e-02	2.83571420e-03
5.22500000e-02	7.24042557e-02	2.82179518e-03
5.25000000e-02	7.07169961e-02	2.72545713e-03
5.27500000e-02	7.15833968e-02	2.75193264e-03
5.30000000e-02	6.92566131e-02	2.67302723e-03
5.32500000e-02	6.92608876e-02	2.65741185e-03
5.35000000e-02	6.97242579e-02	2.68569346e-03
5.37500000e-02	6.83196997e-02	2.59565624e-03
5.40000000e-02	6.83482174e-02	2.58949057e-03
5.42500000e-02	6.54191807e-02	2.48487065e-03
5.45000000e-02	6.51233963e-02	2.46758727e-03
5.47500000e-02	6.60180476e-02	2.50790317e-03
5.50000000e-02	6.43134597e-02	2.43034088e-03
5.52500000e-02	6.56058669e-02	2.47014074e-03
5.55000000e-02	6.46821364e-02	2.40811770e-03
5.57500000e-02	6.25676879e-02	2.36478978e-03
5.60000000e-02	6.23132205e-02	2.33160752e-03
5.62500000e-02	6.05196770e-02	2.26663234e-03
5.65000000e-02	6.06463752e-02	2.25231641e-03
5.67500000e-02	6.03501089e-02	2.24550161e-03
5.70000000e-02	5.79428492e-02	2.14477022e-03
5.72500000e-02	5.96339604e-02	2.21245411e-03
5.75000000e-02	5.87614917e-02	2.18054138e-03
5.77500000e-02	5.74728863e-02	2.09117585e-03
5.80000000e-02	5.80626708e-02	2.14409805e-03
5.82500000e-02	5.62767496e-02	2.07091132e-03
5.85000000e-02	5.77052520e-02	2.11100506e-03
5.87500000e-02	5.57380570e-02	2.03626662e-03
5.90000000e-02	5.49325695e-02	2.00933506e-03
5.92500000e-02	5.57453833e-02	2.03160387e-03
5.95000000e-02	5.45867569e-02	1.97394782e-03
5.97500000e-02	5.53360088e-02	2.02177328e-03
6.00000000e-02	5.35058811e-02	1.94918714e-03
6.02500000e-02	5.23751776e-02	1.89708728e-03
6.05000000e-02	5.27866524e-02	1.88915646e-03
6.07500000e-02	5.17265615e-02	1.86989604e-03
6.10000000e-02	5.26529273e-02	1.89353204e-03
6.12500000e-02	5.14457887e-02	1.85178705e-03
6.15000000e-02	5.20547138e-02	1.86617617e-03
6.17500000e-02	5.14677107e-02	1.84365146e-03
6.20000000e-02	5.06059680e-02	1.80770530e-03
6.22500000e-02	5.07019578e-02	1.81148125e-03
6.25000000e-02	4.98054259e-02	1.76812232e-03
6.27500000e-02	4.85047791e-02	1.71537815e-03
6.30000000e-02	4.99527680e-02	1.76992183e-03
6.32500000e-02	4.91701294e-02	1.74309071e-03
6.35000000e-02	4.94341150e-02	1.75179858e-03
6.37500000e-02	4.87896080e-02	1.73099172e-03
6.40000000e-02	4.84901840e-02	1.70707617e-03
6.42500000e-02	4.90034251e-02	1.71138112e-03
6.45000000e-02	4.91051477e-02	1.71156906e-03
6.47500000e-02	4.83977043e-02	1.70465531e-03
6.50000000e-02	4.86567512e-02	1.69515145e-03
6.52500000e-02	4.84542017e-02	1.67480787e-03
6.55000000e-02	4.92125695e-02	1.70871113e-03
6.57500000e-02	4.86545073e-02	1.68585656e-03
6.60000000e-02	4.98888265e-02	1.71442282e-03
6.62500000e-02	5.19323743e-02	1.79175451e-03
6.65000000e-02	5.30719446e-02	1.81806352e-03
6.67500000e-02	5.59254087e-02	1.91798883e-03
6.70000000e-02	5.78625012e-02	1.99662862e-03
6.72500000e-02	5.98530156e-02	2.05632553e-03
6.75000000e-02	6.46662176e-02	2.20421656e-03
6.77500000e-02	6.70955272e-02	2.28850358e-03
6.80000000e-02	7.19866532e-02	2.49014852e-03
6.82500000e-02	7.72844602e-02	2.73448063e-03
6.85000000e-02	7.92184352e-02	2.83716611e-03
6.87500000e-02	7.41008888e-02	2.57804910e-03
6.90000000e-02	6.84162657e-02	2.34774840e-03
6.92500000e-02	6.36436717e-02	2.14364553e-03
6.95000000e-02	6.08159321e-02	2.05358813e-03
6.97500000e-02	5.63737627e-02	1.87848752e-03
7.00000000e-02	5.40358033e-02	1.79166265e-03
7.02500000e-02	5.10132176e-02	1.68950743e-03
7.05000000e-02	4.92085552e-02	1.62282529e-03
7.07500000e-02	4.70669613e-02	1.57616982e-03
7.10000000e-02	4.50847057e-02	1.49114830e-03
7.12500000e-02	4.38452458e-02	1.46046216e-03
7.15000000e-02	4.23363007e-02	1.40637070e-03
7.17500000e-02	4.10454658e-02	1.36865946e-03
7.20000000e-02	4.10784922e-02	1.36745867e-03
7.22500000e-02	4.02596783e-02	1.34394629e-03
7.25000000e-02	3.96914457e-02	1.32820264e-03
7.27500000e-02	3.98864380e-02	1.32481973e-03
7.30000000e-02	3.87304876e-02	1.29663923e-03
7.32500000e-02	3.88096153e-02	1.27960900e-03
7.35000000e-02	3.82061564e-02	1.26791252e-03
7.37500000e-02	3.82065039e-02	1.25805623e-03
7.40000000e-02	3.74771528e-02	1.24532679e-03
7.42500000e-02	3.77519188e-02	1.25064059e-03
7.45000000e-02	3.73959100e-02	1.24117763e-03
7.47500000e-02	3.69034760e-02	1.21450279e-03
7.50000000e-02	3.70637253e-02	1.22337994e-03
7.52500000e-02	3.70221264e-02	1.21707344e-03
7.55000000e-02	3.67607717e-02	1.20427099e-03
7.57500000e-02	3.65403607e-02	1.19914470e-03
7.60000000e-02	3.72509528e-02	1.22189811e-03
7.62500000e-02	3.70883318e-02	1.21787709e-03
7.65000000e-02	3.52198963e-02	1.14764822e-03
7.67500000e-02	3.52097241e-02	1.14756887e-03
7.70000000e-02	3.51313992e-02	1.13779418e-03
7.72500000e-02	3.56148997e-02	1.18025307e-03
7.75000000e-02	3.58647197e-02	1.20323874e-03
7.77500000e-02	3.53140089e-02	1.18208653e-03
7.80000000e-02	3.56901052e-02	1.20203600e-03
7.82500000e-02	3.65634224e-02	1.23526191e-03
7.85000000e-02	3.51747308e-02	1.20751606e-03
7.87500000e-02	3.44741866e-02	1.17887556e-03
7.90000000e-02	3.49339982e-02	1.20014716e-03
7.92500000e-02	3.40900127e-02	1.17404620e-03
7.95000000e-02	3.45368445e-02	1.18436355e-03
7.97500000e-02	3.51999966e-02	1.21911690e-03
8.00000000e-02	3.44118691e-02	1.18994393e-03
8.02500000e-02	3.44011640e-02	1.19252012e-03
8.05000000e-02	3.41837503e-02	1.19134327e-03
8.07500000e-02	3.40228912e-02	1.19636397e-03
8.10000000e-02	3.41012140e-02	1.19739547e-03
8.12500000e-02	3.34420113e-02	1.16807643e-03
8.15000000e-02	3.46975457e-02	1.21557862e-03
8.17500000e-02	3.41089959e-02	1.19955357e-03
8.20000000e-02	3.38782990e-02	1.18980319e-03
8.22500000e-02	3.40699934e-02	1.20112979e-03
8.25000000e-02	3.35556148e-02	1.18685142e-03
8.27500000e-02	3.33743687e-02	1.17027823e-03
8.30000000e-02	3.29382549e-02	1.16318855e-03
8.32500000e-02	3.26623675e-02	1.15655216e-03
8.35000000e-02	3.28724198e-02	1.18020304e-03
8.37500000e-02	3.24533805e-02	1.13992804e-03
8.40000000e-02	3.37070995e-02	1.19529081e-03
8.42500000e-02	3.17152048e-02	1.13549055e-03
8.45000000e-02	3.26510425e-02	1.16308059e-03
8.47500000e-02	3.21611743e-02	1.15145683e-03
8.50000000e-02	3.14519699e-02	1.12929274e-03
8.52500000e-02	3.25725647e-02	1.17142417e-03
8.55000000e-02	3.24248890e-02	1.16143512e-03
8.57500000e-02	3.28783481e-02	1.17933490e-03
8.60000000e-02	3.11620803e-02	1.12520294e-03
8.62500000e-02	3.12888968e-02	1.12526184e-03
8.65000000e-02	3.17286551e-02	1.14058464e-03
8.67500000e-02	3.15637917e-02	1.12821588e-03
8.70000000e-02	3.09898859e-02	1.09227277e-03
8.72500000e-02	3.14409095e-02	1.09470679e-03
8.75000000e-02	3.13973198e-02	1.07528496e-03
8.77500000e-02	3.09491098e-02	1.05587520e-03
8.80000000e-02	3.09668261e-02	1.06457430e-03
8.82500000e-02	3.15720697e-02	1.06915880e-03
8.85000000e-02	3.06608157e-02	1.04071710e-03
8.87500000e-02	3.00518849e-02	1.00471377e-03
8.90000000e-02	3.12779810e-02	1.04501584e-03
8.92500000e-02	3.09833399e-02	1.03824006e-03
8.95000000e-02	3.04504896e-02	1.01010330e-03
8.97500000e-02	3.11321594e-02	1.02378628e-03
9.00000000e-02	2.98716903e-02	9.84627252e-04
9.02500000e-02	2.99080624e-02	9.87318690e-04
9.05000000e-02	2.95571584e-02	9.72511016e-04
9.07500000e-02	2.97447040e-02	9.72995343e-04
9.10000000e-02	3.01455804e-02	9.83304695e-04
9.12500000e-02	3.01810254e-02	9.85108556e-04
9.15000000e-02	2.98526737e-02	9.74690889e-04
9.17500000e-02	2.98067980e-02	9.74181107e-04
9.20000000e-02	2.98051635e-02	9.72702177e-04
9.22500000e-02	2.96251875e-02	9.55853455e-04
9.25000000e-02	2.97158879e-02	9.59522656e-04
9.27500000e-02	2.93146810e-02	9.47897116e-04
9.30000000e-02	2.90766574e-02	9.39713468e-04
9.32500000e-02	2.91657955e-02	9.44589886e-04
9.35000000e-02	2.94048229e-02	9.38451815e-04
9.37500000e-02	2.92185957e-02	9.33488447e-04
9.40000000e-02	2.85659587e-02	9.12962582e-04
9.42500000e-02	2.93566774e-02	9.32740751e-04
9.45000000e-02	2.89489932e-02	9.18017369e-04
9.47500000e-02	2.95410287e-02	9.33365825e-04
9.50000000e-02	2.85073056e-02	9.06156263e-04
9.52500000e-02	2.90807744e-02	9.19263507e-04
9.55000000e-02	2.92425091e-02	9.24582011e-04
9.57500000e-02	2.90460850e-02	9.20587863e-04
9.60000000e-02	2.89790025e-02	9.12936796e-04
9.62500000e-02	2.85814330e-02	9.00484524e-04
9.65000000e-02	2.83369442e-02	8.89999599e-04
9.67500000e-02	2.87814628e-02	9.01897418e-04
9.70000000e-02	2.88300616e-02	9.05569241e-04
9.72500000e-02	2.79645028e-02	8.71595441e-04
9.75000000e-02	2.86229244e-02	8.93401414e-04
9.77500000e-02	2.85570313e-02	8.85602393e-04
9.80000000e-02	2.84298400e-02	8.81933648e-04
9.82500000e-02	2.82000866e-02	8.76236292e-04
9.85000000e-02	2.90218758e-02	8.98429845e-04
9.87500000e-02	2.83430609e-02	8.72230852e-04
9.90000000e-02	2.78444613e-02	8.55707579e-04
9.92500000e-02	2.85100353e-02	8.83125834e-04
9.95000000e-02	2.80006655e-02	8.61103644e-04
9.97500000e-02	2.78419684e-02	8.62696273e-04
1.00000000e-01	2.79364121e-02	6.97548395e-04
1.00500000e-01	2.74362778e-02	5.97852899e-04
1.01000000e-01	2.76178616e-02	5.97138093e-04
1.01500000e-01	2.76817855e-02	5.97198919e-04
1.02000000e-01	2.80938350e-02	6.03190717e-04
1.02500000e-01	2.79388039e-02	5.97783596e-04
1.03000000e-01	2.75144749e-02	5.89464888e-04
1.03500000e-01	2.76587408e-02	5.87172000e-04
1.04000000e-01	2.76437813e-02	5.88600149e-04
1.04500000e-01	2.73861559e-02	5.80782894e-04
1.05000000e-01	2.73373407e-02	5.75904951e-04
1.05500000e-01	2.71433550e-02	5.74035987e-04
1.06000000e-01	2.74556749e-02	5.78162365e-04
1.06500000e-01	2.77542500e-02	5.82923066e-04
1.07000000e-01	2.75390094e-02	5.85426372e-04
1.07500000e-01	2.73102929e-02	5.89577111e-04
1.08000000e-01	2.71653267e-02	5.92386364e-04
1.08500000e-01	2.75996066e-02	6.06950292e-04
1.09000000e-01	2.68556044e-02	5.97278470e-04
1.09500000e-01	2.69840570e-02	5.99259571e-04
1.10000000e-01	2.70059671e-02	5.93332444e-04
1.10500000e-01	2.68295284e-02	5.76141703e-04
1.11000000e-01	2.75085252e-02	5.82563371e-04
1.11500000e-01	2.72521577e-02	5.75037157e-04
1.12000000e-01	2.72592926e-02	5.68018400e-04
1.12500000e-01	2.74157242e-02	5.68823182e-04
1.13000000e-01	2.77371512e-02	5.72085492e-04
1.13500000e-01	2.74801117e-02	5.66123624e-04
1.14000000e-01	2.80718518e-02	5.74991597e-04
1.14500000e-01	2.76987816e-02	5.69184868e-04
1.15000000e-01	2.80837596e-02	5.73444684e-04
1.15500000e-01	2.78795158e-02	5.66673228e-04
1.16000000e-01	2.82316685e-02	5.73739825e-04
1.16500000e-01	2.86241485e-02	5.77445466e-04
1.17000000e-01	2.85165017e-02	5.73011630e-04
1.17500000e-01	2.88171706e-02	5.78762789e-04
1.18000000e-01	2.89538091e-02	5.80220685e-04
1.18500000e-01	2.91100815e-02	5.80558380e-04
1.19000000e-01	2.92440297e-02	5.82784891e-04
1.19500000e-01	2.93946361e-02	5.88782149e-04
1.20000000e-01	2.94003382e-02	5.81975626e-04
1.20500000e-01	2.95786059e-02	5.85012607e-04
1.21000000e-01	2.99731861e-02	5.92713234e-04
1.21500000e-01	3.01472336e-02	5.93515295e-04
1.22000000e-01	3.03104305e-02	5.95873890e-04
1.22500000e-01	3.09622983e-02	6.05045482e-04
1.23000000e-01	3.13170433e-02	6.11287012e-04
1.23500000e-01	3.17251298e-02	6.15474430e-04
1.24000000e-01	3.18876679e-02	6.21963144e-04
1.24500000e-01	3.28069452e-02	6.34212625e-04
1.25000000e-01	3.32219790e-02	6.39792791e-04
1.25500000e-01	3.32718650e-02	6.42019840e-04
1.26000000e-01	3.39890825e-02	6.53345173e-04
1.26500000e-01	3.41000280e-02	6.53749943e-04
1.27000000e-01	3.44040742e-02	6.58033215e-04
1.27500000e-01	3.47355894e-02	6.64735668e-04
1.28000000e-01	3.53317929e-02	6.74587794e-04
1.28500000e-01	3.53176424e-02	6.72765008e-04
1.29000000e-01	3.62937004e-02	6.91626063e-04
1.29500000e-01	3.71723609e-02	7.02954519e-04
1.30000000e-01	3.75738092e-02	7.11331401e-04
1.30500000e-01	3.75736979e-02	7.09816602e-04
1.31000000e-01	3.85083873e-02	7.26540099e-04
1.31500000e-01	3.86719212e-02	7.28842740e-04
1.32000000e-01	3.81772654e-02	7.16108440e-04
1.32500000e-01	3.78063340e-02	7.04416297e-04
1.33000000e-01	3.68401818e-02	6.88867201e-04
1.33500000e-01	3.65931995e-02	6.78081989e-04
1.34000000e-01	3.65410897e-02	6.78952773e-04
1.34500000e-01	3.62386737e-02	6.70250215e-04
1.35000000e-01	3.56924810e-02	6.57006034e-04
1.35500000e-01	3.51742217e-02	6.48549804e-04
1.36000000e-01	3.47085977e-02	6.36299172e-04
1.36500000e-01	3.42518520e-02	6.30709346e-04
1.37000000e-01	3.36204240e-02	6.15188892e-04
1.37500000e-01	3.29291116e-02	6.03845254e-04
1.38000000e-01	3.25315606e-02	5.94895577e-04
1.38500000e-01	3.19564714e-02	5.84736615e-04
1.39000000e-01	3.12158833e-02	5.71654902e-04
1.39500000e-01	3.05636483e-02	5.59229009e-04
1.40000000e-01	2.99621225e-02	5.50058457e-04
1.40500000e-01	2.93926312e-02	5.37073351e-04
1.41000000e-01	2.92479533e-02	5.32928728e-04
1.41500000e-01	2.80002973e-02	5.12001991e-04
1.42000000e-01	2.77028488e-02	5.03836198e-04
1.42500000e-01	2.72326163e-02	4.96519970e-04
1.43000000e-01	2.66163113e-02	4.85685037e-04
1.43500000e-01	2.67578754e-02	4.87269483e-04
1.44000000e-01	2.64212357e-02	4.81096673e-04
1.44500000e-01	2.62770475e-02	4.76467752e-04
1.45000000e-01	2.57867831e-02	4.69012926e-04
1.45500000e-01	2.56473102e-02	4.63887074e-04
1.46000000e-01	2.55923193e-02	4.61609200e-04
1.46500000e-01	2.52745833e-02	4.56035061e-04
1.47000000e-01	2.51712276e-02	4.54891035e-04
1.47500000e-01	2.44058649e-02	4.40282274e-04
1.48000000e-01	2.48482554e-02	4.45516378e-04
1.48500000e-01	2.45800167e-02	4.40397002e-04
1.49000000e-01	2.41034302e-02	4.32380958e-04
1.49500000e-01	2.44708842e-02	4.37581249e-04
1.50000000e-01	2.41231044e-02	4.32596783e-04
1.50500000e-01	2.39589911e-02	4.28968889e-04
1.51000000e-01	2.41753435e-02	4.31093905e-04
1.51500000e-01	2.38027096e-02	4.22969383e-04
1.52000000e-01	2.40780147e-02	4.24835489e-04
1.52500000e-01	2.36643580e-02	4.21021713e-04
1.53000000e-01	2.34612192e-02	4.17287963e-04
1.53500000e-01	2.33281221e-02	4.11539853e-04
1.54000000e-01	2.37989460e-02	4.20183075e-04
1.54500000e-01	2.34329149e-02	4.20814879e-04
1.55000000e-01	2.31739832e-02	4.21688700e-04
1.55500000e-01	2.32676855e-02	4.25549463e-04
1.56000000e-01	2.31063677e-02	4.26700902e-04
1.56500000e-01	2.33515677e-02	4.29584206e-04
1.57000000e-01	2.33264413e-02	4.30377628e-04
1.57500000e-01	2.31763575e-02	4.20224691e-04
1.58000000e-01	2.31308060e-02	4.12326475e-04
1.58500000e-01	2.31821395e-02	4.11190331e-04
1.59000000e-01	2.29064904e-02	4.05743993e-04
1.59500000e-01	2.28103865e-02	4.01923457e-04
1.60000000e-01	2.30386151e-02	4.05814073e-04
1.60500000e-01	2.25371121e-02	3.94998769e-04
1.61000000e-01	2.25581792e-02	3.96343122e-04
1.61500000e-01	2.26296905e-02	3.95944670e-04
1.62000000e-01	2.25803167e-02	3.94324042e-04
1.62500000e-01	2.27047924e-02	3.96536423e-04
1.63000000e-01	2.25485229e-02	3.90623873e-04
1.63500000e-01	2.25819537e-02	3.94349512e-04
1.64000000e-01	2.22813169e-02	3.85095300e-04
1.64500000e-01	2.22034315e-02	3.85018129e-04
1.65000000e-01	2.20999181e-02	3.82976653e-04
1.65500000e-01	2.25014247e-02	3.88010443e-04
1.66000000e-01	2.22807903e-02	3.84615707e-04
1.66500000e-01	2.19823664e-02	3.78914841e-04
1.67000000e-01	2.22711499e-02	3.82647812e-04
1.67500000e-01	2.22204104e-02	3.81915902e-04
1.68000000e-01	2.19448270e-02	3.77170332e-04
1.68500000e-01	2.20236131e-02	3.76542555e-04
1.69000000e-01	2.19132115e-02	3.75187729e-04
1.69500000e-01	2.22473508e-02	3.78220024e-04
1.70000000e-01	2.18337368e-02	3.71632658e-04
1.70500000e-01	2.20033957e-02	3.74480023e-04
1.71000000e-01	2.22905158e-02	3.77369217e-04
1.71500000e-01	2.17682141e-02	3.70119478e-04
1.72000000e-01	2.19024555e-02	3.69273261e-04
1.72500000e-01	2.16416824e-02	3.66339490e-04
1.73000000e-01	2.17849623e-02	3.66028883e-04
1.73500000e-01	2.17930407e-02	3.66919720e-04
1.74000000e-01	2.18730962e-02	3.66262794e-04
1.74500000e-01	2.21857271e-02	3.70793961e-04
1.75000000e-01	2.16629277e-02	3.60588816e-04
1.75500000e-01	2.18194232e-02	3.62802089e-04
1.76000000e-01	2.18217218e-02	3.63143444e-04
1.76500000e-01	2.18469889e-02	3.63071278e-04
1.77000000e-01	2.18098238e-02	3.61173586e-04
1.77500000e-01	2.16829455e-02	3.60116701e-04
1.78000000e-01	2.19724848e-02	3.63301232e-04
1.78500000e-01	2.16683260e-02	3.59021837e-04
1.79000000e-01	2.16919495e-02	3.59595060e-04
1.79500000e-01	2.13962694e-02	3.55707212e-04
1.80000000e-01	2.16549518e-02	3.58737263e-04
1.80500000e-01	2.16100127e-02	3.57349418e-04
1.81000000e-01	2.14678681e-02	3.56052509e-04
1.81500000e-01	2.16951915e-02	3.57169813e-04
1.82000000e-01	2.15363503e-02	3.54467201e-04
1.82500000e-01	2.16119167e-02	3.54881852e-04
1.83000000e-01	2.15184490e-02	3.53564398e-04
1.83500000e-01	2.16032597e-02	3.54309051e-04
1.84000000e-01	2.17611756e-02	3.56062269e-04
1.84500000e-01	2.17681727e-02	3.56433478e-04
1.85000000e-01	2.15027884e-02	3.52519564e-04
1.85500000e-01	2.14922978e-02	3.50087861e-04
1.86000000e-01	2.13910997e-02	3.48614929e-04
1.86500000e-01	2.15284979e-02	3.51516266e-04
1.87000000e-01	2.12656396e-02	3.45978233e-04
1.87500000e-01	2.11828869e-02	3.44869430e-04
1.88000000e-01	2.16335861e-02	3.50801185e-04
1.88500000e-01	2.12122995e-02	3.43396365e-04
1.89000000e-01	2.14420581e-02	3.46358938e-04
1.89500000e-01	2.12699097e-02	3.43997246e-04
1.90000000e-01	2.13704519e-02	3.44134447e-04
1.90500000e-01	2.10867024e-02	3.40492897e-04
1.91000000e-01	2.15831593e-02	3.46127256e-04
1.91500000e-01	2.14367115e-02	3.46022433e-04
1.92000000e-01	2.09819823e-02	3.36572214e-04
1.92500000e-01	2.14163587e-02	3.43504187e-04
1.93000000e-01	2.10719237e-02	3.38195279e-04
1.93500000e-01	2.12939786e-02	3.40637639e-04
1.94000000e-01	2.13413627e-02	3.39755875e-04
1.94500000e-01	2.12169289e-02	3.37823466e-04
1.95000000e-01	2.11559544e-02	3.37571924e-04
1.95500000e-01	2.09710496e-02	3.33070883e-04
1.96000000e-01	2.11091211e-02	3.35601858e-04
1.96500000e-01	2.12166303e-02	3.36891536e-04
1.97000000e-01	2.13687252e-02	3.37317345e-04
1.97500000e-01	2.09164840e-02	3.31534630e-04
1.98000000e-01	2.08817695e-02	3.29558270e-04
1.98500000e-01	2.09511744e-02	3.31123690e-04
1.99000000e-01	2.10046854e-02	3.31907088e-04
1.99500000e-01	2.08524384e-02	3.27339619e-04
2.00000000e-01	2.11116113e-02	3.31595069e-04
2.00500000e-01	2.11178993e-02	3.32005341e-04
2.01000000e-01	2.10310785e-02	3.30177910e-04
2.01500000e-01	2.07256690e-02	3.25457589e-04
2.02000000e-01	2.10248041e-02	3.30025395e-04
2.02500000e-01	2.10717102e-02	3.27831349e-04
2.03000000e-01	2.09178184e-02	3.26758902e-04
2.03500000e-01	2.08682169e-02	3.25359909e-04
2.04000000e-01	2.10680921e-02	3.28770523e-04
2.04500000e-01	2.06536801e-02	3.22632750e-04
2.05000000e-01	2.07439515e-02	3.23059046e-04
2.05500000e-01	2.10439112e-02	3.27458904e-04
2.06000000e-01	2.08535386e-02	3.23298356e-04
2.06500000e-01	2.08591506e-02	3.24236622e-04
2.07000000e-01	2.07217581e-02	3.21558424e-04
2.07500000e-01	2.10005775e-02	3.24185949e-04
2.08000000e-01	2.06277217e-02	3.20731228e-04
2.08500000e-01	2.07128547e-02	3.18709140e-04
2.09000000e-01	2.10022233e-02	3.25331732e-04
2.09500000e-01	2.10028017e-02	3.22317208e-04
2.10000000e-01	2.06429366e-02	3.18080850e-04
2.10500000e-01	2.09553309e-02	3.21970449e-04
2.11000000e-01	2.08067257e-02	3.18745833e-04
2.11500000e-01	2.07495575e-02	3.17886112e-04
2.12000000e-01	2.07219273e-02	3.17923444e-04
2.12500000e-01	2.04381533e-02	3.13911456e-04
2.13000000e-01	2.06454724e-02	3.15866966e-04
2.13500000e-01	2.04735578e-02	3.12236854e-04
2.14000000e-01	2.06780739e-02	3.15383508e-04
2.14500000e-01	2.04963181e-02	3.12517572e-04
2.15000000e-01	2.05164587e-02	3.13889703e-04
2.15500000e-01	2.05907294e-02	3.11436110e-04
2.16000000e-01	2.02456593e-02	3.07448255e-04
2.16500000e-01	2.06748878e-02	3.12721758e-04
2.17000000e-01	2.05501555e-02	3.15691681e-04
2.17500000e-01	2.07496466e-02	3.23381860e-04
2.18000000e-01	2.04366295e-02	3.18777921e-04
2.18500000e-01	2.05090637e-02	3.23431641e-04
2.19000000e-01	2.04225558e-02	3.23160783e-04
2.19500000e-01	2.03404511e-02	3.23117058e-04
2.20000000e-01	2.02446739e-02	3.23469476e-04
2.20500000e-01	2.03446178e-02	3.25120809e-04
2.21000000e-01	2.01635485e-02	3.22645269e-04
2.21500000e-01	2.03779792e-02	3.28131533e-04
2.22000000e-01	2.03630148e-02	3.27547422e-04
2.22500000e-01	2.03085761e-02	3.27264391e-04
2.23000000e-01	2.03500477e-02	3.28709460e-04
2.23500000e-01	2.05819233e-02	3.33277960e-04
2.24000000e-01	2.02906838e-02	3.29221751e-04
2.24500000e-01	2.01758605e-02	3.29424718e-04
2.25000000e-01	2.03759507e-02	3.33740518e-04
2.25500000e-01	2.02744429e-02	3.31208149e-04
2.26000000e-01	2.00282231e-02	3.29012003e-04
2.26500000e-01	2.05372093e-02	3.31339495e-04
2.27000000e-01	2.02258945e-02	3.22795993e-04
2.27500000e-01	2.01629495e-02	3.19162963e-04
2.28000000e-01	1.99200578e-02	3.15314041e-04
2.28500000e-01	2.01420160e-02	3.15908296e-04
2.29000000e-01	2.03942025e-02	3.19386386e-04
2.29500000e-01	1.99950936e-02	3.12375969e-04
2.30000000e-01	1.99207735e-02	3.09595012e-04
2.30500000e-01	1.98247136e-02	3.07352703e-04
2.31000000e-01	2.03392905e-02	3.13779222e-04
2.31500000e-01	2.00205546e-02	3.07822689e-04
2.32000000e-01	2.02556509e-02	3.10969767e-04
2.32500000e-01	2.03812968e-02	3.13839862e-04
2.33000000e-01	2.01049888e-02	3.08156630e-04
2.33500000e-01	2.01592929e-02	3.07024639e-04
2.34000000e-01	2.02473572e-02	3.08533612e-04
2.34500000e-01	1.99988394e-02	3.04001895e-04
2.35000000e-01	1.98217750e-02	3.01899803e-04
2.35500000e-01	1.99533516e-02	3.03079953e-04
2.36000000e-01	2.00447333e-02	3.03816868e-04
2.36500000e-01	2.02743301e-02	3.06580108e-04
2.37000000e-01	2.01781591e-02	3.04296146e-04
2.37500000e-01	2.01244347e-02	3.03525803e-04
2.38000000e-01	2.01464389e-02	3.01222686e-04
2.38500000e-01	2.00083004e-02	3.01420861e-04
2.39000000e-01	1.97176640e-02	2.94459035e-04
2.39500000e-01	1.97924794e-02	2.95639540e-04
2.40000000e-01	1.98416381e-02	2.96432810e-04
2.40500000e-01	1.97909143e-02	2.94855679e-04
2.41000000e-01	1.97082300e-02	2.93789734e-04
2.41500000e-01	1.96760461e-02	2.91246050e-04
2.42000000e-01	1.97195625e-02	2.92789186e-04
2.42500000e-01	2.00018013e-02	2.96801143e-04
2.43000000e-01	1.98102512e-02	2.93783285e-04
2.43500000e-01	1.97006303e-02	2.91342150e-04
2.44000000e-01	1.99488196e-02	2.93161632e-04
2.44500000e-01	2.00602794e-02	2.96074285e-04
2.45000000e-01	1.97244173e-02	2.90087178e-04
2.45500000e-01	1.98927558e-02	2.92361737e-04
2.46000000e-01	1.98766318e-02	2.91944642e-04
2.46500000e-01	1.97698250e-02	2.89497558e-04
2.47000000e-01	1.96357242e-02	2.87282429e-04
2.47500000e-01	1.96968753e-02	2.87575532e-04
2.48000000e-01	1.98067957e-02	2.88794546e-04
2.48500000e-01	1.98158871e-02	2.87991842e-04
2.49000000e-01	1.99112977e-02	2.88935507e-04
2.49500000e-01	1.97315457e-02	2.87178443e-04
2.50000000e-01	1.97885838e-02	2.86918215e-04
2.50500000e-01	1.97143387e-02	2.86141926e-04
2.51000000e-01	1.97606690e-02	2.86403681e-04
2.51500000e-01	1.97128516e-02	2.86180232e-04
2.52000000e-01	1.98624415e-02	2.87192975e-04
2.52500000e-01	1.97026027e-02	2.84725918e-04
2.53000000e-01	1.95463123e-02	2.82221276e-04
2.53500000e-01	1.97450253e-02	2.85158081e-04
2.54000000e-01	2.01510425e-02	2.90119002e-04
2.54500000e-01	1.97870862e-02	2.86147945e-04
2.55000000e-01	1.98869968e-02	2.83864136e-04
2.55500000e-01	1.96612345e-02	2.82760375e-04
2.56000000e-01	1.96882855e-02	2.82184777e-04
2.56500000e-01	1.93146046e-02	2.77558283e-04
2.57000000e-01	1.97985752e-02	2.82802381e-04
2.57500000e-01	1.98040472e-02	2.82813377e-04
2.58000000e-01	1.96526460e-02	2.81609302e-04
2.58500000e-01	1.96286426e-02	2.80406528e-04
2.59000000e-01	1.98566609e-02	2.83090741e-04
2.59500000e-01	1.99169274e-02	2.82825455e-04
2.60000000e-01	1.97893469e-02	2.79927913e-04
2.60500000e-01	1.98191503e-02	2.81468172e-04
2.61000000e-01	1.96588979e-02	2.78633890e-04
2.61500000e-01	1.98554009e-02	2.81367215e-04
2.62000000e-01	1.97266585e-02	2.79582350e-04
2.62500000e-01	1.99584027e-02	2.82818368e-04
2.63000000e-01	1.98096109e-02	2.79673556e-04
2.63500000e-01	1.95876117e-02	2.76131775e-04
2.64000000e-01	1.95479513e-02	2.76258302e-04
2.64500000e-01	1.96522436e-02	2.76464412e-04
2.65000000e-01	1.98171030e-02	2.78754367e-04
2.65500000e-01	1.96263516e-02	2.76361342e-04
2.66000000e-01	1.95480182e-02	2.74355339e-04
2.66500000e-01	1.96387619e-02	2.74880923e-04
2.67000000e-01	1.98384336e-02	2.78526271e-04
2.67500000e-01	1.94154063e-02	2.71066519e-04
2.68000000e-01	1.97029532e-02	2.75281566e-04
2.68500000e-01	1.94314049e-02	2.71014717e-04
2.69000000e-01	1.95270476e-02	2.70821995e-04
2.69500000e-01	1.97448410e-02	2.74663568e-04
2.70000000e-01	1.93629512e-02	2.69391960e-04
2.70500000e-01	1.95148155e-02	2.70664078e-04
2.71000000e-01	1.95916886e-02	2.70916931e-04
2.71500000e-01	1.93611580e-02	2.69169177e-04
2.72000000e-01	1.95656452e-02	2.70145010e-04
2.72500000e-01	1.94692596e-02	2.69806774e-04
2.73000000e-01	1.92742593e-02	2.66710751e-04
2.73500000e-01	1.93002873e-02	2.66804448e-04
2.74000000e-01	1.95997745e-02	2.69733095e-04
2.74500000e-01	1.94194380e-02	2.67545327e-04
2.75000000e-01	1.91541886e-02	2.64565472e-04
2.75500000e-01	1.92169387e-02	2.65215082e-04
2.76000000e-01	1.93568102e-02	2.66642383e-04
2.76500000e-01	1.91432876e-02	2.63136524e-04
2.77000000e-01	1.92746844e-02	2.65366136e-04
2.77500000e-01	1.91628583e-02	2.63600151e-04
2.78000000e-01	1.92662548e-02	2.64535691e-04
2.78500000e-01	1.91403096e-02	2.62868878e-04
2.79000000e-01	1.90984488e-02	2.62366173e-04
2.79500000e-01	1.91840398e-02	2.62539268e-04
2.80000000e-01	1.90669914e-02	2.60885725e-04
2.80500000e-01	1.90702069e-02	2.60990454e-04
2.81000000e-01	1.91721439e-02	2.61629506e-04
2.81500000e-01	1.91250895e-02	2.61222481e-04
2.82000000e-01	1.89308368e-02	2.57787396e-04
2.82500000e-01	1.88604398e-02	2.57243163e-04
2.83000000e-01	1.89025488e-02	2.57015379e-04
2.83500000e-01	1.88474683e-02	2.56944760e-04
2.84000000e-01	1.89379034e-02	2.58191561e-04
2.84500000e-01	1.89437792e-02	2.57701377e-04
2.85000000e-01	1.88808778e-02	2.57588056e-04
2.85500000e-01	1.87312024e-02	2.53006112e-04
2.86000000e-01	1.88586951e-02	2.55770293e-04
2.86500000e-01	1.87081042e-02	2.53594859e-04
2.87000000e-01	1.88290209e-02	2.54636219e-04
2.87500000e-01	1.88723526e-02	2.53541266e-04
2.88000000e-01	1.86722208e-02	2.51077098e-04
2.88500000e-01	1.87288020e-02	2.52425580e-04
2.89000000e-01	1.86062434e-02	2.50619122e-04
2.89500000e-01	1.86483792e-02	2.50640638e-04
2.90000000e-01	1.86350001e-02	2.50408692e-04
2.90500000e-01	1.86091190e-02	2.50399337e-04
2.91000000e-01	1.87025148e-02	2.50544556e-04
2.91500000e-01	1.85464381e-02	2.48292188e-04
2.92000000e-01	1.85238634e-02	2.48086231e-04
2.92500000e-01	1.84304141e-02	2.45827388e-04
2.93000000e-01	1.85077438e-02	2.47599183e-04
2.93500000e-01	1.82822606e-02	2.44703907e-04
2.94000000e-01	1.84670638e-02	2.45779327e-04
2.94500000e-01	1.83556127e-02	2.45319807e-04
2.95000000e-01	1.86487397e-02	2.47962779e-04
2.95500000e-01	1.83475081e-02	2.44957466e-04
2.96000000e-01	1.82123406e-02	2.42860465e-04
2.96500000e-01	1.85297178e-02	2.45546281e-04
2.97000000e-01	1.83526663e-02	2.44368429e-04
2.97500000e-01	1.86695037e-02	2.47223130e-04
2.98000000e-01	1.83534713e-02	2.44342430e-04
2.98500000e-01	1.84246523e-02	2.44571384e-04
2.99000000e-01	1.83266247e-02	2.42171770e-04
2.99500000e-01	1.83703367e-02	2.44121751e-04
3.00000000e-01	1.81531100e-02	2.40397567e-04
3.00500000e-01	1.83076922e-02	2.43321441e-04
3.01000000e-01	1.85507184e-02	2.44530510e-04
3.01500000e-01	1.83441437e-02	2.42532372e-04
3.02000000e-01	1.81663203e-02	2.40618552e-04
3.02500000e-01	1.82859450e-02	2.41582842e-04
3.03000000e-01	1.85109800e-02	2.43671959e-04
3.03500000e-01	1.82564058e-02	2.38900589e-04
3.04000000e-01	1.83083966e-02	2.41452376e-04
3.04500000e-01	1.82808930e-02	2.38994141e-04
3.05000000e-01	1.82692976e-02	2.40009738e-04
3.05500000e-01	1.80686429e-02	2.37131458e-04
3.06000000e-01	1.82710586e-02	2.38507060e-04
3.06500000e-01	1.81473080e-02	2.38805841e-04
3.07000000e-01	1.82398553e-02	2.38395042e-04
3.07500000e-01	1.81444977e-02	2.37234361e-04
3.08000000e-01	1.82575878e-02	2.38167998e-04
3.08500000e-01	1.81515232e-02	2.36769486e-04
3.09000000e-01	1.80579945e-02	2.35594195e-04
3.09500000e-01	1.82284242e-02	2.37124484e-04
3.10000000e-01	1.80030436e-02	2.34542446e-04
3.10500000e-01	1.80792315e-02	2.35171766e-04
3.11000000e-01	1.81817715e-02	2.35797314e-04
3.11500000e-01	1.82183940e-02	2.36246228e-04
3.12000000e-01	1.81778583e-02	2.36825516e-04
3.12500000e-01	1.81864932e-02	2.36318467e-04
3.13000000e-01	1.81099189e-02	2.33911219e-04
3.13500000e-01	1.79487704e-02	2.32284321e-04
3.14000000e-01	1.81610513e-02	2.34966558e-04
3.14500000e-01	1.80698092e-02	2.33609787e-04
3.15000000e-01	1.79539241e-02	2.32273630e-04
3.15500000e-01	1.79482673e-02	2.31684589e-04
3.16000000e-01	1.81785745e-02	2.35352371e-04
3.16500000e-01	1.79331604e-02	2.31210112e-04
3.17000000e-01	1.80379867e-02	2.31568547e-04
3.17500000e-01	1.79315894e-02	2.30547248e-04
3.18000000e-01	1.79886353e-02	2.31974478e-04
3.18500000e-01	1.78002192e-02	2.29552993e-04
3.19000000e-01	1.77829006e-02	2.28639262e-04
3.19500000e-01	1.79660547e-02	2.30209100e-04
3.20000000e-01	1.77028635e-02	2.28003609e-04
3.20500000e-01	1.78521376e-02	2.28955947e-04
3.21000000e-01	1.79980663e-02	2.31158013e-04
3.21500000e-01	1.80532987e-02	2.30289333e-04
3.22000000e-01	1.76751315e-02	2.26965007e-04
3.22500000e-01	1.78327745e-02	2.27893711e-04
3.23000000e-01	1.77882841e-02	2.27221604e-04
3.23500000e-01	1.78690788e-02	2.27986407e-04
3.24000000e-01	1.77702695e-02	2.26226138e-04
3.24500000e-01	1.78262958e-02	2.27306605e-04
3.25000000e-01	1.78486171e-02	2.27260342e-04
3.25500000e-01	1.76771489e-02	2.25189932e-04
3.26000000e-01	1.78325294e-02	2.27178460e-04
3.26500000e-01	1.77767664e-02	2.25296957e-04
3.27000000e-01	1.76891932e-02	2.24445502e-04
3.27500000e-01	1.75195246e-02	2.21843302e-04
3.28000000e-01	1.78862814e-02	2.26766762e-04
3.28500000e-01	1.77028122e-02	2.24391096e-04
3.29000000e-01	1.75162581e-02	2.21986178e-04
3.29500000e-01	1.78440252e-02	2.25829689e-04
3.30000000e-01	1.76023626e-02	2.22108937e-04
3.30500000e-01	1.74781479e-02	2.21248559e-04
3.31000000e-01	1.75083964e-02	2.20536755e-04
3.31500000e-01	1.76453841e-02	2.22725121e-04
3.32000000e-01	1.75207974e-02	2.21799910e-04
3.32500000e-01	1.75240500e-02	2.20938904e-04
3.33000000e-01	1.75158183e-02	2.20757711e-04
3.33500000e-01	1.76046006e-02	2.21997193e-04
3.34000000e-01	1.77058146e-02	2.22127474e-04
3.34500000e-01	1.75657360e-02	2.20718235e-04
3.35000000e-01	1.76614400e-02	2.21110863e-04
3.35500000e-01	1.75381334e-02	2.19861215e-04
3.36000000e-01	1.74310954e-02	2.18529465e-04
3.36500000e-01	1.77013971e-02	2.21499361e-04
3.37000000e-01	1.73758572e-02	2.18208057e-04
3.37500000e-01	1.74947786e-02	2.18368415e-04
3.38000000e-01	1.74551410e-02	2.19141525e-04
3.38500000e-01	1.73762555e-02	2.16202848e-04
3.39000000e-01	1.72930124e-02	2.15671550e-04
3.39500000e-01	1.73811213e-02	2.16827528e-04
3.40000000e-01	1.72825881e-02	2.15771687e-04
3.40500000e-01	1.73723745e-02	2.16588147e-04
3.41000000e-01	1.76687719e-02	2.19050115e-04
3.41500000e-01	1.73553619e-02	2.16879935e-04
3.42000000e-01	1.74220725e-02	2.16399883e-04
3.42500000e-01	1.74784230e-02	2.17502826e-04
3.43000000e-01	1.74399951e-02	2.16242717e-04
3.43500000e-01	1.74541487e-02	2.16115922e-04
3.44000000e-01	1.74796647e-02	2.16998625e-04
3.44500000e-01	1.73802770e-02	2.15277473e-04
3.45000000e-01	1.71929174e-02	2.13128335e-04
3.45500000e-01	1.74136364e-02	2.15502650e-04
3.46000000e-01	1.74499896e-02	2.15980491e-04
3.46500000e-01	1.71692703e-02	2.12488082e-04
3.47000000e-01	1.72732491e-02	2.12902044e-04
3.47500000e-01	1.73505099e-02	2.13910409e-04
3.48000000e-01	1.73575300e-02	2.13855319e-04
3.48500000e-01	1.72821988e-02	2.13272026e-04
3.49000000e-01	1.71821116e-02	2.11422867e-04
3.49500000e-01	1.73606800e-02	2.13285029e-04
3.50000000e-01	1.73041702e-02	1.73840957e-04
3.51000000e-01	1.71832781e-02	1.49496711e-04
3.52000000e-01	1.72429597e-02	1.49614081e-04
3.53000000e-01	1.72383362e-02	1.48964545e-04
3.54000000e-01	1.72138009e-02	1.48675946e-04
3.55000000e-01	1.71278006e-02	1.47959876e-04
3.56000000e-01	1.71894460e-02	1.48783817e-04
3.57000000e-01	1.70931530e-02	1.51059242e-04
3.58000000e-01	1.70416093e-02	1.51770571e-04
3.59000000e-01	1.70272185e-02	1.52553098e-04
3.60000000e-01	1.69976303e-02	1.53047621e-04
3.61000000e-01	1.69069044e-02	1.53033097e-04
3.62000000e-01	1.68068769e-02	1.53453743e-04
3.63000000e-01	1.69629525e-02	1.55130827e-04
3.64000000e-01	1.68575745e-02	1.54849612e-04
3.65000000e-01	1.69105078e-02	1.55680493e-04
3.66000000e-01	1.70308955e-02	1.54956596e-04
3.67000000e-01	1.70392778e-02	1.52706912e-04
3.68000000e-01	1.68963338e-02	1.50413218e-04
3.69000000e-01	1.69268189e-02	1.50064737e-04
3.70000000e-01	1.70075665e-02	1.49676702e-04
3.71000000e-01	1.68843732e-02	1.51108166e-04
3.72000000e-01	1.69185370e-02	1.52230870e-04
3.73000000e-01	1.69243748e-02	1.52536602e-04
3.74000000e-01	1.69142963e-02	1.52155600e-04
3.75000000e-01	1.68398292e-02	1.52240504e-04
3.76000000e-01	1.68181392e-02	1.51728252e-04
3.77000000e-01	1.69382762e-02	1.53172670e-04
3.78000000e-01	1.68121859e-02	1.51673321e-04
3.79000000e-01	1.68673596e-02	1.52065598e-04
3.80000000e-01	1.68315658e-02	1.51601288e-04
3.81000000e-01	1.68084342e-02	1.51329543e-04
3.82000000e-01	1.69766896e-02	1.52816180e-04
3.83000000e-01	1.69515312e-02	1.51919361e-04
3.84000000e-01	1.67694874e-02	1.51169825e-04
3.85000000e-01	1.68288711e-02	1.51700056e-04
3.86000000e-01	1.69708364e-02	1.52441550e-04
3.87000000e-01	1.69062715e-02	1.52020676e-04
3.88000000e-01	1.68879216e-02	1.51348678e-04
3.89000000e-01	1.69516568e-02	1.52240293e-04
3.90000000e-01	1.68627965e-02	1.51449567e-04
3.91000000e-01	1.69728156e-02	1.52183389e-04
3.92000000e-01	1.69373038e-02	1.51394026e-04
3.93000000e-01	1.70228966e-02	1.52201907e-04
3.94000000e-01	1.70357903e-02	1.52689364e-04
3.95000000e-01	1.70272430e-02	1.52213757e-04
3.96000000e-01	1.70513401e-02	1.52546228e-04
3.97000000e-01	1.68076421e-02	1.50570235e-04
3.98000000e-01	1.67964683e-02	1.50995296e-04
3.99000000e-01	1.69169096e-02	1.51603857e-04
4.00000000e-01	1.68591356e-02	1.50844276e-04
4.01000000e-01	1.67675940e-02	1.50379865e-04
4.02000000e-01	1.66890969e-02	1.49381153e-04
4.03000000e-01	1.67342674e-02	1.49815333e-04
4.04000000e-01	1.66768787e-02	1.48975148e-04
4.05000000e-01	1.66070694e-02	1.48639115e-04
4.06000000e-01	1.65903147e-02	1.48768737e-04
4.07000000e-01	1.65620211e-02	1.48363261e-04
4.08000000e-01	1.65302784e-02	1.48283705e-04
4.09000000e-01	1.65362997e-02	1.47806270e-04
4.10000000e-01	1.64633985e-02	1.47009529e-04
4.11000000e-01	1.62645487e-02	1.45442677e-04
4.12000000e-01	1.63912710e-02	1.46758423e-04
4.13000000e-01	1.62907702e-02	1.45553251e-04
4.14000000e-01	1.61865109e-02	1.45037226e-04
4.15000000e-01	1.62236317e-02	1.45167707e-04
4.16000000e-01	1.61863502e-02	1.44633787e-04
4.17000000e-01	1.63094380e-02	1.45943549e-04
4.18000000e-01	1.63779245e-02	1.47855800e-04
4.19000000e-01	1.62151493e-02	1.48408197e-04
4.20000000e-01	1.61751229e-02	1.48837270e-04
4.21000000e-01	1.63758220e-02	1.50920074e-04
4.22000000e-01	1.62463748e-02	1.50639601e-04
4.23000000e-01	1.62982239e-02	1.51308402e-04
4.24000000e-01	1.63299354e-02	1.52339744e-04
4.25000000e-01	1.62338584e-02	1.51924505e-04
4.26000000e-01	1.63687464e-02	1.52380838e-04
4.27000000e-01	1.61637255e-02	1.51076386e-04
4.28000000e-01	1.61090234e-02	1.50700452e-04
4.29000000e-01	1.61872615e-02	1.51650251e-04
4.30000000e-01	1.60834090e-02	1.50641422e-04
4.31000000e-01	1.61665946e-02	1.51070816e-04
4.32000000e-01	1.60898321e-02	1.50691594e-04
4.33000000e-01	1.61585466e-02	1.51678309e-04
4.34000000e-01	1.62541240e-02	1.52204088e-04
4.35000000e-01	1.61279811e-02	1.51488040e-04
4.36000000e-01	1.61104275e-02	1.51464149e-04
4.37000000e-01	1.60387975e-02	1.51519645e-04
4.38000000e-01	1.61650105e-02	1.52316687e-04
4.39000000e-01	1.60997468e-02	1.52377123e-04
4.40000000e-01	1.60239240e-02	1.51621103e-04
4.41000000e-01	1.61318101e-02	1.52236401e-04
4.42000000e-01	1.61125738e-02	1.53046030e-04
4.43000000e-01	1.60502011e-02	1.51918369e-04
4.44000000e-01	1.60169775e-02	1.52417669e-04
4.45000000e-01	1.60749860e-02	1.53257274e-04
4.46000000e-01	1.60740711e-02	1.52912629e-04
4.47000000e-01	1.58822731e-02	1.51398168e-04
4.48000000e-01	1.60095471e-02	1.52729561e-04
4.49000000e-01	1.60715160e-02	1.53008996e-04
4.50000000e-01	1.59261959e-02	1.52347821e-04
4.51000000e-01	1.60533592e-02	1.53821385e-04
4.52000000e-01	1.59896845e-02	1.53215720e-04
4.53000000e-01	1.59339488e-02	1.52975428e-04
4.54000000e-01	1.60978296e-02	1.54168548e-04
4.55000000e-01	1.60383949e-02	1.53700430e-04
4.56000000e-01	1.59102794e-02	1.52819962e-04
4.57000000e-01	1.59369892e-02	1.53455523e-04
4.58000000e-01	1.59531964e-02	1.53574701e-04
4.59000000e-01	1.58806560e-02	1.52739797e-04
4.60000000e-01	1.58110823e-02	1.52778640e-04
4.61000000e-01	1.56584567e-02	1.51516664e-04
4.62000000e-01	1.59011965e-02	1.53300000e-04
4.63000000e-01	1.57930802e-02	1.52762684e-04
4.64000000e-01	1.58836710e-02	1.53738887e-04
4.65000000e-01	1.58895970e-02	1.53732055e-04
4.66000000e-01	1.57809049e-02	1.52852906e-04
4.67000000e-01	1.58435619e-02	1.53467658e-04
4.68000000e-01	1.56175849e-02	1.51759831e-04
4.69000000e-01	1.58240623e-02	1.53534117e-04
4.70000000e-01	1.57611740e-02	1.53221860e-04
4.71000000e-01	1.57073698e-02	1.52836707e-04
4.72000000e-01	1.57973086e-02	1.53139829e-04
4.73000000e-01	1.58425101e-02	1.53519942e-04
4.74000000e-01	1.57943411e-02	1.53321809e-04
4.75000000e-01	1.56845521e-02	1.52249364e-04
4.76000000e-01	1.57072714e-02	1.52556843e-04
4.77000000e-01	1.56353419e-02	1.52094167e-04
4.78000000e-01	1.56862222e-02	1.52527494e-04
4.79000000e-01	1.57032883e-02	1.51946198e-04
4.80000000e-01	1.57061120e-02	1.52592749e-04
4.81000000e-01	1.55925608e-02	1.51815855e-04
4.82000000e-01	1.57429237e-02	1.53604489e-04
4.83000000e-01	1.57279382e-02	1.53057603e-04
4.84000000e-01	1.55869222e-02	1.52097102e-04
4.85000000e-01	1.57875655e-02	1.53869020e-04
4.86000000e-01	1.56533439e-02	1.52754857e-04
4.87000000e-01	1.57015441e-02	1.53237791e-04
4.88000000e-01	1.56394227e-02	1.53073399e-04
4.89000000e-01	1.55875916e-02	1.52631481e-04
4.90000000e-01	1.55905484e-02	1.52069195e-04
4.91000000e-01	1.55792200e-02	1.52530207e-04
4.92000000e-01	1.55595644e-02	1.51855844e-04
4.93000000e-01	1.57208900e-02	1.53876023e-04
4.94000000e-01	1.56005150e-02	1.53057434e-04
4.95000000e-01	1.57348410e-02	1.55200828e-04
4.96000000e-01	1.58469814e-02	1.60859324e-04
4.97000000e-01	1.56168897e-02	1.61568349e-04
4.98000000e-01	1.56080436e-02	1.63671617e-04
4.99000000e-01	1.55242585e-02	1.65221430e-04
5.00000000e-01	1.55755296e-02	1.67059109e-04
5.01000000e-01	1.55813047e-02	1.68904986e-04
5.02000000e-01	1.56416201e-02	1.71104967e-04
5.03000000e-01	1.57561544e-02	1.73273512e-04
5.04000000e-01	1.55229108e-02	1.73376138e-04
5.05000000e-01	1.56734275e-02	1.71187612e-04
5.06000000e-01	1.56320458e-02	1.66890080e-04
5.07000000e-01	1.56403681e-02	1.65971036e-04
5.08000000e-01	1.56048520e-02	1.64503303e-04
5.09000000e-01	1.56693489e-02	1.64120707e-04
5.10000000e-01	1.57687695e-02	1.64871710e-04
5.11000000e-01	1.54918631e-02	1.62125894e-04
5.12000000e-01	1.55351999e-02	1.61575807e-04
5.13000000e-01	1.55312954e-02	1.61794217e-04
5.14000000e-01	1.55119068e-02	1.61522972e-04
5.15000000e-01	1.54887664e-02	1.60359198e-04
5.16000000e-01	1.54984508e-02	1.60242542e-04
5.17000000e-01	1.55959936e-02	1.60411414e-04
5.18000000e-01	1.55264609e-02	1.59957115e-04
5.19000000e-01	1.55544401e-02	1.59362849e-04
5.20000000e-01	1.55499071e-02	1.58875299e-04
5.21000000e-01	1.55670250e-02	1.59423857e-04
5.22000000e-01	1.54993286e-02	1.58837856e-04
5.23000000e-01	1.55165242e-02	1.58354060e-04
5.24000000e-01	1.54497051e-02	1.57582528e-04
5.25000000e-01	1.53846754e-02	1.56711683e-04
5.26000000e-01	1.53831525e-02	1.57090692e-04
5.27000000e-01	1.54863242e-02	1.57848208e-04
5.28000000e-01	1.54776596e-02	1.57715068e-04
5.29000000e-01	1.55146283e-02	1.58750173e-04
5.30000000e-01	1.55729282e-02	1.59411689e-04
5.31000000e-01	1.54679868e-02	1.58183243e-04
5.32000000e-01	1.55152648e-02	1.58289663e-04
5.33000000e-01	1.54740156e-02	1.57161874e-04
5.34000000e-01	1.54296915e-02	1.57191893e-04
5.35000000e-01	1.56130310e-02	1.59190824e-04
5.36000000e-01	1.55171761e-02	1.58575039e-04
5.37000000e-01	1.54403765e-02	1.58003178e-04
5.38000000e-01	1.52669789e-02	1.55925278e-04
5.39000000e-01	1.52745875e-02	1.56283494e-04
5.40000000e-01	1.53097887e-02	1.56727616e-04
5.41000000e-01	1.53162796e-02	1.56169915e-04
5.42000000e-01	1.53958083e-02	1.57261784e-04
5.43000000e-01	1.53668385e-02	1.56676302e-04
5.44000000e-01	1.54160079e-02	1.57678964e-04
5.45000000e-01	1.55123569e-02	1.58486180e-04
5.46000000e-01	1.52817200e-02	1.56034443e-04
5.47000000e-01	1.52976297e-02	1.56400860e-04
5.48000000e-01	1.52673005e-02	1.56174605e-04
5.49000000e-01	1.54697353e-02	1.57303997e-04
5.50000000e-01	1.53443537e-02	1.56164005e-04
5.51000000e-01	1.51537882e-02	1.53823963e-04
5.52000000e-01	1.53041109e-02	1.55059593e-04
5.53000000e-01	1.53374090e-02	1.55739405e-04
5.54000000e-01	1.52011607e-02	1.54553193e-04
5.55000000e-01	1.53344437e-02	1.55393734e-04
5.56000000e-01	1.50520041e-02	1.52436891e-04
5.57000000e-01	1.53793413e-02	1.55651817e-04
5.58000000e-01	1.51186613e-02	1.53432085e-04
5.59000000e-01	1.52601323e-02	1.54669102e-04
5.60000000e-01	1.52363073e-02	1.54836512e-04
5.61000000e-01	1.52381414e-02	1.54384388e-04
5.62000000e-01	1.51231567e-02	1.53559688e-04
5.63000000e-01	1.51866827e-02	1.54426204e-04
5.64000000e-01	1.51224150e-02	1.53376691e-04
5.65000000e-01	1.52237744e-02	1.54147332e-04
5.66000000e-01	1.53838638e-02	1.56086230e-04
5.67000000e-01	1.51831351e-02	1.54322382e-04
5.68000000e-01	1.52575250e-02	1.54745025e-04
5.69000000e-01	1.51131363e-02	1.53073646e-04
5.70000000e-01	1.50575686e-02	1.52748477e-04
5.71000000e-01	1.51114906e-02	1.52949093e-04
5.72000000e-01	1.50682834e-02	1.53120087e-04
5.73000000e-01	1.51336575e-02	1.53728192e-04
5.74000000e-01	1.51257885e-02	1.53053726e-04
5.75000000e-01	1.50343833e-02	1.52721998e-04
5.76000000e-01	1.49689697e-02	1.52208741e-04
5.77000000e-01	1.49308930e-02	1.51466725e-04
5.78000000e-01	1.49501212e-02	1.52121715e-04
5.79000000e-01	1.51399312e-02	1.53933092e-04
5.80000000e-01	1.49067118e-02	1.51938651e-04
5.81000000e-01	1.49563621e-02	1.52014381e-04
5.82000000e-01	1.50761640e-02	1.53300794e-04
5.83000000e-01	1.50009112e-02	1.52314554e-04
5.84000000e-01	1.50376733e-02	1.52781053e-04
5.85000000e-01	1.50966274e-02	1.53822801e-04
5.86000000e-01	1.50208413e-02	1.53159539e-04
5.87000000e-01	1.50316218e-02	1.52668854e-04
5.88000000e-01	1.50303676e-02	1.52929132e-04
5.89000000e-01	1.48910219e-02	1.51820666e-04
5.90000000e-01	1.48997233e-02	1.52160147e-04
5.91000000e-01	1.49477120e-02	1.52179311e-04
5.92000000e-01	1.49367934e-02	1.52184059e-04
5.93000000e-01	1.51079006e-02	1.53978851e-04
5.94000000e-01	1.48920781e-02	1.51818940e-04
5.95000000e-01	1.49477724e-02	1.52498406e-04
5.96000000e-01	1.48355492e-02	1.51483573e-04
5.97000000e-01	1.49746892e-02	1.52471520e-04
5.98000000e-01	1.49946548e-02	1.52922977e-04
5.99000000e-01	1.49893282e-02	1.53087971e-04
6.00000000e-01	1.48911737e-02	1.51901858e-04
6.01000000e-01	1.48987817e-02	1.51775721e-04
6.02000000e-01	1.50105265e-02	1.52782400e-04
6.03000000e-01	1.48503510e-02	1.51280769e-04
6.04000000e-01	1.47542388e-02	1.50755495e-04
6.05000000e-01	1.49904012e-02	1.53053061e-04
6.06000000e-01	1.49573643e-02	1.52248862e-04
6.07000000e-01	1.47155498e-02	1.50416227e-04
6.08000000e-01	1.48820314e-02	1.52095444e-04
6.09000000e-01	1.48572508e-02	1.51535546e-04
6.10000000e-01	1.50366919e-02	1.53065681e-04
6.11000000e-01	1.49159330e-02	1.52151697e-04
6.12000000e-01	1.49146509e-02	1.52237985e-04
6.13000000e-01	1.47737061e-02	1.50666793e-04
6.14000000e-01	1.48395407e-02	1.51984536e-04
6.15000000e-01	1.49041395e-02	1.52134421e-04
6.16000000e-01	1.49339704e-02	1.52806611e-04
6.17000000e-01	1.48603001e-02	1.52183328e-04
6.18000000e-01	1.48832290e-02	1.52009266e-04
6.19000000e-01	1.48223290e-02	1.51487944e-04
6.20000000e-01	1.48655914e-02	1.51650223e-04
6.21000000e-01	1.47730120e-02	1.50869025e-04
6.22000000e-01	1.47329760e-02	1.50277963e-04
6.23000000e-01	1.47872764e-02	1.50199376e-04
6.24000000e-01	1.47325463e-02	1.49885560e-04
6.25000000e-01	1.48289010e-02	1.50261443e-04
6.26000000e-01	1.48587928e-02	1.50734255e-04
6.27000000e-01	1.48042141e-02	1.50014636e-04
6.28000000e-01	1.48453295e-02	1.50698644e-04
6.29000000e-01	1.48191552e-02	1.50543902e-04
6.30000000e-01	1.49041313e-02	1.51418201e-04
6.31000000e-01	1.47344037e-02	1.49425799e-04
6.32000000e-01	1.46582423e-02	1.49046506e-04
6.33000000e-01	1.47178631e-02	1.49792187e-04
6.34000000e-01	1.48995253e-02	1.54664264e-04
6.35000000e-01	1.47822010e-02	1.58100300e-04
6.36000000e-01	1.48736841e-02	1.62735203e-04
6.37000000e-01	1.48861742e-02	1.64750433e-04
6.38000000e-01	1.49487104e-02	1.67549178e-04
6.39000000e-01	1.48457850e-02	1.68654568e-04
6.40000000e-01	1.46707474e-02	1.69097121e-04
6.41000000e-01	1.47913352e-02	1.71486609e-04
6.42000000e-01	1.48085675e-02	1.74166086e-04
6.43000000e-01	1.49629804e-02	1.75854015e-04
6.44000000e-01	1.47974923e-02	1.67613879e-04
6.45000000e-01	1.48766589e-02	1.66022009e-04
6.46000000e-01	1.47695751e-02	1.63949896e-04
6.47000000e-01	1.49682332e-02	1.63508536e-04
6.48000000e-01	1.48733039e-02	1.62375786e-04
6.49000000e-01	1.48390151e-02	1.60593174e-04
6.50000000e-01	1.49460212e-02	1.60934487e-04
6.51000000e-01	1.50181968e-02	1.61611614e-04
6.52000000e-01	1.48729200e-02	1.58992402e-04
6.53000000e-01	1.48453308e-02	1.58434404e-04
6.54000000e-01	1.49420549e-02	1.58689095e-04
6.55000000e-01	1.48083457e-02	1.57541146e-04
6.56000000e-01	1.48054145e-02	1.57317893e-04
6.57000000e-01	1.49124637e-02	1.58116856e-04
6.58000000e-01	1.49856033e-02	1.57862736e-04
6.59000000e-01	1.50321853e-02	1.58564322e-04
6.60000000e-01	1.48681043e-02	1.56949766e-04
6.61000000e-01	1.49061137e-02	1.56932064e-04
6.62000000e-01	1.48166978e-02	1.56752755e-04
6.63000000e-01	1.47373824e-02	1.56201200e-04
6.64000000e-01	1.48206042e-02	1.56051110e-04
6.65000000e-01	1.47134565e-02	1.55007676e-04
6.66000000e-01	1.47591578e-02	1.54833599e-04
6.67000000e-01	1.48233019e-02	1.56122867e-04
6.68000000e-01	1.48453902e-02	1.56189852e-04
6.69000000e-01	1.46362925e-02	1.54141367e-04
6.70000000e-01	1.47000011e-02	1.54214710e-04
6.71000000e-01	1.47562947e-02	1.55044275e-04
6.72000000e-01	1.47675120e-02	1.55284943e-04
6.73000000e-01	1.48119125e-02	1.55226584e-04
6.74000000e-01	1.46742081e-02	1.53771738e-04
6.75000000e-01	1.46156699e-02	1.53222474e-04
6.76000000e-01	1.45886996e-02	1.52916706e-04
6.77000000e-01	1.47924998e-02	1.55349431e-04
6.78000000e-01	1.47805813e-02	1.54731330e-04
6.79000000e-01	1.46878086e-02	1.53993685e-04
6.80000000e-01	1.47426885e-02	1.54511892e-04
6.81000000e-01	1.47285900e-02	1.54435044e-04
6.82000000e-01	1.46123815e-02	1.53296762e-04
6.83000000e-01	1.46466102e-02	1.53387987e-04
6.84000000e-01	1.46733171e-02	1.53835022e-04
6.85000000e-01	1.45425160e-02	1.52320413e-04
6.86000000e-01	1.44481851e-02	1.51530004e-04
6.87000000e-01	1.45001344e-02	1.52198588e-04
6.88000000e-01	1.45862162e-02	1.52923893e-04
6.89000000e-01	1.45324557e-02	1.52178175e-04
6.90000000e-01	1.45388267e-02	1.52342162e-04
6.91000000e-01	1.45466006e-02	1.51884356e-04
6.92000000e-01	1.46052053e-02	1.52527925e-04
6.93000000e-01	1.46049984e-02	1.53343308e-04
6.94000000e-01	1.45114314e-02	1.51992879e-04
6.95000000e-01	1.45291330e-02	1.52311903e-04
6.96000000e-01	1.44398100e-02	1.50769969e-04
6.97000000e-01	1.45763518e-02	1.51867268e-04
6.98000000e-01	1.45389863e-02	1.51691325e-04
6.99000000e-01	1.44700470e-02	1.50912499e-04
7.00000000e-01	1.43919226e-02	1.50684344e-04
7.01000000e-01	1.44511072e-02	1.51235769e-04
7.02000000e-01	1.43351973e-02	1.50020318e-04
7.03000000e-01	1.44048578e-02	1.50319493e-04
7.04000000e-01	1.44125340e-02	1.50740065e-04
7.05000000e-01	1.44757390e-02	1.51145769e-04
7.06000000e-01	1.43967211e-02	1.50382896e-04
7.07000000e-01	1.44726266e-02	1.50938765e-04
7.08000000e-01	1.44526694e-02	1.50413671e-04
7.09000000e-01	1.42744678e-02	1.49070061e-04
7.10000000e-01	1.43599102e-02	1.49980434e-04
7.11000000e-01	1.44468648e-02	1.50516706e-04
7.12000000e-01	1.43654720e-02	1.50176473e-04
7.13000000e-01	1.42327566e-02	1.49150116e-04
7.14000000e-01	1.42196979e-02	1.48894335e-04
7.15000000e-01	1.44059984e-02	1.50462380e-04
7.16000000e-01	1.42277275e-02	1.48952571e-04
7.17000000e-01	1.42694495e-02	1.49031465e-04
7.18000000e-01	1.42707505e-02	1.49247908e-04
7.19000000e-01	1.43200879e-02	1.48911669e-04
7.20000000e-01	1.41415609e-02	1.48177035e-04
7.21000000e-01	1.43491714e-02	1.49791917e-04
7.22000000e-01	1.40092077e-02	1.46599410e-04
7.23000000e-01	1.41646230e-02	1.47600307e-04
7.24000000e-01	1.41089793e-02	1.47868352e-04
7.25000000e-01	1.40726444e-02	1.47752920e-04
7.26000000e-01	1.40862900e-02	1.47386780e-04
7.27000000e-01	1.41089092e-02	1.47311015e-04
7.28000000e-01	1.40413004e-02	1.47149544e-04
7.29000000e-01	1.40574011e-02	1.46714789e-04
7.30000000e-01	1.40321939e-02	1.47495513e-04
7.31000000e-01	1.39345733e-02	1.45843168e-04
7.32000000e-01	1.40533949e-02	1.47303504e-04
7.33000000e-01	1.39146259e-02	1.45575893e-04
7.34000000e-01	1.40160380e-02	1.46836081e-04
7.35000000e-01	1.39368817e-02	1.45469558e-04
7.36000000e-01	1.38944956e-02	1.45147263e-04
7.37000000e-01	1.40785142e-02	1.46555455e-04
7.38000000e-01	1.39628596e-02	1.45415605e-04
7.39000000e-01	1.38728468e-02	1.44207056e-04
7.40000000e-01	1.39562796e-02	1.44228043e-04
7.41000000e-01	1.39423726e-02	1.44494442e-04
7.42000000e-01	1.40070798e-02	1.45348955e-04
7.43000000e-01	1.39295424e-02	1.44879892e-04
7.44000000e-01	1.37953757e-02	1.43250054e-04
7.45000000e-01	1.38193594e-02	1.43462059e-04
7.46000000e-01	1.40196754e-02	1.45167136e-04
7.47000000e-01	1.38221077e-02	1.43407961e-04
7.48000000e-01	1.38116647e-02	1.42925550e-04
7.49000000e-01	1.37539206e-02	1.42676587e-04
7.50000000e-01	1.38431056e-02	1.43899543e-04
7.51000000e-01	1.38183845e-02	1.43629369e-04
7.52000000e-01	1.37470991e-02	1.43208285e-04
7.53000000e-01	1.39276804e-02	1.44358559e-04
7.54000000e-01	1.37433879e-02	1.42271422e-04
7.55000000e-01	1.37576004e-02	1.42481934e-04
7.56000000e-01	1.37523487e-02	1.42555544e-04
7.57000000e-01	1.36852241e-02	1.41933278e-04
7.58000000e-01	1.37013855e-02	1.42221753e-04
7.59000000e-01	1.37594193e-02	1.42596817e-04
7.60000000e-01	1.38390115e-02	1.43092358e-04
7.61000000e-01	1.36649947e-02	1.41003701e-04
7.62000000e-01	1.36792884e-02	1.41346110e-04
7.63000000e-01	1.34344048e-02	1.38983506e-04
7.64000000e-01	1.36207214e-02	1.40471646e-04
7.65000000e-01	1.35929948e-02	1.40047408e-04
7.66000000e-01	1.34677660e-02	1.39022761e-04
7.67000000e-01	1.35065013e-02	1.39057564e-04
7.68000000e-01	1.35027319e-02	1.39240203e-04
7.69000000e-01	1.35057726e-02	1.39261147e-04
7.70000000e-01	1.35408918e-02	1.39768587e-04
7.71000000e-01	1.35342478e-02	1.39053060e-04
7.72000000e-01	1.34996266e-02	1.43614907e-04
7.73000000e-01	1.35576958e-02	1.48575161e-04
7.74000000e-01	1.35149824e-02	1.50543911e-04
7.75000000e-01	1.35604565e-02	1.54338532e-04
7.76000000e-01	1.34794272e-02	1.55658446e-04
7.77000000e-01	1.33370159e-02	1.56033582e-04
7.78000000e-01	1.32872474e-02	1.57896614e-04
7.79000000e-01	1.34752030e-02	1.61215562e-04
7.80000000e-01	1.32711025e-02	1.61267108e-04
7.81000000e-01	1.33949818e-02	1.65100334e-04
7.82000000e-01	1.33126926e-02	1.65490078e-04
7.83000000e-01	1.33797912e-02	1.68469156e-04
7.84000000e-01	1.33599627e-02	1.70136757e-04
7.85000000e-01	1.33255478e-02	1.71327153e-04
7.86000000e-01	1.33684698e-02	1.74031888e-04
7.87000000e-01	1.33681987e-02	1.74911547e-04
7.88000000e-01	1.33088125e-02	1.75695409e-04
7.89000000e-01	1.31905518e-02	1.76090031e-04
7.90000000e-01	1.31118541e-02	1.77614829e-04
7.91000000e-01	1.31455380e-02	1.79077757e-04
7.92000000e-01	1.31441412e-02	1.81026643e-04
7.93000000e-01	1.31140656e-02	1.82000035e-04
7.94000000e-01	1.30793167e-02	1.84177178e-04
7.95000000e-01	1.32474828e-02	1.87804369e-04
7.96000000e-01	1.31286740e-02	1.89158007e-04
7.97000000e-01	1.31169658e-02	1.90421043e-04
7.98000000e-01	1.30372407e-02	1.91844547e-04
7.99000000e-01	1.30290872e-02	1.92918476e-04
8.00000000e-01	1.30718919e-02	1.95446444e-04
8.01000000e-01	1.31329284e-02	1.98843612e-04
8.02000000e-01	1.28820937e-02	1.97756059e-04
8.03000000e-01	1.32070336e-02	2.02972640e-04
8.04000000e-01	1.30304113e-02	2.03038055e-04
8.05000000e-01	1.29020320e-02	2.03023268e-04
8.06000000e-01	1.28496224e-02	2.05625875e-04
8.07000000e-01	1.27825367e-02	2.05569325e-04
8.08000000e-01	1.28078494e-02	2.09012643e-04
8.09000000e-01	1.29485087e-02	2.14158683e-04
8.10000000e-01	1.27110547e-02	2.11049998e-04
8.11000000e-01	1.28427277e-02	2.17309895e-04
8.12000000e-01	1.31300783e-02	2.22618093e-04
8.13000000e-01	1.28783030e-02	2.22133100e-04
8.14000000e-01	1.28309601e-02	2.22684188e-04
8.15000000e-01	1.27047590e-02	2.23750205e-04
8.16000000e-01	1.28196251e-02	2.28879590e-04
8.17000000e-01	1.27786837e-02	2.31030497e-04
8.18000000e-01	1.27995960e-02	2.34705167e-04
8.19000000e-01	1.28612667e-02	2.38041038e-04
8.20000000e-01	1.24956851e-02	2.35347757e-04
8.21000000e-01	1.25827702e-02	2.38842746e-04
8.22000000e-01	1.26339083e-02	2.45386803e-04
8.23000000e-01	1.27641248e-02	2.50198108e-04
8.24000000e-01	1.29449855e-02	2.56722275e-04
8.25000000e-01	1.26477526e-02	2.54390476e-04
8.26000000e-01	1.29441457e-02	2.64251366e-04
8.27000000e-01	1.24256581e-02	2.58110231e-04
8.28000000e-01	1.26382829e-02	2.65496518e-04
8.29000000e-01	1.24090478e-02	2.64974364e-04
8.30000000e-01	1.24144247e-02	2.69578132e-04
8.31000000e-01	1.25946229e-02	2.77086848e-04
8.32000000e-01	1.26921573e-02	2.83781078e-04
8.33000000e-01	1.23811265e-02	2.82172143e-04
8.34000000e-01	1.25377573e-02	2.91271818e-04
8.35000000e-01	1.22465123e-02	2.91535379e-04
8.36000000e-01	1.24372711e-02	2.98603472e-04
8.37000000e-01	1.23520881e-02	3.03483420e-04
8.38000000e-01	1.25319162e-02	3.12888168e-04
8.39000000e-01	1.22982473e-02	3.14519978e-04
8.40000000e-01	1.19856283e-02	3.13026156e-04
8.41000000e-01	1.22446502e-02	3.27553761e-04
8.42000000e-01	1.19122178e-02	3.26060951e-04
8.43000000e-01	1.23039508e-02	3.45932881e-04
8.44000000e-01	1.23845786e-02	3.53707193e-04
8.45000000e-01	1.21325862e-02	3.53016010e-04
8.46000000e-01	1.19415780e-02	3.66065935e-04
8.47000000e-01	1.22339022e-02	3.80462925e-04
8.48000000e-01	1.26998701e-02	4.03147528e-04
8.49000000e-01	1.21731381e-02	4.04500785e-04
8.50000000e-01	1.21712543e-02	4.19086113e-04
8.51000000e-01	1.18885736e-02	4.23911129e-04
8.52000000e-01	1.19221181e-02	4.40838123e-04
8.53000000e-01	1.22246013e-02	4.71664564e-04
8.54000000e-01	1.16233331e-02	4.62944601e-04
8.55000000e-01	1.19889126e-02	4.99908886e-04
8.56000000e-01	1.15042633e-02	4.97765156e-04
8.57000000e-01	1.12902839e-02	4.98906383e-04
8.58000000e-01	1.17473027e-02	5.30350881e-04
8.59000000e-01	1.16374713e-02	5.45454422e-04
8.60000000e-01	1.17652319e-02	5.82575094e-04
8.61000000e-01	1.18875410e-02	5.93750174e-04
8.62000000e-01	1.21676580e-02	6.32959878e-04
8.63000000e-01	1.21114126e-02	6.65592459e-04
8.64000000e-01	1.15830830e-02	6.55607181e-04
8.65000000e-01	1.12561096e-02	6.56365328e-04
8.66000000e-01	1.19906972e-02	7.37439905e-04
8.67000000e-01	1.20365540e-02	7.69304623e-04
8.68000000e-01	1.10003052e-02	8.00182260e-04
8.69000000e-01	1.21147961e-02	9.04690132e-04
8.70000000e-01	1.10583230e-02	9.12937823e-04
8.71000000e-01	1.16144152e-02	1.04980393e-03
8.72000000e-01	1.23783845e-02	1.24776400e-03
8.73000000e-01	1.20937201e-02	1.43657429e-03
8.74000000e-01	1.16834683e-02	1.75919539e-03
8.75000000e-01	9.40416155e-03	2.96153792e-03
