% Filename : SB3_00041_00003.h5
% Date & Time : 30-Oct-2025 17:56:56
% X-ray Energy (keV) : 13.30001
% Exposure Time (s) : 0.500
% Beam Center : 1461.24000, 208.98300
% Sample to Detector Distance (SDD) (mm) : 1990.750
% Detector Pixel Size (mm) : 0.075
% Photodiode Value : 141358.000
% I0 of Sample : 0
% I0 of Standard : 1
% 
% q(A^-1)   I(q)    I(q)_SE
0.00000000e+00	5.11234548e-03	3.13066459e-03
2.50000000e-04	0.00000000e+00	0.00000000e+00
5.00000000e-04	0.00000000e+00	0.00000000e+00
7.50000000e-04	0.00000000e+00	0.00000000e+00
1.00000000e-03	0.00000000e+00	0.00000000e+00
1.25000000e-03	0.00000000e+00	0.00000000e+00
1.50000000e-03	0.00000000e+00	0.00000000e+00
1.75000000e-03	0.00000000e+00	0.00000000e+00
2.00000000e-03	0.00000000e+00	0.00000000e+00
2.25000000e-03	0.00000000e+00	0.00000000e+00
2.50000000e-03	0.00000000e+00	0.00000000e+00
2.75000000e-03	0.00000000e+00	0.00000000e+00
3.00000000e-03	0.00000000e+00	0.00000000e+00
3.25000000e-03	9.80069037e+02	5.95951218e+02
3.50000000e-03	1.44791101e+03	3.47367239e+02
3.75000000e-03	1.03142867e+03	1.99059004e+02
4.00000000e-03	6.94382918e+02	1.24191914e+02
4.25000000e-03	5.29494189e+02	7.70913329e+01
4.50000000e-03	4.61500944e+02	5.88681054e+01
4.75000000e-03	4.00325501e+02	4.68757456e+01
5.00000000e-03	3.20226087e+02	3.57318128e+01
5.25000000e-03	2.61902824e+02	2.88102131e+01
5.50000000e-03	2.16876578e+02	2.30842763e+01
5.75000000e-03	1.82744863e+02	1.90768686e+01
6.00000000e-03	1.50027135e+02	1.49896418e+01
6.25000000e-03	1.27734965e+02	1.26189392e+01
6.50000000e-03	1.07756111e+02	1.03793422e+01
6.75000000e-03	9.24312821e+01	8.83201109e+00
7.00000000e-03	8.12372351e+01	7.49707957e+00
7.25000000e-03	6.87734839e+01	6.19619760e+00
7.50000000e-03	6.04920457e+01	5.45332800e+00
7.75000000e-03	5.21966039e+01	4.57085523e+00
8.00000000e-03	4.66871713e+01	4.03966486e+00
8.25000000e-03	4.13658977e+01	3.44362082e+00
8.50000000e-03	3.60262492e+01	2.93554692e+00
8.75000000e-03	3.28372300e+01	2.66540874e+00
9.00000000e-03	2.89250054e+01	2.31897810e+00
9.25000000e-03	2.57521212e+01	2.00790904e+00
9.50000000e-03	2.35696043e+01	1.80719584e+00
9.75000000e-03	2.10967673e+01	1.60700456e+00
1.00000000e-02	1.87708950e+01	1.40681243e+00
1.02500000e-02	1.71007218e+01	1.28313142e+00
1.05000000e-02	1.57192866e+01	1.13850114e+00
1.07500000e-02	1.43482802e+01	1.03598363e+00
1.10000000e-02	1.30081972e+01	9.13273340e-01
1.12500000e-02	1.19446005e+01	8.58408767e-01
1.15000000e-02	1.09072079e+01	7.63992018e-01
1.17500000e-02	1.00357012e+01	6.81391513e-01
1.20000000e-02	9.35987955e+00	6.35599966e-01
1.22500000e-02	8.56322494e+00	5.71187358e-01
1.25000000e-02	7.91275728e+00	5.26201997e-01
1.27500000e-02	7.32930811e+00	4.80086132e-01
1.30000000e-02	6.86412673e+00	4.44656864e-01
1.32500000e-02	6.29661223e+00	3.98387321e-01
1.35000000e-02	5.85699864e+00	3.70200888e-01
1.37500000e-02	5.44743031e+00	3.43510310e-01
1.40000000e-02	5.08371899e+00	3.16895707e-01
1.42500000e-02	4.74955912e+00	2.90158367e-01
1.45000000e-02	4.42621869e+00	2.68320428e-01
1.47500000e-02	4.11381138e+00	2.48667750e-01
1.50000000e-02	3.88783562e+00	2.33643509e-01
1.52500000e-02	3.65686561e+00	2.17000439e-01
1.55000000e-02	3.42742878e+00	2.00212816e-01
1.57500000e-02	3.18282845e+00	1.85569765e-01
1.60000000e-02	2.97936004e+00	1.70753971e-01
1.62500000e-02	2.80705047e+00	1.62488636e-01
1.65000000e-02	2.64703338e+00	1.50192855e-01
1.67500000e-02	2.52829041e+00	1.41313990e-01
1.70000000e-02	2.35763590e+00	1.31530118e-01
1.72500000e-02	2.24237442e+00	1.23928064e-01
1.75000000e-02	2.12102927e+00	1.17350853e-01
1.77500000e-02	2.00493428e+00	1.08546089e-01
1.80000000e-02	1.90082094e+00	1.03417046e-01
1.82500000e-02	1.80636882e+00	9.53797613e-02
1.85000000e-02	1.69765918e+00	9.20783215e-02
1.87500000e-02	1.62226606e+00	8.58357437e-02
1.90000000e-02	1.53252909e+00	8.06635451e-02
1.92500000e-02	1.46818853e+00	7.60594454e-02
1.95000000e-02	1.39636123e+00	7.20033037e-02
1.97500000e-02	1.33038734e+00	6.90045175e-02
2.00000000e-02	1.25842172e+00	6.44730627e-02
2.02500000e-02	1.19983452e+00	6.13307521e-02
2.05000000e-02	1.15210736e+00	5.77046391e-02
2.07500000e-02	1.09449880e+00	5.48255173e-02
2.10000000e-02	1.04892928e+00	5.28283035e-02
2.12500000e-02	1.01508432e+00	5.11871493e-02
2.15000000e-02	9.78165864e-01	4.87778983e-02
2.17500000e-02	9.46929204e-01	4.75280280e-02
2.20000000e-02	8.96686969e-01	4.53052456e-02
2.22500000e-02	8.60505659e-01	4.33575095e-02
2.25000000e-02	8.41826370e-01	4.25886281e-02
2.27500000e-02	7.99794345e-01	3.99985528e-02
2.30000000e-02	7.75310722e-01	3.90678643e-02
2.32500000e-02	7.34463716e-01	3.66728495e-02
2.35000000e-02	7.17666382e-01	3.62945277e-02
2.37500000e-02	6.85280564e-01	3.42818646e-02
2.40000000e-02	6.62401068e-01	3.33097921e-02
2.42500000e-02	6.41542914e-01	3.18736751e-02
2.45000000e-02	6.16197707e-01	3.08119704e-02
2.47500000e-02	5.90495896e-01	2.92496759e-02
2.50000000e-02	5.70558595e-01	2.82998152e-02
2.52500000e-02	5.48484923e-01	2.73155945e-02
2.55000000e-02	5.28915177e-01	2.58327969e-02
2.57500000e-02	5.13197496e-01	2.51535677e-02
2.60000000e-02	4.96625599e-01	2.42370068e-02
2.62500000e-02	4.77227334e-01	2.36428831e-02
2.65000000e-02	4.59461652e-01	2.23668646e-02
2.67500000e-02	4.49922416e-01	2.17044638e-02
2.70000000e-02	4.30489741e-01	2.09887300e-02
2.72500000e-02	4.14233930e-01	1.98892561e-02
2.75000000e-02	4.03115175e-01	1.96971125e-02
2.77500000e-02	3.88335326e-01	1.89395823e-02
2.80000000e-02	3.82519214e-01	1.81965618e-02
2.82500000e-02	3.64867897e-01	1.73532844e-02
2.85000000e-02	3.54628449e-01	1.68726614e-02
2.87500000e-02	3.50268549e-01	1.68412072e-02
2.90000000e-02	3.36067849e-01	1.60492185e-02
2.92500000e-02	3.27346722e-01	1.51620899e-02
2.95000000e-02	3.15832882e-01	1.50005306e-02
2.97500000e-02	3.09118740e-01	1.44345198e-02
3.00000000e-02	2.98493232e-01	1.40537477e-02
3.02500000e-02	2.88414485e-01	1.35806432e-02
3.05000000e-02	2.82243620e-01	1.29063989e-02
3.07500000e-02	2.76174228e-01	1.28608547e-02
3.10000000e-02	2.65997087e-01	1.23611033e-02
3.12500000e-02	2.60162043e-01	1.21686508e-02
3.15000000e-02	2.50395589e-01	1.15636957e-02
3.17500000e-02	2.48243131e-01	1.12273502e-02
3.20000000e-02	2.39535397e-01	1.10266673e-02
3.22500000e-02	2.30571699e-01	1.06175297e-02
3.25000000e-02	2.28197005e-01	1.05310965e-02
3.27500000e-02	2.19354106e-01	9.99764175e-03
3.30000000e-02	2.16900672e-01	9.79494663e-03
3.32500000e-02	2.09462813e-01	9.45906539e-03
3.35000000e-02	2.03620021e-01	9.31894929e-03
3.37500000e-02	2.01822133e-01	9.05715000e-03
3.40000000e-02	1.95706610e-01	8.83368447e-03
3.42500000e-02	1.94253494e-01	8.67060536e-03
3.45000000e-02	1.86628152e-01	8.38225246e-03
3.47500000e-02	1.82333200e-01	8.15058218e-03
3.50000000e-02	1.75876175e-01	7.82846785e-03
3.52500000e-02	1.74681831e-01	7.79546172e-03
3.55000000e-02	1.70775704e-01	7.48565953e-03
3.57500000e-02	1.65639101e-01	7.34682885e-03
3.60000000e-02	1.61473086e-01	7.13279354e-03
3.62500000e-02	1.59642159e-01	7.03622656e-03
3.65000000e-02	1.54092978e-01	6.77889783e-03
3.67500000e-02	1.52411916e-01	6.64035552e-03
3.70000000e-02	1.47336633e-01	6.43284426e-03
3.72500000e-02	1.42476724e-01	6.18285937e-03
3.75000000e-02	1.42708371e-01	6.19088972e-03
3.77500000e-02	1.37927963e-01	5.94923802e-03
3.80000000e-02	1.35706374e-01	5.85151626e-03
3.82500000e-02	1.33924813e-01	5.72401433e-03
3.85000000e-02	1.28685627e-01	5.56118020e-03
3.87500000e-02	1.26694430e-01	5.43232038e-03
3.90000000e-02	1.27090078e-01	5.47252111e-03
3.92500000e-02	1.23551223e-01	5.24291062e-03
3.95000000e-02	1.21859991e-01	5.16968200e-03
3.97500000e-02	1.17199784e-01	4.98929610e-03
4.00000000e-02	1.18340961e-01	4.97381941e-03
4.02500000e-02	1.15251924e-01	4.87746415e-03
4.05000000e-02	1.11473061e-01	4.65772830e-03
4.07500000e-02	1.09882707e-01	4.58510129e-03
4.10000000e-02	1.06724779e-01	4.49910652e-03
4.12500000e-02	1.06930275e-01	4.46538531e-03
4.15000000e-02	1.03279708e-01	4.28699480e-03
4.17500000e-02	1.03206146e-01	4.29347753e-03
4.20000000e-02	1.02903487e-01	4.23299970e-03
4.22500000e-02	9.92101794e-02	4.09508623e-03
4.25000000e-02	9.89049107e-02	4.08473047e-03
4.27500000e-02	9.59980572e-02	3.94198916e-03
4.30000000e-02	9.52518478e-02	3.89156680e-03
4.32500000e-02	9.31781318e-02	3.78349079e-03
4.35000000e-02	9.07347221e-02	3.72065919e-03
4.37500000e-02	9.11281299e-02	3.69016300e-03
4.40000000e-02	8.79189655e-02	3.57019755e-03
4.42500000e-02	8.73249692e-02	3.54986245e-03
4.45000000e-02	8.64233549e-02	3.47845021e-03
4.47500000e-02	8.40803744e-02	3.37512672e-03
4.50000000e-02	8.42177742e-02	3.39968024e-03
4.52500000e-02	8.45471477e-02	3.39992864e-03
4.55000000e-02	8.12554448e-02	3.25196983e-03
4.57500000e-02	7.96206351e-02	3.16933515e-03
4.60000000e-02	7.77455739e-02	3.11007739e-03
4.62500000e-02	7.75196493e-02	3.09877506e-03
4.65000000e-02	7.82750992e-02	3.08845316e-03
4.67500000e-02	7.58076732e-02	2.98861267e-03
4.70000000e-02	7.47270256e-02	2.92987221e-03
4.72500000e-02	7.40070843e-02	2.91643092e-03
4.75000000e-02	7.23302385e-02	2.87248459e-03
4.77500000e-02	7.31195659e-02	2.84679589e-03
4.80000000e-02	6.98032818e-02	2.73273542e-03
4.82500000e-02	6.94515137e-02	2.70023370e-03
4.85000000e-02	6.90520026e-02	2.71544401e-03
4.87500000e-02	6.90401175e-02	2.69403142e-03
4.90000000e-02	6.71381506e-02	2.59507975e-03
4.92500000e-02	6.64996630e-02	2.57761634e-03
4.95000000e-02	6.46947189e-02	2.50328224e-03
4.97500000e-02	6.61621747e-02	2.56374021e-03
5.00000000e-02	6.29511538e-02	2.42457792e-03
5.02500000e-02	6.47418998e-02	2.47569398e-03
5.05000000e-02	6.32911714e-02	2.42121914e-03
5.07500000e-02	6.29470462e-02	2.41224758e-03
5.10000000e-02	6.16872680e-02	2.35276303e-03
5.12500000e-02	6.11813367e-02	2.34977779e-03
5.15000000e-02	6.07394177e-02	2.28784968e-03
5.17500000e-02	5.81640655e-02	2.21683123e-03
5.20000000e-02	5.94147934e-02	2.24583730e-03
5.22500000e-02	5.69966326e-02	2.17277873e-03
5.25000000e-02	5.70906640e-02	2.15379974e-03
5.27500000e-02	5.86521427e-02	2.20313088e-03
5.30000000e-02	5.75790669e-02	2.18169277e-03
5.32500000e-02	5.59767397e-02	2.10632266e-03
5.35000000e-02	5.53119470e-02	2.08536713e-03
5.37500000e-02	5.42837152e-02	2.04054124e-03
5.40000000e-02	5.41918021e-02	2.02612089e-03
5.42500000e-02	5.37098163e-02	2.00210942e-03
5.45000000e-02	5.30442396e-02	1.97898106e-03
5.47500000e-02	5.30156857e-02	1.95985706e-03
5.50000000e-02	5.25012758e-02	1.94890391e-03
5.52500000e-02	5.12995688e-02	1.89137194e-03
5.55000000e-02	5.08517119e-02	1.87537813e-03
5.57500000e-02	5.05714812e-02	1.88803679e-03
5.60000000e-02	5.05460936e-02	1.86173669e-03
5.62500000e-02	5.00486422e-02	1.83998779e-03
5.65000000e-02	4.99635615e-02	1.82560885e-03
5.67500000e-02	4.97465697e-02	1.83309022e-03
5.70000000e-02	4.93483130e-02	1.80722408e-03
5.72500000e-02	4.89801795e-02	1.78369232e-03
5.75000000e-02	4.87333369e-02	1.77456616e-03
5.77500000e-02	4.69912275e-02	1.70942203e-03
5.80000000e-02	4.84161778e-02	1.75419749e-03
5.82500000e-02	4.80390653e-02	1.73342466e-03
5.85000000e-02	4.68196150e-02	1.69100923e-03
5.87500000e-02	4.66596120e-02	1.67455305e-03
5.90000000e-02	4.60703474e-02	1.66612389e-03
5.92500000e-02	4.61550333e-02	1.65971207e-03
5.95000000e-02	4.59398609e-02	1.64753184e-03
5.97500000e-02	4.48795527e-02	1.60939092e-03
6.00000000e-02	4.52924377e-02	1.61598978e-03
6.02500000e-02	4.48348817e-02	1.59821204e-03
6.05000000e-02	4.51061408e-02	1.60834789e-03
6.07500000e-02	4.49349194e-02	1.61692724e-03
6.10000000e-02	4.34307175e-02	1.54820367e-03
6.12500000e-02	4.34331524e-02	1.53907487e-03
6.15000000e-02	4.39074340e-02	1.55237945e-03
6.17500000e-02	4.36289766e-02	1.53521230e-03
6.20000000e-02	4.30256297e-02	1.51994169e-03
6.22500000e-02	4.27228259e-02	1.50493519e-03
6.25000000e-02	4.21165781e-02	1.48748325e-03
6.27500000e-02	4.21470507e-02	1.47203394e-03
6.30000000e-02	4.22185029e-02	1.48411495e-03
6.32500000e-02	4.17804404e-02	1.46516567e-03
6.35000000e-02	4.23148808e-02	1.48290940e-03
6.37500000e-02	4.32391060e-02	1.51700101e-03
6.40000000e-02	4.35853356e-02	1.51594323e-03
6.42500000e-02	4.36289195e-02	1.51136041e-03
6.45000000e-02	4.54486746e-02	1.56753862e-03
6.47500000e-02	4.69720651e-02	1.62507558e-03
6.50000000e-02	4.90106004e-02	1.68679630e-03
6.52500000e-02	4.96517398e-02	1.70109722e-03
6.55000000e-02	4.90927450e-02	1.69575091e-03
6.57500000e-02	4.90633703e-02	1.68189403e-03
6.60000000e-02	4.76285421e-02	1.63248186e-03
6.62500000e-02	4.69425437e-02	1.62452432e-03
6.65000000e-02	4.81667636e-02	1.64715566e-03
6.67500000e-02	4.91591004e-02	1.68248491e-03
6.70000000e-02	5.19595852e-02	1.79424990e-03
6.72500000e-02	5.51392752e-02	1.92425515e-03
6.75000000e-02	5.67796403e-02	2.00699604e-03
6.77500000e-02	5.88438073e-02	2.08590474e-03
6.80000000e-02	5.71067027e-02	2.02527527e-03
6.82500000e-02	5.67227659e-02	1.94347700e-03
6.85000000e-02	5.55108494e-02	1.87573552e-03
6.87500000e-02	5.67605787e-02	1.89648438e-03
6.90000000e-02	5.90590467e-02	1.97859172e-03
6.92500000e-02	6.07165797e-02	2.09056824e-03
6.95000000e-02	6.10381334e-02	2.14900500e-03
6.97500000e-02	6.09111750e-02	2.19951244e-03
7.00000000e-02	5.46977400e-02	1.89203023e-03
7.02500000e-02	4.94414311e-02	1.64197295e-03
7.05000000e-02	4.57156264e-02	1.50961980e-03
7.07500000e-02	4.35435662e-02	1.45717468e-03
7.10000000e-02	4.05450905e-02	1.34499718e-03
7.12500000e-02	3.87409592e-02	1.29300746e-03
7.15000000e-02	3.82596391e-02	1.26448313e-03
7.17500000e-02	3.78264360e-02	1.25962231e-03
7.20000000e-02	3.67589317e-02	1.22734677e-03
7.22500000e-02	3.57831507e-02	1.18519686e-03
7.25000000e-02	3.47763692e-02	1.16043314e-03
7.27500000e-02	3.53188516e-02	1.18155432e-03
7.30000000e-02	3.40650971e-02	1.13280195e-03
7.32500000e-02	3.50214480e-02	1.15646730e-03
7.35000000e-02	3.33751706e-02	1.10920789e-03
7.37500000e-02	3.39541694e-02	1.12691815e-03
7.40000000e-02	3.36607426e-02	1.11060366e-03
7.42500000e-02	3.37766448e-02	1.11785867e-03
7.45000000e-02	3.29580554e-02	1.08666533e-03
7.47500000e-02	3.28460264e-02	1.08431006e-03
7.50000000e-02	3.31984396e-02	1.08930857e-03
7.52500000e-02	3.24145192e-02	1.06646302e-03
7.55000000e-02	3.24007459e-02	1.06348397e-03
7.57500000e-02	3.23755800e-02	1.05773028e-03
7.60000000e-02	3.30096544e-02	1.07878945e-03
7.62500000e-02	3.24763279e-02	1.06121642e-03
7.65000000e-02	3.19566295e-02	1.04443520e-03
7.67500000e-02	3.11161685e-02	1.01549416e-03
7.70000000e-02	3.15858950e-02	1.02553521e-03
7.72500000e-02	3.15288149e-02	1.04922076e-03
7.75000000e-02	3.12058785e-02	1.04183268e-03
7.77500000e-02	3.18470867e-02	1.06362008e-03
7.80000000e-02	3.12673704e-02	1.05957266e-03
7.82500000e-02	3.17889424e-02	1.07913002e-03
7.85000000e-02	3.14129804e-02	1.07341548e-03
7.87500000e-02	3.12499135e-02	1.06688188e-03
7.90000000e-02	3.14874019e-02	1.08371333e-03
7.92500000e-02	3.13310828e-02	1.08037697e-03
7.95000000e-02	3.07824959e-02	1.06270422e-03
7.97500000e-02	3.01009066e-02	1.05082769e-03
8.00000000e-02	3.11638450e-02	1.08375107e-03
8.02500000e-02	3.08671462e-02	1.07357805e-03
8.05000000e-02	3.06066330e-02	1.06655527e-03
8.07500000e-02	3.14806233e-02	1.10026855e-03
8.10000000e-02	3.02547899e-02	1.06282078e-03
8.12500000e-02	3.05070992e-02	1.06763659e-03
8.15000000e-02	3.00462967e-02	1.05321344e-03
8.17500000e-02	3.01068570e-02	1.05768648e-03
8.20000000e-02	3.06387364e-02	1.07965749e-03
8.22500000e-02	3.02661195e-02	1.07186421e-03
8.25000000e-02	2.98000907e-02	1.05231796e-03
8.27500000e-02	3.02439745e-02	1.06525580e-03
8.30000000e-02	3.05535455e-02	1.08883565e-03
8.32500000e-02	2.94341054e-02	1.05312006e-03
8.35000000e-02	2.93233181e-02	1.04847481e-03
8.37500000e-02	2.94994296e-02	1.04707430e-03
8.40000000e-02	3.02016099e-02	1.07414769e-03
8.42500000e-02	2.94404335e-02	1.05583534e-03
8.45000000e-02	2.94547428e-02	1.06051726e-03
8.47500000e-02	2.93659159e-02	1.05378233e-03
8.50000000e-02	2.89095396e-02	1.03482144e-03
8.52500000e-02	2.95052956e-02	1.06289026e-03
8.55000000e-02	2.89627483e-02	1.03890719e-03
8.57500000e-02	2.95168073e-02	1.06089893e-03
8.60000000e-02	2.96260290e-02	1.06347020e-03
8.62500000e-02	2.94540332e-02	1.05855696e-03
8.65000000e-02	2.90822643e-02	1.04538412e-03
8.67500000e-02	2.83189152e-02	1.01634539e-03
8.70000000e-02	2.89977307e-02	1.02906771e-03
8.72500000e-02	2.92598926e-02	1.01437248e-03
8.75000000e-02	2.87135269e-02	9.93392922e-04
8.77500000e-02	2.83344916e-02	9.69523326e-04
8.80000000e-02	2.80627601e-02	9.62549565e-04
8.82500000e-02	2.85599927e-02	9.72797607e-04
8.85000000e-02	2.84086643e-02	9.65356464e-04
8.87500000e-02	2.89390673e-02	9.64302901e-04
8.90000000e-02	2.90745916e-02	9.78488270e-04
8.92500000e-02	2.84071482e-02	9.54309191e-04
8.95000000e-02	2.84903786e-02	9.45453789e-04
8.97500000e-02	2.79956844e-02	9.29842280e-04
9.00000000e-02	2.79131656e-02	9.27349010e-04
9.02500000e-02	2.76689761e-02	9.16715197e-04
9.05000000e-02	2.77585541e-02	9.12520548e-04
9.07500000e-02	2.74749298e-02	9.05998019e-04
9.10000000e-02	2.77332867e-02	9.05865795e-04
9.12500000e-02	2.75727615e-02	8.99025860e-04
9.15000000e-02	2.74607187e-02	9.02319047e-04
9.17500000e-02	2.70578664e-02	8.88690303e-04
9.20000000e-02	2.74559985e-02	8.97035219e-04
9.22500000e-02	2.72837211e-02	8.81867592e-04
9.25000000e-02	2.69386274e-02	8.73881377e-04
9.27500000e-02	2.73371913e-02	8.81713074e-04
9.30000000e-02	2.76806021e-02	8.93116127e-04
9.32500000e-02	2.77297928e-02	8.89465550e-04
9.35000000e-02	2.73301342e-02	8.78211036e-04
9.37500000e-02	2.72920300e-02	8.69368808e-04
9.40000000e-02	2.64846370e-02	8.55621217e-04
9.42500000e-02	2.73526512e-02	8.70568747e-04
9.45000000e-02	2.70957250e-02	8.61136276e-04
9.47500000e-02	2.71122422e-02	8.64570972e-04
9.50000000e-02	2.71233411e-02	8.58632978e-04
9.52500000e-02	2.70522421e-02	8.62573780e-04
9.55000000e-02	2.67115013e-02	8.44586426e-04
9.57500000e-02	2.62765307e-02	8.35620674e-04
9.60000000e-02	2.66568311e-02	8.43744706e-04
9.62500000e-02	2.61581396e-02	8.29863780e-04
9.65000000e-02	2.61375318e-02	8.22701228e-04
9.67500000e-02	2.67795416e-02	8.38407970e-04
9.70000000e-02	2.67811133e-02	8.34960561e-04
9.72500000e-02	2.65958636e-02	8.30855500e-04
9.75000000e-02	2.65425310e-02	8.30791247e-04
9.77500000e-02	2.66522377e-02	8.27104153e-04
9.80000000e-02	2.63629826e-02	8.25829265e-04
9.82500000e-02	2.60998622e-02	8.16114107e-04
9.85000000e-02	2.67127762e-02	8.28998283e-04
9.87500000e-02	2.66683319e-02	8.26575901e-04
9.90000000e-02	2.68886192e-02	8.34603849e-04
9.92500000e-02	2.61440796e-02	8.13997356e-04
9.95000000e-02	2.57339223e-02	7.97793123e-04
9.97500000e-02	2.63721588e-02	8.15331411e-04
1.00000000e-01	2.60193529e-02	6.50794875e-04
1.00500000e-01	2.63665940e-02	5.72885380e-04
1.01000000e-01	2.62658204e-02	5.66618315e-04
1.01500000e-01	2.60877392e-02	5.66542316e-04
1.02000000e-01	2.57753878e-02	5.54143977e-04
1.02500000e-01	2.59495061e-02	5.57288611e-04
1.03000000e-01	2.57236613e-02	5.53264494e-04
1.03500000e-01	2.59038792e-02	5.52478575e-04
1.04000000e-01	2.55426895e-02	5.47595702e-04
1.04500000e-01	2.56347116e-02	5.47140278e-04
1.05000000e-01	2.55928474e-02	5.42913355e-04
1.05500000e-01	2.54640234e-02	5.37947965e-04
1.06000000e-01	2.59937672e-02	5.46406529e-04
1.06500000e-01	2.55224865e-02	5.37597068e-04
1.07000000e-01	2.59512147e-02	5.53670198e-04
1.07500000e-01	2.57299509e-02	5.58654922e-04
1.08000000e-01	2.60088698e-02	5.67389443e-04
1.08500000e-01	2.53223435e-02	5.61008653e-04
1.09000000e-01	2.54738399e-02	5.64513629e-04
1.09500000e-01	2.55130571e-02	5.68601825e-04
1.10000000e-01	2.53923935e-02	5.62040002e-04
1.10500000e-01	2.58125007e-02	5.56301900e-04
1.11000000e-01	2.57390719e-02	5.46435033e-04
1.11500000e-01	2.57332614e-02	5.44069146e-04
1.12000000e-01	2.60354556e-02	5.42814426e-04
1.12500000e-01	2.59129714e-02	5.37050902e-04
1.13000000e-01	2.64133346e-02	5.45740881e-04
1.13500000e-01	2.62745946e-02	5.42956280e-04
1.14000000e-01	2.59307778e-02	5.31394383e-04
1.14500000e-01	2.62613047e-02	5.37613226e-04
1.15000000e-01	2.61513650e-02	5.34988791e-04
1.15500000e-01	2.63316146e-02	5.37493686e-04
1.16000000e-01	2.62665339e-02	5.33909823e-04
1.16500000e-01	2.71244555e-02	5.49764046e-04
1.17000000e-01	2.70053839e-02	5.45933768e-04
1.17500000e-01	2.68978633e-02	5.44993698e-04
1.18000000e-01	2.70881074e-02	5.43916721e-04
1.18500000e-01	2.73795638e-02	5.47405651e-04
1.19000000e-01	2.73721357e-02	5.46677641e-04
1.19500000e-01	2.78470655e-02	5.52420971e-04
1.20000000e-01	2.79277754e-02	5.53353673e-04
1.20500000e-01	2.77917468e-02	5.50881539e-04
1.21000000e-01	2.75660623e-02	5.45243954e-04
1.21500000e-01	2.78649932e-02	5.50562087e-04
1.22000000e-01	2.83869710e-02	5.58477578e-04
1.22500000e-01	2.87170201e-02	5.61871503e-04
1.23000000e-01	2.92338814e-02	5.73679036e-04
1.23500000e-01	2.93347662e-02	5.73052964e-04
1.24000000e-01	2.92408484e-02	5.69551429e-04
1.24500000e-01	3.00752635e-02	5.83757994e-04
1.25000000e-01	3.02671004e-02	5.87472397e-04
1.25500000e-01	3.05282115e-02	5.92432164e-04
1.26000000e-01	3.11232681e-02	5.99599362e-04
1.26500000e-01	3.12930460e-02	6.03353359e-04
1.27000000e-01	3.19279401e-02	6.11755526e-04
1.27500000e-01	3.17313510e-02	6.08647695e-04
1.28000000e-01	3.26114964e-02	6.22196279e-04
1.28500000e-01	3.27861597e-02	6.24045608e-04
1.29000000e-01	3.29489391e-02	6.25681520e-04
1.29500000e-01	3.31434052e-02	6.29265739e-04
1.30000000e-01	3.39165634e-02	6.48720738e-04
1.30500000e-01	3.48467271e-02	6.81199870e-04
1.31000000e-01	3.56780872e-02	7.12366347e-04
1.31500000e-01	3.46478798e-02	6.63630437e-04
1.32000000e-01	3.35835922e-02	6.31187826e-04
1.32500000e-01	3.36521001e-02	6.29650802e-04
1.33000000e-01	3.30869111e-02	6.18127241e-04
1.33500000e-01	3.26111758e-02	6.03897085e-04
1.34000000e-01	3.24863461e-02	6.04607554e-04
1.34500000e-01	3.23555425e-02	5.99548907e-04
1.35000000e-01	3.18231392e-02	5.86890860e-04
1.35500000e-01	3.16931458e-02	5.83065047e-04
1.36000000e-01	3.10855267e-02	5.69979641e-04
1.36500000e-01	3.07465653e-02	5.66157305e-04
1.37000000e-01	3.02007838e-02	5.53149895e-04
1.37500000e-01	2.98583066e-02	5.47019027e-04
1.38000000e-01	2.95601642e-02	5.41523374e-04
1.38500000e-01	2.95453848e-02	5.42077364e-04
1.39000000e-01	2.89807808e-02	5.32369258e-04
1.39500000e-01	2.80038220e-02	5.11081877e-04
1.40000000e-01	2.77610089e-02	5.08590521e-04
1.40500000e-01	2.74628502e-02	5.02958204e-04
1.41000000e-01	2.64796121e-02	4.85080015e-04
1.41500000e-01	2.66192548e-02	4.86736172e-04
1.42000000e-01	2.61910864e-02	4.78029405e-04
1.42500000e-01	2.61291586e-02	4.77063386e-04
1.43000000e-01	2.51103924e-02	4.59374739e-04
1.43500000e-01	2.51557704e-02	4.58025506e-04
1.44000000e-01	2.48967036e-02	4.54605650e-04
1.44500000e-01	2.46436416e-02	4.46505640e-04
1.45000000e-01	2.46342192e-02	4.47771537e-04
1.45500000e-01	2.45592694e-02	4.44510205e-04
1.46000000e-01	2.44678086e-02	4.41328044e-04
1.46500000e-01	2.40527357e-02	4.35669397e-04
1.47000000e-01	2.38838027e-02	4.31126307e-04
1.47500000e-01	2.38922330e-02	4.30102772e-04
1.48000000e-01	2.35466025e-02	4.25542965e-04
1.48500000e-01	2.34510336e-02	4.21225204e-04
1.49000000e-01	2.35495355e-02	4.24851720e-04
1.49500000e-01	2.32202687e-02	4.17593035e-04
1.50000000e-01	2.31595515e-02	4.15007490e-04
1.50500000e-01	2.30051297e-02	4.12434519e-04
1.51000000e-01	2.30192583e-02	4.11216698e-04
1.51500000e-01	2.25022282e-02	4.01107287e-04
1.52000000e-01	2.25670436e-02	4.00997671e-04
1.52500000e-01	2.28301156e-02	4.05749386e-04
1.53000000e-01	2.26280055e-02	4.01947898e-04
1.53500000e-01	2.23006032e-02	3.94603921e-04
1.54000000e-01	2.26014957e-02	3.99488102e-04
1.54500000e-01	2.24947153e-02	4.05326010e-04
1.55000000e-01	2.22554341e-02	4.05489764e-04
1.55500000e-01	2.25579295e-02	4.13116990e-04
1.56000000e-01	2.17536856e-02	4.02152376e-04
1.56500000e-01	2.20068235e-02	4.05680536e-04
1.57000000e-01	2.20734577e-02	4.08952045e-04
1.57500000e-01	2.20787999e-02	4.01891791e-04
1.58000000e-01	2.19185999e-02	3.91239651e-04
1.58500000e-01	2.18528026e-02	3.89345090e-04
1.59000000e-01	2.21525218e-02	3.92393091e-04
1.59500000e-01	2.19020765e-02	3.88180110e-04
1.60000000e-01	2.19396115e-02	3.88153866e-04
1.60500000e-01	2.16155001e-02	3.80795783e-04
1.61000000e-01	2.16963121e-02	3.82455606e-04
1.61500000e-01	2.14638537e-02	3.75843382e-04
1.62000000e-01	2.17913231e-02	3.81943340e-04
1.62500000e-01	2.12430854e-02	3.73338428e-04
1.63000000e-01	2.14040959e-02	3.73254791e-04
1.63500000e-01	2.14112443e-02	3.75358745e-04
1.64000000e-01	2.12916453e-02	3.70324681e-04
1.64500000e-01	2.14130733e-02	3.72625475e-04
1.65000000e-01	2.16721611e-02	3.75244424e-04
1.65500000e-01	2.14399531e-02	3.71585885e-04
1.66000000e-01	2.08637401e-02	3.62226198e-04
1.66500000e-01	2.10311354e-02	3.63006065e-04
1.67000000e-01	2.11048935e-02	3.63320009e-04
1.67500000e-01	2.15321545e-02	3.71345059e-04
1.68000000e-01	2.12134153e-02	3.63980171e-04
1.68500000e-01	2.10822424e-02	3.61136443e-04
1.69000000e-01	2.10236623e-02	3.60136239e-04
1.69500000e-01	2.11950652e-02	3.62063633e-04
1.70000000e-01	2.12534788e-02	3.62422283e-04
1.70500000e-01	2.11025899e-02	3.59235626e-04
1.71000000e-01	2.11820148e-02	3.60137703e-04
1.71500000e-01	2.10850223e-02	3.59334885e-04
1.72000000e-01	2.06908321e-02	3.51684471e-04
1.72500000e-01	2.10716868e-02	3.56590829e-04
1.73000000e-01	2.09804281e-02	3.56561604e-04
1.73500000e-01	2.07961182e-02	3.50128253e-04
1.74000000e-01	2.09813362e-02	3.55287763e-04
1.74500000e-01	2.06761675e-02	3.46223589e-04
1.75000000e-01	2.08099379e-02	3.48223422e-04
1.75500000e-01	2.06277956e-02	3.43669108e-04
1.76000000e-01	2.08142068e-02	3.47060284e-04
1.76500000e-01	2.08994003e-02	3.50228638e-04
1.77000000e-01	2.09957187e-02	3.48867494e-04
1.77500000e-01	2.08410881e-02	3.46593591e-04
1.78000000e-01	2.11009566e-02	3.50371917e-04
1.78500000e-01	2.06007437e-02	3.42422984e-04
1.79000000e-01	2.06298249e-02	3.42699683e-04
1.79500000e-01	2.06108217e-02	3.42691016e-04
1.80000000e-01	2.09224016e-02	3.48486777e-04
1.80500000e-01	2.08794319e-02	3.47490590e-04
1.81000000e-01	2.05478273e-02	3.40319467e-04
1.81500000e-01	2.06078951e-02	3.41042599e-04
1.82000000e-01	2.06559476e-02	3.42417577e-04
1.82500000e-01	2.06248886e-02	3.38476547e-04
1.83000000e-01	2.07497589e-02	3.42998473e-04
1.83500000e-01	2.08565735e-02	3.42979213e-04
1.84000000e-01	2.07239382e-02	3.40385914e-04
1.84500000e-01	2.02822472e-02	3.34690934e-04
1.85000000e-01	2.09300163e-02	3.42383548e-04
1.85500000e-01	2.07528802e-02	3.40380957e-04
1.86000000e-01	2.00753326e-02	3.28852829e-04
1.86500000e-01	2.06535071e-02	3.36074392e-04
1.87000000e-01	2.03688470e-02	3.32273091e-04
1.87500000e-01	2.02574504e-02	3.31113087e-04
1.88000000e-01	2.04022763e-02	3.30861119e-04
1.88500000e-01	2.04254475e-02	3.32027807e-04
1.89000000e-01	2.03008637e-02	3.28330878e-04
1.89500000e-01	2.00003295e-02	3.26871363e-04
1.90000000e-01	2.00254635e-02	3.24187724e-04
1.90500000e-01	2.03394126e-02	3.30071703e-04
1.91000000e-01	2.02112123e-02	3.26824382e-04
1.91500000e-01	2.01930791e-02	3.27429934e-04
1.92000000e-01	2.04810193e-02	3.30177191e-04
1.92500000e-01	2.04486005e-02	3.28517230e-04
1.93000000e-01	2.03397945e-02	3.26921439e-04
1.93500000e-01	2.04265365e-02	3.26679461e-04
1.94000000e-01	2.00478711e-02	3.21553825e-04
1.94500000e-01	2.03772765e-02	3.26729728e-04
1.95000000e-01	2.04793618e-02	3.26931960e-04
1.95500000e-01	2.05007379e-02	3.25865696e-04
1.96000000e-01	2.01858087e-02	3.22297165e-04
1.96500000e-01	2.01945088e-02	3.22285959e-04
1.97000000e-01	2.01669553e-02	3.20650267e-04
1.97500000e-01	2.01644425e-02	3.20042303e-04
1.98000000e-01	2.00229561e-02	3.18069757e-04
1.98500000e-01	2.01091397e-02	3.18934728e-04
1.99000000e-01	1.99596494e-02	3.16075850e-04
1.99500000e-01	2.02974409e-02	3.19455930e-04
2.00000000e-01	1.99739213e-02	3.16117218e-04
2.00500000e-01	2.00149850e-02	3.16252764e-04
2.01000000e-01	2.00674362e-02	3.16531502e-04
2.01500000e-01	2.00974069e-02	3.16419625e-04
2.02000000e-01	2.01357612e-02	3.18013937e-04
2.02500000e-01	1.99213705e-02	3.12538855e-04
2.03000000e-01	2.01370493e-02	3.15813185e-04
2.03500000e-01	2.01848293e-02	3.15861151e-04
2.04000000e-01	1.99963011e-02	3.13514440e-04
2.04500000e-01	1.99553033e-02	3.11886309e-04
2.05000000e-01	2.02933131e-02	3.15502029e-04
2.05500000e-01	1.99078922e-02	3.10491948e-04
2.06000000e-01	2.00814616e-02	3.12150974e-04
2.06500000e-01	2.00751763e-02	3.12334374e-04
2.07000000e-01	1.99339802e-02	3.09158120e-04
2.07500000e-01	1.99880030e-02	3.10142005e-04
2.08000000e-01	1.99834276e-02	3.11013875e-04
2.08500000e-01	1.96226030e-02	3.03949911e-04
2.09000000e-01	1.99941306e-02	3.10839702e-04
2.09500000e-01	1.97750926e-02	3.05773679e-04
2.10000000e-01	1.97913804e-02	3.06048971e-04
2.10500000e-01	1.97706068e-02	3.06741197e-04
2.11000000e-01	1.98197396e-02	3.03895452e-04
2.11500000e-01	1.99556147e-02	3.08404605e-04
2.12000000e-01	1.96567448e-02	3.02592645e-04
2.12500000e-01	1.97884945e-02	3.03774474e-04
2.13000000e-01	1.99421011e-02	3.05667795e-04
2.13500000e-01	1.97084691e-02	3.00893709e-04
2.14000000e-01	1.96380912e-02	3.01256316e-04
2.14500000e-01	1.99928665e-02	3.03929134e-04
2.15000000e-01	1.94888593e-02	3.00048126e-04
2.15500000e-01	1.94639401e-02	2.96355532e-04
2.16000000e-01	1.97555881e-02	3.00495512e-04
2.16500000e-01	1.93928642e-02	2.95948121e-04
2.17000000e-01	1.95429021e-02	3.01770133e-04
2.17500000e-01	1.96769828e-02	3.08168330e-04
2.18000000e-01	1.94592672e-02	3.05687619e-04
2.18500000e-01	1.96140268e-02	3.10640192e-04
2.19000000e-01	1.97237067e-02	3.12507599e-04
2.19500000e-01	1.97923823e-02	3.16079905e-04
2.20000000e-01	1.94884959e-02	3.12517508e-04
2.20500000e-01	1.96951966e-02	3.15669213e-04
2.21000000e-01	1.93604329e-02	3.12365221e-04
2.21500000e-01	1.93894781e-02	3.13844344e-04
2.22000000e-01	1.97606500e-02	3.19154142e-04
2.22500000e-01	1.96848529e-02	3.18895731e-04
2.23000000e-01	1.95973963e-02	3.18823125e-04
2.23500000e-01	1.95345907e-02	3.18328688e-04
2.24000000e-01	1.94658385e-02	3.16522774e-04
2.24500000e-01	1.96342505e-02	3.21035794e-04
2.25000000e-01	1.92507616e-02	3.16959988e-04
2.25500000e-01	1.94920548e-02	3.19649382e-04
2.26000000e-01	1.92638114e-02	3.18278694e-04
2.26500000e-01	1.95565984e-02	3.16755276e-04
2.27000000e-01	1.94342880e-02	3.11257252e-04
2.27500000e-01	1.93573178e-02	3.08135914e-04
2.28000000e-01	1.93050721e-02	3.06982686e-04
2.28500000e-01	1.94088669e-02	3.05621703e-04
2.29000000e-01	1.93796514e-02	3.03539185e-04
2.29500000e-01	1.94164198e-02	3.04227438e-04
2.30000000e-01	1.91578364e-02	2.99305399e-04
2.30500000e-01	1.93404026e-02	2.99648634e-04
2.31000000e-01	1.93014206e-02	2.99443153e-04
2.31500000e-01	1.95140069e-02	3.01632739e-04
2.32000000e-01	1.91940507e-02	2.96402263e-04
2.32500000e-01	1.94562641e-02	2.99749329e-04
2.33000000e-01	1.93295949e-02	2.97119964e-04
2.33500000e-01	1.91029600e-02	2.94219669e-04
2.34000000e-01	1.93363235e-02	2.95983072e-04
2.34500000e-01	1.91481653e-02	2.93352411e-04
2.35000000e-01	1.91490864e-02	2.93352203e-04
2.35500000e-01	1.90933094e-02	2.91512951e-04
2.36000000e-01	1.90999325e-02	2.90817922e-04
2.36500000e-01	1.93047910e-02	2.93191687e-04
2.37000000e-01	1.92383087e-02	2.91683218e-04
2.37500000e-01	1.92436679e-02	2.90503482e-04
2.38000000e-01	1.91008594e-02	2.87954089e-04
2.38500000e-01	1.89325450e-02	2.84942043e-04
2.39000000e-01	1.90242206e-02	2.86361897e-04
2.39500000e-01	1.93469372e-02	2.90503644e-04
2.40000000e-01	1.93620528e-02	2.90370964e-04
2.40500000e-01	1.87931779e-02	2.80875388e-04
2.41000000e-01	1.90079298e-02	2.83173944e-04
2.41500000e-01	1.90326316e-02	2.82727509e-04
2.42000000e-01	1.89845180e-02	2.82730660e-04
2.42500000e-01	1.90406891e-02	2.83143034e-04
2.43000000e-01	1.92648291e-02	2.84958485e-04
2.43500000e-01	1.89620572e-02	2.81380003e-04
2.44000000e-01	1.88986895e-02	2.79244447e-04
2.44500000e-01	1.90312618e-02	2.81325148e-04
2.45000000e-01	1.90707936e-02	2.81315987e-04
2.45500000e-01	1.88585590e-02	2.77840200e-04
2.46000000e-01	1.90172488e-02	2.80801461e-04
2.46500000e-01	1.90701520e-02	2.80008355e-04
2.47000000e-01	1.89963063e-02	2.80324336e-04
2.47500000e-01	1.88343459e-02	2.76148017e-04
2.48000000e-01	1.89097075e-02	2.76713356e-04
2.48500000e-01	1.89444089e-02	2.76846417e-04
2.49000000e-01	1.91267465e-02	2.78741476e-04
2.49500000e-01	1.91102660e-02	2.78979892e-04
2.50000000e-01	1.91515233e-02	2.79091204e-04
2.50500000e-01	1.89069061e-02	2.76672776e-04
2.51000000e-01	1.88059696e-02	2.73362039e-04
2.51500000e-01	1.90139053e-02	2.77121627e-04
2.52000000e-01	1.89756664e-02	2.75878642e-04
2.52500000e-01	1.87760942e-02	2.72801098e-04
2.53000000e-01	1.88899578e-02	2.74242709e-04
2.53500000e-01	1.88714803e-02	2.72890218e-04
2.54000000e-01	1.88281877e-02	2.73238865e-04
2.54500000e-01	1.89983533e-02	2.75314579e-04
2.55000000e-01	1.90962015e-02	2.74902954e-04
2.55500000e-01	1.92510991e-02	2.77661110e-04
2.56000000e-01	1.89096645e-02	2.71358085e-04
2.56500000e-01	1.90027368e-02	2.72904261e-04
2.57000000e-01	1.92517594e-02	2.74413284e-04
2.57500000e-01	1.88049272e-02	2.69875057e-04
2.58000000e-01	1.90257474e-02	2.72704196e-04
2.58500000e-01	1.90433756e-02	2.72652817e-04
2.59000000e-01	1.91175997e-02	2.73270745e-04
2.59500000e-01	1.90507588e-02	2.72403006e-04
2.60000000e-01	1.89640304e-02	2.70737220e-04
2.60500000e-01	1.89833721e-02	2.70957554e-04
2.61000000e-01	1.93234404e-02	2.74616812e-04
2.61500000e-01	1.89673266e-02	2.70192663e-04
2.62000000e-01	1.89357313e-02	2.69227766e-04
2.62500000e-01	1.89704382e-02	2.70804460e-04
2.63000000e-01	1.88130735e-02	2.66896698e-04
2.63500000e-01	1.90667298e-02	2.69283501e-04
2.64000000e-01	1.88859605e-02	2.67126652e-04
2.64500000e-01	1.89411113e-02	2.67571931e-04
2.65000000e-01	1.87810918e-02	2.66025785e-04
2.65500000e-01	1.88129402e-02	2.65397101e-04
2.66000000e-01	1.89798263e-02	2.67380009e-04
2.66500000e-01	1.86447652e-02	2.63116457e-04
2.67000000e-01	1.87211424e-02	2.64024244e-04
2.67500000e-01	1.86699712e-02	2.60982161e-04
2.68000000e-01	1.86051646e-02	2.60285581e-04
2.68500000e-01	1.88935710e-02	2.64191841e-04
2.69000000e-01	1.86965406e-02	2.61013314e-04
2.69500000e-01	1.86626849e-02	2.60574971e-04
2.70000000e-01	1.88324476e-02	2.61770152e-04
2.70500000e-01	1.88462193e-02	2.62139680e-04
2.71000000e-01	1.87722551e-02	2.61701630e-04
2.71500000e-01	1.84324911e-02	2.57529026e-04
2.72000000e-01	1.86965414e-02	2.59653325e-04
2.72500000e-01	1.85710760e-02	2.59106505e-04
2.73000000e-01	1.87250192e-02	2.59497818e-04
2.73500000e-01	1.87112306e-02	2.59620377e-04
2.74000000e-01	1.87373243e-02	2.59369272e-04
2.74500000e-01	1.83835572e-02	2.54718909e-04
2.75000000e-01	1.83108434e-02	2.53270472e-04
2.75500000e-01	1.87516199e-02	2.59167292e-04
2.76000000e-01	1.84643357e-02	2.55003158e-04
2.76500000e-01	1.84681678e-02	2.55665719e-04
2.77000000e-01	1.83637347e-02	2.53227749e-04
2.77500000e-01	1.84179663e-02	2.55129189e-04
2.78000000e-01	1.85870344e-02	2.56114381e-04
2.78500000e-01	1.83614194e-02	2.53740834e-04
2.79000000e-01	1.82872957e-02	2.51939163e-04
2.79500000e-01	1.83407017e-02	2.51920431e-04
2.80000000e-01	1.83411399e-02	2.51218503e-04
2.80500000e-01	1.83404730e-02	2.51559878e-04
2.81000000e-01	1.83747222e-02	2.51948262e-04
2.81500000e-01	1.83582155e-02	2.52037032e-04
2.82000000e-01	1.82744518e-02	2.49728073e-04
2.82500000e-01	1.83681760e-02	2.51655070e-04
2.83000000e-01	1.84662609e-02	2.52003965e-04
2.83500000e-01	1.82594261e-02	2.48544795e-04
2.84000000e-01	1.82005283e-02	2.48432876e-04
2.84500000e-01	1.81228132e-02	2.46844321e-04
2.85000000e-01	1.81128772e-02	2.46404343e-04
2.85500000e-01	1.79914392e-02	2.44533066e-04
2.86000000e-01	1.80713158e-02	2.46070161e-04
2.86500000e-01	1.80120066e-02	2.44717938e-04
2.87000000e-01	1.79944103e-02	2.44676314e-04
2.87500000e-01	1.79770131e-02	2.43109992e-04
2.88000000e-01	1.80423038e-02	2.43968741e-04
2.88500000e-01	1.81591300e-02	2.46140532e-04
2.89000000e-01	1.80199811e-02	2.43437564e-04
2.89500000e-01	1.79807859e-02	2.42965664e-04
2.90000000e-01	1.81431160e-02	2.44924803e-04
2.90500000e-01	1.80024144e-02	2.43439983e-04
2.91000000e-01	1.79178305e-02	2.41591999e-04
2.91500000e-01	1.80463231e-02	2.41851168e-04
2.92000000e-01	1.79102817e-02	2.40601038e-04
2.92500000e-01	1.80928037e-02	2.42372844e-04
2.93000000e-01	1.79625459e-02	2.41195448e-04
2.93500000e-01	1.79436143e-02	2.40298999e-04
2.94000000e-01	1.77907799e-02	2.38627190e-04
2.94500000e-01	1.77822744e-02	2.38984119e-04
2.95000000e-01	1.76549639e-02	2.36166722e-04
2.95500000e-01	1.78271035e-02	2.39039887e-04
2.96000000e-01	1.80105495e-02	2.39627949e-04
2.96500000e-01	1.79513984e-02	2.39787277e-04
2.97000000e-01	1.79591297e-02	2.39473894e-04
2.97500000e-01	1.78736863e-02	2.37982064e-04
2.98000000e-01	1.78174166e-02	2.37939320e-04
2.98500000e-01	1.78339662e-02	2.37382340e-04
2.99000000e-01	1.78246907e-02	2.36222785e-04
2.99500000e-01	1.78047271e-02	2.37282635e-04
3.00000000e-01	1.78598071e-02	2.36999963e-04
3.00500000e-01	1.77927040e-02	2.35145119e-04
3.01000000e-01	1.76206061e-02	2.33325373e-04
3.01500000e-01	1.78545373e-02	2.36610215e-04
3.02000000e-01	1.76216937e-02	2.33063469e-04
3.02500000e-01	1.77725501e-02	2.35053294e-04
3.03000000e-01	1.75353899e-02	2.32339050e-04
3.03500000e-01	1.76701388e-02	2.32999900e-04
3.04000000e-01	1.75616214e-02	2.32082067e-04
3.04500000e-01	1.75737051e-02	2.31540825e-04
3.05000000e-01	1.77165788e-02	2.33634496e-04
3.05500000e-01	1.75024379e-02	2.30461415e-04
3.06000000e-01	1.75183356e-02	2.29905658e-04
3.06500000e-01	1.76138717e-02	2.31395756e-04
3.07000000e-01	1.77537144e-02	2.32400622e-04
3.07500000e-01	1.77210367e-02	2.31906165e-04
3.08000000e-01	1.76704739e-02	2.30507708e-04
3.08500000e-01	1.76758810e-02	2.31255157e-04
3.09000000e-01	1.76342140e-02	2.31229027e-04
3.09500000e-01	1.73577459e-02	2.27591834e-04
3.10000000e-01	1.74247188e-02	2.28033995e-04
3.10500000e-01	1.73270606e-02	2.26642389e-04
3.11000000e-01	1.75079522e-02	2.27807011e-04
3.11500000e-01	1.74958805e-02	2.28497511e-04
3.12000000e-01	1.75016821e-02	2.28088361e-04
3.12500000e-01	1.75091233e-02	2.27546533e-04
3.13000000e-01	1.75201190e-02	2.27864371e-04
3.13500000e-01	1.75127379e-02	2.26888442e-04
3.14000000e-01	1.74072366e-02	2.25719125e-04
3.14500000e-01	1.75202350e-02	2.27704697e-04
3.15000000e-01	1.74287352e-02	2.25946078e-04
3.15500000e-01	1.73218804e-02	2.23976387e-04
3.16000000e-01	1.74107508e-02	2.25636514e-04
3.16500000e-01	1.74116496e-02	2.25800298e-04
3.17000000e-01	1.72170443e-02	2.23159027e-04
3.17500000e-01	1.76328224e-02	2.27560920e-04
3.18000000e-01	1.75352175e-02	2.25360000e-04
3.18500000e-01	1.72907011e-02	2.22926584e-04
3.19000000e-01	1.72579401e-02	2.22151808e-04
3.19500000e-01	1.72330483e-02	2.22412767e-04
3.20000000e-01	1.72390469e-02	2.22017938e-04
3.20500000e-01	1.74835768e-02	2.24742982e-04
3.21000000e-01	1.72939728e-02	2.22153112e-04
3.21500000e-01	1.73004883e-02	2.21492708e-04
3.22000000e-01	1.72730758e-02	2.21297393e-04
3.22500000e-01	1.72933944e-02	2.21652453e-04
3.23000000e-01	1.74067170e-02	2.23162000e-04
3.23500000e-01	1.71858710e-02	2.20526046e-04
3.24000000e-01	1.71443339e-02	2.18919884e-04
3.24500000e-01	1.70329371e-02	2.18614471e-04
3.25000000e-01	1.73263367e-02	2.21650894e-04
3.25500000e-01	1.71287939e-02	2.19041919e-04
3.26000000e-01	1.73518453e-02	2.21359806e-04
3.26500000e-01	1.72011420e-02	2.19068218e-04
3.27000000e-01	1.71525668e-02	2.18935101e-04
3.27500000e-01	1.70434110e-02	2.17418647e-04
3.28000000e-01	1.73012706e-02	2.19752764e-04
3.28500000e-01	1.71797490e-02	2.18312968e-04
3.29000000e-01	1.71091106e-02	2.17210688e-04
3.29500000e-01	1.71328797e-02	2.17494602e-04
3.30000000e-01	1.70799591e-02	2.16610138e-04
3.30500000e-01	1.70861511e-02	2.16563145e-04
3.31000000e-01	1.73320545e-02	2.18579160e-04
3.31500000e-01	1.71470190e-02	2.16832412e-04
3.32000000e-01	1.70105215e-02	2.14923823e-04
3.32500000e-01	1.71769662e-02	2.17001571e-04
3.33000000e-01	1.71950277e-02	2.16903655e-04
3.33500000e-01	1.72160895e-02	2.17104324e-04
3.34000000e-01	1.70263977e-02	2.14314824e-04
3.34500000e-01	1.70412516e-02	2.15120101e-04
3.35000000e-01	1.70710964e-02	2.14316548e-04
3.35500000e-01	1.68918254e-02	2.13033103e-04
3.36000000e-01	1.69198002e-02	2.12144610e-04
3.36500000e-01	1.68761136e-02	2.12444327e-04
3.37000000e-01	1.69177475e-02	2.11979987e-04
3.37500000e-01	1.69919439e-02	2.13115098e-04
3.38000000e-01	1.69801658e-02	2.14006361e-04
3.38500000e-01	1.70504505e-02	2.13645636e-04
3.39000000e-01	1.68474347e-02	2.11895911e-04
3.39500000e-01	1.67196732e-02	2.09025963e-04
3.40000000e-01	1.68062033e-02	2.10210597e-04
3.40500000e-01	1.68877813e-02	2.11131162e-04
3.41000000e-01	1.68522747e-02	2.10395191e-04
3.41500000e-01	1.67490710e-02	2.09716176e-04
3.42000000e-01	1.69347728e-02	2.10258174e-04
3.42500000e-01	1.68274896e-02	2.09880860e-04
3.43000000e-01	1.68020544e-02	2.09192068e-04
3.43500000e-01	1.67109185e-02	2.07136018e-04
3.44000000e-01	1.70640092e-02	2.12314337e-04
3.44500000e-01	1.67203912e-02	2.07020368e-04
3.45000000e-01	1.67661610e-02	2.09090417e-04
3.45500000e-01	1.67805121e-02	2.07605325e-04
3.46000000e-01	1.68533205e-02	2.09008850e-04
3.46500000e-01	1.69352301e-02	2.09038764e-04
3.47000000e-01	1.67812498e-02	2.08196016e-04
3.47500000e-01	1.70859977e-02	2.11168754e-04
3.48000000e-01	1.66782597e-02	2.06752373e-04
3.48500000e-01	1.68814362e-02	2.08627699e-04
3.49000000e-01	1.67422764e-02	2.06655362e-04
3.49500000e-01	1.65891776e-02	2.05718110e-04
3.50000000e-01	1.67965706e-02	1.69137710e-04
3.51000000e-01	1.66654848e-02	1.45139722e-04
3.52000000e-01	1.67319734e-02	1.45678390e-04
3.53000000e-01	1.66798372e-02	1.44618884e-04
3.54000000e-01	1.67047381e-02	1.44284194e-04
3.55000000e-01	1.66943171e-02	1.44461815e-04
3.56000000e-01	1.64667792e-02	1.43410800e-04
3.57000000e-01	1.66217264e-02	1.46915946e-04
3.58000000e-01	1.65338696e-02	1.47711277e-04
3.59000000e-01	1.66330199e-02	1.49713537e-04
3.60000000e-01	1.63853848e-02	1.48463646e-04
3.61000000e-01	1.64218946e-02	1.49039174e-04
3.62000000e-01	1.63687355e-02	1.49817363e-04
3.63000000e-01	1.64950350e-02	1.51002678e-04
3.64000000e-01	1.63202567e-02	1.49997299e-04
3.65000000e-01	1.65729162e-02	1.52817671e-04
3.66000000e-01	1.63999093e-02	1.49781971e-04
3.67000000e-01	1.65839869e-02	1.48932606e-04
3.68000000e-01	1.63329070e-02	1.45678002e-04
3.69000000e-01	1.64090484e-02	1.45866259e-04
3.70000000e-01	1.65033685e-02	1.45614282e-04
3.71000000e-01	1.63570276e-02	1.46815944e-04
3.72000000e-01	1.64238300e-02	1.48147917e-04
3.73000000e-01	1.65015598e-02	1.48958038e-04
3.74000000e-01	1.62997305e-02	1.47266566e-04
3.75000000e-01	1.62758001e-02	1.47405808e-04
3.76000000e-01	1.62722750e-02	1.47375072e-04
3.77000000e-01	1.63861570e-02	1.48581739e-04
3.78000000e-01	1.63053190e-02	1.47535981e-04
3.79000000e-01	1.62850293e-02	1.47200052e-04
3.80000000e-01	1.62029607e-02	1.46667231e-04
3.81000000e-01	1.61995819e-02	1.46309683e-04
3.82000000e-01	1.63653841e-02	1.47541751e-04
3.83000000e-01	1.63179898e-02	1.47520334e-04
3.84000000e-01	1.63780073e-02	1.47961582e-04
3.85000000e-01	1.63428684e-02	1.47763273e-04
3.86000000e-01	1.63601488e-02	1.47659523e-04
3.87000000e-01	1.64728755e-02	1.47824214e-04
3.88000000e-01	1.64448841e-02	1.48084142e-04
3.89000000e-01	1.64750656e-02	1.48270241e-04
3.90000000e-01	1.65611328e-02	1.48578623e-04
3.91000000e-01	1.63571660e-02	1.47083844e-04
3.92000000e-01	1.65720216e-02	1.48994334e-04
3.93000000e-01	1.64415072e-02	1.47862630e-04
3.94000000e-01	1.66588540e-02	1.49449046e-04
3.95000000e-01	1.64430391e-02	1.48097398e-04
3.96000000e-01	1.65535133e-02	1.48760373e-04
3.97000000e-01	1.64657939e-02	1.47898990e-04
3.98000000e-01	1.64404062e-02	1.47978074e-04
3.99000000e-01	1.62597426e-02	1.46059101e-04
4.00000000e-01	1.63234825e-02	1.46577674e-04
4.01000000e-01	1.61881080e-02	1.45407572e-04
4.02000000e-01	1.61355711e-02	1.44990571e-04
4.03000000e-01	1.60927533e-02	1.44555702e-04
4.04000000e-01	1.59848713e-02	1.44004548e-04
4.05000000e-01	1.60937730e-02	1.44535702e-04
4.06000000e-01	1.59950656e-02	1.43761704e-04
4.07000000e-01	1.60542650e-02	1.44101546e-04
4.08000000e-01	1.58608998e-02	1.42781458e-04
4.09000000e-01	1.59288453e-02	1.42987159e-04
4.10000000e-01	1.58941519e-02	1.42332606e-04
4.11000000e-01	1.58521185e-02	1.42255057e-04
4.12000000e-01	1.58275584e-02	1.42273025e-04
4.13000000e-01	1.59287191e-02	1.43190745e-04
4.14000000e-01	1.57396045e-02	1.41572366e-04
4.15000000e-01	1.57718098e-02	1.41680801e-04
4.16000000e-01	1.57191376e-02	1.41170987e-04
4.17000000e-01	1.58695530e-02	1.42334528e-04
4.18000000e-01	1.57497613e-02	1.42883985e-04
4.19000000e-01	1.58902052e-02	1.45816741e-04
4.20000000e-01	1.58128029e-02	1.45820901e-04
4.21000000e-01	1.56671609e-02	1.45060080e-04
4.22000000e-01	1.57440743e-02	1.46320039e-04
4.23000000e-01	1.57512674e-02	1.46881520e-04
4.24000000e-01	1.56877265e-02	1.46910387e-04
4.25000000e-01	1.58008503e-02	1.47786482e-04
4.26000000e-01	1.55637064e-02	1.45973950e-04
4.27000000e-01	1.55882598e-02	1.45883892e-04
4.28000000e-01	1.57011597e-02	1.47551145e-04
4.29000000e-01	1.55188216e-02	1.46127892e-04
4.30000000e-01	1.56366617e-02	1.46944280e-04
4.31000000e-01	1.57870342e-02	1.48135612e-04
4.32000000e-01	1.56490607e-02	1.47189703e-04
4.33000000e-01	1.56593452e-02	1.47311251e-04
4.34000000e-01	1.55690493e-02	1.46753196e-04
4.35000000e-01	1.55431236e-02	1.46635162e-04
4.36000000e-01	1.55934659e-02	1.47067161e-04
4.37000000e-01	1.55528598e-02	1.46674096e-04
4.38000000e-01	1.56166004e-02	1.48016823e-04
4.39000000e-01	1.55888408e-02	1.47628856e-04
4.40000000e-01	1.55489079e-02	1.47653117e-04
4.41000000e-01	1.54770762e-02	1.47359880e-04
4.42000000e-01	1.54809509e-02	1.47433166e-04
4.43000000e-01	1.54415150e-02	1.46991689e-04
4.44000000e-01	1.56193712e-02	1.48508562e-04
4.45000000e-01	1.55792454e-02	1.48425871e-04
4.46000000e-01	1.55409312e-02	1.48220968e-04
4.47000000e-01	1.55695500e-02	1.48950683e-04
4.48000000e-01	1.55061206e-02	1.48118970e-04
4.49000000e-01	1.54285427e-02	1.48422695e-04
4.50000000e-01	1.54332318e-02	1.48273852e-04
4.51000000e-01	1.54191600e-02	1.48402949e-04
4.52000000e-01	1.54154071e-02	1.48043573e-04
4.53000000e-01	1.53534953e-02	1.47779667e-04
4.54000000e-01	1.53414693e-02	1.47704714e-04
4.55000000e-01	1.54764757e-02	1.49385542e-04
4.56000000e-01	1.54512591e-02	1.48790745e-04
4.57000000e-01	1.53722229e-02	1.48342756e-04
4.58000000e-01	1.53348048e-02	1.48404289e-04
4.59000000e-01	1.52304876e-02	1.47697339e-04
4.60000000e-01	1.54604091e-02	1.50010783e-04
4.61000000e-01	1.53523039e-02	1.48825291e-04
4.62000000e-01	1.52523870e-02	1.48208465e-04
4.63000000e-01	1.53180770e-02	1.49184466e-04
4.64000000e-01	1.52974489e-02	1.48294257e-04
4.65000000e-01	1.52439853e-02	1.48541594e-04
4.66000000e-01	1.53326918e-02	1.48935079e-04
4.67000000e-01	1.53205972e-02	1.48787371e-04
4.68000000e-01	1.51981322e-02	1.47518710e-04
4.69000000e-01	1.52359298e-02	1.48745454e-04
4.70000000e-01	1.51714654e-02	1.48523336e-04
4.71000000e-01	1.53258582e-02	1.49477055e-04
4.72000000e-01	1.52058264e-02	1.48061419e-04
4.73000000e-01	1.51559601e-02	1.47469211e-04
4.74000000e-01	1.51985244e-02	1.47931982e-04
4.75000000e-01	1.50880254e-02	1.47217361e-04
4.76000000e-01	1.52979247e-02	1.48579148e-04
4.77000000e-01	1.51981124e-02	1.48059131e-04
4.78000000e-01	1.52537316e-02	1.48767306e-04
4.79000000e-01	1.52767184e-02	1.48547883e-04
4.80000000e-01	1.52052273e-02	1.48273451e-04
4.81000000e-01	1.50773252e-02	1.47248516e-04
4.82000000e-01	1.51278634e-02	1.47591960e-04
4.83000000e-01	1.52110895e-02	1.48717405e-04
4.84000000e-01	1.51145868e-02	1.48201652e-04
4.85000000e-01	1.52171496e-02	1.48687281e-04
4.86000000e-01	1.50038048e-02	1.47021337e-04
4.87000000e-01	1.50820870e-02	1.47693617e-04
4.88000000e-01	1.51750382e-02	1.48474379e-04
4.89000000e-01	1.50536651e-02	1.47866729e-04
4.90000000e-01	1.51922446e-02	1.49451393e-04
4.91000000e-01	1.50713627e-02	1.47941960e-04
4.92000000e-01	1.50609287e-02	1.48125394e-04
4.93000000e-01	1.51412092e-02	1.48793253e-04
4.94000000e-01	1.50892616e-02	1.48275585e-04
4.95000000e-01	1.49857198e-02	1.48640624e-04
4.96000000e-01	1.49904873e-02	1.52770998e-04
4.97000000e-01	1.49887937e-02	1.55638949e-04
4.98000000e-01	1.48521730e-02	1.56571650e-04
4.99000000e-01	1.50242198e-02	1.60451272e-04
5.00000000e-01	1.49706473e-02	1.61507901e-04
5.01000000e-01	1.50396322e-02	1.63169563e-04
5.02000000e-01	1.49783068e-02	1.64678091e-04
5.03000000e-01	1.50525478e-02	1.66994251e-04
5.04000000e-01	1.52977697e-02	1.70546032e-04
5.05000000e-01	1.49858520e-02	1.64728773e-04
5.06000000e-01	1.50589901e-02	1.61816075e-04
5.07000000e-01	1.52462037e-02	1.62851014e-04
5.08000000e-01	1.51461147e-02	1.60428571e-04
5.09000000e-01	1.50500789e-02	1.58656952e-04
5.10000000e-01	1.49545605e-02	1.56976137e-04
5.11000000e-01	1.50167382e-02	1.57325216e-04
5.12000000e-01	1.50422694e-02	1.57023012e-04
5.13000000e-01	1.49397262e-02	1.56601110e-04
5.14000000e-01	1.49377936e-02	1.55283940e-04
5.15000000e-01	1.48796125e-02	1.54701235e-04
5.16000000e-01	1.49713472e-02	1.55809255e-04
5.17000000e-01	1.48630013e-02	1.53771440e-04
5.18000000e-01	1.48583647e-02	1.53308885e-04
5.19000000e-01	1.49129287e-02	1.53369026e-04
5.20000000e-01	1.49388665e-02	1.53552635e-04
5.21000000e-01	1.49732153e-02	1.53765519e-04
5.22000000e-01	1.48594377e-02	1.52755857e-04
5.23000000e-01	1.48907101e-02	1.53449609e-04
5.24000000e-01	1.47892938e-02	1.52258018e-04
5.25000000e-01	1.48792063e-02	1.52081243e-04
5.26000000e-01	1.48892660e-02	1.52069518e-04
5.27000000e-01	1.49433172e-02	1.53310437e-04
5.28000000e-01	1.47616585e-02	1.51503917e-04
5.29000000e-01	1.47983534e-02	1.52106751e-04
5.30000000e-01	1.48695167e-02	1.52579116e-04
5.31000000e-01	1.47744841e-02	1.51627189e-04
5.32000000e-01	1.46896196e-02	1.50868577e-04
5.33000000e-01	1.48724526e-02	1.52579085e-04
5.34000000e-01	1.47711069e-02	1.51845762e-04
5.35000000e-01	1.46977531e-02	1.50854509e-04
5.36000000e-01	1.47090594e-02	1.50656916e-04
5.37000000e-01	1.47609082e-02	1.51198051e-04
5.38000000e-01	1.47385328e-02	1.51243079e-04
5.39000000e-01	1.48239162e-02	1.51804590e-04
5.40000000e-01	1.48142365e-02	1.52129695e-04
5.41000000e-01	1.48246375e-02	1.51649155e-04
5.42000000e-01	1.48230419e-02	1.51759489e-04
5.43000000e-01	1.48190760e-02	1.51729037e-04
5.44000000e-01	1.46977874e-02	1.50562204e-04
5.45000000e-01	1.47133134e-02	1.50929206e-04
5.46000000e-01	1.46462930e-02	1.50244085e-04
5.47000000e-01	1.47447449e-02	1.51617748e-04
5.48000000e-01	1.45518249e-02	1.49317730e-04
5.49000000e-01	1.45115808e-02	1.48753259e-04
5.50000000e-01	1.47226125e-02	1.50370173e-04
5.51000000e-01	1.45963603e-02	1.49182334e-04
5.52000000e-01	1.46181979e-02	1.49121807e-04
5.53000000e-01	1.46977151e-02	1.49877459e-04
5.54000000e-01	1.44770256e-02	1.47621333e-04
5.55000000e-01	1.45553320e-02	1.48165434e-04
5.56000000e-01	1.45103633e-02	1.47972366e-04
5.57000000e-01	1.45882341e-02	1.48761387e-04
5.58000000e-01	1.45564184e-02	1.47880034e-04
5.59000000e-01	1.45250142e-02	1.48005868e-04
5.60000000e-01	1.44448357e-02	1.47524520e-04
5.61000000e-01	1.44455461e-02	1.47104124e-04
5.62000000e-01	1.45077286e-02	1.48382064e-04
5.63000000e-01	1.44125799e-02	1.47243085e-04
5.64000000e-01	1.45568115e-02	1.48228512e-04
5.65000000e-01	1.44194448e-02	1.47068599e-04
5.66000000e-01	1.43040590e-02	1.46103431e-04
5.67000000e-01	1.44570430e-02	1.47462662e-04
5.68000000e-01	1.44480488e-02	1.47269076e-04
5.69000000e-01	1.45874486e-02	1.48560836e-04
5.70000000e-01	1.43341099e-02	1.46484256e-04
5.71000000e-01	1.44563417e-02	1.47478339e-04
5.72000000e-01	1.45629777e-02	1.48227219e-04
5.73000000e-01	1.43378390e-02	1.46419429e-04
5.74000000e-01	1.42538537e-02	1.45090404e-04
5.75000000e-01	1.45061940e-02	1.47997619e-04
5.76000000e-01	1.43769239e-02	1.47195906e-04
5.77000000e-01	1.42701907e-02	1.46111013e-04
5.78000000e-01	1.43523957e-02	1.47136604e-04
5.79000000e-01	1.43079611e-02	1.46288805e-04
5.80000000e-01	1.43532505e-02	1.46451228e-04
5.81000000e-01	1.44630126e-02	1.47534593e-04
5.82000000e-01	1.42796289e-02	1.46147394e-04
5.83000000e-01	1.43544933e-02	1.47096298e-04
5.84000000e-01	1.43820483e-02	1.46874975e-04
5.85000000e-01	1.43239408e-02	1.46519198e-04
5.86000000e-01	1.42964655e-02	1.46489786e-04
5.87000000e-01	1.42803754e-02	1.46024961e-04
5.88000000e-01	1.42523402e-02	1.46356886e-04
5.89000000e-01	1.42966255e-02	1.46520407e-04
5.90000000e-01	1.41731227e-02	1.45592991e-04
5.91000000e-01	1.42767136e-02	1.46242258e-04
5.92000000e-01	1.42599165e-02	1.46128668e-04
5.93000000e-01	1.43078341e-02	1.46563617e-04
5.94000000e-01	1.42542787e-02	1.45785598e-04
5.95000000e-01	1.42839267e-02	1.46455120e-04
5.96000000e-01	1.44317582e-02	1.47792345e-04
5.97000000e-01	1.41987184e-02	1.45634510e-04
5.98000000e-01	1.42123537e-02	1.45541861e-04
5.99000000e-01	1.40683926e-02	1.44284676e-04
6.00000000e-01	1.41144931e-02	1.44882984e-04
6.01000000e-01	1.41511222e-02	1.45093354e-04
6.02000000e-01	1.41209560e-02	1.45065660e-04
6.03000000e-01	1.42833491e-02	1.46663479e-04
6.04000000e-01	1.41776927e-02	1.45444160e-04
6.05000000e-01	1.41420563e-02	1.45276360e-04
6.06000000e-01	1.40544094e-02	1.44529647e-04
6.07000000e-01	1.40624172e-02	1.44483108e-04
6.08000000e-01	1.40814895e-02	1.44740063e-04
6.09000000e-01	1.41473397e-02	1.45137496e-04
6.10000000e-01	1.40565079e-02	1.44354940e-04
6.11000000e-01	1.42286335e-02	1.46422647e-04
6.12000000e-01	1.42542846e-02	1.46415172e-04
6.13000000e-01	1.40116598e-02	1.44084209e-04
6.14000000e-01	1.41768314e-02	1.45922131e-04
6.15000000e-01	1.40474956e-02	1.44828969e-04
6.16000000e-01	1.40956488e-02	1.45264147e-04
6.17000000e-01	1.41446435e-02	1.45370140e-04
6.18000000e-01	1.40287498e-02	1.44434020e-04
6.19000000e-01	1.41062878e-02	1.45171415e-04
6.20000000e-01	1.40834375e-02	1.44692414e-04
6.21000000e-01	1.41151998e-02	1.44729492e-04
6.22000000e-01	1.41298609e-02	1.44795154e-04
6.23000000e-01	1.39371435e-02	1.42453702e-04
6.24000000e-01	1.40278721e-02	1.42889304e-04
6.25000000e-01	1.39016668e-02	1.42480326e-04
6.26000000e-01	1.39868837e-02	1.42522265e-04
6.27000000e-01	1.41481184e-02	1.44554421e-04
6.28000000e-01	1.40346293e-02	1.43608539e-04
6.29000000e-01	1.39957849e-02	1.43275499e-04
6.30000000e-01	1.38971050e-02	1.42361369e-04
6.31000000e-01	1.39721456e-02	1.42654504e-04
6.32000000e-01	1.38579004e-02	1.41373444e-04
6.33000000e-01	1.40813392e-02	1.43631358e-04
6.34000000e-01	1.41204106e-02	1.47779107e-04
6.35000000e-01	1.40751072e-02	1.51882550e-04
6.36000000e-01	1.40856277e-02	1.54566692e-04
6.37000000e-01	1.40013185e-02	1.56290230e-04
6.38000000e-01	1.41725545e-02	1.60235504e-04
6.39000000e-01	1.39961903e-02	1.60383592e-04
6.40000000e-01	1.40528570e-02	1.62602128e-04
6.41000000e-01	1.40160609e-02	1.63625860e-04
6.42000000e-01	1.40162151e-02	1.66298922e-04
6.43000000e-01	1.40856252e-02	1.66219438e-04
6.44000000e-01	1.41761388e-02	1.61415392e-04
6.45000000e-01	1.39849330e-02	1.57216282e-04
6.46000000e-01	1.40508932e-02	1.56349120e-04
6.47000000e-01	1.40336343e-02	1.55253368e-04
6.48000000e-01	1.41057102e-02	1.54175331e-04
6.49000000e-01	1.40712044e-02	1.53572523e-04
6.50000000e-01	1.40916744e-02	1.52679730e-04
6.51000000e-01	1.41825284e-02	1.53413045e-04
6.52000000e-01	1.39912095e-02	1.50866169e-04
6.53000000e-01	1.39464074e-02	1.50043429e-04
6.54000000e-01	1.41903081e-02	1.52108032e-04
6.55000000e-01	1.40146145e-02	1.49545603e-04
6.56000000e-01	1.41012571e-02	1.50655251e-04
6.57000000e-01	1.40545907e-02	1.49713313e-04
6.58000000e-01	1.39894465e-02	1.48720499e-04
6.59000000e-01	1.39647849e-02	1.48853748e-04
6.60000000e-01	1.40268259e-02	1.48926226e-04
6.61000000e-01	1.40241016e-02	1.48653573e-04
6.62000000e-01	1.38284063e-02	1.47649777e-04
6.63000000e-01	1.40176582e-02	1.49245406e-04
6.64000000e-01	1.39163569e-02	1.47338224e-04
6.65000000e-01	1.40978730e-02	1.49823081e-04
6.66000000e-01	1.38520618e-02	1.46543535e-04
6.67000000e-01	1.38486251e-02	1.46933258e-04
6.68000000e-01	1.38884355e-02	1.47304516e-04
6.69000000e-01	1.40092657e-02	1.48125542e-04
6.70000000e-01	1.40136289e-02	1.48339739e-04
6.71000000e-01	1.39543575e-02	1.47550090e-04
6.72000000e-01	1.38603030e-02	1.47151281e-04
6.73000000e-01	1.39703708e-02	1.47612197e-04
6.74000000e-01	1.39464525e-02	1.47531623e-04
6.75000000e-01	1.39262944e-02	1.46794983e-04
6.76000000e-01	1.38257999e-02	1.46419818e-04
6.77000000e-01	1.39312515e-02	1.47481110e-04
6.78000000e-01	1.37621914e-02	1.45952660e-04
6.79000000e-01	1.38058503e-02	1.46036605e-04
6.80000000e-01	1.38603547e-02	1.46505731e-04
6.81000000e-01	1.37915791e-02	1.45936037e-04
6.82000000e-01	1.37686626e-02	1.45599242e-04
6.83000000e-01	1.38138522e-02	1.46249452e-04
6.84000000e-01	1.38684321e-02	1.46494905e-04
6.85000000e-01	1.36941369e-02	1.44396428e-04
6.86000000e-01	1.38481076e-02	1.46015608e-04
6.87000000e-01	1.37761924e-02	1.45349343e-04
6.88000000e-01	1.37370376e-02	1.45347281e-04
6.89000000e-01	1.37789987e-02	1.45141204e-04
6.90000000e-01	1.37967740e-02	1.45737650e-04
6.91000000e-01	1.37922184e-02	1.45604177e-04
6.92000000e-01	1.37235165e-02	1.44931098e-04
6.93000000e-01	1.38195354e-02	1.46005581e-04
6.94000000e-01	1.37282536e-02	1.44455965e-04
6.95000000e-01	1.38175061e-02	1.45456773e-04
6.96000000e-01	1.35989155e-02	1.43839815e-04
6.97000000e-01	1.35399316e-02	1.42702159e-04
6.98000000e-01	1.37355740e-02	1.44767980e-04
6.99000000e-01	1.36467826e-02	1.43736415e-04
7.00000000e-01	1.36406530e-02	1.43830869e-04
7.01000000e-01	1.36692120e-02	1.43985196e-04
7.02000000e-01	1.36344704e-02	1.43814167e-04
7.03000000e-01	1.34762521e-02	1.41948612e-04
7.04000000e-01	1.36632863e-02	1.43915911e-04
7.05000000e-01	1.36312997e-02	1.43426843e-04
7.06000000e-01	1.37696718e-02	1.44826143e-04
7.07000000e-01	1.35199530e-02	1.42577242e-04
7.08000000e-01	1.35311138e-02	1.42102218e-04
7.09000000e-01	1.35298543e-02	1.41907054e-04
7.10000000e-01	1.36119903e-02	1.42800363e-04
7.11000000e-01	1.35337305e-02	1.42231101e-04
7.12000000e-01	1.34008191e-02	1.41109474e-04
7.13000000e-01	1.33209019e-02	1.40506410e-04
7.14000000e-01	1.33866943e-02	1.41290476e-04
7.15000000e-01	1.33703404e-02	1.41163195e-04
7.16000000e-01	1.33760665e-02	1.41133154e-04
7.17000000e-01	1.35986599e-02	1.42858348e-04
7.18000000e-01	1.34222767e-02	1.41346459e-04
7.19000000e-01	1.32868200e-02	1.40413091e-04
7.20000000e-01	1.34510341e-02	1.41449742e-04
7.21000000e-01	1.32543724e-02	1.39760034e-04
7.22000000e-01	1.33195748e-02	1.40157161e-04
7.23000000e-01	1.33855414e-02	1.41423471e-04
7.24000000e-01	1.33973415e-02	1.40850052e-04
7.25000000e-01	1.33252780e-02	1.40186619e-04
7.26000000e-01	1.33762860e-02	1.40879281e-04
7.27000000e-01	1.32223303e-02	1.39592900e-04
7.28000000e-01	1.33835768e-02	1.40812168e-04
7.29000000e-01	1.31836109e-02	1.39408823e-04
7.30000000e-01	1.32167864e-02	1.39634533e-04
7.31000000e-01	1.32505480e-02	1.39589954e-04
7.32000000e-01	1.32137207e-02	1.39609094e-04
7.33000000e-01	1.31451065e-02	1.39155556e-04
7.34000000e-01	1.31824294e-02	1.38467232e-04
7.35000000e-01	1.33300282e-02	1.40085519e-04
7.36000000e-01	1.31749306e-02	1.38279682e-04
7.37000000e-01	1.32734943e-02	1.39102160e-04
7.38000000e-01	1.32152067e-02	1.38479942e-04
7.39000000e-01	1.30985119e-02	1.37260607e-04
7.40000000e-01	1.31538833e-02	1.37874977e-04
7.41000000e-01	1.31664248e-02	1.37401276e-04
7.42000000e-01	1.31218117e-02	1.36792523e-04
7.43000000e-01	1.31458439e-02	1.37342099e-04
7.44000000e-01	1.30858106e-02	1.36534695e-04
7.45000000e-01	1.31864653e-02	1.37755083e-04
7.46000000e-01	1.30138379e-02	1.35875835e-04
7.47000000e-01	1.31189807e-02	1.36883059e-04
7.48000000e-01	1.29233325e-02	1.35351221e-04
7.49000000e-01	1.31889190e-02	1.37784841e-04
7.50000000e-01	1.30920456e-02	1.37122508e-04
7.51000000e-01	1.31468911e-02	1.37277713e-04
7.52000000e-01	1.29579752e-02	1.35796150e-04
7.53000000e-01	1.30844449e-02	1.36320777e-04
7.54000000e-01	1.29908475e-02	1.35631310e-04
7.55000000e-01	1.30078152e-02	1.35683678e-04
7.56000000e-01	1.29644917e-02	1.35567941e-04
7.57000000e-01	1.28966287e-02	1.34858274e-04
7.58000000e-01	1.29488896e-02	1.35205288e-04
7.59000000e-01	1.29379259e-02	1.35156903e-04
7.60000000e-01	1.28779088e-02	1.35116529e-04
7.61000000e-01	1.28376925e-02	1.33931762e-04
7.62000000e-01	1.29960857e-02	1.35669076e-04
7.63000000e-01	1.28455523e-02	1.33366539e-04
7.64000000e-01	1.28554872e-02	1.33334969e-04
7.65000000e-01	1.29037100e-02	1.33719934e-04
7.66000000e-01	1.28704196e-02	1.33291275e-04
7.67000000e-01	1.28473472e-02	1.32835912e-04
7.68000000e-01	1.28303781e-02	1.33098092e-04
7.69000000e-01	1.27832673e-02	1.32644167e-04
7.70000000e-01	1.29066698e-02	1.33510907e-04
7.71000000e-01	1.28585703e-02	1.33345832e-04
7.72000000e-01	1.27683475e-02	1.36726199e-04
7.73000000e-01	1.26683324e-02	1.39983547e-04
7.74000000e-01	1.26109168e-02	1.42170445e-04
7.75000000e-01	1.28048213e-02	1.46705729e-04
7.76000000e-01	1.27267272e-02	1.47961995e-04
7.77000000e-01	1.27186915e-02	1.49528882e-04
7.78000000e-01	1.27667174e-02	1.53119849e-04
7.79000000e-01	1.25841190e-02	1.52469213e-04
7.80000000e-01	1.25205995e-02	1.52995241e-04
7.81000000e-01	1.25183344e-02	1.54844842e-04
7.82000000e-01	1.27783921e-02	1.59440536e-04
7.83000000e-01	1.26783888e-02	1.60523881e-04
7.84000000e-01	1.26164249e-02	1.61443617e-04
7.85000000e-01	1.26765805e-02	1.63527985e-04
7.86000000e-01	1.24502828e-02	1.63128785e-04
7.87000000e-01	1.27212263e-02	1.67432183e-04
7.88000000e-01	1.24166051e-02	1.64915821e-04
7.89000000e-01	1.24881571e-02	1.68313479e-04
7.90000000e-01	1.25144877e-02	1.70129681e-04
7.91000000e-01	1.25863374e-02	1.72707770e-04
7.92000000e-01	1.24477810e-02	1.73518811e-04
7.93000000e-01	1.25474176e-02	1.75854415e-04
7.94000000e-01	1.24815843e-02	1.77088999e-04
7.95000000e-01	1.23316249e-02	1.76284342e-04
7.96000000e-01	1.23378850e-02	1.79114225e-04
7.97000000e-01	1.23828282e-02	1.81348928e-04
7.98000000e-01	1.22630165e-02	1.81323213e-04
7.99000000e-01	1.25828974e-02	1.87396192e-04
8.00000000e-01	1.24057979e-02	1.85970802e-04
8.01000000e-01	1.23533958e-02	1.88018402e-04
8.02000000e-01	1.23824251e-02	1.89747258e-04
8.03000000e-01	1.21837268e-02	1.89787193e-04
8.04000000e-01	1.22212910e-02	1.92872270e-04
8.05000000e-01	1.23581015e-02	1.95343105e-04
8.06000000e-01	1.22228007e-02	1.96494506e-04
8.07000000e-01	1.22611167e-02	1.98631627e-04
8.08000000e-01	1.23241155e-02	2.01842829e-04
8.09000000e-01	1.21228004e-02	2.01478733e-04
8.10000000e-01	1.23311406e-02	2.07920967e-04
8.11000000e-01	1.23081790e-02	2.08015608e-04
8.12000000e-01	1.22761214e-02	2.10600680e-04
8.13000000e-01	1.21221968e-02	2.10624028e-04
8.14000000e-01	1.21617007e-02	2.13429618e-04
8.15000000e-01	1.22806692e-02	2.17063783e-04
8.16000000e-01	1.22293022e-02	2.21046742e-04
8.17000000e-01	1.21395091e-02	2.21622400e-04
8.18000000e-01	1.22154502e-02	2.23678557e-04
8.19000000e-01	1.22029174e-02	2.27718581e-04
8.20000000e-01	1.21122923e-02	2.28826195e-04
8.21000000e-01	1.17654606e-02	2.27006770e-04
8.22000000e-01	1.21160997e-02	2.35373873e-04
8.23000000e-01	1.19637461e-02	2.35929101e-04
8.24000000e-01	1.21485692e-02	2.41902952e-04
8.25000000e-01	1.19964202e-02	2.42143738e-04
8.26000000e-01	1.22604433e-02	2.51396011e-04
8.27000000e-01	1.23072675e-02	2.57817675e-04
8.28000000e-01	1.28930954e-02	2.88252890e-04
8.29000000e-01	1.20847344e-02	2.60830457e-04
8.30000000e-01	1.17901084e-02	2.56112606e-04
8.31000000e-01	1.16712149e-02	2.62278671e-04
8.32000000e-01	1.20546158e-02	2.71514260e-04
8.33000000e-01	1.18196156e-02	2.71284860e-04
8.34000000e-01	1.18592746e-02	2.76434758e-04
8.35000000e-01	1.17508044e-02	2.81123932e-04
8.36000000e-01	1.17311439e-02	2.84004464e-04
8.37000000e-01	1.15340922e-02	2.85737318e-04
8.38000000e-01	1.17614004e-02	2.97154061e-04
8.39000000e-01	1.16900574e-02	3.04682347e-04
8.40000000e-01	1.16299121e-02	3.06200196e-04
8.41000000e-01	1.14525113e-02	3.09371320e-04
8.42000000e-01	1.16473759e-02	3.18852971e-04
8.43000000e-01	1.17333809e-02	3.29635742e-04
8.44000000e-01	1.18056768e-02	3.42183617e-04
8.45000000e-01	1.16977838e-02	3.48222901e-04
8.46000000e-01	1.16211313e-02	3.57872903e-04
8.47000000e-01	1.10047200e-02	3.45315212e-04
8.48000000e-01	1.16316036e-02	3.77925087e-04
8.49000000e-01	1.15161084e-02	3.80704110e-04
8.50000000e-01	1.13138012e-02	3.92063965e-04
8.51000000e-01	1.12643954e-02	4.03166390e-04
8.52000000e-01	1.10611863e-02	4.22052205e-04
8.53000000e-01	1.07956389e-02	4.19917277e-04
8.54000000e-01	1.09567578e-02	4.50411148e-04
8.55000000e-01	1.11213206e-02	4.75314143e-04
8.56000000e-01	1.11029544e-02	4.76027538e-04
8.57000000e-01	1.13287460e-02	5.02898138e-04
8.58000000e-01	1.14341105e-02	5.23625544e-04
8.59000000e-01	1.14095384e-02	5.33174140e-04
8.60000000e-01	1.15577086e-02	5.54451395e-04
8.61000000e-01	1.15336839e-02	5.73477328e-04
8.62000000e-01	1.05755669e-02	5.62805425e-04
8.63000000e-01	1.09398333e-02	5.96167116e-04
8.64000000e-01	1.12467351e-02	6.40670090e-04
8.65000000e-01	1.10556493e-02	6.49717443e-04
8.66000000e-01	1.05792769e-02	6.76391070e-04
8.67000000e-01	1.06716301e-02	7.12048001e-04
8.68000000e-01	1.08393171e-02	7.81434905e-04
8.69000000e-01	1.19109472e-02	8.84455778e-04
8.70000000e-01	1.06333837e-02	8.71649977e-04
8.71000000e-01	1.12744999e-02	1.04539267e-03
8.72000000e-01	1.21059105e-02	1.21713020e-03
8.73000000e-01	1.04924007e-02	1.28800171e-03
8.74000000e-01	1.07919675e-02	1.79116885e-03
8.75000000e-01	1.19284802e-02	3.95071589e-03
