% Filename : SblackSupport_00016_00001.h5
% Date & Time : 30-Oct-2025 16:17:18
% X-ray Energy (keV) : 13.30001
% Exposure Time (s) : 0.100
% Beam Center : 1461.24000, 208.98300
% Sample to Detector Distance (SDD) (mm) : 1990.750
% Detector Pixel Size (mm) : 0.075
% Photodiode Value : 25348.000
% I0 of Sample : 0
% I0 of Standard : 1
% 
% q(A^-1)   I(q)    I(q)_SE
0.00000000e+00	7.12752966e-03	7.12752966e-03
2.50000000e-04	0.00000000e+00	0.00000000e+00
5.00000000e-04	0.00000000e+00	0.00000000e+00
7.50000000e-04	0.00000000e+00	0.00000000e+00
1.00000000e-03	0.00000000e+00	0.00000000e+00
1.25000000e-03	0.00000000e+00	0.00000000e+00
1.50000000e-03	0.00000000e+00	0.00000000e+00
1.75000000e-03	0.00000000e+00	0.00000000e+00
2.00000000e-03	0.00000000e+00	0.00000000e+00
2.25000000e-03	0.00000000e+00	0.00000000e+00
2.50000000e-03	0.00000000e+00	0.00000000e+00
2.75000000e-03	0.00000000e+00	0.00000000e+00
3.00000000e-03	0.00000000e+00	0.00000000e+00
3.25000000e-03	9.42762075e+03	6.67259019e+03
3.50000000e-03	0.00000000e+00	0.00000000e+00
3.75000000e-03	9.58281547e+03	4.79175846e+03
4.00000000e-03	8.66719056e+03	1.47199009e+03
4.25000000e-03	7.15385443e+03	8.92262930e+02
4.50000000e-03	6.17212237e+03	6.83400759e+02
4.75000000e-03	5.28128709e+03	5.33042784e+02
5.00000000e-03	4.36375182e+03	4.19631565e+02
5.25000000e-03	3.75614751e+03	3.57602442e+02
5.50000000e-03	3.22119668e+03	2.96083076e+02
5.75000000e-03	2.79527865e+03	2.52382613e+02
6.00000000e-03	2.40371519e+03	2.08744817e+02
6.25000000e-03	2.11142353e+03	1.81940717e+02
6.50000000e-03	1.86704097e+03	1.56832762e+02
6.75000000e-03	1.65064920e+03	1.36734709e+02
7.00000000e-03	1.47426854e+03	1.19317685e+02
7.25000000e-03	1.31289869e+03	1.03575014e+02
7.50000000e-03	1.15971138e+03	9.13860719e+01
7.75000000e-03	1.04896920e+03	8.06929295e+01
8.00000000e-03	9.40064726e+02	7.14923194e+01
8.25000000e-03	8.45683966e+02	6.20290564e+01
8.50000000e-03	7.59535845e+02	5.48219971e+01
8.75000000e-03	6.90920602e+02	4.96224271e+01
9.00000000e-03	6.23346737e+02	4.42049635e+01
9.25000000e-03	5.66715095e+02	3.92301409e+01
9.50000000e-03	5.12308389e+02	3.47912228e+01
9.75000000e-03	4.64246385e+02	3.13822664e+01
1.00000000e-02	4.22974606e+02	2.81627854e+01
1.02500000e-02	3.89179769e+02	2.60131899e+01
1.05000000e-02	3.58139184e+02	2.30403197e+01
1.07500000e-02	3.24726872e+02	2.08473192e+01
1.10000000e-02	2.97066999e+02	1.86566294e+01
1.12500000e-02	2.73923256e+02	1.75505147e+01
1.15000000e-02	2.50209518e+02	1.56195893e+01
1.17500000e-02	2.30091936e+02	1.40157063e+01
1.20000000e-02	2.13675089e+02	1.30133746e+01
1.22500000e-02	1.96159403e+02	1.17108206e+01
1.25000000e-02	1.82492988e+02	1.08956023e+01
1.27500000e-02	1.69058264e+02	9.95460295e+00
1.30000000e-02	1.56015617e+02	9.08153773e+00
1.32500000e-02	1.45126136e+02	8.25137547e+00
1.35000000e-02	1.33711241e+02	7.61771971e+00
1.37500000e-02	1.24178445e+02	7.06008664e+00
1.40000000e-02	1.16593543e+02	6.53204442e+00
1.42500000e-02	1.08608777e+02	5.98398526e+00
1.45000000e-02	1.01128443e+02	5.54739942e+00
1.47500000e-02	9.43748838e+01	5.15542793e+00
1.50000000e-02	8.91725796e+01	4.83479636e+00
1.52500000e-02	8.36795803e+01	4.48414043e+00
1.55000000e-02	7.79192115e+01	4.11734509e+00
1.57500000e-02	7.26166590e+01	3.82795351e+00
1.60000000e-02	6.89450181e+01	3.57135003e+00
1.62500000e-02	6.45271158e+01	3.38227092e+00
1.65000000e-02	6.13817133e+01	3.14406734e+00
1.67500000e-02	5.76859113e+01	2.91622887e+00
1.70000000e-02	5.44619704e+01	2.74779158e+00
1.72500000e-02	5.13718596e+01	2.57922475e+00
1.75000000e-02	4.89611372e+01	2.45106484e+00
1.77500000e-02	4.61000079e+01	2.26054651e+00
1.80000000e-02	4.34776736e+01	2.14272670e+00
1.82500000e-02	4.14801456e+01	1.98511780e+00
1.85000000e-02	3.91971885e+01	1.92772208e+00
1.87500000e-02	3.74599819e+01	1.79898105e+00
1.90000000e-02	3.56037795e+01	1.70192086e+00
1.92500000e-02	3.38799908e+01	1.59452885e+00
1.95000000e-02	3.23875698e+01	1.51700601e+00
1.97500000e-02	3.06578275e+01	1.44432103e+00
2.00000000e-02	2.92681398e+01	1.36082297e+00
2.02500000e-02	2.80005875e+01	1.29627257e+00
2.05000000e-02	2.67767667e+01	1.21414213e+00
2.07500000e-02	2.54748242e+01	1.15549488e+00
2.10000000e-02	2.43794838e+01	1.11388322e+00
2.12500000e-02	2.32227787e+01	1.06396618e+00
2.15000000e-02	2.24028546e+01	1.01811500e+00
2.17500000e-02	2.13093761e+01	9.76099728e-01
2.20000000e-02	2.03817094e+01	9.38878780e-01
2.22500000e-02	1.95380864e+01	8.94298765e-01
2.25000000e-02	1.86785757e+01	8.63232602e-01
2.27500000e-02	1.79769462e+01	8.18017043e-01
2.30000000e-02	1.73528490e+01	7.99550291e-01
2.32500000e-02	1.64568495e+01	7.50191757e-01
2.35000000e-02	1.58783210e+01	7.33105783e-01
2.37500000e-02	1.52586002e+01	6.98447914e-01
2.40000000e-02	1.46565539e+01	6.73735122e-01
2.42500000e-02	1.40447067e+01	6.40955315e-01
2.45000000e-02	1.34957992e+01	6.18137519e-01
2.47500000e-02	1.31082563e+01	5.93544704e-01
2.50000000e-02	1.25733349e+01	5.70462126e-01
2.52500000e-02	1.21075640e+01	5.53785665e-01
2.55000000e-02	1.16376938e+01	5.20538435e-01
2.57500000e-02	1.11876067e+01	5.03498717e-01
2.60000000e-02	1.08942976e+01	4.86723085e-01
2.62500000e-02	1.04510575e+01	4.73653246e-01
2.65000000e-02	1.00929752e+01	4.51258832e-01
2.67500000e-02	9.74173590e+00	4.32931566e-01
2.70000000e-02	9.32764145e+00	4.17291872e-01
2.72500000e-02	9.06656487e+00	4.00289495e-01
2.75000000e-02	8.69749570e+00	3.91196332e-01
2.77500000e-02	8.39803108e+00	3.76608609e-01
2.80000000e-02	8.08565803e+00	3.53892926e-01
2.82500000e-02	7.86646684e+00	3.44465045e-01
2.85000000e-02	7.61907897e+00	3.34719642e-01
2.87500000e-02	7.34136902e+00	3.24172354e-01
2.90000000e-02	7.12282325e+00	3.14495205e-01
2.92500000e-02	6.91528609e+00	2.96293774e-01
2.95000000e-02	6.66115240e+00	2.91918001e-01
2.97500000e-02	6.41442229e+00	2.77941434e-01
3.00000000e-02	6.20330192e+00	2.70579988e-01
3.02500000e-02	6.03891499e+00	2.62887535e-01
3.05000000e-02	5.83588904e+00	2.48394969e-01
3.07500000e-02	5.68700079e+00	2.45145325e-01
3.10000000e-02	5.50236755e+00	2.36700914e-01
3.12500000e-02	5.27935656e+00	2.29267853e-01
3.15000000e-02	5.13657933e+00	2.20180362e-01
3.17500000e-02	4.98226709e+00	2.09912401e-01
3.20000000e-02	4.83740438e+00	2.06760407e-01
3.22500000e-02	4.71159551e+00	2.01033439e-01
3.25000000e-02	4.59508663e+00	1.96576215e-01
3.27500000e-02	4.44137169e+00	1.87635415e-01
3.30000000e-02	4.31789322e+00	1.81337882e-01
3.32500000e-02	4.19734828e+00	1.75718321e-01
3.35000000e-02	4.10271901e+00	1.74194936e-01
3.37500000e-02	3.97039983e+00	1.66369416e-01
3.40000000e-02	3.86447912e+00	1.62084993e-01
3.42500000e-02	3.75384596e+00	1.55716982e-01
3.45000000e-02	3.60960126e+00	1.50965097e-01
3.47500000e-02	3.55310734e+00	1.47716526e-01
3.50000000e-02	3.44194924e+00	1.42812738e-01
3.52500000e-02	3.33601538e+00	1.38667818e-01
3.55000000e-02	3.24862256e+00	1.32677799e-01
3.57500000e-02	3.15983155e+00	1.30728273e-01
3.60000000e-02	3.07549367e+00	1.26810698e-01
3.62500000e-02	3.00087094e+00	1.24037079e-01
3.65000000e-02	2.91168106e+00	1.19563053e-01
3.67500000e-02	2.85420725e+00	1.16508792e-01
3.70000000e-02	2.74564577e+00	1.11913341e-01
3.72500000e-02	2.67107131e+00	1.08678676e-01
3.75000000e-02	2.61650001e+00	1.06820731e-01
3.77500000e-02	2.54666589e+00	1.03180747e-01
3.80000000e-02	2.46495265e+00	9.96066293e-02
3.82500000e-02	2.41038068e+00	9.66211039e-02
3.85000000e-02	2.35964497e+00	9.55742914e-02
3.87500000e-02	2.29792422e+00	9.18935900e-02
3.90000000e-02	2.23114167e+00	9.00611604e-02
3.92500000e-02	2.18234444e+00	8.67150924e-02
3.95000000e-02	2.12442558e+00	8.49186440e-02
3.97500000e-02	2.10344136e+00	8.39889476e-02
4.00000000e-02	2.05232288e+00	8.16726112e-02
4.02500000e-02	2.00850338e+00	7.98254451e-02
4.05000000e-02	1.97698654e+00	7.79054426e-02
4.07500000e-02	1.91745946e+00	7.52199085e-02
4.10000000e-02	1.86484720e+00	7.38783456e-02
4.12500000e-02	1.81856486e+00	7.15988594e-02
4.15000000e-02	1.79348416e+00	6.99613260e-02
4.17500000e-02	1.73482719e+00	6.78993455e-02
4.20000000e-02	1.70007789e+00	6.60559295e-02
4.22500000e-02	1.66418724e+00	6.46147599e-02
4.25000000e-02	1.61604362e+00	6.28695509e-02
4.27500000e-02	1.60890794e+00	6.22918533e-02
4.30000000e-02	1.55877399e+00	6.03431634e-02
4.32500000e-02	1.53216987e+00	5.89761029e-02
4.35000000e-02	1.50455151e+00	5.84407852e-02
4.37500000e-02	1.46906638e+00	5.61289518e-02
4.40000000e-02	1.43212079e+00	5.51978830e-02
4.42500000e-02	1.41055923e+00	5.41040615e-02
4.45000000e-02	1.36653420e+00	5.20655917e-02
4.47500000e-02	1.34466881e+00	5.11464609e-02
4.50000000e-02	1.31116600e+00	5.01133455e-02
4.52500000e-02	1.28369428e+00	4.86739024e-02
4.55000000e-02	1.28712231e+00	4.87123963e-02
4.57500000e-02	1.24689752e+00	4.70435067e-02
4.60000000e-02	1.22353156e+00	4.62964315e-02
4.62500000e-02	1.19670136e+00	4.51885463e-02
4.65000000e-02	1.16758920e+00	4.37961629e-02
4.67500000e-02	1.15180692e+00	4.29917454e-02
4.70000000e-02	1.12180194e+00	4.18932222e-02
4.72500000e-02	1.11218633e+00	4.16340969e-02
4.75000000e-02	1.09256371e+00	4.10914393e-02
4.77500000e-02	1.06655725e+00	3.95509093e-02
4.80000000e-02	1.04575178e+00	3.88361186e-02
4.82500000e-02	1.03575002e+00	3.83732645e-02
4.85000000e-02	1.01535294e+00	3.79919435e-02
4.87500000e-02	9.91594431e-01	3.67875743e-02
4.90000000e-02	9.67561919e-01	3.55163842e-02
4.92500000e-02	9.56589148e-01	3.51500589e-02
4.95000000e-02	9.37030437e-01	3.45196935e-02
4.97500000e-02	9.21497244e-01	3.40574687e-02
5.00000000e-02	9.06933235e-01	3.33035623e-02
5.02500000e-02	8.84005577e-01	3.21373858e-02
5.05000000e-02	8.60471333e-01	3.13484839e-02
5.07500000e-02	8.66884307e-01	3.16641543e-02
5.10000000e-02	8.45611845e-01	3.08042698e-02
5.12500000e-02	8.16608101e-01	2.98953075e-02
5.15000000e-02	8.04280413e-01	2.89890021e-02
5.17500000e-02	8.04179703e-01	2.92912337e-02
5.20000000e-02	7.81399706e-01	2.82505822e-02
5.22500000e-02	7.81510017e-01	2.83909658e-02
5.25000000e-02	7.63759670e-01	2.74458458e-02
5.27500000e-02	7.46004920e-01	2.67453361e-02
5.30000000e-02	7.31550966e-01	2.63994001e-02
5.32500000e-02	7.28201889e-01	2.61779817e-02
5.35000000e-02	7.09838064e-01	2.54923791e-02
5.37500000e-02	7.05654438e-01	2.51143778e-02
5.40000000e-02	6.87306043e-01	2.45751874e-02
5.42500000e-02	6.74708531e-01	2.39823308e-02
5.45000000e-02	6.68395981e-01	2.38119372e-02
5.47500000e-02	6.60331062e-01	2.34392423e-02
5.50000000e-02	6.47205561e-01	2.29745972e-02
5.52500000e-02	6.35132410e-01	2.24630513e-02
5.55000000e-02	6.24907810e-01	2.20704257e-02
5.57500000e-02	6.13290891e-01	2.18211437e-02
5.60000000e-02	6.20077033e-01	2.18106766e-02
5.62500000e-02	5.95121069e-01	2.10565145e-02
5.65000000e-02	5.98389482e-01	2.09793827e-02
5.67500000e-02	5.86123589e-01	2.06381587e-02
5.70000000e-02	5.72639142e-01	2.00119449e-02
5.72500000e-02	5.71692537e-01	2.00438139e-02
5.75000000e-02	5.62138730e-01	1.97217423e-02
5.77500000e-02	5.45988791e-01	1.89089148e-02
5.80000000e-02	5.49109436e-01	1.91770950e-02
5.82500000e-02	5.35384717e-01	1.85895595e-02
5.85000000e-02	5.18814172e-01	1.80706230e-02
5.87500000e-02	5.18332472e-01	1.79445206e-02
5.90000000e-02	5.04985361e-01	1.75038247e-02
5.92500000e-02	5.04599475e-01	1.74402468e-02
5.95000000e-02	5.06532674e-01	1.74103792e-02
5.97500000e-02	4.93964322e-01	1.71446215e-02
6.00000000e-02	4.89910700e-01	1.68743011e-02
6.02500000e-02	4.84379562e-01	1.66655622e-02
6.05000000e-02	4.73405728e-01	1.62625114e-02
6.07500000e-02	4.67527360e-01	1.60840096e-02
6.10000000e-02	4.55095947e-01	1.56039916e-02
6.12500000e-02	4.55895039e-01	1.56353304e-02
6.15000000e-02	4.47485921e-01	1.53024024e-02
6.17500000e-02	4.44170257e-01	1.51284988e-02
6.20000000e-02	4.32802709e-01	1.47935336e-02
6.22500000e-02	4.32177450e-01	1.47463614e-02
6.25000000e-02	4.26386208e-01	1.45007811e-02
6.27500000e-02	4.21345545e-01	1.42281258e-02
6.30000000e-02	4.10872205e-01	1.39073761e-02
6.32500000e-02	4.09859605e-01	1.39010697e-02
6.35000000e-02	4.02620839e-01	1.36640331e-02
6.37500000e-02	3.96869829e-01	1.34313811e-02
6.40000000e-02	3.93234647e-01	1.32992230e-02
6.42500000e-02	3.86685414e-01	1.29754651e-02
6.45000000e-02	3.86299163e-01	1.29558338e-02
6.47500000e-02	3.77278936e-01	1.27039058e-02
6.50000000e-02	3.73971300e-01	1.25737059e-02
6.52500000e-02	3.74001143e-01	1.25332752e-02
6.55000000e-02	3.66265181e-01	1.22382011e-02
6.57500000e-02	3.63144282e-01	1.21361661e-02
6.60000000e-02	3.52847111e-01	1.17794281e-02
6.62500000e-02	3.46969226e-01	1.16419471e-02
6.65000000e-02	3.49769844e-01	1.16146103e-02
6.67500000e-02	3.46965882e-01	1.15040046e-02
6.70000000e-02	3.38389720e-01	1.13075912e-02
6.72500000e-02	3.36174221e-01	1.12083806e-02
6.75000000e-02	3.35995766e-01	1.10829876e-02
6.77500000e-02	3.27010617e-01	1.07893482e-02
6.80000000e-02	3.25169888e-01	1.08319058e-02
6.82500000e-02	3.22080855e-01	1.06717492e-02
6.85000000e-02	3.19424857e-01	1.06230965e-02
6.87500000e-02	3.12881391e-01	1.03509522e-02
6.90000000e-02	3.11408382e-01	1.02664759e-02
6.92500000e-02	3.07911071e-01	1.01543894e-02
6.95000000e-02	3.06210314e-01	1.00925189e-02
6.97500000e-02	3.02267904e-01	9.95434370e-03
7.00000000e-02	2.93433454e-01	9.64527404e-03
7.02500000e-02	2.96095166e-01	9.69042624e-03
7.05000000e-02	2.86651323e-01	9.36883592e-03
7.07500000e-02	2.86760708e-01	9.41848134e-03
7.10000000e-02	2.78991382e-01	9.09673785e-03
7.12500000e-02	2.80015315e-01	9.13778993e-03
7.15000000e-02	2.77117703e-01	9.01597899e-03
7.17500000e-02	2.75348731e-01	8.97077379e-03
7.20000000e-02	2.74291293e-01	8.98375779e-03
7.22500000e-02	2.68012692e-01	8.72498834e-03
7.25000000e-02	2.66269699e-01	8.67877692e-03
7.27500000e-02	2.66900211e-01	8.71341018e-03
7.30000000e-02	2.62948682e-01	8.53988213e-03
7.32500000e-02	2.56954036e-01	8.31953364e-03
7.35000000e-02	2.62494067e-01	8.48649298e-03
7.37500000e-02	2.60151096e-01	8.35513002e-03
7.40000000e-02	2.53043145e-01	8.15709783e-03
7.42500000e-02	2.54299085e-01	8.22939706e-03
7.45000000e-02	2.44708499e-01	7.90345435e-03
7.47500000e-02	2.44126620e-01	7.84518880e-03
7.50000000e-02	2.38911969e-01	7.68937346e-03
7.52500000e-02	2.38115034e-01	7.65986762e-03
7.55000000e-02	2.41334855e-01	7.71835734e-03
7.57500000e-02	2.34999426e-01	7.54244144e-03
7.60000000e-02	2.34579700e-01	7.53785959e-03
7.62500000e-02	2.30283995e-01	7.40104498e-03
7.65000000e-02	2.26087948e-01	7.26263710e-03
7.67500000e-02	2.26548325e-01	7.26434310e-03
7.70000000e-02	2.28815454e-01	7.28560751e-03
7.72500000e-02	2.22951763e-01	7.21943993e-03
7.75000000e-02	2.17651470e-01	7.16727773e-03
7.77500000e-02	2.17086293e-01	7.15043588e-03
7.80000000e-02	2.16866443e-01	7.19645071e-03
7.82500000e-02	2.13110937e-01	7.12673835e-03
7.85000000e-02	2.10578406e-01	7.08983076e-03
7.87500000e-02	2.13313406e-01	7.14068248e-03
7.90000000e-02	2.11123421e-01	7.18655122e-03
7.92500000e-02	2.10640199e-01	7.17950865e-03
7.95000000e-02	2.02573167e-01	6.87526799e-03
7.97500000e-02	2.06275609e-01	7.09472580e-03
8.00000000e-02	2.01166129e-01	6.87600609e-03
8.02500000e-02	1.98389845e-01	6.79544361e-03
8.05000000e-02	1.98456248e-01	6.80196765e-03
8.07500000e-02	1.93119363e-01	6.71769767e-03
8.10000000e-02	2.00005100e-01	6.91185371e-03
8.12500000e-02	1.89711870e-01	6.59437956e-03
8.15000000e-02	1.92611796e-01	6.63120402e-03
8.17500000e-02	1.92369956e-01	6.74407529e-03
8.20000000e-02	1.87496512e-01	6.54334012e-03
8.22500000e-02	1.89561992e-01	6.62584906e-03
8.25000000e-02	1.84808952e-01	6.48528944e-03
8.27500000e-02	1.83018004e-01	6.39606155e-03
8.30000000e-02	1.82200321e-01	6.40930940e-03
8.32500000e-02	1.76983271e-01	6.28192660e-03
8.35000000e-02	1.78354558e-01	6.34059796e-03
8.37500000e-02	1.81549810e-01	6.40077374e-03
8.40000000e-02	1.78390539e-01	6.32521442e-03
8.42500000e-02	1.75663491e-01	6.24278134e-03
8.45000000e-02	1.71908515e-01	6.10788611e-03
8.47500000e-02	1.72656331e-01	6.14971529e-03
8.50000000e-02	1.73392232e-01	6.12719417e-03
8.52500000e-02	1.68955901e-01	6.07211131e-03
8.55000000e-02	1.68776858e-01	6.03976069e-03
8.57500000e-02	1.67484316e-01	5.97025488e-03
8.60000000e-02	1.67700843e-01	6.00410198e-03
8.62500000e-02	1.65168617e-01	5.94183390e-03
8.65000000e-02	1.65562922e-01	5.94172169e-03
8.67500000e-02	1.63769408e-01	5.87936240e-03
8.70000000e-02	1.60885916e-01	5.67083917e-03
8.72500000e-02	1.55810720e-01	5.39904093e-03
8.75000000e-02	1.57535734e-01	5.39456360e-03
8.77500000e-02	1.53475308e-01	5.24031691e-03
8.80000000e-02	1.54208117e-01	5.29126300e-03
8.82500000e-02	1.59079683e-01	5.40232499e-03
8.85000000e-02	1.55158739e-01	5.29195075e-03
8.87500000e-02	1.50997772e-01	5.04809345e-03
8.90000000e-02	1.52872622e-01	5.12808101e-03
8.92500000e-02	1.50365018e-01	4.99812126e-03
8.95000000e-02	1.47576652e-01	4.90830765e-03
8.97500000e-02	1.47321806e-01	4.88273452e-03
9.00000000e-02	1.48910744e-01	4.89735861e-03
9.02500000e-02	1.46387159e-01	4.85195745e-03
9.05000000e-02	1.43505328e-01	4.77440157e-03
9.07500000e-02	1.45620535e-01	4.80608057e-03
9.10000000e-02	1.48808145e-01	4.86401060e-03
9.12500000e-02	1.43213795e-01	4.71307006e-03
9.15000000e-02	1.45489234e-01	4.76577053e-03
9.17500000e-02	1.45317778e-01	4.75670273e-03
9.20000000e-02	1.38295410e-01	4.56988683e-03
9.22500000e-02	1.42950917e-01	4.67287198e-03
9.25000000e-02	1.38794562e-01	4.52085813e-03
9.27500000e-02	1.36983282e-01	4.46273969e-03
9.30000000e-02	1.33824657e-01	4.34720662e-03
9.32500000e-02	1.36447522e-01	4.43738711e-03
9.35000000e-02	1.36778547e-01	4.41447257e-03
9.37500000e-02	1.30282181e-01	4.20467872e-03
9.40000000e-02	1.34265319e-01	4.32813130e-03
9.42500000e-02	1.34595949e-01	4.32089088e-03
9.45000000e-02	1.33635655e-01	4.30906464e-03
9.47500000e-02	1.30255141e-01	4.17880146e-03
9.50000000e-02	1.29693892e-01	4.16696659e-03
9.52500000e-02	1.29239809e-01	4.15075634e-03
9.55000000e-02	1.30542947e-01	4.14443731e-03
9.57500000e-02	1.27703803e-01	4.08546850e-03
9.60000000e-02	1.27914659e-01	4.07729596e-03
9.62500000e-02	1.26645120e-01	4.02524986e-03
9.65000000e-02	1.25739625e-01	3.99703478e-03
9.67500000e-02	1.24175771e-01	3.94606267e-03
9.70000000e-02	1.22809119e-01	3.92952397e-03
9.72500000e-02	1.22272385e-01	3.88545118e-03
9.75000000e-02	1.21475411e-01	3.88508091e-03
9.77500000e-02	1.19929180e-01	3.77906375e-03
9.80000000e-02	1.23179901e-01	3.89013979e-03
9.82500000e-02	1.19198434e-01	3.77350826e-03
9.85000000e-02	1.18964039e-01	3.74832562e-03
9.87500000e-02	1.17287568e-01	3.70921401e-03
9.90000000e-02	1.14836910e-01	3.62147205e-03
9.92500000e-02	1.11575362e-01	3.53454128e-03
9.95000000e-02	1.17861921e-01	3.68146095e-03
9.97500000e-02	1.14764257e-01	3.61634226e-03
1.00000000e-01	1.15270770e-01	2.95289230e-03
1.00500000e-01	1.12091992e-01	2.48615384e-03
1.01000000e-01	1.10717006e-01	2.44980961e-03
1.01500000e-01	1.11174386e-01	2.46394853e-03
1.02000000e-01	1.08783688e-01	2.38339427e-03
1.02500000e-01	1.09041306e-01	2.38606469e-03
1.03000000e-01	1.07549591e-01	2.36813624e-03
1.03500000e-01	1.05541763e-01	2.31438667e-03
1.04000000e-01	1.03938859e-01	2.27907296e-03
1.04500000e-01	1.04513383e-01	2.28840209e-03
1.05000000e-01	1.02589289e-01	2.23299236e-03
1.05500000e-01	1.02513055e-01	2.23099503e-03
1.06000000e-01	1.01265124e-01	2.19551896e-03
1.06500000e-01	1.00232994e-01	2.17002579e-03
1.07000000e-01	9.77736764e-02	2.16900108e-03
1.07500000e-01	9.61311963e-02	2.16122815e-03
1.08000000e-01	9.65140538e-02	2.18201787e-03
1.08500000e-01	9.36588192e-02	2.13948767e-03
1.09000000e-01	9.47065141e-02	2.16762471e-03
1.09500000e-01	9.41189618e-02	2.18128853e-03
1.10000000e-01	9.16602034e-02	2.09999051e-03
1.10500000e-01	9.19886309e-02	2.05621639e-03
1.11000000e-01	9.15967588e-02	2.02699164e-03
1.11500000e-01	9.05905352e-02	2.00821896e-03
1.12000000e-01	9.11690165e-02	1.99072324e-03
1.12500000e-01	8.96747093e-02	1.94210293e-03
1.13000000e-01	8.86546034e-02	1.93004248e-03
1.13500000e-01	8.72007335e-02	1.89165446e-03
1.14000000e-01	8.79949896e-02	1.89687441e-03
1.14500000e-01	8.56684438e-02	1.84831894e-03
1.15000000e-01	8.54573746e-02	1.84196711e-03
1.15500000e-01	8.28034747e-02	1.78137803e-03
1.16000000e-01	8.41703450e-02	1.79648338e-03
1.16500000e-01	8.35180091e-02	1.78387454e-03
1.17000000e-01	8.29374574e-02	1.76304457e-03
1.17500000e-01	8.29698942e-02	1.77111330e-03
1.18000000e-01	8.05122326e-02	1.71480430e-03
1.18500000e-01	8.02470575e-02	1.70554541e-03
1.19000000e-01	7.89882396e-02	1.68435164e-03
1.19500000e-01	7.96223224e-02	1.68022566e-03
1.20000000e-01	7.82308259e-02	1.65542092e-03
1.20500000e-01	8.05461565e-02	1.69495166e-03
1.21000000e-01	7.68956891e-02	1.63331470e-03
1.21500000e-01	7.76380048e-02	1.63778657e-03
1.22000000e-01	7.83757205e-02	1.64229735e-03
1.22500000e-01	7.72416979e-02	1.63002962e-03
1.23000000e-01	7.87665124e-02	1.64911584e-03
1.23500000e-01	7.90493545e-02	1.65641156e-03
1.24000000e-01	7.93271005e-02	1.66321333e-03
1.24500000e-01	7.89267730e-02	1.65287479e-03
1.25000000e-01	7.98426818e-02	1.64968205e-03
1.25500000e-01	7.87569814e-02	1.63871363e-03
1.26000000e-01	7.59247900e-02	1.57087334e-03
1.26500000e-01	7.79786835e-02	1.60834443e-03
1.27000000e-01	7.68019481e-02	1.59486109e-03
1.27500000e-01	7.47673362e-02	1.53933305e-03
1.28000000e-01	7.31490342e-02	1.52159647e-03
1.28500000e-01	7.48854565e-02	1.54296436e-03
1.29000000e-01	7.38279283e-02	1.52249928e-03
1.29500000e-01	7.41753160e-02	1.52369169e-03
1.30000000e-01	7.34103654e-02	1.51065718e-03
1.30500000e-01	7.26630577e-02	1.48317965e-03
1.31000000e-01	7.36705234e-02	1.50491278e-03
1.31500000e-01	7.17026187e-02	1.46906480e-03
1.32000000e-01	7.14795948e-02	1.46323076e-03
1.32500000e-01	7.25950485e-02	1.48205968e-03
1.33000000e-01	7.16383499e-02	1.45230447e-03
1.33500000e-01	7.12423390e-02	1.44413628e-03
1.34000000e-01	7.05075066e-02	1.43211620e-03
1.34500000e-01	7.10455200e-02	1.43316658e-03
1.35000000e-01	6.97666093e-02	1.40835705e-03
1.35500000e-01	6.95337343e-02	1.41418077e-03
1.36000000e-01	6.89302701e-02	1.39161022e-03
1.36500000e-01	6.94462210e-02	1.39920035e-03
1.37000000e-01	6.84888922e-02	1.37356790e-03
1.37500000e-01	6.92423428e-02	1.37866874e-03
1.38000000e-01	6.72122745e-02	1.35310349e-03
1.38500000e-01	6.71692747e-02	1.34637408e-03
1.39000000e-01	6.52933850e-02	1.31919579e-03
1.39500000e-01	6.47062910e-02	1.31025001e-03
1.40000000e-01	6.35636589e-02	1.28695906e-03
1.40500000e-01	6.29932162e-02	1.26418635e-03
1.41000000e-01	6.23387908e-02	1.25511545e-03
1.41500000e-01	6.13813375e-02	1.23598425e-03
1.42000000e-01	6.05013999e-02	1.22081011e-03
1.42500000e-01	5.93410075e-02	1.20096963e-03
1.43000000e-01	5.77712981e-02	1.16684492e-03
1.43500000e-01	5.84505865e-02	1.18465103e-03
1.44000000e-01	5.76290509e-02	1.16844108e-03
1.44500000e-01	5.78139239e-02	1.15564994e-03
1.45000000e-01	5.70797957e-02	1.15113584e-03
1.45500000e-01	5.80059285e-02	1.14914606e-03
1.46000000e-01	5.69146993e-02	1.13816944e-03
1.46500000e-01	5.55543087e-02	1.12747432e-03
1.47000000e-01	5.63631016e-02	1.12869156e-03
1.47500000e-01	5.50643415e-02	1.10047756e-03
1.48000000e-01	5.58085957e-02	1.11151254e-03
1.48500000e-01	5.39133902e-02	1.09363768e-03
1.49000000e-01	5.35630791e-02	1.07794984e-03
1.49500000e-01	5.44329280e-02	1.08491442e-03
1.50000000e-01	5.38481441e-02	1.07156903e-03
1.50500000e-01	5.47346161e-02	1.08757576e-03
1.51000000e-01	5.39503160e-02	1.07319100e-03
1.51500000e-01	5.23247506e-02	1.05019057e-03
1.52000000e-01	5.27760442e-02	1.04264393e-03
1.52500000e-01	5.20699103e-02	1.04190435e-03
1.53000000e-01	5.11985396e-02	1.01501861e-03
1.53500000e-01	5.22018328e-02	1.03148620e-03
1.54000000e-01	5.19560749e-02	1.01978860e-03
1.54500000e-01	5.27878984e-02	1.06430109e-03
1.55000000e-01	5.15097703e-02	1.05131078e-03
1.55500000e-01	5.20921494e-02	1.06777667e-03
1.56000000e-01	5.08185732e-02	1.05187521e-03
1.56500000e-01	5.07743390e-02	1.05320773e-03
1.57000000e-01	5.04891088e-02	1.05696883e-03
1.57500000e-01	5.06652096e-02	1.03324144e-03
1.58000000e-01	4.96972514e-02	1.00502452e-03
1.58500000e-01	4.98059363e-02	9.95237992e-04
1.59000000e-01	5.03476168e-02	1.00393031e-03
1.59500000e-01	4.85739444e-02	9.76196043e-04
1.60000000e-01	4.94244199e-02	9.89731796e-04
1.60500000e-01	4.90551868e-02	9.68559148e-04
1.61000000e-01	4.85634185e-02	9.78189843e-04
1.61500000e-01	4.84593249e-02	9.62144732e-04
1.62000000e-01	4.79807358e-02	9.48915833e-04
1.62500000e-01	4.82552497e-02	9.53680417e-04
1.63000000e-01	4.70390140e-02	9.29077550e-04
1.63500000e-01	4.71533620e-02	9.32704001e-04
1.64000000e-01	4.60058969e-02	9.12351352e-04
1.64500000e-01	4.79006577e-02	9.41584059e-04
1.65000000e-01	4.86816686e-02	9.53876867e-04
1.65500000e-01	4.71545749e-02	9.22693555e-04
1.66000000e-01	4.65159330e-02	9.08938091e-04
1.66500000e-01	4.71467918e-02	9.22308556e-04
1.67000000e-01	4.64953297e-02	9.14683926e-04
1.67500000e-01	4.54709119e-02	8.98267354e-04
1.68000000e-01	4.49799852e-02	8.87048541e-04
1.68500000e-01	4.49203942e-02	8.84072295e-04
1.69000000e-01	4.49522224e-02	8.76587121e-04
1.69500000e-01	4.44105473e-02	8.63732781e-04
1.70000000e-01	4.46156661e-02	8.64095516e-04
1.70500000e-01	4.45540488e-02	8.72402133e-04
1.71000000e-01	4.43036172e-02	8.66698279e-04
1.71500000e-01	4.44343656e-02	8.73211959e-04
1.72000000e-01	4.43420420e-02	8.61896258e-04
1.72500000e-01	4.33518754e-02	8.48598708e-04
1.73000000e-01	4.33724822e-02	8.50472189e-04
1.73500000e-01	4.33577003e-02	8.35886719e-04
1.74000000e-01	4.30354652e-02	8.39367434e-04
1.74500000e-01	4.39619825e-02	8.43522981e-04
1.75000000e-01	4.43532061e-02	8.50881499e-04
1.75500000e-01	4.25008770e-02	8.16986068e-04
1.76000000e-01	4.28613385e-02	8.25642074e-04
1.76500000e-01	4.22841638e-02	8.11120795e-04
1.77000000e-01	4.20782152e-02	8.14117584e-04
1.77500000e-01	4.27528401e-02	8.16250456e-04
1.78000000e-01	4.29873837e-02	8.21068677e-04
1.78500000e-01	4.21405067e-02	8.11344295e-04
1.79000000e-01	4.21920694e-02	8.10701494e-04
1.79500000e-01	4.19261605e-02	8.08703223e-04
1.80000000e-01	4.20725762e-02	8.16395584e-04
1.80500000e-01	4.15519356e-02	7.99587697e-04
1.81000000e-01	4.11207200e-02	7.90221208e-04
1.81500000e-01	4.18878628e-02	8.02306052e-04
1.82000000e-01	4.11951749e-02	7.95137265e-04
1.82500000e-01	4.06831912e-02	7.81662709e-04
1.83000000e-01	3.98348190e-02	7.67852892e-04
1.83500000e-01	4.06677778e-02	7.77365764e-04
1.84000000e-01	4.03351794e-02	7.73138341e-04
1.84500000e-01	4.01606094e-02	7.69770556e-04
1.85000000e-01	4.07377090e-02	7.76174337e-04
1.85500000e-01	4.06124982e-02	7.76991664e-04
1.86000000e-01	3.97791036e-02	7.60491674e-04
1.86500000e-01	3.97664829e-02	7.59266224e-04
1.87000000e-01	3.95955952e-02	7.55158610e-04
1.87500000e-01	3.99888080e-02	7.61939941e-04
1.88000000e-01	3.92502926e-02	7.50057674e-04
1.88500000e-01	3.98330357e-02	7.58302145e-04
1.89000000e-01	4.02532997e-02	7.58233951e-04
1.89500000e-01	3.88144660e-02	7.44528821e-04
1.90000000e-01	3.96399507e-02	7.51294700e-04
1.90500000e-01	3.93835219e-02	7.53556855e-04
1.91000000e-01	3.91893899e-02	7.45946589e-04
1.91500000e-01	3.86205189e-02	7.31947474e-04
1.92000000e-01	4.00271502e-02	7.49704730e-04
1.92500000e-01	3.82085648e-02	7.25957523e-04
1.93000000e-01	3.81740912e-02	7.21939320e-04
1.93500000e-01	3.89335800e-02	7.31548074e-04
1.94000000e-01	3.75464214e-02	7.13171517e-04
1.94500000e-01	3.86445256e-02	7.23406287e-04
1.95000000e-01	3.71734494e-02	7.00986242e-04
1.95500000e-01	3.80917244e-02	7.12624896e-04
1.96000000e-01	3.79850102e-02	7.18031391e-04
1.96500000e-01	3.79811861e-02	7.12513461e-04
1.97000000e-01	3.72338566e-02	7.02573595e-04
1.97500000e-01	3.73577340e-02	7.01984380e-04
1.98000000e-01	3.67741257e-02	6.94884616e-04
1.98500000e-01	3.76869545e-02	7.01345623e-04
1.99000000e-01	3.68675102e-02	6.95378348e-04
1.99500000e-01	3.69063868e-02	6.91741400e-04
2.00000000e-01	3.66316130e-02	6.95112878e-04
2.00500000e-01	3.72763409e-02	7.02264547e-04
2.01000000e-01	3.67514988e-02	6.88669797e-04
2.01500000e-01	3.63897328e-02	6.81156361e-04
2.02000000e-01	3.65854027e-02	6.83765542e-04
2.02500000e-01	3.59749865e-02	6.75659957e-04
2.03000000e-01	3.69219645e-02	6.89729560e-04
2.03500000e-01	3.58675352e-02	6.66348488e-04
2.04000000e-01	3.52037835e-02	6.59736464e-04
2.04500000e-01	3.57843042e-02	6.66589852e-04
2.05000000e-01	3.55688126e-02	6.61870481e-04
2.05500000e-01	3.52717577e-02	6.56305435e-04
2.06000000e-01	3.58096889e-02	6.65510230e-04
2.06500000e-01	3.62131202e-02	6.69724222e-04
2.07000000e-01	3.57855474e-02	6.66502279e-04
2.07500000e-01	3.51428413e-02	6.51757545e-04
2.08000000e-01	3.59283498e-02	6.67472499e-04
2.08500000e-01	3.53498796e-02	6.53306328e-04
2.09000000e-01	3.53395297e-02	6.56770909e-04
2.09500000e-01	3.53901356e-02	6.55619485e-04
2.10000000e-01	3.48342619e-02	6.51434909e-04
2.10500000e-01	3.47535316e-02	6.44222462e-04
2.11000000e-01	3.54930512e-02	6.55775429e-04
2.11500000e-01	3.36816107e-02	6.28935211e-04
2.12000000e-01	3.48963747e-02	6.46481316e-04
2.12500000e-01	3.52770808e-02	6.43614222e-04
2.13000000e-01	3.41504111e-02	6.27841426e-04
2.13500000e-01	3.40594008e-02	6.32214238e-04
2.14000000e-01	3.38995477e-02	6.29171120e-04
2.14500000e-01	3.40452119e-02	6.24423162e-04
2.15000000e-01	3.34531040e-02	6.22103216e-04
2.15500000e-01	3.37126032e-02	6.18392112e-04
2.16000000e-01	3.32930735e-02	6.09011883e-04
2.16500000e-01	3.27349185e-02	6.00866448e-04
2.17000000e-01	3.26069415e-02	6.09718508e-04
2.17500000e-01	3.31070080e-02	6.29631659e-04
2.18000000e-01	3.30351779e-02	6.28376178e-04
2.18500000e-01	3.33054639e-02	6.39672230e-04
2.19000000e-01	3.29670564e-02	6.36137948e-04
2.19500000e-01	3.22263711e-02	6.29465041e-04
2.20000000e-01	3.34781695e-02	6.47101756e-04
2.20500000e-01	3.23511626e-02	6.32961893e-04
2.21000000e-01	3.29257124e-02	6.42644624e-04
2.21500000e-01	3.27247465e-02	6.46232164e-04
2.22000000e-01	3.20532627e-02	6.34859176e-04
2.22500000e-01	3.24279442e-02	6.37336012e-04
2.23000000e-01	3.28353670e-02	6.46792704e-04
2.23500000e-01	3.17650966e-02	6.31186663e-04
2.24000000e-01	3.16502911e-02	6.35755538e-04
2.24500000e-01	3.19293461e-02	6.31730479e-04
2.25000000e-01	3.26578685e-02	6.54978649e-04
2.25500000e-01	3.16910674e-02	6.30529940e-04
2.26000000e-01	3.07438018e-02	6.25274531e-04
2.26500000e-01	3.23465684e-02	6.34679181e-04
2.27000000e-01	3.23510113e-02	6.29890773e-04
2.27500000e-01	3.15894413e-02	6.08560420e-04
2.28000000e-01	3.19742756e-02	6.22080927e-04
2.28500000e-01	3.11212527e-02	5.99026509e-04
2.29000000e-01	3.15191815e-02	6.03011458e-04
2.29500000e-01	3.10626043e-02	5.97938063e-04
2.30000000e-01	3.16255412e-02	6.02697591e-04
2.30500000e-01	3.12728478e-02	5.92606360e-04
2.31000000e-01	3.13899908e-02	5.92454969e-04
2.31500000e-01	3.02756744e-02	5.81566223e-04
2.32000000e-01	3.07932892e-02	5.88632786e-04
2.32500000e-01	3.13279260e-02	5.86114126e-04
2.33000000e-01	3.07657881e-02	5.75053426e-04
2.33500000e-01	3.04442207e-02	5.78059853e-04
2.34000000e-01	3.05651252e-02	5.75761742e-04
2.34500000e-01	3.05316461e-02	5.73087272e-04
2.35000000e-01	3.09861649e-02	5.83428402e-04
2.35500000e-01	3.03299608e-02	5.69301616e-04
2.36000000e-01	3.02609489e-02	5.69758949e-04
2.36500000e-01	3.10600683e-02	5.82521379e-04
2.37000000e-01	3.05684611e-02	5.75565699e-04
2.37500000e-01	2.98724612e-02	5.61280796e-04
2.38000000e-01	2.97042255e-02	5.54672530e-04
2.38500000e-01	3.03610205e-02	5.68523944e-04
2.39000000e-01	3.00146078e-02	5.59091332e-04
2.39500000e-01	2.99541699e-02	5.58315472e-04
2.40000000e-01	3.05565818e-02	5.58655719e-04
2.40500000e-01	3.04609671e-02	5.59906715e-04
2.41000000e-01	3.01777820e-02	5.60260218e-04
2.41500000e-01	2.95431234e-02	5.45715558e-04
2.42000000e-01	2.99604747e-02	5.55566033e-04
2.42500000e-01	2.96271951e-02	5.45213317e-04
2.43000000e-01	3.06537027e-02	5.60309270e-04
2.43500000e-01	2.94048185e-02	5.44397072e-04
2.44000000e-01	2.92850020e-02	5.38125373e-04
2.44500000e-01	2.92419854e-02	5.38700328e-04
2.45000000e-01	2.94003619e-02	5.39870474e-04
2.45500000e-01	2.97679909e-02	5.43984793e-04
2.46000000e-01	2.94448582e-02	5.39218608e-04
2.46500000e-01	2.98300029e-02	5.40538751e-04
2.47000000e-01	2.95158535e-02	5.40163557e-04
2.47500000e-01	2.94017779e-02	5.32073392e-04
2.48000000e-01	2.92839782e-02	5.34100600e-04
2.48500000e-01	2.89037761e-02	5.28206247e-04
2.49000000e-01	2.92841876e-02	5.34828989e-04
2.49500000e-01	2.95871180e-02	5.42291100e-04
2.50000000e-01	2.97395857e-02	5.38546823e-04
2.50500000e-01	3.01843606e-02	5.46002294e-04
2.51000000e-01	3.01608031e-02	5.36495575e-04
2.51500000e-01	2.95226709e-02	5.37267234e-04
2.52000000e-01	2.87768677e-02	5.23574018e-04
2.52500000e-01	2.95602786e-02	5.37485546e-04
2.53000000e-01	2.97600695e-02	5.32520692e-04
2.53500000e-01	2.92444900e-02	5.25519922e-04
2.54000000e-01	2.94102820e-02	5.27648357e-04
2.54500000e-01	2.92394423e-02	5.28960676e-04
2.55000000e-01	2.89060057e-02	5.23008143e-04
2.55500000e-01	2.93624485e-02	5.26312317e-04
2.56000000e-01	2.91135409e-02	5.19121630e-04
2.56500000e-01	2.92807126e-02	5.26209981e-04
2.57000000e-01	2.92278552e-02	5.20990448e-04
2.57500000e-01	2.84728826e-02	5.11490407e-04
2.58000000e-01	2.92145014e-02	5.17536015e-04
2.58500000e-01	2.93394769e-02	5.23255172e-04
2.59000000e-01	2.92217245e-02	5.19955836e-04
2.59500000e-01	2.84862609e-02	5.07841427e-04
2.60000000e-01	2.81987550e-02	5.07704206e-04
2.60500000e-01	2.91937750e-02	5.17988059e-04
2.61000000e-01	2.86255174e-02	5.05440397e-04
2.61500000e-01	2.84351862e-02	5.08083797e-04
2.62000000e-01	2.90266596e-02	5.11919489e-04
2.62500000e-01	2.90971140e-02	5.14691733e-04
2.63000000e-01	2.87728841e-02	5.11473066e-04
2.63500000e-01	2.95256239e-02	5.18517379e-04
2.64000000e-01	2.88591228e-02	5.08804469e-04
2.64500000e-01	2.84666053e-02	5.05594062e-04
2.65000000e-01	2.85812671e-02	5.03948867e-04
2.65500000e-01	2.77633513e-02	4.91290922e-04
2.66000000e-01	2.80088239e-02	4.98213746e-04
2.66500000e-01	2.84442813e-02	5.03921946e-04
2.67000000e-01	2.84218642e-02	5.01575353e-04
2.67500000e-01	2.88388393e-02	5.01623418e-04
2.68000000e-01	2.82374984e-02	4.99679962e-04
2.68500000e-01	2.78483533e-02	4.88288192e-04
2.69000000e-01	2.85362791e-02	5.04747744e-04
2.69500000e-01	2.79562452e-02	4.90647171e-04
2.70000000e-01	2.84707251e-02	4.97415107e-04
2.70500000e-01	2.83405454e-02	4.93023648e-04
2.71000000e-01	2.78710733e-02	4.88957905e-04
2.71500000e-01	2.84218423e-02	4.97932949e-04
2.72000000e-01	2.80241755e-02	4.86120955e-04
2.72500000e-01	2.74463456e-02	4.80165606e-04
2.73000000e-01	2.82068068e-02	4.88653603e-04
2.73500000e-01	2.76527387e-02	4.81932321e-04
2.74000000e-01	2.80919582e-02	4.92883230e-04
2.74500000e-01	2.77045489e-02	4.83371909e-04
2.75000000e-01	2.77425469e-02	4.84801222e-04
2.75500000e-01	2.81723133e-02	4.92540888e-04
2.76000000e-01	2.75086793e-02	4.78507298e-04
2.76500000e-01	2.74078221e-02	4.81089610e-04
2.77000000e-01	2.79740959e-02	4.88018062e-04
2.77500000e-01	2.74685800e-02	4.78179566e-04
2.78000000e-01	2.70380496e-02	4.72266671e-04
2.78500000e-01	2.77663560e-02	4.82914109e-04
2.79000000e-01	2.75555867e-02	4.77136083e-04
2.79500000e-01	2.73748436e-02	4.70340085e-04
2.80000000e-01	2.69771211e-02	4.67360381e-04
2.80500000e-01	2.78797228e-02	4.78713627e-04
2.81000000e-01	2.70299092e-02	4.71348341e-04
2.81500000e-01	2.75679234e-02	4.74258005e-04
2.82000000e-01	2.70022687e-02	4.69688597e-04
2.82500000e-01	2.63713433e-02	4.60818388e-04
2.83000000e-01	2.73872582e-02	4.71646261e-04
2.83500000e-01	2.74488967e-02	4.73063478e-04
2.84000000e-01	2.68632434e-02	4.63388868e-04
2.84500000e-01	2.67888005e-02	4.61244059e-04
2.85000000e-01	2.68829233e-02	4.60581536e-04
2.85500000e-01	2.65386082e-02	4.60563816e-04
2.86000000e-01	2.62844906e-02	4.59074267e-04
2.86500000e-01	2.68391567e-02	4.59589024e-04
2.87000000e-01	2.66475859e-02	4.55776718e-04
2.87500000e-01	2.61180596e-02	4.50364997e-04
2.88000000e-01	2.53019436e-02	4.35203071e-04
2.88500000e-01	2.62729334e-02	4.54627726e-04
2.89000000e-01	2.55960877e-02	4.45824176e-04
2.89500000e-01	2.60049138e-02	4.46704730e-04
2.90000000e-01	2.57154771e-02	4.43994331e-04
2.90500000e-01	2.59291365e-02	4.47577234e-04
2.91000000e-01	2.58314780e-02	4.42582802e-04
2.91500000e-01	2.59922511e-02	4.42685789e-04
2.92000000e-01	2.52399082e-02	4.36598839e-04
2.92500000e-01	2.64054223e-02	4.49095648e-04
2.93000000e-01	2.53203008e-02	4.35197903e-04
2.93500000e-01	2.51441691e-02	4.30720834e-04
2.94000000e-01	2.57227972e-02	4.34819146e-04
2.94500000e-01	2.50393270e-02	4.27396668e-04
2.95000000e-01	2.55310446e-02	4.35207892e-04
2.95500000e-01	2.54403410e-02	4.33525024e-04
2.96000000e-01	2.57905712e-02	4.37445560e-04
2.96500000e-01	2.49652636e-02	4.27717577e-04
2.97000000e-01	2.49379250e-02	4.30906501e-04
2.97500000e-01	2.50907089e-02	4.25099553e-04
2.98000000e-01	2.50476160e-02	4.28102359e-04
2.98500000e-01	2.53170376e-02	4.30033958e-04
2.99000000e-01	2.53621810e-02	4.33879317e-04
2.99500000e-01	2.57138128e-02	4.34014592e-04
3.00000000e-01	2.53601977e-02	4.31884926e-04
3.00500000e-01	2.50979463e-02	4.27426840e-04
3.01000000e-01	2.47006444e-02	4.18148347e-04
3.01500000e-01	2.51497074e-02	4.26044191e-04
3.02000000e-01	2.53821756e-02	4.25199601e-04
3.02500000e-01	2.52810828e-02	4.28717658e-04
3.03000000e-01	2.53660844e-02	4.29105955e-04
3.03500000e-01	2.49281277e-02	4.20537203e-04
3.04000000e-01	2.45628731e-02	4.20087018e-04
3.04500000e-01	2.51555865e-02	4.24083578e-04
3.05000000e-01	2.50672237e-02	4.21157222e-04
3.05500000e-01	2.52644343e-02	4.25825066e-04
3.06000000e-01	2.52176052e-02	4.21863397e-04
3.06500000e-01	2.51622096e-02	4.24850550e-04
3.07000000e-01	2.46956581e-02	4.19457899e-04
3.07500000e-01	2.48230526e-02	4.16350128e-04
3.08000000e-01	2.47954591e-02	4.18234744e-04
3.08500000e-01	2.52970540e-02	4.23150244e-04
3.09000000e-01	2.48319399e-02	4.20002888e-04
3.09500000e-01	2.40206798e-02	4.05361053e-04
3.10000000e-01	2.47043815e-02	4.14420548e-04
3.10500000e-01	2.49712002e-02	4.20518439e-04
3.11000000e-01	2.50383106e-02	4.22069996e-04
3.11500000e-01	2.47962724e-02	4.17355928e-04
3.12000000e-01	2.45228042e-02	4.09028428e-04
3.12500000e-01	2.49251912e-02	4.22661601e-04
3.13000000e-01	2.46222203e-02	4.11693538e-04
3.13500000e-01	2.43223123e-02	4.11300797e-04
3.14000000e-01	2.46246394e-02	4.13955009e-04
3.14500000e-01	2.39075038e-02	4.00236537e-04
3.15000000e-01	2.43132885e-02	4.05427179e-04
3.15500000e-01	2.46954958e-02	4.08777303e-04
3.16000000e-01	2.45630267e-02	4.09577929e-04
3.16500000e-01	2.43056662e-02	4.04947414e-04
3.17000000e-01	2.45586472e-02	4.08074814e-04
3.17500000e-01	2.45605297e-02	4.08301999e-04
3.18000000e-01	2.40539831e-02	4.02562191e-04
3.18500000e-01	2.36169921e-02	3.91097416e-04
3.19000000e-01	2.44083994e-02	4.06203739e-04
3.19500000e-01	2.44850377e-02	4.02925435e-04
3.20000000e-01	2.41394739e-02	4.04231355e-04
3.20500000e-01	2.43697637e-02	4.02211658e-04
3.21000000e-01	2.45502121e-02	4.02908163e-04
3.21500000e-01	2.39109135e-02	3.97407164e-04
3.22000000e-01	2.46507396e-02	4.06476427e-04
3.22500000e-01	2.43118736e-02	4.01507887e-04
3.23000000e-01	2.40257317e-02	3.99095819e-04
3.23500000e-01	2.43150391e-02	4.01413953e-04
3.24000000e-01	2.38042211e-02	3.94820578e-04
3.24500000e-01	2.40028156e-02	3.97611014e-04
3.25000000e-01	2.40228835e-02	4.00726343e-04
3.25500000e-01	2.38831487e-02	3.95744461e-04
3.26000000e-01	2.39820336e-02	3.95671925e-04
3.26500000e-01	2.38227263e-02	3.89346570e-04
3.27000000e-01	2.37977322e-02	3.93487411e-04
3.27500000e-01	2.36538036e-02	3.91127759e-04
3.28000000e-01	2.36851793e-02	3.90704423e-04
3.28500000e-01	2.36461074e-02	3.89148258e-04
3.29000000e-01	2.42162012e-02	3.98838985e-04
3.29500000e-01	2.37201175e-02	3.93194638e-04
3.30000000e-01	2.43285150e-02	3.96471545e-04
3.30500000e-01	2.37897619e-02	3.88545745e-04
3.31000000e-01	2.38070215e-02	3.88553758e-04
3.31500000e-01	2.38843148e-02	3.92102420e-04
3.32000000e-01	2.35380533e-02	3.88027961e-04
3.32500000e-01	2.37323846e-02	3.88874188e-04
3.33000000e-01	2.38487056e-02	3.92323295e-04
3.33500000e-01	2.38673601e-02	3.90167804e-04
3.34000000e-01	2.34157692e-02	3.85327317e-04
3.34500000e-01	2.39680067e-02	3.93951331e-04
3.35000000e-01	2.36934061e-02	3.86715488e-04
3.35500000e-01	2.36536022e-02	3.86681624e-04
3.36000000e-01	2.34604425e-02	3.85649339e-04
3.36500000e-01	2.28520856e-02	3.76221366e-04
3.37000000e-01	2.34691420e-02	3.83867195e-04
3.37500000e-01	2.33489929e-02	3.84127034e-04
3.38000000e-01	2.38663100e-02	3.88319608e-04
3.38500000e-01	2.34935232e-02	3.80249483e-04
3.39000000e-01	2.35697041e-02	3.83866034e-04
3.39500000e-01	2.38127427e-02	3.83721467e-04
3.40000000e-01	2.36722770e-02	3.85227985e-04
3.40500000e-01	2.31655301e-02	3.76811339e-04
3.41000000e-01	2.40304689e-02	3.86643818e-04
3.41500000e-01	2.34126192e-02	3.83426713e-04
3.42000000e-01	2.36826768e-02	3.81837587e-04
3.42500000e-01	2.35124226e-02	3.78615333e-04
3.43000000e-01	2.33790612e-02	3.80049741e-04
3.43500000e-01	2.32396983e-02	3.75715570e-04
3.44000000e-01	2.32387876e-02	3.77666304e-04
3.44500000e-01	2.33293911e-02	3.75173131e-04
3.45000000e-01	2.33907310e-02	3.75359452e-04
3.45500000e-01	2.38092952e-02	3.80503405e-04
3.46000000e-01	2.35122191e-02	3.79129749e-04
3.46500000e-01	2.30745071e-02	3.74154812e-04
3.47000000e-01	2.27964072e-02	3.68488283e-04
3.47500000e-01	2.29153730e-02	3.69722848e-04
3.48000000e-01	2.30508870e-02	3.74028239e-04
3.48500000e-01	2.35018505e-02	3.76853444e-04
3.49000000e-01	2.30665212e-02	3.72570374e-04
3.49500000e-01	2.29410849e-02	3.70801302e-04
3.50000000e-01	2.29904886e-02	3.03786121e-04
3.51000000e-01	2.33377800e-02	2.63955947e-04
3.52000000e-01	2.31840347e-02	2.62529032e-04
3.53000000e-01	2.29174408e-02	2.58094805e-04
3.54000000e-01	2.29818735e-02	2.60059383e-04
3.55000000e-01	2.30240526e-02	2.60000180e-04
3.56000000e-01	2.30116353e-02	2.61567165e-04
3.57000000e-01	2.30110870e-02	2.66434084e-04
3.58000000e-01	2.28892675e-02	2.65115850e-04
3.59000000e-01	2.30599380e-02	2.70342483e-04
3.60000000e-01	2.30740291e-02	2.72640610e-04
3.61000000e-01	2.29516868e-02	2.73601995e-04
3.62000000e-01	2.28454411e-02	2.72241543e-04
3.63000000e-01	2.24448272e-02	2.71175714e-04
3.64000000e-01	2.24745133e-02	2.71511124e-04
3.65000000e-01	2.27519804e-02	2.73124127e-04
3.66000000e-01	2.25246366e-02	2.69684402e-04
3.67000000e-01	2.25326888e-02	2.65453389e-04
3.68000000e-01	2.23651667e-02	2.60996186e-04
3.69000000e-01	2.21045482e-02	2.58692232e-04
3.70000000e-01	2.23254442e-02	2.59231176e-04
3.71000000e-01	2.21592358e-02	2.62344626e-04
3.72000000e-01	2.22999221e-02	2.64868458e-04
3.73000000e-01	2.19065908e-02	2.61718254e-04
3.74000000e-01	2.20014236e-02	2.62742270e-04
3.75000000e-01	2.21898736e-02	2.64717075e-04
3.76000000e-01	2.21925846e-02	2.63134085e-04
3.77000000e-01	2.21416407e-02	2.64609323e-04
3.78000000e-01	2.21339707e-02	2.63242359e-04
3.79000000e-01	2.21349832e-02	2.63521367e-04
3.80000000e-01	2.17521726e-02	2.59160088e-04
3.81000000e-01	2.17561896e-02	2.59822594e-04
3.82000000e-01	2.15806897e-02	2.58215764e-04
3.83000000e-01	2.18653740e-02	2.60535176e-04
3.84000000e-01	2.16606252e-02	2.60088833e-04
3.85000000e-01	2.13548767e-02	2.56786321e-04
3.86000000e-01	2.15695071e-02	2.56740184e-04
3.87000000e-01	2.17795533e-02	2.60604007e-04
3.88000000e-01	2.11052745e-02	2.54667390e-04
3.89000000e-01	2.14615444e-02	2.56453712e-04
3.90000000e-01	2.11032495e-02	2.53242994e-04
3.91000000e-01	2.16781922e-02	2.57670070e-04
3.92000000e-01	2.14069312e-02	2.54911853e-04
3.93000000e-01	2.12034366e-02	2.53113857e-04
3.94000000e-01	2.11224978e-02	2.52016820e-04
3.95000000e-01	2.10930289e-02	2.52846897e-04
3.96000000e-01	2.13734912e-02	2.55092912e-04
3.97000000e-01	2.14305875e-02	2.55063615e-04
3.98000000e-01	2.10871290e-02	2.53037434e-04
3.99000000e-01	2.09804369e-02	2.52294590e-04
4.00000000e-01	2.07973143e-02	2.51548975e-04
4.01000000e-01	2.12928830e-02	2.55460113e-04
4.02000000e-01	2.13749358e-02	2.56032967e-04
4.03000000e-01	2.11294931e-02	2.52336860e-04
4.04000000e-01	2.07200480e-02	2.48438798e-04
4.05000000e-01	2.10422656e-02	2.52311980e-04
4.06000000e-01	2.10001848e-02	2.52505391e-04
4.07000000e-01	2.09469518e-02	2.52518039e-04
4.08000000e-01	2.10544491e-02	2.52187314e-04
4.09000000e-01	2.09357119e-02	2.50196479e-04
4.10000000e-01	2.07563074e-02	2.47372023e-04
4.11000000e-01	2.09629823e-02	2.50602169e-04
4.12000000e-01	2.08975728e-02	2.50607549e-04
4.13000000e-01	2.10380859e-02	2.51256069e-04
4.14000000e-01	2.07784583e-02	2.49252821e-04
4.15000000e-01	2.09154237e-02	2.50015728e-04
4.16000000e-01	2.04466261e-02	2.46046428e-04
4.17000000e-01	2.07187006e-02	2.48105328e-04
4.18000000e-01	2.06726155e-02	2.50349912e-04
4.19000000e-01	2.06218653e-02	2.54057670e-04
4.20000000e-01	2.09401781e-02	2.57098203e-04
4.21000000e-01	2.09864759e-02	2.57931906e-04
4.22000000e-01	2.07840101e-02	2.57499328e-04
4.23000000e-01	2.06996938e-02	2.57632108e-04
4.24000000e-01	2.07980291e-02	2.59319430e-04
4.25000000e-01	2.05571726e-02	2.57474042e-04
4.26000000e-01	2.07145699e-02	2.58777176e-04
4.27000000e-01	2.06185191e-02	2.56221977e-04
4.28000000e-01	2.06556159e-02	2.58176849e-04
4.29000000e-01	2.07521862e-02	2.60890729e-04
4.30000000e-01	2.09347255e-02	2.60880862e-04
4.31000000e-01	2.02055263e-02	2.54293406e-04
4.32000000e-01	2.07167252e-02	2.59182707e-04
4.33000000e-01	2.05584396e-02	2.57781686e-04
4.34000000e-01	2.04406306e-02	2.56331019e-04
4.35000000e-01	2.06342276e-02	2.60089273e-04
4.36000000e-01	2.05122567e-02	2.59707372e-04
4.37000000e-01	2.03792503e-02	2.56719595e-04
4.38000000e-01	2.07014492e-02	2.61422398e-04
4.39000000e-01	2.05760322e-02	2.59612462e-04
4.40000000e-01	2.05173103e-02	2.61163980e-04
4.41000000e-01	2.03498006e-02	2.59268777e-04
4.42000000e-01	2.03756948e-02	2.59351609e-04
4.43000000e-01	2.07489554e-02	2.62810875e-04
4.44000000e-01	2.02982534e-02	2.59149942e-04
4.45000000e-01	2.02013029e-02	2.58679634e-04
4.46000000e-01	2.00590317e-02	2.58081385e-04
4.47000000e-01	2.05187424e-02	2.64661710e-04
4.48000000e-01	2.05040951e-02	2.61688997e-04
4.49000000e-01	2.01372791e-02	2.60049047e-04
4.50000000e-01	2.04871667e-02	2.63111995e-04
4.51000000e-01	2.05080511e-02	2.63359965e-04
4.52000000e-01	2.02055484e-02	2.61040405e-04
4.53000000e-01	2.09024608e-02	2.65485207e-04
4.54000000e-01	1.99798050e-02	2.58554048e-04
4.55000000e-01	2.04392965e-02	2.62917079e-04
4.56000000e-01	1.99270326e-02	2.58774250e-04
4.57000000e-01	2.03094745e-02	2.60983684e-04
4.58000000e-01	1.99830090e-02	2.58163666e-04
4.59000000e-01	2.02858176e-02	2.62091223e-04
4.60000000e-01	2.03525048e-02	2.65273006e-04
4.61000000e-01	1.99054558e-02	2.58449330e-04
4.62000000e-01	2.00805488e-02	2.60879553e-04
4.63000000e-01	1.99626785e-02	2.60504682e-04
4.64000000e-01	1.98235494e-02	2.59665119e-04
4.65000000e-01	1.97325955e-02	2.60562819e-04
4.66000000e-01	1.98994715e-02	2.59266482e-04
4.67000000e-01	2.01592292e-02	2.62604351e-04
4.68000000e-01	2.00344523e-02	2.61036161e-04
4.69000000e-01	1.98595706e-02	2.59468053e-04
4.70000000e-01	1.99902232e-02	2.62204702e-04
4.71000000e-01	1.95280117e-02	2.57613186e-04
4.72000000e-01	1.99494575e-02	2.60612383e-04
4.73000000e-01	1.97735647e-02	2.58721962e-04
4.74000000e-01	1.98441679e-02	2.60194063e-04
4.75000000e-01	1.97496443e-02	2.58908744e-04
4.76000000e-01	1.97421691e-02	2.58014824e-04
4.77000000e-01	1.96452591e-02	2.58971995e-04
4.78000000e-01	1.97379062e-02	2.57149300e-04
4.79000000e-01	1.98339712e-02	2.59229342e-04
4.80000000e-01	1.96578425e-02	2.58268075e-04
4.81000000e-01	2.00918414e-02	2.61913184e-04
4.82000000e-01	1.94856368e-02	2.58485330e-04
4.83000000e-01	1.92006970e-02	2.55323315e-04
4.84000000e-01	1.99083231e-02	2.62255887e-04
4.85000000e-01	1.95154106e-02	2.57589746e-04
4.86000000e-01	1.96921825e-02	2.60892851e-04
4.87000000e-01	1.94836740e-02	2.58663352e-04
4.88000000e-01	1.99071296e-02	2.62980376e-04
4.89000000e-01	1.96912216e-02	2.60634543e-04
4.90000000e-01	2.00969406e-02	2.65535196e-04
4.91000000e-01	1.95791800e-02	2.59617800e-04
4.92000000e-01	1.95655550e-02	2.60454059e-04
4.93000000e-01	1.99563061e-02	2.63980639e-04
4.94000000e-01	1.94252280e-02	2.59509576e-04
4.95000000e-01	1.93713763e-02	2.59536678e-04
4.96000000e-01	2.01600103e-02	2.77289391e-04
4.97000000e-01	1.97710417e-02	2.76543163e-04
4.98000000e-01	1.96465277e-02	2.78856912e-04
4.99000000e-01	1.98232480e-02	2.84523774e-04
5.00000000e-01	1.99925884e-02	2.87954356e-04
5.01000000e-01	1.95156014e-02	2.86823841e-04
5.02000000e-01	1.89956120e-02	2.83938049e-04
5.03000000e-01	1.95421706e-02	2.91766741e-04
5.04000000e-01	1.95371974e-02	2.92411318e-04
5.05000000e-01	1.95158151e-02	2.89122669e-04
5.06000000e-01	1.96773255e-02	2.84647049e-04
5.07000000e-01	1.95406928e-02	2.80064259e-04
5.08000000e-01	1.96234932e-02	2.79526824e-04
5.09000000e-01	1.94594836e-02	2.76048738e-04
5.10000000e-01	1.91747088e-02	2.73978356e-04
5.11000000e-01	1.96233988e-02	2.76529384e-04
5.12000000e-01	1.96614861e-02	2.76084825e-04
5.13000000e-01	1.97253296e-02	2.75702609e-04
5.14000000e-01	1.92226507e-02	2.72669266e-04
5.15000000e-01	1.97772788e-02	2.74358958e-04
5.16000000e-01	1.95484668e-02	2.72186350e-04
5.17000000e-01	1.92899975e-02	2.70316383e-04
5.18000000e-01	1.93301623e-02	2.70252099e-04
5.19000000e-01	1.91396411e-02	2.68207592e-04
5.20000000e-01	1.89853516e-02	2.64651837e-04
5.21000000e-01	1.94150276e-02	2.69857587e-04
5.22000000e-01	1.92791525e-02	2.69128973e-04
5.23000000e-01	1.93122485e-02	2.66552615e-04
5.24000000e-01	1.88406333e-02	2.63913886e-04
5.25000000e-01	1.91813520e-02	2.64767467e-04
5.26000000e-01	1.88192552e-02	2.62670590e-04
5.27000000e-01	1.93602252e-02	2.67670467e-04
5.28000000e-01	1.92048301e-02	2.65659613e-04
5.29000000e-01	1.92117894e-02	2.68416540e-04
5.30000000e-01	1.94520172e-02	2.70536062e-04
5.31000000e-01	1.94488402e-02	2.69576426e-04
5.32000000e-01	1.95564724e-02	2.72926025e-04
5.33000000e-01	1.89632968e-02	2.63647593e-04
5.34000000e-01	1.89064653e-02	2.63552146e-04
5.35000000e-01	1.93206942e-02	2.66895427e-04
5.36000000e-01	1.89476359e-02	2.63300727e-04
5.37000000e-01	1.89135638e-02	2.63894423e-04
5.38000000e-01	1.91085471e-02	2.65337763e-04
5.39000000e-01	1.87831629e-02	2.62328148e-04
5.40000000e-01	1.90413265e-02	2.64383280e-04
5.41000000e-01	1.87865894e-02	2.63234955e-04
5.42000000e-01	1.87425078e-02	2.61511885e-04
5.43000000e-01	1.92531354e-02	2.66064764e-04
5.44000000e-01	1.90966421e-02	2.67458881e-04
5.45000000e-01	1.88106115e-02	2.63383150e-04
5.46000000e-01	1.86894180e-02	2.60798518e-04
5.47000000e-01	1.89370907e-02	2.62512872e-04
5.48000000e-01	1.88161688e-02	2.63706313e-04
5.49000000e-01	1.91860075e-02	2.66016731e-04
5.50000000e-01	1.85649099e-02	2.60189181e-04
5.51000000e-01	1.90301894e-02	2.64395929e-04
5.52000000e-01	1.90598203e-02	2.63858498e-04
5.53000000e-01	1.94512310e-02	2.67675508e-04
5.54000000e-01	1.88037568e-02	2.59741853e-04
5.55000000e-01	1.85729331e-02	2.58957024e-04
5.56000000e-01	1.87992477e-02	2.60218165e-04
5.57000000e-01	1.87638349e-02	2.61279746e-04
5.58000000e-01	1.84015213e-02	2.58046410e-04
5.59000000e-01	1.87876159e-02	2.59194981e-04
5.60000000e-01	1.88834715e-02	2.61493581e-04
5.61000000e-01	1.88041027e-02	2.61324491e-04
5.62000000e-01	1.86832961e-02	2.60725474e-04
5.63000000e-01	1.89062881e-02	2.60868013e-04
5.64000000e-01	1.87028704e-02	2.58191178e-04
5.65000000e-01	1.82380246e-02	2.55490386e-04
5.66000000e-01	1.86788954e-02	2.59683537e-04
5.67000000e-01	1.86512253e-02	2.58627460e-04
5.68000000e-01	1.88518961e-02	2.62087184e-04
5.69000000e-01	1.91601389e-02	2.61608765e-04
5.70000000e-01	1.90117661e-02	2.60938197e-04
5.71000000e-01	1.87142844e-02	2.57120766e-04
5.72000000e-01	1.85904095e-02	2.57714457e-04
5.73000000e-01	1.87948584e-02	2.60911644e-04
5.74000000e-01	1.86542257e-02	2.60180619e-04
5.75000000e-01	1.88740545e-02	2.63029180e-04
5.76000000e-01	1.83905567e-02	2.56487961e-04
5.77000000e-01	1.87598817e-02	2.60644152e-04
5.78000000e-01	1.87817477e-02	2.59444966e-04
5.79000000e-01	1.89484537e-02	2.64540745e-04
5.80000000e-01	1.83624579e-02	2.56195905e-04
5.81000000e-01	1.83894045e-02	2.56461220e-04
5.82000000e-01	1.86465762e-02	2.58156945e-04
5.83000000e-01	1.81193569e-02	2.53968791e-04
5.84000000e-01	1.87882321e-02	2.60977161e-04
5.85000000e-01	1.82121327e-02	2.54556252e-04
5.86000000e-01	1.85807470e-02	2.56712029e-04
5.87000000e-01	1.87693375e-02	2.59987204e-04
5.88000000e-01	1.85582836e-02	2.54995668e-04
5.89000000e-01	1.87147931e-02	2.61291576e-04
5.90000000e-01	1.85780671e-02	2.58906004e-04
5.91000000e-01	1.83786646e-02	2.56960434e-04
5.92000000e-01	1.81774105e-02	2.55682422e-04
5.93000000e-01	1.85791980e-02	2.60185307e-04
5.94000000e-01	1.80506977e-02	2.54226872e-04
5.95000000e-01	1.84283238e-02	2.56380648e-04
5.96000000e-01	1.85109661e-02	2.59206626e-04
5.97000000e-01	1.85006834e-02	2.58770352e-04
5.98000000e-01	1.87403365e-02	2.61923025e-04
5.99000000e-01	1.87403459e-02	2.59721629e-04
6.00000000e-01	1.83574195e-02	2.56401656e-04
6.01000000e-01	1.82632536e-02	2.56428968e-04
6.02000000e-01	1.78863881e-02	2.53205918e-04
6.03000000e-01	1.85256326e-02	2.58934192e-04
6.04000000e-01	1.83031388e-02	2.55648638e-04
6.05000000e-01	1.84614279e-02	2.57424986e-04
6.06000000e-01	1.84634691e-02	2.58785984e-04
6.07000000e-01	1.88574653e-02	2.62679423e-04
6.08000000e-01	1.84079480e-02	2.57988183e-04
6.09000000e-01	1.88173077e-02	2.63021046e-04
6.10000000e-01	1.83092197e-02	2.55736619e-04
6.11000000e-01	1.88400790e-02	2.63396345e-04
6.12000000e-01	1.83916833e-02	2.58526268e-04
6.13000000e-01	1.85281668e-02	2.58601572e-04
6.14000000e-01	1.85723532e-02	2.61233097e-04
6.15000000e-01	1.87245897e-02	2.60421376e-04
6.16000000e-01	1.85742997e-02	2.60319377e-04
6.17000000e-01	1.89825425e-02	2.65196808e-04
6.18000000e-01	1.86543547e-02	2.60163631e-04
6.19000000e-01	1.86796992e-02	2.59210747e-04
6.20000000e-01	1.87307858e-02	2.61514872e-04
6.21000000e-01	1.87149454e-02	2.59707977e-04
6.22000000e-01	1.88377191e-02	2.61002762e-04
6.23000000e-01	1.84600654e-02	2.55839288e-04
6.24000000e-01	1.86729607e-02	2.58288568e-04
6.25000000e-01	1.83438572e-02	2.56115291e-04
6.26000000e-01	1.86438112e-02	2.57414129e-04
6.27000000e-01	1.86542994e-02	2.57489447e-04
6.28000000e-01	1.82369050e-02	2.56683304e-04
6.29000000e-01	1.84220684e-02	2.56965246e-04
6.30000000e-01	1.83625174e-02	2.55769884e-04
6.31000000e-01	1.88723858e-02	2.61078525e-04
6.32000000e-01	1.86914201e-02	2.59837628e-04
6.33000000e-01	1.85465180e-02	2.55696175e-04
6.34000000e-01	1.87819398e-02	2.66757133e-04
6.35000000e-01	1.86214260e-02	2.70939547e-04
6.36000000e-01	1.85279537e-02	2.78215653e-04
6.37000000e-01	1.91339443e-02	2.88250767e-04
6.38000000e-01	1.85371206e-02	2.86477627e-04
6.39000000e-01	1.88635606e-02	2.90386795e-04
6.40000000e-01	1.89619075e-02	2.98778708e-04
6.41000000e-01	1.86417904e-02	2.95180631e-04
6.42000000e-01	1.89531098e-02	3.02319588e-04
6.43000000e-01	1.83463464e-02	2.93927701e-04
6.44000000e-01	1.89999571e-02	2.92085364e-04
6.45000000e-01	1.87877873e-02	2.84620669e-04
6.46000000e-01	1.89097921e-02	2.84260636e-04
6.47000000e-01	1.90134808e-02	2.82161421e-04
6.48000000e-01	1.92969661e-02	2.85195216e-04
6.49000000e-01	1.87231927e-02	2.78540178e-04
6.50000000e-01	1.84790447e-02	2.73511882e-04
6.51000000e-01	1.92020060e-02	2.80331493e-04
6.52000000e-01	1.89616108e-02	2.76120842e-04
6.53000000e-01	1.93107661e-02	2.79438229e-04
6.54000000e-01	1.85724464e-02	2.70663400e-04
6.55000000e-01	1.87428160e-02	2.72311867e-04
6.56000000e-01	1.91384925e-02	2.75331634e-04
6.57000000e-01	1.87738405e-02	2.69547273e-04
6.58000000e-01	1.87072804e-02	2.70717561e-04
6.59000000e-01	1.90850407e-02	2.73816052e-04
6.60000000e-01	1.85034727e-02	2.67712488e-04
6.61000000e-01	1.87656393e-02	2.70277968e-04
6.62000000e-01	1.87600919e-02	2.69310906e-04
6.63000000e-01	1.86601056e-02	2.69362123e-04
6.64000000e-01	1.87378540e-02	2.71230130e-04
6.65000000e-01	1.91455381e-02	2.73874640e-04
6.66000000e-01	1.88157332e-02	2.70210341e-04
6.67000000e-01	1.87458879e-02	2.69859394e-04
6.68000000e-01	1.89352824e-02	2.70089292e-04
6.69000000e-01	1.85662838e-02	2.68182371e-04
6.70000000e-01	1.88662003e-02	2.71198530e-04
6.71000000e-01	1.90141550e-02	2.71309796e-04
6.72000000e-01	1.85825414e-02	2.68165510e-04
6.73000000e-01	1.86217841e-02	2.67279741e-04
6.74000000e-01	1.87304878e-02	2.68816702e-04
6.75000000e-01	1.88686663e-02	2.68296846e-04
6.76000000e-01	1.87630990e-02	2.68534295e-04
6.77000000e-01	1.87725002e-02	2.66834442e-04
6.78000000e-01	1.83479493e-02	2.64757583e-04
6.79000000e-01	1.86718998e-02	2.67790227e-04
6.80000000e-01	1.90402056e-02	2.71787944e-04
6.81000000e-01	1.84126457e-02	2.64942925e-04
6.82000000e-01	1.90927117e-02	2.72874740e-04
6.83000000e-01	1.93515270e-02	2.75434360e-04
6.84000000e-01	1.86059719e-02	2.66407288e-04
6.85000000e-01	1.84373817e-02	2.64407223e-04
6.86000000e-01	1.86991042e-02	2.66911089e-04
6.87000000e-01	1.88486602e-02	2.68242244e-04
6.88000000e-01	1.86500554e-02	2.66779951e-04
6.89000000e-01	1.85627612e-02	2.66063610e-04
6.90000000e-01	1.87914477e-02	2.68391116e-04
6.91000000e-01	1.86393001e-02	2.65604964e-04
6.92000000e-01	1.87220672e-02	2.67304608e-04
6.93000000e-01	1.84512463e-02	2.63875754e-04
6.94000000e-01	1.84522784e-02	2.65311984e-04
6.95000000e-01	1.89013023e-02	2.68054389e-04
6.96000000e-01	1.84739301e-02	2.62740726e-04
6.97000000e-01	1.88655638e-02	2.67465111e-04
6.98000000e-01	1.86838712e-02	2.65511742e-04
6.99000000e-01	1.86794883e-02	2.65064820e-04
7.00000000e-01	1.87987392e-02	2.67049637e-04
7.01000000e-01	1.85293742e-02	2.64892904e-04
7.02000000e-01	1.88851972e-02	2.69046445e-04
7.03000000e-01	1.87579090e-02	2.67294279e-04
7.04000000e-01	1.88984226e-02	2.68483508e-04
7.05000000e-01	1.85345575e-02	2.64513309e-04
7.06000000e-01	1.88467514e-02	2.65833236e-04
7.07000000e-01	1.84832855e-02	2.62272037e-04
7.08000000e-01	1.86617470e-02	2.62534810e-04
7.09000000e-01	1.84914601e-02	2.62245910e-04
7.10000000e-01	1.83902820e-02	2.60876727e-04
7.11000000e-01	1.86405353e-02	2.63376460e-04
7.12000000e-01	1.87150371e-02	2.66999318e-04
7.13000000e-01	1.82034159e-02	2.60142448e-04
7.14000000e-01	1.84553601e-02	2.62416723e-04
7.15000000e-01	1.84393462e-02	2.63627153e-04
7.16000000e-01	1.85275040e-02	2.63735838e-04
7.17000000e-01	1.84608831e-02	2.64188767e-04
7.18000000e-01	1.84509131e-02	2.63886528e-04
7.19000000e-01	1.79948043e-02	2.59153091e-04
7.20000000e-01	1.83683952e-02	2.61611420e-04
7.21000000e-01	1.80873489e-02	2.59206372e-04
7.22000000e-01	1.84270281e-02	2.61134633e-04
7.23000000e-01	1.86943321e-02	2.67635828e-04
7.24000000e-01	1.83915590e-02	2.62601732e-04
7.25000000e-01	1.84846977e-02	2.63233812e-04
7.26000000e-01	1.83437010e-02	2.61215612e-04
7.27000000e-01	1.81411163e-02	2.60389645e-04
7.28000000e-01	1.85185592e-02	2.65237594e-04
7.29000000e-01	1.79536141e-02	2.57557621e-04
7.30000000e-01	1.85681778e-02	2.64178775e-04
7.31000000e-01	1.82589845e-02	2.59792207e-04
7.32000000e-01	1.81548311e-02	2.60249172e-04
7.33000000e-01	1.83584950e-02	2.62560300e-04
7.34000000e-01	1.81430952e-02	2.59721207e-04
7.35000000e-01	1.82769908e-02	2.62407117e-04
7.36000000e-01	1.80616058e-02	2.58389283e-04
7.37000000e-01	1.82123820e-02	2.59603833e-04
7.38000000e-01	1.78935713e-02	2.55105673e-04
7.39000000e-01	1.79948879e-02	2.56393931e-04
7.40000000e-01	1.83253668e-02	2.60384540e-04
7.41000000e-01	1.81934373e-02	2.58547420e-04
7.42000000e-01	1.81260797e-02	2.56218665e-04
7.43000000e-01	1.85117665e-02	2.61420150e-04
7.44000000e-01	1.83527186e-02	2.58218648e-04
7.45000000e-01	1.88700859e-02	2.76600139e-04
7.46000000e-01	1.81485538e-02	2.57725753e-04
7.47000000e-01	1.78138882e-02	2.54116715e-04
7.48000000e-01	1.81691276e-02	2.56405179e-04
7.49000000e-01	1.81012819e-02	2.56032771e-04
7.50000000e-01	1.83128607e-02	2.59131442e-04
7.51000000e-01	1.82994842e-02	2.58571473e-04
7.52000000e-01	1.80126361e-02	2.55981247e-04
7.53000000e-01	1.82704439e-02	2.57863361e-04
7.54000000e-01	1.82687622e-02	2.58215311e-04
7.55000000e-01	1.84720306e-02	2.60167435e-04
7.56000000e-01	1.79056486e-02	2.56952630e-04
7.57000000e-01	1.81270264e-02	2.57855420e-04
7.58000000e-01	1.81940363e-02	2.57236324e-04
7.59000000e-01	1.82968395e-02	2.57593086e-04
7.60000000e-01	1.85780744e-02	2.60471354e-04
7.61000000e-01	1.80626894e-02	2.57527367e-04
7.62000000e-01	1.80073788e-02	2.54647030e-04
7.63000000e-01	1.82447928e-02	2.54128368e-04
7.64000000e-01	1.81619183e-02	2.55692574e-04
7.65000000e-01	1.81768418e-02	2.54334903e-04
7.66000000e-01	1.79758522e-02	2.54203852e-04
7.67000000e-01	1.84223085e-02	2.57045934e-04
7.68000000e-01	1.79876949e-02	2.53274962e-04
7.69000000e-01	1.82175012e-02	2.55810154e-04
7.70000000e-01	1.82345423e-02	2.56477785e-04
7.71000000e-01	1.81531983e-02	2.55784441e-04
7.72000000e-01	1.80342879e-02	2.60607414e-04
7.73000000e-01	1.82557474e-02	2.71776286e-04
7.74000000e-01	1.82549439e-02	2.76626828e-04
7.75000000e-01	1.79922587e-02	2.79438629e-04
7.76000000e-01	1.83988883e-02	2.87986378e-04
7.77000000e-01	1.81174737e-02	2.88632453e-04
7.78000000e-01	1.80425782e-02	2.93456284e-04
7.79000000e-01	1.81115418e-02	2.98427952e-04
7.80000000e-01	1.82053004e-02	3.00968323e-04
7.81000000e-01	1.77222353e-02	2.98427197e-04
7.82000000e-01	1.81046858e-02	3.07622490e-04
7.83000000e-01	1.80258385e-02	3.07660053e-04
7.84000000e-01	1.81345452e-02	3.12185027e-04
7.85000000e-01	1.78167742e-02	3.11634813e-04
7.86000000e-01	1.78170805e-02	3.16639845e-04
7.87000000e-01	1.76120861e-02	3.16745130e-04
7.88000000e-01	1.80622945e-02	3.24543107e-04
7.89000000e-01	1.82057565e-02	3.30655813e-04
7.90000000e-01	1.76790454e-02	3.26352239e-04
7.91000000e-01	1.81218403e-02	3.36346409e-04
7.92000000e-01	1.82632442e-02	3.40744247e-04
7.93000000e-01	1.74922796e-02	3.34453510e-04
7.94000000e-01	1.78177922e-02	3.41286710e-04
7.95000000e-01	1.79343267e-02	3.48479404e-04
7.96000000e-01	1.76511920e-02	3.50283313e-04
7.97000000e-01	1.80117709e-02	3.56275124e-04
7.98000000e-01	1.73887069e-02	3.51153486e-04
7.99000000e-01	1.82775233e-02	3.67446307e-04
8.00000000e-01	1.77436592e-02	3.61464320e-04
8.01000000e-01	1.79302431e-02	3.66734375e-04
8.02000000e-01	1.76431110e-02	3.65127865e-04
8.03000000e-01	1.82165038e-02	3.82700370e-04
8.04000000e-01	1.77978053e-02	3.77276532e-04
8.05000000e-01	1.79497107e-02	3.82943283e-04
8.06000000e-01	1.75104815e-02	3.84132431e-04
8.07000000e-01	1.81637467e-02	3.94685660e-04
8.08000000e-01	1.72851860e-02	3.89006725e-04
8.09000000e-01	1.78018886e-02	3.99998268e-04
8.10000000e-01	1.77565741e-02	4.00274651e-04
8.11000000e-01	1.79385398e-02	4.10095039e-04
8.12000000e-01	1.80704091e-02	4.18689991e-04
8.13000000e-01	1.78787043e-02	4.22979008e-04
8.14000000e-01	1.70299073e-02	4.10804622e-04
8.15000000e-01	1.72009201e-02	4.16854767e-04
8.16000000e-01	1.75733181e-02	4.29153267e-04
8.17000000e-01	1.79189559e-02	4.37574463e-04
8.18000000e-01	1.73382309e-02	4.32300036e-04
8.19000000e-01	1.77194436e-02	4.45196087e-04
8.20000000e-01	1.82990837e-02	4.66188092e-04
8.21000000e-01	1.79753911e-02	4.62094120e-04
8.22000000e-01	1.78419547e-02	4.66693489e-04
8.23000000e-01	1.77138806e-02	4.76109994e-04
8.24000000e-01	1.83509800e-02	4.87823377e-04
8.25000000e-01	1.75919694e-02	4.82473764e-04
8.26000000e-01	1.74619234e-02	4.85321251e-04
8.27000000e-01	1.76365292e-02	4.96523394e-04
8.28000000e-01	1.85492670e-02	5.25778340e-04
8.29000000e-01	1.71446159e-02	4.99909883e-04
8.30000000e-01	1.83897486e-02	5.35264347e-04
8.31000000e-01	1.74234232e-02	5.24034921e-04
8.32000000e-01	1.75462140e-02	5.34281681e-04
8.33000000e-01	1.83148098e-02	5.61975343e-04
8.34000000e-01	1.77906495e-02	5.67177063e-04
8.35000000e-01	1.73157377e-02	5.69673376e-04
8.36000000e-01	1.67290804e-02	5.52414451e-04
8.37000000e-01	1.71566122e-02	5.79812843e-04
8.38000000e-01	1.84435431e-02	6.18164261e-04
8.39000000e-01	1.86677946e-02	6.42536979e-04
8.40000000e-01	1.75495364e-02	6.14728524e-04
8.41000000e-01	1.77280486e-02	6.46266364e-04
8.42000000e-01	1.74870036e-02	6.42791913e-04
8.43000000e-01	1.78727448e-02	6.75002831e-04
8.44000000e-01	1.73898774e-02	6.97096611e-04
8.45000000e-01	1.71322286e-02	6.84165870e-04
8.46000000e-01	1.78234431e-02	7.15433511e-04
8.47000000e-01	1.83330550e-02	7.73188615e-04
8.48000000e-01	1.84590980e-02	8.05846089e-04
8.49000000e-01	1.85157723e-02	8.16388654e-04
8.50000000e-01	1.69822068e-02	7.82272830e-04
8.51000000e-01	1.87258493e-02	9.02409881e-04
8.52000000e-01	1.78395305e-02	8.97639671e-04
8.53000000e-01	1.82255192e-02	9.47652214e-04
8.54000000e-01	1.83732598e-02	9.82956589e-04
8.55000000e-01	1.72958052e-02	9.72717609e-04
8.56000000e-01	1.61316991e-02	9.51867823e-04
8.57000000e-01	1.81448984e-02	1.06193383e-03
8.58000000e-01	1.80123326e-02	1.09130863e-03
8.59000000e-01	1.93248519e-02	1.18315307e-03
8.60000000e-01	1.70255042e-02	1.13032940e-03
8.61000000e-01	1.92409738e-02	1.23331660e-03
8.62000000e-01	1.73524446e-02	1.22913911e-03
8.63000000e-01	1.78645833e-02	1.26027168e-03
8.64000000e-01	1.80382521e-02	1.36557079e-03
8.65000000e-01	2.02029776e-02	1.59471515e-03
8.66000000e-01	1.72976638e-02	1.43224910e-03
8.67000000e-01	1.74627708e-02	1.52720111e-03
8.68000000e-01	1.78482979e-02	1.61731258e-03
8.69000000e-01	1.58962471e-02	1.75168055e-03
8.70000000e-01	1.70197805e-02	1.81225748e-03
8.71000000e-01	2.02874247e-02	2.46985443e-03
8.72000000e-01	1.86458782e-02	2.65099294e-03
8.73000000e-01	1.80039655e-02	2.75015121e-03
8.74000000e-01	1.53097873e-02	3.69545586e-03
8.75000000e-01	2.37577149e-02	8.88933094e-03
