% Filename : SDL13_00034_00017.h5
% Date & Time : 30-Oct-2025 17:29:13
% X-ray Energy (keV) : 13.30001
% Exposure Time (s) : 0.500
% Beam Center : 1461.24000, 208.98300
% Sample to Detector Distance (SDD) (mm) : 1990.750
% Detector Pixel Size (mm) : 0.075
% Photodiode Value : 141065.000
% I0 of Sample : 0
% I0 of Standard : 1
% 
% q(A^-1)   I(q)    I(q)_SE
0.00000000e+00	1.40880807e-02	8.59141184e-03
2.50000000e-04	0.00000000e+00	0.00000000e+00
5.00000000e-04	0.00000000e+00	0.00000000e+00
7.50000000e-04	0.00000000e+00	0.00000000e+00
1.00000000e-03	0.00000000e+00	0.00000000e+00
1.25000000e-03	0.00000000e+00	0.00000000e+00
1.50000000e-03	0.00000000e+00	0.00000000e+00
1.75000000e-03	0.00000000e+00	0.00000000e+00
2.00000000e-03	0.00000000e+00	0.00000000e+00
2.25000000e-03	0.00000000e+00	0.00000000e+00
2.50000000e-03	0.00000000e+00	0.00000000e+00
2.75000000e-03	0.00000000e+00	0.00000000e+00
3.00000000e-03	0.00000000e+00	0.00000000e+00
3.25000000e-03	3.63932394e+00	2.18141859e+00
3.50000000e-03	2.59895503e+00	6.99123393e-01
3.75000000e-03	1.93259328e+00	4.33677506e-01
4.00000000e-03	1.55095823e+00	3.08672430e-01
4.25000000e-03	1.05308249e+00	1.70555831e-01
4.50000000e-03	1.46146265e+00	2.58391353e-01
4.75000000e-03	1.38557405e+00	2.23798703e-01
5.00000000e-03	1.08975447e+00	1.62819083e-01
5.25000000e-03	9.34818843e-01	1.39347073e-01
5.50000000e-03	7.77019457e-01	1.10483168e-01
5.75000000e-03	6.72082641e-01	9.32417414e-02
6.00000000e-03	5.59533282e-01	7.28188260e-02
6.25000000e-03	4.84833959e-01	6.23315678e-02
6.50000000e-03	4.19258818e-01	5.30229855e-02
6.75000000e-03	3.56410473e-01	4.42444140e-02
7.00000000e-03	3.19194201e-01	3.80705917e-02
7.25000000e-03	2.82343653e-01	3.31077533e-02
7.50000000e-03	2.46118110e-01	2.80324550e-02
7.75000000e-03	2.20287079e-01	2.41228683e-02
8.00000000e-03	2.01416383e-01	2.14112851e-02
8.25000000e-03	1.77425186e-01	1.83578599e-02
8.50000000e-03	1.61635725e-01	1.62233483e-02
8.75000000e-03	1.47632545e-01	1.46161282e-02
9.00000000e-03	1.30756249e-01	1.28667513e-02
9.25000000e-03	1.19012036e-01	1.10899432e-02
9.50000000e-03	1.10108341e-01	9.97808562e-03
9.75000000e-03	1.01797225e-01	9.03991644e-03
1.00000000e-02	9.05832909e-02	8.01314219e-03
1.02500000e-02	8.56836469e-02	7.43272920e-03
1.05000000e-02	7.84323672e-02	6.63456541e-03
1.07500000e-02	7.37100324e-02	6.20234002e-03
1.10000000e-02	6.86696947e-02	5.40547396e-03
1.12500000e-02	6.22785645e-02	5.00474066e-03
1.15000000e-02	6.03407410e-02	4.66983725e-03
1.17500000e-02	5.57321916e-02	4.16133584e-03
1.20000000e-02	5.52161635e-02	4.08106089e-03
1.22500000e-02	5.34342846e-02	3.77137582e-03
1.25000000e-02	5.14329447e-02	3.66015427e-03
1.27500000e-02	4.81368638e-02	3.39029457e-03
1.30000000e-02	4.65819204e-02	3.18575405e-03
1.32500000e-02	4.40353269e-02	2.93508043e-03
1.35000000e-02	4.28401424e-02	2.86614951e-03
1.37500000e-02	4.02131685e-02	2.68574435e-03
1.40000000e-02	3.82081397e-02	2.51669828e-03
1.42500000e-02	3.68176778e-02	2.27622153e-03
1.45000000e-02	3.76982373e-02	2.36783451e-03
1.47500000e-02	3.39094611e-02	2.13169036e-03
1.50000000e-02	3.31070351e-02	2.02278475e-03
1.52500000e-02	3.21933398e-02	1.94146759e-03
1.55000000e-02	3.12990884e-02	1.80646138e-03
1.57500000e-02	2.98706406e-02	1.74820272e-03
1.60000000e-02	3.03534722e-02	1.74190952e-03
1.62500000e-02	2.84934374e-02	1.66417517e-03
1.65000000e-02	2.91587282e-02	1.65168047e-03
1.67500000e-02	2.86455414e-02	1.61576257e-03
1.70000000e-02	2.93097510e-02	1.65182702e-03
1.72500000e-02	2.81772443e-02	1.55858645e-03
1.75000000e-02	2.75883291e-02	1.52895212e-03
1.77500000e-02	2.62392986e-02	1.41449346e-03
1.80000000e-02	2.66617240e-02	1.46389140e-03
1.82500000e-02	2.62469898e-02	1.38431879e-03
1.85000000e-02	2.64134974e-02	1.42948657e-03
1.87500000e-02	2.65536138e-02	1.39040416e-03
1.90000000e-02	2.62895229e-02	1.38531911e-03
1.92500000e-02	2.52588164e-02	1.31205483e-03
1.95000000e-02	2.51472749e-02	1.29151229e-03
1.97500000e-02	2.55240764e-02	1.31619946e-03
2.00000000e-02	2.60791309e-02	1.33534347e-03
2.02500000e-02	2.44403474e-02	1.25142780e-03
2.05000000e-02	2.51260328e-02	1.24659002e-03
2.07500000e-02	2.46562048e-02	1.22045747e-03
2.10000000e-02	2.47034257e-02	1.24880334e-03
2.12500000e-02	2.44410701e-02	1.24733304e-03
2.15000000e-02	2.37113972e-02	1.19090930e-03
2.17500000e-02	2.33149623e-02	1.17488775e-03
2.20000000e-02	2.34976868e-02	1.20722007e-03
2.22500000e-02	2.39531608e-02	1.21132089e-03
2.25000000e-02	2.37109962e-02	1.21352111e-03
2.27500000e-02	2.27736457e-02	1.13744616e-03
2.30000000e-02	2.36663152e-02	1.18391190e-03
2.32500000e-02	2.40029019e-02	1.19749400e-03
2.35000000e-02	2.33115993e-02	1.19620609e-03
2.37500000e-02	2.29022707e-02	1.13685767e-03
2.40000000e-02	2.31052287e-02	1.14904958e-03
2.42500000e-02	2.27910608e-02	1.13880022e-03
2.45000000e-02	2.28918925e-02	1.15617121e-03
2.47500000e-02	2.22468088e-02	1.11918360e-03
2.50000000e-02	2.36247588e-02	1.17086266e-03
2.52500000e-02	2.29897014e-02	1.16659417e-03
2.55000000e-02	2.17955338e-02	1.06903873e-03
2.57500000e-02	2.19079259e-02	1.07862631e-03
2.60000000e-02	2.31198786e-02	1.13567165e-03
2.62500000e-02	2.23534254e-02	1.10476254e-03
2.65000000e-02	2.25649415e-02	1.11850737e-03
2.67500000e-02	2.26324557e-02	1.11614236e-03
2.70000000e-02	2.18551686e-02	1.09393066e-03
2.72500000e-02	2.22487540e-02	1.08558004e-03
2.75000000e-02	2.30173776e-02	1.14488542e-03
2.77500000e-02	2.13044086e-02	1.05726367e-03
2.80000000e-02	2.27131996e-02	1.09342476e-03
2.82500000e-02	2.26518243e-02	1.09281963e-03
2.85000000e-02	2.27628814e-02	1.09425884e-03
2.87500000e-02	2.16981502e-02	1.06715738e-03
2.90000000e-02	2.31376197e-02	1.12111094e-03
2.92500000e-02	2.34083798e-02	1.10307491e-03
2.95000000e-02	2.28611775e-02	1.11431006e-03
2.97500000e-02	2.33641342e-02	1.11177212e-03
3.00000000e-02	2.31072971e-02	1.12258666e-03
3.02500000e-02	2.31049350e-02	1.10365020e-03
3.05000000e-02	2.31798349e-02	1.09533952e-03
3.07500000e-02	2.30232289e-02	1.09180597e-03
3.10000000e-02	2.31861933e-02	1.09560860e-03
3.12500000e-02	2.35635773e-02	1.11640017e-03
3.15000000e-02	2.26351778e-02	1.07059957e-03
3.17500000e-02	2.31036036e-02	1.07163099e-03
3.20000000e-02	2.40249692e-02	1.13040101e-03
3.22500000e-02	2.20575308e-02	1.04303790e-03
3.25000000e-02	2.33295343e-02	1.10037954e-03
3.27500000e-02	2.23789572e-02	1.03754624e-03
3.30000000e-02	2.20532787e-02	1.02234795e-03
3.32500000e-02	2.23633243e-02	1.03950962e-03
3.35000000e-02	2.23914839e-02	1.04258417e-03
3.37500000e-02	2.31611110e-02	1.06438536e-03
3.40000000e-02	2.22545855e-02	1.03342742e-03
3.42500000e-02	2.20089113e-02	1.00840008e-03
3.45000000e-02	2.15169260e-02	1.00811468e-03
3.47500000e-02	2.14985331e-02	9.93781016e-04
3.50000000e-02	2.29858032e-02	1.05179547e-03
3.52500000e-02	2.20158906e-02	1.01435385e-03
3.55000000e-02	2.22701140e-02	1.01031962e-03
3.57500000e-02	2.17789491e-02	9.86485617e-04
3.60000000e-02	2.14370250e-02	9.68433180e-04
3.62500000e-02	2.19044209e-02	9.93604194e-04
3.65000000e-02	2.22107197e-02	1.00419545e-03
3.67500000e-02	2.18160115e-02	9.93229374e-04
3.70000000e-02	2.23413647e-02	1.00215548e-03
3.72500000e-02	2.10689522e-02	9.51798241e-04
3.75000000e-02	2.05193239e-02	9.30203162e-04
3.77500000e-02	2.21010784e-02	9.79149675e-04
3.80000000e-02	2.09810892e-02	9.36507105e-04
3.82500000e-02	2.12651127e-02	9.37718314e-04
3.85000000e-02	2.05992755e-02	9.23777927e-04
3.87500000e-02	2.12669264e-02	9.46322962e-04
3.90000000e-02	2.15213642e-02	9.58158529e-04
3.92500000e-02	2.09934368e-02	9.11238101e-04
3.95000000e-02	2.19048888e-02	9.67795145e-04
3.97500000e-02	2.04245670e-02	9.09239706e-04
4.00000000e-02	2.08089131e-02	9.12259315e-04
4.02500000e-02	2.20698824e-02	9.61294538e-04
4.05000000e-02	2.16236830e-02	9.42534810e-04
4.07500000e-02	2.14405949e-02	9.18727310e-04
4.10000000e-02	2.10762539e-02	9.26145968e-04
4.12500000e-02	2.11556866e-02	9.18178591e-04
4.15000000e-02	2.13678022e-02	9.15678502e-04
4.17500000e-02	2.08790936e-02	8.93311649e-04
4.20000000e-02	2.08140740e-02	8.95440625e-04
4.22500000e-02	2.09382785e-02	8.94331645e-04
4.25000000e-02	2.09425621e-02	8.85009371e-04
4.27500000e-02	2.11876075e-02	9.00404302e-04
4.30000000e-02	2.09810882e-02	8.92699252e-04
4.32500000e-02	2.06461575e-02	8.75702644e-04
4.35000000e-02	2.09295709e-02	8.90002322e-04
4.37500000e-02	2.09625324e-02	8.88060859e-04
4.40000000e-02	2.15741212e-02	9.04807174e-04
4.42500000e-02	2.10788533e-02	8.92927854e-04
4.45000000e-02	2.11820085e-02	8.91202584e-04
4.47500000e-02	2.09471841e-02	8.75495958e-04
4.50000000e-02	2.12244687e-02	8.83051906e-04
4.52500000e-02	2.06878704e-02	8.69518906e-04
4.55000000e-02	2.11303936e-02	8.78010301e-04
4.57500000e-02	2.16189445e-02	8.85701109e-04
4.60000000e-02	2.12733080e-02	8.83461858e-04
4.62500000e-02	2.10144878e-02	8.64914723e-04
4.65000000e-02	2.10208601e-02	8.67593053e-04
4.67500000e-02	2.10555525e-02	8.57734586e-04
4.70000000e-02	2.04538504e-02	8.34845055e-04
4.72500000e-02	2.07824450e-02	8.58778104e-04
4.75000000e-02	2.05901079e-02	8.59444706e-04
4.77500000e-02	2.09118633e-02	8.52822253e-04
4.80000000e-02	2.05596822e-02	8.39968324e-04
4.82500000e-02	2.14892897e-02	8.66542750e-04
4.85000000e-02	2.13911325e-02	8.74382814e-04
4.87500000e-02	2.09971511e-02	8.56480231e-04
4.90000000e-02	2.14290650e-02	8.62209856e-04
4.92500000e-02	2.07108621e-02	8.41491660e-04
4.95000000e-02	2.09602736e-02	8.49515088e-04
4.97500000e-02	2.12398890e-02	8.58360932e-04
5.00000000e-02	2.06447507e-02	8.45087477e-04
5.02500000e-02	2.05417363e-02	8.15833134e-04
5.05000000e-02	2.12283948e-02	8.39964556e-04
5.07500000e-02	2.11591280e-02	8.45335245e-04
5.10000000e-02	2.09658766e-02	8.29032121e-04
5.12500000e-02	2.12011271e-02	8.51476386e-04
5.15000000e-02	2.04116256e-02	8.03414205e-04
5.17500000e-02	2.09978266e-02	8.36483556e-04
5.20000000e-02	2.08822408e-02	8.22267272e-04
5.22500000e-02	2.07921766e-02	8.28399588e-04
5.25000000e-02	2.16241018e-02	8.45758677e-04
5.27500000e-02	2.04546477e-02	7.95875113e-04
5.30000000e-02	1.96543501e-02	7.78678887e-04
5.32500000e-02	2.04614448e-02	8.07528810e-04
5.35000000e-02	2.09875195e-02	8.23584720e-04
5.37500000e-02	2.01626316e-02	7.84683936e-04
5.40000000e-02	2.10350115e-02	8.26098987e-04
5.42500000e-02	2.01490410e-02	7.82811368e-04
5.45000000e-02	2.08781903e-02	8.12779970e-04
5.47500000e-02	2.00460001e-02	7.75858547e-04
5.50000000e-02	2.11563361e-02	8.21962817e-04
5.52500000e-02	2.04693514e-02	7.89142069e-04
5.55000000e-02	1.99385383e-02	7.70216918e-04
5.57500000e-02	2.07064709e-02	7.97622775e-04
5.60000000e-02	2.05514153e-02	7.81198393e-04
5.62500000e-02	2.07837978e-02	8.05753555e-04
5.65000000e-02	2.05305368e-02	7.82580679e-04
5.67500000e-02	2.02517047e-02	7.73439072e-04
5.70000000e-02	2.08803936e-02	7.90872302e-04
5.72500000e-02	2.08311081e-02	7.86525483e-04
5.75000000e-02	2.02956403e-02	7.74432446e-04
5.77500000e-02	2.06514990e-02	7.72338394e-04
5.80000000e-02	2.05294263e-02	7.83383294e-04
5.82500000e-02	2.01688216e-02	7.56283000e-04
5.85000000e-02	1.99859755e-02	7.56153417e-04
5.87500000e-02	2.02690902e-02	7.64676605e-04
5.90000000e-02	2.05996907e-02	7.74575675e-04
5.92500000e-02	2.01323473e-02	7.53917314e-04
5.95000000e-02	2.00810032e-02	7.48037354e-04
5.97500000e-02	2.05359775e-02	7.70799487e-04
6.00000000e-02	2.05676865e-02	7.74446716e-04
6.02500000e-02	2.02421050e-02	7.54446501e-04
6.05000000e-02	2.09006933e-02	7.69231870e-04
6.07500000e-02	2.03030411e-02	7.59517487e-04
6.10000000e-02	2.00853070e-02	7.42546580e-04
6.12500000e-02	2.02164905e-02	7.45330974e-04
6.15000000e-02	1.92801764e-02	7.14895790e-04
6.17500000e-02	2.02637553e-02	7.49624982e-04
6.20000000e-02	2.01330421e-02	7.46134310e-04
6.22500000e-02	2.03606039e-02	7.44415156e-04
6.25000000e-02	1.98884588e-02	7.32595478e-04
6.27500000e-02	2.04982399e-02	7.45859012e-04
6.30000000e-02	2.05213414e-02	7.47951539e-04
6.32500000e-02	2.04035777e-02	7.46033698e-04
6.35000000e-02	2.07392666e-02	7.55154138e-04
6.37500000e-02	2.02804812e-02	7.47551373e-04
6.40000000e-02	2.04004921e-02	7.41852070e-04
6.42500000e-02	1.94639641e-02	7.02286291e-04
6.45000000e-02	2.01744611e-02	7.29652982e-04
6.47500000e-02	1.98279429e-02	7.25255027e-04
6.50000000e-02	1.98495941e-02	7.20949395e-04
6.52500000e-02	1.99444821e-02	7.14336508e-04
6.55000000e-02	2.04113450e-02	7.34358706e-04
6.57500000e-02	2.00015407e-02	7.18343099e-04
6.60000000e-02	2.04958277e-02	7.32236690e-04
6.62500000e-02	2.02347852e-02	7.32610427e-04
6.65000000e-02	1.98586934e-02	7.12621531e-04
6.67500000e-02	1.97573314e-02	7.08917608e-04
6.70000000e-02	1.97345200e-02	7.02643873e-04
6.72500000e-02	2.02462913e-02	7.24180253e-04
6.75000000e-02	1.98754555e-02	7.03071185e-04
6.77500000e-02	1.99760011e-02	7.10913182e-04
6.80000000e-02	1.94951727e-02	6.98571868e-04
6.82500000e-02	1.99459136e-02	7.06089071e-04
6.85000000e-02	1.99810787e-02	7.07173836e-04
6.87500000e-02	2.03094759e-02	7.15693300e-04
6.90000000e-02	2.00998237e-02	7.01121618e-04
6.92500000e-02	1.99465602e-02	6.97862441e-04
6.95000000e-02	1.99014046e-02	7.01107127e-04
6.97500000e-02	2.01990253e-02	7.08388667e-04
7.00000000e-02	1.95898109e-02	6.90873850e-04
7.02500000e-02	2.01273003e-02	7.08796419e-04
7.05000000e-02	2.02283632e-02	7.07768612e-04
7.07500000e-02	1.97893469e-02	6.94524461e-04
7.10000000e-02	1.97977280e-02	6.92412284e-04
7.12500000e-02	1.94203849e-02	6.78247795e-04
7.15000000e-02	1.95646784e-02	6.76831494e-04
7.17500000e-02	1.95246347e-02	6.78552876e-04
7.20000000e-02	1.95566777e-02	6.82389032e-04
7.22500000e-02	1.94598809e-02	6.73641426e-04
7.25000000e-02	2.02906873e-02	6.99609629e-04
7.27500000e-02	1.96093267e-02	6.75615657e-04
7.30000000e-02	2.01668644e-02	7.00172774e-04
7.32500000e-02	1.96160073e-02	6.73397380e-04
7.35000000e-02	2.02748368e-02	7.00430583e-04
7.37500000e-02	1.96360954e-02	6.72244733e-04
7.40000000e-02	2.02065292e-02	6.95821062e-04
7.42500000e-02	1.97330225e-02	6.79899091e-04
7.45000000e-02	2.01073446e-02	6.81128629e-04
7.47500000e-02	1.98105297e-02	6.80340714e-04
7.50000000e-02	1.97552596e-02	6.75362715e-04
7.52500000e-02	2.01111102e-02	6.84362613e-04
7.55000000e-02	2.01374218e-02	6.85287248e-04
7.57500000e-02	1.98853492e-02	6.76183858e-04
7.60000000e-02	1.96744521e-02	6.65173992e-04
7.62500000e-02	1.95235200e-02	6.58516230e-04
7.65000000e-02	2.01005660e-02	6.82526117e-04
7.67500000e-02	2.05359120e-02	6.87258537e-04
7.70000000e-02	1.97298705e-02	6.61884101e-04
7.72500000e-02	2.02349743e-02	6.93619646e-04
7.75000000e-02	1.98626643e-02	6.89324198e-04
7.77500000e-02	1.99095726e-02	6.93968461e-04
7.80000000e-02	1.95742009e-02	6.82566369e-04
7.82500000e-02	1.97159897e-02	6.89714785e-04
7.85000000e-02	2.00870591e-02	7.08574575e-04
7.87500000e-02	2.02098185e-02	7.13831598e-04
7.90000000e-02	1.98362090e-02	7.03674517e-04
7.92500000e-02	1.96289071e-02	7.03187477e-04
7.95000000e-02	2.00735345e-02	7.17460445e-04
7.97500000e-02	2.01003863e-02	7.19210801e-04
8.00000000e-02	2.03598055e-02	7.25159279e-04
8.02500000e-02	2.06362894e-02	7.40015381e-04
8.05000000e-02	1.99720110e-02	7.17824019e-04
8.07500000e-02	2.02286565e-02	7.31790963e-04
8.10000000e-02	2.05402726e-02	7.37436036e-04
8.12500000e-02	2.01760874e-02	7.25377547e-04
8.15000000e-02	1.97068541e-02	7.12132729e-04
8.17500000e-02	1.99665165e-02	7.32337421e-04
8.20000000e-02	2.04893729e-02	7.45317997e-04
8.22500000e-02	1.98763825e-02	7.23609528e-04
8.25000000e-02	2.00622758e-02	7.26370617e-04
8.27500000e-02	1.98556278e-02	7.28331377e-04
8.30000000e-02	2.02880551e-02	7.37498788e-04
8.32500000e-02	1.96115125e-02	7.20275509e-04
8.35000000e-02	2.01845927e-02	7.47463677e-04
8.37500000e-02	1.98342771e-02	7.21526840e-04
8.40000000e-02	1.93212107e-02	7.16333259e-04
8.42500000e-02	1.95156798e-02	7.16604969e-04
8.45000000e-02	1.99063406e-02	7.31133645e-04
8.47500000e-02	1.97146073e-02	7.34943870e-04
8.50000000e-02	1.98045253e-02	7.25330066e-04
8.52500000e-02	2.02196189e-02	7.51403885e-04
8.55000000e-02	2.00317298e-02	7.44813939e-04
8.57500000e-02	1.98012722e-02	7.34599079e-04
8.60000000e-02	1.93322064e-02	7.28812760e-04
8.62500000e-02	1.97150675e-02	7.31496148e-04
8.65000000e-02	1.95068751e-02	7.16301011e-04
8.67500000e-02	1.96581985e-02	7.27412560e-04
8.70000000e-02	1.97445796e-02	7.18987801e-04
8.72500000e-02	1.96816259e-02	7.02753245e-04
8.75000000e-02	2.00881554e-02	7.08506591e-04
8.77500000e-02	1.96865788e-02	6.91338450e-04
8.80000000e-02	1.97997158e-02	7.03542719e-04
8.82500000e-02	1.95427487e-02	6.86001646e-04
8.85000000e-02	1.97433917e-02	6.84902408e-04
8.87500000e-02	2.01481350e-02	6.93870279e-04
8.90000000e-02	1.96040849e-02	6.77311239e-04
8.92500000e-02	1.99737495e-02	6.85522868e-04
8.95000000e-02	1.96139086e-02	6.74088071e-04
8.97500000e-02	1.98716588e-02	6.73343004e-04
9.00000000e-02	1.96799922e-02	6.67351684e-04
9.02500000e-02	1.95447202e-02	6.64062487e-04
9.05000000e-02	1.98080936e-02	6.74377737e-04
9.07500000e-02	1.97916194e-02	6.71304881e-04
9.10000000e-02	1.99744202e-02	6.67737070e-04
9.12500000e-02	2.00284034e-02	6.70570371e-04
9.15000000e-02	1.99745214e-02	6.70390768e-04
9.17500000e-02	1.94329517e-02	6.54959655e-04
9.20000000e-02	2.04332865e-02	6.85522673e-04
9.22500000e-02	1.99659129e-02	6.66377436e-04
9.25000000e-02	2.01285008e-02	6.65831492e-04
9.27500000e-02	2.02079473e-02	6.68163600e-04
9.30000000e-02	1.98435759e-02	6.54647718e-04
9.32500000e-02	1.98650830e-02	6.54788164e-04
9.35000000e-02	1.97460548e-02	6.52096822e-04
9.37500000e-02	1.97645107e-02	6.47047383e-04
9.40000000e-02	2.03867822e-02	6.67521678e-04
9.42500000e-02	1.96123488e-02	6.42795303e-04
9.45000000e-02	1.97283269e-02	6.41251376e-04
9.47500000e-02	1.97108556e-02	6.44158624e-04
9.50000000e-02	2.04238887e-02	6.67074188e-04
9.52500000e-02	1.96714555e-02	6.41002020e-04
9.55000000e-02	2.00972598e-02	6.49136804e-04
9.57500000e-02	1.94410792e-02	6.32195765e-04
9.60000000e-02	1.93371277e-02	6.27581804e-04
9.62500000e-02	2.00507089e-02	6.45145122e-04
9.65000000e-02	1.97061089e-02	6.37097850e-04
9.67500000e-02	1.98934719e-02	6.38972365e-04
9.70000000e-02	1.98851781e-02	6.36219005e-04
9.72500000e-02	2.00868538e-02	6.44415338e-04
9.75000000e-02	2.00048323e-02	6.38042230e-04
9.77500000e-02	2.00085011e-02	6.40478970e-04
9.80000000e-02	1.98662384e-02	6.36983862e-04
9.82500000e-02	1.96175921e-02	6.29205824e-04
9.85000000e-02	1.95646805e-02	6.23499855e-04
9.87500000e-02	1.97509168e-02	6.28525807e-04
9.90000000e-02	1.96912697e-02	6.23619146e-04
9.92500000e-02	1.98554463e-02	6.33096730e-04
9.95000000e-02	1.96210881e-02	6.21519028e-04
9.97500000e-02	1.96976889e-02	6.23390613e-04
1.00000000e-01	1.93775561e-02	4.97683549e-04
1.00500000e-01	1.94673225e-02	4.35223763e-04
1.01000000e-01	1.98615200e-02	4.39419995e-04
1.01500000e-01	1.95619050e-02	4.34833588e-04
1.02000000e-01	1.95589787e-02	4.28604969e-04
1.02500000e-01	1.94900870e-02	4.30353856e-04
1.03000000e-01	1.94986226e-02	4.28792459e-04
1.03500000e-01	1.95674242e-02	4.28152032e-04
1.04000000e-01	1.97537927e-02	4.29034919e-04
1.04500000e-01	1.93920552e-02	4.21284492e-04
1.05000000e-01	1.95093294e-02	4.22599342e-04
1.05500000e-01	1.95992724e-02	4.23896626e-04
1.06000000e-01	1.94848349e-02	4.20282956e-04
1.06500000e-01	1.99983728e-02	4.30272680e-04
1.07000000e-01	1.94710919e-02	4.24812976e-04
1.07500000e-01	1.96074488e-02	4.36527094e-04
1.08000000e-01	1.98638147e-02	4.47584908e-04
1.08500000e-01	1.98440365e-02	4.48331651e-04
1.09000000e-01	1.95191319e-02	4.42450064e-04
1.09500000e-01	1.93566784e-02	4.42451250e-04
1.10000000e-01	1.95899662e-02	4.41450787e-04
1.10500000e-01	1.97568958e-02	4.39084278e-04
1.11000000e-01	1.99109488e-02	4.32282970e-04
1.11500000e-01	1.94588661e-02	4.21668986e-04
1.12000000e-01	1.95548628e-02	4.19031478e-04
1.12500000e-01	1.99378590e-02	4.21405587e-04
1.13000000e-01	1.94811946e-02	4.14624202e-04
1.13500000e-01	1.97748822e-02	4.17177722e-04
1.14000000e-01	1.95641581e-02	4.12366115e-04
1.14500000e-01	2.00077018e-02	4.19132868e-04
1.15000000e-01	1.97214454e-02	4.11462475e-04
1.15500000e-01	1.94694070e-02	4.07412114e-04
1.16000000e-01	1.98351853e-02	4.12080940e-04
1.16500000e-01	1.96762520e-02	4.08422668e-04
1.17000000e-01	1.98348212e-02	4.10820480e-04
1.17500000e-01	1.94984443e-02	4.04113240e-04
1.18000000e-01	1.98037398e-02	4.10691024e-04
1.18500000e-01	1.97244346e-02	4.05160478e-04
1.19000000e-01	1.93593740e-02	3.96767398e-04
1.19500000e-01	1.94920427e-02	3.98340241e-04
1.20000000e-01	1.97892623e-02	4.03215871e-04
1.20500000e-01	1.98359941e-02	4.02450789e-04
1.21000000e-01	1.99482597e-02	4.04610860e-04
1.21500000e-01	1.93899269e-02	3.92952818e-04
1.22000000e-01	1.98189669e-02	4.00309071e-04
1.22500000e-01	1.98099422e-02	4.00051212e-04
1.23000000e-01	1.97782124e-02	3.98856302e-04
1.23500000e-01	1.96371833e-02	3.94118232e-04
1.24000000e-01	1.96558503e-02	3.93670452e-04
1.24500000e-01	1.95029374e-02	3.87937109e-04
1.25000000e-01	1.96661583e-02	3.94155941e-04
1.25500000e-01	1.95670872e-02	3.90255802e-04
1.26000000e-01	1.95840960e-02	3.89818905e-04
1.26500000e-01	1.95097939e-02	3.88150595e-04
1.27000000e-01	1.94889110e-02	3.87066830e-04
1.27500000e-01	1.97698900e-02	3.89494450e-04
1.28000000e-01	1.96465629e-02	3.88749895e-04
1.28500000e-01	1.96565516e-02	3.86975869e-04
1.29000000e-01	1.96193093e-02	3.85390095e-04
1.29500000e-01	1.94178464e-02	3.80780201e-04
1.30000000e-01	1.95446618e-02	3.81083997e-04
1.30500000e-01	1.96064426e-02	3.81976595e-04
1.31000000e-01	1.94126348e-02	3.79695244e-04
1.31500000e-01	1.97127661e-02	3.82015136e-04
1.32000000e-01	1.96035722e-02	3.79937565e-04
1.32500000e-01	1.95424178e-02	3.77928858e-04
1.33000000e-01	1.94742147e-02	3.77458997e-04
1.33500000e-01	1.93387927e-02	3.70692270e-04
1.34000000e-01	1.92687914e-02	3.70063063e-04
1.34500000e-01	1.95811938e-02	3.73918905e-04
1.35000000e-01	1.96085871e-02	3.73503503e-04
1.35500000e-01	1.95221661e-02	3.69954207e-04
1.36000000e-01	1.97518030e-02	3.74955660e-04
1.36500000e-01	1.95669757e-02	3.71966526e-04
1.37000000e-01	1.94259418e-02	3.67475615e-04
1.37500000e-01	1.97488920e-02	3.74391925e-04
1.38000000e-01	1.94944721e-02	3.67084489e-04
1.38500000e-01	1.93270229e-02	3.64976248e-04
1.39000000e-01	1.94494476e-02	3.68245436e-04
1.39500000e-01	1.94844437e-02	3.66120260e-04
1.40000000e-01	1.94020360e-02	3.65712793e-04
1.40500000e-01	1.93094989e-02	3.63162685e-04
1.41000000e-01	1.96570800e-02	3.69436819e-04
1.41500000e-01	1.93382744e-02	3.64269950e-04
1.42000000e-01	1.97270096e-02	3.67616908e-04
1.42500000e-01	1.94950756e-02	3.64065535e-04
1.43000000e-01	1.94497074e-02	3.63009435e-04
1.43500000e-01	1.92479370e-02	3.57921306e-04
1.44000000e-01	1.95127351e-02	3.62554833e-04
1.44500000e-01	1.94033706e-02	3.59860691e-04
1.45000000e-01	1.96027791e-02	3.63204982e-04
1.45500000e-01	1.95539863e-02	3.60687230e-04
1.46000000e-01	1.96367867e-02	3.62388493e-04
1.46500000e-01	1.96206717e-02	3.61820814e-04
1.47000000e-01	1.93898411e-02	3.57206249e-04
1.47500000e-01	1.94680571e-02	3.58179480e-04
1.48000000e-01	1.94704674e-02	3.57932529e-04
1.48500000e-01	1.91679375e-02	3.52005140e-04
1.49000000e-01	1.93962935e-02	3.54586292e-04
1.49500000e-01	1.92239854e-02	3.51570636e-04
1.50000000e-01	1.95069323e-02	3.54707293e-04
1.50500000e-01	1.94459400e-02	3.54721510e-04
1.51000000e-01	1.91466889e-02	3.47391601e-04
1.51500000e-01	1.92658705e-02	3.48904006e-04
1.52000000e-01	1.94437533e-02	3.49532166e-04
1.52500000e-01	1.92310506e-02	3.48691932e-04
1.53000000e-01	1.93983903e-02	3.50010767e-04
1.53500000e-01	1.93923405e-02	3.48503583e-04
1.54000000e-01	1.93097641e-02	3.46673010e-04
1.54500000e-01	1.92286300e-02	3.51312518e-04
1.55000000e-01	1.91696185e-02	3.55974891e-04
1.55500000e-01	1.93160884e-02	3.59680464e-04
1.56000000e-01	1.90713941e-02	3.57779757e-04
1.56500000e-01	1.92194730e-02	3.59357149e-04
1.57000000e-01	1.91772463e-02	3.59296074e-04
1.57500000e-01	1.94358090e-02	3.58771597e-04
1.58000000e-01	1.92878360e-02	3.50628652e-04
1.58500000e-01	1.92654880e-02	3.46308560e-04
1.59000000e-01	1.90008194e-02	3.40969337e-04
1.59500000e-01	1.91465660e-02	3.43820655e-04
1.60000000e-01	1.93021015e-02	3.45218777e-04
1.60500000e-01	1.88197709e-02	3.36822426e-04
1.61000000e-01	1.93064335e-02	3.42456951e-04
1.61500000e-01	1.92379555e-02	3.43194101e-04
1.62000000e-01	1.90211679e-02	3.36799593e-04
1.62500000e-01	1.90165891e-02	3.38164942e-04
1.63000000e-01	1.90407743e-02	3.34698279e-04
1.63500000e-01	1.91989884e-02	3.39416925e-04
1.64000000e-01	1.89439063e-02	3.33090146e-04
1.64500000e-01	1.89605198e-02	3.32824578e-04
1.65000000e-01	1.91701071e-02	3.37068001e-04
1.65500000e-01	1.92172780e-02	3.35541807e-04
1.66000000e-01	1.89249478e-02	3.31891553e-04
1.66500000e-01	1.89382068e-02	3.30836126e-04
1.67000000e-01	1.92905087e-02	3.35451651e-04
1.67500000e-01	1.89729169e-02	3.29763727e-04
1.68000000e-01	1.90243218e-02	3.30621730e-04
1.68500000e-01	1.90839951e-02	3.31608220e-04
1.69000000e-01	1.89227722e-02	3.27259823e-04
1.69500000e-01	1.88019901e-02	3.25111524e-04
1.70000000e-01	1.86776117e-02	3.22616103e-04
1.70500000e-01	1.89020323e-02	3.24384943e-04
1.71000000e-01	1.88353878e-02	3.25330736e-04
1.71500000e-01	1.88425290e-02	3.25678872e-04
1.72000000e-01	1.89855380e-02	3.27461412e-04
1.72500000e-01	1.88402471e-02	3.22741692e-04
1.73000000e-01	1.89471747e-02	3.25335540e-04
1.73500000e-01	1.90933412e-02	3.24800452e-04
1.74000000e-01	1.89045441e-02	3.20765499e-04
1.74500000e-01	1.87388352e-02	3.18952821e-04
1.75000000e-01	1.88114429e-02	3.17528919e-04
1.75500000e-01	1.88860438e-02	3.18085984e-04
1.76000000e-01	1.87234463e-02	3.16255402e-04
1.76500000e-01	1.88537127e-02	3.17791180e-04
1.77000000e-01	1.88293143e-02	3.16323228e-04
1.77500000e-01	1.83979805e-02	3.10112179e-04
1.78000000e-01	1.88842526e-02	3.16685486e-04
1.78500000e-01	1.86262054e-02	3.13753648e-04
1.79000000e-01	1.88324063e-02	3.16107587e-04
1.79500000e-01	1.86760023e-02	3.14114449e-04
1.80000000e-01	1.87538748e-02	3.15137523e-04
1.80500000e-01	1.86384133e-02	3.11921523e-04
1.81000000e-01	1.85927630e-02	3.10793111e-04
1.81500000e-01	1.88275434e-02	3.12533419e-04
1.82000000e-01	1.89094495e-02	3.15189849e-04
1.82500000e-01	1.85726493e-02	3.09074743e-04
1.83000000e-01	1.87500845e-02	3.11551595e-04
1.83500000e-01	1.87504710e-02	3.11790736e-04
1.84000000e-01	1.85496774e-02	3.06995462e-04
1.84500000e-01	1.86971642e-02	3.09102374e-04
1.85000000e-01	1.87532521e-02	3.10730869e-04
1.85500000e-01	1.87894498e-02	3.10602534e-04
1.86000000e-01	1.84976394e-02	3.05076026e-04
1.86500000e-01	1.86572450e-02	3.07842873e-04
1.87000000e-01	1.83575116e-02	3.03282557e-04
1.87500000e-01	1.85350914e-02	3.05378557e-04
1.88000000e-01	1.85711281e-02	3.06692351e-04
1.88500000e-01	1.85979048e-02	3.05470037e-04
1.89000000e-01	1.84877047e-02	3.02921640e-04
1.89500000e-01	1.85763218e-02	3.03982319e-04
1.90000000e-01	1.86370035e-02	3.04597623e-04
1.90500000e-01	1.82947923e-02	2.98437666e-04
1.91000000e-01	1.83320897e-02	2.98109385e-04
1.91500000e-01	1.85307659e-02	3.02488687e-04
1.92000000e-01	1.87957845e-02	3.04242032e-04
1.92500000e-01	1.84731538e-02	3.00261828e-04
1.93000000e-01	1.83027722e-02	2.98204914e-04
1.93500000e-01	1.85191446e-02	3.00096373e-04
1.94000000e-01	1.86066363e-02	3.02589852e-04
1.94500000e-01	1.85040744e-02	2.98505118e-04
1.95000000e-01	1.84322398e-02	2.99281472e-04
1.95500000e-01	1.83134799e-02	2.95404790e-04
1.96000000e-01	1.82571836e-02	2.94715639e-04
1.96500000e-01	1.84635675e-02	2.97859704e-04
1.97000000e-01	1.82794013e-02	2.93970072e-04
1.97500000e-01	1.83222384e-02	2.94282442e-04
1.98000000e-01	1.84666631e-02	2.95892995e-04
1.98500000e-01	1.82772941e-02	2.92495026e-04
1.99000000e-01	1.82243044e-02	2.91619655e-04
1.99500000e-01	1.82735074e-02	2.92342316e-04
2.00000000e-01	1.82989720e-02	2.92248655e-04
2.00500000e-01	1.84535528e-02	2.93932200e-04
2.01000000e-01	1.83591574e-02	2.90880634e-04
2.01500000e-01	1.83138379e-02	2.92066935e-04
2.02000000e-01	1.82336540e-02	2.89282801e-04
2.02500000e-01	1.83058273e-02	2.90229644e-04
2.03000000e-01	1.82752633e-02	2.89062853e-04
2.03500000e-01	1.83588816e-02	2.90667414e-04
2.04000000e-01	1.81689445e-02	2.87424277e-04
2.04500000e-01	1.83351862e-02	2.89713347e-04
2.05000000e-01	1.81975499e-02	2.87057519e-04
2.05500000e-01	1.80601462e-02	2.85962482e-04
2.06000000e-01	1.82068178e-02	2.86875297e-04
2.06500000e-01	1.81615252e-02	2.86317440e-04
2.07000000e-01	1.81122244e-02	2.84323256e-04
2.07500000e-01	1.80375425e-02	2.83020723e-04
2.08000000e-01	1.82628947e-02	2.86314709e-04
2.08500000e-01	1.80452282e-02	2.82525998e-04
2.09000000e-01	1.81105211e-02	2.83193501e-04
2.09500000e-01	1.81953470e-02	2.83375162e-04
2.10000000e-01	1.81407399e-02	2.83432798e-04
2.10500000e-01	1.80877978e-02	2.81847826e-04
2.11000000e-01	1.80758156e-02	2.80568878e-04
2.11500000e-01	1.81472618e-02	2.83145933e-04
2.12000000e-01	1.80736237e-02	2.80365456e-04
2.12500000e-01	1.83049687e-02	2.82856119e-04
2.13000000e-01	1.81934769e-02	2.81219521e-04
2.13500000e-01	1.79995879e-02	2.78863082e-04
2.14000000e-01	1.80218503e-02	2.78556982e-04
2.14500000e-01	1.80869144e-02	2.78706252e-04
2.15000000e-01	1.81557276e-02	2.80494090e-04
2.15500000e-01	1.80007646e-02	2.76771980e-04
2.16000000e-01	1.79056262e-02	2.75070433e-04
2.16500000e-01	1.81721547e-02	2.78176419e-04
2.17000000e-01	1.78506945e-02	2.79042952e-04
2.17500000e-01	1.80461670e-02	2.85528825e-04
2.18000000e-01	1.78014080e-02	2.81327152e-04
2.18500000e-01	1.79020350e-02	2.86210242e-04
2.19000000e-01	1.80528444e-02	2.90151280e-04
2.19500000e-01	1.80734643e-02	2.89087370e-04
2.20000000e-01	1.81076047e-02	2.93415207e-04
2.20500000e-01	1.77392006e-02	2.87835151e-04
2.21000000e-01	1.79896138e-02	2.92528097e-04
2.21500000e-01	1.78859204e-02	2.92191432e-04
2.22000000e-01	1.79806573e-02	2.92923548e-04
2.22500000e-01	1.79299100e-02	2.92478863e-04
2.23000000e-01	1.79349849e-02	2.93941393e-04
2.23500000e-01	1.78531530e-02	2.94375283e-04
2.24000000e-01	1.78408024e-02	2.94676569e-04
2.24500000e-01	1.77379409e-02	2.93364374e-04
2.25000000e-01	1.78547718e-02	2.94584681e-04
2.25500000e-01	1.81212489e-02	2.98954539e-04
2.26000000e-01	1.78175798e-02	2.96338756e-04
2.26500000e-01	1.76035711e-02	2.88395058e-04
2.27000000e-01	1.78615455e-02	2.88780654e-04
2.27500000e-01	1.78578941e-02	2.87031745e-04
2.28000000e-01	1.77440243e-02	2.83284259e-04
2.28500000e-01	1.77414760e-02	2.83545841e-04
2.29000000e-01	1.79956269e-02	2.84678904e-04
2.29500000e-01	1.79242835e-02	2.83029572e-04
2.30000000e-01	1.78336397e-02	2.81011071e-04
2.30500000e-01	1.75619034e-02	2.74525255e-04
2.31000000e-01	1.75461166e-02	2.75352384e-04
2.31500000e-01	1.79805597e-02	2.81168912e-04
2.32000000e-01	1.78285267e-02	2.77674719e-04
2.32500000e-01	1.77420696e-02	2.76389456e-04
2.33000000e-01	1.76628027e-02	2.73273246e-04
2.33500000e-01	1.78884874e-02	2.76832145e-04
2.34000000e-01	1.76487531e-02	2.73553536e-04
2.34500000e-01	1.75852374e-02	2.71435281e-04
2.35000000e-01	1.78564163e-02	2.76217087e-04
2.35500000e-01	1.76678555e-02	2.71436038e-04
2.36000000e-01	1.76549521e-02	2.70622606e-04
2.36500000e-01	1.77619160e-02	2.72257061e-04
2.37000000e-01	1.75632876e-02	2.69363197e-04
2.37500000e-01	1.77785825e-02	2.71293002e-04
2.38000000e-01	1.77028737e-02	2.69741762e-04
2.38500000e-01	1.76204203e-02	2.68128696e-04
2.39000000e-01	1.75375234e-02	2.65665936e-04
2.39500000e-01	1.75618706e-02	2.66911370e-04
2.40000000e-01	1.75583114e-02	2.65584632e-04
2.40500000e-01	1.76277496e-02	2.66568289e-04
2.41000000e-01	1.76198337e-02	2.65748310e-04
2.41500000e-01	1.77677369e-02	2.67321586e-04
2.42000000e-01	1.77921007e-02	2.67088605e-04
2.42500000e-01	1.76757944e-02	2.65078466e-04
2.43000000e-01	1.77475775e-02	2.65424128e-04
2.43500000e-01	1.76818131e-02	2.64363613e-04
2.44000000e-01	1.76110976e-02	2.62071922e-04
2.44500000e-01	1.76012683e-02	2.63280995e-04
2.45000000e-01	1.75408679e-02	2.61198109e-04
2.45500000e-01	1.76230850e-02	2.61929784e-04
2.46000000e-01	1.75976816e-02	2.61261943e-04
2.46500000e-01	1.76255421e-02	2.60506946e-04
2.47000000e-01	1.73973725e-02	2.58278345e-04
2.47500000e-01	1.75917356e-02	2.59667862e-04
2.48000000e-01	1.75793525e-02	2.59555825e-04
2.48500000e-01	1.74426784e-02	2.57366383e-04
2.49000000e-01	1.75250365e-02	2.58228888e-04
2.49500000e-01	1.75328103e-02	2.57452936e-04
2.50000000e-01	1.76161477e-02	2.59301999e-04
2.50500000e-01	1.77434197e-02	2.60955708e-04
2.51000000e-01	1.74970418e-02	2.57029300e-04
2.51500000e-01	1.73223401e-02	2.53676206e-04
2.52000000e-01	1.75735912e-02	2.58223628e-04
2.52500000e-01	1.76009201e-02	2.56663870e-04
2.53000000e-01	1.73811397e-02	2.53994351e-04
2.53500000e-01	1.74838479e-02	2.55478111e-04
2.54000000e-01	1.74227495e-02	2.54549951e-04
2.54500000e-01	1.71872030e-02	2.51457018e-04
2.55000000e-01	1.72840610e-02	2.51677483e-04
2.55500000e-01	1.73322469e-02	2.51905318e-04
2.56000000e-01	1.74711027e-02	2.53657536e-04
2.56500000e-01	1.74703364e-02	2.53472668e-04
2.57000000e-01	1.73576731e-02	2.51828786e-04
2.57500000e-01	1.74249210e-02	2.52419041e-04
2.58000000e-01	1.73135068e-02	2.50817575e-04
2.58500000e-01	1.72898427e-02	2.49888845e-04
2.59000000e-01	1.73046849e-02	2.50048761e-04
2.59500000e-01	1.75006790e-02	2.52312494e-04
2.60000000e-01	1.72096841e-02	2.48035608e-04
2.60500000e-01	1.73652461e-02	2.49830270e-04
2.61000000e-01	1.72216946e-02	2.47682058e-04
2.61500000e-01	1.72898779e-02	2.48896215e-04
2.62000000e-01	1.71675329e-02	2.46773873e-04
2.62500000e-01	1.72050986e-02	2.47425618e-04
2.63000000e-01	1.73895312e-02	2.48445879e-04
2.63500000e-01	1.73544820e-02	2.47435247e-04
2.64000000e-01	1.72284248e-02	2.47060245e-04
2.64500000e-01	1.70827238e-02	2.43783095e-04
2.65000000e-01	1.72497166e-02	2.45544708e-04
2.65500000e-01	1.73697955e-02	2.47580004e-04
2.66000000e-01	1.71639425e-02	2.43886755e-04
2.66500000e-01	1.74156858e-02	2.48052065e-04
2.67000000e-01	1.72635419e-02	2.45108850e-04
2.67500000e-01	1.70112067e-02	2.40733259e-04
2.68000000e-01	1.72909489e-02	2.44541293e-04
2.68500000e-01	1.71435388e-02	2.42769365e-04
2.69000000e-01	1.71159821e-02	2.42688178e-04
2.69500000e-01	1.72712422e-02	2.44293098e-04
2.70000000e-01	1.70668997e-02	2.40629560e-04
2.70500000e-01	1.72433586e-02	2.42531111e-04
2.71000000e-01	1.72557744e-02	2.42457237e-04
2.71500000e-01	1.70375602e-02	2.39496003e-04
2.72000000e-01	1.71680621e-02	2.40971096e-04
2.72500000e-01	1.71173293e-02	2.40050574e-04
2.73000000e-01	1.71617337e-02	2.40613238e-04
2.73500000e-01	1.72103420e-02	2.40897176e-04
2.74000000e-01	1.72010649e-02	2.40902258e-04
2.74500000e-01	1.71073055e-02	2.38739916e-04
2.75000000e-01	1.71869039e-02	2.39715182e-04
2.75500000e-01	1.72600735e-02	2.40678321e-04
2.76000000e-01	1.70064395e-02	2.37090458e-04
2.76500000e-01	1.71685785e-02	2.39624000e-04
2.77000000e-01	1.70840829e-02	2.36803878e-04
2.77500000e-01	1.70721745e-02	2.37870603e-04
2.78000000e-01	1.68625944e-02	2.34329340e-04
2.78500000e-01	1.70797956e-02	2.37801487e-04
2.79000000e-01	1.69244116e-02	2.35402391e-04
2.79500000e-01	1.69895029e-02	2.36223867e-04
2.80000000e-01	1.70507599e-02	2.36519624e-04
2.80500000e-01	1.70475270e-02	2.35254419e-04
2.81000000e-01	1.67563142e-02	2.32145726e-04
2.81500000e-01	1.69439839e-02	2.34158121e-04
2.82000000e-01	1.68405728e-02	2.33673196e-04
2.82500000e-01	1.70834611e-02	2.35810241e-04
2.83000000e-01	1.69409392e-02	2.32904149e-04
2.83500000e-01	1.68442626e-02	2.31409099e-04
2.84000000e-01	1.70257125e-02	2.34755771e-04
2.84500000e-01	1.69500994e-02	2.32893752e-04
2.85000000e-01	1.67801263e-02	2.30930561e-04
2.85500000e-01	1.68406134e-02	2.31317340e-04
2.86000000e-01	1.68991158e-02	2.31697318e-04
2.86500000e-01	1.70453459e-02	2.33611008e-04
2.87000000e-01	1.72316786e-02	2.35280865e-04
2.87500000e-01	1.68127710e-02	2.28649677e-04
2.88000000e-01	1.68885809e-02	2.29687168e-04
2.88500000e-01	1.68204637e-02	2.30135243e-04
2.89000000e-01	1.68894535e-02	2.30303453e-04
2.89500000e-01	1.66932803e-02	2.27439487e-04
2.90000000e-01	1.68672067e-02	2.30403129e-04
2.90500000e-01	1.67743059e-02	2.28338529e-04
2.91000000e-01	1.69345085e-02	2.29134715e-04
2.91500000e-01	1.70684378e-02	2.30077534e-04
2.92000000e-01	1.69115176e-02	2.27943243e-04
2.92500000e-01	1.66930805e-02	2.25576317e-04
2.93000000e-01	1.70474703e-02	2.29398632e-04
2.93500000e-01	1.68366967e-02	2.27666656e-04
2.94000000e-01	1.68393335e-02	2.27052599e-04
2.94500000e-01	1.67924283e-02	2.26893784e-04
2.95000000e-01	1.68653342e-02	2.26626529e-04
2.95500000e-01	1.67952041e-02	2.26313889e-04
2.96000000e-01	1.67806876e-02	2.25711475e-04
2.96500000e-01	1.69768388e-02	2.27529768e-04
2.97000000e-01	1.67691639e-02	2.25694543e-04
2.97500000e-01	1.69339462e-02	2.26547044e-04
2.98000000e-01	1.66909728e-02	2.24108153e-04
2.98500000e-01	1.67599329e-02	2.24978962e-04
2.99000000e-01	1.69039481e-02	2.24693857e-04
2.99500000e-01	1.68194707e-02	2.25682229e-04
3.00000000e-01	1.67845536e-02	2.24629515e-04
3.00500000e-01	1.69202372e-02	2.25572728e-04
3.01000000e-01	1.65727803e-02	2.21045912e-04
3.01500000e-01	1.66825715e-02	2.22232397e-04
3.02000000e-01	1.67117785e-02	2.22770897e-04
3.02500000e-01	1.68238089e-02	2.23774489e-04
3.03000000e-01	1.67889874e-02	2.22732081e-04
3.03500000e-01	1.65856477e-02	2.19918184e-04
3.04000000e-01	1.66999083e-02	2.22434613e-04
3.04500000e-01	1.68808774e-02	2.23294626e-04
3.05000000e-01	1.65685975e-02	2.20538818e-04
3.05500000e-01	1.68043572e-02	2.22263496e-04
3.06000000e-01	1.66284195e-02	2.19163656e-04
3.06500000e-01	1.65554665e-02	2.18650642e-04
3.07000000e-01	1.67228584e-02	2.19791849e-04
3.07500000e-01	1.67149645e-02	2.20775905e-04
3.08000000e-01	1.64971060e-02	2.18207202e-04
3.08500000e-01	1.64852739e-02	2.17392302e-04
3.09000000e-01	1.67176508e-02	2.19731594e-04
3.09500000e-01	1.66077477e-02	2.18632112e-04
3.10000000e-01	1.67441901e-02	2.20125630e-04
3.10500000e-01	1.66312942e-02	2.18516537e-04
3.11000000e-01	1.64512416e-02	2.16883722e-04
3.11500000e-01	1.63614609e-02	2.14484706e-04
3.12000000e-01	1.65025709e-02	2.16579036e-04
3.12500000e-01	1.66194331e-02	2.17818556e-04
3.13000000e-01	1.67356684e-02	2.19089946e-04
3.13500000e-01	1.66071712e-02	2.17271529e-04
3.14000000e-01	1.65739513e-02	2.16285578e-04
3.14500000e-01	1.65206449e-02	2.15377297e-04
3.15000000e-01	1.64762800e-02	2.15696672e-04
3.15500000e-01	1.65131115e-02	2.14894093e-04
3.16000000e-01	1.63518204e-02	2.13668821e-04
3.16500000e-01	1.64974542e-02	2.14604144e-04
3.17000000e-01	1.65511597e-02	2.15001448e-04
3.17500000e-01	1.63993802e-02	2.13792459e-04
3.18000000e-01	1.63849441e-02	2.11980501e-04
3.18500000e-01	1.65954268e-02	2.15686688e-04
3.19000000e-01	1.64998056e-02	2.14013129e-04
3.19500000e-01	1.64459937e-02	2.13459531e-04
3.20000000e-01	1.65014781e-02	2.13445385e-04
3.20500000e-01	1.64672827e-02	2.13074587e-04
3.21000000e-01	1.64358748e-02	2.12004538e-04
3.21500000e-01	1.63665833e-02	2.11243416e-04
3.22000000e-01	1.65197336e-02	2.12960845e-04
3.22500000e-01	1.64388442e-02	2.12597026e-04
3.23000000e-01	1.63356717e-02	2.10391848e-04
3.23500000e-01	1.61914576e-02	2.09223112e-04
3.24000000e-01	1.62716976e-02	2.09136369e-04
3.24500000e-01	1.63298817e-02	2.10818178e-04
3.25000000e-01	1.63846287e-02	2.10125846e-04
3.25500000e-01	1.65035443e-02	2.11659182e-04
3.26000000e-01	1.64587192e-02	2.11335394e-04
3.26500000e-01	1.63668677e-02	2.09647868e-04
3.27000000e-01	1.63607212e-02	2.09728212e-04
3.27500000e-01	1.63062471e-02	2.09182312e-04
3.28000000e-01	1.63137005e-02	2.09311954e-04
3.28500000e-01	1.63197236e-02	2.08453868e-04
3.29000000e-01	1.63516031e-02	2.09296026e-04
3.29500000e-01	1.61669825e-02	2.07285841e-04
3.30000000e-01	1.62301433e-02	2.06759209e-04
3.30500000e-01	1.59759494e-02	2.04755156e-04
3.31000000e-01	1.62731180e-02	2.07098524e-04
3.31500000e-01	1.61115523e-02	2.04376950e-04
3.32000000e-01	1.61319602e-02	2.05749332e-04
3.32500000e-01	1.63207543e-02	2.07384591e-04
3.33000000e-01	1.61587777e-02	2.05770253e-04
3.33500000e-01	1.61159238e-02	2.04819786e-04
3.34000000e-01	1.61644566e-02	2.05262847e-04
3.34500000e-01	1.62396043e-02	2.06308956e-04
3.35000000e-01	1.60406529e-02	2.02565631e-04
3.35500000e-01	1.61942449e-02	2.06084592e-04
3.36000000e-01	1.60171202e-02	2.02336511e-04
3.36500000e-01	1.59999519e-02	2.03144741e-04
3.37000000e-01	1.62080333e-02	2.04022908e-04
3.37500000e-01	1.60635346e-02	2.02904118e-04
3.38000000e-01	1.61530810e-02	2.04222281e-04
3.38500000e-01	1.59711606e-02	2.01289880e-04
3.39000000e-01	1.61932251e-02	2.04163749e-04
3.39500000e-01	1.61208234e-02	2.02911042e-04
3.40000000e-01	1.58711655e-02	2.00080695e-04
3.40500000e-01	1.60730227e-02	2.02101708e-04
3.41000000e-01	1.62006316e-02	2.03000097e-04
3.41500000e-01	1.60104129e-02	2.01636108e-04
3.42000000e-01	1.58964544e-02	1.98913126e-04
3.42500000e-01	1.60807339e-02	2.02254421e-04
3.43000000e-01	1.60821914e-02	2.01442502e-04
3.43500000e-01	1.58519776e-02	1.97840251e-04
3.44000000e-01	1.59513218e-02	2.00815808e-04
3.44500000e-01	1.58435166e-02	1.97908248e-04
3.45000000e-01	1.58942623e-02	1.98622743e-04
3.45500000e-01	1.59314107e-02	1.98391492e-04
3.46000000e-01	1.58185231e-02	1.98328405e-04
3.46500000e-01	1.60898519e-02	2.00223085e-04
3.47000000e-01	1.59281803e-02	1.98558283e-04
3.47500000e-01	1.58003003e-02	1.97468557e-04
3.48000000e-01	1.60342887e-02	1.99857364e-04
3.48500000e-01	1.58417786e-02	1.97969314e-04
3.49000000e-01	1.58919418e-02	1.97158256e-04
3.49500000e-01	1.60113952e-02	1.99184590e-04
3.50000000e-01	1.58202878e-02	1.60297047e-04
3.51000000e-01	1.58125372e-02	1.38696925e-04
3.52000000e-01	1.58878530e-02	1.39252931e-04
3.53000000e-01	1.58177120e-02	1.37806848e-04
3.54000000e-01	1.58230959e-02	1.37645339e-04
3.55000000e-01	1.58207209e-02	1.37845985e-04
3.56000000e-01	1.58283368e-02	1.38398221e-04
3.57000000e-01	1.57613261e-02	1.40165679e-04
3.58000000e-01	1.57510314e-02	1.41371828e-04
3.59000000e-01	1.57925937e-02	1.43084079e-04
3.60000000e-01	1.56982062e-02	1.43469562e-04
3.61000000e-01	1.56367719e-02	1.43085943e-04
3.62000000e-01	1.56317822e-02	1.43338381e-04
3.63000000e-01	1.56319681e-02	1.44086368e-04
3.64000000e-01	1.55543612e-02	1.44193052e-04
3.65000000e-01	1.55312438e-02	1.44577746e-04
3.66000000e-01	1.55276587e-02	1.42370817e-04
3.67000000e-01	1.55632546e-02	1.41085356e-04
3.68000000e-01	1.55574158e-02	1.39554152e-04
3.69000000e-01	1.55859052e-02	1.39604779e-04
3.70000000e-01	1.54936139e-02	1.38138086e-04
3.71000000e-01	1.54890253e-02	1.39567605e-04
3.72000000e-01	1.54658098e-02	1.40645038e-04
3.73000000e-01	1.55912002e-02	1.41809937e-04
3.74000000e-01	1.55507007e-02	1.41426029e-04
3.75000000e-01	1.55217208e-02	1.41518899e-04
3.76000000e-01	1.54869752e-02	1.40868846e-04
3.77000000e-01	1.55729222e-02	1.41883526e-04
3.78000000e-01	1.53758331e-02	1.40077414e-04
3.79000000e-01	1.55446857e-02	1.41314088e-04
3.80000000e-01	1.53379928e-02	1.39708416e-04
3.81000000e-01	1.54452820e-02	1.40321346e-04
3.82000000e-01	1.54361801e-02	1.40282755e-04
3.83000000e-01	1.54885748e-02	1.40438512e-04
3.84000000e-01	1.53238622e-02	1.39276663e-04
3.85000000e-01	1.52944786e-02	1.39087029e-04
3.86000000e-01	1.53753445e-02	1.39609709e-04
3.87000000e-01	1.52407050e-02	1.38326217e-04
3.88000000e-01	1.53606711e-02	1.39471255e-04
3.89000000e-01	1.53090640e-02	1.39078057e-04
3.90000000e-01	1.52092522e-02	1.38432543e-04
3.91000000e-01	1.53003272e-02	1.38620916e-04
3.92000000e-01	1.52595197e-02	1.38478353e-04
3.93000000e-01	1.51365212e-02	1.37380184e-04
3.94000000e-01	1.51388410e-02	1.37341520e-04
3.95000000e-01	1.52188571e-02	1.37717869e-04
3.96000000e-01	1.53239379e-02	1.38791103e-04
3.97000000e-01	1.52636103e-02	1.38244661e-04
3.98000000e-01	1.52053917e-02	1.37709307e-04
3.99000000e-01	1.51333302e-02	1.37401384e-04
4.00000000e-01	1.51175987e-02	1.37317227e-04
4.01000000e-01	1.50574354e-02	1.36661133e-04
4.02000000e-01	1.52679959e-02	1.38278919e-04
4.03000000e-01	1.48953730e-02	1.35142050e-04
4.04000000e-01	1.51453053e-02	1.37330122e-04
4.05000000e-01	1.50315027e-02	1.36348850e-04
4.06000000e-01	1.50996819e-02	1.36629732e-04
4.07000000e-01	1.49912698e-02	1.35586042e-04
4.08000000e-01	1.52525464e-02	1.37956598e-04
4.09000000e-01	1.48913564e-02	1.34864445e-04
4.10000000e-01	1.50207632e-02	1.35865617e-04
4.11000000e-01	1.49090714e-02	1.34603765e-04
4.12000000e-01	1.49809394e-02	1.35628990e-04
4.13000000e-01	1.50393056e-02	1.36112781e-04
4.14000000e-01	1.48610568e-02	1.34468998e-04
4.15000000e-01	1.50135898e-02	1.35525147e-04
4.16000000e-01	1.48396292e-02	1.33914549e-04
4.17000000e-01	1.50422652e-02	1.35689660e-04
4.18000000e-01	1.49953419e-02	1.37122573e-04
4.19000000e-01	1.51063631e-02	1.39483212e-04
4.20000000e-01	1.49010668e-02	1.38539369e-04
4.21000000e-01	1.48650639e-02	1.38379233e-04
4.22000000e-01	1.50209593e-02	1.40305184e-04
4.23000000e-01	1.49964582e-02	1.40707869e-04
4.24000000e-01	1.48968196e-02	1.40356802e-04
4.25000000e-01	1.48907618e-02	1.40221700e-04
4.26000000e-01	1.48597999e-02	1.39963096e-04
4.27000000e-01	1.49759514e-02	1.40959707e-04
4.28000000e-01	1.50137835e-02	1.41568912e-04
4.29000000e-01	1.49549454e-02	1.41379334e-04
4.30000000e-01	1.50521093e-02	1.42060992e-04
4.31000000e-01	1.49340242e-02	1.41211813e-04
4.32000000e-01	1.48283167e-02	1.40420200e-04
4.33000000e-01	1.48532122e-02	1.40761905e-04
4.34000000e-01	1.48726689e-02	1.40915150e-04
4.35000000e-01	1.47995972e-02	1.40212633e-04
4.36000000e-01	1.48567253e-02	1.41440262e-04
4.37000000e-01	1.48530468e-02	1.41630993e-04
4.38000000e-01	1.48544652e-02	1.41808058e-04
4.39000000e-01	1.48864813e-02	1.41885576e-04
4.40000000e-01	1.46641386e-02	1.40145048e-04
4.41000000e-01	1.48106395e-02	1.41386284e-04
4.42000000e-01	1.45825261e-02	1.39929047e-04
4.43000000e-01	1.48403366e-02	1.41940991e-04
4.44000000e-01	1.47033857e-02	1.41452433e-04
4.45000000e-01	1.47540648e-02	1.42161464e-04
4.46000000e-01	1.47531121e-02	1.42074205e-04
4.47000000e-01	1.47059684e-02	1.40975310e-04
4.48000000e-01	1.48034010e-02	1.42282501e-04
4.49000000e-01	1.46948672e-02	1.41628117e-04
4.50000000e-01	1.48010477e-02	1.42953909e-04
4.51000000e-01	1.48325644e-02	1.43051023e-04
4.52000000e-01	1.46203252e-02	1.41696619e-04
4.53000000e-01	1.47232511e-02	1.42487893e-04
4.54000000e-01	1.47065829e-02	1.42534579e-04
4.55000000e-01	1.45786966e-02	1.41335006e-04
4.56000000e-01	1.47005621e-02	1.42520152e-04
4.57000000e-01	1.47013890e-02	1.43050688e-04
4.58000000e-01	1.45784782e-02	1.41867772e-04
4.59000000e-01	1.45465765e-02	1.41315071e-04
4.60000000e-01	1.45855289e-02	1.42222741e-04
4.61000000e-01	1.46083899e-02	1.42565264e-04
4.62000000e-01	1.46308013e-02	1.42630637e-04
4.63000000e-01	1.45399716e-02	1.42389929e-04
4.64000000e-01	1.45436497e-02	1.42475556e-04
4.65000000e-01	1.46696279e-02	1.43274778e-04
4.66000000e-01	1.44617321e-02	1.41633574e-04
4.67000000e-01	1.46143537e-02	1.43534214e-04
4.68000000e-01	1.44355714e-02	1.41810662e-04
4.69000000e-01	1.44980180e-02	1.42661227e-04
4.70000000e-01	1.43407716e-02	1.41302182e-04
4.71000000e-01	1.45486712e-02	1.42642084e-04
4.72000000e-01	1.44935586e-02	1.42100089e-04
4.73000000e-01	1.45175686e-02	1.42204802e-04
4.74000000e-01	1.45340796e-02	1.42088265e-04
4.75000000e-01	1.44297051e-02	1.41492469e-04
4.76000000e-01	1.44708142e-02	1.41953834e-04
4.77000000e-01	1.44762706e-02	1.42262670e-04
4.78000000e-01	1.44550882e-02	1.42331389e-04
4.79000000e-01	1.45052588e-02	1.42090361e-04
4.80000000e-01	1.45005048e-02	1.42179378e-04
4.81000000e-01	1.42484761e-02	1.40595991e-04
4.82000000e-01	1.44162065e-02	1.41624384e-04
4.83000000e-01	1.44150319e-02	1.41590477e-04
4.84000000e-01	1.41876300e-02	1.40196241e-04
4.85000000e-01	1.43470564e-02	1.41614443e-04
4.86000000e-01	1.43620744e-02	1.41857802e-04
4.87000000e-01	1.43869377e-02	1.41723804e-04
4.88000000e-01	1.41199097e-02	1.39593426e-04
4.89000000e-01	1.42687325e-02	1.40891662e-04
4.90000000e-01	1.44099372e-02	1.41904378e-04
4.91000000e-01	1.42771289e-02	1.41196741e-04
4.92000000e-01	1.42570591e-02	1.41261416e-04
4.93000000e-01	1.42642123e-02	1.41241093e-04
4.94000000e-01	1.42777852e-02	1.41355140e-04
4.95000000e-01	1.43031228e-02	1.43121582e-04
4.96000000e-01	1.43201790e-02	1.47340934e-04
4.97000000e-01	1.43627195e-02	1.49850849e-04
4.98000000e-01	1.41738683e-02	1.50442265e-04
4.99000000e-01	1.44146884e-02	1.54467274e-04
5.00000000e-01	1.42159847e-02	1.53934226e-04
5.01000000e-01	1.42287633e-02	1.55521174e-04
5.02000000e-01	1.42590612e-02	1.58394327e-04
5.03000000e-01	1.42630619e-02	1.59513249e-04
5.04000000e-01	1.42056861e-02	1.60016803e-04
5.05000000e-01	1.42432853e-02	1.57199152e-04
5.06000000e-01	1.43177820e-02	1.55178137e-04
5.07000000e-01	1.43922208e-02	1.54001476e-04
5.08000000e-01	1.42101174e-02	1.51158285e-04
5.09000000e-01	1.42448386e-02	1.51396382e-04
5.10000000e-01	1.42995238e-02	1.51195809e-04
5.11000000e-01	1.42102283e-02	1.49668147e-04
5.12000000e-01	1.41467554e-02	1.48737769e-04
5.13000000e-01	1.41197430e-02	1.48892101e-04
5.14000000e-01	1.42532698e-02	1.49055729e-04
5.15000000e-01	1.41557600e-02	1.47807684e-04
5.16000000e-01	1.41532710e-02	1.47769105e-04
5.17000000e-01	1.41106029e-02	1.47480029e-04
5.18000000e-01	1.40006068e-02	1.45831045e-04
5.19000000e-01	1.40256886e-02	1.45443864e-04
5.20000000e-01	1.41374373e-02	1.46335750e-04
5.21000000e-01	1.40252339e-02	1.45273242e-04
5.22000000e-01	1.42201665e-02	1.47092305e-04
5.23000000e-01	1.39634200e-02	1.44283322e-04
5.24000000e-01	1.41103956e-02	1.45866370e-04
5.25000000e-01	1.41537213e-02	1.46238844e-04
5.26000000e-01	1.40694416e-02	1.45508256e-04
5.27000000e-01	1.39831192e-02	1.44584531e-04
5.28000000e-01	1.39206667e-02	1.44156620e-04
5.29000000e-01	1.40670576e-02	1.45561066e-04
5.30000000e-01	1.38139595e-02	1.42483080e-04
5.31000000e-01	1.39810520e-02	1.44934509e-04
5.32000000e-01	1.39278922e-02	1.43963509e-04
5.33000000e-01	1.40494861e-02	1.44939866e-04
5.34000000e-01	1.39676332e-02	1.44504781e-04
5.35000000e-01	1.40824492e-02	1.45106170e-04
5.36000000e-01	1.39990085e-02	1.44427246e-04
5.37000000e-01	1.39425150e-02	1.44268771e-04
5.38000000e-01	1.39253611e-02	1.43654121e-04
5.39000000e-01	1.39293840e-02	1.43759918e-04
5.40000000e-01	1.38080197e-02	1.42830677e-04
5.41000000e-01	1.38923924e-02	1.43789380e-04
5.42000000e-01	1.39329893e-02	1.43537666e-04
5.43000000e-01	1.39056456e-02	1.43343664e-04
5.44000000e-01	1.37717885e-02	1.42447778e-04
5.45000000e-01	1.39169624e-02	1.43939067e-04
5.46000000e-01	1.38109360e-02	1.42728875e-04
5.47000000e-01	1.38942473e-02	1.43818413e-04
5.48000000e-01	1.37500214e-02	1.42214046e-04
5.49000000e-01	1.36572645e-02	1.40965312e-04
5.50000000e-01	1.38489131e-02	1.42909819e-04
5.51000000e-01	1.37547130e-02	1.42227695e-04
5.52000000e-01	1.39426013e-02	1.43370953e-04
5.53000000e-01	1.36999451e-02	1.40904689e-04
5.54000000e-01	1.37935602e-02	1.41662814e-04
5.55000000e-01	1.37639888e-02	1.41687981e-04
5.56000000e-01	1.37541499e-02	1.41412301e-04
5.57000000e-01	1.37878031e-02	1.41626408e-04
5.58000000e-01	1.35630693e-02	1.39579005e-04
5.59000000e-01	1.36230937e-02	1.40121943e-04
5.60000000e-01	1.36676834e-02	1.41055625e-04
5.61000000e-01	1.36449397e-02	1.40167175e-04
5.62000000e-01	1.36371104e-02	1.40025870e-04
5.63000000e-01	1.36347551e-02	1.39884196e-04
5.64000000e-01	1.36990966e-02	1.40695414e-04
5.65000000e-01	1.36512691e-02	1.40167058e-04
5.66000000e-01	1.35677687e-02	1.39596843e-04
5.67000000e-01	1.35938725e-02	1.40258924e-04
5.68000000e-01	1.36003529e-02	1.40343094e-04
5.69000000e-01	1.36412538e-02	1.39848072e-04
5.70000000e-01	1.37525297e-02	1.40928181e-04
5.71000000e-01	1.35366205e-02	1.38997411e-04
5.72000000e-01	1.35822875e-02	1.39053026e-04
5.73000000e-01	1.35078338e-02	1.39395754e-04
5.74000000e-01	1.35522242e-02	1.39049553e-04
5.75000000e-01	1.35898287e-02	1.40289592e-04
5.76000000e-01	1.34617183e-02	1.38436532e-04
5.77000000e-01	1.34983353e-02	1.39189047e-04
5.78000000e-01	1.35293684e-02	1.39432891e-04
5.79000000e-01	1.34618330e-02	1.39088740e-04
5.80000000e-01	1.35949922e-02	1.40267507e-04
5.81000000e-01	1.34909271e-02	1.38642839e-04
5.82000000e-01	1.35038437e-02	1.38966356e-04
5.83000000e-01	1.34346302e-02	1.38571105e-04
5.84000000e-01	1.32609745e-02	1.37272551e-04
5.85000000e-01	1.35156537e-02	1.39436093e-04
5.86000000e-01	1.32777612e-02	1.37311094e-04
5.87000000e-01	1.34710804e-02	1.38821283e-04
5.88000000e-01	1.34814152e-02	1.39163523e-04
5.89000000e-01	1.33827740e-02	1.38469330e-04
5.90000000e-01	1.34339649e-02	1.38915339e-04
5.91000000e-01	1.34095165e-02	1.38650838e-04
5.92000000e-01	1.31951406e-02	1.36412766e-04
5.93000000e-01	1.34542015e-02	1.39202374e-04
5.94000000e-01	1.33989289e-02	1.38630908e-04
5.95000000e-01	1.34278887e-02	1.38684104e-04
5.96000000e-01	1.32738494e-02	1.37582339e-04
5.97000000e-01	1.32873591e-02	1.37764820e-04
5.98000000e-01	1.31657995e-02	1.36666252e-04
5.99000000e-01	1.31952733e-02	1.36705495e-04
6.00000000e-01	1.32571178e-02	1.37000703e-04
6.01000000e-01	1.33596903e-02	1.38158725e-04
6.02000000e-01	1.31835270e-02	1.36845294e-04
6.03000000e-01	1.32457927e-02	1.37396754e-04
6.04000000e-01	1.32260206e-02	1.37002162e-04
6.05000000e-01	1.32173778e-02	1.37091511e-04
6.06000000e-01	1.32282699e-02	1.36928293e-04
6.07000000e-01	1.33573270e-02	1.38623509e-04
6.08000000e-01	1.31071905e-02	1.36134286e-04
6.09000000e-01	1.31853589e-02	1.36826863e-04
6.10000000e-01	1.32324645e-02	1.37346532e-04
6.11000000e-01	1.30930462e-02	1.35744645e-04
6.12000000e-01	1.31182783e-02	1.36069957e-04
6.13000000e-01	1.31392253e-02	1.36293648e-04
6.14000000e-01	1.31561805e-02	1.36829856e-04
6.15000000e-01	1.30438923e-02	1.35466080e-04
6.16000000e-01	1.30395173e-02	1.35768386e-04
6.17000000e-01	1.30494077e-02	1.35485282e-04
6.18000000e-01	1.31367790e-02	1.36332321e-04
6.19000000e-01	1.31924024e-02	1.36641456e-04
6.20000000e-01	1.31219808e-02	1.36083671e-04
6.21000000e-01	1.30101064e-02	1.34854912e-04
6.22000000e-01	1.30921931e-02	1.35362164e-04
6.23000000e-01	1.31257080e-02	1.35590058e-04
6.24000000e-01	1.30707362e-02	1.35002862e-04
6.25000000e-01	1.30030812e-02	1.34171753e-04
6.26000000e-01	1.30288964e-02	1.34255575e-04
6.27000000e-01	1.29862550e-02	1.33855668e-04
6.28000000e-01	1.29449204e-02	1.33367028e-04
6.29000000e-01	1.31832163e-02	1.35428476e-04
6.30000000e-01	1.28849431e-02	1.33198775e-04
6.31000000e-01	1.30972126e-02	1.34593322e-04
6.32000000e-01	1.30460448e-02	1.34677047e-04
6.33000000e-01	1.29945266e-02	1.33900563e-04
6.34000000e-01	1.30416795e-02	1.38213756e-04
6.35000000e-01	1.28285474e-02	1.39529516e-04
6.36000000e-01	1.31279616e-02	1.44919852e-04
6.37000000e-01	1.30717699e-02	1.47473694e-04
6.38000000e-01	1.29535434e-02	1.48122410e-04
6.39000000e-01	1.31056619e-02	1.51499911e-04
6.40000000e-01	1.28621291e-02	1.50560390e-04
6.41000000e-01	1.30654443e-02	1.53767917e-04
6.42000000e-01	1.30784686e-02	1.55965182e-04
6.43000000e-01	1.29421675e-02	1.54862240e-04
6.44000000e-01	1.30712764e-02	1.50862966e-04
6.45000000e-01	1.29632034e-02	1.47412102e-04
6.46000000e-01	1.31165977e-02	1.47553617e-04
6.47000000e-01	1.28879212e-02	1.43865393e-04
6.48000000e-01	1.28995155e-02	1.43577280e-04
6.49000000e-01	1.31242224e-02	1.45221719e-04
6.50000000e-01	1.29043632e-02	1.41691881e-04
6.51000000e-01	1.31053480e-02	1.43202179e-04
6.52000000e-01	1.30040077e-02	1.41877128e-04
6.53000000e-01	1.30443992e-02	1.41455268e-04
6.54000000e-01	1.29048327e-02	1.39873488e-04
6.55000000e-01	1.29280528e-02	1.39805210e-04
6.56000000e-01	1.31903525e-02	1.42222294e-04
6.57000000e-01	1.29824725e-02	1.40070190e-04
6.58000000e-01	1.28241539e-02	1.38127121e-04
6.59000000e-01	1.29003533e-02	1.38652765e-04
6.60000000e-01	1.28585582e-02	1.38673804e-04
6.61000000e-01	1.31190370e-02	1.40672950e-04
6.62000000e-01	1.29992005e-02	1.39554704e-04
6.63000000e-01	1.28744530e-02	1.38551119e-04
6.64000000e-01	1.29098725e-02	1.38145161e-04
6.65000000e-01	1.29187548e-02	1.38693261e-04
6.66000000e-01	1.28836623e-02	1.38489892e-04
6.67000000e-01	1.28630018e-02	1.37659272e-04
6.68000000e-01	1.28539254e-02	1.37443496e-04
6.69000000e-01	1.27175137e-02	1.36454222e-04
6.70000000e-01	1.28843576e-02	1.37894055e-04
6.71000000e-01	1.28187248e-02	1.37216014e-04
6.72000000e-01	1.28854024e-02	1.38092075e-04
6.73000000e-01	1.29115751e-02	1.37625415e-04
6.74000000e-01	1.28660070e-02	1.37684145e-04
6.75000000e-01	1.27848746e-02	1.36407471e-04
6.76000000e-01	1.26684466e-02	1.35844779e-04
6.77000000e-01	1.29065965e-02	1.37402916e-04
6.78000000e-01	1.28431632e-02	1.37375568e-04
6.79000000e-01	1.26778505e-02	1.36086103e-04
6.80000000e-01	1.27877715e-02	1.36488777e-04
6.81000000e-01	1.28835550e-02	1.36900781e-04
6.82000000e-01	1.27568430e-02	1.36128459e-04
6.83000000e-01	1.28157765e-02	1.36492552e-04
6.84000000e-01	1.26511476e-02	1.35600955e-04
6.85000000e-01	1.28047101e-02	1.36753102e-04
6.86000000e-01	1.27547906e-02	1.35626788e-04
6.87000000e-01	1.27456970e-02	1.35500470e-04
6.88000000e-01	1.26749611e-02	1.35261880e-04
6.89000000e-01	1.26953578e-02	1.35145733e-04
6.90000000e-01	1.26263602e-02	1.35046617e-04
6.91000000e-01	1.27652133e-02	1.35912237e-04
6.92000000e-01	1.28090956e-02	1.36606871e-04
6.93000000e-01	1.26403505e-02	1.34958047e-04
6.94000000e-01	1.25382779e-02	1.33846912e-04
6.95000000e-01	1.27054320e-02	1.35353748e-04
6.96000000e-01	1.25204939e-02	1.33956264e-04
6.97000000e-01	1.25566588e-02	1.33825131e-04
6.98000000e-01	1.25675659e-02	1.34421142e-04
6.99000000e-01	1.25447614e-02	1.33495518e-04
7.00000000e-01	1.26295534e-02	1.34498532e-04
7.01000000e-01	1.25819917e-02	1.34211706e-04
7.02000000e-01	1.26595539e-02	1.34766844e-04
7.03000000e-01	1.26101843e-02	1.34234830e-04
7.04000000e-01	1.24852345e-02	1.33616300e-04
7.05000000e-01	1.25827684e-02	1.34100613e-04
7.06000000e-01	1.25556952e-02	1.34485586e-04
7.07000000e-01	1.24702569e-02	1.33036778e-04
7.08000000e-01	1.25293847e-02	1.32678842e-04
7.09000000e-01	1.24293961e-02	1.32313985e-04
7.10000000e-01	1.24455492e-02	1.32612293e-04
7.11000000e-01	1.24209214e-02	1.33001640e-04
7.12000000e-01	1.24228592e-02	1.32206947e-04
7.13000000e-01	1.24727752e-02	1.32408308e-04
7.14000000e-01	1.25014436e-02	1.32840473e-04
7.15000000e-01	1.23930858e-02	1.32102893e-04
7.16000000e-01	1.24287291e-02	1.32546477e-04
7.17000000e-01	1.23525297e-02	1.31984226e-04
7.18000000e-01	1.22941203e-02	1.31500554e-04
7.19000000e-01	1.23981940e-02	1.32361590e-04
7.20000000e-01	1.22060625e-02	1.30113122e-04
7.21000000e-01	1.23653282e-02	1.31816118e-04
7.22000000e-01	1.23264348e-02	1.31862791e-04
7.23000000e-01	1.24391405e-02	1.32459198e-04
7.24000000e-01	1.22751431e-02	1.31322219e-04
7.25000000e-01	1.22594609e-02	1.30631778e-04
7.26000000e-01	1.23692946e-02	1.31700903e-04
7.27000000e-01	1.22753098e-02	1.30810335e-04
7.28000000e-01	1.22811047e-02	1.30990843e-04
7.29000000e-01	1.22147203e-02	1.30386617e-04
7.30000000e-01	1.23132981e-02	1.30962137e-04
7.31000000e-01	1.21800434e-02	1.29643421e-04
7.32000000e-01	1.21566275e-02	1.30020869e-04
7.33000000e-01	1.20848226e-02	1.29302332e-04
7.34000000e-01	1.21128786e-02	1.29202442e-04
7.35000000e-01	1.22127111e-02	1.29883836e-04
7.36000000e-01	1.20754778e-02	1.28453883e-04
7.37000000e-01	1.20793150e-02	1.28134671e-04
7.38000000e-01	1.21512213e-02	1.28217065e-04
7.39000000e-01	1.22530068e-02	1.29483852e-04
7.40000000e-01	1.20138757e-02	1.27799897e-04
7.41000000e-01	1.20650290e-02	1.27594173e-04
7.42000000e-01	1.21337110e-02	1.28082414e-04
7.43000000e-01	1.21429817e-02	1.27966782e-04
7.44000000e-01	1.21346009e-02	1.28279504e-04
7.45000000e-01	1.20419016e-02	1.27272515e-04
7.46000000e-01	1.20519914e-02	1.27276261e-04
7.47000000e-01	1.20367472e-02	1.27189492e-04
7.48000000e-01	1.20983837e-02	1.28261840e-04
7.49000000e-01	1.20788785e-02	1.27910411e-04
7.50000000e-01	1.20604712e-02	1.27647788e-04
7.51000000e-01	1.21505311e-02	1.28462329e-04
7.52000000e-01	1.20292865e-02	1.27752612e-04
7.53000000e-01	1.19632670e-02	1.26597075e-04
7.54000000e-01	1.20208700e-02	1.26715952e-04
7.55000000e-01	1.20144846e-02	1.27448862e-04
7.56000000e-01	1.20118611e-02	1.27083780e-04
7.57000000e-01	1.19523425e-02	1.26348286e-04
7.58000000e-01	1.19904693e-02	1.27144254e-04
7.59000000e-01	1.20419409e-02	1.27265725e-04
7.60000000e-01	1.19621310e-02	1.26130364e-04
7.61000000e-01	1.19997935e-02	1.26299582e-04
7.62000000e-01	1.18234472e-02	1.24238450e-04
7.63000000e-01	1.19422159e-02	1.25361622e-04
7.64000000e-01	1.18488846e-02	1.24685224e-04
7.65000000e-01	1.18865415e-02	1.24629684e-04
7.66000000e-01	1.18120760e-02	1.24192457e-04
7.67000000e-01	1.19015253e-02	1.25043506e-04
7.68000000e-01	1.18290771e-02	1.24438296e-04
7.69000000e-01	1.19001159e-02	1.25041738e-04
7.70000000e-01	1.18702850e-02	1.24678002e-04
7.71000000e-01	1.18703703e-02	1.24547628e-04
7.72000000e-01	1.18218565e-02	1.27556714e-04
7.73000000e-01	1.17633783e-02	1.31175428e-04
7.74000000e-01	1.17083717e-02	1.33210048e-04
7.75000000e-01	1.18395889e-02	1.37258238e-04
7.76000000e-01	1.18784227e-02	1.39543549e-04
7.77000000e-01	1.17612681e-02	1.40306666e-04
7.78000000e-01	1.18421406e-02	1.42617841e-04
7.79000000e-01	1.18249554e-02	1.44408414e-04
7.80000000e-01	1.15830380e-02	1.43388901e-04
7.81000000e-01	1.17414889e-02	1.47070900e-04
7.82000000e-01	1.16346164e-02	1.47031313e-04
7.83000000e-01	1.18289992e-02	1.51554244e-04
7.84000000e-01	1.17292880e-02	1.51698253e-04
7.85000000e-01	1.16353350e-02	1.52514223e-04
7.86000000e-01	1.18041343e-02	1.55855929e-04
7.87000000e-01	1.15587430e-02	1.54114063e-04
7.88000000e-01	1.16361675e-02	1.57073850e-04
7.89000000e-01	1.15649118e-02	1.57984725e-04
7.90000000e-01	1.15608909e-02	1.58929968e-04
7.91000000e-01	1.15952687e-02	1.61263205e-04
7.92000000e-01	1.16040181e-02	1.63366239e-04
7.93000000e-01	1.15338392e-02	1.64524716e-04
7.94000000e-01	1.15113143e-02	1.65010008e-04
7.95000000e-01	1.14955383e-02	1.66337530e-04
7.96000000e-01	1.14940723e-02	1.68769204e-04
7.97000000e-01	1.14644270e-02	1.69964132e-04
7.98000000e-01	1.15576236e-02	1.72808789e-04
7.99000000e-01	1.15188454e-02	1.73860891e-04
8.00000000e-01	1.16667820e-02	1.77718016e-04
8.01000000e-01	1.15767443e-02	1.78075873e-04
8.02000000e-01	1.14846175e-02	1.78596514e-04
8.03000000e-01	1.14842509e-02	1.80341081e-04
8.04000000e-01	1.13270585e-02	1.81123590e-04
8.05000000e-01	1.17171401e-02	1.87795448e-04
8.06000000e-01	1.13512031e-02	1.85025768e-04
8.07000000e-01	1.13710653e-02	1.87528347e-04
8.08000000e-01	1.15275675e-02	1.92133285e-04
8.09000000e-01	1.12818991e-02	1.89412640e-04
8.10000000e-01	1.13305937e-02	1.92989660e-04
8.11000000e-01	1.12974345e-02	1.93544391e-04
8.12000000e-01	1.12614930e-02	1.95813864e-04
8.13000000e-01	1.14562316e-02	2.02051807e-04
8.14000000e-01	1.11086251e-02	1.98050751e-04
8.15000000e-01	1.13536512e-02	2.04721873e-04
8.16000000e-01	1.10276039e-02	2.00876017e-04
8.17000000e-01	1.13348742e-02	2.08751006e-04
8.18000000e-01	1.14849855e-02	2.13134575e-04
8.19000000e-01	1.13374471e-02	2.13114540e-04
8.20000000e-01	1.11931830e-02	2.13307974e-04
8.21000000e-01	1.09976353e-02	2.13819744e-04
8.22000000e-01	1.12258416e-02	2.21664743e-04
8.23000000e-01	1.08587832e-02	2.16523014e-04
8.24000000e-01	1.09978691e-02	2.22872031e-04
8.25000000e-01	1.13673127e-02	2.34052962e-04
8.26000000e-01	1.10232009e-02	2.28775232e-04
8.27000000e-01	1.12519879e-02	2.38210204e-04
8.28000000e-01	1.11388807e-02	2.39643457e-04
8.29000000e-01	1.08066504e-02	2.36672098e-04
8.30000000e-01	1.09469844e-02	2.42982067e-04
8.31000000e-01	1.09348627e-02	2.47141856e-04
8.32000000e-01	1.08367805e-02	2.48501143e-04
8.33000000e-01	1.10583404e-02	2.56770021e-04
8.34000000e-01	1.11467851e-02	2.63056941e-04
8.35000000e-01	1.08606716e-02	2.60056378e-04
8.36000000e-01	1.07227096e-02	2.63397301e-04
8.37000000e-01	1.10650499e-02	2.75817551e-04
8.38000000e-01	1.06765723e-02	2.72340856e-04
8.39000000e-01	1.08495979e-02	2.82162815e-04
8.40000000e-01	1.06818657e-02	2.83076571e-04
8.41000000e-01	1.09963938e-02	2.99851531e-04
8.42000000e-01	1.07633220e-02	2.99604913e-04
8.43000000e-01	1.11766669e-02	3.19275098e-04
8.44000000e-01	1.06825540e-02	3.13988491e-04
8.45000000e-01	1.09955111e-02	3.26316855e-04
8.46000000e-01	1.07240767e-02	3.27023087e-04
8.47000000e-01	1.06214877e-02	3.38983529e-04
8.48000000e-01	1.08181544e-02	3.54927252e-04
8.49000000e-01	1.09030921e-02	3.66833762e-04
8.50000000e-01	1.10660647e-02	3.82735331e-04
8.51000000e-01	1.08077492e-02	3.96510274e-04
8.52000000e-01	1.04784922e-02	3.97543185e-04
8.53000000e-01	1.08663818e-02	4.26403331e-04
8.54000000e-01	1.05624167e-02	4.39688495e-04
8.55000000e-01	1.04600550e-02	4.42269690e-04
8.56000000e-01	1.03996893e-02	4.56561338e-04
8.57000000e-01	1.06261789e-02	4.76089726e-04
8.58000000e-01	1.03913204e-02	4.76497625e-04
8.59000000e-01	1.02757438e-02	4.85330397e-04
8.60000000e-01	1.09681605e-02	5.35071146e-04
8.61000000e-01	1.03991935e-02	5.26402414e-04
8.62000000e-01	1.04032597e-02	5.55546228e-04
8.63000000e-01	1.07212823e-02	5.88777577e-04
8.64000000e-01	1.05370996e-02	6.07784358e-04
8.65000000e-01	1.11286883e-02	6.63937764e-04
8.66000000e-01	9.89358052e-03	6.37238680e-04
8.67000000e-01	1.06937972e-02	7.10446852e-04
8.68000000e-01	1.01530730e-02	7.22585535e-04
8.69000000e-01	1.11195830e-02	8.39003824e-04
8.70000000e-01	1.03399296e-02	8.68385720e-04
8.71000000e-01	1.06049597e-02	9.88261604e-04
8.72000000e-01	1.07831854e-02	1.10682462e-03
8.73000000e-01	1.03524755e-02	1.27823740e-03
8.74000000e-01	8.72740842e-03	1.46347881e-03
8.75000000e-01	1.15263616e-02	3.64745364e-03
