% Filename : SDL1_00022_00031.h5
% Date & Time : 30-Oct-2025 16:49:42
% X-ray Energy (keV) : 13.30001
% Exposure Time (s) : 0.500
% Beam Center : 1461.24000, 208.98300
% Sample to Detector Distance (SDD) (mm) : 1990.750
% Detector Pixel Size (mm) : 0.075
% Photodiode Value : 141525.000
% I0 of Sample : 0
% I0 of Standard : 1
% 
% q(A^-1)   I(q)    I(q)_SE
0.00000000e+00	1.53188709e-02	8.27312713e-03
2.50000000e-04	0.00000000e+00	0.00000000e+00
5.00000000e-04	0.00000000e+00	0.00000000e+00
7.50000000e-04	0.00000000e+00	0.00000000e+00
1.00000000e-03	0.00000000e+00	0.00000000e+00
1.25000000e-03	0.00000000e+00	0.00000000e+00
1.50000000e-03	0.00000000e+00	0.00000000e+00
1.75000000e-03	0.00000000e+00	0.00000000e+00
2.00000000e-03	0.00000000e+00	0.00000000e+00
2.25000000e-03	0.00000000e+00	0.00000000e+00
2.50000000e-03	0.00000000e+00	0.00000000e+00
2.75000000e-03	0.00000000e+00	0.00000000e+00
3.00000000e-03	0.00000000e+00	0.00000000e+00
3.25000000e-03	2.28590266e+02	1.37388061e+02
3.50000000e-03	7.75378221e+01	3.23849909e+01
3.75000000e-03	3.95492683e+01	1.29534912e+01
4.00000000e-03	3.62902219e+01	1.30214706e+01
4.25000000e-03	2.33325246e+01	7.78307018e+00
4.50000000e-03	2.66999969e+01	6.83935387e+00
4.75000000e-03	3.07897277e+01	7.43389050e+00
5.00000000e-03	2.29223362e+01	4.97923889e+00
5.25000000e-03	1.79366058e+01	3.87842035e+00
5.50000000e-03	1.42064393e+01	2.87998765e+00
5.75000000e-03	1.17804278e+01	2.34672996e+00
6.00000000e-03	9.06401433e+00	1.77766872e+00
6.25000000e-03	7.98269020e+00	1.49653054e+00
6.50000000e-03	6.70273450e+00	1.21867864e+00
6.75000000e-03	6.13024797e+00	1.08513846e+00
7.00000000e-03	5.78853213e+00	9.83299625e-01
7.25000000e-03	4.77883263e+00	7.96974386e-01
7.50000000e-03	4.14640835e+00	6.83850525e-01
7.75000000e-03	3.79095409e+00	6.25284479e-01
8.00000000e-03	3.29673228e+00	5.33019839e-01
8.25000000e-03	2.81906038e+00	4.38121877e-01
8.50000000e-03	2.48769251e+00	3.72206308e-01
8.75000000e-03	2.20540121e+00	3.20041918e-01
9.00000000e-03	1.99957410e+00	2.81699556e-01
9.25000000e-03	1.77525329e+00	2.33929381e-01
9.50000000e-03	1.65806310e+00	2.14615176e-01
9.75000000e-03	1.55412780e+00	2.02594527e-01
1.00000000e-02	1.38986081e+00	1.84169839e-01
1.02500000e-02	1.32610300e+00	1.75766548e-01
1.05000000e-02	1.15879203e+00	1.38152714e-01
1.07500000e-02	1.03225883e+00	1.18723897e-01
1.10000000e-02	9.54932101e-01	1.06881392e-01
1.12500000e-02	8.86987779e-01	1.00738694e-01
1.15000000e-02	8.09395627e-01	8.64196532e-02
1.17500000e-02	7.33295837e-01	7.56870010e-02
1.20000000e-02	6.80408581e-01	6.80483559e-02
1.22500000e-02	6.46841859e-01	6.30144732e-02
1.25000000e-02	6.13017881e-01	6.13754964e-02
1.27500000e-02	5.92055869e-01	5.65391011e-02
1.30000000e-02	5.41409974e-01	5.01051125e-02
1.32500000e-02	4.91362119e-01	4.27557625e-02
1.35000000e-02	4.51033260e-01	3.91267010e-02
1.37500000e-02	4.25940203e-01	3.56942930e-02
1.40000000e-02	3.96256670e-01	3.24116859e-02
1.42500000e-02	3.72349430e-01	2.93625946e-02
1.45000000e-02	3.57572865e-01	2.75071138e-02
1.47500000e-02	3.38967427e-01	2.66077981e-02
1.50000000e-02	3.22526822e-01	2.45125745e-02
1.52500000e-02	3.06265037e-01	2.32663203e-02
1.55000000e-02	2.89419095e-01	2.13925734e-02
1.57500000e-02	2.62103521e-01	1.86492600e-02
1.60000000e-02	2.55048480e-01	1.82096685e-02
1.62500000e-02	2.46902190e-01	1.79544208e-02
1.65000000e-02	2.27546318e-01	1.58029236e-02
1.67500000e-02	2.17690145e-01	1.45137979e-02
1.70000000e-02	2.03077223e-01	1.34285177e-02
1.72500000e-02	1.95052472e-01	1.26262437e-02
1.75000000e-02	1.84743810e-01	1.18793145e-02
1.77500000e-02	1.74062339e-01	1.08840512e-02
1.80000000e-02	1.72293002e-01	1.07970894e-02
1.82500000e-02	1.62481377e-01	9.94180824e-03
1.85000000e-02	1.62824519e-01	1.01065073e-02
1.87500000e-02	1.52181302e-01	9.33060410e-03
1.90000000e-02	1.43873490e-01	8.58653857e-03
1.92500000e-02	1.34359894e-01	7.92644160e-03
1.95000000e-02	1.26034223e-01	7.27647761e-03
1.97500000e-02	1.25117536e-01	7.28712081e-03
2.00000000e-02	1.18152314e-01	6.73592058e-03
2.02500000e-02	1.14363586e-01	6.49230388e-03
2.05000000e-02	1.07700951e-01	5.89836755e-03
2.07500000e-02	1.02824462e-01	5.70808050e-03
2.10000000e-02	1.01023009e-01	5.61137727e-03
2.12500000e-02	9.95251533e-02	5.56059756e-03
2.15000000e-02	9.62137943e-02	5.26600581e-03
2.17500000e-02	9.42870548e-02	5.09306796e-03
2.20000000e-02	9.04293708e-02	5.00497068e-03
2.22500000e-02	8.77536754e-02	4.72340652e-03
2.25000000e-02	8.69994910e-02	4.74952907e-03
2.27500000e-02	8.49904252e-02	4.57719992e-03
2.30000000e-02	8.00106819e-02	4.35139899e-03
2.32500000e-02	7.74421581e-02	4.17269656e-03
2.35000000e-02	7.67742178e-02	4.16684717e-03
2.37500000e-02	7.49553551e-02	3.98042797e-03
2.40000000e-02	7.24894767e-02	3.86338001e-03
2.42500000e-02	7.23768846e-02	3.85289345e-03
2.45000000e-02	6.86080343e-02	3.64698023e-03
2.47500000e-02	6.74360304e-02	3.50827675e-03
2.50000000e-02	6.34868775e-02	3.31997150e-03
2.52500000e-02	6.24210618e-02	3.23952793e-03
2.55000000e-02	6.14427726e-02	3.11677086e-03
2.57500000e-02	6.14733675e-02	3.17081749e-03
2.60000000e-02	5.73500698e-02	2.92307228e-03
2.62500000e-02	5.78101143e-02	2.97185045e-03
2.65000000e-02	5.52659174e-02	2.80404125e-03
2.67500000e-02	5.48793156e-02	2.77903718e-03
2.70000000e-02	5.29014943e-02	2.69574174e-03
2.72500000e-02	5.28267228e-02	2.66129721e-03
2.75000000e-02	5.26729280e-02	2.69881045e-03
2.77500000e-02	5.15327814e-02	2.58156851e-03
2.80000000e-02	4.87238714e-02	2.39654980e-03
2.82500000e-02	4.81244680e-02	2.35278762e-03
2.85000000e-02	4.71326264e-02	2.32060786e-03
2.87500000e-02	4.70396015e-02	2.27891420e-03
2.90000000e-02	4.60381658e-02	2.27655411e-03
2.92500000e-02	4.54948022e-02	2.17599194e-03
2.95000000e-02	4.45211662e-02	2.17132586e-03
2.97500000e-02	4.38229658e-02	2.10875040e-03
3.00000000e-02	4.34718522e-02	2.10345362e-03
3.02500000e-02	4.40290053e-02	2.14149166e-03
3.05000000e-02	4.36795588e-02	2.05352217e-03
3.07500000e-02	4.17526954e-02	1.99588192e-03
3.10000000e-02	4.15355528e-02	1.95467977e-03
3.12500000e-02	4.12883390e-02	1.96380547e-03
3.15000000e-02	3.96732425e-02	1.85228326e-03
3.17500000e-02	3.97836754e-02	1.83640173e-03
3.20000000e-02	3.96293867e-02	1.84950031e-03
3.22500000e-02	3.84281213e-02	1.79806196e-03
3.25000000e-02	3.75948417e-02	1.78419555e-03
3.27500000e-02	3.75493878e-02	1.74434810e-03
3.30000000e-02	3.65346333e-02	1.67117529e-03
3.32500000e-02	3.75284779e-02	1.71944021e-03
3.35000000e-02	3.57986695e-02	1.65551490e-03
3.37500000e-02	3.58171773e-02	1.65862759e-03
3.40000000e-02	3.51089103e-02	1.61193318e-03
3.42500000e-02	3.46798496e-02	1.56893430e-03
3.45000000e-02	3.37294823e-02	1.54784658e-03
3.47500000e-02	3.42109601e-02	1.54717016e-03
3.50000000e-02	3.31474229e-02	1.51522153e-03
3.52500000e-02	3.30396855e-02	1.50359072e-03
3.55000000e-02	3.21053763e-02	1.44383679e-03
3.57500000e-02	3.18841244e-02	1.45253959e-03
3.60000000e-02	3.19173717e-02	1.45241493e-03
3.62500000e-02	3.11615852e-02	1.40835371e-03
3.65000000e-02	3.08550047e-02	1.38818626e-03
3.67500000e-02	3.22252613e-02	1.43951669e-03
3.70000000e-02	3.15820231e-02	1.41490944e-03
3.72500000e-02	3.08277193e-02	1.37439704e-03
3.75000000e-02	3.07360746e-02	1.38235065e-03
3.77500000e-02	2.95251374e-02	1.30628129e-03
3.80000000e-02	2.98949700e-02	1.31033272e-03
3.82500000e-02	2.93991198e-02	1.28965718e-03
3.85000000e-02	2.90519900e-02	1.29302993e-03
3.87500000e-02	2.89786794e-02	1.27658677e-03
3.90000000e-02	2.87638517e-02	1.26578179e-03
3.92500000e-02	2.89602939e-02	1.26576093e-03
3.95000000e-02	2.84509072e-02	1.24011437e-03
3.97500000e-02	2.82973259e-02	1.23400030e-03
4.00000000e-02	2.75055782e-02	1.19432590e-03
4.02500000e-02	2.83583151e-02	1.22500571e-03
4.05000000e-02	2.78220993e-02	1.20226357e-03
4.07500000e-02	2.71529152e-02	1.16920370e-03
4.10000000e-02	2.75846207e-02	1.18541563e-03
4.12500000e-02	2.65043039e-02	1.14143940e-03
4.15000000e-02	2.72517676e-02	1.15584872e-03
4.17500000e-02	2.67316664e-02	1.14296308e-03
4.20000000e-02	2.67707644e-02	1.13648423e-03
4.22500000e-02	2.56943473e-02	1.08298999e-03
4.25000000e-02	2.67837612e-02	1.12756183e-03
4.27500000e-02	2.64185012e-02	1.11287657e-03
4.30000000e-02	2.61247156e-02	1.10335450e-03
4.32500000e-02	2.55431695e-02	1.07114882e-03
4.35000000e-02	2.57005989e-02	1.07955003e-03
4.37500000e-02	2.53758269e-02	1.05783249e-03
4.40000000e-02	2.50157405e-02	1.05783431e-03
4.42500000e-02	2.62324812e-02	1.09011309e-03
4.45000000e-02	2.56968459e-02	1.05725631e-03
4.47500000e-02	2.53999698e-02	1.05366949e-03
4.50000000e-02	2.53681398e-02	1.04877938e-03
4.52500000e-02	2.49838947e-02	1.02283026e-03
4.55000000e-02	2.47330846e-02	1.02138611e-03
4.57500000e-02	2.48102837e-02	1.01816634e-03
4.60000000e-02	2.51149376e-02	1.03071948e-03
4.62500000e-02	2.51077237e-02	1.02947304e-03
4.65000000e-02	2.47701587e-02	1.00920110e-03
4.67500000e-02	2.41240515e-02	9.80484692e-04
4.70000000e-02	2.39068588e-02	9.83835586e-04
4.72500000e-02	2.36247483e-02	9.59171220e-04
4.75000000e-02	2.42229645e-02	9.89285963e-04
4.77500000e-02	2.37779700e-02	9.53590581e-04
4.80000000e-02	2.39094410e-02	9.69535629e-04
4.82500000e-02	2.36137590e-02	9.55225273e-04
4.85000000e-02	2.35132926e-02	9.61935020e-04
4.87500000e-02	2.40645932e-02	9.78589411e-04
4.90000000e-02	2.40212055e-02	9.63564818e-04
4.92500000e-02	2.34224842e-02	9.31697795e-04
4.95000000e-02	2.38832554e-02	9.53938765e-04
4.97500000e-02	2.34859011e-02	9.45945546e-04
5.00000000e-02	2.36454473e-02	9.47556635e-04
5.02500000e-02	2.33526700e-02	9.18777069e-04
5.05000000e-02	2.31125710e-02	9.19960848e-04
5.07500000e-02	2.29854668e-02	9.14934056e-04
5.10000000e-02	2.31253755e-02	9.13295255e-04
5.12500000e-02	2.33236110e-02	9.20107846e-04
5.15000000e-02	2.29656489e-02	8.97349575e-04
5.17500000e-02	2.27815274e-02	9.03014678e-04
5.20000000e-02	2.26321883e-02	8.88299730e-04
5.22500000e-02	2.29071308e-02	9.04025477e-04
5.25000000e-02	2.21351821e-02	8.62654747e-04
5.27500000e-02	2.22874531e-02	8.73504851e-04
5.30000000e-02	2.21484584e-02	8.72211643e-04
5.32500000e-02	2.28381463e-02	8.84168960e-04
5.35000000e-02	2.28849171e-02	8.89435830e-04
5.37500000e-02	2.20218037e-02	8.50960186e-04
5.40000000e-02	2.27052494e-02	8.89142797e-04
5.42500000e-02	2.24314478e-02	8.68085671e-04
5.45000000e-02	2.31696401e-02	8.91970072e-04
5.47500000e-02	2.23984128e-02	8.62849610e-04
5.50000000e-02	2.21398454e-02	8.61391616e-04
5.52500000e-02	2.17590422e-02	8.29575421e-04
5.55000000e-02	2.19703664e-02	8.36071116e-04
5.57500000e-02	2.19736234e-02	8.53736582e-04
5.60000000e-02	2.23575296e-02	8.57476650e-04
5.62500000e-02	2.19268181e-02	8.38989848e-04
5.65000000e-02	2.16603494e-02	8.24187817e-04
5.67500000e-02	2.21809280e-02	8.47637757e-04
5.70000000e-02	2.15593452e-02	8.16639921e-04
5.72500000e-02	2.18672186e-02	8.37988825e-04
5.75000000e-02	2.17495191e-02	8.24157785e-04
5.77500000e-02	2.15427110e-02	8.11058228e-04
5.80000000e-02	2.28944819e-02	8.59735932e-04
5.82500000e-02	2.19318723e-02	8.22797479e-04
5.85000000e-02	2.12814744e-02	8.08415313e-04
5.87500000e-02	2.15297681e-02	8.14906009e-04
5.90000000e-02	2.16882328e-02	8.05930690e-04
5.92500000e-02	2.05440262e-02	7.69304922e-04
5.95000000e-02	2.17385366e-02	8.11160375e-04
5.97500000e-02	2.14808230e-02	8.04738722e-04
6.00000000e-02	2.14988360e-02	7.96837168e-04
6.02500000e-02	2.19913473e-02	8.13494280e-04
6.05000000e-02	2.08769671e-02	7.69474720e-04
6.07500000e-02	2.17229485e-02	8.07961556e-04
6.10000000e-02	2.15439445e-02	7.92371400e-04
6.12500000e-02	2.14310638e-02	7.89176262e-04
6.15000000e-02	2.14533725e-02	7.93528762e-04
6.17500000e-02	2.09960343e-02	7.74675801e-04
6.20000000e-02	2.11209353e-02	7.76595970e-04
6.22500000e-02	2.07436090e-02	7.61610495e-04
6.25000000e-02	2.15140504e-02	7.88786286e-04
6.27500000e-02	2.18731577e-02	7.95309198e-04
6.30000000e-02	2.05506968e-02	7.51683146e-04
6.32500000e-02	2.10203269e-02	7.67579265e-04
6.35000000e-02	2.13641144e-02	7.75046843e-04
6.37500000e-02	2.08762863e-02	7.59843441e-04
6.40000000e-02	2.10068702e-02	7.60262089e-04
6.42500000e-02	2.13048717e-02	7.67334274e-04
6.45000000e-02	2.10744069e-02	7.58322141e-04
6.47500000e-02	2.14809187e-02	7.80880581e-04
6.50000000e-02	2.04911263e-02	7.51228515e-04
6.52500000e-02	2.13738620e-02	7.63099808e-04
6.55000000e-02	2.11205420e-02	7.56115137e-04
6.57500000e-02	2.15359923e-02	7.69725721e-04
6.60000000e-02	2.06909909e-02	7.39485830e-04
6.62500000e-02	2.07113325e-02	7.45790241e-04
6.65000000e-02	2.06975715e-02	7.35148220e-04
6.67500000e-02	2.17191543e-02	7.72357355e-04
6.70000000e-02	2.04891227e-02	7.34058840e-04
6.72500000e-02	2.14773654e-02	7.68361012e-04
6.75000000e-02	2.10681296e-02	7.43740815e-04
6.77500000e-02	2.04753947e-02	7.23388940e-04
6.80000000e-02	2.03801928e-02	7.21607379e-04
6.82500000e-02	2.01162735e-02	7.13353341e-04
6.85000000e-02	2.00624278e-02	7.11362049e-04
6.87500000e-02	2.06798735e-02	7.25095744e-04
6.90000000e-02	2.08281823e-02	7.29386053e-04
6.92500000e-02	2.03446663e-02	7.09130967e-04
6.95000000e-02	2.08802336e-02	7.36033557e-04
6.97500000e-02	2.04886666e-02	7.17444472e-04
7.00000000e-02	2.12378447e-02	7.36504496e-04
7.02500000e-02	2.07606978e-02	7.23260917e-04
7.05000000e-02	2.04089126e-02	7.09933646e-04
7.07500000e-02	2.02940636e-02	7.11196350e-04
7.10000000e-02	2.03786385e-02	7.10654386e-04
7.12500000e-02	2.04996108e-02	7.12762488e-04
7.15000000e-02	2.03365069e-02	7.06720033e-04
7.17500000e-02	2.04675382e-02	7.17920728e-04
7.20000000e-02	2.08064441e-02	7.12200557e-04
7.22500000e-02	2.05031012e-02	7.13528381e-04
7.25000000e-02	2.03195770e-02	7.03915233e-04
7.27500000e-02	2.04253797e-02	7.06669481e-04
7.30000000e-02	2.10488208e-02	7.17621578e-04
7.32500000e-02	2.06172066e-02	7.06737822e-04
7.35000000e-02	2.07794648e-02	7.10949548e-04
7.37500000e-02	2.02795916e-02	6.90965844e-04
7.40000000e-02	2.05425478e-02	6.99916029e-04
7.42500000e-02	2.05618614e-02	7.08978961e-04
7.45000000e-02	2.07009296e-02	7.08010640e-04
7.47500000e-02	2.07281446e-02	7.03256337e-04
7.50000000e-02	2.09761488e-02	7.08919508e-04
7.52500000e-02	2.04787162e-02	6.94253885e-04
7.55000000e-02	2.00810966e-02	6.84034950e-04
7.57500000e-02	2.06902460e-02	6.98913379e-04
7.60000000e-02	2.07352847e-02	7.00902166e-04
7.62500000e-02	2.05244278e-02	6.93673138e-04
7.65000000e-02	1.99715134e-02	6.76766309e-04
7.67500000e-02	2.03333667e-02	6.79408330e-04
7.70000000e-02	2.06526180e-02	6.92384179e-04
7.72500000e-02	2.03840685e-02	7.00332504e-04
7.75000000e-02	2.02023416e-02	6.99787550e-04
7.77500000e-02	2.04125437e-02	7.08637191e-04
7.80000000e-02	2.02606133e-02	7.01545186e-04
7.82500000e-02	1.99661800e-02	6.98261635e-04
7.85000000e-02	2.08541411e-02	7.32058580e-04
7.87500000e-02	2.08744909e-02	7.33819987e-04
7.90000000e-02	2.05790517e-02	7.31379164e-04
7.92500000e-02	1.99624446e-02	7.11095875e-04
7.95000000e-02	2.02714233e-02	7.24024784e-04
7.97500000e-02	2.02348409e-02	7.29662991e-04
8.00000000e-02	2.03851801e-02	7.28648102e-04
8.02500000e-02	2.03125487e-02	7.27284794e-04
8.05000000e-02	2.09897803e-02	7.49947273e-04
8.07500000e-02	2.00270595e-02	7.25246129e-04
8.10000000e-02	2.06502304e-02	7.48370162e-04
8.12500000e-02	2.07472808e-02	7.48348542e-04
8.15000000e-02	2.00780407e-02	7.24122200e-04
8.17500000e-02	1.99385423e-02	7.23390686e-04
8.20000000e-02	2.03017131e-02	7.36208408e-04
8.22500000e-02	1.98646376e-02	7.30610700e-04
8.25000000e-02	2.05856840e-02	7.50049462e-04
8.27500000e-02	2.01862804e-02	7.35293249e-04
8.30000000e-02	2.09326916e-02	7.62902890e-04
8.32500000e-02	2.05232814e-02	7.51216887e-04
8.35000000e-02	1.94713910e-02	7.24948034e-04
8.37500000e-02	2.05618694e-02	7.48737336e-04
8.40000000e-02	2.02124876e-02	7.42178330e-04
8.42500000e-02	2.01179758e-02	7.40988162e-04
8.45000000e-02	1.97166096e-02	7.26218471e-04
8.47500000e-02	2.00104885e-02	7.41955724e-04
8.50000000e-02	1.98316687e-02	7.35706896e-04
8.52500000e-02	2.00935086e-02	7.52274315e-04
8.55000000e-02	2.00262226e-02	7.36497117e-04
8.57500000e-02	2.02085358e-02	7.52307909e-04
8.60000000e-02	2.01542448e-02	7.53288302e-04
8.62500000e-02	2.00377967e-02	7.42730413e-04
8.65000000e-02	2.00652265e-02	7.46678818e-04
8.67500000e-02	2.00852399e-02	7.37130723e-04
8.70000000e-02	1.95378303e-02	7.09396685e-04
8.72500000e-02	2.00809834e-02	7.18176119e-04
8.75000000e-02	2.00577891e-02	7.08930485e-04
8.77500000e-02	2.00609473e-02	7.05082272e-04
8.80000000e-02	2.00416415e-02	7.03826483e-04
8.82500000e-02	2.06497384e-02	7.27394721e-04
8.85000000e-02	2.01864408e-02	7.10606365e-04
8.87500000e-02	1.99605074e-02	6.85268000e-04
8.90000000e-02	2.08653791e-02	7.13871797e-04
8.92500000e-02	2.05188616e-02	7.00824765e-04
8.95000000e-02	2.05507930e-02	6.99895210e-04
8.97500000e-02	1.95196076e-02	6.64070465e-04
9.00000000e-02	1.96435124e-02	6.62337076e-04
9.02500000e-02	2.01899356e-02	6.88012525e-04
9.05000000e-02	2.02356948e-02	6.86239333e-04
9.07500000e-02	2.02552937e-02	6.85034805e-04
9.10000000e-02	2.03188433e-02	6.83342712e-04
9.12500000e-02	2.06260618e-02	6.83843394e-04
9.15000000e-02	1.99364666e-02	6.64630951e-04
9.17500000e-02	2.01839857e-02	6.77755983e-04
9.20000000e-02	1.98254122e-02	6.60158032e-04
9.22500000e-02	2.00200007e-02	6.65744696e-04
9.25000000e-02	2.00630770e-02	6.68181643e-04
9.27500000e-02	2.04666456e-02	6.76014657e-04
9.30000000e-02	1.99711080e-02	6.60671471e-04
9.32500000e-02	1.99100074e-02	6.55489895e-04
9.35000000e-02	2.03581827e-02	6.66288300e-04
9.37500000e-02	2.02102395e-02	6.56053726e-04
9.40000000e-02	2.05278268e-02	6.75148184e-04
9.42500000e-02	1.98848406e-02	6.53319101e-04
9.45000000e-02	1.99741099e-02	6.55605957e-04
9.47500000e-02	1.96978196e-02	6.41698642e-04
9.50000000e-02	1.96364747e-02	6.41650343e-04
9.52500000e-02	1.98137790e-02	6.44592536e-04
9.55000000e-02	2.03956986e-02	6.59563916e-04
9.57500000e-02	2.00994737e-02	6.51859700e-04
9.60000000e-02	2.00189546e-02	6.48993549e-04
9.62500000e-02	2.01971790e-02	6.52842164e-04
9.65000000e-02	1.99439889e-02	6.46229079e-04
9.67500000e-02	1.98329209e-02	6.34545372e-04
9.70000000e-02	2.01371802e-02	6.47542270e-04
9.72500000e-02	2.04798560e-02	6.54918039e-04
9.75000000e-02	2.01572163e-02	6.45383855e-04
9.77500000e-02	1.98388826e-02	6.27816576e-04
9.80000000e-02	1.99599502e-02	6.36662231e-04
9.82500000e-02	2.00575003e-02	6.31355812e-04
9.85000000e-02	2.04423546e-02	6.47785189e-04
9.87500000e-02	1.97790145e-02	6.24719795e-04
9.90000000e-02	1.96953202e-02	6.21501959e-04
9.92500000e-02	1.97466983e-02	6.24826008e-04
9.95000000e-02	1.94617758e-02	6.22764398e-04
9.97500000e-02	2.01260952e-02	6.35542601e-04
1.00000000e-01	1.99117411e-02	5.17913239e-04
1.00500000e-01	1.99732384e-02	4.44100279e-04
1.01000000e-01	1.96527310e-02	4.33720860e-04
1.01500000e-01	1.95861354e-02	4.33758369e-04
1.02000000e-01	1.97790386e-02	4.35245046e-04
1.02500000e-01	2.00671587e-02	4.40626031e-04
1.03000000e-01	1.96900912e-02	4.32611441e-04
1.03500000e-01	2.00531476e-02	4.36681494e-04
1.04000000e-01	1.99447311e-02	4.33221176e-04
1.04500000e-01	1.96773470e-02	4.27574190e-04
1.05000000e-01	1.97417085e-02	4.25220330e-04
1.05500000e-01	1.97809479e-02	4.28665369e-04
1.06000000e-01	2.00534874e-02	4.33080978e-04
1.06500000e-01	1.98084094e-02	4.26236028e-04
1.07000000e-01	1.97559610e-02	4.32127964e-04
1.07500000e-01	1.98601054e-02	4.38870200e-04
1.08000000e-01	1.97056618e-02	4.41407875e-04
1.08500000e-01	2.00237039e-02	4.51637446e-04
1.09000000e-01	1.96495112e-02	4.44981935e-04
1.09500000e-01	1.98301598e-02	4.51117833e-04
1.10000000e-01	1.97840653e-02	4.45393394e-04
1.10500000e-01	1.99230147e-02	4.39711056e-04
1.11000000e-01	1.97675663e-02	4.29091166e-04
1.11500000e-01	1.98138831e-02	4.27778243e-04
1.12000000e-01	1.96545925e-02	4.20403231e-04
1.12500000e-01	1.98945291e-02	4.20561631e-04
1.13000000e-01	2.00196608e-02	4.23546056e-04
1.13500000e-01	1.98594877e-02	4.18555069e-04
1.14000000e-01	1.98689670e-02	4.17872119e-04
1.14500000e-01	2.00406689e-02	4.20306487e-04
1.15000000e-01	1.95726667e-02	4.07828576e-04
1.15500000e-01	1.97141592e-02	4.11523449e-04
1.16000000e-01	1.96023509e-02	4.05520190e-04
1.16500000e-01	1.94856896e-02	4.04737006e-04
1.17000000e-01	1.99731864e-02	4.11392856e-04
1.17500000e-01	1.96988928e-02	4.07417045e-04
1.18000000e-01	1.99374424e-02	4.12532836e-04
1.18500000e-01	1.97103804e-02	4.04910715e-04
1.19000000e-01	1.97270777e-02	4.05611593e-04
1.19500000e-01	1.97418396e-02	4.02153424e-04
1.20000000e-01	1.98122050e-02	4.01962623e-04
1.20500000e-01	1.94693646e-02	3.95646396e-04
1.21000000e-01	1.99782919e-02	4.05644003e-04
1.21500000e-01	1.95587152e-02	3.95420328e-04
1.22000000e-01	1.97464585e-02	3.98742080e-04
1.22500000e-01	1.98358487e-02	3.98613982e-04
1.23000000e-01	1.97862985e-02	3.97153083e-04
1.23500000e-01	1.95701628e-02	3.91992415e-04
1.24000000e-01	1.96447624e-02	3.94729329e-04
1.24500000e-01	1.99469543e-02	3.98247450e-04
1.25000000e-01	1.97952064e-02	3.96670893e-04
1.25500000e-01	1.96387434e-02	3.91453111e-04
1.26000000e-01	1.93840003e-02	3.85676910e-04
1.26500000e-01	1.99937492e-02	3.96042780e-04
1.27000000e-01	1.93464295e-02	3.83728065e-04
1.27500000e-01	1.94086317e-02	3.85022570e-04
1.28000000e-01	1.97910817e-02	3.91088017e-04
1.28500000e-01	1.98088926e-02	3.89827016e-04
1.29000000e-01	1.96946661e-02	3.85343393e-04
1.29500000e-01	1.95937361e-02	3.84103718e-04
1.30000000e-01	1.96738224e-02	3.86183014e-04
1.30500000e-01	1.96090690e-02	3.82790233e-04
1.31000000e-01	2.00564045e-02	3.88246504e-04
1.31500000e-01	1.94538846e-02	3.79816873e-04
1.32000000e-01	1.96621087e-02	3.80547051e-04
1.32500000e-01	1.94093047e-02	3.74929817e-04
1.33000000e-01	1.98169105e-02	3.81493200e-04
1.33500000e-01	1.98316644e-02	3.80998840e-04
1.34000000e-01	1.99380061e-02	3.81975860e-04
1.34500000e-01	2.00881955e-02	3.82855037e-04
1.35000000e-01	1.95765350e-02	3.72634713e-04
1.35500000e-01	1.97930943e-02	3.77257631e-04
1.36000000e-01	1.97658584e-02	3.73365696e-04
1.36500000e-01	1.95076821e-02	3.71376389e-04
1.37000000e-01	1.97543545e-02	3.74339830e-04
1.37500000e-01	1.95473141e-02	3.70409709e-04
1.38000000e-01	1.94833815e-02	3.68177991e-04
1.38500000e-01	1.96562862e-02	3.69093367e-04
1.39000000e-01	1.98381901e-02	3.73518563e-04
1.39500000e-01	1.96188018e-02	3.71991103e-04
1.40000000e-01	1.94290594e-02	3.65181191e-04
1.40500000e-01	1.96199311e-02	3.68976812e-04
1.41000000e-01	1.96670198e-02	3.68959939e-04
1.41500000e-01	1.97600278e-02	3.69874150e-04
1.42000000e-01	1.95001475e-02	3.63618500e-04
1.42500000e-01	1.96825223e-02	3.68263382e-04
1.43000000e-01	1.97428134e-02	3.69099893e-04
1.43500000e-01	1.93278645e-02	3.59692422e-04
1.44000000e-01	1.94301629e-02	3.62946929e-04
1.44500000e-01	1.98373897e-02	3.67155529e-04
1.45000000e-01	1.96152662e-02	3.61876093e-04
1.45500000e-01	1.94336657e-02	3.59270930e-04
1.46000000e-01	1.97210677e-02	3.63870847e-04
1.46500000e-01	1.95272773e-02	3.59093220e-04
1.47000000e-01	1.92892899e-02	3.54887952e-04
1.47500000e-01	1.93167946e-02	3.54948457e-04
1.48000000e-01	1.93779084e-02	3.55227334e-04
1.48500000e-01	1.94741737e-02	3.55696317e-04
1.49000000e-01	1.93490654e-02	3.53143691e-04
1.49500000e-01	1.92602454e-02	3.53385807e-04
1.50000000e-01	1.92812157e-02	3.51854101e-04
1.50500000e-01	1.94419973e-02	3.55669123e-04
1.51000000e-01	1.94351915e-02	3.53740114e-04
1.51500000e-01	1.93084778e-02	3.49876982e-04
1.52000000e-01	1.95725698e-02	3.51733503e-04
1.52500000e-01	1.96798253e-02	3.55925199e-04
1.53000000e-01	1.92192962e-02	3.46443908e-04
1.53500000e-01	1.93907698e-02	3.47833063e-04
1.54000000e-01	1.92916786e-02	3.47143451e-04
1.54500000e-01	1.95156661e-02	3.55452226e-04
1.55000000e-01	1.95133298e-02	3.60726895e-04
1.55500000e-01	1.93837659e-02	3.60747927e-04
1.56000000e-01	1.93321881e-02	3.61560082e-04
1.56500000e-01	1.93829665e-02	3.60960255e-04
1.57000000e-01	1.94202957e-02	3.63541259e-04
1.57500000e-01	1.94344958e-02	3.56384684e-04
1.58000000e-01	1.92472766e-02	3.48573611e-04
1.58500000e-01	1.91008982e-02	3.44760356e-04
1.59000000e-01	1.90295811e-02	3.41228573e-04
1.59500000e-01	1.90093229e-02	3.42733751e-04
1.60000000e-01	1.92113864e-02	3.45414829e-04
1.60500000e-01	1.92096192e-02	3.41250336e-04
1.61000000e-01	1.91643338e-02	3.40825293e-04
1.61500000e-01	1.90311843e-02	3.38484398e-04
1.62000000e-01	1.89754647e-02	3.35514760e-04
1.62500000e-01	1.92555510e-02	3.41206115e-04
1.63000000e-01	1.91616108e-02	3.37436050e-04
1.63500000e-01	1.92358418e-02	3.42213372e-04
1.64000000e-01	1.90260177e-02	3.33953410e-04
1.64500000e-01	1.93666321e-02	3.39754288e-04
1.65000000e-01	1.92780235e-02	3.37105797e-04
1.65500000e-01	1.94123574e-02	3.40105651e-04
1.66000000e-01	1.92447726e-02	3.36607570e-04
1.66500000e-01	1.88526551e-02	3.29376413e-04
1.67000000e-01	1.90004949e-02	3.31709639e-04
1.67500000e-01	1.91050143e-02	3.31953101e-04
1.68000000e-01	1.90281300e-02	3.30546254e-04
1.68500000e-01	1.89282620e-02	3.26739522e-04
1.69000000e-01	1.87628647e-02	3.26706337e-04
1.69500000e-01	1.91465243e-02	3.30703699e-04
1.70000000e-01	1.89239310e-02	3.26663107e-04
1.70500000e-01	1.89531530e-02	3.24844910e-04
1.71000000e-01	1.90125693e-02	3.26995231e-04
1.71500000e-01	1.88864630e-02	3.24009700e-04
1.72000000e-01	1.88507869e-02	3.22954493e-04
1.72500000e-01	1.86827792e-02	3.20723864e-04
1.73000000e-01	1.89340271e-02	3.25273209e-04
1.73500000e-01	1.88747354e-02	3.20996606e-04
1.74000000e-01	1.90613014e-02	3.23978716e-04
1.74500000e-01	1.90672639e-02	3.22675256e-04
1.75000000e-01	1.87446560e-02	3.18245046e-04
1.75500000e-01	1.89730782e-02	3.19095124e-04
1.76000000e-01	1.90041765e-02	3.19997709e-04
1.76500000e-01	1.89406866e-02	3.19841522e-04
1.77000000e-01	1.87246148e-02	3.14340802e-04
1.77500000e-01	1.89572018e-02	3.17524174e-04
1.78000000e-01	1.89140681e-02	3.19097285e-04
1.78500000e-01	1.88963396e-02	3.17198952e-04
1.79000000e-01	1.85514802e-02	3.11238486e-04
1.79500000e-01	1.89619815e-02	3.18736995e-04
1.80000000e-01	1.87485387e-02	3.13703236e-04
1.80500000e-01	1.87339862e-02	3.13232382e-04
1.81000000e-01	1.87036092e-02	3.13888611e-04
1.81500000e-01	1.86129032e-02	3.11536886e-04
1.82000000e-01	1.87864471e-02	3.14076958e-04
1.82500000e-01	1.88074939e-02	3.11949651e-04
1.83000000e-01	1.86290299e-02	3.11178746e-04
1.83500000e-01	1.86101761e-02	3.09334959e-04
1.84000000e-01	1.87928815e-02	3.11790324e-04
1.84500000e-01	1.88184116e-02	3.11925845e-04
1.85000000e-01	1.88404094e-02	3.11888837e-04
1.85500000e-01	1.88293454e-02	3.09972860e-04
1.86000000e-01	1.86316404e-02	3.07423291e-04
1.86500000e-01	1.86960904e-02	3.08855222e-04
1.87000000e-01	1.86265542e-02	3.06847986e-04
1.87500000e-01	1.86426449e-02	3.05395882e-04
1.88000000e-01	1.85787502e-02	3.05296602e-04
1.88500000e-01	1.85237198e-02	3.03200269e-04
1.89000000e-01	1.85877806e-02	3.04310669e-04
1.89500000e-01	1.85306983e-02	3.03668113e-04
1.90000000e-01	1.84746878e-02	3.01230341e-04
1.90500000e-01	1.84942897e-02	3.02114989e-04
1.91000000e-01	1.85415859e-02	3.01317241e-04
1.91500000e-01	1.83001399e-02	2.99503588e-04
1.92000000e-01	1.84956189e-02	3.00597748e-04
1.92500000e-01	1.85208808e-02	3.00767627e-04
1.93000000e-01	1.86028624e-02	3.02018316e-04
1.93500000e-01	1.83074714e-02	2.97324588e-04
1.94000000e-01	1.82982729e-02	2.97340557e-04
1.94500000e-01	1.84059901e-02	2.98097994e-04
1.95000000e-01	1.84236310e-02	2.98735421e-04
1.95500000e-01	1.83893050e-02	2.95835942e-04
1.96000000e-01	1.84774180e-02	2.96285371e-04
1.96500000e-01	1.81835556e-02	2.93542781e-04
1.97000000e-01	1.85612769e-02	2.97414580e-04
1.97500000e-01	1.83151877e-02	2.93725323e-04
1.98000000e-01	1.82715646e-02	2.93220871e-04
1.98500000e-01	1.85298096e-02	2.96645948e-04
1.99000000e-01	1.82453887e-02	2.91945155e-04
1.99500000e-01	1.82031376e-02	2.90764521e-04
2.00000000e-01	1.83233411e-02	2.92166240e-04
2.00500000e-01	1.82539409e-02	2.92038216e-04
2.01000000e-01	1.82984931e-02	2.91968064e-04
2.01500000e-01	1.83584752e-02	2.91895786e-04
2.02000000e-01	1.83118713e-02	2.90332322e-04
2.02500000e-01	1.83816680e-02	2.89957155e-04
2.03000000e-01	1.83240623e-02	2.90451102e-04
2.03500000e-01	1.85944696e-02	2.93915214e-04
2.04000000e-01	1.84971213e-02	2.90914998e-04
2.04500000e-01	1.82785297e-02	2.89304351e-04
2.05000000e-01	1.81849382e-02	2.85660926e-04
2.05500000e-01	1.82096894e-02	2.86738838e-04
2.06000000e-01	1.82615331e-02	2.87648229e-04
2.06500000e-01	1.81954420e-02	2.86579957e-04
2.07000000e-01	1.81438036e-02	2.84732212e-04
2.07500000e-01	1.81689247e-02	2.85211061e-04
2.08000000e-01	1.83086634e-02	2.87312130e-04
2.08500000e-01	1.80313782e-02	2.82218512e-04
2.09000000e-01	1.84156979e-02	2.87246080e-04
2.09500000e-01	1.84119624e-02	2.86307607e-04
2.10000000e-01	1.82149264e-02	2.83795735e-04
2.10500000e-01	1.81107836e-02	2.82164955e-04
2.11000000e-01	1.80764047e-02	2.80254329e-04
2.11500000e-01	1.80096365e-02	2.80062307e-04
2.12000000e-01	1.83164416e-02	2.82771099e-04
2.12500000e-01	1.82774250e-02	2.82406260e-04
2.13000000e-01	1.79855009e-02	2.78037583e-04
2.13500000e-01	1.81195137e-02	2.80990385e-04
2.14000000e-01	1.82157898e-02	2.81375461e-04
2.14500000e-01	1.83190670e-02	2.81676519e-04
2.15000000e-01	1.80864141e-02	2.80198100e-04
2.15500000e-01	1.82727464e-02	2.79493529e-04
2.16000000e-01	1.81235516e-02	2.78290313e-04
2.16500000e-01	1.81251036e-02	2.78671846e-04
2.17000000e-01	1.81646793e-02	2.82352198e-04
2.17500000e-01	1.81136543e-02	2.86541136e-04
2.18000000e-01	1.81858612e-02	2.87463898e-04
2.18500000e-01	1.82681565e-02	2.90845403e-04
2.19000000e-01	1.80715424e-02	2.89464717e-04
2.19500000e-01	1.81116763e-02	2.90878264e-04
2.20000000e-01	1.78882657e-02	2.89663228e-04
2.20500000e-01	1.80282794e-02	2.90863254e-04
2.21000000e-01	1.80976954e-02	2.93693933e-04
2.21500000e-01	1.79296113e-02	2.91686206e-04
2.22000000e-01	1.81189211e-02	2.95344767e-04
2.22500000e-01	1.81524980e-02	2.96929670e-04
2.23000000e-01	1.80492898e-02	2.95155495e-04
2.23500000e-01	1.79600018e-02	2.95727854e-04
2.24000000e-01	1.79427811e-02	2.95241307e-04
2.24500000e-01	1.80239664e-02	2.97462973e-04
2.25000000e-01	1.77005337e-02	2.93463692e-04
2.25500000e-01	1.79039079e-02	2.96049672e-04
2.26000000e-01	1.78525937e-02	2.97486721e-04
2.26500000e-01	1.79189485e-02	2.92120534e-04
2.27000000e-01	1.82252084e-02	2.94922196e-04
2.27500000e-01	1.82341404e-02	2.91587692e-04
2.28000000e-01	1.78573446e-02	2.84987786e-04
2.28500000e-01	1.77678310e-02	2.82473801e-04
2.29000000e-01	1.78244652e-02	2.82194906e-04
2.29500000e-01	1.78310210e-02	2.80553801e-04
2.30000000e-01	1.79863242e-02	2.82034426e-04
2.30500000e-01	1.78478274e-02	2.80062409e-04
2.31000000e-01	1.79749740e-02	2.81031851e-04
2.31500000e-01	1.79563467e-02	2.80080762e-04
2.32000000e-01	1.78567103e-02	2.77181354e-04
2.32500000e-01	1.78023800e-02	2.75356876e-04
2.33000000e-01	1.78814723e-02	2.76452719e-04
2.33500000e-01	1.78154183e-02	2.75424102e-04
2.34000000e-01	1.75802554e-02	2.72187227e-04
2.34500000e-01	1.75474709e-02	2.70201391e-04
2.35000000e-01	1.78491746e-02	2.74430212e-04
2.35500000e-01	1.80351416e-02	2.77661845e-04
2.36000000e-01	1.78238950e-02	2.72937878e-04
2.36500000e-01	1.77763606e-02	2.72380695e-04
2.37000000e-01	1.79010991e-02	2.72232436e-04
2.37500000e-01	1.77353090e-02	2.68735896e-04
2.38000000e-01	1.79159285e-02	2.71769530e-04
2.38500000e-01	1.78193875e-02	2.70544892e-04
2.39000000e-01	1.78722364e-02	2.70083878e-04
2.39500000e-01	1.76639239e-02	2.67039384e-04
2.40000000e-01	1.76474933e-02	2.67137749e-04
2.40500000e-01	1.77853451e-02	2.67508948e-04
2.41000000e-01	1.76832877e-02	2.66246466e-04
2.41500000e-01	1.73968159e-02	2.61767537e-04
2.42000000e-01	1.76533529e-02	2.65798812e-04
2.42500000e-01	1.76962107e-02	2.65391979e-04
2.43000000e-01	1.74186924e-02	2.61029761e-04
2.43500000e-01	1.77026874e-02	2.64643572e-04
2.44000000e-01	1.75529905e-02	2.61146969e-04
2.44500000e-01	1.77076739e-02	2.63318997e-04
2.45000000e-01	1.75388677e-02	2.60856644e-04
2.45500000e-01	1.74143091e-02	2.59821039e-04
2.46000000e-01	1.78079553e-02	2.63870656e-04
2.46500000e-01	1.76024194e-02	2.60862801e-04
2.47000000e-01	1.75190401e-02	2.59588526e-04
2.47500000e-01	1.72780276e-02	2.55446704e-04
2.48000000e-01	1.74364125e-02	2.57990080e-04
2.48500000e-01	1.74797716e-02	2.58112644e-04
2.49000000e-01	1.77904012e-02	2.61146229e-04
2.49500000e-01	1.74192506e-02	2.57147622e-04
2.50000000e-01	1.76603724e-02	2.59007015e-04
2.50500000e-01	1.72782585e-02	2.55395101e-04
2.51000000e-01	1.76339050e-02	2.58337905e-04
2.51500000e-01	1.75709196e-02	2.58319509e-04
2.52000000e-01	1.76818711e-02	2.58830730e-04
2.52500000e-01	1.74166254e-02	2.54432882e-04
2.53000000e-01	1.75544749e-02	2.57441092e-04
2.53500000e-01	1.75577397e-02	2.55404620e-04
2.54000000e-01	1.76572414e-02	2.57513106e-04
2.54500000e-01	1.74314682e-02	2.54677852e-04
2.55000000e-01	1.74860459e-02	2.54548232e-04
2.55500000e-01	1.74726397e-02	2.54526445e-04
2.56000000e-01	1.74094167e-02	2.52682706e-04
2.56500000e-01	1.74790051e-02	2.52908323e-04
2.57000000e-01	1.74770266e-02	2.53023004e-04
2.57500000e-01	1.72139212e-02	2.49340171e-04
2.58000000e-01	1.74858648e-02	2.52781856e-04
2.58500000e-01	1.74190935e-02	2.51431193e-04
2.59000000e-01	1.72670591e-02	2.50331460e-04
2.59500000e-01	1.74397716e-02	2.50623592e-04
2.60000000e-01	1.75787873e-02	2.52491721e-04
2.60500000e-01	1.73473573e-02	2.49466032e-04
2.61000000e-01	1.74415788e-02	2.50464943e-04
2.61500000e-01	1.71639471e-02	2.47611565e-04
2.62000000e-01	1.74173138e-02	2.49026842e-04
2.62500000e-01	1.73710434e-02	2.49213670e-04
2.63000000e-01	1.72566979e-02	2.47262969e-04
2.63500000e-01	1.72364743e-02	2.45505610e-04
2.64000000e-01	1.73943345e-02	2.48109633e-04
2.64500000e-01	1.73999945e-02	2.48697333e-04
2.65000000e-01	1.74293087e-02	2.48703256e-04
2.65500000e-01	1.74657131e-02	2.47927558e-04
2.66000000e-01	1.72327452e-02	2.45630641e-04
2.66500000e-01	1.74223028e-02	2.46919117e-04
2.67000000e-01	1.71583328e-02	2.44755508e-04
2.67500000e-01	1.69822672e-02	2.41286544e-04
2.68000000e-01	1.72843466e-02	2.45031748e-04
2.68500000e-01	1.71720815e-02	2.43370482e-04
2.69000000e-01	1.71681122e-02	2.41583191e-04
2.69500000e-01	1.72720044e-02	2.43394638e-04
2.70000000e-01	1.70382977e-02	2.40388705e-04
2.70500000e-01	1.69938180e-02	2.39207090e-04
2.71000000e-01	1.70454102e-02	2.40014968e-04
2.71500000e-01	1.71992560e-02	2.40907668e-04
2.72000000e-01	1.72763054e-02	2.42189511e-04
2.72500000e-01	1.70106376e-02	2.39555340e-04
2.73000000e-01	1.69913414e-02	2.38362578e-04
2.73500000e-01	1.70886278e-02	2.39760416e-04
2.74000000e-01	1.71534716e-02	2.39841858e-04
2.74500000e-01	1.70931143e-02	2.38721561e-04
2.75000000e-01	1.70767861e-02	2.38836205e-04
2.75500000e-01	1.72250977e-02	2.40505054e-04
2.76000000e-01	1.71997279e-02	2.40317650e-04
2.76500000e-01	1.71736670e-02	2.39441841e-04
2.77000000e-01	1.70427583e-02	2.36607686e-04
2.77500000e-01	1.70121910e-02	2.36694924e-04
2.78000000e-01	1.72400347e-02	2.39512956e-04
2.78500000e-01	1.69884657e-02	2.36141378e-04
2.79000000e-01	1.69444178e-02	2.34781833e-04
2.79500000e-01	1.69135469e-02	2.34000606e-04
2.80000000e-01	1.70383410e-02	2.36046795e-04
2.80500000e-01	1.69353321e-02	2.33919675e-04
2.81000000e-01	1.70721485e-02	2.37092203e-04
2.81500000e-01	1.70213848e-02	2.34612254e-04
2.82000000e-01	1.71298140e-02	2.36243733e-04
2.82500000e-01	1.70713957e-02	2.35370227e-04
2.83000000e-01	1.69677152e-02	2.33282848e-04
2.83500000e-01	1.69465483e-02	2.33595213e-04
2.84000000e-01	1.68959699e-02	2.32372626e-04
2.84500000e-01	1.68440713e-02	2.31199751e-04
2.85000000e-01	1.69779681e-02	2.32502098e-04
2.85500000e-01	1.70590171e-02	2.33392513e-04
2.86000000e-01	1.69415249e-02	2.32692279e-04
2.86500000e-01	1.70137544e-02	2.32548513e-04
2.87000000e-01	1.69522531e-02	2.32434880e-04
2.87500000e-01	1.69477983e-02	2.30867875e-04
2.88000000e-01	1.70977767e-02	2.31537935e-04
2.88500000e-01	1.68931269e-02	2.30915242e-04
2.89000000e-01	1.69153617e-02	2.30176651e-04
2.89500000e-01	1.69591551e-02	2.32023313e-04
2.90000000e-01	1.68900728e-02	2.29383102e-04
2.90500000e-01	1.69603871e-02	2.30674689e-04
2.91000000e-01	1.68296722e-02	2.27573182e-04
2.91500000e-01	1.67654390e-02	2.27357049e-04
2.92000000e-01	1.69231234e-02	2.29084331e-04
2.92500000e-01	1.68122616e-02	2.26979628e-04
2.93000000e-01	1.70836777e-02	2.30793411e-04
2.93500000e-01	1.67453875e-02	2.25124310e-04
2.94000000e-01	1.66872030e-02	2.24997156e-04
2.94500000e-01	1.68815382e-02	2.27451307e-04
2.95000000e-01	1.67805284e-02	2.26233057e-04
2.95500000e-01	1.67595165e-02	2.25679317e-04
2.96000000e-01	1.67129078e-02	2.25343268e-04
2.96500000e-01	1.66818570e-02	2.24554097e-04
2.97000000e-01	1.69342215e-02	2.26850302e-04
2.97500000e-01	1.67434600e-02	2.24336082e-04
2.98000000e-01	1.68134798e-02	2.25325409e-04
2.98500000e-01	1.67781806e-02	2.25147540e-04
2.99000000e-01	1.66506358e-02	2.22294448e-04
2.99500000e-01	1.67378615e-02	2.23961166e-04
3.00000000e-01	1.67781139e-02	2.23857166e-04
3.00500000e-01	1.67552002e-02	2.24251831e-04
3.01000000e-01	1.68632717e-02	2.25079524e-04
3.01500000e-01	1.66605662e-02	2.22300998e-04
3.02000000e-01	1.67092669e-02	2.22435713e-04
3.02500000e-01	1.66676108e-02	2.22379154e-04
3.03000000e-01	1.67794339e-02	2.22309672e-04
3.03500000e-01	1.68410787e-02	2.22519506e-04
3.04000000e-01	1.65890780e-02	2.20942931e-04
3.04500000e-01	1.67045133e-02	2.21654021e-04
3.05000000e-01	1.67230635e-02	2.21717994e-04
3.05500000e-01	1.64924032e-02	2.17903159e-04
3.06000000e-01	1.66869360e-02	2.19607304e-04
3.06500000e-01	1.67856443e-02	2.21519415e-04
3.07000000e-01	1.63061601e-02	2.15760809e-04
3.07500000e-01	1.66686737e-02	2.20247835e-04
3.08000000e-01	1.65967628e-02	2.18083201e-04
3.08500000e-01	1.66995454e-02	2.20233971e-04
3.09000000e-01	1.66252825e-02	2.19180942e-04
3.09500000e-01	1.64806673e-02	2.16583943e-04
3.10000000e-01	1.66877709e-02	2.19019605e-04
3.10500000e-01	1.65858650e-02	2.18090227e-04
3.11000000e-01	1.67234363e-02	2.19129881e-04
3.11500000e-01	1.66690724e-02	2.17783985e-04
3.12000000e-01	1.64462944e-02	2.14891688e-04
3.12500000e-01	1.65027800e-02	2.16688716e-04
3.13000000e-01	1.66103547e-02	2.18063667e-04
3.13500000e-01	1.64711229e-02	2.15966361e-04
3.14000000e-01	1.65502356e-02	2.16283092e-04
3.14500000e-01	1.65642654e-02	2.15819796e-04
3.15000000e-01	1.64161835e-02	2.14293429e-04
3.15500000e-01	1.64411911e-02	2.14342298e-04
3.16000000e-01	1.63847428e-02	2.14013895e-04
3.16500000e-01	1.64769438e-02	2.14464549e-04
3.17000000e-01	1.66349006e-02	2.15754988e-04
3.17500000e-01	1.65423364e-02	2.15036886e-04
3.18000000e-01	1.63943504e-02	2.12745115e-04
3.18500000e-01	1.64011571e-02	2.12659204e-04
3.19000000e-01	1.64558349e-02	2.13407884e-04
3.19500000e-01	1.64807368e-02	2.13676372e-04
3.20000000e-01	1.63937022e-02	2.12159147e-04
3.20500000e-01	1.63874650e-02	2.12018614e-04
3.21000000e-01	1.63612517e-02	2.11546813e-04
3.21500000e-01	1.63652085e-02	2.11792433e-04
3.22000000e-01	1.63331200e-02	2.11269765e-04
3.22500000e-01	1.63962452e-02	2.11922321e-04
3.23000000e-01	1.62724040e-02	2.09418733e-04
3.23500000e-01	1.62943422e-02	2.10047218e-04
3.24000000e-01	1.64027762e-02	2.11415950e-04
3.24500000e-01	1.61908480e-02	2.08841200e-04
3.25000000e-01	1.62632076e-02	2.09275423e-04
3.25500000e-01	1.62014755e-02	2.08129013e-04
3.26000000e-01	1.62703044e-02	2.08802521e-04
3.26500000e-01	1.61717576e-02	2.07169939e-04
3.27000000e-01	1.62421154e-02	2.08540407e-04
3.27500000e-01	1.64495224e-02	2.10378985e-04
3.28000000e-01	1.64327994e-02	2.09983429e-04
3.28500000e-01	1.63116945e-02	2.08323064e-04
3.29000000e-01	1.62054962e-02	2.06621940e-04
3.29500000e-01	1.63098219e-02	2.08582461e-04
3.30000000e-01	1.62687387e-02	2.07194418e-04
3.30500000e-01	1.63206598e-02	2.08436430e-04
3.31000000e-01	1.63607488e-02	2.07961458e-04
3.31500000e-01	1.61359281e-02	2.06038450e-04
3.32000000e-01	1.63519348e-02	2.07986135e-04
3.32500000e-01	1.62257557e-02	2.05713871e-04
3.33000000e-01	1.61291095e-02	2.04912599e-04
3.33500000e-01	1.62573761e-02	2.06892744e-04
3.34000000e-01	1.61463647e-02	2.05356224e-04
3.34500000e-01	1.60576115e-02	2.04393815e-04
3.35000000e-01	1.61223896e-02	2.03842195e-04
3.35500000e-01	1.61434470e-02	2.04523866e-04
3.36000000e-01	1.60059676e-02	2.03132952e-04
3.36500000e-01	1.62892298e-02	2.06109915e-04
3.37000000e-01	1.62112933e-02	2.04633910e-04
3.37500000e-01	1.61160244e-02	2.03430229e-04
3.38000000e-01	1.62376441e-02	2.04688398e-04
3.38500000e-01	1.61678363e-02	2.03653327e-04
3.39000000e-01	1.60621692e-02	2.02598275e-04
3.39500000e-01	1.59996640e-02	2.01118686e-04
3.40000000e-01	1.60276998e-02	2.02455958e-04
3.40500000e-01	1.61909195e-02	2.03023352e-04
3.41000000e-01	1.62686470e-02	2.03591353e-04
3.41500000e-01	1.58092587e-02	1.98707453e-04
3.42000000e-01	1.59985839e-02	2.00682228e-04
3.42500000e-01	1.59828099e-02	2.00448044e-04
3.43000000e-01	1.60831431e-02	2.00906161e-04
3.43500000e-01	1.60024363e-02	2.00079008e-04
3.44000000e-01	1.62316619e-02	2.03259595e-04
3.44500000e-01	1.59395932e-02	1.99107009e-04
3.45000000e-01	1.60183522e-02	2.00714693e-04
3.45500000e-01	1.60117611e-02	1.99185724e-04
3.46000000e-01	1.59443335e-02	2.00015615e-04
3.46500000e-01	1.58481670e-02	1.97508142e-04
3.47000000e-01	1.59513425e-02	1.98354817e-04
3.47500000e-01	1.60159860e-02	1.99300968e-04
3.48000000e-01	1.58814180e-02	1.97444171e-04
3.48500000e-01	1.59650856e-02	1.98699538e-04
3.49000000e-01	1.57423270e-02	1.95763950e-04
3.49500000e-01	1.58764582e-02	1.97171965e-04
3.50000000e-01	1.58433655e-02	1.60398971e-04
3.51000000e-01	1.58023503e-02	1.38654842e-04
3.52000000e-01	1.58023970e-02	1.38269077e-04
3.53000000e-01	1.58136182e-02	1.38029436e-04
3.54000000e-01	1.58953751e-02	1.38477428e-04
3.55000000e-01	1.59818395e-02	1.39291905e-04
3.56000000e-01	1.57605736e-02	1.37993323e-04
3.57000000e-01	1.58304192e-02	1.41148036e-04
3.58000000e-01	1.56593528e-02	1.41011708e-04
3.59000000e-01	1.57036288e-02	1.42149883e-04
3.60000000e-01	1.57007345e-02	1.42875493e-04
3.61000000e-01	1.55643586e-02	1.42515526e-04
3.62000000e-01	1.57324853e-02	1.44569815e-04
3.63000000e-01	1.55427361e-02	1.43754831e-04
3.64000000e-01	1.55909724e-02	1.44167537e-04
3.65000000e-01	1.55118103e-02	1.44301518e-04
3.66000000e-01	1.55823953e-02	1.43053858e-04
3.67000000e-01	1.56957320e-02	1.42004507e-04
3.68000000e-01	1.55803599e-02	1.39759283e-04
3.69000000e-01	1.55282684e-02	1.39128205e-04
3.70000000e-01	1.54997003e-02	1.37835017e-04
3.71000000e-01	1.54931978e-02	1.39569771e-04
3.72000000e-01	1.55133085e-02	1.40611459e-04
3.73000000e-01	1.54179699e-02	1.40439407e-04
3.74000000e-01	1.55196021e-02	1.40825322e-04
3.75000000e-01	1.56292143e-02	1.42077511e-04
3.76000000e-01	1.55769484e-02	1.41370113e-04
3.77000000e-01	1.55436841e-02	1.41738637e-04
3.78000000e-01	1.54477300e-02	1.40774136e-04
3.79000000e-01	1.55349058e-02	1.41024142e-04
3.80000000e-01	1.54233210e-02	1.40564365e-04
3.81000000e-01	1.54075614e-02	1.40304519e-04
3.82000000e-01	1.55199496e-02	1.40724981e-04
3.83000000e-01	1.55096291e-02	1.40648829e-04
3.84000000e-01	1.54273516e-02	1.40298752e-04
3.85000000e-01	1.52291345e-02	1.38933482e-04
3.86000000e-01	1.54691456e-02	1.40669743e-04
3.87000000e-01	1.53778137e-02	1.39574180e-04
3.88000000e-01	1.54180790e-02	1.39741901e-04
3.89000000e-01	1.53034500e-02	1.38928256e-04
3.90000000e-01	1.53055607e-02	1.38731092e-04
3.91000000e-01	1.53393410e-02	1.39056676e-04
3.92000000e-01	1.53224975e-02	1.38959872e-04
3.93000000e-01	1.51225948e-02	1.37072001e-04
3.94000000e-01	1.51735535e-02	1.37529319e-04
3.95000000e-01	1.52402048e-02	1.38216807e-04
3.96000000e-01	1.51865725e-02	1.37888461e-04
3.97000000e-01	1.51252878e-02	1.36947169e-04
3.98000000e-01	1.52046014e-02	1.37802738e-04
3.99000000e-01	1.51720502e-02	1.37510537e-04
4.00000000e-01	1.50644368e-02	1.36484054e-04
4.01000000e-01	1.51756486e-02	1.37357670e-04
4.02000000e-01	1.53181655e-02	1.38493101e-04
4.03000000e-01	1.51592934e-02	1.37394836e-04
4.04000000e-01	1.52549485e-02	1.38068490e-04
4.05000000e-01	1.51470836e-02	1.37208726e-04
4.06000000e-01	1.51900120e-02	1.37352050e-04
4.07000000e-01	1.49865867e-02	1.36042582e-04
4.08000000e-01	1.49218163e-02	1.35235103e-04
4.09000000e-01	1.50623901e-02	1.36121893e-04
4.10000000e-01	1.50364072e-02	1.35948378e-04
4.11000000e-01	1.49643693e-02	1.35329936e-04
4.12000000e-01	1.50249439e-02	1.36073828e-04
4.13000000e-01	1.49233443e-02	1.35139985e-04
4.14000000e-01	1.49648481e-02	1.35268211e-04
4.15000000e-01	1.48988624e-02	1.34865860e-04
4.16000000e-01	1.49749457e-02	1.35204966e-04
4.17000000e-01	1.50010093e-02	1.35254475e-04
4.18000000e-01	1.48709877e-02	1.35731442e-04
4.19000000e-01	1.51537093e-02	1.39930445e-04
4.20000000e-01	1.50573673e-02	1.39744619e-04
4.21000000e-01	1.50156938e-02	1.39609124e-04
4.22000000e-01	1.50672077e-02	1.40399074e-04
4.23000000e-01	1.50458363e-02	1.40997583e-04
4.24000000e-01	1.50065167e-02	1.41192857e-04
4.25000000e-01	1.50338538e-02	1.41529312e-04
4.26000000e-01	1.50329487e-02	1.41281591e-04
4.27000000e-01	1.49412448e-02	1.40498406e-04
4.28000000e-01	1.49579657e-02	1.41204168e-04
4.29000000e-01	1.50437126e-02	1.42153295e-04
4.30000000e-01	1.50092253e-02	1.41428220e-04
4.31000000e-01	1.49489104e-02	1.40916373e-04
4.32000000e-01	1.48184419e-02	1.40304084e-04
4.33000000e-01	1.48775943e-02	1.40402725e-04
4.34000000e-01	1.48364512e-02	1.40512022e-04
4.35000000e-01	1.47855705e-02	1.40186710e-04
4.36000000e-01	1.47736033e-02	1.40520235e-04
4.37000000e-01	1.48020549e-02	1.40863755e-04
4.38000000e-01	1.47765720e-02	1.40525615e-04
4.39000000e-01	1.48855321e-02	1.42209889e-04
4.40000000e-01	1.49282274e-02	1.42348919e-04
4.41000000e-01	1.48709675e-02	1.41706752e-04
4.42000000e-01	1.47835066e-02	1.41610938e-04
4.43000000e-01	1.48454464e-02	1.42298995e-04
4.44000000e-01	1.47031730e-02	1.41006167e-04
4.45000000e-01	1.47901310e-02	1.41970380e-04
4.46000000e-01	1.48203054e-02	1.42409313e-04
4.47000000e-01	1.48128411e-02	1.42191532e-04
4.48000000e-01	1.47132573e-02	1.41584631e-04
4.49000000e-01	1.46882279e-02	1.41741342e-04
4.50000000e-01	1.48451280e-02	1.43357804e-04
4.51000000e-01	1.48500324e-02	1.43120042e-04
4.52000000e-01	1.47662074e-02	1.42594980e-04
4.53000000e-01	1.47132893e-02	1.42129598e-04
4.54000000e-01	1.46029612e-02	1.41607707e-04
4.55000000e-01	1.46555319e-02	1.42024654e-04
4.56000000e-01	1.47211183e-02	1.42805274e-04
4.57000000e-01	1.45682064e-02	1.41610352e-04
4.58000000e-01	1.46271747e-02	1.41525703e-04
4.59000000e-01	1.46514210e-02	1.42362705e-04
4.60000000e-01	1.46179219e-02	1.42308241e-04
4.61000000e-01	1.46461565e-02	1.42760042e-04
4.62000000e-01	1.46237220e-02	1.42354894e-04
4.63000000e-01	1.47470843e-02	1.43632123e-04
4.64000000e-01	1.47371708e-02	1.43677053e-04
4.65000000e-01	1.45268700e-02	1.42092498e-04
4.66000000e-01	1.45386871e-02	1.42392381e-04
4.67000000e-01	1.45965802e-02	1.42922791e-04
4.68000000e-01	1.44986575e-02	1.42186143e-04
4.69000000e-01	1.46893417e-02	1.43978404e-04
4.70000000e-01	1.44451842e-02	1.41897452e-04
4.71000000e-01	1.44583196e-02	1.41386376e-04
4.72000000e-01	1.44977202e-02	1.42389950e-04
4.73000000e-01	1.44918761e-02	1.41927170e-04
4.74000000e-01	1.44718230e-02	1.41417742e-04
4.75000000e-01	1.43749321e-02	1.40650722e-04
4.76000000e-01	1.45332052e-02	1.42448114e-04
4.77000000e-01	1.44396129e-02	1.41906698e-04
4.78000000e-01	1.44012863e-02	1.40780043e-04
4.79000000e-01	1.44821450e-02	1.42122289e-04
4.80000000e-01	1.44871406e-02	1.42209915e-04
4.81000000e-01	1.44457401e-02	1.42259945e-04
4.82000000e-01	1.44797844e-02	1.41956134e-04
4.83000000e-01	1.44485490e-02	1.42238178e-04
4.84000000e-01	1.44220225e-02	1.42364220e-04
4.85000000e-01	1.42711522e-02	1.40991681e-04
4.86000000e-01	1.43948955e-02	1.41433669e-04
4.87000000e-01	1.43958762e-02	1.41708825e-04
4.88000000e-01	1.43227953e-02	1.41306066e-04
4.89000000e-01	1.42219943e-02	1.40631176e-04
4.90000000e-01	1.43808856e-02	1.42268298e-04
4.91000000e-01	1.43930430e-02	1.42113547e-04
4.92000000e-01	1.43001815e-02	1.40887712e-04
4.93000000e-01	1.43459584e-02	1.41628143e-04
4.94000000e-01	1.42339311e-02	1.41497843e-04
4.95000000e-01	1.43370788e-02	1.42716598e-04
4.96000000e-01	1.42485248e-02	1.46115940e-04
4.97000000e-01	1.43152254e-02	1.49831856e-04
4.98000000e-01	1.41749219e-02	1.50322204e-04
4.99000000e-01	1.43434523e-02	1.53317900e-04
5.00000000e-01	1.43808765e-02	1.55767243e-04
5.01000000e-01	1.42803744e-02	1.56214675e-04
5.02000000e-01	1.43409299e-02	1.58131995e-04
5.03000000e-01	1.42366096e-02	1.58779583e-04
5.04000000e-01	1.42342222e-02	1.60398747e-04
5.05000000e-01	1.42672639e-02	1.57816394e-04
5.06000000e-01	1.44403603e-02	1.56357851e-04
5.07000000e-01	1.42526313e-02	1.52878204e-04
5.08000000e-01	1.42260214e-02	1.51856497e-04
5.09000000e-01	1.43232089e-02	1.51719772e-04
5.10000000e-01	1.42517981e-02	1.50530327e-04
5.11000000e-01	1.41987460e-02	1.49739027e-04
5.12000000e-01	1.42939920e-02	1.50333846e-04
5.13000000e-01	1.41883452e-02	1.48617372e-04
5.14000000e-01	1.41135042e-02	1.47798842e-04
5.15000000e-01	1.41271811e-02	1.47715423e-04
5.16000000e-01	1.42127664e-02	1.48101329e-04
5.17000000e-01	1.42458993e-02	1.48372458e-04
5.18000000e-01	1.42882539e-02	1.48785948e-04
5.19000000e-01	1.40052245e-02	1.45420753e-04
5.20000000e-01	1.40696509e-02	1.45552359e-04
5.21000000e-01	1.40657686e-02	1.45254497e-04
5.22000000e-01	1.40816940e-02	1.45796646e-04
5.23000000e-01	1.40912581e-02	1.45742771e-04
5.24000000e-01	1.40447206e-02	1.45194500e-04
5.25000000e-01	1.41302037e-02	1.45647605e-04
5.26000000e-01	1.40923387e-02	1.45589833e-04
5.27000000e-01	1.39041027e-02	1.43514397e-04
5.28000000e-01	1.39311547e-02	1.43584184e-04
5.29000000e-01	1.41431820e-02	1.45645638e-04
5.30000000e-01	1.41142158e-02	1.46007259e-04
5.31000000e-01	1.40750250e-02	1.45439580e-04
5.32000000e-01	1.40518634e-02	1.45581284e-04
5.33000000e-01	1.40322171e-02	1.44881609e-04
5.34000000e-01	1.39850959e-02	1.44393300e-04
5.35000000e-01	1.37818667e-02	1.42965076e-04
5.36000000e-01	1.39440437e-02	1.44101406e-04
5.37000000e-01	1.40849563e-02	1.45215745e-04
5.38000000e-01	1.37875268e-02	1.41885675e-04
5.39000000e-01	1.38663344e-02	1.43693330e-04
5.40000000e-01	1.37686596e-02	1.42151057e-04
5.41000000e-01	1.40574389e-02	1.44668380e-04
5.42000000e-01	1.39074335e-02	1.43281039e-04
5.43000000e-01	1.38829234e-02	1.43090335e-04
5.44000000e-01	1.37735338e-02	1.42758373e-04
5.45000000e-01	1.38232002e-02	1.42994685e-04
5.46000000e-01	1.39123032e-02	1.43595325e-04
5.47000000e-01	1.39008423e-02	1.43866695e-04
5.48000000e-01	1.38069740e-02	1.42398532e-04
5.49000000e-01	1.37252823e-02	1.41721162e-04
5.50000000e-01	1.37638051e-02	1.41884481e-04
5.51000000e-01	1.37949233e-02	1.42408289e-04
5.52000000e-01	1.36959020e-02	1.41388750e-04
5.53000000e-01	1.35474235e-02	1.39767058e-04
5.54000000e-01	1.39132122e-02	1.42568057e-04
5.55000000e-01	1.37689997e-02	1.41306575e-04
5.56000000e-01	1.37649861e-02	1.41093339e-04
5.57000000e-01	1.38914895e-02	1.42289951e-04
5.58000000e-01	1.36945970e-02	1.40261023e-04
5.59000000e-01	1.37785361e-02	1.42041843e-04
5.60000000e-01	1.37385823e-02	1.40948674e-04
5.61000000e-01	1.35633281e-02	1.39295818e-04
5.62000000e-01	1.37259992e-02	1.41375547e-04
5.63000000e-01	1.36063844e-02	1.40402110e-04
5.64000000e-01	1.37906153e-02	1.41288911e-04
5.65000000e-01	1.36212915e-02	1.40086286e-04
5.66000000e-01	1.36338006e-02	1.40342224e-04
5.67000000e-01	1.36857267e-02	1.40713535e-04
5.68000000e-01	1.36152741e-02	1.40297376e-04
5.69000000e-01	1.35634725e-02	1.38826093e-04
5.70000000e-01	1.35027569e-02	1.38850636e-04
5.71000000e-01	1.35517875e-02	1.39173028e-04
5.72000000e-01	1.35147866e-02	1.39027705e-04
5.73000000e-01	1.35459195e-02	1.39587359e-04
5.74000000e-01	1.34836851e-02	1.38409376e-04
5.75000000e-01	1.34566262e-02	1.38641028e-04
5.76000000e-01	1.35333749e-02	1.39103608e-04
5.77000000e-01	1.35269475e-02	1.39487749e-04
5.78000000e-01	1.33810912e-02	1.37832438e-04
5.79000000e-01	1.35326591e-02	1.39295747e-04
5.80000000e-01	1.35012240e-02	1.39190474e-04
5.81000000e-01	1.33951618e-02	1.38098980e-04
5.82000000e-01	1.34841493e-02	1.39217802e-04
5.83000000e-01	1.33405671e-02	1.37767212e-04
5.84000000e-01	1.36017051e-02	1.40388707e-04
5.85000000e-01	1.35069032e-02	1.39259646e-04
5.86000000e-01	1.34541697e-02	1.39305834e-04
5.87000000e-01	1.34624308e-02	1.38740752e-04
5.88000000e-01	1.34368143e-02	1.38480493e-04
5.89000000e-01	1.34316032e-02	1.38910183e-04
5.90000000e-01	1.32738217e-02	1.37240290e-04
5.91000000e-01	1.33874785e-02	1.38010764e-04
5.92000000e-01	1.32512428e-02	1.37188342e-04
5.93000000e-01	1.31758580e-02	1.36679606e-04
5.94000000e-01	1.33655648e-02	1.37912529e-04
5.95000000e-01	1.33399837e-02	1.38099536e-04
5.96000000e-01	1.33366668e-02	1.38448494e-04
5.97000000e-01	1.33306699e-02	1.38094093e-04
5.98000000e-01	1.31974889e-02	1.36255835e-04
5.99000000e-01	1.31147459e-02	1.36060200e-04
6.00000000e-01	1.33198515e-02	1.37753824e-04
6.01000000e-01	1.31949561e-02	1.37142716e-04
6.02000000e-01	1.33001689e-02	1.37534575e-04
6.03000000e-01	1.31473916e-02	1.36353099e-04
6.04000000e-01	1.32646249e-02	1.37332201e-04
6.05000000e-01	1.32517318e-02	1.37380574e-04
6.06000000e-01	1.32987634e-02	1.37778160e-04
6.07000000e-01	1.31878013e-02	1.36861454e-04
6.08000000e-01	1.32083283e-02	1.37132300e-04
6.09000000e-01	1.32572308e-02	1.37436396e-04
6.10000000e-01	1.31894557e-02	1.36858414e-04
6.11000000e-01	1.30717186e-02	1.35430165e-04
6.12000000e-01	1.31338102e-02	1.36536990e-04
6.13000000e-01	1.31795704e-02	1.36774114e-04
6.14000000e-01	1.31114535e-02	1.36305176e-04
6.15000000e-01	1.31135599e-02	1.35699111e-04
6.16000000e-01	1.32042953e-02	1.36550290e-04
6.17000000e-01	1.31723621e-02	1.36584761e-04
6.18000000e-01	1.32243398e-02	1.37005472e-04
6.19000000e-01	1.31318960e-02	1.35866267e-04
6.20000000e-01	1.31987522e-02	1.36866117e-04
6.21000000e-01	1.30310702e-02	1.34490267e-04
6.22000000e-01	1.30812299e-02	1.35450450e-04
6.23000000e-01	1.30624551e-02	1.34546583e-04
6.24000000e-01	1.29364143e-02	1.33463221e-04
6.25000000e-01	1.30150159e-02	1.34247939e-04
6.26000000e-01	1.30132222e-02	1.34220068e-04
6.27000000e-01	1.29219422e-02	1.33376069e-04
6.28000000e-01	1.30700120e-02	1.34775971e-04
6.29000000e-01	1.31245028e-02	1.35420764e-04
6.30000000e-01	1.30247845e-02	1.34507701e-04
6.31000000e-01	1.30112586e-02	1.34357065e-04
6.32000000e-01	1.30323348e-02	1.34691014e-04
6.33000000e-01	1.30174089e-02	1.34306960e-04
6.34000000e-01	1.30462123e-02	1.37865412e-04
6.35000000e-01	1.29742497e-02	1.40892729e-04
6.36000000e-01	1.30086908e-02	1.43810450e-04
6.37000000e-01	1.30680930e-02	1.46734123e-04
6.38000000e-01	1.30881269e-02	1.48959563e-04
6.39000000e-01	1.30873766e-02	1.51079486e-04
6.40000000e-01	1.30042110e-02	1.52155716e-04
6.41000000e-01	1.30666950e-02	1.54707997e-04
6.42000000e-01	1.30021182e-02	1.55141476e-04
6.43000000e-01	1.30724437e-02	1.55397760e-04
6.44000000e-01	1.31107266e-02	1.50509321e-04
6.45000000e-01	1.30927293e-02	1.49104927e-04
6.46000000e-01	1.31427909e-02	1.47652474e-04
6.47000000e-01	1.30673349e-02	1.45552439e-04
6.48000000e-01	1.30648550e-02	1.44248096e-04
6.49000000e-01	1.31153159e-02	1.44689738e-04
6.50000000e-01	1.32011139e-02	1.43921877e-04
6.51000000e-01	1.29732704e-02	1.42250711e-04
6.52000000e-01	1.28799941e-02	1.40471621e-04
6.53000000e-01	1.29861283e-02	1.40923048e-04
6.54000000e-01	1.29922899e-02	1.40642538e-04
6.55000000e-01	1.29676196e-02	1.39890115e-04
6.56000000e-01	1.30787546e-02	1.40433466e-04
6.57000000e-01	1.30954019e-02	1.40768913e-04
6.58000000e-01	1.29447151e-02	1.38898807e-04
6.59000000e-01	1.30301779e-02	1.40164174e-04
6.60000000e-01	1.30567269e-02	1.39826884e-04
6.61000000e-01	1.29561793e-02	1.38654749e-04
6.62000000e-01	1.29493847e-02	1.39055400e-04
6.63000000e-01	1.29875958e-02	1.39404677e-04
6.64000000e-01	1.29958170e-02	1.39175317e-04
6.65000000e-01	1.29421211e-02	1.39250683e-04
6.66000000e-01	1.28580652e-02	1.38095893e-04
6.67000000e-01	1.29735052e-02	1.39014147e-04
6.68000000e-01	1.29763626e-02	1.38271529e-04
6.69000000e-01	1.28182025e-02	1.37787842e-04
6.70000000e-01	1.29330856e-02	1.37941412e-04
6.71000000e-01	1.29180564e-02	1.37931862e-04
6.72000000e-01	1.29627575e-02	1.38568728e-04
6.73000000e-01	1.28045607e-02	1.37298791e-04
6.74000000e-01	1.26591054e-02	1.35501904e-04
6.75000000e-01	1.29881438e-02	1.38858320e-04
6.76000000e-01	1.28116682e-02	1.36332767e-04
6.77000000e-01	1.28452083e-02	1.37694486e-04
6.78000000e-01	1.27720694e-02	1.36191436e-04
6.79000000e-01	1.27668567e-02	1.36515893e-04
6.80000000e-01	1.28188710e-02	1.36647716e-04
6.81000000e-01	1.27966897e-02	1.36740762e-04
6.82000000e-01	1.27703079e-02	1.36098313e-04
6.83000000e-01	1.29389914e-02	1.37693545e-04
6.84000000e-01	1.27724437e-02	1.36323175e-04
6.85000000e-01	1.26596511e-02	1.35165628e-04
6.86000000e-01	1.27545127e-02	1.36557555e-04
6.87000000e-01	1.27792626e-02	1.36454522e-04
6.88000000e-01	1.27479544e-02	1.36247251e-04
6.89000000e-01	1.27420294e-02	1.36021206e-04
6.90000000e-01	1.28319332e-02	1.36487812e-04
6.91000000e-01	1.27323573e-02	1.35620789e-04
6.92000000e-01	1.26893461e-02	1.34602157e-04
6.93000000e-01	1.27267339e-02	1.35634675e-04
6.94000000e-01	1.25078004e-02	1.33684456e-04
6.95000000e-01	1.26214427e-02	1.34375654e-04
6.96000000e-01	1.27346047e-02	1.35721522e-04
6.97000000e-01	1.27130403e-02	1.34684845e-04
6.98000000e-01	1.26453632e-02	1.34334072e-04
6.99000000e-01	1.26155899e-02	1.34215549e-04
7.00000000e-01	1.26245959e-02	1.34683559e-04
7.01000000e-01	1.26621011e-02	1.34772293e-04
7.02000000e-01	1.26073352e-02	1.34458243e-04
7.03000000e-01	1.24326957e-02	1.32415585e-04
7.04000000e-01	1.26997559e-02	1.35047021e-04
7.05000000e-01	1.25115332e-02	1.33155750e-04
7.06000000e-01	1.25066911e-02	1.33425908e-04
7.07000000e-01	1.26001007e-02	1.34117463e-04
7.08000000e-01	1.25173323e-02	1.32451694e-04
7.09000000e-01	1.24238560e-02	1.32290747e-04
7.10000000e-01	1.24439734e-02	1.32352832e-04
7.11000000e-01	1.25093216e-02	1.33039185e-04
7.12000000e-01	1.24536528e-02	1.32325846e-04
7.13000000e-01	1.24146214e-02	1.32242808e-04
7.14000000e-01	1.24194592e-02	1.32544689e-04
7.15000000e-01	1.24711653e-02	1.33093222e-04
7.16000000e-01	1.25486863e-02	1.33608144e-04
7.17000000e-01	1.25319342e-02	1.33191586e-04
7.18000000e-01	1.23257427e-02	1.31508337e-04
7.19000000e-01	1.23497046e-02	1.31490769e-04
7.20000000e-01	1.23393483e-02	1.31892062e-04
7.21000000e-01	1.24053998e-02	1.32285686e-04
7.22000000e-01	1.23350539e-02	1.31752788e-04
7.23000000e-01	1.24224536e-02	1.32517713e-04
7.24000000e-01	1.22119290e-02	1.30728458e-04
7.25000000e-01	1.22535602e-02	1.30590104e-04
7.26000000e-01	1.23127459e-02	1.31454623e-04
7.27000000e-01	1.22493272e-02	1.30509744e-04
7.28000000e-01	1.24502271e-02	1.32639699e-04
7.29000000e-01	1.23247703e-02	1.31898659e-04
7.30000000e-01	1.22077864e-02	1.30163755e-04
7.31000000e-01	1.22332602e-02	1.30403409e-04
7.32000000e-01	1.21744231e-02	1.29892754e-04
7.33000000e-01	1.21991806e-02	1.30033766e-04
7.34000000e-01	1.21134448e-02	1.29080033e-04
7.35000000e-01	1.22754039e-02	1.30272664e-04
7.36000000e-01	1.20824202e-02	1.28467755e-04
7.37000000e-01	1.21826317e-02	1.29047992e-04
7.38000000e-01	1.22232925e-02	1.30128038e-04
7.39000000e-01	1.21886933e-02	1.28834940e-04
7.40000000e-01	1.22004785e-02	1.29102488e-04
7.41000000e-01	1.21644518e-02	1.28215120e-04
7.42000000e-01	1.20091023e-02	1.26978572e-04
7.43000000e-01	1.19391737e-02	1.26227186e-04
7.44000000e-01	1.20155902e-02	1.27222628e-04
7.45000000e-01	1.21877945e-02	1.29129208e-04
7.46000000e-01	1.22584356e-02	1.29179347e-04
7.47000000e-01	1.21178816e-02	1.28145494e-04
7.48000000e-01	1.21102219e-02	1.28002268e-04
7.49000000e-01	1.21024024e-02	1.27688285e-04
7.50000000e-01	1.20208720e-02	1.26986954e-04
7.51000000e-01	1.21445957e-02	1.28180557e-04
7.52000000e-01	1.20209764e-02	1.27419575e-04
7.53000000e-01	1.21342763e-02	1.27984748e-04
7.54000000e-01	1.19977798e-02	1.27341376e-04
7.55000000e-01	1.18985853e-02	1.26094131e-04
7.56000000e-01	1.19768173e-02	1.26397841e-04
7.57000000e-01	1.20583432e-02	1.27705069e-04
7.58000000e-01	1.20169970e-02	1.26826625e-04
7.59000000e-01	1.19326870e-02	1.25997222e-04
7.60000000e-01	1.19455062e-02	1.25274941e-04
7.61000000e-01	1.19338612e-02	1.25090466e-04
7.62000000e-01	1.18585166e-02	1.25378481e-04
7.63000000e-01	1.19546792e-02	1.25744873e-04
7.64000000e-01	1.19538017e-02	1.25319916e-04
7.65000000e-01	1.19644882e-02	1.25607934e-04
7.66000000e-01	1.19158777e-02	1.25003201e-04
7.67000000e-01	1.19083476e-02	1.25232014e-04
7.68000000e-01	1.19173825e-02	1.25070926e-04
7.69000000e-01	1.18602611e-02	1.24367617e-04
7.70000000e-01	1.17343989e-02	1.23555937e-04
7.71000000e-01	1.18502243e-02	1.24536918e-04
7.72000000e-01	1.18969407e-02	1.28431356e-04
7.73000000e-01	1.18366204e-02	1.32008003e-04
7.74000000e-01	1.17548514e-02	1.33708341e-04
7.75000000e-01	1.17222285e-02	1.35535818e-04
7.76000000e-01	1.18718521e-02	1.39169446e-04
7.77000000e-01	1.17088269e-02	1.39944532e-04
7.78000000e-01	1.18020896e-02	1.42772349e-04
7.79000000e-01	1.19649038e-02	1.46201394e-04
7.80000000e-01	1.17100058e-02	1.44740695e-04
7.81000000e-01	1.17998666e-02	1.47225623e-04
7.82000000e-01	1.16867953e-02	1.48246007e-04
7.83000000e-01	1.17835527e-02	1.50770996e-04
7.84000000e-01	1.17758248e-02	1.51976634e-04
7.85000000e-01	1.17519631e-02	1.52973767e-04
7.86000000e-01	1.18447528e-02	1.56746124e-04
7.87000000e-01	1.16728577e-02	1.55741116e-04
7.88000000e-01	1.15731775e-02	1.55740283e-04
7.89000000e-01	1.18453155e-02	1.59873409e-04
7.90000000e-01	1.15401151e-02	1.58386339e-04
7.91000000e-01	1.16698563e-02	1.60998342e-04
7.92000000e-01	1.15823547e-02	1.63275874e-04
7.93000000e-01	1.15938554e-02	1.64380230e-04
7.94000000e-01	1.14964483e-02	1.64394805e-04
7.95000000e-01	1.15643311e-02	1.66990863e-04
7.96000000e-01	1.14930425e-02	1.68149125e-04
7.97000000e-01	1.15702175e-02	1.70089807e-04
7.98000000e-01	1.15382107e-02	1.71807142e-04
7.99000000e-01	1.14958912e-02	1.73089952e-04
8.00000000e-01	1.15615791e-02	1.75221996e-04
8.01000000e-01	1.16146372e-02	1.79461807e-04
8.02000000e-01	1.16733680e-02	1.80297112e-04
8.03000000e-01	1.13525840e-02	1.78669240e-04
8.04000000e-01	1.13829730e-02	1.81444155e-04
8.05000000e-01	1.13468241e-02	1.83228322e-04
8.06000000e-01	1.16229015e-02	1.88735885e-04
8.07000000e-01	1.13616438e-02	1.86559113e-04
8.08000000e-01	1.16156479e-02	1.92291130e-04
8.09000000e-01	1.12432487e-02	1.88359466e-04
8.10000000e-01	1.14828772e-02	1.94117007e-04
8.11000000e-01	1.13312354e-02	1.94956204e-04
8.12000000e-01	1.12949238e-02	1.96373716e-04
8.13000000e-01	1.10930134e-02	1.95993531e-04
8.14000000e-01	1.12368535e-02	2.00609981e-04
8.15000000e-01	1.14204655e-02	2.04891910e-04
8.16000000e-01	1.12480274e-02	2.03862990e-04
8.17000000e-01	1.11055874e-02	2.06158218e-04
8.18000000e-01	1.11769334e-02	2.08855078e-04
8.19000000e-01	1.11662167e-02	2.11651997e-04
8.20000000e-01	1.13381002e-02	2.15691130e-04
8.21000000e-01	1.10358408e-02	2.14348567e-04
8.22000000e-01	1.13479849e-02	2.23677044e-04
8.23000000e-01	1.12461400e-02	2.24983995e-04
8.24000000e-01	1.11199415e-02	2.25330811e-04
8.25000000e-01	1.10866343e-02	2.26427139e-04
8.26000000e-01	1.13198635e-02	2.35182376e-04
8.27000000e-01	1.09274040e-02	2.31601954e-04
8.28000000e-01	1.11974645e-02	2.38296680e-04
8.29000000e-01	1.10634932e-02	2.41631145e-04
8.30000000e-01	1.09131049e-02	2.42029920e-04
8.31000000e-01	1.10756342e-02	2.49797248e-04
8.32000000e-01	1.10675442e-02	2.53272010e-04
8.33000000e-01	1.11903789e-02	2.59974814e-04
8.34000000e-01	1.08416122e-02	2.56875309e-04
8.35000000e-01	1.11272032e-02	2.67968097e-04
8.36000000e-01	1.12590734e-02	2.73701581e-04
8.37000000e-01	1.08674673e-02	2.72183380e-04
8.38000000e-01	1.09477370e-02	2.81162690e-04
8.39000000e-01	1.08001283e-02	2.82419677e-04
8.40000000e-01	1.08045508e-02	2.87487179e-04
8.41000000e-01	1.09606496e-02	2.97261854e-04
8.42000000e-01	1.04959422e-02	2.94767105e-04
8.43000000e-01	1.08380248e-02	3.08752125e-04
8.44000000e-01	1.05915262e-02	3.07689978e-04
8.45000000e-01	1.10565416e-02	3.31120040e-04
8.46000000e-01	1.08011177e-02	3.32995002e-04
8.47000000e-01	1.09568447e-02	3.42000874e-04
8.48000000e-01	1.12802081e-02	3.61740115e-04
8.49000000e-01	1.11633961e-02	3.74569156e-04
8.50000000e-01	1.09751751e-02	3.81748313e-04
8.51000000e-01	1.09776861e-02	3.98022594e-04
8.52000000e-01	1.06064076e-02	4.02315100e-04
8.53000000e-01	1.05634934e-02	4.16303177e-04
8.54000000e-01	1.04109807e-02	4.27327206e-04
8.55000000e-01	1.06701344e-02	4.52364777e-04
8.56000000e-01	1.06291420e-02	4.65801859e-04
8.57000000e-01	1.06960238e-02	4.82085420e-04
8.58000000e-01	1.07635743e-02	4.89583116e-04
8.59000000e-01	1.07132578e-02	5.12203832e-04
8.60000000e-01	1.07565905e-02	5.23705286e-04
8.61000000e-01	1.11172762e-02	5.52943797e-04
8.62000000e-01	1.13570169e-02	5.96290221e-04
8.63000000e-01	1.08537268e-02	5.85930616e-04
8.64000000e-01	9.92061742e-03	5.75694465e-04
8.65000000e-01	9.91961763e-03	6.04482949e-04
8.66000000e-01	9.98589400e-03	6.34111502e-04
8.67000000e-01	1.07990833e-02	7.28197836e-04
8.68000000e-01	1.04556353e-02	7.54294063e-04
8.69000000e-01	1.04123330e-02	7.97547686e-04
8.70000000e-01	1.04272814e-02	8.65224563e-04
8.71000000e-01	9.69963870e-03	9.02395664e-04
8.72000000e-01	9.82687412e-03	1.03571854e-03
8.73000000e-01	9.24394674e-03	1.12734319e-03
8.74000000e-01	1.04010087e-02	1.69144446e-03
8.75000000e-01	1.14888994e-02	3.82962885e-03
