% Filename : SDL1_00022_00008.h5
% Date & Time : 30-Oct-2025 16:48:37
% X-ray Energy (keV) : 13.30001
% Exposure Time (s) : 0.500
% Beam Center : 1461.24000, 208.98300
% Sample to Detector Distance (SDD) (mm) : 1990.750
% Detector Pixel Size (mm) : 0.075
% Photodiode Value : 141373.000
% I0 of Sample : 0
% I0 of Standard : 1
% 
% q(A^-1)   I(q)    I(q)_SE
0.00000000e+00	8.94562136e-03	4.94945895e-03
2.50000000e-04	0.00000000e+00	0.00000000e+00
5.00000000e-04	0.00000000e+00	0.00000000e+00
7.50000000e-04	0.00000000e+00	0.00000000e+00
1.00000000e-03	0.00000000e+00	0.00000000e+00
1.25000000e-03	0.00000000e+00	0.00000000e+00
1.50000000e-03	0.00000000e+00	0.00000000e+00
1.75000000e-03	0.00000000e+00	0.00000000e+00
2.00000000e-03	0.00000000e+00	0.00000000e+00
2.25000000e-03	0.00000000e+00	0.00000000e+00
2.50000000e-03	0.00000000e+00	0.00000000e+00
2.75000000e-03	0.00000000e+00	0.00000000e+00
3.00000000e-03	0.00000000e+00	0.00000000e+00
3.25000000e-03	3.51657266e+02	2.76740646e+02
3.50000000e-03	1.62781001e+02	8.16391849e+01
3.75000000e-03	8.28234203e+01	4.45251696e+01
4.00000000e-03	5.40397971e+01	2.47848798e+01
4.25000000e-03	3.15788432e+01	1.50862884e+01
4.50000000e-03	5.32278616e+01	2.02735583e+01
4.75000000e-03	4.68868280e+01	1.40210113e+01
5.00000000e-03	3.82233133e+01	1.14205570e+01
5.25000000e-03	2.67089057e+01	7.62722307e+00
5.50000000e-03	1.75928000e+01	4.44642946e+00
5.75000000e-03	1.43365887e+01	3.55473636e+00
6.00000000e-03	1.26904921e+01	3.19454833e+00
6.25000000e-03	1.22372081e+01	2.97406985e+00
6.50000000e-03	1.09114477e+01	2.55341674e+00
6.75000000e-03	1.00613906e+01	2.33813713e+00
7.00000000e-03	9.00042251e+00	2.07779570e+00
7.25000000e-03	7.23680544e+00	1.59894475e+00
7.50000000e-03	5.23052855e+00	1.10356847e+00
7.75000000e-03	4.76924064e+00	9.74260633e-01
8.00000000e-03	4.67518452e+00	9.73136751e-01
8.25000000e-03	4.09491470e+00	7.96828796e-01
8.50000000e-03	3.84635258e+00	7.07387183e-01
8.75000000e-03	3.42316407e+00	6.36842579e-01
9.00000000e-03	3.01021095e+00	5.65039831e-01
9.25000000e-03	2.61875449e+00	4.64966224e-01
9.50000000e-03	2.30851776e+00	3.93414143e-01
9.75000000e-03	2.15186359e+00	3.48452079e-01
1.00000000e-02	1.90062955e+00	2.93404496e-01
1.02500000e-02	1.87896212e+00	2.97289343e-01
1.05000000e-02	1.65370470e+00	2.48736861e-01
1.07500000e-02	1.48728784e+00	2.15860091e-01
1.10000000e-02	1.32345789e+00	1.81576489e-01
1.12500000e-02	1.27625818e+00	1.80918000e-01
1.15000000e-02	1.22186014e+00	1.67996057e-01
1.17500000e-02	1.13937718e+00	1.58463724e-01
1.20000000e-02	1.02383423e+00	1.37346917e-01
1.22500000e-02	9.45230239e-01	1.19376171e-01
1.25000000e-02	8.63671925e-01	1.00518975e-01
1.27500000e-02	7.88583903e-01	8.80269250e-02
1.30000000e-02	7.44140026e-01	8.32593612e-02
1.32500000e-02	7.06042863e-01	8.04213309e-02
1.35000000e-02	6.81794728e-01	7.83474931e-02
1.37500000e-02	6.43691523e-01	7.00381814e-02
1.40000000e-02	5.77573519e-01	5.78089057e-02
1.42500000e-02	5.37420941e-01	5.15486632e-02
1.45000000e-02	4.93918429e-01	4.63504149e-02
1.47500000e-02	4.71095450e-01	4.42779577e-02
1.50000000e-02	4.51122475e-01	4.23620486e-02
1.52500000e-02	4.34432138e-01	3.98030278e-02
1.55000000e-02	4.03994384e-01	3.53134624e-02
1.57500000e-02	3.81896687e-01	3.35448409e-02
1.60000000e-02	3.60019361e-01	3.15326564e-02
1.62500000e-02	3.46895279e-01	2.95752135e-02
1.65000000e-02	3.16260681e-01	2.54735829e-02
1.67500000e-02	3.04256927e-01	2.40152459e-02
1.70000000e-02	2.85343045e-01	2.23330291e-02
1.72500000e-02	2.84955640e-01	2.22177298e-02
1.75000000e-02	2.71839661e-01	2.08842801e-02
1.77500000e-02	2.50244437e-01	1.84216084e-02
1.80000000e-02	2.38578054e-01	1.73059632e-02
1.82500000e-02	2.23856440e-01	1.58865233e-02
1.85000000e-02	2.19173701e-01	1.59737680e-02
1.87500000e-02	2.07988311e-01	1.45005770e-02
1.90000000e-02	1.99414919e-01	1.35736563e-02
1.92500000e-02	1.90598148e-01	1.24586377e-02
1.95000000e-02	1.78944478e-01	1.19940032e-02
1.97500000e-02	1.75968967e-01	1.17921437e-02
2.00000000e-02	1.63196777e-01	1.08493112e-02
2.02500000e-02	1.58829627e-01	1.01521030e-02
2.05000000e-02	1.49113040e-01	9.11927945e-03
2.07500000e-02	1.45586802e-01	9.07485592e-03
2.10000000e-02	1.43038024e-01	9.11380445e-03
2.12500000e-02	1.38814983e-01	8.83856427e-03
2.15000000e-02	1.34979219e-01	8.45541953e-03
2.17500000e-02	1.26257010e-01	7.61937261e-03
2.20000000e-02	1.23036266e-01	7.45515822e-03
2.22500000e-02	1.19183015e-01	7.08315536e-03
2.25000000e-02	1.15990013e-01	7.07825738e-03
2.27500000e-02	1.12728008e-01	6.92081779e-03
2.30000000e-02	1.12280485e-01	6.87713880e-03
2.32500000e-02	1.06274390e-01	6.30428996e-03
2.35000000e-02	1.03200715e-01	6.20148935e-03
2.37500000e-02	9.93938148e-02	5.72974920e-03
2.40000000e-02	9.56118362e-02	5.59533866e-03
2.42500000e-02	9.36380550e-02	5.40294773e-03
2.45000000e-02	9.18041530e-02	5.25977569e-03
2.47500000e-02	8.99403299e-02	5.16661720e-03
2.50000000e-02	8.75157088e-02	5.02797652e-03
2.52500000e-02	8.38114489e-02	4.82760161e-03
2.55000000e-02	8.17112362e-02	4.43989856e-03
2.57500000e-02	7.85864040e-02	4.28303526e-03
2.60000000e-02	7.57150573e-02	4.15777567e-03
2.62500000e-02	7.62612094e-02	4.30769814e-03
2.65000000e-02	7.21355385e-02	3.97906410e-03
2.67500000e-02	7.17755178e-02	3.86484484e-03
2.70000000e-02	6.99605363e-02	3.82776743e-03
2.72500000e-02	6.68611186e-02	3.56518606e-03
2.75000000e-02	6.48486526e-02	3.51996937e-03
2.77500000e-02	6.53059109e-02	3.51507539e-03
2.80000000e-02	6.34337696e-02	3.38207804e-03
2.82500000e-02	6.28426622e-02	3.30255666e-03
2.85000000e-02	6.26310120e-02	3.32704991e-03
2.87500000e-02	5.88121127e-02	3.09321827e-03
2.90000000e-02	5.81469974e-02	2.99819603e-03
2.92500000e-02	5.67004294e-02	2.83145419e-03
2.95000000e-02	5.61788165e-02	2.91889992e-03
2.97500000e-02	5.56937526e-02	2.83090116e-03
3.00000000e-02	5.43700297e-02	2.77769214e-03
3.02500000e-02	5.28635087e-02	2.65295823e-03
3.05000000e-02	5.24145618e-02	2.57234536e-03
3.07500000e-02	5.09299097e-02	2.52113695e-03
3.10000000e-02	5.04229781e-02	2.47967071e-03
3.12500000e-02	4.99774851e-02	2.49266673e-03
3.15000000e-02	4.83853113e-02	2.37164883e-03
3.17500000e-02	4.80597599e-02	2.32947296e-03
3.20000000e-02	4.84048808e-02	2.35768526e-03
3.22500000e-02	4.65243135e-02	2.29551010e-03
3.25000000e-02	4.63050717e-02	2.27270219e-03
3.27500000e-02	4.52591626e-02	2.16133418e-03
3.30000000e-02	4.44366533e-02	2.12728174e-03
3.32500000e-02	4.39975786e-02	2.11110290e-03
3.35000000e-02	4.32817647e-02	2.07880396e-03
3.37500000e-02	4.21892685e-02	1.99505692e-03
3.40000000e-02	4.24533495e-02	2.01995212e-03
3.42500000e-02	4.16758199e-02	1.96191977e-03
3.45000000e-02	4.10172775e-02	1.94702678e-03
3.47500000e-02	4.02368382e-02	1.90198895e-03
3.50000000e-02	3.91585557e-02	1.84260204e-03
3.52500000e-02	3.91986726e-02	1.82366226e-03
3.55000000e-02	3.79625780e-02	1.74797079e-03
3.57500000e-02	3.89345512e-02	1.80768511e-03
3.60000000e-02	3.71863802e-02	1.72982887e-03
3.62500000e-02	3.70011682e-02	1.71235882e-03
3.65000000e-02	3.66336618e-02	1.66465522e-03
3.67500000e-02	3.65890546e-02	1.66103703e-03
3.70000000e-02	3.52131530e-02	1.60930060e-03
3.72500000e-02	3.53089846e-02	1.59614310e-03
3.75000000e-02	3.47071765e-02	1.57556450e-03
3.77500000e-02	3.59497351e-02	1.62649303e-03
3.80000000e-02	3.30630193e-02	1.49471450e-03
3.82500000e-02	3.32886895e-02	1.50326073e-03
3.85000000e-02	3.38982764e-02	1.52525817e-03
3.87500000e-02	3.32805983e-02	1.47976736e-03
3.90000000e-02	3.34437269e-02	1.50587558e-03
3.92500000e-02	3.20126599e-02	1.40343209e-03
3.95000000e-02	3.15046288e-02	1.39304945e-03
3.97500000e-02	3.17673258e-02	1.41686932e-03
4.00000000e-02	3.08474178e-02	1.37169314e-03
4.02500000e-02	3.12709567e-02	1.36989432e-03
4.05000000e-02	3.16279130e-02	1.36179811e-03
4.07500000e-02	3.07302164e-02	1.31921625e-03
4.10000000e-02	3.15569886e-02	1.38689512e-03
4.12500000e-02	3.02442112e-02	1.31625257e-03
4.15000000e-02	3.04621207e-02	1.31894644e-03
4.17500000e-02	3.03673751e-02	1.29463865e-03
4.20000000e-02	3.02425706e-02	1.29271633e-03
4.22500000e-02	2.99623442e-02	1.26266445e-03
4.25000000e-02	2.92527525e-02	1.23654550e-03
4.27500000e-02	2.90119411e-02	1.23469279e-03
4.30000000e-02	2.89548902e-02	1.22460894e-03
4.32500000e-02	2.81891810e-02	1.18155272e-03
4.35000000e-02	2.78305956e-02	1.19442891e-03
4.37500000e-02	2.80479346e-02	1.17409817e-03
4.40000000e-02	2.82398767e-02	1.20507972e-03
4.42500000e-02	2.77881367e-02	1.16479583e-03
4.45000000e-02	2.71575337e-02	1.12581476e-03
4.47500000e-02	2.68794608e-02	1.12616645e-03
4.50000000e-02	2.75182075e-02	1.14579492e-03
4.52500000e-02	2.64387427e-02	1.08882135e-03
4.55000000e-02	2.69801824e-02	1.11159922e-03
4.57500000e-02	2.65143858e-02	1.09887714e-03
4.60000000e-02	2.65441137e-02	1.10510886e-03
4.62500000e-02	2.63616480e-02	1.08891107e-03
4.65000000e-02	2.60479109e-02	1.07812310e-03
4.67500000e-02	2.64934023e-02	1.07755661e-03
4.70000000e-02	2.65226083e-02	1.08081931e-03
4.72500000e-02	2.60606579e-02	1.06447631e-03
4.75000000e-02	2.57483116e-02	1.04911286e-03
4.77500000e-02	2.63154662e-02	1.06121409e-03
4.80000000e-02	2.65369387e-02	1.06666595e-03
4.82500000e-02	2.54509072e-02	1.01949405e-03
4.85000000e-02	2.54143456e-02	1.03598791e-03
4.87500000e-02	2.49664838e-02	1.01118889e-03
4.90000000e-02	2.43792999e-02	9.86593876e-04
4.92500000e-02	2.51806710e-02	1.00574744e-03
4.95000000e-02	2.42612074e-02	9.63085110e-04
4.97500000e-02	2.51900499e-02	1.01023912e-03
5.00000000e-02	2.48941038e-02	9.91861203e-04
5.02500000e-02	2.47926818e-02	9.78732973e-04
5.05000000e-02	2.45623435e-02	9.70953407e-04
5.07500000e-02	2.48751753e-02	9.87993500e-04
5.10000000e-02	2.43323518e-02	9.62762590e-04
5.12500000e-02	2.40029644e-02	9.51593327e-04
5.15000000e-02	2.38834728e-02	9.35685113e-04
5.17500000e-02	2.36504537e-02	9.37156055e-04
5.20000000e-02	2.45263259e-02	9.60684769e-04
5.22500000e-02	2.45023420e-02	9.68036565e-04
5.25000000e-02	2.38182736e-02	9.36702124e-04
5.27500000e-02	2.32836177e-02	9.14362765e-04
5.30000000e-02	2.39335620e-02	9.36481733e-04
5.32500000e-02	2.38853926e-02	9.31054541e-04
5.35000000e-02	2.35572065e-02	9.17354594e-04
5.37500000e-02	2.43065559e-02	9.40112532e-04
5.40000000e-02	2.33808191e-02	9.10237590e-04
5.42500000e-02	2.40104596e-02	9.25999485e-04
5.45000000e-02	2.31218792e-02	8.91120045e-04
5.47500000e-02	2.35367306e-02	9.07459115e-04
5.50000000e-02	2.24104473e-02	8.67491604e-04
5.52500000e-02	2.35688588e-02	8.92297394e-04
5.55000000e-02	2.32119346e-02	8.81794705e-04
5.57500000e-02	2.34050245e-02	9.07106429e-04
5.60000000e-02	2.34336426e-02	8.88787956e-04
5.62500000e-02	2.36256327e-02	8.94977433e-04
5.65000000e-02	2.26769600e-02	8.61986714e-04
5.67500000e-02	2.30590327e-02	8.78632327e-04
5.70000000e-02	2.28401535e-02	8.61975574e-04
5.72500000e-02	2.19314404e-02	8.27216713e-04
5.75000000e-02	2.31311594e-02	8.82421724e-04
5.77500000e-02	2.33994549e-02	8.73182696e-04
5.80000000e-02	2.29652471e-02	8.69814063e-04
5.82500000e-02	2.34837805e-02	8.78847408e-04
5.85000000e-02	2.30954549e-02	8.63071890e-04
5.87500000e-02	2.25248884e-02	8.38178842e-04
5.90000000e-02	2.24600300e-02	8.34650933e-04
5.92500000e-02	2.22350044e-02	8.34156245e-04
5.95000000e-02	2.24316780e-02	8.34658442e-04
5.97500000e-02	2.25562016e-02	8.45043855e-04
6.00000000e-02	2.26884675e-02	8.43828573e-04
6.02500000e-02	2.18482959e-02	8.08127301e-04
6.05000000e-02	2.18619590e-02	8.14257012e-04
6.07500000e-02	2.15631426e-02	8.06140601e-04
6.10000000e-02	2.24152523e-02	8.24056269e-04
6.12500000e-02	2.17224877e-02	8.01691224e-04
6.15000000e-02	2.22571022e-02	8.12318839e-04
6.17500000e-02	2.20513305e-02	8.11402068e-04
6.20000000e-02	2.17795837e-02	8.03499784e-04
6.22500000e-02	2.19740513e-02	8.05758225e-04
6.25000000e-02	2.10344313e-02	7.70774877e-04
6.27500000e-02	2.21416279e-02	7.99469715e-04
6.30000000e-02	2.16572579e-02	7.86373981e-04
6.32500000e-02	2.17480980e-02	7.92610452e-04
6.35000000e-02	2.17975545e-02	7.93641794e-04
6.37500000e-02	2.21434670e-02	8.02666176e-04
6.40000000e-02	2.12574609e-02	7.76965024e-04
6.42500000e-02	2.17392298e-02	7.88391921e-04
6.45000000e-02	2.15881809e-02	7.80308945e-04
6.47500000e-02	2.12831909e-02	7.65858364e-04
6.50000000e-02	2.19163038e-02	7.85063658e-04
6.52500000e-02	2.15107106e-02	7.75371792e-04
6.55000000e-02	2.19662066e-02	7.86282800e-04
6.57500000e-02	2.19413650e-02	7.84892017e-04
6.60000000e-02	2.16844115e-02	7.75247545e-04
6.62500000e-02	2.18090591e-02	7.83731971e-04
6.65000000e-02	2.14870377e-02	7.67347325e-04
6.67500000e-02	2.15041906e-02	7.61004501e-04
6.70000000e-02	2.15459304e-02	7.61159805e-04
6.72500000e-02	2.09200519e-02	7.45745907e-04
6.75000000e-02	2.14066920e-02	7.58774449e-04
6.77500000e-02	2.12523140e-02	7.55467223e-04
6.80000000e-02	2.12454591e-02	7.51843543e-04
6.82500000e-02	2.09594482e-02	7.38104885e-04
6.85000000e-02	2.10384554e-02	7.49960293e-04
6.87500000e-02	2.10396963e-02	7.43719712e-04
6.90000000e-02	2.13786264e-02	7.49250106e-04
6.92500000e-02	2.10271833e-02	7.42297923e-04
6.95000000e-02	2.10668408e-02	7.33981627e-04
6.97500000e-02	2.13998878e-02	7.48203541e-04
7.00000000e-02	2.16072938e-02	7.52129687e-04
7.02500000e-02	2.05984108e-02	7.16139657e-04
7.05000000e-02	2.08659659e-02	7.25023002e-04
7.07500000e-02	2.19167963e-02	7.65970974e-04
7.10000000e-02	2.07669106e-02	7.16139062e-04
7.12500000e-02	2.12550847e-02	7.31255356e-04
7.15000000e-02	2.04826253e-02	7.06995498e-04
7.17500000e-02	2.07006282e-02	7.12517659e-04
7.20000000e-02	2.11129532e-02	7.29924340e-04
7.22500000e-02	2.06110850e-02	7.07852104e-04
7.25000000e-02	2.03936423e-02	7.07846886e-04
7.27500000e-02	2.03378439e-02	7.07317150e-04
7.30000000e-02	2.10951649e-02	7.22840955e-04
7.32500000e-02	2.06393738e-02	7.09934848e-04
7.35000000e-02	2.14720713e-02	7.40194921e-04
7.37500000e-02	2.13169313e-02	7.28532857e-04
7.40000000e-02	2.09901421e-02	7.15963518e-04
7.42500000e-02	2.06962964e-02	7.07143949e-04
7.45000000e-02	2.06163420e-02	6.99963671e-04
7.47500000e-02	2.08842746e-02	7.03422187e-04
7.50000000e-02	2.09295360e-02	7.11790724e-04
7.52500000e-02	2.11047820e-02	7.11940956e-04
7.55000000e-02	1.99656235e-02	6.81163919e-04
7.57500000e-02	2.07262358e-02	6.98629101e-04
7.60000000e-02	2.09177802e-02	7.11337891e-04
7.62500000e-02	2.00891949e-02	6.78301133e-04
7.65000000e-02	2.03210389e-02	6.88708028e-04
7.67500000e-02	2.10530702e-02	7.00338412e-04
7.70000000e-02	2.10969416e-02	7.02319479e-04
7.72500000e-02	2.02797333e-02	6.95496302e-04
7.75000000e-02	2.02716712e-02	6.94463300e-04
7.77500000e-02	2.04248584e-02	7.13181709e-04
7.80000000e-02	2.04858506e-02	7.07757919e-04
7.82500000e-02	2.03120899e-02	7.06747912e-04
7.85000000e-02	2.07717810e-02	7.33677519e-04
7.87500000e-02	2.02942332e-02	7.13474645e-04
7.90000000e-02	2.10127996e-02	7.40855602e-04
7.92500000e-02	2.07794375e-02	7.38876330e-04
7.95000000e-02	2.06832776e-02	7.36829524e-04
7.97500000e-02	2.10155778e-02	7.53835630e-04
8.00000000e-02	2.08347916e-02	7.42918836e-04
8.02500000e-02	2.04731372e-02	7.40670640e-04
8.05000000e-02	2.06289110e-02	7.32871962e-04
8.07500000e-02	2.06867155e-02	7.46500165e-04
8.10000000e-02	2.05007265e-02	7.40066891e-04
8.12500000e-02	2.09890399e-02	7.53912031e-04
8.15000000e-02	2.02604251e-02	7.30980743e-04
8.17500000e-02	2.10583064e-02	7.61296354e-04
8.20000000e-02	2.02550406e-02	7.33809679e-04
8.22500000e-02	2.06797420e-02	7.52939666e-04
8.25000000e-02	2.05069546e-02	7.46621655e-04
8.27500000e-02	2.04453527e-02	7.39985797e-04
8.30000000e-02	2.01261892e-02	7.33711969e-04
8.32500000e-02	2.08029020e-02	7.62933125e-04
8.35000000e-02	2.07889092e-02	7.63512564e-04
8.37500000e-02	2.05575466e-02	7.42557178e-04
8.40000000e-02	2.04273862e-02	7.54130418e-04
8.42500000e-02	2.01287697e-02	7.41705702e-04
8.45000000e-02	2.08751676e-02	7.60077274e-04
8.47500000e-02	2.04633272e-02	7.63474382e-04
8.50000000e-02	2.00577721e-02	7.41567092e-04
8.52500000e-02	2.06317302e-02	7.57083392e-04
8.55000000e-02	2.00857236e-02	7.44496561e-04
8.57500000e-02	2.04827984e-02	7.60999258e-04
8.60000000e-02	2.03189667e-02	7.51605194e-04
8.62500000e-02	2.09374141e-02	7.72161176e-04
8.65000000e-02	2.09603765e-02	7.66307469e-04
8.67500000e-02	2.03660685e-02	7.48675222e-04
8.70000000e-02	2.05420647e-02	7.47876586e-04
8.72500000e-02	2.05664009e-02	7.33348523e-04
8.75000000e-02	2.05588617e-02	7.27091690e-04
8.77500000e-02	2.06495406e-02	7.25525583e-04
8.80000000e-02	2.06714650e-02	7.34510034e-04
8.82500000e-02	2.09062937e-02	7.34921867e-04
8.85000000e-02	2.05792052e-02	7.19135695e-04
8.87500000e-02	2.11059247e-02	7.17504072e-04
8.90000000e-02	2.04376856e-02	7.06214978e-04
8.92500000e-02	2.07208159e-02	7.12073133e-04
8.95000000e-02	2.03744362e-02	6.96845451e-04
8.97500000e-02	2.06916792e-02	7.03087152e-04
9.00000000e-02	2.05405522e-02	6.94785549e-04
9.02500000e-02	2.02162506e-02	6.88058512e-04
9.05000000e-02	1.94749550e-02	6.62356843e-04
9.07500000e-02	2.10517011e-02	7.04705477e-04
9.10000000e-02	2.08000097e-02	6.96328936e-04
9.12500000e-02	2.04151277e-02	6.87157109e-04
9.15000000e-02	2.03613633e-02	6.85225190e-04
9.17500000e-02	2.02462153e-02	6.77961441e-04
9.20000000e-02	1.95223913e-02	6.52314513e-04
9.22500000e-02	2.00856406e-02	6.70565211e-04
9.25000000e-02	2.00802675e-02	6.64597463e-04
9.27500000e-02	2.00805449e-02	6.64987134e-04
9.30000000e-02	2.00537462e-02	6.64749966e-04
9.32500000e-02	2.00980206e-02	6.66022568e-04
9.35000000e-02	1.99574630e-02	6.57824703e-04
9.37500000e-02	2.00903967e-02	6.55370470e-04
9.40000000e-02	2.00872764e-02	6.67006900e-04
9.42500000e-02	2.06603727e-02	6.72672307e-04
9.45000000e-02	2.05693164e-02	6.73116446e-04
9.47500000e-02	2.06342799e-02	6.68910554e-04
9.50000000e-02	2.01725596e-02	6.55601045e-04
9.52500000e-02	2.03702544e-02	6.59345812e-04
9.55000000e-02	1.98860491e-02	6.43434771e-04
9.57500000e-02	2.03562709e-02	6.62059664e-04
9.60000000e-02	2.04527824e-02	6.55260406e-04
9.62500000e-02	2.07506425e-02	6.67056738e-04
9.65000000e-02	2.01351921e-02	6.49660873e-04
9.67500000e-02	2.02449952e-02	6.48107334e-04
9.70000000e-02	1.98459718e-02	6.42039373e-04
9.72500000e-02	2.07025929e-02	6.62331673e-04
9.75000000e-02	1.96204171e-02	6.31719841e-04
9.77500000e-02	2.04561805e-02	6.45822548e-04
9.80000000e-02	1.99610964e-02	6.43083704e-04
9.82500000e-02	2.06239412e-02	6.52703461e-04
9.85000000e-02	2.03113143e-02	6.44392951e-04
9.87500000e-02	2.06559222e-02	6.50720415e-04
9.90000000e-02	1.95201323e-02	6.21046336e-04
9.92500000e-02	1.97276931e-02	6.30370563e-04
9.95000000e-02	2.01960167e-02	6.37327130e-04
9.97500000e-02	1.95673141e-02	6.19511999e-04
1.00000000e-01	1.99463175e-02	5.13503589e-04
1.00500000e-01	1.98974298e-02	4.42271008e-04
1.01000000e-01	1.97109334e-02	4.37658754e-04
1.01500000e-01	2.01151012e-02	4.44559880e-04
1.02000000e-01	1.98408672e-02	4.35905626e-04
1.02500000e-01	2.01805954e-02	4.42666305e-04
1.03000000e-01	1.96748156e-02	4.30019947e-04
1.03500000e-01	2.00385542e-02	4.38659938e-04
1.04000000e-01	2.00286107e-02	4.36176630e-04
1.04500000e-01	1.99887690e-02	4.34655784e-04
1.05000000e-01	1.99081955e-02	4.30304636e-04
1.05500000e-01	1.99901705e-02	4.29227126e-04
1.06000000e-01	2.01286955e-02	4.34197335e-04
1.06500000e-01	2.01222131e-02	4.32128523e-04
1.07000000e-01	2.00007156e-02	4.34974689e-04
1.07500000e-01	2.00378670e-02	4.42566768e-04
1.08000000e-01	1.99780191e-02	4.47236638e-04
1.08500000e-01	2.00694742e-02	4.51011525e-04
1.09000000e-01	1.97298680e-02	4.46213563e-04
1.09500000e-01	2.01860557e-02	4.59514552e-04
1.10000000e-01	1.98254965e-02	4.46846553e-04
1.10500000e-01	1.99250588e-02	4.38114823e-04
1.11000000e-01	1.99650703e-02	4.32261207e-04
1.11500000e-01	2.00223106e-02	4.31229534e-04
1.12000000e-01	1.99100245e-02	4.24806876e-04
1.12500000e-01	2.00520720e-02	4.23355203e-04
1.13000000e-01	2.00411855e-02	4.23647068e-04
1.13500000e-01	2.03350560e-02	4.28939983e-04
1.14000000e-01	2.02117081e-02	4.22623323e-04
1.14500000e-01	1.98432341e-02	4.15255579e-04
1.15000000e-01	1.95470011e-02	4.06794622e-04
1.15500000e-01	2.01459310e-02	4.18775722e-04
1.16000000e-01	2.00671468e-02	4.15925138e-04
1.16500000e-01	2.03287657e-02	4.19661513e-04
1.17000000e-01	1.97711329e-02	4.09193244e-04
1.17500000e-01	1.96218782e-02	4.04694454e-04
1.18000000e-01	1.99165101e-02	4.09333442e-04
1.18500000e-01	1.99720992e-02	4.10421453e-04
1.19000000e-01	1.94742612e-02	3.98573727e-04
1.19500000e-01	1.99720580e-02	4.08265630e-04
1.20000000e-01	1.97758172e-02	4.01431553e-04
1.20500000e-01	1.99867608e-02	4.06550045e-04
1.21000000e-01	1.95265499e-02	3.98269951e-04
1.21500000e-01	1.97464361e-02	3.98970436e-04
1.22000000e-01	2.00317339e-02	4.04048386e-04
1.22500000e-01	1.98652460e-02	3.99496073e-04
1.23000000e-01	1.97914724e-02	3.98361664e-04
1.23500000e-01	1.98709643e-02	4.00513316e-04
1.24000000e-01	1.96098237e-02	3.95851045e-04
1.24500000e-01	2.01155648e-02	4.01401627e-04
1.25000000e-01	2.00160007e-02	3.98383336e-04
1.25500000e-01	2.00849532e-02	3.99950705e-04
1.26000000e-01	1.96434775e-02	3.90869187e-04
1.26500000e-01	1.96702363e-02	3.89275802e-04
1.27000000e-01	2.00724536e-02	3.95260941e-04
1.27500000e-01	1.94511787e-02	3.84975871e-04
1.28000000e-01	1.96640229e-02	3.86277681e-04
1.28500000e-01	1.97288671e-02	3.86404303e-04
1.29000000e-01	1.98811347e-02	3.89281732e-04
1.29500000e-01	1.94365000e-02	3.79699921e-04
1.30000000e-01	1.98924258e-02	3.89232723e-04
1.30500000e-01	1.98082921e-02	3.86175878e-04
1.31000000e-01	1.97489446e-02	3.84445088e-04
1.31500000e-01	1.99203423e-02	3.86054809e-04
1.32000000e-01	1.95160880e-02	3.77638008e-04
1.32500000e-01	1.99786297e-02	3.86875469e-04
1.33000000e-01	1.97687545e-02	3.81024427e-04
1.33500000e-01	1.95573473e-02	3.74220053e-04
1.34000000e-01	1.97854249e-02	3.79718088e-04
1.34500000e-01	1.97424518e-02	3.75860588e-04
1.35000000e-01	1.97749045e-02	3.76928919e-04
1.35500000e-01	2.02726691e-02	3.83695061e-04
1.36000000e-01	1.96931030e-02	3.73962487e-04
1.36500000e-01	1.98562169e-02	3.75680293e-04
1.37000000e-01	1.96935197e-02	3.71069379e-04
1.37500000e-01	1.99015356e-02	3.74940691e-04
1.38000000e-01	1.98239565e-02	3.74223287e-04
1.38500000e-01	1.96011787e-02	3.70174755e-04
1.39000000e-01	1.95993638e-02	3.69704917e-04
1.39500000e-01	1.95767352e-02	3.68356716e-04
1.40000000e-01	1.97190889e-02	3.70319959e-04
1.40500000e-01	1.94577262e-02	3.65272030e-04
1.41000000e-01	1.96811928e-02	3.68990533e-04
1.41500000e-01	1.96232913e-02	3.68337360e-04
1.42000000e-01	1.95114492e-02	3.62700541e-04
1.42500000e-01	1.93971149e-02	3.64044922e-04
1.43000000e-01	1.96561986e-02	3.65956719e-04
1.43500000e-01	1.97985179e-02	3.66402577e-04
1.44000000e-01	1.98919714e-02	3.69853238e-04
1.44500000e-01	1.93475385e-02	3.57424209e-04
1.45000000e-01	1.93679995e-02	3.60552843e-04
1.45500000e-01	1.97887473e-02	3.65481084e-04
1.46000000e-01	1.98204479e-02	3.64177273e-04
1.46500000e-01	1.92166941e-02	3.53249440e-04
1.47000000e-01	1.95408055e-02	3.61224235e-04
1.47500000e-01	1.92828468e-02	3.54107486e-04
1.48000000e-01	1.95346128e-02	3.57425861e-04
1.48500000e-01	1.95256350e-02	3.58009902e-04
1.49000000e-01	1.92352916e-02	3.50804684e-04
1.49500000e-01	1.95735479e-02	3.58114129e-04
1.50000000e-01	1.90595251e-02	3.46697302e-04
1.50500000e-01	1.96356059e-02	3.57500830e-04
1.51000000e-01	1.93790783e-02	3.52173859e-04
1.51500000e-01	1.97779073e-02	3.57084381e-04
1.52000000e-01	1.94904077e-02	3.50705071e-04
1.52500000e-01	1.92306179e-02	3.48602397e-04
1.53000000e-01	1.94735864e-02	3.49484260e-04
1.53500000e-01	1.93321468e-02	3.47124835e-04
1.54000000e-01	1.92370262e-02	3.45308235e-04
1.54500000e-01	1.93895270e-02	3.53513869e-04
1.55000000e-01	1.94826532e-02	3.58747915e-04
1.55500000e-01	1.92877535e-02	3.58733576e-04
1.56000000e-01	1.93348672e-02	3.62920288e-04
1.56500000e-01	1.91748245e-02	3.58810457e-04
1.57000000e-01	1.92834351e-02	3.61915970e-04
1.57500000e-01	1.90663370e-02	3.51968260e-04
1.58000000e-01	1.96459279e-02	3.53499270e-04
1.58500000e-01	1.91059288e-02	3.44724411e-04
1.59000000e-01	1.89938841e-02	3.40042129e-04
1.59500000e-01	1.91443060e-02	3.42161459e-04
1.60000000e-01	1.91823925e-02	3.43248295e-04
1.60500000e-01	1.92340354e-02	3.41085014e-04
1.61000000e-01	1.91635048e-02	3.41575916e-04
1.61500000e-01	1.92520591e-02	3.42389843e-04
1.62000000e-01	1.90964195e-02	3.38519361e-04
1.62500000e-01	1.89801361e-02	3.37244666e-04
1.63000000e-01	1.92067662e-02	3.38044160e-04
1.63500000e-01	1.90329578e-02	3.37838324e-04
1.64000000e-01	1.92671081e-02	3.38115441e-04
1.64500000e-01	1.90634748e-02	3.35034452e-04
1.65000000e-01	1.89725404e-02	3.32416734e-04
1.65500000e-01	1.90628419e-02	3.34379480e-04
1.66000000e-01	1.89394644e-02	3.31252735e-04
1.66500000e-01	1.89389859e-02	3.30078209e-04
1.67000000e-01	1.89956400e-02	3.31526721e-04
1.67500000e-01	1.91866212e-02	3.32557990e-04
1.68000000e-01	1.89840697e-02	3.31707403e-04
1.68500000e-01	1.90424181e-02	3.29438095e-04
1.69000000e-01	1.89290198e-02	3.28096062e-04
1.69500000e-01	1.88022242e-02	3.24405361e-04
1.70000000e-01	1.87911877e-02	3.24027952e-04
1.70500000e-01	1.87728213e-02	3.23952654e-04
1.71000000e-01	1.88048818e-02	3.22772140e-04
1.71500000e-01	1.92390209e-02	3.30167103e-04
1.72000000e-01	1.91263981e-02	3.26923170e-04
1.72500000e-01	1.90684743e-02	3.27048628e-04
1.73000000e-01	1.90906144e-02	3.25798901e-04
1.73500000e-01	1.89041802e-02	3.22715149e-04
1.74000000e-01	1.86460650e-02	3.17757684e-04
1.74500000e-01	1.87240696e-02	3.16317956e-04
1.75000000e-01	1.89207407e-02	3.19447679e-04
1.75500000e-01	1.89732170e-02	3.20428253e-04
1.76000000e-01	1.91123481e-02	3.22228177e-04
1.76500000e-01	1.88553619e-02	3.17946823e-04
1.77000000e-01	1.86509561e-02	3.14151405e-04
1.77500000e-01	1.87840721e-02	3.16304957e-04
1.78000000e-01	1.86694313e-02	3.13550188e-04
1.78500000e-01	1.89356042e-02	3.19484285e-04
1.79000000e-01	1.88802467e-02	3.16422779e-04
1.79500000e-01	1.89934923e-02	3.18439205e-04
1.80000000e-01	1.85571123e-02	3.13257677e-04
1.80500000e-01	1.86654360e-02	3.12733140e-04
1.81000000e-01	1.86319033e-02	3.12419771e-04
1.81500000e-01	1.87579974e-02	3.12573591e-04
1.82000000e-01	1.88968555e-02	3.15260342e-04
1.82500000e-01	1.87764617e-02	3.12146046e-04
1.83000000e-01	1.88810098e-02	3.14644790e-04
1.83500000e-01	1.88401981e-02	3.13507563e-04
1.84000000e-01	1.87056640e-02	3.10936931e-04
1.84500000e-01	1.83679229e-02	3.04834176e-04
1.85000000e-01	1.86388015e-02	3.09634293e-04
1.85500000e-01	1.86248573e-02	3.06887269e-04
1.86000000e-01	1.85367905e-02	3.06784028e-04
1.86500000e-01	1.85170038e-02	3.05860798e-04
1.87000000e-01	1.87181626e-02	3.07866424e-04
1.87500000e-01	1.84064678e-02	3.02062470e-04
1.88000000e-01	1.85902184e-02	3.04605656e-04
1.88500000e-01	1.88726007e-02	3.08776118e-04
1.89000000e-01	1.87913121e-02	3.06796250e-04
1.89500000e-01	1.84461678e-02	3.02767194e-04
1.90000000e-01	1.84998007e-02	3.01709540e-04
1.90500000e-01	1.83609397e-02	3.00026304e-04
1.91000000e-01	1.85625655e-02	3.03369109e-04
1.91500000e-01	1.82978402e-02	2.97679356e-04
1.92000000e-01	1.87651964e-02	3.03374059e-04
1.92500000e-01	1.83426577e-02	2.98767837e-04
1.93000000e-01	1.84527354e-02	2.99923705e-04
1.93500000e-01	1.85365674e-02	2.99609571e-04
1.94000000e-01	1.85393273e-02	2.99915297e-04
1.94500000e-01	1.85089266e-02	2.98639105e-04
1.95000000e-01	1.86488691e-02	3.01197423e-04
1.95500000e-01	1.84966903e-02	2.97590887e-04
1.96000000e-01	1.83537842e-02	2.95082703e-04
1.96500000e-01	1.87241271e-02	3.01394514e-04
1.97000000e-01	1.81584720e-02	2.91582934e-04
1.97500000e-01	1.83328584e-02	2.93474273e-04
1.98000000e-01	1.85414699e-02	2.97128962e-04
1.98500000e-01	1.84724206e-02	2.95523729e-04
1.99000000e-01	1.84780789e-02	2.96834011e-04
1.99500000e-01	1.82786434e-02	2.91686589e-04
2.00000000e-01	1.84029956e-02	2.95148045e-04
2.00500000e-01	1.83973745e-02	2.93274842e-04
2.01000000e-01	1.84591295e-02	2.93513368e-04
2.01500000e-01	1.85222127e-02	2.93944350e-04
2.02000000e-01	1.86058296e-02	2.95247790e-04
2.02500000e-01	1.83867040e-02	2.89978184e-04
2.03000000e-01	1.82551414e-02	2.89811421e-04
2.03500000e-01	1.82020288e-02	2.87588481e-04
2.04000000e-01	1.83868138e-02	2.91071429e-04
2.04500000e-01	1.80687565e-02	2.86810386e-04
2.05000000e-01	1.81763450e-02	2.86381160e-04
2.05500000e-01	1.84630641e-02	2.91114410e-04
2.06000000e-01	1.80560341e-02	2.83726153e-04
2.06500000e-01	1.83109603e-02	2.88056356e-04
2.07000000e-01	1.81700537e-02	2.85345796e-04
2.07500000e-01	1.83306394e-02	2.86804528e-04
2.08000000e-01	1.82964862e-02	2.86996440e-04
2.08500000e-01	1.83484932e-02	2.85331432e-04
2.09000000e-01	1.82830109e-02	2.85901316e-04
2.09500000e-01	1.82290022e-02	2.83473097e-04
2.10000000e-01	1.84515888e-02	2.86480753e-04
2.10500000e-01	1.81607166e-02	2.83393898e-04
2.11000000e-01	1.82806542e-02	2.83123571e-04
2.11500000e-01	1.82158536e-02	2.83739659e-04
2.12000000e-01	1.82072923e-02	2.81965323e-04
2.12500000e-01	1.81051489e-02	2.80664262e-04
2.13000000e-01	1.84387234e-02	2.85216440e-04
2.13500000e-01	1.80090037e-02	2.78239831e-04
2.14000000e-01	1.81586023e-02	2.80371049e-04
2.14500000e-01	1.85020133e-02	2.83807191e-04
2.15000000e-01	1.82380471e-02	2.81714037e-04
2.15500000e-01	1.78749186e-02	2.74827969e-04
2.16000000e-01	1.83981953e-02	2.81922743e-04
2.16500000e-01	1.79308755e-02	2.75937355e-04
2.17000000e-01	1.81709097e-02	2.82016460e-04
2.17500000e-01	1.81928419e-02	2.87451555e-04
2.18000000e-01	1.79727292e-02	2.84089996e-04
2.18500000e-01	1.77144655e-02	2.83982549e-04
2.19000000e-01	1.81664186e-02	2.90625036e-04
2.19500000e-01	1.81159839e-02	2.90767690e-04
2.20000000e-01	1.79504767e-02	2.89757925e-04
2.20500000e-01	1.81326488e-02	2.92245218e-04
2.21000000e-01	1.83826886e-02	2.98191663e-04
2.21500000e-01	1.80393820e-02	2.94326677e-04
2.22000000e-01	1.79018911e-02	2.91381445e-04
2.22500000e-01	1.81132632e-02	2.95827307e-04
2.23000000e-01	1.78727325e-02	2.92296377e-04
2.23500000e-01	1.82099652e-02	2.98474826e-04
2.24000000e-01	1.79069253e-02	2.95345563e-04
2.24500000e-01	1.79397035e-02	2.97658176e-04
2.25000000e-01	1.78008916e-02	2.92936102e-04
2.25500000e-01	1.82114460e-02	3.00900493e-04
2.26000000e-01	1.78133759e-02	2.95602109e-04
2.26500000e-01	1.80144849e-02	2.93263988e-04
2.27000000e-01	1.81143522e-02	2.92696379e-04
2.27500000e-01	1.80822635e-02	2.89419217e-04
2.28000000e-01	1.80026754e-02	2.87707580e-04
2.28500000e-01	1.80689532e-02	2.86138913e-04
2.29000000e-01	1.79819220e-02	2.85524658e-04
2.29500000e-01	1.78102856e-02	2.82176354e-04
2.30000000e-01	1.78228392e-02	2.80307075e-04
2.30500000e-01	1.81231100e-02	2.84521333e-04
2.31000000e-01	1.76936447e-02	2.76638004e-04
2.31500000e-01	1.78880824e-02	2.79527502e-04
2.32000000e-01	1.78588534e-02	2.78003021e-04
2.32500000e-01	1.80057644e-02	2.80237856e-04
2.33000000e-01	1.77826524e-02	2.75047952e-04
2.33500000e-01	1.80241532e-02	2.77902110e-04
2.34000000e-01	1.79558401e-02	2.76699687e-04
2.34500000e-01	1.77299565e-02	2.73246841e-04
2.35000000e-01	1.77361508e-02	2.73560608e-04
2.35500000e-01	1.78773026e-02	2.73339516e-04
2.36000000e-01	1.78696591e-02	2.74440411e-04
2.36500000e-01	1.76756594e-02	2.71417457e-04
2.37000000e-01	1.75813686e-02	2.68711819e-04
2.37500000e-01	1.77425741e-02	2.71524505e-04
2.38000000e-01	1.78577956e-02	2.71047687e-04
2.38500000e-01	1.77482242e-02	2.70398643e-04
2.39000000e-01	1.79039863e-02	2.69641026e-04
2.39500000e-01	1.79934717e-02	2.73172693e-04
2.40000000e-01	1.75727299e-02	2.65473262e-04
2.40500000e-01	1.78898051e-02	2.69347124e-04
2.41000000e-01	1.76045519e-02	2.65559201e-04
2.41500000e-01	1.79271709e-02	2.69629490e-04
2.42000000e-01	1.75596304e-02	2.65179834e-04
2.42500000e-01	1.77204923e-02	2.66262835e-04
2.43000000e-01	1.77560518e-02	2.64730748e-04
2.43500000e-01	1.75186740e-02	2.61928532e-04
2.44000000e-01	1.76203844e-02	2.62144687e-04
2.44500000e-01	1.78896372e-02	2.66506442e-04
2.45000000e-01	1.76343099e-02	2.61583328e-04
2.45500000e-01	1.76725845e-02	2.62255373e-04
2.46000000e-01	1.73311874e-02	2.58245884e-04
2.46500000e-01	1.76401568e-02	2.61744546e-04
2.47000000e-01	1.77866161e-02	2.62938136e-04
2.47500000e-01	1.76601996e-02	2.60203194e-04
2.48000000e-01	1.76116399e-02	2.60761741e-04
2.48500000e-01	1.73945277e-02	2.56705380e-04
2.49000000e-01	1.76355217e-02	2.58586762e-04
2.49500000e-01	1.76814179e-02	2.59956793e-04
2.50000000e-01	1.75836459e-02	2.58356743e-04
2.50500000e-01	1.74125425e-02	2.56729083e-04
2.51000000e-01	1.76353089e-02	2.57886384e-04
2.51500000e-01	1.76049041e-02	2.57941193e-04
2.52000000e-01	1.75721002e-02	2.56924497e-04
2.52500000e-01	1.75883515e-02	2.57205201e-04
2.53000000e-01	1.75775171e-02	2.56527377e-04
2.53500000e-01	1.74043458e-02	2.54687306e-04
2.54000000e-01	1.75400578e-02	2.56218092e-04
2.54500000e-01	1.75693981e-02	2.56040309e-04
2.55000000e-01	1.76990879e-02	2.57279735e-04
2.55500000e-01	1.75392192e-02	2.55699247e-04
2.56000000e-01	1.76357591e-02	2.57107028e-04
2.56500000e-01	1.74879691e-02	2.54031956e-04
2.57000000e-01	1.75748363e-02	2.53796265e-04
2.57500000e-01	1.72389355e-02	2.49949871e-04
2.58000000e-01	1.72863760e-02	2.50582424e-04
2.58500000e-01	1.73810738e-02	2.51181378e-04
2.59000000e-01	1.73577529e-02	2.50675310e-04
2.59500000e-01	1.72602488e-02	2.49418030e-04
2.60000000e-01	1.73527038e-02	2.50009330e-04
2.60500000e-01	1.73772660e-02	2.50571626e-04
2.61000000e-01	1.72922360e-02	2.47853075e-04
2.61500000e-01	1.73180061e-02	2.49463630e-04
2.62000000e-01	1.72225413e-02	2.47624097e-04
2.62500000e-01	1.73050331e-02	2.47704801e-04
2.63000000e-01	1.73755182e-02	2.49371572e-04
2.63500000e-01	1.72826768e-02	2.46758163e-04
2.64000000e-01	1.72956164e-02	2.46159165e-04
2.64500000e-01	1.74707759e-02	2.49134679e-04
2.65000000e-01	1.72839352e-02	2.46429773e-04
2.65500000e-01	1.72784864e-02	2.46612321e-04
2.66000000e-01	1.72842193e-02	2.46242326e-04
2.66500000e-01	1.73183590e-02	2.45575094e-04
2.67000000e-01	1.71315313e-02	2.43653563e-04
2.67500000e-01	1.74816007e-02	2.47774277e-04
2.68000000e-01	1.73037066e-02	2.44130612e-04
2.68500000e-01	1.71092847e-02	2.42099491e-04
2.69000000e-01	1.73591767e-02	2.44907209e-04
2.69500000e-01	1.72443907e-02	2.43746287e-04
2.70000000e-01	1.71042673e-02	2.40364714e-04
2.70500000e-01	1.71843544e-02	2.41478976e-04
2.71000000e-01	1.72296490e-02	2.43351651e-04
2.71500000e-01	1.71618915e-02	2.41817649e-04
2.72000000e-01	1.73488601e-02	2.43108218e-04
2.72500000e-01	1.72440477e-02	2.41861871e-04
2.73000000e-01	1.71342224e-02	2.40484275e-04
2.73500000e-01	1.71834424e-02	2.39661145e-04
2.74000000e-01	1.73595857e-02	2.41796666e-04
2.74500000e-01	1.71054620e-02	2.39265730e-04
2.75000000e-01	1.70740248e-02	2.38017187e-04
2.75500000e-01	1.71280613e-02	2.39743884e-04
2.76000000e-01	1.70220117e-02	2.37556093e-04
2.76500000e-01	1.70860211e-02	2.37986093e-04
2.77000000e-01	1.71314307e-02	2.38624260e-04
2.77500000e-01	1.70919606e-02	2.36975498e-04
2.78000000e-01	1.68721121e-02	2.34645762e-04
2.78500000e-01	1.71710619e-02	2.38998426e-04
2.79000000e-01	1.69418167e-02	2.34954256e-04
2.79500000e-01	1.71393011e-02	2.37449084e-04
2.80000000e-01	1.71108414e-02	2.37155765e-04
2.80500000e-01	1.72362960e-02	2.37922175e-04
2.81000000e-01	1.71926123e-02	2.37174066e-04
2.81500000e-01	1.69645366e-02	2.33826810e-04
2.82000000e-01	1.69466260e-02	2.33711434e-04
2.82500000e-01	1.72969654e-02	2.37738195e-04
2.83000000e-01	1.69442632e-02	2.33869092e-04
2.83500000e-01	1.71300144e-02	2.35252716e-04
2.84000000e-01	1.71061849e-02	2.35464674e-04
2.84500000e-01	1.69095291e-02	2.32449142e-04
2.85000000e-01	1.68746281e-02	2.31815185e-04
2.85500000e-01	1.71222072e-02	2.34171396e-04
2.86000000e-01	1.69393794e-02	2.32715362e-04
2.86500000e-01	1.70110995e-02	2.32692063e-04
2.87000000e-01	1.70276608e-02	2.33198700e-04
2.87500000e-01	1.70134899e-02	2.31974006e-04
2.88000000e-01	1.67457514e-02	2.26917916e-04
2.88500000e-01	1.69228129e-02	2.30633395e-04
2.89000000e-01	1.70094295e-02	2.31019378e-04
2.89500000e-01	1.69494898e-02	2.30892814e-04
2.90000000e-01	1.68896811e-02	2.29846904e-04
2.90500000e-01	1.69109247e-02	2.29978485e-04
2.91000000e-01	1.69033111e-02	2.29377317e-04
2.91500000e-01	1.70333816e-02	2.30416793e-04
2.92000000e-01	1.69895297e-02	2.30454502e-04
2.92500000e-01	1.70103142e-02	2.30634495e-04
2.93000000e-01	1.68353665e-02	2.26738137e-04
2.93500000e-01	1.69098894e-02	2.28342448e-04
2.94000000e-01	1.69920394e-02	2.28293070e-04
2.94500000e-01	1.69342404e-02	2.29148799e-04
2.95000000e-01	1.69982380e-02	2.28364421e-04
2.95500000e-01	1.67053544e-02	2.25733843e-04
2.96000000e-01	1.68013213e-02	2.26122938e-04
2.96500000e-01	1.69266318e-02	2.27518716e-04
2.97000000e-01	1.68882337e-02	2.26963396e-04
2.97500000e-01	1.69434028e-02	2.26969374e-04
2.98000000e-01	1.67108162e-02	2.23679109e-04
2.98500000e-01	1.66707253e-02	2.23821851e-04
2.99000000e-01	1.67002556e-02	2.24293370e-04
2.99500000e-01	1.67897425e-02	2.24452440e-04
3.00000000e-01	1.68037232e-02	2.24995119e-04
3.00500000e-01	1.67890508e-02	2.24174935e-04
3.01000000e-01	1.68684069e-02	2.24690487e-04
3.01500000e-01	1.69468010e-02	2.25697156e-04
3.02000000e-01	1.67627174e-02	2.23305554e-04
3.02500000e-01	1.66882596e-02	2.22390366e-04
3.03000000e-01	1.68282002e-02	2.24504032e-04
3.03500000e-01	1.66891035e-02	2.21438722e-04
3.04000000e-01	1.67822047e-02	2.22791024e-04
3.04500000e-01	1.68785621e-02	2.23682496e-04
3.05000000e-01	1.66442201e-02	2.20305071e-04
3.05500000e-01	1.67914735e-02	2.22780993e-04
3.06000000e-01	1.66103023e-02	2.19539309e-04
3.06500000e-01	1.67645255e-02	2.21794594e-04
3.07000000e-01	1.67098922e-02	2.20709611e-04
3.07500000e-01	1.65927254e-02	2.18376436e-04
3.08000000e-01	1.67727398e-02	2.20372739e-04
3.08500000e-01	1.66894854e-02	2.20022301e-04
3.09000000e-01	1.64574770e-02	2.16998034e-04
3.09500000e-01	1.66054935e-02	2.18920280e-04
3.10000000e-01	1.64986230e-02	2.17359062e-04
3.10500000e-01	1.64435801e-02	2.16269982e-04
3.11000000e-01	1.66804545e-02	2.18167248e-04
3.11500000e-01	1.66162143e-02	2.17737975e-04
3.12000000e-01	1.65016090e-02	2.16849152e-04
3.12500000e-01	1.67152313e-02	2.18078369e-04
3.13000000e-01	1.64053740e-02	2.14698575e-04
3.13500000e-01	1.66281724e-02	2.16008648e-04
3.14000000e-01	1.66126545e-02	2.16924993e-04
3.14500000e-01	1.65199606e-02	2.15870723e-04
3.15000000e-01	1.64449694e-02	2.14798676e-04
3.15500000e-01	1.65984820e-02	2.16382114e-04
3.16000000e-01	1.64970079e-02	2.15280620e-04
3.16500000e-01	1.65148092e-02	2.15464122e-04
3.17000000e-01	1.66144680e-02	2.16685947e-04
3.17500000e-01	1.65054743e-02	2.14553202e-04
3.18000000e-01	1.64973428e-02	2.13601344e-04
3.18500000e-01	1.64097273e-02	2.13456012e-04
3.19000000e-01	1.64928658e-02	2.13765655e-04
3.19500000e-01	1.65171461e-02	2.13780838e-04
3.20000000e-01	1.65610199e-02	2.14491842e-04
3.20500000e-01	1.64615808e-02	2.12432924e-04
3.21000000e-01	1.66959233e-02	2.15127914e-04
3.21500000e-01	1.62316569e-02	2.09200037e-04
3.22000000e-01	1.63538799e-02	2.11455321e-04
3.22500000e-01	1.63813434e-02	2.11751860e-04
3.23000000e-01	1.63611765e-02	2.11160718e-04
3.23500000e-01	1.63641801e-02	2.11206069e-04
3.24000000e-01	1.62672577e-02	2.09137982e-04
3.24500000e-01	1.64632128e-02	2.11996998e-04
3.25000000e-01	1.64462365e-02	2.11669227e-04
3.25500000e-01	1.64505035e-02	2.11030189e-04
3.26000000e-01	1.62082742e-02	2.07410480e-04
3.26500000e-01	1.63337251e-02	2.08741079e-04
3.27000000e-01	1.62942179e-02	2.09065562e-04
3.27500000e-01	1.62663279e-02	2.08249335e-04
3.28000000e-01	1.62228193e-02	2.07754814e-04
3.28500000e-01	1.62453638e-02	2.08176669e-04
3.29000000e-01	1.62154254e-02	2.07627125e-04
3.29500000e-01	1.62364553e-02	2.07548429e-04
3.30000000e-01	1.64062929e-02	2.09103503e-04
3.30500000e-01	1.63039234e-02	2.08899660e-04
3.31000000e-01	1.62116370e-02	2.06364659e-04
3.31500000e-01	1.61291138e-02	2.05388087e-04
3.32000000e-01	1.63353497e-02	2.07728244e-04
3.32500000e-01	1.61363589e-02	2.04599984e-04
3.33000000e-01	1.62373382e-02	2.06502695e-04
3.33500000e-01	1.62649982e-02	2.07041861e-04
3.34000000e-01	1.61538722e-02	2.04357863e-04
3.34500000e-01	1.62498047e-02	2.05459189e-04
3.35000000e-01	1.60467072e-02	2.03161984e-04
3.35500000e-01	1.60890461e-02	2.03650474e-04
3.36000000e-01	1.60586275e-02	2.02924676e-04
3.36500000e-01	1.62191879e-02	2.05142570e-04
3.37000000e-01	1.61958526e-02	2.04205371e-04
3.37500000e-01	1.60480384e-02	2.02372172e-04
3.38000000e-01	1.59873861e-02	2.02131877e-04
3.38500000e-01	1.61603949e-02	2.03008205e-04
3.39000000e-01	1.59266838e-02	2.01857837e-04
3.39500000e-01	1.60935521e-02	2.01862124e-04
3.40000000e-01	1.59552961e-02	2.01129358e-04
3.40500000e-01	1.60742443e-02	2.01643315e-04
3.41000000e-01	1.61382909e-02	2.02654997e-04
3.41500000e-01	1.60788763e-02	2.02491541e-04
3.42000000e-01	1.62793802e-02	2.03995070e-04
3.42500000e-01	1.61304963e-02	2.02555250e-04
3.43000000e-01	1.60184176e-02	2.00136969e-04
3.43500000e-01	1.60798831e-02	2.01622740e-04
3.44000000e-01	1.61029138e-02	2.01873256e-04
3.44500000e-01	1.60353619e-02	2.00164922e-04
3.45000000e-01	1.59854762e-02	1.99407602e-04
3.45500000e-01	1.58753487e-02	1.98876040e-04
3.46000000e-01	1.60751897e-02	2.00528727e-04
3.46500000e-01	1.59635573e-02	1.99142773e-04
3.47000000e-01	1.59389594e-02	1.98415154e-04
3.47500000e-01	1.59444907e-02	1.99078221e-04
3.48000000e-01	1.59834312e-02	1.98970488e-04
3.48500000e-01	1.59036250e-02	1.98264683e-04
3.49000000e-01	1.59383555e-02	1.97377935e-04
3.49500000e-01	1.60765647e-02	1.99812656e-04
3.50000000e-01	1.57823067e-02	1.59544571e-04
3.51000000e-01	1.59220353e-02	1.39804010e-04
3.52000000e-01	1.58278496e-02	1.38757261e-04
3.53000000e-01	1.59422186e-02	1.39089855e-04
3.54000000e-01	1.58736918e-02	1.38201081e-04
3.55000000e-01	1.59195228e-02	1.38627485e-04
3.56000000e-01	1.57818944e-02	1.37876280e-04
3.57000000e-01	1.58377792e-02	1.40901930e-04
3.58000000e-01	1.57219329e-02	1.41094198e-04
3.59000000e-01	1.56781672e-02	1.42186849e-04
3.60000000e-01	1.58144298e-02	1.44043105e-04
3.61000000e-01	1.56875632e-02	1.43737738e-04
3.62000000e-01	1.57186150e-02	1.44725228e-04
3.63000000e-01	1.57146015e-02	1.44842223e-04
3.64000000e-01	1.56669955e-02	1.45196993e-04
3.65000000e-01	1.55716735e-02	1.44286146e-04
3.66000000e-01	1.56666933e-02	1.43736562e-04
3.67000000e-01	1.56765159e-02	1.42001163e-04
3.68000000e-01	1.55459059e-02	1.39905862e-04
3.69000000e-01	1.56928892e-02	1.40266284e-04
3.70000000e-01	1.54890136e-02	1.37796820e-04
3.71000000e-01	1.56236291e-02	1.40661407e-04
3.72000000e-01	1.56172265e-02	1.42135745e-04
3.73000000e-01	1.54743954e-02	1.40918093e-04
3.74000000e-01	1.56276558e-02	1.42199016e-04
3.75000000e-01	1.55784354e-02	1.41952459e-04
3.76000000e-01	1.55644720e-02	1.41510586e-04
3.77000000e-01	1.54143529e-02	1.40917208e-04
3.78000000e-01	1.54806898e-02	1.41045418e-04
3.79000000e-01	1.55588260e-02	1.41522279e-04
3.80000000e-01	1.53780217e-02	1.39643802e-04
3.81000000e-01	1.54275624e-02	1.40293056e-04
3.82000000e-01	1.54538086e-02	1.40814193e-04
3.83000000e-01	1.54950931e-02	1.40772370e-04
3.84000000e-01	1.54505016e-02	1.40279427e-04
3.85000000e-01	1.55631501e-02	1.41683292e-04
3.86000000e-01	1.53690092e-02	1.40095754e-04
3.87000000e-01	1.53849891e-02	1.39612778e-04
3.88000000e-01	1.53041572e-02	1.38586946e-04
3.89000000e-01	1.53245740e-02	1.39302088e-04
3.90000000e-01	1.53679609e-02	1.39083426e-04
3.91000000e-01	1.54148526e-02	1.39557862e-04
3.92000000e-01	1.53737436e-02	1.39089877e-04
3.93000000e-01	1.52698745e-02	1.38232575e-04
3.94000000e-01	1.52682978e-02	1.38311965e-04
3.95000000e-01	1.52692823e-02	1.38713681e-04
3.96000000e-01	1.52478106e-02	1.37892432e-04
3.97000000e-01	1.52501598e-02	1.38098870e-04
3.98000000e-01	1.53003312e-02	1.38255856e-04
3.99000000e-01	1.51474595e-02	1.37297989e-04
4.00000000e-01	1.51370479e-02	1.37290221e-04
4.01000000e-01	1.51038125e-02	1.37095978e-04
4.02000000e-01	1.50735894e-02	1.36880270e-04
4.03000000e-01	1.51113279e-02	1.36612195e-04
4.04000000e-01	1.51888968e-02	1.37611536e-04
4.05000000e-01	1.50741128e-02	1.36501163e-04
4.06000000e-01	1.49726131e-02	1.35546270e-04
4.07000000e-01	1.51722805e-02	1.37072502e-04
4.08000000e-01	1.51398689e-02	1.36664652e-04
4.09000000e-01	1.52269760e-02	1.37402626e-04
4.10000000e-01	1.49665266e-02	1.35269040e-04
4.11000000e-01	1.50062712e-02	1.35772056e-04
4.12000000e-01	1.49771853e-02	1.35300711e-04
4.13000000e-01	1.50218710e-02	1.35705423e-04
4.14000000e-01	1.50020760e-02	1.35411220e-04
4.15000000e-01	1.49616317e-02	1.34762716e-04
4.16000000e-01	1.50314037e-02	1.35382103e-04
4.17000000e-01	1.50425201e-02	1.35702420e-04
4.18000000e-01	1.48641426e-02	1.35510014e-04
4.19000000e-01	1.50269409e-02	1.38713174e-04
4.20000000e-01	1.50376156e-02	1.39317768e-04
4.21000000e-01	1.51824303e-02	1.41128515e-04
4.22000000e-01	1.51024419e-02	1.41019760e-04
4.23000000e-01	1.49899131e-02	1.40962286e-04
4.24000000e-01	1.50402770e-02	1.41212789e-04
4.25000000e-01	1.51019368e-02	1.41734642e-04
4.26000000e-01	1.49875320e-02	1.41235548e-04
4.27000000e-01	1.49672974e-02	1.41107455e-04
4.28000000e-01	1.49225181e-02	1.40684288e-04
4.29000000e-01	1.50703099e-02	1.42368473e-04
4.30000000e-01	1.49890865e-02	1.41652773e-04
4.31000000e-01	1.48547929e-02	1.40060244e-04
4.32000000e-01	1.49871530e-02	1.41566401e-04
4.33000000e-01	1.49498277e-02	1.41225365e-04
4.34000000e-01	1.48416147e-02	1.40536191e-04
4.35000000e-01	1.49014413e-02	1.40965995e-04
4.36000000e-01	1.49729729e-02	1.41850952e-04
4.37000000e-01	1.48427617e-02	1.41526712e-04
4.38000000e-01	1.47706534e-02	1.40474390e-04
4.39000000e-01	1.48926525e-02	1.41562836e-04
4.40000000e-01	1.48851411e-02	1.42124688e-04
4.41000000e-01	1.49164153e-02	1.42559602e-04
4.42000000e-01	1.48255375e-02	1.41666372e-04
4.43000000e-01	1.47876774e-02	1.41769557e-04
4.44000000e-01	1.47531494e-02	1.41358036e-04
4.45000000e-01	1.48032642e-02	1.42319317e-04
4.46000000e-01	1.46839327e-02	1.41389332e-04
4.47000000e-01	1.47076043e-02	1.41436784e-04
4.48000000e-01	1.47280349e-02	1.41640034e-04
4.49000000e-01	1.48358977e-02	1.43235037e-04
4.50000000e-01	1.45842258e-02	1.41073776e-04
4.51000000e-01	1.46865876e-02	1.42320174e-04
4.52000000e-01	1.45916286e-02	1.41400513e-04
4.53000000e-01	1.47094382e-02	1.42483428e-04
4.54000000e-01	1.47230447e-02	1.42607427e-04
4.55000000e-01	1.48393247e-02	1.43916324e-04
4.56000000e-01	1.46667718e-02	1.42375265e-04
4.57000000e-01	1.48050134e-02	1.43524605e-04
4.58000000e-01	1.46393664e-02	1.42159872e-04
4.59000000e-01	1.45573829e-02	1.41725869e-04
4.60000000e-01	1.47028722e-02	1.43040073e-04
4.61000000e-01	1.46398571e-02	1.42908228e-04
4.62000000e-01	1.45353070e-02	1.41531752e-04
4.63000000e-01	1.46423922e-02	1.43104638e-04
4.64000000e-01	1.46455255e-02	1.43125358e-04
4.65000000e-01	1.46258605e-02	1.42800897e-04
4.66000000e-01	1.44724244e-02	1.41551063e-04
4.67000000e-01	1.45531131e-02	1.42549406e-04
4.68000000e-01	1.45242904e-02	1.42326373e-04
4.69000000e-01	1.46666707e-02	1.43527164e-04
4.70000000e-01	1.45298287e-02	1.42758842e-04
4.71000000e-01	1.45223653e-02	1.42796235e-04
4.72000000e-01	1.46590255e-02	1.43577638e-04
4.73000000e-01	1.46326040e-02	1.43278829e-04
4.74000000e-01	1.44705556e-02	1.41806282e-04
4.75000000e-01	1.46010247e-02	1.42672456e-04
4.76000000e-01	1.44972803e-02	1.42004187e-04
4.77000000e-01	1.45089640e-02	1.41834298e-04
4.78000000e-01	1.44297034e-02	1.41734228e-04
4.79000000e-01	1.44786848e-02	1.41709853e-04
4.80000000e-01	1.45584597e-02	1.43024006e-04
4.81000000e-01	1.45361870e-02	1.42522162e-04
4.82000000e-01	1.44258514e-02	1.41978653e-04
4.83000000e-01	1.45301083e-02	1.42659161e-04
4.84000000e-01	1.44465637e-02	1.42336162e-04
4.85000000e-01	1.44778754e-02	1.43034798e-04
4.86000000e-01	1.43470641e-02	1.41066694e-04
4.87000000e-01	1.44370615e-02	1.41913378e-04
4.88000000e-01	1.43827828e-02	1.41910149e-04
4.89000000e-01	1.42947048e-02	1.41298324e-04
4.90000000e-01	1.44090640e-02	1.42371648e-04
4.91000000e-01	1.43339967e-02	1.41604839e-04
4.92000000e-01	1.44327844e-02	1.42887772e-04
4.93000000e-01	1.43231272e-02	1.41722826e-04
4.94000000e-01	1.43496124e-02	1.42208985e-04
4.95000000e-01	1.43380192e-02	1.42993846e-04
4.96000000e-01	1.44264500e-02	1.47891415e-04
4.97000000e-01	1.43289878e-02	1.49418094e-04
4.98000000e-01	1.42928601e-02	1.51642141e-04
4.99000000e-01	1.44894839e-02	1.55076080e-04
5.00000000e-01	1.43363964e-02	1.55045215e-04
5.01000000e-01	1.42213656e-02	1.55590078e-04
5.02000000e-01	1.41874866e-02	1.57462878e-04
5.03000000e-01	1.44016194e-02	1.60817151e-04
5.04000000e-01	1.44151065e-02	1.61817631e-04
5.05000000e-01	1.43081833e-02	1.58034910e-04
5.06000000e-01	1.43631437e-02	1.55585368e-04
5.07000000e-01	1.42773758e-02	1.53038995e-04
5.08000000e-01	1.42721837e-02	1.52473658e-04
5.09000000e-01	1.42816520e-02	1.50978293e-04
5.10000000e-01	1.42225640e-02	1.50400183e-04
5.11000000e-01	1.44361128e-02	1.52197269e-04
5.12000000e-01	1.41879548e-02	1.49142858e-04
5.13000000e-01	1.42496094e-02	1.49380525e-04
5.14000000e-01	1.42732732e-02	1.49052006e-04
5.15000000e-01	1.41906558e-02	1.48086185e-04
5.16000000e-01	1.39553185e-02	1.45712972e-04
5.17000000e-01	1.42478868e-02	1.48469910e-04
5.18000000e-01	1.42541317e-02	1.48329044e-04
5.19000000e-01	1.41176938e-02	1.46173658e-04
5.20000000e-01	1.41122008e-02	1.46418793e-04
5.21000000e-01	1.40781090e-02	1.45328665e-04
5.22000000e-01	1.38403840e-02	1.43811206e-04
5.23000000e-01	1.41170988e-02	1.46165136e-04
5.24000000e-01	1.40257068e-02	1.44832221e-04
5.25000000e-01	1.39416039e-02	1.43576964e-04
5.26000000e-01	1.40687968e-02	1.45186945e-04
5.27000000e-01	1.41795653e-02	1.45833854e-04
5.28000000e-01	1.40612816e-02	1.45030699e-04
5.29000000e-01	1.40736392e-02	1.45157558e-04
5.30000000e-01	1.39307035e-02	1.43752201e-04
5.31000000e-01	1.38780335e-02	1.43744826e-04
5.32000000e-01	1.41342667e-02	1.45930156e-04
5.33000000e-01	1.38858271e-02	1.43192718e-04
5.34000000e-01	1.39981527e-02	1.44955983e-04
5.35000000e-01	1.40186002e-02	1.44653230e-04
5.36000000e-01	1.38410048e-02	1.42978718e-04
5.37000000e-01	1.40102753e-02	1.44668432e-04
5.38000000e-01	1.40231881e-02	1.44716218e-04
5.39000000e-01	1.39215749e-02	1.44247260e-04
5.40000000e-01	1.39749349e-02	1.44491248e-04
5.41000000e-01	1.39797770e-02	1.44268079e-04
5.42000000e-01	1.40041575e-02	1.44438463e-04
5.43000000e-01	1.37411525e-02	1.41973128e-04
5.44000000e-01	1.38049149e-02	1.42432849e-04
5.45000000e-01	1.38400365e-02	1.43462484e-04
5.46000000e-01	1.39544922e-02	1.44173264e-04
5.47000000e-01	1.39323999e-02	1.43802898e-04
5.48000000e-01	1.38352294e-02	1.42828541e-04
5.49000000e-01	1.37809606e-02	1.42241901e-04
5.50000000e-01	1.38628125e-02	1.43263638e-04
5.51000000e-01	1.39644944e-02	1.43289935e-04
5.52000000e-01	1.38903444e-02	1.42672866e-04
5.53000000e-01	1.37618150e-02	1.41581781e-04
5.54000000e-01	1.37537770e-02	1.41183079e-04
5.55000000e-01	1.38336063e-02	1.42043751e-04
5.56000000e-01	1.36580841e-02	1.40651337e-04
5.57000000e-01	1.37289659e-02	1.41213847e-04
5.58000000e-01	1.38042219e-02	1.41515014e-04
5.59000000e-01	1.36929922e-02	1.40834534e-04
5.60000000e-01	1.37057690e-02	1.40968591e-04
5.61000000e-01	1.37212890e-02	1.41059763e-04
5.62000000e-01	1.37933966e-02	1.41780311e-04
5.63000000e-01	1.37681970e-02	1.41470202e-04
5.64000000e-01	1.36482386e-02	1.40806719e-04
5.65000000e-01	1.35654501e-02	1.39532754e-04
5.66000000e-01	1.36391079e-02	1.40178401e-04
5.67000000e-01	1.35689384e-02	1.39822711e-04
5.68000000e-01	1.35750048e-02	1.39715875e-04
5.69000000e-01	1.36481268e-02	1.39955454e-04
5.70000000e-01	1.35996265e-02	1.39561549e-04
5.71000000e-01	1.36423426e-02	1.39992931e-04
5.72000000e-01	1.35297086e-02	1.39209394e-04
5.73000000e-01	1.36112928e-02	1.40110807e-04
5.74000000e-01	1.35125792e-02	1.39104110e-04
5.75000000e-01	1.35508409e-02	1.39782982e-04
5.76000000e-01	1.34351244e-02	1.38524296e-04
5.77000000e-01	1.35723100e-02	1.39922421e-04
5.78000000e-01	1.34858165e-02	1.38889312e-04
5.79000000e-01	1.34968804e-02	1.38864136e-04
5.80000000e-01	1.34278020e-02	1.38255550e-04
5.81000000e-01	1.33806482e-02	1.37853721e-04
5.82000000e-01	1.34681707e-02	1.38571083e-04
5.83000000e-01	1.33482635e-02	1.37892624e-04
5.84000000e-01	1.33900020e-02	1.37994792e-04
5.85000000e-01	1.34611655e-02	1.38639529e-04
5.86000000e-01	1.32821369e-02	1.37003536e-04
5.87000000e-01	1.35460810e-02	1.39735797e-04
5.88000000e-01	1.34218950e-02	1.38226805e-04
5.89000000e-01	1.32956545e-02	1.37300166e-04
5.90000000e-01	1.33060941e-02	1.37573848e-04
5.91000000e-01	1.33634396e-02	1.38077844e-04
5.92000000e-01	1.32999588e-02	1.37328038e-04
5.93000000e-01	1.32978513e-02	1.37926109e-04
5.94000000e-01	1.33175873e-02	1.37211233e-04
5.95000000e-01	1.32272874e-02	1.36938487e-04
5.96000000e-01	1.33455055e-02	1.38439118e-04
5.97000000e-01	1.33528397e-02	1.38345819e-04
5.98000000e-01	1.33678729e-02	1.38533271e-04
5.99000000e-01	1.32261836e-02	1.37068958e-04
6.00000000e-01	1.33549671e-02	1.37719283e-04
6.01000000e-01	1.33199703e-02	1.37489114e-04
6.02000000e-01	1.33274152e-02	1.37980022e-04
6.03000000e-01	1.31721367e-02	1.36416537e-04
6.04000000e-01	1.33028407e-02	1.37565616e-04
6.05000000e-01	1.33237363e-02	1.37920031e-04
6.06000000e-01	1.31251501e-02	1.35974036e-04
6.07000000e-01	1.32727721e-02	1.37151883e-04
6.08000000e-01	1.31659149e-02	1.36636436e-04
6.09000000e-01	1.31393267e-02	1.36366626e-04
6.10000000e-01	1.31222339e-02	1.35937542e-04
6.11000000e-01	1.31999080e-02	1.36694250e-04
6.12000000e-01	1.31274716e-02	1.36099255e-04
6.13000000e-01	1.31866489e-02	1.36814552e-04
6.14000000e-01	1.30712301e-02	1.35546028e-04
6.15000000e-01	1.31331703e-02	1.36365276e-04
6.16000000e-01	1.30308239e-02	1.35582738e-04
6.17000000e-01	1.32188440e-02	1.37055024e-04
6.18000000e-01	1.32574690e-02	1.37773776e-04
6.19000000e-01	1.32534601e-02	1.36965464e-04
6.20000000e-01	1.32458706e-02	1.36719188e-04
6.21000000e-01	1.31654668e-02	1.36178325e-04
6.22000000e-01	1.30785048e-02	1.35239791e-04
6.23000000e-01	1.30667751e-02	1.35022690e-04
6.24000000e-01	1.31524238e-02	1.35459497e-04
6.25000000e-01	1.30650489e-02	1.35039410e-04
6.26000000e-01	1.32412172e-02	1.35909755e-04
6.27000000e-01	1.30899484e-02	1.34867589e-04
6.28000000e-01	1.29965182e-02	1.34455188e-04
6.29000000e-01	1.30526178e-02	1.34680177e-04
6.30000000e-01	1.30985233e-02	1.35053987e-04
6.31000000e-01	1.30077971e-02	1.33694667e-04
6.32000000e-01	1.30436301e-02	1.34264204e-04
6.33000000e-01	1.30422710e-02	1.33964500e-04
6.34000000e-01	1.30255225e-02	1.37835255e-04
6.35000000e-01	1.30612536e-02	1.42402884e-04
6.36000000e-01	1.30962217e-02	1.44971499e-04
6.37000000e-01	1.30109130e-02	1.46487899e-04
6.38000000e-01	1.31619496e-02	1.49951337e-04
6.39000000e-01	1.31486658e-02	1.51374248e-04
6.40000000e-01	1.31483973e-02	1.53696155e-04
6.41000000e-01	1.32812504e-02	1.56312402e-04
6.42000000e-01	1.30718654e-02	1.56362029e-04
6.43000000e-01	1.31261138e-02	1.56941934e-04
6.44000000e-01	1.32267465e-02	1.51727452e-04
6.45000000e-01	1.30724385e-02	1.48305087e-04
6.46000000e-01	1.31129936e-02	1.47009797e-04
6.47000000e-01	1.31819189e-02	1.46941462e-04
6.48000000e-01	1.30613864e-02	1.44774931e-04
6.49000000e-01	1.30196058e-02	1.43730942e-04
6.50000000e-01	1.30097662e-02	1.42998889e-04
6.51000000e-01	1.30304793e-02	1.42599963e-04
6.52000000e-01	1.29384387e-02	1.41687164e-04
6.53000000e-01	1.30361668e-02	1.41878972e-04
6.54000000e-01	1.29677830e-02	1.40317838e-04
6.55000000e-01	1.31257682e-02	1.41304361e-04
6.56000000e-01	1.30418543e-02	1.40326359e-04
6.57000000e-01	1.29199133e-02	1.39317848e-04
6.58000000e-01	1.29974419e-02	1.40234605e-04
6.59000000e-01	1.30682083e-02	1.40090027e-04
6.60000000e-01	1.30034544e-02	1.39814033e-04
6.61000000e-01	1.29604648e-02	1.39268593e-04
6.62000000e-01	1.29271302e-02	1.39025559e-04
6.63000000e-01	1.29876833e-02	1.39411939e-04
6.64000000e-01	1.28712870e-02	1.37983236e-04
6.65000000e-01	1.29484865e-02	1.38897302e-04
6.66000000e-01	1.29592317e-02	1.38660029e-04
6.67000000e-01	1.28909556e-02	1.38465275e-04
6.68000000e-01	1.28467850e-02	1.37436996e-04
6.69000000e-01	1.29191271e-02	1.37739886e-04
6.70000000e-01	1.28271629e-02	1.37484159e-04
6.71000000e-01	1.29573454e-02	1.38709651e-04
6.72000000e-01	1.28273847e-02	1.37266750e-04
6.73000000e-01	1.28996229e-02	1.37599050e-04
6.74000000e-01	1.27702942e-02	1.37119743e-04
6.75000000e-01	1.28482535e-02	1.37330394e-04
6.76000000e-01	1.29606722e-02	1.38580049e-04
6.77000000e-01	1.28209238e-02	1.36262536e-04
6.78000000e-01	1.27692475e-02	1.36523600e-04
6.79000000e-01	1.28476219e-02	1.37146727e-04
6.80000000e-01	1.27987619e-02	1.36723438e-04
6.81000000e-01	1.27464039e-02	1.36407392e-04
6.82000000e-01	1.27782500e-02	1.35967102e-04
6.83000000e-01	1.27800162e-02	1.36280778e-04
6.84000000e-01	1.27940172e-02	1.36431684e-04
6.85000000e-01	1.28527212e-02	1.36676968e-04
6.86000000e-01	1.27133990e-02	1.35414782e-04
6.87000000e-01	1.27014310e-02	1.35351203e-04
6.88000000e-01	1.28066416e-02	1.36395589e-04
6.89000000e-01	1.27709499e-02	1.35865763e-04
6.90000000e-01	1.27344496e-02	1.35721478e-04
6.91000000e-01	1.26349066e-02	1.34617313e-04
6.92000000e-01	1.26955792e-02	1.35337671e-04
6.93000000e-01	1.26667355e-02	1.35172033e-04
6.94000000e-01	1.26323380e-02	1.34386119e-04
6.95000000e-01	1.25343337e-02	1.33481096e-04
6.96000000e-01	1.26413266e-02	1.34808087e-04
6.97000000e-01	1.27320446e-02	1.35324073e-04
6.98000000e-01	1.27748591e-02	1.36038303e-04
6.99000000e-01	1.25823299e-02	1.33881860e-04
7.00000000e-01	1.26738952e-02	1.35334534e-04
7.01000000e-01	1.25599198e-02	1.33700731e-04
7.02000000e-01	1.26877914e-02	1.34635968e-04
7.03000000e-01	1.26709379e-02	1.35102139e-04
7.04000000e-01	1.27109468e-02	1.35023770e-04
7.05000000e-01	1.26337474e-02	1.34134748e-04
7.06000000e-01	1.25763260e-02	1.34144290e-04
7.07000000e-01	1.24939269e-02	1.32908905e-04
7.08000000e-01	1.25098777e-02	1.32788589e-04
7.09000000e-01	1.25710469e-02	1.33884705e-04
7.10000000e-01	1.25642737e-02	1.33102320e-04
7.11000000e-01	1.25658785e-02	1.33805300e-04
7.12000000e-01	1.24432911e-02	1.32506048e-04
7.13000000e-01	1.24000834e-02	1.32519577e-04
7.14000000e-01	1.24311719e-02	1.32271312e-04
7.15000000e-01	1.25235248e-02	1.33516765e-04
7.16000000e-01	1.24524294e-02	1.32718414e-04
7.17000000e-01	1.23899959e-02	1.31729208e-04
7.18000000e-01	1.23713446e-02	1.31366047e-04
7.19000000e-01	1.24142288e-02	1.32087842e-04
7.20000000e-01	1.24688624e-02	1.32709741e-04
7.21000000e-01	1.23367495e-02	1.31355073e-04
7.22000000e-01	1.23532321e-02	1.31944062e-04
7.23000000e-01	1.22247565e-02	1.30535949e-04
7.24000000e-01	1.22631448e-02	1.30591260e-04
7.25000000e-01	1.23924276e-02	1.31894076e-04
7.26000000e-01	1.23079860e-02	1.31292982e-04
7.27000000e-01	1.22989670e-02	1.30916474e-04
7.28000000e-01	1.22727782e-02	1.31049536e-04
7.29000000e-01	1.23052538e-02	1.31459793e-04
7.30000000e-01	1.22688519e-02	1.30832827e-04
7.31000000e-01	1.22022088e-02	1.29628037e-04
7.32000000e-01	1.22276673e-02	1.30349632e-04
7.33000000e-01	1.22356123e-02	1.30637423e-04
7.34000000e-01	1.22223367e-02	1.30232937e-04
7.35000000e-01	1.21177748e-02	1.28801914e-04
7.36000000e-01	1.22803693e-02	1.30173654e-04
7.37000000e-01	1.21799626e-02	1.29181084e-04
7.38000000e-01	1.22682885e-02	1.30182436e-04
7.39000000e-01	1.21949676e-02	1.29154275e-04
7.40000000e-01	1.21798926e-02	1.28787100e-04
7.41000000e-01	1.22179282e-02	1.29104184e-04
7.42000000e-01	1.21649191e-02	1.28396288e-04
7.43000000e-01	1.21889773e-02	1.29026755e-04
7.44000000e-01	1.21325795e-02	1.27855364e-04
7.45000000e-01	1.21156845e-02	1.27775507e-04
7.46000000e-01	1.21616694e-02	1.28464397e-04
7.47000000e-01	1.21477096e-02	1.28194740e-04
7.48000000e-01	1.21408529e-02	1.28024924e-04
7.49000000e-01	1.21218213e-02	1.27475313e-04
7.50000000e-01	1.21022527e-02	1.27815605e-04
7.51000000e-01	1.19356892e-02	1.26329141e-04
7.52000000e-01	1.20759331e-02	1.27466724e-04
7.53000000e-01	1.21309150e-02	1.27766211e-04
7.54000000e-01	1.22082771e-02	1.29105786e-04
7.55000000e-01	1.20668435e-02	1.26970320e-04
7.56000000e-01	1.20905570e-02	1.27832399e-04
7.57000000e-01	1.20052150e-02	1.26707158e-04
7.58000000e-01	1.22010439e-02	1.28764599e-04
7.59000000e-01	1.20013476e-02	1.26779110e-04
7.60000000e-01	1.19881876e-02	1.26553502e-04
7.61000000e-01	1.20430275e-02	1.26808299e-04
7.62000000e-01	1.18360602e-02	1.24842619e-04
7.63000000e-01	1.19888558e-02	1.26080587e-04
7.64000000e-01	1.19434461e-02	1.25652496e-04
7.65000000e-01	1.20032858e-02	1.26077736e-04
7.66000000e-01	1.18773181e-02	1.24653092e-04
7.67000000e-01	1.18445733e-02	1.24303608e-04
7.68000000e-01	1.17743251e-02	1.23278303e-04
7.69000000e-01	1.18144897e-02	1.23782437e-04
7.70000000e-01	1.19320109e-02	1.25193158e-04
7.71000000e-01	1.18225194e-02	1.24046537e-04
7.72000000e-01	1.19193405e-02	1.28659671e-04
7.73000000e-01	1.19178181e-02	1.32651594e-04
7.74000000e-01	1.21036780e-02	1.37321081e-04
7.75000000e-01	1.17472718e-02	1.35669694e-04
7.76000000e-01	1.17972824e-02	1.38715769e-04
7.77000000e-01	1.16441812e-02	1.39416984e-04
7.78000000e-01	1.18069561e-02	1.43075082e-04
7.79000000e-01	1.18178506e-02	1.43828345e-04
7.80000000e-01	1.18197243e-02	1.46032321e-04
7.81000000e-01	1.18008224e-02	1.48130555e-04
7.82000000e-01	1.18738417e-02	1.49985343e-04
7.83000000e-01	1.17466058e-02	1.50484332e-04
7.84000000e-01	1.16494244e-02	1.51293647e-04
7.85000000e-01	1.17189436e-02	1.52761490e-04
7.86000000e-01	1.16059589e-02	1.53495557e-04
7.87000000e-01	1.16771819e-02	1.55385150e-04
7.88000000e-01	1.17284230e-02	1.58195390e-04
7.89000000e-01	1.15962773e-02	1.57651445e-04
7.90000000e-01	1.16191197e-02	1.60286746e-04
7.91000000e-01	1.15103780e-02	1.60381071e-04
7.92000000e-01	1.16276442e-02	1.63052249e-04
7.93000000e-01	1.14467269e-02	1.62314470e-04
7.94000000e-01	1.15466802e-02	1.64697298e-04
7.95000000e-01	1.16384463e-02	1.68995604e-04
7.96000000e-01	1.16584517e-02	1.70808149e-04
7.97000000e-01	1.14471905e-02	1.70059569e-04
7.98000000e-01	1.15996040e-02	1.73243219e-04
7.99000000e-01	1.15364574e-02	1.74495317e-04
8.00000000e-01	1.13891857e-02	1.74513686e-04
8.01000000e-01	1.15641254e-02	1.77733604e-04
8.02000000e-01	1.14775337e-02	1.78021122e-04
8.03000000e-01	1.14837174e-02	1.80058673e-04
8.04000000e-01	1.15157172e-02	1.83248612e-04
8.05000000e-01	1.13982037e-02	1.83680855e-04
8.06000000e-01	1.14786001e-02	1.86460625e-04
8.07000000e-01	1.13472433e-02	1.84721261e-04
8.08000000e-01	1.13952793e-02	1.90263309e-04
8.09000000e-01	1.15043737e-02	1.92209879e-04
8.10000000e-01	1.15410249e-02	1.95110456e-04
8.11000000e-01	1.13029303e-02	1.93320779e-04
8.12000000e-01	1.15216519e-02	2.00084031e-04
8.13000000e-01	1.13029162e-02	1.98094875e-04
8.14000000e-01	1.13912145e-02	2.01832176e-04
8.15000000e-01	1.13437507e-02	2.03417027e-04
8.16000000e-01	1.12951075e-02	2.05384092e-04
8.17000000e-01	1.13281235e-02	2.07604099e-04
8.18000000e-01	1.13373404e-02	2.11344067e-04
8.19000000e-01	1.11291876e-02	2.11913017e-04
8.20000000e-01	1.08778988e-02	2.09698635e-04
8.21000000e-01	1.13900968e-02	2.20567107e-04
8.22000000e-01	1.09462209e-02	2.15307111e-04
8.23000000e-01	1.11621957e-02	2.24117921e-04
8.24000000e-01	1.09207773e-02	2.21359468e-04
8.25000000e-01	1.12029163e-02	2.27683529e-04
8.26000000e-01	1.08198445e-02	2.25333490e-04
8.27000000e-01	1.08721343e-02	2.29835980e-04
8.28000000e-01	1.10969294e-02	2.38118913e-04
8.29000000e-01	1.11484671e-02	2.43005979e-04
8.30000000e-01	1.08104373e-02	2.39305511e-04
8.31000000e-01	1.08351496e-02	2.44478648e-04
8.32000000e-01	1.12016348e-02	2.53380233e-04
8.33000000e-01	1.10096889e-02	2.54946582e-04
8.34000000e-01	1.10542167e-02	2.62723085e-04
8.35000000e-01	1.09931605e-02	2.64831150e-04
8.36000000e-01	1.10323927e-02	2.69100330e-04
8.37000000e-01	1.12552028e-02	2.79593399e-04
8.38000000e-01	1.10434292e-02	2.81474255e-04
8.39000000e-01	1.12099809e-02	2.89382600e-04
8.40000000e-01	1.08137090e-02	2.87701600e-04
8.41000000e-01	1.08688985e-02	2.95820175e-04
8.42000000e-01	1.07831592e-02	3.02166463e-04
8.43000000e-01	1.09119131e-02	3.12584787e-04
8.44000000e-01	1.09856164e-02	3.20305153e-04
8.45000000e-01	1.08340593e-02	3.25815796e-04
8.46000000e-01	1.07468412e-02	3.32080843e-04
8.47000000e-01	1.08323891e-02	3.39379326e-04
8.48000000e-01	1.07685849e-02	3.48676808e-04
8.49000000e-01	1.07885429e-02	3.61213361e-04
8.50000000e-01	1.09700563e-02	3.84537812e-04
8.51000000e-01	1.05834868e-02	3.83358171e-04
8.52000000e-01	1.03033444e-02	3.82896469e-04
8.53000000e-01	1.03873561e-02	4.08649807e-04
8.54000000e-01	1.03401147e-02	4.28268560e-04
8.55000000e-01	1.06753371e-02	4.51592255e-04
8.56000000e-01	1.07262302e-02	4.72545425e-04
8.57000000e-01	1.10070819e-02	4.85860782e-04
8.58000000e-01	1.00065627e-02	4.61291972e-04
8.59000000e-01	1.06697768e-02	5.09311972e-04
8.60000000e-01	1.07933208e-02	5.22454565e-04
8.61000000e-01	1.06722401e-02	5.43659401e-04
8.62000000e-01	1.07295269e-02	5.64246600e-04
8.63000000e-01	1.00175159e-02	5.49624715e-04
8.64000000e-01	1.01941400e-02	5.92075609e-04
8.65000000e-01	1.01301383e-02	6.05391015e-04
8.66000000e-01	1.00658740e-02	6.37958340e-04
8.67000000e-01	1.06860820e-02	7.17574584e-04
8.68000000e-01	1.06436797e-02	7.67831606e-04
8.69000000e-01	1.06474717e-02	8.36681138e-04
8.70000000e-01	1.04869573e-02	8.63445608e-04
8.71000000e-01	1.14236041e-02	1.07048184e-03
8.72000000e-01	1.04907008e-02	1.14317731e-03
8.73000000e-01	1.07603158e-02	1.27997979e-03
8.74000000e-01	1.00335660e-02	1.65038519e-03
8.75000000e-01	1.15012264e-02	4.28094690e-03
