% Filename : SDL13_00034_00015.h5
% Date & Time : 30-Oct-2025 17:29:08
% X-ray Energy (keV) : 13.30001
% Exposure Time (s) : 0.500
% Beam Center : 1461.24000, 208.98300
% Sample to Detector Distance (SDD) (mm) : 1990.750
% Detector Pixel Size (mm) : 0.075
% Photodiode Value : 140998.000
% I0 of Sample : 0
% I0 of Standard : 1
% 
% q(A^-1)   I(q)    I(q)_SE
0.00000000e+00	6.40673544e-03	4.24974751e-03
2.50000000e-04	0.00000000e+00	0.00000000e+00
5.00000000e-04	0.00000000e+00	0.00000000e+00
7.50000000e-04	0.00000000e+00	0.00000000e+00
1.00000000e-03	0.00000000e+00	0.00000000e+00
1.25000000e-03	0.00000000e+00	0.00000000e+00
1.50000000e-03	0.00000000e+00	0.00000000e+00
1.75000000e-03	0.00000000e+00	0.00000000e+00
2.00000000e-03	0.00000000e+00	0.00000000e+00
2.25000000e-03	0.00000000e+00	0.00000000e+00
2.50000000e-03	0.00000000e+00	0.00000000e+00
2.75000000e-03	0.00000000e+00	0.00000000e+00
3.00000000e-03	0.00000000e+00	0.00000000e+00
3.25000000e-03	3.79595629e+00	2.25686841e+00
3.50000000e-03	2.71012118e+00	7.25255052e-01
3.75000000e-03	1.96626888e+00	4.33800541e-01
4.00000000e-03	1.55691417e+00	3.08552178e-01
4.25000000e-03	1.08848529e+00	1.72373762e-01
4.50000000e-03	1.55763952e+00	2.86784080e-01
4.75000000e-03	1.49531419e+00	2.45785437e-01
5.00000000e-03	1.15046192e+00	1.76855269e-01
5.25000000e-03	9.75104198e-01	1.49282201e-01
5.50000000e-03	8.16031177e-01	1.19082971e-01
5.75000000e-03	7.02262359e-01	9.86627320e-02
6.00000000e-03	5.85454761e-01	7.91216751e-02
6.25000000e-03	5.09277146e-01	6.71424269e-02
6.50000000e-03	4.48810323e-01	5.70573816e-02
6.75000000e-03	3.67831304e-01	4.57823814e-02
7.00000000e-03	3.32843935e-01	4.01486759e-02
7.25000000e-03	2.89047787e-01	3.40935778e-02
7.50000000e-03	2.55889524e-01	2.94446792e-02
7.75000000e-03	2.27446173e-01	2.55625986e-02
8.00000000e-03	2.08059729e-01	2.21237582e-02
8.25000000e-03	1.81678016e-01	1.91968397e-02
8.50000000e-03	1.65906805e-01	1.67700192e-02
8.75000000e-03	1.52161454e-01	1.54935918e-02
9.00000000e-03	1.36439875e-01	1.34391756e-02
9.25000000e-03	1.23898908e-01	1.12148705e-02
9.50000000e-03	1.13644728e-01	1.04747932e-02
9.75000000e-03	1.02663269e-01	9.02794091e-03
1.00000000e-02	9.40603178e-02	8.29341889e-03
1.02500000e-02	8.57465707e-02	7.51382203e-03
1.05000000e-02	8.19242750e-02	6.80922361e-03
1.07500000e-02	7.62230232e-02	6.32951740e-03
1.10000000e-02	6.84083908e-02	5.34027121e-03
1.12500000e-02	6.53470833e-02	5.13933447e-03
1.15000000e-02	6.02532073e-02	4.58730606e-03
1.17500000e-02	5.91513982e-02	4.36518811e-03
1.20000000e-02	5.71231507e-02	4.24531224e-03
1.22500000e-02	5.19712391e-02	3.85589103e-03
1.25000000e-02	4.89766569e-02	3.50048413e-03
1.27500000e-02	5.05203400e-02	3.52652614e-03
1.30000000e-02	4.69741959e-02	3.20692342e-03
1.32500000e-02	4.43293943e-02	2.95483556e-03
1.35000000e-02	4.25864758e-02	2.85320479e-03
1.37500000e-02	3.99270002e-02	2.63908397e-03
1.40000000e-02	4.00689030e-02	2.60003231e-03
1.42500000e-02	3.74541247e-02	2.34694130e-03
1.45000000e-02	3.64145621e-02	2.30182335e-03
1.47500000e-02	3.53045423e-02	2.20003979e-03
1.50000000e-02	3.44961857e-02	2.11483975e-03
1.52500000e-02	3.38647554e-02	2.05537469e-03
1.55000000e-02	3.20496172e-02	1.88081932e-03
1.57500000e-02	3.13894290e-02	1.84824217e-03
1.60000000e-02	3.13806031e-02	1.78183004e-03
1.62500000e-02	3.02272256e-02	1.77653923e-03
1.65000000e-02	2.94596129e-02	1.66211993e-03
1.67500000e-02	2.96763370e-02	1.64822227e-03
1.70000000e-02	2.94881340e-02	1.66000341e-03
1.72500000e-02	2.82407280e-02	1.56143785e-03
1.75000000e-02	2.80749623e-02	1.55764327e-03
1.77500000e-02	2.62517671e-02	1.43889938e-03
1.80000000e-02	2.64812755e-02	1.43504508e-03
1.82500000e-02	2.71131505e-02	1.42931033e-03
1.85000000e-02	2.64861079e-02	1.44247149e-03
1.87500000e-02	2.64287015e-02	1.40450268e-03
1.90000000e-02	2.58250357e-02	1.35091707e-03
1.92500000e-02	2.57110771e-02	1.32873023e-03
1.95000000e-02	2.48210042e-02	1.28959011e-03
1.97500000e-02	2.56575434e-02	1.33056734e-03
2.00000000e-02	2.53178043e-02	1.30448941e-03
2.02500000e-02	2.46011233e-02	1.25338173e-03
2.05000000e-02	2.45861632e-02	1.23945566e-03
2.07500000e-02	2.44839846e-02	1.22266119e-03
2.10000000e-02	2.51609497e-02	1.26822297e-03
2.12500000e-02	2.42440436e-02	1.23151017e-03
2.15000000e-02	2.38560531e-02	1.20539924e-03
2.17500000e-02	2.38893714e-02	1.20362415e-03
2.20000000e-02	2.33401792e-02	1.18765856e-03
2.22500000e-02	2.36105923e-02	1.19605402e-03
2.25000000e-02	2.32448475e-02	1.17322092e-03
2.27500000e-02	2.42856102e-02	1.21542873e-03
2.30000000e-02	2.33191296e-02	1.17666105e-03
2.32500000e-02	2.34774444e-02	1.17624478e-03
2.35000000e-02	2.36296931e-02	1.19766386e-03
2.37500000e-02	2.37563908e-02	1.18677850e-03
2.40000000e-02	2.33366621e-02	1.17251809e-03
2.42500000e-02	2.25329029e-02	1.13699036e-03
2.45000000e-02	2.23510218e-02	1.11808324e-03
2.47500000e-02	2.34684584e-02	1.16527011e-03
2.50000000e-02	2.34418286e-02	1.17804142e-03
2.52500000e-02	2.22526378e-02	1.12917308e-03
2.55000000e-02	2.28390628e-02	1.12626752e-03
2.57500000e-02	2.31650672e-02	1.14988646e-03
2.60000000e-02	2.26747910e-02	1.11437247e-03
2.62500000e-02	2.27005788e-02	1.13934134e-03
2.65000000e-02	2.20501875e-02	1.10012443e-03
2.67500000e-02	2.26726043e-02	1.11258163e-03
2.70000000e-02	2.22132568e-02	1.09764701e-03
2.72500000e-02	2.29455669e-02	1.11550158e-03
2.75000000e-02	2.17640154e-02	1.08233740e-03
2.77500000e-02	2.20526113e-02	1.08982121e-03
2.80000000e-02	2.26004925e-02	1.08778075e-03
2.82500000e-02	2.28339138e-02	1.10241585e-03
2.85000000e-02	2.26779699e-02	1.09486252e-03
2.87500000e-02	2.27909843e-02	1.10549391e-03
2.90000000e-02	2.28296564e-02	1.11458359e-03
2.92500000e-02	2.30099122e-02	1.08966072e-03
2.95000000e-02	2.23295080e-02	1.08389608e-03
2.97500000e-02	2.38591186e-02	1.12906718e-03
3.00000000e-02	2.28448559e-02	1.10190579e-03
3.02500000e-02	2.28904846e-02	1.08913035e-03
3.05000000e-02	2.32087923e-02	1.09350727e-03
3.07500000e-02	2.35771242e-02	1.11666939e-03
3.10000000e-02	2.20235973e-02	1.05310233e-03
3.12500000e-02	2.35747743e-02	1.12758055e-03
3.15000000e-02	2.26277293e-02	1.07072147e-03
3.17500000e-02	2.32726605e-02	1.08508257e-03
3.20000000e-02	2.31508345e-02	1.08110539e-03
3.22500000e-02	2.27342842e-02	1.07355397e-03
3.25000000e-02	2.33948376e-02	1.09748531e-03
3.27500000e-02	2.24337350e-02	1.03777643e-03
3.30000000e-02	2.24474755e-02	1.04278940e-03
3.32500000e-02	2.23305741e-02	1.03161121e-03
3.35000000e-02	2.19478462e-02	1.03571330e-03
3.37500000e-02	2.24694058e-02	1.03568988e-03
3.40000000e-02	2.24215901e-02	1.03406457e-03
3.42500000e-02	2.22573248e-02	1.01181007e-03
3.45000000e-02	2.26942853e-02	1.05300632e-03
3.47500000e-02	2.21323146e-02	1.01153261e-03
3.50000000e-02	2.21128899e-02	1.01370162e-03
3.52500000e-02	2.17705294e-02	9.93912142e-04
3.55000000e-02	2.17282145e-02	9.78429018e-04
3.57500000e-02	2.11213296e-02	9.68417506e-04
3.60000000e-02	2.14555960e-02	9.71537995e-04
3.62500000e-02	2.24195856e-02	1.01360515e-03
3.65000000e-02	2.11670708e-02	9.60745044e-04
3.67500000e-02	2.07924973e-02	9.34191806e-04
3.70000000e-02	2.15341259e-02	9.62327438e-04
3.72500000e-02	2.23892776e-02	1.00296432e-03
3.75000000e-02	2.18561732e-02	9.78588899e-04
3.77500000e-02	2.18128846e-02	9.80446205e-04
3.80000000e-02	2.18573311e-02	9.65361273e-04
3.82500000e-02	2.08805012e-02	9.24445861e-04
3.85000000e-02	2.15278880e-02	9.64324525e-04
3.87500000e-02	2.09156055e-02	9.23669098e-04
3.90000000e-02	2.16115447e-02	9.64795712e-04
3.92500000e-02	2.15302411e-02	9.37380799e-04
3.95000000e-02	2.11085518e-02	9.39931046e-04
3.97500000e-02	2.10442506e-02	9.33756937e-04
4.00000000e-02	2.14628416e-02	9.35915612e-04
4.02500000e-02	2.17549749e-02	9.44877201e-04
4.05000000e-02	2.06284362e-02	8.90704550e-04
4.07500000e-02	2.08553467e-02	9.05558792e-04
4.10000000e-02	2.13242285e-02	9.25090470e-04
4.12500000e-02	2.14998952e-02	9.31458910e-04
4.15000000e-02	2.10492942e-02	9.18850204e-04
4.17500000e-02	2.11891448e-02	9.14164203e-04
4.20000000e-02	2.12527150e-02	9.05029843e-04
4.22500000e-02	2.16494548e-02	9.22607787e-04
4.25000000e-02	2.11971819e-02	9.03528423e-04
4.27500000e-02	2.12416388e-02	9.09078609e-04
4.30000000e-02	2.06325492e-02	8.72230720e-04
4.32500000e-02	2.08372884e-02	8.82966714e-04
4.35000000e-02	2.12490761e-02	9.09858057e-04
4.37500000e-02	2.11863532e-02	8.94638707e-04
4.40000000e-02	2.13957998e-02	9.02035420e-04
4.42500000e-02	2.14555701e-02	9.12901152e-04
4.45000000e-02	2.08877119e-02	8.78122444e-04
4.47500000e-02	2.09217968e-02	8.76966512e-04
4.50000000e-02	2.10138800e-02	8.85677009e-04
4.52500000e-02	2.11960180e-02	8.82273764e-04
4.55000000e-02	2.06100042e-02	8.52594848e-04
4.57500000e-02	2.09093971e-02	8.66994003e-04
4.60000000e-02	2.06639846e-02	8.60133872e-04
4.62500000e-02	2.10592248e-02	8.68140244e-04
4.65000000e-02	2.04961662e-02	8.45740842e-04
4.67500000e-02	2.10317011e-02	8.64132157e-04
4.70000000e-02	2.06330825e-02	8.52862710e-04
4.72500000e-02	2.09352931e-02	8.59321033e-04
4.75000000e-02	1.99477794e-02	8.26576291e-04
4.77500000e-02	2.09817672e-02	8.54293499e-04
4.80000000e-02	2.13300481e-02	8.59898297e-04
4.82500000e-02	2.04681105e-02	8.29127292e-04
4.85000000e-02	2.12994508e-02	8.71286785e-04
4.87500000e-02	2.07808878e-02	8.48579325e-04
4.90000000e-02	2.11191615e-02	8.49082845e-04
4.92500000e-02	2.14000710e-02	8.57957689e-04
4.95000000e-02	2.07674647e-02	8.38490563e-04
4.97500000e-02	2.05502309e-02	8.35203981e-04
5.00000000e-02	2.06676084e-02	8.37548578e-04
5.02500000e-02	2.06920859e-02	8.26216021e-04
5.05000000e-02	2.10462787e-02	8.39630710e-04
5.07500000e-02	2.06404366e-02	8.15604518e-04
5.10000000e-02	2.11360090e-02	8.43047250e-04
5.12500000e-02	2.08381724e-02	8.38964056e-04
5.15000000e-02	2.03774888e-02	8.10428280e-04
5.17500000e-02	2.06576741e-02	8.27702577e-04
5.20000000e-02	2.04219020e-02	8.09287617e-04
5.22500000e-02	2.10306512e-02	8.28695964e-04
5.25000000e-02	2.05728340e-02	8.14720477e-04
5.27500000e-02	2.02977899e-02	7.94506581e-04
5.30000000e-02	2.07595959e-02	8.27503654e-04
5.32500000e-02	2.08109124e-02	8.11141321e-04
5.35000000e-02	2.05212605e-02	8.01406755e-04
5.37500000e-02	2.05744379e-02	8.05235254e-04
5.40000000e-02	2.06361884e-02	8.03814203e-04
5.42500000e-02	2.01888293e-02	7.85441343e-04
5.45000000e-02	2.00258695e-02	7.81678542e-04
5.47500000e-02	2.01276030e-02	7.82983591e-04
5.50000000e-02	2.00920758e-02	7.77123744e-04
5.52500000e-02	2.04074313e-02	7.95096130e-04
5.55000000e-02	2.07601606e-02	7.93699789e-04
5.57500000e-02	2.00255663e-02	7.71685126e-04
5.60000000e-02	2.08381589e-02	8.00253440e-04
5.62500000e-02	1.99240444e-02	7.63647009e-04
5.65000000e-02	2.01770588e-02	7.70179079e-04
5.67500000e-02	2.05744038e-02	7.86885939e-04
5.70000000e-02	2.05416594e-02	7.79986963e-04
5.72500000e-02	2.07127186e-02	7.89099994e-04
5.75000000e-02	2.02468349e-02	7.73829773e-04
5.77500000e-02	2.04620986e-02	7.70585201e-04
5.80000000e-02	2.07011353e-02	7.84011626e-04
5.82500000e-02	1.96752323e-02	7.46725638e-04
5.85000000e-02	1.99725219e-02	7.58989027e-04
5.87500000e-02	2.02503916e-02	7.57554799e-04
5.90000000e-02	2.09676582e-02	7.91595152e-04
5.92500000e-02	2.01193775e-02	7.58974369e-04
5.95000000e-02	2.06109969e-02	7.71004337e-04
5.97500000e-02	2.01486622e-02	7.64418487e-04
6.00000000e-02	2.00681997e-02	7.51984515e-04
6.02500000e-02	2.03575787e-02	7.59825825e-04
6.05000000e-02	2.02894076e-02	7.58321819e-04
6.07500000e-02	2.01568657e-02	7.55504794e-04
6.10000000e-02	2.04648309e-02	7.61606836e-04
6.12500000e-02	2.07917470e-02	7.69510880e-04
6.15000000e-02	2.02089208e-02	7.54180487e-04
6.17500000e-02	2.00390413e-02	7.41437905e-04
6.20000000e-02	1.98101685e-02	7.31680350e-04
6.22500000e-02	1.98705281e-02	7.29558122e-04
6.25000000e-02	2.02339677e-02	7.45581469e-04
6.27500000e-02	2.00915204e-02	7.35051156e-04
6.30000000e-02	1.96205041e-02	7.20251991e-04
6.32500000e-02	1.98990578e-02	7.28530640e-04
6.35000000e-02	2.04070443e-02	7.51037725e-04
6.37500000e-02	2.05097315e-02	7.52591283e-04
6.40000000e-02	2.01603087e-02	7.41461581e-04
6.42500000e-02	1.98335378e-02	7.15179966e-04
6.45000000e-02	2.05978915e-02	7.45823618e-04
6.47500000e-02	2.07546384e-02	7.44391562e-04
6.50000000e-02	1.99377695e-02	7.22494469e-04
6.52500000e-02	2.03950742e-02	7.35677628e-04
6.55000000e-02	1.93935052e-02	7.04543263e-04
6.57500000e-02	2.06635792e-02	7.46004943e-04
6.60000000e-02	2.06910442e-02	7.42196125e-04
6.62500000e-02	2.02236631e-02	7.30019186e-04
6.65000000e-02	1.98324691e-02	7.10790966e-04
6.67500000e-02	2.04327281e-02	7.28721223e-04
6.70000000e-02	2.01342555e-02	7.19923883e-04
6.72500000e-02	1.96841724e-02	7.02315893e-04
6.75000000e-02	2.02569563e-02	7.15378383e-04
6.77500000e-02	2.00757214e-02	7.13015190e-04
6.80000000e-02	2.02386378e-02	7.24145171e-04
6.82500000e-02	1.99905510e-02	7.03723157e-04
6.85000000e-02	1.97070193e-02	7.01834002e-04
6.87500000e-02	1.98661525e-02	7.06154908e-04
6.90000000e-02	2.00747377e-02	7.05544225e-04
6.92500000e-02	2.01883732e-02	7.07770612e-04
6.95000000e-02	2.02699752e-02	7.09690737e-04
6.97500000e-02	1.98321882e-02	6.92937668e-04
7.00000000e-02	1.99026022e-02	7.03536479e-04
7.02500000e-02	1.98933128e-02	6.97188097e-04
7.05000000e-02	2.02137379e-02	7.05361939e-04
7.07500000e-02	1.97987505e-02	6.99826112e-04
7.10000000e-02	1.95654671e-02	6.81898752e-04
7.12500000e-02	1.98311712e-02	6.92889311e-04
7.15000000e-02	2.01346007e-02	6.95040064e-04
7.17500000e-02	1.97263175e-02	6.82105394e-04
7.20000000e-02	1.98460362e-02	6.90489969e-04
7.22500000e-02	1.91771151e-02	6.67898846e-04
7.25000000e-02	2.02336929e-02	7.02623437e-04
7.27500000e-02	2.00148365e-02	6.92405285e-04
7.30000000e-02	2.01146294e-02	6.94882356e-04
7.32500000e-02	2.01082261e-02	6.84286702e-04
7.35000000e-02	2.01850838e-02	6.96290257e-04
7.37500000e-02	2.03367061e-02	6.92730074e-04
7.40000000e-02	2.04364831e-02	6.94998286e-04
7.42500000e-02	2.02586020e-02	6.91364890e-04
7.45000000e-02	1.98467487e-02	6.76660012e-04
7.47500000e-02	1.96209575e-02	6.70824171e-04
7.50000000e-02	1.99680723e-02	6.86479681e-04
7.52500000e-02	1.96814516e-02	6.66703807e-04
7.55000000e-02	2.00782765e-02	6.77468771e-04
7.57500000e-02	1.95273121e-02	6.64419827e-04
7.60000000e-02	2.03217232e-02	6.87149681e-04
7.62500000e-02	1.97162039e-02	6.71127638e-04
7.65000000e-02	1.98177395e-02	6.69049070e-04
7.67500000e-02	2.03412128e-02	6.87059488e-04
7.70000000e-02	2.01264664e-02	6.74784167e-04
7.72500000e-02	1.99070236e-02	6.81483799e-04
7.75000000e-02	1.99675728e-02	6.89783902e-04
7.77500000e-02	2.02232513e-02	7.08411520e-04
7.80000000e-02	2.02149146e-02	6.99613134e-04
7.82500000e-02	1.97253585e-02	6.96804206e-04
7.85000000e-02	1.99114971e-02	7.07975038e-04
7.87500000e-02	1.96151180e-02	6.94135683e-04
7.90000000e-02	1.97751711e-02	6.95829210e-04
7.92500000e-02	1.98452185e-02	6.98376748e-04
7.95000000e-02	2.01541817e-02	7.19918734e-04
7.97500000e-02	1.96831607e-02	7.06631351e-04
8.00000000e-02	1.95475540e-02	6.90930284e-04
8.02500000e-02	1.98989818e-02	7.15066983e-04
8.05000000e-02	2.03608321e-02	7.27940969e-04
8.07500000e-02	2.00022691e-02	7.26652163e-04
8.10000000e-02	1.96892169e-02	7.09367866e-04
8.12500000e-02	1.91221679e-02	6.88717730e-04
8.15000000e-02	1.98566399e-02	7.19478984e-04
8.17500000e-02	1.98383482e-02	7.22281793e-04
8.20000000e-02	1.98175666e-02	7.24810726e-04
8.22500000e-02	1.95993184e-02	7.13258870e-04
8.25000000e-02	2.01250359e-02	7.37857987e-04
8.27500000e-02	1.98809296e-02	7.25387895e-04
8.30000000e-02	2.05551037e-02	7.52170246e-04
8.32500000e-02	2.01749707e-02	7.35860218e-04
8.35000000e-02	2.00849376e-02	7.36684048e-04
8.37500000e-02	1.94196913e-02	7.07284964e-04
8.40000000e-02	1.95509728e-02	7.18347797e-04
8.42500000e-02	1.94271658e-02	7.13892730e-04
8.45000000e-02	1.98339543e-02	7.37096635e-04
8.47500000e-02	1.98608336e-02	7.33640614e-04
8.50000000e-02	1.99220021e-02	7.33796483e-04
8.52500000e-02	1.96506193e-02	7.29102128e-04
8.55000000e-02	1.98508977e-02	7.28935014e-04
8.57500000e-02	2.00253569e-02	7.46706774e-04
8.60000000e-02	2.00364913e-02	7.42272048e-04
8.62500000e-02	1.97353726e-02	7.35593266e-04
8.65000000e-02	1.98062864e-02	7.30700819e-04
8.67500000e-02	1.94780122e-02	7.15220059e-04
8.70000000e-02	1.93829456e-02	7.12698805e-04
8.72500000e-02	2.07233106e-02	7.39372456e-04
8.75000000e-02	1.97070653e-02	6.95267417e-04
8.77500000e-02	1.98195274e-02	6.93131854e-04
8.80000000e-02	1.98041659e-02	6.93549282e-04
8.82500000e-02	2.01198960e-02	7.03739816e-04
8.85000000e-02	1.94492608e-02	6.80560524e-04
8.87500000e-02	1.98087802e-02	6.81398997e-04
8.90000000e-02	1.95989963e-02	6.77854162e-04
8.92500000e-02	1.98693220e-02	6.76954216e-04
8.95000000e-02	2.04001984e-02	6.99950506e-04
8.97500000e-02	1.95134497e-02	6.66763672e-04
9.00000000e-02	2.00204116e-02	6.78848674e-04
9.02500000e-02	1.96787321e-02	6.68460661e-04
9.05000000e-02	2.05513170e-02	6.98019433e-04
9.07500000e-02	1.97781803e-02	6.67023927e-04
9.10000000e-02	1.91892511e-02	6.47695191e-04
9.12500000e-02	1.94940470e-02	6.54317158e-04
9.15000000e-02	1.93906952e-02	6.57321762e-04
9.17500000e-02	2.01916992e-02	6.79614595e-04
9.20000000e-02	2.03138074e-02	6.75395541e-04
9.22500000e-02	1.97055822e-02	6.55283370e-04
9.25000000e-02	1.96285745e-02	6.50855650e-04
9.27500000e-02	1.89371781e-02	6.30154442e-04
9.30000000e-02	1.98792889e-02	6.60995939e-04
9.32500000e-02	1.97338493e-02	6.57954568e-04
9.35000000e-02	2.00018944e-02	6.52449678e-04
9.37500000e-02	1.98771378e-02	6.46468184e-04
9.40000000e-02	1.98155711e-02	6.53905069e-04
9.42500000e-02	2.00275163e-02	6.53335163e-04
9.45000000e-02	1.92689736e-02	6.30536772e-04
9.47500000e-02	1.94555781e-02	6.41091645e-04
9.50000000e-02	1.93628192e-02	6.38770445e-04
9.52500000e-02	1.92963132e-02	6.30399210e-04
9.55000000e-02	2.00816290e-02	6.48522522e-04
9.57500000e-02	1.99724733e-02	6.54512883e-04
9.60000000e-02	1.99100446e-02	6.40513801e-04
9.62500000e-02	1.94021143e-02	6.30301511e-04
9.65000000e-02	2.01970466e-02	6.48843687e-04
9.67500000e-02	2.02988390e-02	6.50406609e-04
9.70000000e-02	2.02165731e-02	6.48926366e-04
9.72500000e-02	1.96405025e-02	6.29456958e-04
9.75000000e-02	1.99072876e-02	6.40598765e-04
9.77500000e-02	1.98524708e-02	6.35174693e-04
9.80000000e-02	1.97697618e-02	6.29874008e-04
9.82500000e-02	1.98511519e-02	6.32652403e-04
9.85000000e-02	1.95780147e-02	6.24592674e-04
9.87500000e-02	1.99012744e-02	6.30125972e-04
9.90000000e-02	1.98171510e-02	6.33634154e-04
9.92500000e-02	1.99052245e-02	6.36038719e-04
9.95000000e-02	1.95265257e-02	6.20735080e-04
9.97500000e-02	1.94160667e-02	6.16164454e-04
1.00000000e-01	1.99333535e-02	5.10879241e-04
1.00500000e-01	1.96338349e-02	4.38924861e-04
1.01000000e-01	1.99139981e-02	4.39463350e-04
1.01500000e-01	1.97024323e-02	4.36875024e-04
1.02000000e-01	1.96554238e-02	4.34055308e-04
1.02500000e-01	1.98236340e-02	4.34859730e-04
1.03000000e-01	1.94559590e-02	4.27679248e-04
1.03500000e-01	1.95786307e-02	4.29708726e-04
1.04000000e-01	1.97612822e-02	4.30540505e-04
1.04500000e-01	1.99096413e-02	4.34531459e-04
1.05000000e-01	1.94943250e-02	4.24778843e-04
1.05500000e-01	1.96552328e-02	4.26165847e-04
1.06000000e-01	1.93308705e-02	4.18473316e-04
1.06500000e-01	1.97791510e-02	4.26794040e-04
1.07000000e-01	1.95449176e-02	4.27544884e-04
1.07500000e-01	1.98029952e-02	4.38810541e-04
1.08000000e-01	1.97353430e-02	4.41829751e-04
1.08500000e-01	1.93673582e-02	4.40683312e-04
1.09000000e-01	1.95816513e-02	4.43483775e-04
1.09500000e-01	1.99933205e-02	4.56355493e-04
1.10000000e-01	1.96841726e-02	4.44675457e-04
1.10500000e-01	1.95564586e-02	4.29333153e-04
1.11000000e-01	1.95876515e-02	4.25638983e-04
1.11500000e-01	1.99436695e-02	4.31237640e-04
1.12000000e-01	1.93146632e-02	4.12921756e-04
1.12500000e-01	1.95808977e-02	4.16911398e-04
1.13000000e-01	1.98292134e-02	4.21478580e-04
1.13500000e-01	1.99052513e-02	4.18791543e-04
1.14000000e-01	1.97460165e-02	4.16905613e-04
1.14500000e-01	1.97625147e-02	4.12877437e-04
1.15000000e-01	1.99476385e-02	4.17784732e-04
1.15500000e-01	1.95255569e-02	4.07912763e-04
1.16000000e-01	1.99291068e-02	4.15649292e-04
1.16500000e-01	1.97113614e-02	4.10341678e-04
1.17000000e-01	1.95345815e-02	4.03748089e-04
1.17500000e-01	1.97232923e-02	4.06802719e-04
1.18000000e-01	1.96330307e-02	4.04190833e-04
1.18500000e-01	1.99900470e-02	4.09151324e-04
1.19000000e-01	1.95578862e-02	4.02039028e-04
1.19500000e-01	1.97507675e-02	4.05526221e-04
1.20000000e-01	1.91557875e-02	3.90859728e-04
1.20500000e-01	2.00250830e-02	4.08074285e-04
1.21000000e-01	1.92993768e-02	3.92932879e-04
1.21500000e-01	1.95826612e-02	3.96965911e-04
1.22000000e-01	1.97081928e-02	3.98551399e-04
1.22500000e-01	1.98371585e-02	3.98000136e-04
1.23000000e-01	1.95422430e-02	3.92501165e-04
1.23500000e-01	1.93964653e-02	3.91670829e-04
1.24000000e-01	1.97021275e-02	3.95963748e-04
1.24500000e-01	1.99231388e-02	3.96987084e-04
1.25000000e-01	1.95770706e-02	3.92228273e-04
1.25500000e-01	1.95163977e-02	3.88258680e-04
1.26000000e-01	1.97728546e-02	3.93709753e-04
1.26500000e-01	1.95941982e-02	3.89682887e-04
1.27000000e-01	1.95729309e-02	3.86642648e-04
1.27500000e-01	1.95324117e-02	3.84789363e-04
1.28000000e-01	2.00850534e-02	3.92830934e-04
1.28500000e-01	1.96135566e-02	3.86369481e-04
1.29000000e-01	1.96332361e-02	3.83862389e-04
1.29500000e-01	1.97861548e-02	3.89065952e-04
1.30000000e-01	1.96666427e-02	3.84445329e-04
1.30500000e-01	1.98806527e-02	3.86180876e-04
1.31000000e-01	1.97216306e-02	3.82159655e-04
1.31500000e-01	1.95491581e-02	3.80669336e-04
1.32000000e-01	1.93599822e-02	3.77703771e-04
1.32500000e-01	1.96468241e-02	3.78201889e-04
1.33000000e-01	1.96657363e-02	3.79375880e-04
1.33500000e-01	1.93129371e-02	3.69335934e-04
1.34000000e-01	1.94231043e-02	3.73462060e-04
1.34500000e-01	1.96340007e-02	3.72547660e-04
1.35000000e-01	1.94704673e-02	3.71426484e-04
1.35500000e-01	1.96985381e-02	3.74355290e-04
1.36000000e-01	1.97597606e-02	3.74238390e-04
1.36500000e-01	1.94797606e-02	3.71040409e-04
1.37000000e-01	1.96182020e-02	3.71010546e-04
1.37500000e-01	1.95009552e-02	3.68649647e-04
1.38000000e-01	1.95448588e-02	3.69945671e-04
1.38500000e-01	1.98599930e-02	3.74877016e-04
1.39000000e-01	1.96089610e-02	3.69868612e-04
1.39500000e-01	1.99482553e-02	3.75681667e-04
1.40000000e-01	1.95285227e-02	3.68157278e-04
1.40500000e-01	1.94519550e-02	3.66079563e-04
1.41000000e-01	1.92763082e-02	3.62624849e-04
1.41500000e-01	1.97217408e-02	3.69330300e-04
1.42000000e-01	1.95674950e-02	3.65313466e-04
1.42500000e-01	1.94014139e-02	3.64164164e-04
1.43000000e-01	1.96765927e-02	3.68552627e-04
1.43500000e-01	1.94441118e-02	3.61125863e-04
1.44000000e-01	1.95741795e-02	3.63261987e-04
1.44500000e-01	1.94805668e-02	3.60606204e-04
1.45000000e-01	1.95041928e-02	3.61336276e-04
1.45500000e-01	1.94805267e-02	3.59450882e-04
1.46000000e-01	1.90866145e-02	3.52299999e-04
1.46500000e-01	1.94326814e-02	3.59537329e-04
1.47000000e-01	1.95349290e-02	3.58879406e-04
1.47500000e-01	1.97034464e-02	3.62327320e-04
1.48000000e-01	1.91257856e-02	3.52157864e-04
1.48500000e-01	1.92914802e-02	3.51946092e-04
1.49000000e-01	1.91316721e-02	3.49469057e-04
1.49500000e-01	1.95132786e-02	3.57973035e-04
1.50000000e-01	1.93480268e-02	3.53002983e-04
1.50500000e-01	1.93956966e-02	3.54769424e-04
1.51000000e-01	1.93782698e-02	3.50755003e-04
1.51500000e-01	1.92411229e-02	3.47248204e-04
1.52000000e-01	1.95137877e-02	3.50350754e-04
1.52500000e-01	1.93597174e-02	3.49220331e-04
1.53000000e-01	1.93726646e-02	3.49844486e-04
1.53500000e-01	1.95005168e-02	3.50448263e-04
1.54000000e-01	1.94662854e-02	3.48115714e-04
1.54500000e-01	1.92483992e-02	3.52938634e-04
1.55000000e-01	1.90274347e-02	3.52792427e-04
1.55500000e-01	1.91681288e-02	3.57812811e-04
1.56000000e-01	1.91558670e-02	3.58972568e-04
1.56500000e-01	1.92355625e-02	3.61121098e-04
1.57000000e-01	1.91093784e-02	3.58891397e-04
1.57500000e-01	1.89294259e-02	3.51681286e-04
1.58000000e-01	1.90016724e-02	3.45062719e-04
1.58500000e-01	1.91684035e-02	3.46182310e-04
1.59000000e-01	1.93950366e-02	3.46378823e-04
1.59500000e-01	1.90842018e-02	3.43993494e-04
1.60000000e-01	1.90279033e-02	3.40091837e-04
1.60500000e-01	1.88551218e-02	3.37505308e-04
1.61000000e-01	1.91221864e-02	3.41097982e-04
1.61500000e-01	1.90112043e-02	3.36184273e-04
1.62000000e-01	1.90600794e-02	3.37478798e-04
1.62500000e-01	1.92065137e-02	3.39979872e-04
1.63000000e-01	1.91544508e-02	3.37267182e-04
1.63500000e-01	1.92006398e-02	3.41336552e-04
1.64000000e-01	1.91875739e-02	3.35526760e-04
1.64500000e-01	1.89805623e-02	3.35085765e-04
1.65000000e-01	1.89631986e-02	3.32439468e-04
1.65500000e-01	1.89460599e-02	3.31455761e-04
1.66000000e-01	1.89558129e-02	3.32737782e-04
1.66500000e-01	1.90881089e-02	3.32957115e-04
1.67000000e-01	1.90932423e-02	3.33496157e-04
1.67500000e-01	1.90203503e-02	3.30697142e-04
1.68000000e-01	1.90117985e-02	3.31874700e-04
1.68500000e-01	1.91716408e-02	3.32755520e-04
1.69000000e-01	1.89365238e-02	3.28223120e-04
1.69500000e-01	1.88168252e-02	3.25315253e-04
1.70000000e-01	1.93418013e-02	3.33579048e-04
1.70500000e-01	1.88545253e-02	3.24982632e-04
1.71000000e-01	1.86097369e-02	3.20179016e-04
1.71500000e-01	1.90755280e-02	3.28619381e-04
1.72000000e-01	1.89526651e-02	3.24948135e-04
1.72500000e-01	1.88294157e-02	3.22662175e-04
1.73000000e-01	1.90499403e-02	3.25339839e-04
1.73500000e-01	1.88133833e-02	3.20117603e-04
1.74000000e-01	1.86406148e-02	3.19340677e-04
1.74500000e-01	1.87545557e-02	3.16884445e-04
1.75000000e-01	1.87841279e-02	3.17663646e-04
1.75500000e-01	1.88137591e-02	3.17439649e-04
1.76000000e-01	1.90661849e-02	3.20170356e-04
1.76500000e-01	1.86270568e-02	3.14443300e-04
1.77000000e-01	1.87766875e-02	3.15563335e-04
1.77500000e-01	1.87723455e-02	3.17160081e-04
1.78000000e-01	1.88429931e-02	3.16322308e-04
1.78500000e-01	1.87121669e-02	3.15610900e-04
1.79000000e-01	1.87990299e-02	3.16630231e-04
1.79500000e-01	1.87216815e-02	3.14000347e-04
1.80000000e-01	1.82938282e-02	3.07921477e-04
1.80500000e-01	1.87728818e-02	3.13970503e-04
1.81000000e-01	1.85039927e-02	3.10849787e-04
1.81500000e-01	1.85823591e-02	3.11213430e-04
1.82000000e-01	1.87728319e-02	3.15208400e-04
1.82500000e-01	1.86252116e-02	3.09966921e-04
1.83000000e-01	1.86679420e-02	3.11121896e-04
1.83500000e-01	1.86284554e-02	3.09317689e-04
1.84000000e-01	1.86912240e-02	3.09918953e-04
1.84500000e-01	1.89539979e-02	3.14283081e-04
1.85000000e-01	1.87220130e-02	3.10906932e-04
1.85500000e-01	1.86776270e-02	3.09438164e-04
1.86000000e-01	1.86356113e-02	3.07132433e-04
1.86500000e-01	1.84288117e-02	3.03511257e-04
1.87000000e-01	1.85536993e-02	3.04655174e-04
1.87500000e-01	1.86046603e-02	3.06461358e-04
1.88000000e-01	1.85010523e-02	3.04181232e-04
1.88500000e-01	1.86300754e-02	3.05106870e-04
1.89000000e-01	1.85250463e-02	3.03436300e-04
1.89500000e-01	1.85724536e-02	3.03832221e-04
1.90000000e-01	1.86374367e-02	3.03795250e-04
1.90500000e-01	1.86812783e-02	3.04697851e-04
1.91000000e-01	1.84486258e-02	3.00547871e-04
1.91500000e-01	1.83905744e-02	2.99237321e-04
1.92000000e-01	1.84774881e-02	3.00811442e-04
1.92500000e-01	1.85589020e-02	3.00642129e-04
1.93000000e-01	1.83156297e-02	2.98056374e-04
1.93500000e-01	1.83107348e-02	2.97453805e-04
1.94000000e-01	1.84967495e-02	3.00210977e-04
1.94500000e-01	1.84253818e-02	2.97984690e-04
1.95000000e-01	1.79487165e-02	2.90768727e-04
1.95500000e-01	1.83732557e-02	2.95873306e-04
1.96000000e-01	1.83332083e-02	2.95194519e-04
1.96500000e-01	1.85050554e-02	2.97172398e-04
1.97000000e-01	1.86133724e-02	2.98742485e-04
1.97500000e-01	1.82569644e-02	2.93907295e-04
1.98000000e-01	1.85270398e-02	2.97198441e-04
1.98500000e-01	1.84671878e-02	2.95079268e-04
1.99000000e-01	1.84123414e-02	2.94195008e-04
1.99500000e-01	1.84083779e-02	2.93238095e-04
2.00000000e-01	1.83246990e-02	2.92076644e-04
2.00500000e-01	1.84823442e-02	2.94480565e-04
2.01000000e-01	1.81130764e-02	2.89647142e-04
2.01500000e-01	1.83235362e-02	2.91446373e-04
2.02000000e-01	1.80447556e-02	2.87875179e-04
2.02500000e-01	1.81678523e-02	2.88366681e-04
2.03000000e-01	1.83886023e-02	2.92097893e-04
2.03500000e-01	1.83705592e-02	2.91170329e-04
2.04000000e-01	1.82718039e-02	2.88504065e-04
2.04500000e-01	1.80647099e-02	2.85710438e-04
2.05000000e-01	1.84251502e-02	2.89271964e-04
2.05500000e-01	1.82992390e-02	2.87697838e-04
2.06000000e-01	1.79480789e-02	2.82293176e-04
2.06500000e-01	1.81963943e-02	2.85699124e-04
2.07000000e-01	1.81391819e-02	2.83520583e-04
2.07500000e-01	1.83042594e-02	2.85926836e-04
2.08000000e-01	1.79521066e-02	2.82537258e-04
2.08500000e-01	1.79638646e-02	2.80553718e-04
2.09000000e-01	1.81556673e-02	2.83194239e-04
2.09500000e-01	1.83051637e-02	2.86145184e-04
2.10000000e-01	1.80328948e-02	2.82327457e-04
2.10500000e-01	1.81297986e-02	2.83465554e-04
2.11000000e-01	1.81307321e-02	2.80866166e-04
2.11500000e-01	1.82148480e-02	2.82996186e-04
2.12000000e-01	1.78747605e-02	2.77204749e-04
2.12500000e-01	1.81108521e-02	2.81023089e-04
2.13000000e-01	1.80085619e-02	2.78362482e-04
2.13500000e-01	1.78862428e-02	2.76828437e-04
2.14000000e-01	1.82313045e-02	2.81173151e-04
2.14500000e-01	1.81103895e-02	2.78792154e-04
2.15000000e-01	1.80167768e-02	2.78708054e-04
2.15500000e-01	1.79548001e-02	2.76451386e-04
2.16000000e-01	1.82747162e-02	2.80714326e-04
2.16500000e-01	1.79553729e-02	2.76492317e-04
2.17000000e-01	1.79410951e-02	2.79441924e-04
2.17500000e-01	1.83766751e-02	2.89905724e-04
2.18000000e-01	1.79850909e-02	2.85005404e-04
2.18500000e-01	1.82874482e-02	2.92505385e-04
2.19000000e-01	1.80452859e-02	2.89657686e-04
2.19500000e-01	1.81286844e-02	2.90981782e-04
2.20000000e-01	1.79007468e-02	2.89815688e-04
2.20500000e-01	1.79088129e-02	2.90346664e-04
2.21000000e-01	1.79857790e-02	2.91580773e-04
2.21500000e-01	1.80717162e-02	2.94882726e-04
2.22000000e-01	1.80017368e-02	2.93765690e-04
2.22500000e-01	1.79384293e-02	2.93761388e-04
2.23000000e-01	1.82487984e-02	2.98500814e-04
2.23500000e-01	1.79921217e-02	2.96865416e-04
2.24000000e-01	1.80832149e-02	2.96159689e-04
2.24500000e-01	1.79284930e-02	2.96480134e-04
2.25000000e-01	1.79351433e-02	2.97796346e-04
2.25500000e-01	1.80170317e-02	2.99233616e-04
2.26000000e-01	1.76774592e-02	2.93214118e-04
2.26500000e-01	1.79911612e-02	2.93378883e-04
2.27000000e-01	1.81079432e-02	2.94458085e-04
2.27500000e-01	1.79644855e-02	2.88750689e-04
2.28000000e-01	1.79140517e-02	2.87402151e-04
2.28500000e-01	1.79334582e-02	2.84773302e-04
2.29000000e-01	1.80690831e-02	2.85373891e-04
2.29500000e-01	1.78976674e-02	2.81771484e-04
2.30000000e-01	1.79672300e-02	2.81948156e-04
2.30500000e-01	1.78212521e-02	2.79172918e-04
2.31000000e-01	1.78779894e-02	2.80004652e-04
2.31500000e-01	1.77571897e-02	2.76427661e-04
2.32000000e-01	1.78578995e-02	2.79348885e-04
2.32500000e-01	1.78603931e-02	2.77560673e-04
2.33000000e-01	1.76956190e-02	2.75646655e-04
2.33500000e-01	1.77584042e-02	2.74297961e-04
2.34000000e-01	1.76748348e-02	2.72735856e-04
2.34500000e-01	1.80014108e-02	2.75879642e-04
2.35000000e-01	1.79223779e-02	2.76220817e-04
2.35500000e-01	1.76173240e-02	2.70514088e-04
2.36000000e-01	1.77176052e-02	2.71769355e-04
2.36500000e-01	1.76658138e-02	2.71632069e-04
2.37000000e-01	1.74832466e-02	2.67659493e-04
2.37500000e-01	1.78034178e-02	2.71675246e-04
2.38000000e-01	1.77257230e-02	2.69574082e-04
2.38500000e-01	1.76939983e-02	2.69101670e-04
2.39000000e-01	1.76472935e-02	2.68193066e-04
2.39500000e-01	1.78699331e-02	2.71060722e-04
2.40000000e-01	1.76767542e-02	2.66777663e-04
2.40500000e-01	1.77127776e-02	2.66370076e-04
2.41000000e-01	1.76656285e-02	2.66742072e-04
2.41500000e-01	1.77161373e-02	2.65264992e-04
2.42000000e-01	1.75101033e-02	2.62787717e-04
2.42500000e-01	1.76710205e-02	2.63525536e-04
2.43000000e-01	1.77665144e-02	2.64660175e-04
2.43500000e-01	1.75757519e-02	2.63171110e-04
2.44000000e-01	1.76342351e-02	2.63163317e-04
2.44500000e-01	1.72629309e-02	2.57220846e-04
2.45000000e-01	1.77183100e-02	2.63020180e-04
2.45500000e-01	1.75960359e-02	2.61639460e-04
2.46000000e-01	1.77329418e-02	2.63613193e-04
2.46500000e-01	1.75378949e-02	2.59811581e-04
2.47000000e-01	1.75724795e-02	2.61270265e-04
2.47500000e-01	1.76272883e-02	2.60402067e-04
2.48000000e-01	1.74811192e-02	2.58172615e-04
2.48500000e-01	1.75340797e-02	2.58923255e-04
2.49000000e-01	1.75680884e-02	2.58680388e-04
2.49500000e-01	1.74852050e-02	2.58596688e-04
2.50000000e-01	1.73837556e-02	2.55694188e-04
2.50500000e-01	1.72801740e-02	2.55840053e-04
2.51000000e-01	1.75271488e-02	2.56478481e-04
2.51500000e-01	1.73532713e-02	2.54626705e-04
2.52000000e-01	1.74159238e-02	2.55759017e-04
2.52500000e-01	1.74983973e-02	2.55386579e-04
2.53000000e-01	1.74579369e-02	2.54954908e-04
2.53500000e-01	1.72446881e-02	2.52535075e-04
2.54000000e-01	1.73610976e-02	2.54431300e-04
2.54500000e-01	1.75082396e-02	2.55144337e-04
2.55000000e-01	1.75934902e-02	2.55439661e-04
2.55500000e-01	1.74107102e-02	2.53549372e-04
2.56000000e-01	1.73966266e-02	2.53050459e-04
2.56500000e-01	1.72790840e-02	2.51264825e-04
2.57000000e-01	1.74083945e-02	2.51871641e-04
2.57500000e-01	1.73369745e-02	2.50391646e-04
2.58000000e-01	1.71828990e-02	2.49315534e-04
2.58500000e-01	1.73850330e-02	2.51933359e-04
2.59000000e-01	1.72576524e-02	2.49186447e-04
2.59500000e-01	1.71905914e-02	2.47388837e-04
2.60000000e-01	1.74061281e-02	2.50057551e-04
2.60500000e-01	1.72275772e-02	2.47866567e-04
2.61000000e-01	1.73847761e-02	2.49946672e-04
2.61500000e-01	1.71693691e-02	2.47355799e-04
2.62000000e-01	1.72036477e-02	2.46312909e-04
2.62500000e-01	1.73013912e-02	2.48311910e-04
2.63000000e-01	1.72828989e-02	2.47989555e-04
2.63500000e-01	1.71772350e-02	2.44626534e-04
2.64000000e-01	1.69979653e-02	2.43715185e-04
2.64500000e-01	1.74412969e-02	2.47964164e-04
2.65000000e-01	1.72460469e-02	2.46011432e-04
2.65500000e-01	1.71998778e-02	2.45282044e-04
2.66000000e-01	1.71956939e-02	2.44620470e-04
2.66500000e-01	1.74161268e-02	2.47302764e-04
2.67000000e-01	1.71325074e-02	2.43434705e-04
2.67500000e-01	1.71951153e-02	2.42717646e-04
2.68000000e-01	1.70455784e-02	2.41611334e-04
2.68500000e-01	1.71431493e-02	2.42806620e-04
2.69000000e-01	1.71588830e-02	2.42135109e-04
2.69500000e-01	1.70046947e-02	2.40364261e-04
2.70000000e-01	1.73978920e-02	2.44829749e-04
2.70500000e-01	1.71402420e-02	2.41188446e-04
2.71000000e-01	1.72532415e-02	2.43203952e-04
2.71500000e-01	1.73218478e-02	2.43684835e-04
2.72000000e-01	1.69124630e-02	2.36232890e-04
2.72500000e-01	1.73335081e-02	2.42896844e-04
2.73000000e-01	1.70479925e-02	2.38824931e-04
2.73500000e-01	1.70713010e-02	2.38791240e-04
2.74000000e-01	1.72107561e-02	2.40856640e-04
2.74500000e-01	1.70904936e-02	2.38373381e-04
2.75000000e-01	1.69764830e-02	2.37755602e-04
2.75500000e-01	1.71054594e-02	2.38660026e-04
2.76000000e-01	1.68811060e-02	2.35232071e-04
2.76500000e-01	1.70929813e-02	2.37958401e-04
2.77000000e-01	1.69893986e-02	2.36143919e-04
2.77500000e-01	1.73471538e-02	2.41223064e-04
2.78000000e-01	1.68227326e-02	2.34020240e-04
2.78500000e-01	1.70130176e-02	2.36827498e-04
2.79000000e-01	1.69481094e-02	2.35147020e-04
2.79500000e-01	1.70169009e-02	2.36791512e-04
2.80000000e-01	1.70700249e-02	2.37201217e-04
2.80500000e-01	1.71007824e-02	2.35755845e-04
2.81000000e-01	1.68970724e-02	2.34126513e-04
2.81500000e-01	1.70525014e-02	2.35516953e-04
2.82000000e-01	1.69326782e-02	2.34040187e-04
2.82500000e-01	1.69451809e-02	2.35699738e-04
2.83000000e-01	1.69753931e-02	2.33786910e-04
2.83500000e-01	1.70142868e-02	2.34034657e-04
2.84000000e-01	1.70089087e-02	2.33911302e-04
2.84500000e-01	1.69566931e-02	2.32642424e-04
2.85000000e-01	1.71115094e-02	2.35268043e-04
2.85500000e-01	1.69574100e-02	2.31872348e-04
2.86000000e-01	1.68152797e-02	2.31267900e-04
2.86500000e-01	1.70317176e-02	2.32594871e-04
2.87000000e-01	1.68298256e-02	2.30934726e-04
2.87500000e-01	1.69959991e-02	2.30940590e-04
2.88000000e-01	1.68506316e-02	2.29256734e-04
2.88500000e-01	1.70876885e-02	2.32654024e-04
2.89000000e-01	1.68084769e-02	2.28752350e-04
2.89500000e-01	1.68123869e-02	2.28124476e-04
2.90000000e-01	1.69059848e-02	2.30336034e-04
2.90500000e-01	1.69044573e-02	2.30235640e-04
2.91000000e-01	1.69104257e-02	2.29471436e-04
2.91500000e-01	1.69455627e-02	2.29322223e-04
2.92000000e-01	1.69152888e-02	2.28319533e-04
2.92500000e-01	1.67710722e-02	2.26057104e-04
2.93000000e-01	1.68242590e-02	2.27540267e-04
2.93500000e-01	1.67931458e-02	2.26872099e-04
2.94000000e-01	1.68951611e-02	2.26766008e-04
2.94500000e-01	1.68308086e-02	2.27521767e-04
2.95000000e-01	1.67046493e-02	2.24982369e-04
2.95500000e-01	1.66352520e-02	2.24693317e-04
2.96000000e-01	1.68320197e-02	2.25974607e-04
2.96500000e-01	1.66821149e-02	2.23590521e-04
2.97000000e-01	1.66609936e-02	2.24645584e-04
2.97500000e-01	1.69406049e-02	2.27176272e-04
2.98000000e-01	1.66634199e-02	2.23820269e-04
2.98500000e-01	1.68214262e-02	2.25558808e-04
2.99000000e-01	1.67460548e-02	2.23818293e-04
2.99500000e-01	1.66215312e-02	2.22916906e-04
3.00000000e-01	1.68380649e-02	2.24358893e-04
3.00500000e-01	1.68951421e-02	2.25582766e-04
3.01000000e-01	1.67569073e-02	2.23800922e-04
3.01500000e-01	1.68535705e-02	2.24816586e-04
3.02000000e-01	1.67231402e-02	2.22463597e-04
3.02500000e-01	1.66191237e-02	2.21086208e-04
3.03000000e-01	1.66600429e-02	2.21840831e-04
3.03500000e-01	1.66859296e-02	2.21163136e-04
3.04000000e-01	1.66073134e-02	2.21350779e-04
3.04500000e-01	1.68075985e-02	2.22769065e-04
3.05000000e-01	1.65167280e-02	2.19308970e-04
3.05500000e-01	1.66328945e-02	2.20914079e-04
3.06000000e-01	1.64863469e-02	2.17712115e-04
3.06500000e-01	1.66283331e-02	2.19722690e-04
3.07000000e-01	1.65761822e-02	2.18707174e-04
3.07500000e-01	1.65514765e-02	2.18408523e-04
3.08000000e-01	1.65539900e-02	2.19065285e-04
3.08500000e-01	1.69224728e-02	2.22378502e-04
3.09000000e-01	1.64188750e-02	2.16408413e-04
3.09500000e-01	1.66529930e-02	2.18731938e-04
3.10000000e-01	1.65211381e-02	2.17744803e-04
3.10500000e-01	1.66631782e-02	2.19939826e-04
3.11000000e-01	1.66995710e-02	2.19265484e-04
3.11500000e-01	1.65410195e-02	2.17325430e-04
3.12000000e-01	1.65031315e-02	2.16802250e-04
3.12500000e-01	1.66008591e-02	2.17106606e-04
3.13000000e-01	1.65814832e-02	2.17083142e-04
3.13500000e-01	1.63975874e-02	2.14632282e-04
3.14000000e-01	1.67667207e-02	2.19174496e-04
3.14500000e-01	1.63370655e-02	2.12850735e-04
3.15000000e-01	1.62791905e-02	2.13022743e-04
3.15500000e-01	1.64064839e-02	2.14505051e-04
3.16000000e-01	1.65500465e-02	2.16017831e-04
3.16500000e-01	1.64218772e-02	2.13637287e-04
3.17000000e-01	1.64405078e-02	2.14123574e-04
3.17500000e-01	1.62969344e-02	2.13345293e-04
3.18000000e-01	1.64342291e-02	2.13724306e-04
3.18500000e-01	1.63300422e-02	2.11701945e-04
3.19000000e-01	1.65225119e-02	2.13977227e-04
3.19500000e-01	1.62793380e-02	2.10966276e-04
3.20000000e-01	1.63152366e-02	2.12002690e-04
3.20500000e-01	1.63914255e-02	2.12453480e-04
3.21000000e-01	1.64365916e-02	2.11927778e-04
3.21500000e-01	1.66170963e-02	2.15386965e-04
3.22000000e-01	1.62755041e-02	2.10240499e-04
3.22500000e-01	1.62611867e-02	2.09762504e-04
3.23000000e-01	1.62943012e-02	2.10082318e-04
3.23500000e-01	1.63398919e-02	2.10950695e-04
3.24000000e-01	1.64907353e-02	2.11620925e-04
3.24500000e-01	1.60915921e-02	2.08178876e-04
3.25000000e-01	1.63366646e-02	2.09724909e-04
3.25500000e-01	1.64162126e-02	2.10635118e-04
3.26000000e-01	1.62551788e-02	2.08600435e-04
3.26500000e-01	1.63021629e-02	2.09331348e-04
3.27000000e-01	1.62579878e-02	2.08461781e-04
3.27500000e-01	1.61774110e-02	2.07669285e-04
3.28000000e-01	1.60868926e-02	2.06324411e-04
3.28500000e-01	1.63168091e-02	2.08508517e-04
3.29000000e-01	1.62322512e-02	2.07645565e-04
3.29500000e-01	1.61375780e-02	2.07148908e-04
3.30000000e-01	1.62977346e-02	2.07889308e-04
3.30500000e-01	1.63404109e-02	2.08875409e-04
3.31000000e-01	1.62236858e-02	2.06799656e-04
3.31500000e-01	1.61825714e-02	2.06113221e-04
3.32000000e-01	1.61290374e-02	2.05623656e-04
3.32500000e-01	1.62021870e-02	2.05781473e-04
3.33000000e-01	1.63158588e-02	2.07786545e-04
3.33500000e-01	1.60723169e-02	2.04216854e-04
3.34000000e-01	1.63339022e-02	2.07383067e-04
3.34500000e-01	1.61343039e-02	2.04911289e-04
3.35000000e-01	1.58507014e-02	2.00803099e-04
3.35500000e-01	1.61429058e-02	2.04501149e-04
3.36000000e-01	1.59996048e-02	2.01783175e-04
3.36500000e-01	1.61106900e-02	2.04013049e-04
3.37000000e-01	1.62041392e-02	2.04173692e-04
3.37500000e-01	1.60968304e-02	2.03987540e-04
3.38000000e-01	1.61595342e-02	2.04160074e-04
3.38500000e-01	1.59745004e-02	2.01465129e-04
3.39000000e-01	1.60642344e-02	2.02753123e-04
3.39500000e-01	1.60746015e-02	2.02737371e-04
3.40000000e-01	1.59612948e-02	2.01008564e-04
3.40500000e-01	1.60182861e-02	2.01320733e-04
3.41000000e-01	1.59709030e-02	2.00888913e-04
3.41500000e-01	1.60265037e-02	2.01196068e-04
3.42000000e-01	1.57940851e-02	1.98801757e-04
3.42500000e-01	1.60925952e-02	2.01537593e-04
3.43000000e-01	1.61030383e-02	2.01891881e-04
3.43500000e-01	1.61441797e-02	2.02052820e-04
3.44000000e-01	1.60754517e-02	2.01280969e-04
3.44500000e-01	1.60367976e-02	2.01228936e-04
3.45000000e-01	1.60028749e-02	2.00129213e-04
3.45500000e-01	1.60180816e-02	1.99751456e-04
3.46000000e-01	1.59496059e-02	1.99760528e-04
3.46500000e-01	1.60481912e-02	1.99491173e-04
3.47000000e-01	1.59884579e-02	1.99131420e-04
3.47500000e-01	1.59608043e-02	1.98368854e-04
3.48000000e-01	1.58686259e-02	1.97636066e-04
3.48500000e-01	1.57852896e-02	1.96328005e-04
3.49000000e-01	1.59518948e-02	1.97828421e-04
3.49500000e-01	1.58337105e-02	1.96098010e-04
3.50000000e-01	1.59190254e-02	1.61265780e-04
3.51000000e-01	1.58593611e-02	1.38984069e-04
3.52000000e-01	1.58825282e-02	1.39398976e-04
3.53000000e-01	1.58450413e-02	1.38128264e-04
3.54000000e-01	1.58465713e-02	1.37942495e-04
3.55000000e-01	1.57479481e-02	1.37486515e-04
3.56000000e-01	1.57130229e-02	1.37734980e-04
3.57000000e-01	1.57827386e-02	1.40548135e-04
3.58000000e-01	1.58225416e-02	1.42173324e-04
3.59000000e-01	1.54563739e-02	1.40046067e-04
3.60000000e-01	1.57164156e-02	1.43331404e-04
3.61000000e-01	1.55498748e-02	1.42229449e-04
3.62000000e-01	1.55347176e-02	1.43068385e-04
3.63000000e-01	1.55065164e-02	1.43007743e-04
3.64000000e-01	1.56769969e-02	1.45439244e-04
3.65000000e-01	1.55353437e-02	1.44262817e-04
3.66000000e-01	1.54098571e-02	1.41814346e-04
3.67000000e-01	1.54358834e-02	1.40016428e-04
3.68000000e-01	1.55635793e-02	1.40028770e-04
3.69000000e-01	1.55649873e-02	1.39205134e-04
3.70000000e-01	1.55522079e-02	1.38600729e-04
3.71000000e-01	1.54531059e-02	1.39544935e-04
3.72000000e-01	1.55220682e-02	1.41130384e-04
3.73000000e-01	1.54576621e-02	1.40408137e-04
3.74000000e-01	1.54318506e-02	1.40693535e-04
3.75000000e-01	1.55511603e-02	1.41894535e-04
3.76000000e-01	1.54662932e-02	1.41078341e-04
3.77000000e-01	1.56248205e-02	1.42244281e-04
3.78000000e-01	1.54156135e-02	1.40431301e-04
3.79000000e-01	1.53831340e-02	1.39737465e-04
3.80000000e-01	1.53910312e-02	1.39498403e-04
3.81000000e-01	1.54219277e-02	1.40269882e-04
3.82000000e-01	1.52887035e-02	1.39138524e-04
3.83000000e-01	1.53344559e-02	1.39101434e-04
3.84000000e-01	1.54856395e-02	1.40938146e-04
3.85000000e-01	1.53886619e-02	1.40082194e-04
3.86000000e-01	1.53403900e-02	1.39341347e-04
3.87000000e-01	1.53633558e-02	1.39454825e-04
3.88000000e-01	1.54185594e-02	1.39732375e-04
3.89000000e-01	1.52607916e-02	1.38271492e-04
3.90000000e-01	1.53079875e-02	1.39096487e-04
3.91000000e-01	1.52655524e-02	1.38456144e-04
3.92000000e-01	1.52300397e-02	1.38139313e-04
3.93000000e-01	1.52222865e-02	1.38156933e-04
3.94000000e-01	1.53670285e-02	1.39093347e-04
3.95000000e-01	1.53105133e-02	1.38694854e-04
3.96000000e-01	1.52684897e-02	1.38501022e-04
3.97000000e-01	1.52097437e-02	1.38197214e-04
3.98000000e-01	1.52673383e-02	1.38399900e-04
3.99000000e-01	1.52498849e-02	1.38222977e-04
4.00000000e-01	1.52052775e-02	1.38314774e-04
4.01000000e-01	1.51377805e-02	1.37300985e-04
4.02000000e-01	1.50473144e-02	1.36260447e-04
4.03000000e-01	1.51267347e-02	1.36605795e-04
4.04000000e-01	1.51831574e-02	1.37355965e-04
4.05000000e-01	1.51993618e-02	1.37637969e-04
4.06000000e-01	1.50118151e-02	1.35869385e-04
4.07000000e-01	1.50073592e-02	1.35743096e-04
4.08000000e-01	1.50350175e-02	1.35890072e-04
4.09000000e-01	1.50241153e-02	1.35828541e-04
4.10000000e-01	1.49496358e-02	1.35464201e-04
4.11000000e-01	1.49386483e-02	1.35369118e-04
4.12000000e-01	1.50986628e-02	1.36341390e-04
4.13000000e-01	1.50098661e-02	1.35380034e-04
4.14000000e-01	1.51003370e-02	1.36398815e-04
4.15000000e-01	1.47958498e-02	1.33762861e-04
4.16000000e-01	1.49469233e-02	1.34839202e-04
4.17000000e-01	1.48872151e-02	1.34726362e-04
4.18000000e-01	1.50407289e-02	1.37176968e-04
4.19000000e-01	1.49363296e-02	1.38290770e-04
4.20000000e-01	1.49808684e-02	1.39013702e-04
4.21000000e-01	1.50169108e-02	1.39712596e-04
4.22000000e-01	1.48951570e-02	1.39461763e-04
4.23000000e-01	1.49346101e-02	1.39991429e-04
4.24000000e-01	1.50002568e-02	1.41425744e-04
4.25000000e-01	1.49645755e-02	1.40879198e-04
4.26000000e-01	1.50077011e-02	1.41231139e-04
4.27000000e-01	1.50955740e-02	1.41892179e-04
4.28000000e-01	1.49783097e-02	1.41234694e-04
4.29000000e-01	1.48646196e-02	1.41222551e-04
4.30000000e-01	1.48080219e-02	1.39897259e-04
4.31000000e-01	1.50327416e-02	1.41898375e-04
4.32000000e-01	1.49055448e-02	1.41218413e-04
4.33000000e-01	1.48629712e-02	1.40614901e-04
4.34000000e-01	1.48266704e-02	1.40444236e-04
4.35000000e-01	1.48374472e-02	1.40333637e-04
4.36000000e-01	1.49248816e-02	1.41406448e-04
4.37000000e-01	1.47487526e-02	1.40416285e-04
4.38000000e-01	1.47255577e-02	1.40214788e-04
4.39000000e-01	1.48928710e-02	1.42294800e-04
4.40000000e-01	1.47698126e-02	1.40970269e-04
4.41000000e-01	1.47932922e-02	1.41193467e-04
4.42000000e-01	1.48094524e-02	1.41929697e-04
4.43000000e-01	1.48311526e-02	1.42186067e-04
4.44000000e-01	1.47660882e-02	1.41815952e-04
4.45000000e-01	1.46913148e-02	1.41375719e-04
4.46000000e-01	1.47139605e-02	1.41337281e-04
4.47000000e-01	1.47338428e-02	1.41692022e-04
4.48000000e-01	1.46971292e-02	1.41922127e-04
4.49000000e-01	1.48564659e-02	1.43035422e-04
4.50000000e-01	1.47495463e-02	1.42414528e-04
4.51000000e-01	1.46607743e-02	1.41875517e-04
4.52000000e-01	1.46831901e-02	1.42025882e-04
4.53000000e-01	1.47848356e-02	1.43119584e-04
4.54000000e-01	1.47421157e-02	1.42601027e-04
4.55000000e-01	1.46696902e-02	1.42276488e-04
4.56000000e-01	1.46569862e-02	1.42239815e-04
4.57000000e-01	1.46283240e-02	1.42414757e-04
4.58000000e-01	1.46268891e-02	1.42385742e-04
4.59000000e-01	1.45975204e-02	1.41887014e-04
4.60000000e-01	1.46511994e-02	1.42788670e-04
4.61000000e-01	1.46591846e-02	1.42985035e-04
4.62000000e-01	1.46252812e-02	1.42794950e-04
4.63000000e-01	1.44921695e-02	1.41520540e-04
4.64000000e-01	1.45462645e-02	1.42015222e-04
4.65000000e-01	1.45521078e-02	1.42213759e-04
4.66000000e-01	1.46633057e-02	1.43783776e-04
4.67000000e-01	1.45005037e-02	1.42084167e-04
4.68000000e-01	1.45794655e-02	1.42914173e-04
4.69000000e-01	1.46977494e-02	1.44066822e-04
4.70000000e-01	1.44663311e-02	1.42033527e-04
4.71000000e-01	1.45372139e-02	1.42267763e-04
4.72000000e-01	1.43633363e-02	1.40888850e-04
4.73000000e-01	1.44647847e-02	1.41942207e-04
4.74000000e-01	1.44875060e-02	1.42272225e-04
4.75000000e-01	1.44739163e-02	1.41706346e-04
4.76000000e-01	1.46022424e-02	1.42628258e-04
4.77000000e-01	1.44698359e-02	1.41891638e-04
4.78000000e-01	1.44338585e-02	1.41593857e-04
4.79000000e-01	1.44005448e-02	1.41176159e-04
4.80000000e-01	1.43938149e-02	1.41406774e-04
4.81000000e-01	1.43090567e-02	1.40752267e-04
4.82000000e-01	1.44245039e-02	1.41746926e-04
4.83000000e-01	1.44681847e-02	1.42035986e-04
4.84000000e-01	1.43233728e-02	1.41107538e-04
4.85000000e-01	1.45628103e-02	1.43307814e-04
4.86000000e-01	1.42372303e-02	1.40544186e-04
4.87000000e-01	1.44166449e-02	1.42084101e-04
4.88000000e-01	1.43163539e-02	1.41232582e-04
4.89000000e-01	1.42481845e-02	1.40869588e-04
4.90000000e-01	1.42695989e-02	1.41111895e-04
4.91000000e-01	1.42784462e-02	1.41259604e-04
4.92000000e-01	1.43269833e-02	1.41936753e-04
4.93000000e-01	1.43582978e-02	1.41802666e-04
4.94000000e-01	1.42391889e-02	1.40905207e-04
4.95000000e-01	1.44513180e-02	1.44124494e-04
4.96000000e-01	1.43171390e-02	1.46713347e-04
4.97000000e-01	1.42508488e-02	1.49130388e-04
4.98000000e-01	1.42350190e-02	1.50740584e-04
4.99000000e-01	1.44580332e-02	1.54659301e-04
5.00000000e-01	1.41608852e-02	1.53732855e-04
5.01000000e-01	1.42556159e-02	1.56219672e-04
5.02000000e-01	1.42991510e-02	1.58543817e-04
5.03000000e-01	1.41123032e-02	1.57953457e-04
5.04000000e-01	1.41511238e-02	1.59361712e-04
5.05000000e-01	1.43975372e-02	1.59010317e-04
5.06000000e-01	1.42829142e-02	1.54559422e-04
5.07000000e-01	1.42840099e-02	1.53111168e-04
5.08000000e-01	1.41931273e-02	1.51149260e-04
5.09000000e-01	1.42822619e-02	1.51555025e-04
5.10000000e-01	1.41526671e-02	1.49928312e-04
5.11000000e-01	1.43252161e-02	1.50761942e-04
5.12000000e-01	1.41237680e-02	1.48938824e-04
5.13000000e-01	1.42071872e-02	1.49457501e-04
5.14000000e-01	1.42371085e-02	1.48592481e-04
5.15000000e-01	1.40624021e-02	1.47158666e-04
5.16000000e-01	1.40488297e-02	1.47033238e-04
5.17000000e-01	1.40577747e-02	1.46757087e-04
5.18000000e-01	1.42517051e-02	1.48183203e-04
5.19000000e-01	1.41304237e-02	1.46594127e-04
5.20000000e-01	1.41154647e-02	1.46287034e-04
5.21000000e-01	1.41804838e-02	1.46400208e-04
5.22000000e-01	1.40695468e-02	1.45096729e-04
5.23000000e-01	1.40268214e-02	1.45348942e-04
5.24000000e-01	1.40423289e-02	1.45103008e-04
5.25000000e-01	1.39470034e-02	1.43878191e-04
5.26000000e-01	1.40895888e-02	1.45632318e-04
5.27000000e-01	1.40872675e-02	1.45320683e-04
5.28000000e-01	1.39566410e-02	1.44598993e-04
5.29000000e-01	1.40729474e-02	1.45234494e-04
5.30000000e-01	1.39133855e-02	1.44291226e-04
5.31000000e-01	1.38716103e-02	1.43730175e-04
5.32000000e-01	1.40666788e-02	1.44956967e-04
5.33000000e-01	1.39029641e-02	1.43820004e-04
5.34000000e-01	1.39151406e-02	1.44446475e-04
5.35000000e-01	1.39755124e-02	1.44216926e-04
5.36000000e-01	1.39371864e-02	1.44038173e-04
5.37000000e-01	1.39919912e-02	1.44308985e-04
5.38000000e-01	1.38786002e-02	1.42979143e-04
5.39000000e-01	1.39518615e-02	1.44105554e-04
5.40000000e-01	1.40295199e-02	1.44574574e-04
5.41000000e-01	1.39654982e-02	1.44488121e-04
5.42000000e-01	1.39744662e-02	1.44231580e-04
5.43000000e-01	1.38054017e-02	1.42480498e-04
5.44000000e-01	1.38910819e-02	1.43230229e-04
5.45000000e-01	1.39097153e-02	1.43787853e-04
5.46000000e-01	1.39508487e-02	1.44696917e-04
5.47000000e-01	1.37798997e-02	1.42723001e-04
5.48000000e-01	1.38316896e-02	1.42971259e-04
5.49000000e-01	1.37209568e-02	1.42171513e-04
5.50000000e-01	1.38093290e-02	1.42120981e-04
5.51000000e-01	1.37537867e-02	1.41934325e-04
5.52000000e-01	1.37380817e-02	1.41772772e-04
5.53000000e-01	1.37706325e-02	1.41661929e-04
5.54000000e-01	1.38590512e-02	1.42440437e-04
5.55000000e-01	1.37720901e-02	1.41146354e-04
5.56000000e-01	1.38717964e-02	1.42407346e-04
5.57000000e-01	1.37307519e-02	1.41356426e-04
5.58000000e-01	1.37266730e-02	1.40980099e-04
5.59000000e-01	1.36412668e-02	1.39483621e-04
5.60000000e-01	1.35427800e-02	1.39715522e-04
5.61000000e-01	1.36888257e-02	1.40658526e-04
5.62000000e-01	1.35595326e-02	1.39795868e-04
5.63000000e-01	1.35541725e-02	1.39272142e-04
5.64000000e-01	1.37173115e-02	1.41148887e-04
5.65000000e-01	1.36444795e-02	1.40427032e-04
5.66000000e-01	1.36070292e-02	1.40550715e-04
5.67000000e-01	1.36601962e-02	1.39885841e-04
5.68000000e-01	1.36033008e-02	1.40183209e-04
5.69000000e-01	1.35798219e-02	1.39358133e-04
5.70000000e-01	1.35211369e-02	1.38977909e-04
5.71000000e-01	1.36919122e-02	1.40500079e-04
5.72000000e-01	1.35875685e-02	1.39754446e-04
5.73000000e-01	1.34170633e-02	1.38735489e-04
5.74000000e-01	1.34970155e-02	1.39005029e-04
5.75000000e-01	1.34242215e-02	1.38528005e-04
5.76000000e-01	1.34767262e-02	1.38810518e-04
5.77000000e-01	1.35160931e-02	1.39242556e-04
5.78000000e-01	1.34542390e-02	1.38725504e-04
5.79000000e-01	1.34283297e-02	1.38718691e-04
5.80000000e-01	1.33596694e-02	1.37895204e-04
5.81000000e-01	1.35216273e-02	1.39285164e-04
5.82000000e-01	1.33923428e-02	1.38073719e-04
5.83000000e-01	1.34202324e-02	1.38608693e-04
5.84000000e-01	1.33821100e-02	1.38030024e-04
5.85000000e-01	1.34043744e-02	1.37881944e-04
5.86000000e-01	1.33693179e-02	1.37949761e-04
5.87000000e-01	1.33908821e-02	1.38266193e-04
5.88000000e-01	1.35105921e-02	1.39426571e-04
5.89000000e-01	1.32752547e-02	1.37258119e-04
5.90000000e-01	1.34874282e-02	1.39253530e-04
5.91000000e-01	1.32291207e-02	1.37055605e-04
5.92000000e-01	1.34154464e-02	1.37964049e-04
5.93000000e-01	1.33638827e-02	1.38251571e-04
5.94000000e-01	1.33416057e-02	1.37894317e-04
5.95000000e-01	1.32640393e-02	1.37353320e-04
5.96000000e-01	1.33211240e-02	1.38054051e-04
5.97000000e-01	1.32465302e-02	1.36924765e-04
5.98000000e-01	1.33491256e-02	1.37682473e-04
5.99000000e-01	1.33203916e-02	1.37678965e-04
6.00000000e-01	1.31056639e-02	1.35924583e-04
6.01000000e-01	1.30925632e-02	1.35522019e-04
6.02000000e-01	1.32011990e-02	1.36580522e-04
6.03000000e-01	1.31894407e-02	1.37016926e-04
6.04000000e-01	1.32956969e-02	1.37722281e-04
6.05000000e-01	1.33170202e-02	1.37484943e-04
6.06000000e-01	1.31868617e-02	1.36699872e-04
6.07000000e-01	1.32355153e-02	1.37328846e-04
6.08000000e-01	1.30550769e-02	1.35542492e-04
6.09000000e-01	1.30319057e-02	1.35706881e-04
6.10000000e-01	1.30944448e-02	1.36014274e-04
6.11000000e-01	1.31734541e-02	1.36424615e-04
6.12000000e-01	1.30314077e-02	1.34988821e-04
6.13000000e-01	1.32635989e-02	1.37675900e-04
6.14000000e-01	1.33179276e-02	1.37898127e-04
6.15000000e-01	1.29778639e-02	1.34848899e-04
6.16000000e-01	1.29919507e-02	1.35463094e-04
6.17000000e-01	1.31137034e-02	1.35852942e-04
6.18000000e-01	1.31130002e-02	1.36748984e-04
6.19000000e-01	1.30999805e-02	1.36155088e-04
6.20000000e-01	1.31262508e-02	1.35632875e-04
6.21000000e-01	1.30468554e-02	1.34982690e-04
6.22000000e-01	1.30389115e-02	1.35291757e-04
6.23000000e-01	1.31608043e-02	1.36060860e-04
6.24000000e-01	1.30816143e-02	1.35052467e-04
6.25000000e-01	1.30764832e-02	1.34683010e-04
6.26000000e-01	1.30405200e-02	1.34286858e-04
6.27000000e-01	1.30854499e-02	1.35090084e-04
6.28000000e-01	1.29937971e-02	1.34262216e-04
6.29000000e-01	1.31665653e-02	1.35415438e-04
6.30000000e-01	1.30567447e-02	1.34656542e-04
6.31000000e-01	1.31971404e-02	1.35963922e-04
6.32000000e-01	1.28471412e-02	1.32816820e-04
6.33000000e-01	1.30520580e-02	1.34624690e-04
6.34000000e-01	1.30790009e-02	1.38319455e-04
6.35000000e-01	1.29863368e-02	1.41597233e-04
6.36000000e-01	1.30397774e-02	1.44337475e-04
6.37000000e-01	1.30186182e-02	1.46962420e-04
6.38000000e-01	1.30305410e-02	1.48525709e-04
6.39000000e-01	1.29635117e-02	1.49756718e-04
6.40000000e-01	1.29407694e-02	1.51327119e-04
6.41000000e-01	1.29767444e-02	1.53378213e-04
6.42000000e-01	1.29728454e-02	1.55269002e-04
6.43000000e-01	1.31364569e-02	1.56634663e-04
6.44000000e-01	1.30307692e-02	1.49874964e-04
6.45000000e-01	1.31501611e-02	1.49337273e-04
6.46000000e-01	1.30375160e-02	1.46810323e-04
6.47000000e-01	1.30892675e-02	1.46149918e-04
6.48000000e-01	1.31060322e-02	1.45119493e-04
6.49000000e-01	1.29641888e-02	1.43048964e-04
6.50000000e-01	1.28686625e-02	1.41484698e-04
6.51000000e-01	1.29376388e-02	1.41959929e-04
6.52000000e-01	1.30405751e-02	1.42346279e-04
6.53000000e-01	1.30613641e-02	1.41448457e-04
6.54000000e-01	1.29113946e-02	1.39779032e-04
6.55000000e-01	1.28582757e-02	1.38648933e-04
6.56000000e-01	1.28615024e-02	1.39124330e-04
6.57000000e-01	1.30544039e-02	1.40926440e-04
6.58000000e-01	1.29820965e-02	1.39789539e-04
6.59000000e-01	1.30066265e-02	1.39811586e-04
6.60000000e-01	1.29363773e-02	1.39226160e-04
6.61000000e-01	1.29205168e-02	1.38011040e-04
6.62000000e-01	1.29488596e-02	1.39417037e-04
6.63000000e-01	1.29817520e-02	1.39237425e-04
6.64000000e-01	1.27779742e-02	1.37584698e-04
6.65000000e-01	1.29177453e-02	1.38730483e-04
6.66000000e-01	1.28386668e-02	1.37854495e-04
6.67000000e-01	1.28414713e-02	1.37951247e-04
6.68000000e-01	1.28893189e-02	1.37945966e-04
6.69000000e-01	1.30049078e-02	1.38962189e-04
6.70000000e-01	1.28416715e-02	1.37443318e-04
6.71000000e-01	1.27342244e-02	1.36248360e-04
6.72000000e-01	1.29019502e-02	1.37771372e-04
6.73000000e-01	1.28486770e-02	1.37134533e-04
6.74000000e-01	1.26976766e-02	1.35821527e-04
6.75000000e-01	1.27614258e-02	1.36451354e-04
6.76000000e-01	1.28104740e-02	1.37190784e-04
6.77000000e-01	1.28392458e-02	1.36710694e-04
6.78000000e-01	1.28061153e-02	1.36639392e-04
6.79000000e-01	1.27979782e-02	1.36453271e-04
6.80000000e-01	1.27175968e-02	1.35755225e-04
6.81000000e-01	1.26933047e-02	1.35523411e-04
6.82000000e-01	1.27372042e-02	1.35903913e-04
6.83000000e-01	1.28011811e-02	1.36499731e-04
6.84000000e-01	1.27167423e-02	1.36391594e-04
6.85000000e-01	1.27115187e-02	1.35744589e-04
6.86000000e-01	1.28050772e-02	1.36100417e-04
6.87000000e-01	1.26748267e-02	1.35408320e-04
6.88000000e-01	1.26942251e-02	1.35884209e-04
6.89000000e-01	1.27211876e-02	1.35259000e-04
6.90000000e-01	1.25001235e-02	1.34048732e-04
6.91000000e-01	1.27023543e-02	1.36180233e-04
6.92000000e-01	1.26476369e-02	1.35136771e-04
6.93000000e-01	1.27301402e-02	1.35629529e-04
6.94000000e-01	1.26494343e-02	1.35120697e-04
6.95000000e-01	1.25581934e-02	1.34283747e-04
6.96000000e-01	1.26782471e-02	1.34918372e-04
6.97000000e-01	1.25116007e-02	1.33275209e-04
6.98000000e-01	1.27251838e-02	1.35021836e-04
6.99000000e-01	1.25560774e-02	1.33903327e-04
7.00000000e-01	1.26334955e-02	1.34521483e-04
7.01000000e-01	1.25377457e-02	1.33841858e-04
7.02000000e-01	1.25762661e-02	1.33891189e-04
7.03000000e-01	1.26157664e-02	1.34377392e-04
7.04000000e-01	1.25817326e-02	1.34089861e-04
7.05000000e-01	1.25418351e-02	1.33930624e-04
7.06000000e-01	1.24633737e-02	1.32861522e-04
7.07000000e-01	1.26023869e-02	1.34036889e-04
7.08000000e-01	1.26019435e-02	1.33493637e-04
7.09000000e-01	1.25703162e-02	1.33454060e-04
7.10000000e-01	1.25451119e-02	1.33158885e-04
7.11000000e-01	1.25198524e-02	1.33531349e-04
7.12000000e-01	1.24258890e-02	1.32233463e-04
7.13000000e-01	1.23372603e-02	1.31241663e-04
7.14000000e-01	1.24839593e-02	1.33302555e-04
7.15000000e-01	1.23948666e-02	1.32064670e-04
7.16000000e-01	1.23742729e-02	1.32011141e-04
7.17000000e-01	1.23777218e-02	1.32015541e-04
7.18000000e-01	1.23726322e-02	1.32252464e-04
7.19000000e-01	1.23272173e-02	1.31579008e-04
7.20000000e-01	1.23497626e-02	1.31184207e-04
7.21000000e-01	1.23037942e-02	1.31136186e-04
7.22000000e-01	1.22649448e-02	1.30865344e-04
7.23000000e-01	1.22494617e-02	1.31253454e-04
7.24000000e-01	1.22423785e-02	1.30831638e-04
7.25000000e-01	1.22406539e-02	1.30480893e-04
7.26000000e-01	1.23657382e-02	1.31586512e-04
7.27000000e-01	1.22848417e-02	1.30763487e-04
7.28000000e-01	1.21748452e-02	1.30083997e-04
7.29000000e-01	1.22509157e-02	1.31264492e-04
7.30000000e-01	1.21884991e-02	1.31174994e-04
7.31000000e-01	1.22252232e-02	1.30608051e-04
7.32000000e-01	1.22260866e-02	1.30942086e-04
7.33000000e-01	1.22779977e-02	1.30942471e-04
7.34000000e-01	1.22773405e-02	1.30786072e-04
7.35000000e-01	1.21320574e-02	1.29322034e-04
7.36000000e-01	1.22247797e-02	1.29530881e-04
7.37000000e-01	1.21105962e-02	1.28887958e-04
7.38000000e-01	1.20700759e-02	1.27839588e-04
7.39000000e-01	1.21826770e-02	1.28562297e-04
7.40000000e-01	1.21611917e-02	1.28569985e-04
7.41000000e-01	1.21433501e-02	1.28952770e-04
7.42000000e-01	1.19921786e-02	1.26823438e-04
7.43000000e-01	1.22105596e-02	1.29106313e-04
7.44000000e-01	1.21387618e-02	1.28139508e-04
7.45000000e-01	1.20544421e-02	1.27581042e-04
7.46000000e-01	1.21194532e-02	1.27882031e-04
7.47000000e-01	1.22173112e-02	1.28907339e-04
7.48000000e-01	1.20936987e-02	1.27591810e-04
7.49000000e-01	1.21074972e-02	1.28049831e-04
7.50000000e-01	1.20886825e-02	1.27779119e-04
7.51000000e-01	1.21607133e-02	1.28811392e-04
7.52000000e-01	1.20799568e-02	1.27368911e-04
7.53000000e-01	1.20151013e-02	1.27146433e-04
7.54000000e-01	1.19977068e-02	1.27085382e-04
7.55000000e-01	1.19824277e-02	1.26876183e-04
7.56000000e-01	1.19397104e-02	1.26402196e-04
7.57000000e-01	1.20367412e-02	1.27426345e-04
7.58000000e-01	1.19264146e-02	1.26369399e-04
7.59000000e-01	1.19197049e-02	1.26051483e-04
7.60000000e-01	1.20089013e-02	1.26688020e-04
7.61000000e-01	1.19279810e-02	1.25507005e-04
7.62000000e-01	1.18806288e-02	1.25336059e-04
7.63000000e-01	1.19225461e-02	1.25583515e-04
7.64000000e-01	1.19140750e-02	1.25475061e-04
7.65000000e-01	1.19954164e-02	1.25729090e-04
7.66000000e-01	1.18660487e-02	1.24385120e-04
7.67000000e-01	1.19052124e-02	1.25048994e-04
7.68000000e-01	1.19607506e-02	1.25253770e-04
7.69000000e-01	1.19656328e-02	1.25487374e-04
7.70000000e-01	1.19763481e-02	1.25798894e-04
7.71000000e-01	1.18767985e-02	1.24644124e-04
7.72000000e-01	1.19468539e-02	1.29103850e-04
7.73000000e-01	1.19535289e-02	1.33244034e-04
7.74000000e-01	1.18071323e-02	1.34310563e-04
7.75000000e-01	1.18792829e-02	1.37411454e-04
7.76000000e-01	1.18410282e-02	1.39408991e-04
7.77000000e-01	1.17464792e-02	1.41046673e-04
7.78000000e-01	1.18080326e-02	1.43005168e-04
7.79000000e-01	1.17894219e-02	1.44173275e-04
7.80000000e-01	1.17614320e-02	1.45170356e-04
7.81000000e-01	1.15622229e-02	1.45575848e-04
7.82000000e-01	1.18065130e-02	1.49408386e-04
7.83000000e-01	1.17567783e-02	1.50238475e-04
7.84000000e-01	1.16115884e-02	1.50328909e-04
7.85000000e-01	1.16787028e-02	1.52510959e-04
7.86000000e-01	1.16187184e-02	1.54531619e-04
7.87000000e-01	1.16194216e-02	1.55024071e-04
7.88000000e-01	1.14654793e-02	1.55251414e-04
7.89000000e-01	1.15070940e-02	1.57060516e-04
7.90000000e-01	1.16001108e-02	1.59576771e-04
7.91000000e-01	1.15251894e-02	1.60120599e-04
7.92000000e-01	1.16466616e-02	1.63838237e-04
7.93000000e-01	1.16043300e-02	1.64824454e-04
7.94000000e-01	1.16796108e-02	1.67612263e-04
7.95000000e-01	1.16395933e-02	1.68182082e-04
7.96000000e-01	1.15914566e-02	1.68813488e-04
7.97000000e-01	1.14908299e-02	1.69684934e-04
7.98000000e-01	1.14862712e-02	1.72201659e-04
7.99000000e-01	1.15622935e-02	1.73547201e-04
8.00000000e-01	1.15693789e-02	1.75817140e-04
8.01000000e-01	1.15047532e-02	1.77837582e-04
8.02000000e-01	1.14344140e-02	1.78589023e-04
8.03000000e-01	1.14344710e-02	1.80509895e-04
8.04000000e-01	1.13727136e-02	1.80680585e-04
8.05000000e-01	1.14212132e-02	1.83265353e-04
8.06000000e-01	1.15119375e-02	1.86363096e-04
8.07000000e-01	1.13621744e-02	1.85888242e-04
8.08000000e-01	1.12155601e-02	1.86082220e-04
8.09000000e-01	1.13917166e-02	1.92495020e-04
8.10000000e-01	1.12757720e-02	1.91404797e-04
8.11000000e-01	1.11622703e-02	1.92330850e-04
8.12000000e-01	1.11507471e-02	1.93080864e-04
8.13000000e-01	1.11737397e-02	1.96714028e-04
8.14000000e-01	1.12019510e-02	1.98530039e-04
8.15000000e-01	1.12595157e-02	2.03096258e-04
8.16000000e-01	1.12620044e-02	2.04865261e-04
8.17000000e-01	1.12226811e-02	2.06709507e-04
8.18000000e-01	1.14486426e-02	2.12732030e-04
8.19000000e-01	1.14613316e-02	2.15867511e-04
8.20000000e-01	1.13546656e-02	2.17219259e-04
8.21000000e-01	1.11009464e-02	2.14397128e-04
8.22000000e-01	1.13141895e-02	2.22898737e-04
8.23000000e-01	1.14388837e-02	2.26616744e-04
8.24000000e-01	1.10304630e-02	2.22657126e-04
8.25000000e-01	1.11958697e-02	2.28863976e-04
8.26000000e-01	1.12006387e-02	2.34491927e-04
8.27000000e-01	1.13182825e-02	2.36694022e-04
8.28000000e-01	1.11683638e-02	2.40369366e-04
8.29000000e-01	1.11614639e-02	2.42785796e-04
8.30000000e-01	1.10805917e-02	2.45144749e-04
8.31000000e-01	1.12497545e-02	2.50812097e-04
8.32000000e-01	1.07724435e-02	2.45833073e-04
8.33000000e-01	1.09366676e-02	2.55568467e-04
8.34000000e-01	1.10679658e-02	2.62315413e-04
8.35000000e-01	1.10284966e-02	2.64716695e-04
8.36000000e-01	1.10932340e-02	2.71128728e-04
8.37000000e-01	1.07743606e-02	2.71338513e-04
8.38000000e-01	1.08795028e-02	2.79710463e-04
8.39000000e-01	1.13419992e-02	2.96974000e-04
8.40000000e-01	1.10473745e-02	2.93524816e-04
8.41000000e-01	1.08692553e-02	2.95047202e-04
8.42000000e-01	1.10532501e-02	3.06339209e-04
8.43000000e-01	1.08445005e-02	3.09334641e-04
8.44000000e-01	1.11992704e-02	3.24964676e-04
8.45000000e-01	1.08127462e-02	3.23390285e-04
8.46000000e-01	1.08679169e-02	3.36127939e-04
8.47000000e-01	1.09907917e-02	3.48069990e-04
8.48000000e-01	1.04806406e-02	3.44789525e-04
8.49000000e-01	1.07182856e-02	3.61546309e-04
8.50000000e-01	1.10331558e-02	3.78310940e-04
8.51000000e-01	1.07397046e-02	3.88492147e-04
8.52000000e-01	1.08283219e-02	4.06603254e-04
8.53000000e-01	1.01947632e-02	4.01809206e-04
8.54000000e-01	1.04969069e-02	4.38875266e-04
8.55000000e-01	1.07477046e-02	4.57863118e-04
8.56000000e-01	1.07547509e-02	4.66748585e-04
8.57000000e-01	1.04286561e-02	4.64649105e-04
8.58000000e-01	1.06704297e-02	4.87937407e-04
8.59000000e-01	1.04775697e-02	5.02951420e-04
8.60000000e-01	1.07631596e-02	5.29949341e-04
8.61000000e-01	1.04849950e-02	5.39747811e-04
8.62000000e-01	1.04956668e-02	5.55895532e-04
8.63000000e-01	1.08523207e-02	5.93342882e-04
8.64000000e-01	1.06108534e-02	6.01341957e-04
8.65000000e-01	1.09461071e-02	6.59393616e-04
8.66000000e-01	1.08145416e-02	6.81662303e-04
8.67000000e-01	1.01053554e-02	6.72332886e-04
8.68000000e-01	1.08492640e-02	7.83229655e-04
8.69000000e-01	1.06145337e-02	8.01566336e-04
8.70000000e-01	1.06119679e-02	8.63010657e-04
8.71000000e-01	1.08210153e-02	9.91029590e-04
8.72000000e-01	9.97917746e-03	1.04172537e-03
8.73000000e-01	1.00876580e-02	1.25007383e-03
8.74000000e-01	1.12940220e-02	1.86222032e-03
8.75000000e-01	8.96920706e-03	2.98973524e-03
