% Filename : SDL13_00034_00025.h5
% Date & Time : 30-Oct-2025 17:29:36
% X-ray Energy (keV) : 13.30001
% Exposure Time (s) : 0.500
% Beam Center : 1461.24000, 208.98300
% Sample to Detector Distance (SDD) (mm) : 1990.750
% Detector Pixel Size (mm) : 0.075
% Photodiode Value : 140957.000
% I0 of Sample : 0
% I0 of Standard : 1
% 
% q(A^-1)   I(q)    I(q)_SE
0.00000000e+00	7.69031121e-03	4.05315148e-03
2.50000000e-04	0.00000000e+00	0.00000000e+00
5.00000000e-04	0.00000000e+00	0.00000000e+00
7.50000000e-04	0.00000000e+00	0.00000000e+00
1.00000000e-03	0.00000000e+00	0.00000000e+00
1.25000000e-03	0.00000000e+00	0.00000000e+00
1.50000000e-03	0.00000000e+00	0.00000000e+00
1.75000000e-03	0.00000000e+00	0.00000000e+00
2.00000000e-03	0.00000000e+00	0.00000000e+00
2.25000000e-03	0.00000000e+00	0.00000000e+00
2.50000000e-03	0.00000000e+00	0.00000000e+00
2.75000000e-03	0.00000000e+00	0.00000000e+00
3.00000000e-03	0.00000000e+00	0.00000000e+00
3.25000000e-03	4.13861258e+00	2.62103645e+00
3.50000000e-03	3.33161048e+00	1.05944778e+00
3.75000000e-03	2.30672689e+00	6.09816167e-01
4.00000000e-03	1.76674131e+00	4.12303588e-01
4.25000000e-03	1.22398388e+00	2.31537361e-01
4.50000000e-03	1.43530239e+00	2.46708915e-01
4.75000000e-03	1.38283694e+00	2.22076946e-01
5.00000000e-03	1.11476316e+00	1.68465168e-01
5.25000000e-03	9.46067281e-01	1.41583250e-01
5.50000000e-03	7.80988673e-01	1.12009588e-01
5.75000000e-03	6.67518639e-01	9.27086266e-02
6.00000000e-03	5.65855542e-01	7.50608928e-02
6.25000000e-03	5.00016659e-01	6.63628713e-02
6.50000000e-03	4.23669593e-01	5.44156809e-02
6.75000000e-03	3.69468396e-01	4.65767221e-02
7.00000000e-03	3.27033631e-01	3.90969389e-02
7.25000000e-03	2.86694404e-01	3.34018476e-02
7.50000000e-03	2.52724295e-01	2.92992347e-02
7.75000000e-03	2.23425459e-01	2.51750285e-02
8.00000000e-03	2.05793437e-01	2.22595952e-02
8.25000000e-03	1.81917964e-01	1.95316815e-02
8.50000000e-03	1.65437100e-01	1.70417409e-02
8.75000000e-03	1.54102517e-01	1.61698545e-02
9.00000000e-03	1.34630177e-01	1.33191116e-02
9.25000000e-03	1.22887677e-01	1.17767437e-02
9.50000000e-03	1.10284417e-01	1.02461914e-02
9.75000000e-03	1.02011539e-01	8.95687299e-03
1.00000000e-02	9.32729699e-02	8.31209191e-03
1.02500000e-02	8.62602384e-02	7.57109126e-03
1.05000000e-02	8.01585749e-02	6.89887810e-03
1.07500000e-02	7.28037132e-02	6.01527144e-03
1.10000000e-02	7.14664970e-02	5.76599424e-03
1.12500000e-02	6.65697735e-02	5.42358898e-03
1.15000000e-02	6.16268730e-02	4.88775106e-03
1.17500000e-02	5.68077615e-02	4.29553041e-03
1.20000000e-02	5.62175619e-02	4.19301769e-03
1.22500000e-02	5.39360660e-02	3.98575781e-03
1.25000000e-02	5.25890044e-02	3.81170412e-03
1.27500000e-02	4.84839881e-02	3.51028791e-03
1.30000000e-02	4.47831996e-02	3.15519880e-03
1.32500000e-02	4.40529945e-02	3.06534835e-03
1.35000000e-02	4.34695435e-02	2.94953879e-03
1.37500000e-02	4.17065204e-02	2.77615795e-03
1.40000000e-02	4.01742769e-02	2.62933774e-03
1.42500000e-02	3.65891740e-02	2.36272821e-03
1.45000000e-02	3.63802585e-02	2.34389659e-03
1.47500000e-02	3.61453990e-02	2.25323239e-03
1.50000000e-02	3.53100493e-02	2.22139701e-03
1.52500000e-02	3.40602592e-02	2.06364606e-03
1.55000000e-02	3.14757972e-02	1.87448864e-03
1.57500000e-02	3.09981379e-02	1.84914068e-03
1.60000000e-02	3.07366111e-02	1.76174534e-03
1.62500000e-02	3.16426618e-02	1.84082494e-03
1.65000000e-02	2.84502376e-02	1.62656362e-03
1.67500000e-02	2.91507922e-02	1.65594619e-03
1.70000000e-02	2.90285096e-02	1.63134883e-03
1.72500000e-02	2.81236700e-02	1.58166108e-03
1.75000000e-02	2.84820010e-02	1.58596758e-03
1.77500000e-02	2.85313912e-02	1.56460382e-03
1.80000000e-02	2.79740027e-02	1.53635733e-03
1.82500000e-02	2.74512259e-02	1.46912453e-03
1.85000000e-02	2.73469006e-02	1.48154479e-03
1.87500000e-02	2.64593172e-02	1.40191447e-03
1.90000000e-02	2.64914251e-02	1.39750587e-03
1.92500000e-02	2.55203819e-02	1.32518941e-03
1.95000000e-02	2.51774560e-02	1.30501975e-03
1.97500000e-02	2.54332930e-02	1.33538349e-03
2.00000000e-02	2.50671871e-02	1.29348482e-03
2.02500000e-02	2.48001150e-02	1.27048526e-03
2.05000000e-02	2.38369117e-02	1.19387942e-03
2.07500000e-02	2.45933229e-02	1.23838314e-03
2.10000000e-02	2.47016131e-02	1.25010430e-03
2.12500000e-02	2.48041538e-02	1.24824512e-03
2.15000000e-02	2.40272105e-02	1.19495541e-03
2.17500000e-02	2.31345596e-02	1.18193052e-03
2.20000000e-02	2.47811088e-02	1.25845695e-03
2.22500000e-02	2.39402734e-02	1.21077214e-03
2.25000000e-02	2.41005948e-02	1.22979426e-03
2.27500000e-02	2.34493211e-02	1.18127428e-03
2.30000000e-02	2.41062550e-02	1.23751943e-03
2.32500000e-02	2.43001298e-02	1.20537740e-03
2.35000000e-02	2.31917921e-02	1.16949643e-03
2.37500000e-02	2.36487538e-02	1.19045314e-03
2.40000000e-02	2.34169562e-02	1.16932820e-03
2.42500000e-02	2.33259579e-02	1.16917354e-03
2.45000000e-02	2.19305745e-02	1.12126506e-03
2.47500000e-02	2.38621280e-02	1.17031179e-03
2.50000000e-02	2.26615739e-02	1.12090013e-03
2.52500000e-02	2.35996452e-02	1.17076702e-03
2.55000000e-02	2.33226933e-02	1.15104770e-03
2.57500000e-02	2.19951120e-02	1.10276715e-03
2.60000000e-02	2.23739431e-02	1.10668237e-03
2.62500000e-02	2.16054856e-02	1.09211477e-03
2.65000000e-02	2.18582505e-02	1.07347885e-03
2.67500000e-02	2.25223854e-02	1.09620812e-03
2.70000000e-02	2.22793417e-02	1.11439207e-03
2.72500000e-02	2.28652274e-02	1.11578416e-03
2.75000000e-02	2.21517534e-02	1.09844875e-03
2.77500000e-02	2.20191181e-02	1.08657133e-03
2.80000000e-02	2.33957954e-02	1.13254403e-03
2.82500000e-02	2.30500144e-02	1.11434801e-03
2.85000000e-02	2.25026300e-02	1.09864998e-03
2.87500000e-02	2.27976133e-02	1.10225949e-03
2.90000000e-02	2.23528866e-02	1.09015157e-03
2.92500000e-02	2.23337548e-02	1.05618092e-03
2.95000000e-02	2.35165932e-02	1.12684847e-03
2.97500000e-02	2.34006519e-02	1.10708129e-03
3.00000000e-02	2.25119817e-02	1.08531173e-03
3.02500000e-02	2.37427491e-02	1.14043715e-03
3.05000000e-02	2.21386721e-02	1.04163262e-03
3.07500000e-02	2.31421274e-02	1.10333130e-03
3.10000000e-02	2.34607611e-02	1.11009557e-03
3.12500000e-02	2.29556531e-02	1.09408417e-03
3.15000000e-02	2.28710335e-02	1.08594432e-03
3.17500000e-02	2.28665493e-02	1.05843673e-03
3.20000000e-02	2.27598585e-02	1.06566630e-03
3.22500000e-02	2.30831362e-02	1.07808785e-03
3.25000000e-02	2.26514160e-02	1.05503437e-03
3.27500000e-02	2.28818237e-02	1.06507474e-03
3.30000000e-02	2.28378340e-02	1.05094219e-03
3.32500000e-02	2.15907647e-02	9.99435807e-04
3.35000000e-02	2.19542300e-02	1.02894059e-03
3.37500000e-02	2.25453650e-02	1.02898912e-03
3.40000000e-02	2.20108448e-02	1.02179595e-03
3.42500000e-02	2.19237637e-02	1.01231856e-03
3.45000000e-02	2.22857844e-02	1.02086189e-03
3.47500000e-02	2.18311508e-02	9.97364672e-04
3.50000000e-02	2.16857764e-02	9.96274124e-04
3.52500000e-02	2.15039046e-02	9.89065107e-04
3.55000000e-02	2.22294386e-02	1.00111932e-03
3.57500000e-02	2.22523546e-02	1.02219944e-03
3.60000000e-02	2.17973090e-02	9.86189975e-04
3.62500000e-02	2.17276577e-02	9.91834155e-04
3.65000000e-02	2.13226857e-02	9.68954877e-04
3.67500000e-02	2.22431164e-02	9.93176745e-04
3.70000000e-02	2.20885118e-02	9.82529385e-04
3.72500000e-02	2.15002841e-02	9.66925756e-04
3.75000000e-02	2.17805870e-02	9.77019676e-04
3.77500000e-02	2.12862649e-02	9.46765072e-04
3.80000000e-02	2.06682064e-02	9.27246354e-04
3.82500000e-02	2.17473068e-02	9.54675581e-04
3.85000000e-02	2.12600347e-02	9.53489959e-04
3.87500000e-02	2.18883937e-02	9.65425849e-04
3.90000000e-02	2.20657030e-02	9.74639295e-04
3.92500000e-02	2.11412673e-02	9.30613353e-04
3.95000000e-02	2.10911871e-02	9.33028064e-04
3.97500000e-02	2.15901249e-02	9.53383831e-04
4.00000000e-02	2.10189013e-02	9.17861302e-04
4.02500000e-02	2.18155509e-02	9.55484970e-04
4.05000000e-02	2.08173119e-02	9.00234295e-04
4.07500000e-02	2.09594244e-02	9.24671239e-04
4.10000000e-02	2.10693674e-02	9.14206367e-04
4.12500000e-02	2.08224492e-02	9.09856814e-04
4.15000000e-02	2.09881710e-02	9.00928086e-04
4.17500000e-02	2.12853729e-02	9.14861201e-04
4.20000000e-02	2.14363623e-02	9.06017560e-04
4.22500000e-02	2.11758255e-02	9.08018162e-04
4.25000000e-02	2.04468800e-02	8.67839850e-04
4.27500000e-02	2.22299516e-02	9.44236764e-04
4.30000000e-02	2.16558409e-02	9.17635425e-04
4.32500000e-02	2.10102121e-02	8.83014937e-04
4.35000000e-02	2.04885045e-02	8.76287637e-04
4.37500000e-02	2.12067769e-02	8.82079647e-04
4.40000000e-02	2.14890823e-02	9.07474599e-04
4.42500000e-02	2.14186574e-02	9.05829638e-04
4.45000000e-02	2.10070715e-02	8.78891360e-04
4.47500000e-02	2.09490930e-02	8.74967804e-04
4.50000000e-02	2.14258660e-02	8.93882679e-04
4.52500000e-02	2.16655421e-02	9.01920476e-04
4.55000000e-02	2.12094158e-02	8.88144996e-04
4.57500000e-02	2.05900812e-02	8.59166747e-04
4.60000000e-02	2.09415106e-02	8.70548566e-04
4.62500000e-02	2.18022901e-02	9.04114736e-04
4.65000000e-02	2.08106882e-02	8.56234227e-04
4.67500000e-02	1.98863603e-02	8.13076188e-04
4.70000000e-02	2.08968182e-02	8.60519936e-04
4.72500000e-02	2.04306171e-02	8.34576745e-04
4.75000000e-02	2.12719187e-02	8.72754657e-04
4.77500000e-02	2.07346027e-02	8.40759410e-04
4.80000000e-02	2.01683309e-02	8.23400935e-04
4.82500000e-02	2.06204975e-02	8.41617576e-04
4.85000000e-02	2.06604323e-02	8.54354933e-04
4.87500000e-02	2.08934295e-02	8.51379797e-04
4.90000000e-02	2.08443306e-02	8.40156071e-04
4.92500000e-02	2.09162246e-02	8.43731948e-04
4.95000000e-02	2.07538770e-02	8.39168194e-04
4.97500000e-02	2.06420518e-02	8.35577387e-04
5.00000000e-02	2.08759186e-02	8.42582003e-04
5.02500000e-02	2.09346177e-02	8.41036424e-04
5.05000000e-02	2.07832371e-02	8.33394993e-04
5.07500000e-02	2.10656901e-02	8.39441766e-04
5.10000000e-02	2.12767386e-02	8.47737084e-04
5.12500000e-02	2.04389292e-02	8.14759756e-04
5.15000000e-02	2.10724681e-02	8.26862592e-04
5.17500000e-02	2.04981185e-02	8.17246380e-04
5.20000000e-02	2.05909134e-02	8.14561070e-04
5.22500000e-02	2.09541963e-02	8.32458037e-04
5.25000000e-02	2.04422052e-02	8.00733362e-04
5.27500000e-02	2.09763695e-02	8.26198708e-04
5.30000000e-02	2.02394461e-02	7.98352680e-04
5.32500000e-02	2.01743524e-02	7.94785260e-04
5.35000000e-02	2.09602935e-02	8.23030736e-04
5.37500000e-02	2.06596719e-02	8.03876175e-04
5.40000000e-02	2.10267142e-02	8.14520374e-04
5.42500000e-02	2.04606602e-02	7.94548247e-04
5.45000000e-02	2.04568666e-02	7.97555380e-04
5.47500000e-02	2.05179818e-02	7.90140304e-04
5.50000000e-02	2.04480790e-02	7.99311184e-04
5.52500000e-02	2.04193395e-02	7.85694091e-04
5.55000000e-02	2.02858845e-02	7.77845702e-04
5.57500000e-02	2.10287550e-02	8.08679944e-04
5.60000000e-02	2.04021055e-02	7.84503580e-04
5.62500000e-02	2.05673562e-02	7.98918589e-04
5.65000000e-02	2.05462671e-02	7.85719524e-04
5.67500000e-02	2.11003638e-02	8.12133771e-04
5.70000000e-02	2.02744407e-02	7.72489073e-04
5.72500000e-02	2.12028805e-02	8.03914942e-04
5.75000000e-02	2.06912214e-02	7.89684646e-04
5.77500000e-02	2.02289241e-02	7.65703877e-04
5.80000000e-02	1.99029391e-02	7.52724309e-04
5.82500000e-02	2.01099210e-02	7.55932628e-04
5.85000000e-02	2.04374714e-02	7.70834986e-04
5.87500000e-02	2.03866384e-02	7.68069728e-04
5.90000000e-02	1.96259313e-02	7.37583545e-04
5.92500000e-02	2.06211747e-02	7.69335350e-04
5.95000000e-02	2.02363360e-02	7.53304933e-04
5.97500000e-02	2.03985103e-02	7.68190513e-04
6.00000000e-02	2.05778474e-02	7.68849495e-04
6.02500000e-02	2.05474068e-02	7.65441996e-04
6.05000000e-02	2.06947793e-02	7.60163896e-04
6.07500000e-02	2.10422733e-02	7.82834731e-04
6.10000000e-02	2.03271678e-02	7.49310069e-04
6.12500000e-02	2.02374737e-02	7.51363952e-04
6.15000000e-02	2.04009592e-02	7.48615574e-04
6.17500000e-02	2.00721271e-02	7.39747805e-04
6.20000000e-02	2.01702735e-02	7.45032555e-04
6.22500000e-02	2.03110004e-02	7.48859314e-04
6.25000000e-02	2.02452750e-02	7.40993760e-04
6.27500000e-02	2.03323589e-02	7.39327129e-04
6.30000000e-02	1.96690749e-02	7.17306724e-04
6.32500000e-02	1.99798575e-02	7.29372579e-04
6.35000000e-02	2.00868429e-02	7.38534950e-04
6.37500000e-02	2.04621174e-02	7.45991398e-04
6.40000000e-02	2.00544931e-02	7.42001314e-04
6.42500000e-02	2.04922592e-02	7.38971397e-04
6.45000000e-02	2.00589175e-02	7.26914338e-04
6.47500000e-02	2.00013313e-02	7.21275777e-04
6.50000000e-02	2.00013304e-02	7.27401312e-04
6.52500000e-02	2.04477265e-02	7.38286259e-04
6.55000000e-02	2.01414734e-02	7.27050766e-04
6.57500000e-02	1.96594217e-02	7.08345147e-04
6.60000000e-02	1.99085539e-02	7.14538425e-04
6.62500000e-02	2.08570194e-02	7.48579949e-04
6.65000000e-02	2.03631125e-02	7.27051041e-04
6.67500000e-02	1.99352057e-02	7.13205615e-04
6.70000000e-02	1.98729470e-02	7.12356986e-04
6.72500000e-02	2.03026541e-02	7.25741780e-04
6.75000000e-02	2.03936090e-02	7.21500215e-04
6.77500000e-02	2.02520412e-02	7.14947786e-04
6.80000000e-02	2.00672520e-02	7.09741083e-04
6.82500000e-02	2.00667045e-02	7.13756537e-04
6.85000000e-02	1.99609336e-02	7.13545799e-04
6.87500000e-02	2.06188088e-02	7.22016294e-04
6.90000000e-02	1.98974412e-02	7.06460710e-04
6.92500000e-02	1.98036121e-02	6.96188076e-04
6.95000000e-02	1.97669786e-02	6.98230306e-04
6.97500000e-02	2.00064110e-02	7.02601236e-04
7.00000000e-02	1.94187606e-02	6.88449573e-04
7.02500000e-02	1.97772879e-02	6.89912545e-04
7.05000000e-02	2.02584082e-02	7.02226979e-04
7.07500000e-02	1.97848082e-02	6.93973815e-04
7.10000000e-02	2.00304615e-02	7.01175334e-04
7.12500000e-02	1.97449900e-02	6.91077365e-04
7.15000000e-02	1.99343554e-02	6.87316089e-04
7.17500000e-02	2.03575533e-02	7.03881562e-04
7.20000000e-02	1.96972451e-02	6.83424127e-04
7.22500000e-02	1.98291392e-02	6.89825236e-04
7.25000000e-02	1.98824931e-02	6.91758435e-04
7.27500000e-02	1.96911983e-02	6.79597502e-04
7.30000000e-02	1.98160567e-02	6.87458361e-04
7.32500000e-02	1.99264869e-02	6.80069526e-04
7.35000000e-02	2.02430301e-02	6.98725574e-04
7.37500000e-02	2.00342583e-02	6.79378917e-04
7.40000000e-02	2.00250437e-02	6.89083606e-04
7.42500000e-02	2.01002004e-02	6.92600721e-04
7.45000000e-02	1.97174072e-02	6.79944651e-04
7.47500000e-02	1.98210799e-02	6.74395606e-04
7.50000000e-02	2.01033708e-02	6.82931596e-04
7.52500000e-02	2.00016530e-02	6.79636178e-04
7.55000000e-02	2.05790025e-02	6.90556781e-04
7.57500000e-02	2.02038497e-02	6.84025575e-04
7.60000000e-02	1.98639731e-02	6.74895835e-04
7.62500000e-02	1.98687068e-02	6.72418689e-04
7.65000000e-02	1.95401805e-02	6.63383043e-04
7.67500000e-02	1.96472282e-02	6.62686154e-04
7.70000000e-02	1.99296463e-02	6.66253876e-04
7.72500000e-02	2.03489633e-02	6.95844146e-04
7.75000000e-02	1.96821124e-02	6.76823306e-04
7.77500000e-02	2.00407533e-02	6.91807389e-04
7.80000000e-02	2.03908399e-02	7.12634465e-04
7.82500000e-02	2.02635694e-02	7.09930239e-04
7.85000000e-02	2.00774279e-02	7.08287061e-04
7.87500000e-02	2.02500768e-02	7.16797162e-04
7.90000000e-02	2.03347284e-02	7.19630124e-04
7.92500000e-02	1.99519876e-02	7.10775309e-04
7.95000000e-02	1.97637527e-02	6.97328161e-04
7.97500000e-02	1.94882938e-02	7.02048788e-04
8.00000000e-02	2.01353945e-02	7.21986218e-04
8.02500000e-02	1.98480759e-02	7.17370207e-04
8.05000000e-02	1.96745309e-02	7.04272922e-04
8.07500000e-02	1.98402165e-02	7.19863318e-04
8.10000000e-02	1.99976220e-02	7.23673216e-04
8.12500000e-02	2.06422270e-02	7.49680890e-04
8.15000000e-02	1.97791787e-02	7.13418493e-04
8.17500000e-02	1.99712227e-02	7.27598176e-04
8.20000000e-02	2.00135841e-02	7.25830053e-04
8.22500000e-02	2.01304383e-02	7.31574598e-04
8.25000000e-02	2.00723231e-02	7.33313965e-04
8.27500000e-02	2.00771676e-02	7.26100159e-04
8.30000000e-02	1.95955218e-02	7.21902224e-04
8.32500000e-02	1.96050124e-02	7.18735104e-04
8.35000000e-02	2.00689240e-02	7.40091958e-04
8.37500000e-02	1.99555075e-02	7.29129807e-04
8.40000000e-02	1.89270145e-02	6.98921933e-04
8.42500000e-02	1.99001605e-02	7.30050296e-04
8.45000000e-02	1.95177030e-02	7.19790247e-04
8.47500000e-02	1.98008992e-02	7.31029171e-04
8.50000000e-02	1.95386454e-02	7.14487679e-04
8.52500000e-02	1.95571162e-02	7.26475733e-04
8.55000000e-02	1.96009832e-02	7.27338570e-04
8.57500000e-02	1.94695596e-02	7.24172150e-04
8.60000000e-02	1.99871368e-02	7.44413048e-04
8.62500000e-02	2.00693112e-02	7.43573650e-04
8.65000000e-02	1.94999174e-02	7.21602768e-04
8.67500000e-02	1.98140931e-02	7.24454960e-04
8.70000000e-02	1.94309979e-02	7.07881010e-04
8.72500000e-02	2.02027977e-02	7.16780751e-04
8.75000000e-02	1.97729124e-02	7.03113769e-04
8.77500000e-02	1.99588128e-02	7.02043753e-04
8.80000000e-02	2.01372807e-02	7.10983567e-04
8.82500000e-02	1.98858063e-02	7.04063720e-04
8.85000000e-02	1.97340348e-02	6.90290082e-04
8.87500000e-02	1.95598444e-02	6.67848134e-04
8.90000000e-02	2.00465473e-02	6.92224881e-04
8.92500000e-02	1.97611498e-02	6.78614390e-04
8.95000000e-02	1.99227545e-02	6.80141381e-04
8.97500000e-02	1.95889532e-02	6.65282190e-04
9.00000000e-02	2.02516108e-02	6.80897328e-04
9.02500000e-02	1.97491467e-02	6.70345354e-04
9.05000000e-02	1.96755424e-02	6.67368391e-04
9.07500000e-02	2.02912134e-02	6.79946308e-04
9.10000000e-02	1.97232552e-02	6.62562156e-04
9.12500000e-02	1.99223538e-02	6.65229806e-04
9.15000000e-02	2.01831598e-02	6.79184644e-04
9.17500000e-02	1.96555980e-02	6.63319014e-04
9.20000000e-02	1.96022872e-02	6.57403653e-04
9.22500000e-02	1.89856897e-02	6.34068768e-04
9.25000000e-02	1.96826118e-02	6.49783705e-04
9.27500000e-02	1.95984626e-02	6.51746524e-04
9.30000000e-02	1.96002476e-02	6.47499235e-04
9.32500000e-02	2.02408840e-02	6.69968114e-04
9.35000000e-02	1.99125609e-02	6.56440448e-04
9.37500000e-02	1.99818822e-02	6.51377181e-04
9.40000000e-02	2.00077967e-02	6.56892182e-04
9.42500000e-02	2.00547084e-02	6.60128246e-04
9.45000000e-02	1.95132725e-02	6.40949494e-04
9.47500000e-02	1.98753968e-02	6.43080755e-04
9.50000000e-02	1.96139968e-02	6.42201841e-04
9.52500000e-02	1.99358846e-02	6.46803485e-04
9.55000000e-02	1.97726194e-02	6.41155588e-04
9.57500000e-02	2.05132274e-02	6.65708138e-04
9.60000000e-02	1.95399080e-02	6.33800662e-04
9.62500000e-02	1.95119216e-02	6.35872365e-04
9.65000000e-02	1.97585817e-02	6.40325392e-04
9.67500000e-02	1.97725791e-02	6.32948455e-04
9.70000000e-02	1.98632554e-02	6.37976900e-04
9.72500000e-02	1.98475254e-02	6.38649721e-04
9.75000000e-02	1.94600402e-02	6.25839971e-04
9.77500000e-02	1.96401557e-02	6.30592201e-04
9.80000000e-02	1.95350926e-02	6.29279265e-04
9.82500000e-02	1.97019530e-02	6.32073792e-04
9.85000000e-02	1.93615803e-02	6.17671959e-04
9.87500000e-02	2.00803084e-02	6.36702270e-04
9.90000000e-02	1.97184147e-02	6.26976408e-04
9.92500000e-02	1.98060921e-02	6.27486565e-04
9.95000000e-02	1.98279662e-02	6.25810152e-04
9.97500000e-02	1.93180466e-02	6.13188754e-04
1.00000000e-01	1.95693699e-02	5.03463363e-04
1.00500000e-01	1.97490639e-02	4.42063037e-04
1.01000000e-01	1.98317277e-02	4.41776774e-04
1.01500000e-01	1.95964853e-02	4.35131456e-04
1.02000000e-01	1.96398309e-02	4.34194514e-04
1.02500000e-01	1.98447551e-02	4.34664241e-04
1.03000000e-01	1.97367285e-02	4.33651109e-04
1.03500000e-01	1.96816554e-02	4.28921869e-04
1.04000000e-01	1.96379954e-02	4.28981889e-04
1.04500000e-01	1.95562556e-02	4.25417085e-04
1.05000000e-01	1.97166620e-02	4.27595181e-04
1.05500000e-01	1.94929715e-02	4.22538804e-04
1.06000000e-01	1.96964316e-02	4.25503363e-04
1.06500000e-01	1.94564777e-02	4.18404488e-04
1.07000000e-01	1.97253823e-02	4.31433412e-04
1.07500000e-01	1.95381543e-02	4.33286733e-04
1.08000000e-01	1.95911357e-02	4.41202407e-04
1.08500000e-01	2.01064182e-02	4.54275884e-04
1.09000000e-01	1.96979638e-02	4.46497879e-04
1.09500000e-01	1.93093681e-02	4.39493103e-04
1.10000000e-01	1.95928437e-02	4.44105695e-04
1.10500000e-01	1.99935795e-02	4.37991625e-04
1.11000000e-01	1.97400310e-02	4.28098701e-04
1.11500000e-01	1.99494707e-02	4.28238008e-04
1.12000000e-01	1.95917054e-02	4.20079914e-04
1.12500000e-01	2.00052410e-02	4.24113930e-04
1.13000000e-01	1.97507144e-02	4.17690694e-04
1.13500000e-01	1.96797034e-02	4.17004052e-04
1.14000000e-01	1.96707377e-02	4.13793153e-04
1.14500000e-01	1.97155523e-02	4.11882263e-04
1.15000000e-01	1.96064241e-02	4.09464589e-04
1.15500000e-01	1.95607745e-02	4.10351737e-04
1.16000000e-01	1.97227390e-02	4.10357067e-04
1.16500000e-01	1.94456801e-02	4.05266313e-04
1.17000000e-01	1.96309658e-02	4.06312852e-04
1.17500000e-01	1.97273316e-02	4.06768691e-04
1.18000000e-01	1.94534702e-02	4.01644964e-04
1.18500000e-01	1.95519189e-02	4.01848620e-04
1.19000000e-01	2.00126962e-02	4.10751394e-04
1.19500000e-01	1.94071632e-02	3.96982800e-04
1.20000000e-01	1.95465369e-02	3.99639066e-04
1.20500000e-01	1.96533393e-02	4.00226831e-04
1.21000000e-01	1.95102746e-02	3.97275398e-04
1.21500000e-01	1.92998838e-02	3.93615799e-04
1.22000000e-01	1.95677033e-02	3.95089122e-04
1.22500000e-01	1.94349641e-02	3.93720418e-04
1.23000000e-01	1.98288908e-02	4.00264316e-04
1.23500000e-01	1.96169555e-02	3.94973816e-04
1.24000000e-01	1.93881764e-02	3.90868082e-04
1.24500000e-01	1.96511951e-02	3.92903496e-04
1.25000000e-01	1.97018713e-02	3.94819003e-04
1.25500000e-01	1.95931324e-02	3.90800522e-04
1.26000000e-01	1.95471391e-02	3.89783773e-04
1.26500000e-01	1.96781846e-02	3.90116861e-04
1.27000000e-01	1.95147485e-02	3.87335181e-04
1.27500000e-01	1.95489647e-02	3.86293154e-04
1.28000000e-01	1.98444860e-02	3.89917219e-04
1.28500000e-01	1.96115630e-02	3.85834158e-04
1.29000000e-01	1.94133001e-02	3.81341661e-04
1.29500000e-01	1.94587080e-02	3.79680863e-04
1.30000000e-01	1.94408161e-02	3.80352366e-04
1.30500000e-01	1.94867076e-02	3.79491421e-04
1.31000000e-01	1.93687422e-02	3.78126281e-04
1.31500000e-01	1.96135226e-02	3.81489827e-04
1.32000000e-01	1.96260770e-02	3.79677256e-04
1.32500000e-01	1.99305498e-02	3.84630264e-04
1.33000000e-01	1.97277837e-02	3.80353727e-04
1.33500000e-01	1.95712469e-02	3.74675897e-04
1.34000000e-01	1.96531514e-02	3.76687227e-04
1.34500000e-01	1.99399646e-02	3.79378814e-04
1.35000000e-01	1.95758968e-02	3.73171149e-04
1.35500000e-01	1.98339485e-02	3.75875342e-04
1.36000000e-01	1.96297950e-02	3.71844783e-04
1.36500000e-01	1.96612177e-02	3.73890479e-04
1.37000000e-01	1.97260939e-02	3.72456648e-04
1.37500000e-01	1.96900751e-02	3.71273714e-04
1.38000000e-01	1.94852950e-02	3.69454710e-04
1.38500000e-01	1.97000921e-02	3.72881306e-04
1.39000000e-01	1.96019021e-02	3.70152800e-04
1.39500000e-01	1.95218963e-02	3.67054624e-04
1.40000000e-01	1.96189985e-02	3.68968735e-04
1.40500000e-01	1.93916547e-02	3.64938860e-04
1.41000000e-01	1.96889247e-02	3.69714575e-04
1.41500000e-01	1.95872577e-02	3.66986792e-04
1.42000000e-01	1.96244216e-02	3.67426568e-04
1.42500000e-01	1.94585349e-02	3.64315259e-04
1.43000000e-01	1.96199163e-02	3.66402320e-04
1.43500000e-01	1.91512594e-02	3.57748838e-04
1.44000000e-01	1.94851114e-02	3.61042592e-04
1.44500000e-01	1.96059057e-02	3.61770826e-04
1.45000000e-01	1.97462250e-02	3.66291713e-04
1.45500000e-01	1.92975734e-02	3.55167898e-04
1.46000000e-01	1.94179621e-02	3.58956059e-04
1.46500000e-01	1.91287587e-02	3.53235528e-04
1.47000000e-01	1.93508704e-02	3.56053661e-04
1.47500000e-01	1.94254181e-02	3.56491828e-04
1.48000000e-01	1.94078984e-02	3.55741783e-04
1.48500000e-01	1.91772997e-02	3.52028328e-04
1.49000000e-01	1.94455600e-02	3.54912245e-04
1.49500000e-01	1.91977363e-02	3.50264613e-04
1.50000000e-01	1.94022816e-02	3.53963091e-04
1.50500000e-01	1.95639751e-02	3.56845201e-04
1.51000000e-01	1.97295100e-02	3.58634833e-04
1.51500000e-01	1.94097611e-02	3.49801745e-04
1.52000000e-01	1.92943291e-02	3.47005815e-04
1.52500000e-01	1.92002991e-02	3.46089272e-04
1.53000000e-01	1.92863859e-02	3.48917507e-04
1.53500000e-01	1.92027905e-02	3.45564326e-04
1.54000000e-01	1.93168690e-02	3.44734792e-04
1.54500000e-01	1.92606443e-02	3.51689742e-04
1.55000000e-01	1.91570386e-02	3.55511173e-04
1.55500000e-01	1.91943861e-02	3.57356072e-04
1.56000000e-01	1.95777189e-02	3.66196112e-04
1.56500000e-01	1.91938343e-02	3.61134957e-04
1.57000000e-01	1.93123445e-02	3.61647797e-04
1.57500000e-01	1.86756967e-02	3.43721054e-04
1.58000000e-01	1.93156851e-02	3.51476255e-04
1.58500000e-01	1.89795824e-02	3.44917392e-04
1.59000000e-01	1.91817864e-02	3.42539016e-04
1.59500000e-01	1.94318489e-02	3.48693946e-04
1.60000000e-01	1.91062165e-02	3.43308160e-04
1.60500000e-01	1.91700436e-02	3.41915832e-04
1.61000000e-01	1.91429229e-02	3.41543829e-04
1.61500000e-01	1.94187417e-02	3.44799993e-04
1.62000000e-01	1.88564538e-02	3.33158040e-04
1.62500000e-01	1.90798267e-02	3.37246404e-04
1.63000000e-01	1.91772599e-02	3.38132847e-04
1.63500000e-01	1.90990943e-02	3.37876854e-04
1.64000000e-01	1.90146595e-02	3.34348248e-04
1.64500000e-01	1.90363556e-02	3.35535142e-04
1.65000000e-01	1.94387204e-02	3.39822084e-04
1.65500000e-01	1.91166735e-02	3.34349657e-04
1.66000000e-01	1.91278456e-02	3.35233929e-04
1.66500000e-01	1.91382327e-02	3.33413224e-04
1.67000000e-01	1.89309449e-02	3.30040113e-04
1.67500000e-01	1.90426953e-02	3.30863080e-04
1.68000000e-01	1.88771251e-02	3.27307945e-04
1.68500000e-01	1.89152175e-02	3.29795979e-04
1.69000000e-01	1.87301496e-02	3.24280129e-04
1.69500000e-01	1.90525009e-02	3.27652716e-04
1.70000000e-01	1.89139673e-02	3.26549356e-04
1.70500000e-01	1.88647182e-02	3.25920142e-04
1.71000000e-01	1.90598485e-02	3.28428187e-04
1.71500000e-01	1.90634765e-02	3.26742651e-04
1.72000000e-01	1.87847306e-02	3.22592526e-04
1.72500000e-01	1.89419892e-02	3.23992249e-04
1.73000000e-01	1.86687448e-02	3.20962632e-04
1.73500000e-01	1.87006856e-02	3.18365915e-04
1.74000000e-01	1.88559421e-02	3.19320270e-04
1.74500000e-01	1.87384206e-02	3.16982742e-04
1.75000000e-01	1.91137058e-02	3.21508878e-04
1.75500000e-01	1.87300457e-02	3.15532869e-04
1.76000000e-01	1.87513299e-02	3.16586163e-04
1.76500000e-01	1.89132648e-02	3.19112408e-04
1.77000000e-01	1.86388083e-02	3.13318361e-04
1.77500000e-01	1.87834154e-02	3.14777103e-04
1.78000000e-01	1.88361912e-02	3.16392639e-04
1.78500000e-01	1.87679134e-02	3.15593815e-04
1.79000000e-01	1.84981086e-02	3.09949966e-04
1.79500000e-01	1.89145550e-02	3.17504856e-04
1.80000000e-01	1.88252050e-02	3.16210488e-04
1.80500000e-01	1.87316415e-02	3.13861002e-04
1.81000000e-01	1.86280884e-02	3.11989477e-04
1.81500000e-01	1.87187177e-02	3.12993485e-04
1.82000000e-01	1.88367708e-02	3.13970957e-04
1.82500000e-01	1.85726610e-02	3.09483610e-04
1.83000000e-01	1.87326278e-02	3.11204648e-04
1.83500000e-01	1.87244570e-02	3.10815311e-04
1.84000000e-01	1.86901314e-02	3.10676958e-04
1.84500000e-01	1.87843732e-02	3.12276537e-04
1.85000000e-01	1.85972032e-02	3.09139213e-04
1.85500000e-01	1.85655083e-02	3.06573811e-04
1.86000000e-01	1.87530225e-02	3.07858978e-04
1.86500000e-01	1.85480229e-02	3.06398483e-04
1.87000000e-01	1.86501777e-02	3.07326965e-04
1.87500000e-01	1.85567569e-02	3.04932817e-04
1.88000000e-01	1.85000348e-02	3.03809544e-04
1.88500000e-01	1.85516836e-02	3.03496348e-04
1.89000000e-01	1.83537533e-02	3.00792588e-04
1.89500000e-01	1.84339401e-02	3.02069024e-04
1.90000000e-01	1.86470703e-02	3.05267251e-04
1.90500000e-01	1.85298669e-02	3.02972379e-04
1.91000000e-01	1.84372374e-02	3.01116358e-04
1.91500000e-01	1.84463032e-02	3.00888096e-04
1.92000000e-01	1.83633635e-02	2.98942225e-04
1.92500000e-01	1.83562148e-02	2.98377070e-04
1.93000000e-01	1.83407251e-02	2.99069292e-04
1.93500000e-01	1.86761124e-02	3.02948883e-04
1.94000000e-01	1.84463631e-02	2.98274246e-04
1.94500000e-01	1.83432308e-02	2.96611611e-04
1.95000000e-01	1.82269342e-02	2.95420407e-04
1.95500000e-01	1.83714472e-02	2.95879979e-04
1.96000000e-01	1.81211240e-02	2.91432157e-04
1.96500000e-01	1.79265222e-02	2.90341147e-04
1.97000000e-01	1.83808522e-02	2.95821457e-04
1.97500000e-01	1.83778392e-02	2.96692858e-04
1.98000000e-01	1.82773806e-02	2.93079015e-04
1.98500000e-01	1.84685317e-02	2.95779437e-04
1.99000000e-01	1.83693120e-02	2.93395312e-04
1.99500000e-01	1.82594585e-02	2.91700610e-04
2.00000000e-01	1.81195696e-02	2.90458388e-04
2.00500000e-01	1.83204874e-02	2.92720423e-04
2.01000000e-01	1.81950079e-02	2.89219448e-04
2.01500000e-01	1.81107360e-02	2.87930697e-04
2.02000000e-01	1.84720573e-02	2.93348640e-04
2.02500000e-01	1.83523476e-02	2.90480401e-04
2.03000000e-01	1.81697666e-02	2.88472328e-04
2.03500000e-01	1.82537780e-02	2.88063710e-04
2.04000000e-01	1.84508962e-02	2.91348754e-04
2.04500000e-01	1.80601312e-02	2.86077622e-04
2.05000000e-01	1.82698977e-02	2.88031788e-04
2.05500000e-01	1.80651907e-02	2.84611233e-04
2.06000000e-01	1.83263980e-02	2.87655547e-04
2.06500000e-01	1.82114088e-02	2.86314128e-04
2.07000000e-01	1.83038655e-02	2.86889902e-04
2.07500000e-01	1.82199767e-02	2.84664658e-04
2.08000000e-01	1.82052294e-02	2.85547328e-04
2.08500000e-01	1.81231787e-02	2.82478320e-04
2.09000000e-01	1.79426050e-02	2.81094685e-04
2.09500000e-01	1.81634617e-02	2.83617988e-04
2.10000000e-01	1.80868408e-02	2.82456401e-04
2.10500000e-01	1.80653763e-02	2.82567440e-04
2.11000000e-01	1.81322223e-02	2.79933675e-04
2.11500000e-01	1.80726955e-02	2.81563931e-04
2.12000000e-01	1.81006768e-02	2.80466090e-04
2.12500000e-01	1.81727361e-02	2.81731291e-04
2.13000000e-01	1.80438764e-02	2.80056782e-04
2.13500000e-01	1.81371893e-02	2.80472920e-04
2.14000000e-01	1.82619608e-02	2.82264177e-04
2.14500000e-01	1.80942605e-02	2.78340514e-04
2.15000000e-01	1.81329673e-02	2.81047348e-04
2.15500000e-01	1.81032889e-02	2.78432995e-04
2.16000000e-01	1.80463736e-02	2.77862812e-04
2.16500000e-01	1.77777985e-02	2.73481252e-04
2.17000000e-01	1.78996254e-02	2.79076258e-04
2.17500000e-01	1.78027652e-02	2.82957754e-04
2.18000000e-01	1.78130780e-02	2.83012882e-04
2.18500000e-01	1.80557573e-02	2.87485528e-04
2.19000000e-01	1.80000880e-02	2.88753024e-04
2.19500000e-01	1.80386389e-02	2.90125195e-04
2.20000000e-01	1.79562430e-02	2.90279434e-04
2.20500000e-01	1.79099150e-02	2.90667076e-04
2.21000000e-01	1.79548821e-02	2.91590684e-04
2.21500000e-01	1.79976877e-02	2.93911372e-04
2.22000000e-01	1.79975673e-02	2.93477414e-04
2.22500000e-01	1.79941548e-02	2.94899986e-04
2.23000000e-01	1.81072279e-02	2.96186570e-04
2.23500000e-01	1.80822486e-02	2.97731915e-04
2.24000000e-01	1.79544554e-02	2.96222946e-04
2.24500000e-01	1.80162232e-02	2.98359621e-04
2.25000000e-01	1.79296271e-02	2.97065926e-04
2.25500000e-01	1.77772030e-02	2.94538690e-04
2.26000000e-01	1.80666525e-02	3.00290860e-04
2.26500000e-01	1.79712444e-02	2.93950226e-04
2.27000000e-01	1.78917147e-02	2.89379941e-04
2.27500000e-01	1.81012314e-02	2.90917920e-04
2.28000000e-01	1.79222750e-02	2.86423150e-04
2.28500000e-01	1.78027076e-02	2.82855693e-04
2.29000000e-01	1.80202360e-02	2.84623485e-04
2.29500000e-01	1.78696816e-02	2.82191353e-04
2.30000000e-01	1.79375300e-02	2.82753439e-04
2.30500000e-01	1.78043092e-02	2.78562302e-04
2.31000000e-01	1.80051517e-02	2.81938691e-04
2.31500000e-01	1.81203513e-02	2.82228430e-04
2.32000000e-01	1.79647777e-02	2.79783816e-04
2.32500000e-01	1.78561121e-02	2.77654350e-04
2.33000000e-01	1.79319153e-02	2.78102165e-04
2.33500000e-01	1.78712839e-02	2.75973424e-04
2.34000000e-01	1.79408247e-02	2.76355181e-04
2.34500000e-01	1.79055898e-02	2.75422050e-04
2.35000000e-01	1.77597482e-02	2.73119311e-04
2.35500000e-01	1.76592883e-02	2.70373250e-04
2.36000000e-01	1.75304800e-02	2.68872780e-04
2.36500000e-01	1.76030721e-02	2.70345041e-04
2.37000000e-01	1.78793521e-02	2.72051379e-04
2.37500000e-01	1.77566893e-02	2.70713213e-04
2.38000000e-01	1.76099297e-02	2.67906581e-04
2.38500000e-01	1.78477101e-02	2.70669642e-04
2.39000000e-01	1.77089964e-02	2.68744027e-04
2.39500000e-01	1.72683423e-02	2.63082748e-04
2.40000000e-01	1.76505576e-02	2.66453890e-04
2.40500000e-01	1.76813758e-02	2.65471743e-04
2.41000000e-01	1.77652383e-02	2.67450014e-04
2.41500000e-01	1.77398380e-02	2.66183115e-04
2.42000000e-01	1.77951363e-02	2.66659401e-04
2.42500000e-01	1.76585917e-02	2.64814281e-04
2.43000000e-01	1.75703088e-02	2.63081509e-04
2.43500000e-01	1.75869821e-02	2.62854155e-04
2.44000000e-01	1.77427778e-02	2.64976959e-04
2.44500000e-01	1.76173615e-02	2.62118668e-04
2.45000000e-01	1.76207623e-02	2.61009010e-04
2.45500000e-01	1.76175744e-02	2.61474290e-04
2.46000000e-01	1.75058175e-02	2.59785595e-04
2.46500000e-01	1.76210372e-02	2.61729994e-04
2.47000000e-01	1.75440411e-02	2.60124394e-04
2.47500000e-01	1.74428561e-02	2.56853298e-04
2.48000000e-01	1.75569972e-02	2.59104070e-04
2.48500000e-01	1.76604901e-02	2.60073039e-04
2.49000000e-01	1.74842438e-02	2.57745395e-04
2.49500000e-01	1.75148760e-02	2.58867710e-04
2.50000000e-01	1.75858573e-02	2.58031902e-04
2.50500000e-01	1.74181895e-02	2.56817084e-04
2.51000000e-01	1.72161619e-02	2.52550252e-04
2.51500000e-01	1.73835477e-02	2.55446602e-04
2.52000000e-01	1.73782156e-02	2.54787806e-04
2.52500000e-01	1.75752090e-02	2.57189309e-04
2.53000000e-01	1.75357532e-02	2.56800406e-04
2.53500000e-01	1.74822924e-02	2.54624579e-04
2.54000000e-01	1.74169449e-02	2.54936815e-04
2.54500000e-01	1.74369599e-02	2.55563934e-04
2.55000000e-01	1.76819821e-02	2.56969948e-04
2.55500000e-01	1.71752776e-02	2.50603750e-04
2.56000000e-01	1.73975872e-02	2.52423414e-04
2.56500000e-01	1.72471448e-02	2.50844783e-04
2.57000000e-01	1.72655744e-02	2.49279906e-04
2.57500000e-01	1.71454311e-02	2.47663370e-04
2.58000000e-01	1.73488294e-02	2.51489190e-04
2.58500000e-01	1.76584053e-02	2.54824080e-04
2.59000000e-01	1.75065178e-02	2.52702070e-04
2.59500000e-01	1.72788535e-02	2.49180493e-04
2.60000000e-01	1.72309516e-02	2.49249884e-04
2.60500000e-01	1.74253250e-02	2.50180324e-04
2.61000000e-01	1.73721707e-02	2.48856628e-04
2.61500000e-01	1.72999063e-02	2.48196112e-04
2.62000000e-01	1.73668518e-02	2.49113319e-04
2.62500000e-01	1.70299760e-02	2.44172325e-04
2.63000000e-01	1.70532806e-02	2.43861069e-04
2.63500000e-01	1.75025791e-02	2.49927300e-04
2.64000000e-01	1.72893681e-02	2.48162081e-04
2.64500000e-01	1.70602025e-02	2.43428985e-04
2.65000000e-01	1.74932106e-02	2.48896600e-04
2.65500000e-01	1.74398833e-02	2.48443961e-04
2.66000000e-01	1.72266580e-02	2.44606852e-04
2.66500000e-01	1.71806028e-02	2.43915715e-04
2.67000000e-01	1.70522020e-02	2.41684619e-04
2.67500000e-01	1.73876665e-02	2.45340344e-04
2.68000000e-01	1.72209403e-02	2.44135435e-04
2.68500000e-01	1.70472328e-02	2.40972212e-04
2.69000000e-01	1.73269414e-02	2.44445362e-04
2.69500000e-01	1.71100016e-02	2.41243383e-04
2.70000000e-01	1.72842460e-02	2.43401872e-04
2.70500000e-01	1.72128012e-02	2.42774032e-04
2.71000000e-01	1.71094954e-02	2.40647601e-04
2.71500000e-01	1.70813108e-02	2.40533082e-04
2.72000000e-01	1.70203232e-02	2.39448668e-04
2.72500000e-01	1.69682447e-02	2.38038786e-04
2.73000000e-01	1.68570976e-02	2.36103066e-04
2.73500000e-01	1.72630001e-02	2.40567325e-04
2.74000000e-01	1.70799058e-02	2.38821844e-04
2.74500000e-01	1.71241925e-02	2.38792417e-04
2.75000000e-01	1.68823091e-02	2.36316894e-04
2.75500000e-01	1.70998300e-02	2.39044113e-04
2.76000000e-01	1.70586763e-02	2.37867944e-04
2.76500000e-01	1.72798539e-02	2.41669971e-04
2.77000000e-01	1.71564700e-02	2.38387384e-04
2.77500000e-01	1.69717094e-02	2.36923106e-04
2.78000000e-01	1.73558974e-02	2.40752681e-04
2.78500000e-01	1.73078922e-02	2.40368989e-04
2.79000000e-01	1.70037481e-02	2.36714263e-04
2.79500000e-01	1.69958278e-02	2.35337302e-04
2.80000000e-01	1.71375192e-02	2.37057582e-04
2.80500000e-01	1.68436383e-02	2.33368184e-04
2.81000000e-01	1.70222070e-02	2.35734483e-04
2.81500000e-01	1.70774117e-02	2.35292071e-04
2.82000000e-01	1.70010677e-02	2.34131523e-04
2.82500000e-01	1.70691841e-02	2.35365381e-04
2.83000000e-01	1.69326435e-02	2.32767173e-04
2.83500000e-01	1.70185027e-02	2.34585794e-04
2.84000000e-01	1.70497424e-02	2.34081338e-04
2.84500000e-01	1.69316719e-02	2.33139737e-04
2.85000000e-01	1.69850410e-02	2.32945030e-04
2.85500000e-01	1.70182063e-02	2.32604899e-04
2.86000000e-01	1.69310259e-02	2.32285092e-04
2.86500000e-01	1.70743436e-02	2.33697917e-04
2.87000000e-01	1.69966077e-02	2.33076622e-04
2.87500000e-01	1.69251995e-02	2.30887207e-04
2.88000000e-01	1.68763710e-02	2.29484341e-04
2.88500000e-01	1.68882463e-02	2.30461031e-04
2.89000000e-01	1.69239328e-02	2.30197929e-04
2.89500000e-01	1.67570103e-02	2.27700799e-04
2.90000000e-01	1.69395276e-02	2.29358225e-04
2.90500000e-01	1.70037153e-02	2.31141684e-04
2.91000000e-01	1.67375059e-02	2.27967215e-04
2.91500000e-01	1.70815152e-02	2.30709216e-04
2.92000000e-01	1.68448336e-02	2.28682411e-04
2.92500000e-01	1.67469275e-02	2.26482671e-04
2.93000000e-01	1.69607634e-02	2.28716817e-04
2.93500000e-01	1.67083188e-02	2.25742098e-04
2.94000000e-01	1.66728371e-02	2.24064686e-04
2.94500000e-01	1.67303307e-02	2.26895765e-04
2.95000000e-01	1.69727829e-02	2.28068785e-04
2.95500000e-01	1.69373986e-02	2.28080488e-04
2.96000000e-01	1.66907141e-02	2.24557974e-04
2.96500000e-01	1.68035130e-02	2.25886283e-04
2.97000000e-01	1.69184792e-02	2.27839662e-04
2.97500000e-01	1.69219422e-02	2.26078450e-04
2.98000000e-01	1.67984125e-02	2.25638487e-04
2.98500000e-01	1.70099019e-02	2.27368699e-04
2.99000000e-01	1.65247867e-02	2.22366932e-04
2.99500000e-01	1.67220787e-02	2.23671023e-04
3.00000000e-01	1.67159757e-02	2.24188446e-04
3.00500000e-01	1.66549178e-02	2.22919637e-04
3.01000000e-01	1.69120158e-02	2.24779638e-04
3.01500000e-01	1.66196432e-02	2.22409040e-04
3.02000000e-01	1.66896766e-02	2.21843103e-04
3.02500000e-01	1.65097205e-02	2.19969868e-04
3.03000000e-01	1.65614822e-02	2.20509314e-04
3.03500000e-01	1.66778707e-02	2.21691531e-04
3.04000000e-01	1.64992712e-02	2.20050916e-04
3.04500000e-01	1.67630144e-02	2.21466234e-04
3.05000000e-01	1.67497058e-02	2.21217021e-04
3.05500000e-01	1.65901377e-02	2.20005481e-04
3.06000000e-01	1.67588867e-02	2.20745570e-04
3.06500000e-01	1.67916515e-02	2.22262467e-04
3.07000000e-01	1.65944530e-02	2.18671551e-04
3.07500000e-01	1.64453330e-02	2.16867145e-04
3.08000000e-01	1.67409243e-02	2.20348791e-04
3.08500000e-01	1.68578205e-02	2.20610803e-04
3.09000000e-01	1.66574416e-02	2.19490399e-04
3.09500000e-01	1.67792714e-02	2.20130335e-04
3.10000000e-01	1.66955768e-02	2.19206364e-04
3.10500000e-01	1.66347083e-02	2.18795611e-04
3.11000000e-01	1.67808562e-02	2.19905457e-04
3.11500000e-01	1.66645891e-02	2.19007525e-04
3.12000000e-01	1.66436713e-02	2.17800345e-04
3.12500000e-01	1.65950964e-02	2.17488346e-04
3.13000000e-01	1.64412636e-02	2.14815837e-04
3.13500000e-01	1.66963626e-02	2.17577829e-04
3.14000000e-01	1.63918313e-02	2.14646580e-04
3.14500000e-01	1.64146091e-02	2.14611596e-04
3.15000000e-01	1.63686764e-02	2.14567350e-04
3.15500000e-01	1.63471312e-02	2.13967972e-04
3.16000000e-01	1.64474935e-02	2.14503956e-04
3.16500000e-01	1.65048795e-02	2.15363310e-04
3.17000000e-01	1.65039141e-02	2.14548071e-04
3.17500000e-01	1.65600590e-02	2.15531377e-04
3.18000000e-01	1.63773913e-02	2.13158800e-04
3.18500000e-01	1.63503753e-02	2.12714980e-04
3.19000000e-01	1.64096483e-02	2.12944970e-04
3.19500000e-01	1.63267345e-02	2.12166936e-04
3.20000000e-01	1.63245120e-02	2.11759035e-04
3.20500000e-01	1.64496363e-02	2.13291294e-04
3.21000000e-01	1.62226964e-02	2.10374709e-04
3.21500000e-01	1.65724697e-02	2.13845508e-04
3.22000000e-01	1.64579646e-02	2.12068708e-04
3.22500000e-01	1.62940646e-02	2.10055487e-04
3.23000000e-01	1.63896758e-02	2.11025598e-04
3.23500000e-01	1.62633755e-02	2.11011073e-04
3.24000000e-01	1.63349434e-02	2.09481309e-04
3.24500000e-01	1.60924368e-02	2.07188790e-04
3.25000000e-01	1.63984501e-02	2.10754206e-04
3.25500000e-01	1.61322098e-02	2.07613961e-04
3.26000000e-01	1.62833279e-02	2.08959502e-04
3.26500000e-01	1.64071482e-02	2.10103826e-04
3.27000000e-01	1.62980891e-02	2.10165310e-04
3.27500000e-01	1.61632282e-02	2.07372534e-04
3.28000000e-01	1.61180625e-02	2.07019537e-04
3.28500000e-01	1.61087558e-02	2.06210316e-04
3.29000000e-01	1.61868602e-02	2.06442072e-04
3.29500000e-01	1.62221246e-02	2.07943358e-04
3.30000000e-01	1.63093386e-02	2.08149056e-04
3.30500000e-01	1.61476090e-02	2.05832181e-04
3.31000000e-01	1.62781281e-02	2.07175177e-04
3.31500000e-01	1.63053442e-02	2.07090720e-04
3.32000000e-01	1.60483755e-02	2.05072073e-04
3.32500000e-01	1.62335338e-02	2.06471287e-04
3.33000000e-01	1.61314718e-02	2.04984630e-04
3.33500000e-01	1.62079714e-02	2.06256709e-04
3.34000000e-01	1.61848712e-02	2.05604804e-04
3.34500000e-01	1.59684947e-02	2.03126793e-04
3.35000000e-01	1.59074808e-02	2.01480373e-04
3.35500000e-01	1.60085838e-02	2.03032628e-04
3.36000000e-01	1.59631856e-02	2.01952617e-04
3.36500000e-01	1.61503791e-02	2.04818495e-04
3.37000000e-01	1.62784494e-02	2.05437631e-04
3.37500000e-01	1.61143463e-02	2.03804146e-04
3.38000000e-01	1.61312061e-02	2.03878443e-04
3.38500000e-01	1.59961507e-02	2.02066497e-04
3.39000000e-01	1.61110231e-02	2.03731272e-04
3.39500000e-01	1.62106921e-02	2.03730065e-04
3.40000000e-01	1.61099009e-02	2.02634545e-04
3.40500000e-01	1.60798861e-02	2.02037823e-04
3.41000000e-01	1.60617458e-02	2.01500772e-04
3.41500000e-01	1.57953773e-02	1.99769479e-04
3.42000000e-01	1.59458865e-02	1.99975662e-04
3.42500000e-01	1.60484206e-02	2.01263003e-04
3.43000000e-01	1.59894374e-02	2.00277210e-04
3.43500000e-01	1.60615354e-02	2.01728757e-04
3.44000000e-01	1.58523690e-02	1.98927837e-04
3.44500000e-01	1.60826863e-02	2.00890742e-04
3.45000000e-01	1.59943703e-02	2.00169556e-04
3.45500000e-01	1.59739572e-02	1.99761709e-04
3.46000000e-01	1.58527355e-02	1.98983599e-04
3.46500000e-01	1.59744223e-02	2.00412607e-04
3.47000000e-01	1.59285371e-02	1.97786387e-04
3.47500000e-01	1.57002954e-02	1.95877074e-04
3.48000000e-01	1.57206145e-02	1.95886733e-04
3.48500000e-01	1.59896927e-02	1.99017685e-04
3.49000000e-01	1.58293206e-02	1.96715092e-04
3.49500000e-01	1.59292189e-02	1.97283300e-04
3.50000000e-01	1.58273171e-02	1.60929079e-04
3.51000000e-01	1.58501813e-02	1.39120754e-04
3.52000000e-01	1.58435362e-02	1.38657365e-04
3.53000000e-01	1.57890235e-02	1.37793469e-04
3.54000000e-01	1.57507708e-02	1.37447532e-04
3.55000000e-01	1.57957307e-02	1.38007045e-04
3.56000000e-01	1.58670874e-02	1.38650957e-04
3.57000000e-01	1.56592558e-02	1.39584841e-04
3.58000000e-01	1.57064426e-02	1.41192345e-04
3.59000000e-01	1.57372403e-02	1.42523354e-04
3.60000000e-01	1.57696952e-02	1.43669332e-04
3.61000000e-01	1.56889164e-02	1.43271470e-04
3.62000000e-01	1.55932664e-02	1.43702872e-04
3.63000000e-01	1.56183348e-02	1.44465119e-04
3.64000000e-01	1.56237542e-02	1.44755106e-04
3.65000000e-01	1.56852233e-02	1.45632366e-04
3.66000000e-01	1.54332818e-02	1.41793448e-04
3.67000000e-01	1.56148105e-02	1.41576061e-04
3.68000000e-01	1.56222309e-02	1.40685943e-04
3.69000000e-01	1.55408794e-02	1.39036206e-04
3.70000000e-01	1.54457971e-02	1.37585010e-04
3.71000000e-01	1.55203754e-02	1.39758396e-04
3.72000000e-01	1.55755062e-02	1.41535321e-04
3.73000000e-01	1.54961469e-02	1.41394227e-04
3.74000000e-01	1.55824553e-02	1.41873455e-04
3.75000000e-01	1.55865795e-02	1.42163213e-04
3.76000000e-01	1.55807818e-02	1.41692177e-04
3.77000000e-01	1.55343440e-02	1.41446551e-04
3.78000000e-01	1.54323972e-02	1.40962317e-04
3.79000000e-01	1.53438662e-02	1.40018413e-04
3.80000000e-01	1.54303018e-02	1.40173025e-04
3.81000000e-01	1.55445236e-02	1.40875807e-04
3.82000000e-01	1.54931465e-02	1.40759308e-04
3.83000000e-01	1.53398559e-02	1.39657509e-04
3.84000000e-01	1.54424970e-02	1.40680519e-04
3.85000000e-01	1.53623795e-02	1.39521953e-04
3.86000000e-01	1.53708417e-02	1.39969097e-04
3.87000000e-01	1.52943048e-02	1.38776111e-04
3.88000000e-01	1.54549059e-02	1.40442993e-04
3.89000000e-01	1.53735452e-02	1.39297608e-04
3.90000000e-01	1.52261984e-02	1.38480869e-04
3.91000000e-01	1.53235784e-02	1.38795343e-04
3.92000000e-01	1.53459408e-02	1.39027980e-04
3.93000000e-01	1.53329579e-02	1.39248973e-04
3.94000000e-01	1.52595708e-02	1.38187802e-04
3.95000000e-01	1.52817458e-02	1.38306184e-04
3.96000000e-01	1.53735775e-02	1.38611622e-04
3.97000000e-01	1.51223074e-02	1.36954392e-04
3.98000000e-01	1.51358707e-02	1.37552445e-04
3.99000000e-01	1.50908503e-02	1.37001421e-04
4.00000000e-01	1.50256574e-02	1.36675265e-04
4.01000000e-01	1.51654493e-02	1.37309022e-04
4.02000000e-01	1.50560338e-02	1.36470114e-04
4.03000000e-01	1.50555257e-02	1.36757926e-04
4.04000000e-01	1.51439006e-02	1.37369007e-04
4.05000000e-01	1.50774024e-02	1.36954114e-04
4.06000000e-01	1.51806168e-02	1.37470926e-04
4.07000000e-01	1.50049203e-02	1.35920531e-04
4.08000000e-01	1.50557600e-02	1.36205459e-04
4.09000000e-01	1.50143128e-02	1.36242831e-04
4.10000000e-01	1.50032991e-02	1.35955042e-04
4.11000000e-01	1.49056992e-02	1.35485970e-04
4.12000000e-01	1.49412598e-02	1.35284344e-04
4.13000000e-01	1.50514439e-02	1.35787326e-04
4.14000000e-01	1.50948968e-02	1.36049761e-04
4.15000000e-01	1.49552207e-02	1.35101004e-04
4.16000000e-01	1.49218350e-02	1.34706145e-04
4.17000000e-01	1.49059605e-02	1.34647897e-04
4.18000000e-01	1.49189897e-02	1.36247315e-04
4.19000000e-01	1.49403518e-02	1.38239293e-04
4.20000000e-01	1.51277832e-02	1.40587779e-04
4.21000000e-01	1.49630864e-02	1.39534335e-04
4.22000000e-01	1.49663082e-02	1.40276431e-04
4.23000000e-01	1.48699602e-02	1.39740338e-04
4.24000000e-01	1.49262440e-02	1.40536394e-04
4.25000000e-01	1.50997753e-02	1.41851636e-04
4.26000000e-01	1.50037204e-02	1.41216585e-04
4.27000000e-01	1.49436783e-02	1.40740434e-04
4.28000000e-01	1.49460851e-02	1.41151738e-04
4.29000000e-01	1.49276221e-02	1.41467971e-04
4.30000000e-01	1.48716203e-02	1.40541648e-04
4.31000000e-01	1.48945893e-02	1.40827118e-04
4.32000000e-01	1.49750193e-02	1.41078328e-04
4.33000000e-01	1.48098758e-02	1.40042941e-04
4.34000000e-01	1.49134791e-02	1.41312616e-04
4.35000000e-01	1.47838386e-02	1.40240757e-04
4.36000000e-01	1.47482518e-02	1.40250551e-04
4.37000000e-01	1.47499775e-02	1.40095275e-04
4.38000000e-01	1.48689201e-02	1.41712888e-04
4.39000000e-01	1.47663134e-02	1.41220759e-04
4.40000000e-01	1.48104500e-02	1.41375902e-04
4.41000000e-01	1.48439751e-02	1.42191086e-04
4.42000000e-01	1.47258051e-02	1.40968126e-04
4.43000000e-01	1.48599994e-02	1.42497056e-04
4.44000000e-01	1.47741901e-02	1.41866901e-04
4.45000000e-01	1.47330826e-02	1.41197656e-04
4.46000000e-01	1.46998406e-02	1.41324254e-04
4.47000000e-01	1.47753843e-02	1.42532909e-04
4.48000000e-01	1.47620841e-02	1.42542192e-04
4.49000000e-01	1.46623862e-02	1.41768148e-04
4.50000000e-01	1.47082579e-02	1.42341152e-04
4.51000000e-01	1.47548355e-02	1.42459355e-04
4.52000000e-01	1.47124365e-02	1.42578010e-04
4.53000000e-01	1.48007608e-02	1.43483750e-04
4.54000000e-01	1.47129163e-02	1.42474707e-04
4.55000000e-01	1.46174265e-02	1.41713113e-04
4.56000000e-01	1.46513473e-02	1.42037470e-04
4.57000000e-01	1.46343502e-02	1.41669287e-04
4.58000000e-01	1.45591465e-02	1.41647381e-04
4.59000000e-01	1.46078058e-02	1.42148147e-04
4.60000000e-01	1.46789638e-02	1.43005892e-04
4.61000000e-01	1.48585284e-02	1.44664615e-04
4.62000000e-01	1.46519928e-02	1.43210961e-04
4.63000000e-01	1.46233684e-02	1.42764585e-04
4.64000000e-01	1.45719857e-02	1.42207266e-04
4.65000000e-01	1.44834918e-02	1.42027281e-04
4.66000000e-01	1.45875882e-02	1.43024197e-04
4.67000000e-01	1.45432009e-02	1.42529384e-04
4.68000000e-01	1.46391098e-02	1.43578207e-04
4.69000000e-01	1.45383303e-02	1.42409033e-04
4.70000000e-01	1.45012271e-02	1.42410693e-04
4.71000000e-01	1.44600115e-02	1.41991336e-04
4.72000000e-01	1.45151024e-02	1.42426111e-04
4.73000000e-01	1.44067727e-02	1.41002133e-04
4.74000000e-01	1.44899247e-02	1.42323112e-04
4.75000000e-01	1.44633953e-02	1.41550259e-04
4.76000000e-01	1.44140436e-02	1.41135385e-04
4.77000000e-01	1.43020150e-02	1.40910812e-04
4.78000000e-01	1.44650833e-02	1.41975229e-04
4.79000000e-01	1.44659553e-02	1.41359504e-04
4.80000000e-01	1.43258626e-02	1.40928193e-04
4.81000000e-01	1.44916678e-02	1.42334411e-04
4.82000000e-01	1.42791752e-02	1.40483114e-04
4.83000000e-01	1.44919348e-02	1.42799881e-04
4.84000000e-01	1.43438491e-02	1.41387111e-04
4.85000000e-01	1.44694429e-02	1.42622592e-04
4.86000000e-01	1.43614686e-02	1.41976706e-04
4.87000000e-01	1.42708563e-02	1.40795545e-04
4.88000000e-01	1.43292442e-02	1.41592391e-04
4.89000000e-01	1.43179378e-02	1.41378368e-04
4.90000000e-01	1.41720769e-02	1.39933523e-04
4.91000000e-01	1.43996348e-02	1.41986265e-04
4.92000000e-01	1.42369469e-02	1.41092598e-04
4.93000000e-01	1.42890279e-02	1.41716325e-04
4.94000000e-01	1.43776835e-02	1.42229228e-04
4.95000000e-01	1.42210280e-02	1.41945791e-04
4.96000000e-01	1.43272133e-02	1.46859101e-04
4.97000000e-01	1.44247269e-02	1.50592125e-04
4.98000000e-01	1.41868226e-02	1.50413679e-04
4.99000000e-01	1.41908002e-02	1.52887196e-04
5.00000000e-01	1.42764639e-02	1.54864406e-04
5.01000000e-01	1.42021504e-02	1.55808132e-04
5.02000000e-01	1.42439666e-02	1.57286364e-04
5.03000000e-01	1.43660282e-02	1.60130090e-04
5.04000000e-01	1.42628016e-02	1.60364361e-04
5.05000000e-01	1.42986407e-02	1.58178537e-04
5.06000000e-01	1.44046566e-02	1.56014958e-04
5.07000000e-01	1.44131260e-02	1.54283928e-04
5.08000000e-01	1.43821596e-02	1.52962466e-04
5.09000000e-01	1.41633452e-02	1.50556828e-04
5.10000000e-01	1.43021270e-02	1.51241314e-04
5.11000000e-01	1.42501545e-02	1.50064050e-04
5.12000000e-01	1.42034102e-02	1.49287716e-04
5.13000000e-01	1.41383904e-02	1.49360664e-04
5.14000000e-01	1.41371941e-02	1.48174303e-04
5.15000000e-01	1.40567256e-02	1.47256613e-04
5.16000000e-01	1.39839236e-02	1.46072552e-04
5.17000000e-01	1.41489622e-02	1.47446201e-04
5.18000000e-01	1.41674846e-02	1.47208447e-04
5.19000000e-01	1.41377352e-02	1.46293031e-04
5.20000000e-01	1.41191695e-02	1.45993096e-04
5.21000000e-01	1.40507246e-02	1.44948720e-04
5.22000000e-01	1.40068540e-02	1.44690741e-04
5.23000000e-01	1.40916547e-02	1.45942716e-04
5.24000000e-01	1.40706806e-02	1.45583452e-04
5.25000000e-01	1.40639522e-02	1.45230522e-04
5.26000000e-01	1.40568583e-02	1.44966231e-04
5.27000000e-01	1.39791622e-02	1.44433765e-04
5.28000000e-01	1.40107051e-02	1.44675883e-04
5.29000000e-01	1.40202418e-02	1.45170830e-04
5.30000000e-01	1.40643077e-02	1.45239781e-04
5.31000000e-01	1.40355063e-02	1.45179581e-04
5.32000000e-01	1.40195556e-02	1.45566035e-04
5.33000000e-01	1.39545249e-02	1.44385120e-04
5.34000000e-01	1.40581217e-02	1.45313861e-04
5.35000000e-01	1.39316567e-02	1.43858754e-04
5.36000000e-01	1.38280082e-02	1.43281491e-04
5.37000000e-01	1.38988289e-02	1.43721667e-04
5.38000000e-01	1.38802620e-02	1.42933169e-04
5.39000000e-01	1.38595496e-02	1.43396479e-04
5.40000000e-01	1.38253292e-02	1.43074395e-04
5.41000000e-01	1.38895751e-02	1.43386565e-04
5.42000000e-01	1.38097503e-02	1.42422908e-04
5.43000000e-01	1.38454407e-02	1.43087623e-04
5.44000000e-01	1.36782645e-02	1.41129959e-04
5.45000000e-01	1.38234400e-02	1.42604623e-04
5.46000000e-01	1.38373502e-02	1.42683504e-04
5.47000000e-01	1.37624880e-02	1.42530664e-04
5.48000000e-01	1.38297802e-02	1.42813046e-04
5.49000000e-01	1.38239998e-02	1.42551410e-04
5.50000000e-01	1.38251869e-02	1.42899995e-04
5.51000000e-01	1.37153546e-02	1.41178556e-04
5.52000000e-01	1.38525791e-02	1.42433065e-04
5.53000000e-01	1.37065281e-02	1.40763620e-04
5.54000000e-01	1.35733898e-02	1.39608268e-04
5.55000000e-01	1.37152215e-02	1.40688257e-04
5.56000000e-01	1.37549388e-02	1.41063761e-04
5.57000000e-01	1.37577743e-02	1.41403477e-04
5.58000000e-01	1.37056997e-02	1.40825655e-04
5.59000000e-01	1.36596709e-02	1.40814740e-04
5.60000000e-01	1.35385049e-02	1.39426762e-04
5.61000000e-01	1.36686457e-02	1.40611981e-04
5.62000000e-01	1.37554972e-02	1.41094681e-04
5.63000000e-01	1.38482724e-02	1.42212461e-04
5.64000000e-01	1.37501802e-02	1.41367806e-04
5.65000000e-01	1.36129071e-02	1.39664677e-04
5.66000000e-01	1.35437828e-02	1.39721302e-04
5.67000000e-01	1.35702404e-02	1.39671231e-04
5.68000000e-01	1.36283485e-02	1.40427269e-04
5.69000000e-01	1.34635196e-02	1.38237969e-04
5.70000000e-01	1.34847516e-02	1.38728713e-04
5.71000000e-01	1.35559801e-02	1.39523262e-04
5.72000000e-01	1.36610778e-02	1.40233518e-04
5.73000000e-01	1.35495429e-02	1.39338319e-04
5.74000000e-01	1.35056241e-02	1.39195466e-04
5.75000000e-01	1.33548109e-02	1.37555708e-04
5.76000000e-01	1.35194021e-02	1.38948547e-04
5.77000000e-01	1.35270680e-02	1.39188511e-04
5.78000000e-01	1.35103200e-02	1.39411274e-04
5.79000000e-01	1.34717579e-02	1.38743043e-04
5.80000000e-01	1.33851123e-02	1.38168455e-04
5.81000000e-01	1.34467880e-02	1.38940983e-04
5.82000000e-01	1.34252360e-02	1.38617722e-04
5.83000000e-01	1.34676746e-02	1.38907867e-04
5.84000000e-01	1.34977365e-02	1.38833412e-04
5.85000000e-01	1.33521518e-02	1.37923713e-04
5.86000000e-01	1.32812537e-02	1.37441566e-04
5.87000000e-01	1.33838004e-02	1.38124070e-04
5.88000000e-01	1.32156673e-02	1.36698915e-04
5.89000000e-01	1.33427491e-02	1.38271116e-04
5.90000000e-01	1.33280960e-02	1.37662498e-04
5.91000000e-01	1.33906857e-02	1.38503772e-04
5.92000000e-01	1.33564949e-02	1.38051155e-04
5.93000000e-01	1.32454694e-02	1.36924669e-04
5.94000000e-01	1.31567197e-02	1.36014971e-04
5.95000000e-01	1.34031745e-02	1.38948997e-04
5.96000000e-01	1.34869477e-02	1.39449699e-04
5.97000000e-01	1.33391954e-02	1.37800897e-04
5.98000000e-01	1.33376576e-02	1.37728707e-04
5.99000000e-01	1.32368752e-02	1.37507303e-04
6.00000000e-01	1.34038237e-02	1.38974001e-04
6.01000000e-01	1.32540382e-02	1.37639469e-04
6.02000000e-01	1.31794625e-02	1.36573196e-04
6.03000000e-01	1.31889416e-02	1.36854331e-04
6.04000000e-01	1.31865290e-02	1.36870490e-04
6.05000000e-01	1.32944913e-02	1.37809694e-04
6.06000000e-01	1.31887255e-02	1.36885632e-04
6.07000000e-01	1.31080133e-02	1.35762922e-04
6.08000000e-01	1.32643144e-02	1.37390425e-04
6.09000000e-01	1.32270171e-02	1.37080429e-04
6.10000000e-01	1.32343199e-02	1.37681848e-04
6.11000000e-01	1.32167601e-02	1.36957817e-04
6.12000000e-01	1.32735517e-02	1.37389021e-04
6.13000000e-01	1.30500983e-02	1.35765115e-04
6.14000000e-01	1.31859999e-02	1.36598533e-04
6.15000000e-01	1.31964076e-02	1.36659428e-04
6.16000000e-01	1.31962122e-02	1.36959606e-04
6.17000000e-01	1.30969623e-02	1.36347128e-04
6.18000000e-01	1.30875754e-02	1.36172177e-04
6.19000000e-01	1.31631802e-02	1.36422245e-04
6.20000000e-01	1.31379316e-02	1.36269053e-04
6.21000000e-01	1.29604857e-02	1.34492801e-04
6.22000000e-01	1.32110839e-02	1.36590845e-04
6.23000000e-01	1.31478583e-02	1.35277844e-04
6.24000000e-01	1.30994238e-02	1.35068178e-04
6.25000000e-01	1.29905014e-02	1.34409520e-04
6.26000000e-01	1.30349975e-02	1.34131748e-04
6.27000000e-01	1.31098918e-02	1.35463827e-04
6.28000000e-01	1.29995177e-02	1.34080220e-04
6.29000000e-01	1.30857008e-02	1.35483794e-04
6.30000000e-01	1.29909044e-02	1.34313670e-04
6.31000000e-01	1.29551777e-02	1.33825007e-04
6.32000000e-01	1.31140478e-02	1.35223128e-04
6.33000000e-01	1.29694588e-02	1.33747500e-04
6.34000000e-01	1.30897700e-02	1.38416093e-04
6.35000000e-01	1.30828932e-02	1.42676349e-04
6.36000000e-01	1.30476186e-02	1.44454419e-04
6.37000000e-01	1.29300864e-02	1.46027645e-04
6.38000000e-01	1.31085268e-02	1.48803220e-04
6.39000000e-01	1.29809524e-02	1.49774805e-04
6.40000000e-01	1.30345984e-02	1.53282566e-04
6.41000000e-01	1.31336406e-02	1.54466963e-04
6.42000000e-01	1.29060514e-02	1.54165482e-04
6.43000000e-01	1.30425222e-02	1.55639852e-04
6.44000000e-01	1.31450584e-02	1.51192603e-04
6.45000000e-01	1.32205670e-02	1.50490844e-04
6.46000000e-01	1.30529053e-02	1.46966549e-04
6.47000000e-01	1.31085844e-02	1.46297699e-04
6.48000000e-01	1.30909229e-02	1.45058156e-04
6.49000000e-01	1.29684045e-02	1.43069007e-04
6.50000000e-01	1.29997080e-02	1.42593277e-04
6.51000000e-01	1.30132779e-02	1.42624776e-04
6.52000000e-01	1.30712904e-02	1.42435325e-04
6.53000000e-01	1.31129751e-02	1.42496382e-04
6.54000000e-01	1.31085332e-02	1.42246451e-04
6.55000000e-01	1.29797710e-02	1.40541944e-04
6.56000000e-01	1.30015443e-02	1.40392658e-04
6.57000000e-01	1.29945417e-02	1.39996877e-04
6.58000000e-01	1.30789560e-02	1.41037398e-04
6.59000000e-01	1.29487003e-02	1.39299304e-04
6.60000000e-01	1.29101845e-02	1.38473781e-04
6.61000000e-01	1.28090426e-02	1.37896107e-04
6.62000000e-01	1.28762606e-02	1.38772391e-04
6.63000000e-01	1.29049817e-02	1.38819441e-04
6.64000000e-01	1.28891276e-02	1.38403163e-04
6.65000000e-01	1.28621919e-02	1.38375645e-04
6.66000000e-01	1.30175940e-02	1.39200518e-04
6.67000000e-01	1.29742488e-02	1.38863809e-04
6.68000000e-01	1.27746420e-02	1.37521460e-04
6.69000000e-01	1.28435114e-02	1.37374611e-04
6.70000000e-01	1.29948021e-02	1.38602282e-04
6.71000000e-01	1.28210293e-02	1.37661043e-04
6.72000000e-01	1.29720254e-02	1.39057631e-04
6.73000000e-01	1.28823664e-02	1.37857746e-04
6.74000000e-01	1.27063694e-02	1.35679686e-04
6.75000000e-01	1.26370338e-02	1.35409452e-04
6.76000000e-01	1.28778556e-02	1.38070069e-04
6.77000000e-01	1.27777823e-02	1.36611053e-04
6.78000000e-01	1.27114776e-02	1.35806135e-04
6.79000000e-01	1.27597801e-02	1.36283909e-04
6.80000000e-01	1.28278293e-02	1.36626678e-04
6.81000000e-01	1.28416246e-02	1.37010035e-04
6.82000000e-01	1.28798198e-02	1.37834465e-04
6.83000000e-01	1.26861325e-02	1.35271076e-04
6.84000000e-01	1.28135630e-02	1.36752917e-04
6.85000000e-01	1.27479036e-02	1.36122199e-04
6.86000000e-01	1.26702957e-02	1.35237355e-04
6.87000000e-01	1.26764444e-02	1.35175111e-04
6.88000000e-01	1.26581861e-02	1.35102080e-04
6.89000000e-01	1.25796622e-02	1.34010222e-04
6.90000000e-01	1.26947331e-02	1.35410320e-04
6.91000000e-01	1.27052225e-02	1.35131937e-04
6.92000000e-01	1.25753611e-02	1.34336447e-04
6.93000000e-01	1.27482935e-02	1.35488584e-04
6.94000000e-01	1.26172129e-02	1.34242818e-04
6.95000000e-01	1.26615870e-02	1.35321937e-04
6.96000000e-01	1.27504349e-02	1.35705015e-04
6.97000000e-01	1.26210252e-02	1.34783298e-04
6.98000000e-01	1.26794204e-02	1.34728580e-04
6.99000000e-01	1.26730183e-02	1.34951454e-04
7.00000000e-01	1.25589281e-02	1.33689485e-04
7.01000000e-01	1.25825742e-02	1.34202161e-04
7.02000000e-01	1.26087393e-02	1.34887024e-04
7.03000000e-01	1.26251962e-02	1.34455507e-04
7.04000000e-01	1.25915717e-02	1.34501983e-04
7.05000000e-01	1.24182882e-02	1.32422014e-04
7.06000000e-01	1.24929142e-02	1.33269522e-04
7.07000000e-01	1.24152517e-02	1.32240933e-04
7.08000000e-01	1.27084241e-02	1.35033842e-04
7.09000000e-01	1.25978557e-02	1.33755527e-04
7.10000000e-01	1.25684857e-02	1.33482523e-04
7.11000000e-01	1.24308494e-02	1.32509283e-04
7.12000000e-01	1.24516785e-02	1.32540667e-04
7.13000000e-01	1.23902025e-02	1.32192807e-04
7.14000000e-01	1.24962214e-02	1.32892630e-04
7.15000000e-01	1.23577628e-02	1.31291019e-04
7.16000000e-01	1.24094972e-02	1.32722962e-04
7.17000000e-01	1.24027082e-02	1.31653701e-04
7.18000000e-01	1.23413240e-02	1.31603889e-04
7.19000000e-01	1.23238113e-02	1.31473957e-04
7.20000000e-01	1.23562259e-02	1.31515470e-04
7.21000000e-01	1.23460237e-02	1.31249117e-04
7.22000000e-01	1.23584697e-02	1.31709732e-04
7.23000000e-01	1.22801521e-02	1.30945042e-04
7.24000000e-01	1.22886574e-02	1.31128587e-04
7.25000000e-01	1.23168984e-02	1.31492582e-04
7.26000000e-01	1.22618418e-02	1.31117384e-04
7.27000000e-01	1.22316994e-02	1.30730449e-04
7.28000000e-01	1.22424602e-02	1.30259189e-04
7.29000000e-01	1.21916244e-02	1.30182877e-04
7.30000000e-01	1.21776626e-02	1.30235810e-04
7.31000000e-01	1.21548932e-02	1.29884202e-04
7.32000000e-01	1.22012860e-02	1.30058184e-04
7.33000000e-01	1.21802358e-02	1.30004827e-04
7.34000000e-01	1.23296020e-02	1.31205549e-04
7.35000000e-01	1.21943270e-02	1.29747543e-04
7.36000000e-01	1.21961979e-02	1.29661132e-04
7.37000000e-01	1.21936044e-02	1.29667010e-04
7.38000000e-01	1.21775158e-02	1.29062502e-04
7.39000000e-01	1.21858174e-02	1.28724042e-04
7.40000000e-01	1.20943078e-02	1.28207013e-04
7.41000000e-01	1.21023528e-02	1.28064396e-04
7.42000000e-01	1.21048682e-02	1.28241524e-04
7.43000000e-01	1.21924291e-02	1.29143810e-04
7.44000000e-01	1.19491933e-02	1.26784206e-04
7.45000000e-01	1.22830492e-02	1.29389104e-04
7.46000000e-01	1.21317996e-02	1.27995886e-04
7.47000000e-01	1.21358250e-02	1.28026868e-04
7.48000000e-01	1.20313967e-02	1.27168719e-04
7.49000000e-01	1.21515721e-02	1.28180809e-04
7.50000000e-01	1.21287359e-02	1.28109194e-04
7.51000000e-01	1.21618462e-02	1.28605179e-04
7.52000000e-01	1.20019669e-02	1.26816873e-04
7.53000000e-01	1.19993296e-02	1.27398623e-04
7.54000000e-01	1.20962732e-02	1.28043819e-04
7.55000000e-01	1.20156538e-02	1.27174979e-04
7.56000000e-01	1.20792702e-02	1.27643394e-04
7.57000000e-01	1.20253779e-02	1.27596938e-04
7.58000000e-01	1.20301338e-02	1.27211362e-04
7.59000000e-01	1.19275723e-02	1.26115431e-04
7.60000000e-01	1.20271578e-02	1.26843534e-04
7.61000000e-01	1.18897002e-02	1.25208705e-04
7.62000000e-01	1.20467511e-02	1.26588260e-04
7.63000000e-01	1.19030483e-02	1.25338868e-04
7.64000000e-01	1.18721664e-02	1.25086021e-04
7.65000000e-01	1.18775216e-02	1.24835980e-04
7.66000000e-01	1.17692074e-02	1.23554819e-04
7.67000000e-01	1.19393968e-02	1.25463072e-04
7.68000000e-01	1.20042929e-02	1.25790376e-04
7.69000000e-01	1.18048395e-02	1.23809111e-04
7.70000000e-01	1.18718959e-02	1.24119508e-04
7.71000000e-01	1.17940064e-02	1.23898599e-04
7.72000000e-01	1.18149919e-02	1.27695695e-04
7.73000000e-01	1.16979210e-02	1.30475975e-04
7.74000000e-01	1.18240172e-02	1.34473670e-04
7.75000000e-01	1.17387455e-02	1.36406649e-04
7.76000000e-01	1.17336224e-02	1.38000266e-04
7.77000000e-01	1.16800749e-02	1.39474159e-04
7.78000000e-01	1.18078085e-02	1.42764511e-04
7.79000000e-01	1.16581236e-02	1.43180845e-04
7.80000000e-01	1.16444511e-02	1.45194007e-04
7.81000000e-01	1.16933354e-02	1.46963744e-04
7.82000000e-01	1.16732678e-02	1.47966287e-04
7.83000000e-01	1.17151188e-02	1.49336154e-04
7.84000000e-01	1.17095469e-02	1.51781503e-04
7.85000000e-01	1.16112833e-02	1.52428246e-04
7.86000000e-01	1.17875762e-02	1.56041588e-04
7.87000000e-01	1.16678588e-02	1.55870858e-04
7.88000000e-01	1.16094426e-02	1.56692482e-04
7.89000000e-01	1.16852548e-02	1.58829340e-04
7.90000000e-01	1.15684015e-02	1.59571832e-04
7.91000000e-01	1.16474548e-02	1.61902575e-04
7.92000000e-01	1.16227232e-02	1.63272122e-04
7.93000000e-01	1.17013125e-02	1.65846583e-04
7.94000000e-01	1.16362620e-02	1.67285113e-04
7.95000000e-01	1.15438511e-02	1.67885618e-04
7.96000000e-01	1.15484739e-02	1.69079628e-04
7.97000000e-01	1.16176156e-02	1.71927169e-04
7.98000000e-01	1.15530078e-02	1.72841290e-04
7.99000000e-01	1.15874752e-02	1.73881421e-04
8.00000000e-01	1.16543056e-02	1.77514334e-04
8.01000000e-01	1.14010959e-02	1.75775722e-04
8.02000000e-01	1.14779989e-02	1.78338817e-04
8.03000000e-01	1.12492264e-02	1.77370896e-04
8.04000000e-01	1.14306323e-02	1.82676138e-04
8.05000000e-01	1.15716688e-02	1.85670300e-04
8.06000000e-01	1.14123206e-02	1.86525406e-04
8.07000000e-01	1.14140989e-02	1.87172462e-04
8.08000000e-01	1.15100175e-02	1.90742346e-04
8.09000000e-01	1.12517342e-02	1.88948207e-04
8.10000000e-01	1.14893366e-02	1.93926385e-04
8.11000000e-01	1.12248706e-02	1.93109598e-04
8.12000000e-01	1.14182177e-02	1.97978130e-04
8.13000000e-01	1.13286317e-02	1.98370571e-04
8.14000000e-01	1.13746643e-02	2.02430878e-04
8.15000000e-01	1.12593564e-02	2.01137298e-04
8.16000000e-01	1.12383831e-02	2.04105618e-04
8.17000000e-01	1.13003551e-02	2.08054353e-04
8.18000000e-01	1.11555546e-02	2.08263371e-04
8.19000000e-01	1.15037528e-02	2.17006337e-04
8.20000000e-01	1.11733610e-02	2.13908243e-04
8.21000000e-01	1.11956612e-02	2.16900627e-04
8.22000000e-01	1.12072149e-02	2.22243379e-04
8.23000000e-01	1.12872691e-02	2.25030621e-04
8.24000000e-01	1.13534411e-02	2.30414180e-04
8.25000000e-01	1.10915105e-02	2.26913904e-04
8.26000000e-01	1.11795089e-02	2.32090428e-04
8.27000000e-01	1.10386507e-02	2.33201514e-04
8.28000000e-01	1.09570854e-02	2.34351261e-04
8.29000000e-01	1.11647063e-02	2.42559085e-04
8.30000000e-01	1.09091338e-02	2.40957000e-04
8.31000000e-01	1.09945799e-02	2.48084102e-04
8.32000000e-01	1.13115172e-02	2.56042937e-04
8.33000000e-01	1.10232294e-02	2.56274058e-04
8.34000000e-01	1.11024971e-02	2.61749083e-04
8.35000000e-01	1.06961164e-02	2.58125188e-04
8.36000000e-01	1.09452047e-02	2.70914643e-04
8.37000000e-01	1.10428253e-02	2.76098423e-04
8.38000000e-01	1.08235166e-02	2.78363895e-04
8.39000000e-01	1.10481133e-02	2.86473092e-04
8.40000000e-01	1.08653768e-02	2.86791274e-04
8.41000000e-01	1.08646380e-02	2.95487093e-04
8.42000000e-01	1.09587886e-02	3.05706710e-04
8.43000000e-01	1.08448258e-02	3.07062241e-04
8.44000000e-01	1.13334351e-02	3.30487738e-04
8.45000000e-01	1.11167625e-02	3.32970953e-04
8.46000000e-01	1.07190740e-02	3.31351457e-04
8.47000000e-01	1.09799701e-02	3.44805745e-04
8.48000000e-01	1.09307629e-02	3.56253093e-04
8.49000000e-01	1.08164244e-02	3.65274301e-04
8.50000000e-01	1.08751895e-02	3.82111253e-04
8.51000000e-01	1.12232425e-02	4.06121957e-04
8.52000000e-01	1.08462544e-02	4.13736334e-04
8.53000000e-01	1.06866602e-02	4.19463576e-04
8.54000000e-01	1.06175434e-02	4.38214982e-04
8.55000000e-01	1.04429451e-02	4.44389754e-04
8.56000000e-01	1.07446719e-02	4.72925459e-04
8.57000000e-01	1.05784225e-02	4.72958247e-04
8.58000000e-01	1.02065728e-02	4.76056241e-04
8.59000000e-01	1.01338933e-02	4.81142323e-04
8.60000000e-01	1.03541547e-02	5.16791736e-04
8.61000000e-01	1.06857586e-02	5.47333281e-04
8.62000000e-01	1.01973788e-02	5.50850349e-04
8.63000000e-01	1.08764682e-02	6.10540792e-04
8.64000000e-01	1.07858696e-02	6.22025312e-04
8.65000000e-01	1.04105947e-02	6.18192861e-04
8.66000000e-01	1.07343677e-02	6.79026831e-04
8.67000000e-01	1.08582260e-02	7.18504467e-04
8.68000000e-01	1.05509625e-02	7.41600923e-04
8.69000000e-01	1.03521903e-02	7.86841362e-04
8.70000000e-01	1.09308426e-02	8.98430709e-04
8.71000000e-01	9.76886611e-03	9.20465390e-04
8.72000000e-01	1.01362488e-02	1.08941820e-03
8.73000000e-01	1.07380975e-02	1.31401708e-03
8.74000000e-01	1.22467129e-02	1.92932432e-03
8.75000000e-01	1.06807152e-02	3.33675751e-03
