% Filename : SDL1_00022_00025.h5
% Date & Time : 30-Oct-2025 16:49:25
% X-ray Energy (keV) : 13.30001
% Exposure Time (s) : 0.500
% Beam Center : 1461.24000, 208.98300
% Sample to Detector Distance (SDD) (mm) : 1990.750
% Detector Pixel Size (mm) : 0.075
% Photodiode Value : 141409.000
% I0 of Sample : 0
% I0 of Standard : 1
% 
% q(A^-1)   I(q)    I(q)_SE
0.00000000e+00	8.94336031e-03	5.56902912e-03
2.50000000e-04	0.00000000e+00	0.00000000e+00
5.00000000e-04	0.00000000e+00	0.00000000e+00
7.50000000e-04	0.00000000e+00	0.00000000e+00
1.00000000e-03	0.00000000e+00	0.00000000e+00
1.25000000e-03	0.00000000e+00	0.00000000e+00
1.50000000e-03	0.00000000e+00	0.00000000e+00
1.75000000e-03	0.00000000e+00	0.00000000e+00
2.00000000e-03	0.00000000e+00	0.00000000e+00
2.25000000e-03	0.00000000e+00	0.00000000e+00
2.50000000e-03	0.00000000e+00	0.00000000e+00
2.75000000e-03	0.00000000e+00	0.00000000e+00
3.00000000e-03	0.00000000e+00	0.00000000e+00
3.25000000e-03	3.42220857e+01	1.98497403e+01
3.50000000e-03	2.71288844e+01	1.09522327e+01
3.75000000e-03	1.75291465e+01	6.74627987e+00
4.00000000e-03	1.31618145e+01	3.85618886e+00
4.25000000e-03	8.26820778e+00	2.28159442e+00
4.50000000e-03	1.29827414e+01	3.46183665e+00
4.75000000e-03	1.33803489e+01	3.17698825e+00
5.00000000e-03	9.98653174e+00	2.39734830e+00
5.25000000e-03	8.46443502e+00	1.92247317e+00
5.50000000e-03	7.08664670e+00	1.52518407e+00
5.75000000e-03	5.69764015e+00	1.15267809e+00
6.00000000e-03	4.97551034e+00	9.80945801e-01
6.25000000e-03	4.24701571e+00	8.10081636e-01
6.50000000e-03	3.37319223e+00	6.31118040e-01
6.75000000e-03	2.82052041e+00	5.10440657e-01
7.00000000e-03	2.49489755e+00	4.31730790e-01
7.25000000e-03	2.22941911e+00	3.74427598e-01
7.50000000e-03	1.82960076e+00	3.04110182e-01
7.75000000e-03	1.66504466e+00	2.79525509e-01
8.00000000e-03	1.56743785e+00	2.60330922e-01
8.25000000e-03	1.33841562e+00	2.10399076e-01
8.50000000e-03	1.23381764e+00	1.80565233e-01
8.75000000e-03	1.08244931e+00	1.56593004e-01
9.00000000e-03	9.48167863e-01	1.33640956e-01
9.25000000e-03	8.33359010e-01	1.13753800e-01
9.50000000e-03	7.23767884e-01	9.62680846e-02
9.75000000e-03	6.78031460e-01	8.83617401e-02
1.00000000e-02	5.96917734e-01	7.75670755e-02
1.02500000e-02	5.73636075e-01	7.12806713e-02
1.05000000e-02	5.28458638e-01	6.09433341e-02
1.07500000e-02	4.81900864e-01	5.61081965e-02
1.10000000e-02	4.42883470e-01	4.97133486e-02
1.12500000e-02	4.06093388e-01	4.68625393e-02
1.15000000e-02	3.80533153e-01	4.20426307e-02
1.17500000e-02	3.49427662e-01	3.72792467e-02
1.20000000e-02	3.18228169e-01	3.25086121e-02
1.22500000e-02	2.95390966e-01	2.92553536e-02
1.25000000e-02	2.77634703e-01	2.71100003e-02
1.27500000e-02	2.61437115e-01	2.54722878e-02
1.30000000e-02	2.45293829e-01	2.27700893e-02
1.32500000e-02	2.26353609e-01	1.98446375e-02
1.35000000e-02	2.12924242e-01	1.86577174e-02
1.37500000e-02	2.07353392e-01	1.82157365e-02
1.40000000e-02	1.85484594e-01	1.56561448e-02
1.42500000e-02	1.75196109e-01	1.41075546e-02
1.45000000e-02	1.64194795e-01	1.30481248e-02
1.47500000e-02	1.58460435e-01	1.26775990e-02
1.50000000e-02	1.50564114e-01	1.15598623e-02
1.52500000e-02	1.42012182e-01	1.07961844e-02
1.55000000e-02	1.33015850e-01	9.54420500e-03
1.57500000e-02	1.26211286e-01	9.14586324e-03
1.60000000e-02	1.20254916e-01	8.54257659e-03
1.62500000e-02	1.16568851e-01	8.36500563e-03
1.65000000e-02	1.05840026e-01	7.37788917e-03
1.67500000e-02	1.05821949e-01	6.99085007e-03
1.70000000e-02	9.97740046e-02	6.63586111e-03
1.72500000e-02	9.50276303e-02	6.17229290e-03
1.75000000e-02	9.40939819e-02	6.15114267e-03
1.77500000e-02	8.78713774e-02	5.51683617e-03
1.80000000e-02	8.31844035e-02	5.15939902e-03
1.82500000e-02	7.99907972e-02	4.83102010e-03
1.85000000e-02	7.78141034e-02	4.81333959e-03
1.87500000e-02	7.47817656e-02	4.46972812e-03
1.90000000e-02	7.17806064e-02	4.24947718e-03
1.92500000e-02	6.96000530e-02	3.97199812e-03
1.95000000e-02	6.52499688e-02	3.74872290e-03
1.97500000e-02	6.65421206e-02	3.85961833e-03
2.00000000e-02	6.46213433e-02	3.67754041e-03
2.02500000e-02	5.90771860e-02	3.29795399e-03
2.05000000e-02	5.75474024e-02	3.10752431e-03
2.07500000e-02	5.68138146e-02	3.05628974e-03
2.10000000e-02	5.60987232e-02	3.04793337e-03
2.12500000e-02	5.30383303e-02	2.87740388e-03
2.15000000e-02	5.32106289e-02	2.86892691e-03
2.17500000e-02	5.13428879e-02	2.74475345e-03
2.20000000e-02	5.10751168e-02	2.75309604e-03
2.22500000e-02	4.86098065e-02	2.59959817e-03
2.25000000e-02	4.89885973e-02	2.62777054e-03
2.27500000e-02	4.72613311e-02	2.44731071e-03
2.30000000e-02	4.66708904e-02	2.45014036e-03
2.32500000e-02	4.50477989e-02	2.34171832e-03
2.35000000e-02	4.47680384e-02	2.34165043e-03
2.37500000e-02	4.22054075e-02	2.20180080e-03
2.40000000e-02	4.28636435e-02	2.21212225e-03
2.42500000e-02	4.14171986e-02	2.10794763e-03
2.45000000e-02	4.02851404e-02	2.07511012e-03
2.47500000e-02	4.01842945e-02	2.07992579e-03
2.50000000e-02	4.15509726e-02	2.11171730e-03
2.52500000e-02	3.85337145e-02	1.96457292e-03
2.55000000e-02	3.76407964e-02	1.90566467e-03
2.57500000e-02	3.81052542e-02	1.92227755e-03
2.60000000e-02	3.70421958e-02	1.84404472e-03
2.62500000e-02	3.58635381e-02	1.81255191e-03
2.65000000e-02	3.51639189e-02	1.76237037e-03
2.67500000e-02	3.59323550e-02	1.76236588e-03
2.70000000e-02	3.60461095e-02	1.79393476e-03
2.72500000e-02	3.46459817e-02	1.69465283e-03
2.75000000e-02	3.40468802e-02	1.68787566e-03
2.77500000e-02	3.27888460e-02	1.61137512e-03
2.80000000e-02	3.43658145e-02	1.64628860e-03
2.82500000e-02	3.23054325e-02	1.56985640e-03
2.85000000e-02	3.24242964e-02	1.58104170e-03
2.87500000e-02	3.20825569e-02	1.55668428e-03
2.90000000e-02	3.16585310e-02	1.54012982e-03
2.92500000e-02	3.28807811e-02	1.53950625e-03
2.95000000e-02	3.11286933e-02	1.49027347e-03
2.97500000e-02	3.15557793e-02	1.50192341e-03
3.00000000e-02	3.14743201e-02	1.48236928e-03
3.02500000e-02	3.05693010e-02	1.46445082e-03
3.05000000e-02	3.04227626e-02	1.41150678e-03
3.07500000e-02	3.07758931e-02	1.43402263e-03
3.10000000e-02	2.98310286e-02	1.39036742e-03
3.12500000e-02	2.97180903e-02	1.41972036e-03
3.15000000e-02	2.99585837e-02	1.40190980e-03
3.17500000e-02	2.93171340e-02	1.35084741e-03
3.20000000e-02	2.83093310e-02	1.32468034e-03
3.22500000e-02	2.87010932e-02	1.33239648e-03
3.25000000e-02	2.76065824e-02	1.29323835e-03
3.27500000e-02	2.80993130e-02	1.29897839e-03
3.30000000e-02	2.86690838e-02	1.31555278e-03
3.32500000e-02	2.72135979e-02	1.26050087e-03
3.35000000e-02	2.79501309e-02	1.28567422e-03
3.37500000e-02	2.77066909e-02	1.27134860e-03
3.40000000e-02	2.69750169e-02	1.22860716e-03
3.42500000e-02	2.73531215e-02	1.23326626e-03
3.45000000e-02	2.67488355e-02	1.21160658e-03
3.47500000e-02	2.58240599e-02	1.17481388e-03
3.50000000e-02	2.66498498e-02	1.20192484e-03
3.52500000e-02	2.64007144e-02	1.20524813e-03
3.55000000e-02	2.61378492e-02	1.17229612e-03
3.57500000e-02	2.64977564e-02	1.18998665e-03
3.60000000e-02	2.64593951e-02	1.19956510e-03
3.62500000e-02	2.63052432e-02	1.19318322e-03
3.65000000e-02	2.63943518e-02	1.18830270e-03
3.67500000e-02	2.56082722e-02	1.14436552e-03
3.70000000e-02	2.51493439e-02	1.11347850e-03
3.72500000e-02	2.45233535e-02	1.09998625e-03
3.75000000e-02	2.50599128e-02	1.12008072e-03
3.77500000e-02	2.46714194e-02	1.10094527e-03
3.80000000e-02	2.52168305e-02	1.10487364e-03
3.82500000e-02	2.46216915e-02	1.08018803e-03
3.85000000e-02	2.47120378e-02	1.08996697e-03
3.87500000e-02	2.45760909e-02	1.06531609e-03
3.90000000e-02	2.42991245e-02	1.07968981e-03
3.92500000e-02	2.38160522e-02	1.03615302e-03
3.95000000e-02	2.44053809e-02	1.06157650e-03
3.97500000e-02	2.37901882e-02	1.03665771e-03
4.00000000e-02	2.39768718e-02	1.05566420e-03
4.02500000e-02	2.32830908e-02	1.01606253e-03
4.05000000e-02	2.39636470e-02	1.02926065e-03
4.07500000e-02	2.40037485e-02	1.03219334e-03
4.10000000e-02	2.33593909e-02	1.01758098e-03
4.12500000e-02	2.32850672e-02	9.96595352e-04
4.15000000e-02	2.38406516e-02	1.01468942e-03
4.17500000e-02	2.41201312e-02	1.02246822e-03
4.20000000e-02	2.35938136e-02	9.92100374e-04
4.22500000e-02	2.27199531e-02	9.64481463e-04
4.25000000e-02	2.30576609e-02	9.79769573e-04
4.27500000e-02	2.31744206e-02	9.86760904e-04
4.30000000e-02	2.30602590e-02	9.80796349e-04
4.32500000e-02	2.24183255e-02	9.50193792e-04
4.35000000e-02	2.25395420e-02	9.48255533e-04
4.37500000e-02	2.32713712e-02	9.75885749e-04
4.40000000e-02	2.31921693e-02	9.86356487e-04
4.42500000e-02	2.24542678e-02	9.53868073e-04
4.45000000e-02	2.25137711e-02	9.41020351e-04
4.47500000e-02	2.20238478e-02	9.20977384e-04
4.50000000e-02	2.27556536e-02	9.52908905e-04
4.52500000e-02	2.24990517e-02	9.32646244e-04
4.55000000e-02	2.27004514e-02	9.38054349e-04
4.57500000e-02	2.17871924e-02	8.99413621e-04
4.60000000e-02	2.29842374e-02	9.48683139e-04
4.62500000e-02	2.26196460e-02	9.35683533e-04
4.65000000e-02	2.19676308e-02	9.02631716e-04
4.67500000e-02	2.16052267e-02	8.84128896e-04
4.70000000e-02	2.19523165e-02	9.00303992e-04
4.72500000e-02	2.18044615e-02	8.91691706e-04
4.75000000e-02	2.22716502e-02	9.15410186e-04
4.77500000e-02	2.25617607e-02	9.07433013e-04
4.80000000e-02	2.24189362e-02	9.04202227e-04
4.82500000e-02	2.19943359e-02	8.91015771e-04
4.85000000e-02	2.23749077e-02	9.13601249e-04
4.87500000e-02	2.20474492e-02	8.95698354e-04
4.90000000e-02	2.22953228e-02	8.96224024e-04
4.92500000e-02	2.23735018e-02	8.96414084e-04
4.95000000e-02	2.14636478e-02	8.64566897e-04
4.97500000e-02	2.20570750e-02	8.89138126e-04
5.00000000e-02	2.17328873e-02	8.76184373e-04
5.02500000e-02	2.14921405e-02	8.59156367e-04
5.05000000e-02	2.15664312e-02	8.54486671e-04
5.07500000e-02	2.19306157e-02	8.70534268e-04
5.10000000e-02	2.20839090e-02	8.73265613e-04
5.12500000e-02	2.18357260e-02	8.72547185e-04
5.15000000e-02	2.17044499e-02	8.53455142e-04
5.17500000e-02	2.16259281e-02	8.52811900e-04
5.20000000e-02	2.19192776e-02	8.61088900e-04
5.22500000e-02	2.15140248e-02	8.55603319e-04
5.25000000e-02	2.18624188e-02	8.59916278e-04
5.27500000e-02	2.14137526e-02	8.35645826e-04
5.30000000e-02	2.13673798e-02	8.32554587e-04
5.32500000e-02	2.14279408e-02	8.38808545e-04
5.35000000e-02	2.18799921e-02	8.55304844e-04
5.37500000e-02	2.13653649e-02	8.28471895e-04
5.40000000e-02	2.16530844e-02	8.46468502e-04
5.42500000e-02	2.09254760e-02	8.18073139e-04
5.45000000e-02	2.19353700e-02	8.52134023e-04
5.47500000e-02	2.09015723e-02	8.02256345e-04
5.50000000e-02	2.07076867e-02	8.02192150e-04
5.52500000e-02	2.17233125e-02	8.35171691e-04
5.55000000e-02	2.14445900e-02	8.16853951e-04
5.57500000e-02	2.09435716e-02	8.08427760e-04
5.60000000e-02	2.09068657e-02	7.96671654e-04
5.62500000e-02	2.07213599e-02	7.96697057e-04
5.65000000e-02	2.13217809e-02	8.15105057e-04
5.67500000e-02	2.05028253e-02	7.87203264e-04
5.70000000e-02	2.09918321e-02	7.97413281e-04
5.72500000e-02	2.08792768e-02	7.92777694e-04
5.75000000e-02	2.09514487e-02	7.96596641e-04
5.77500000e-02	2.08679988e-02	7.79581660e-04
5.80000000e-02	2.09927701e-02	7.91689553e-04
5.82500000e-02	2.07868058e-02	7.84498801e-04
5.85000000e-02	2.07039578e-02	7.81128871e-04
5.87500000e-02	2.14739851e-02	8.01859753e-04
5.90000000e-02	2.04588770e-02	7.73356541e-04
5.92500000e-02	2.01339316e-02	7.64052096e-04
5.95000000e-02	2.06236315e-02	7.78403171e-04
5.97500000e-02	2.07744764e-02	7.80671005e-04
6.00000000e-02	2.08803521e-02	7.81598173e-04
6.02500000e-02	2.09094734e-02	7.74575844e-04
6.05000000e-02	2.13199388e-02	7.91088373e-04
6.07500000e-02	2.10360522e-02	7.81810773e-04
6.10000000e-02	2.10495563e-02	7.76155086e-04
6.12500000e-02	2.05779946e-02	7.59299879e-04
6.15000000e-02	2.05868082e-02	7.63233373e-04
6.17500000e-02	2.03231404e-02	7.46774037e-04
6.20000000e-02	2.05948610e-02	7.55775479e-04
6.22500000e-02	2.04952272e-02	7.57428459e-04
6.25000000e-02	2.08237036e-02	7.62002211e-04
6.27500000e-02	2.07518260e-02	7.53977340e-04
6.30000000e-02	2.03058539e-02	7.41664868e-04
6.32500000e-02	2.03218975e-02	7.39797966e-04
6.35000000e-02	2.05555796e-02	7.48152871e-04
6.37500000e-02	2.03272810e-02	7.45771080e-04
6.40000000e-02	2.06371233e-02	7.49517911e-04
6.42500000e-02	2.03746886e-02	7.29694072e-04
6.45000000e-02	2.03395391e-02	7.31709893e-04
6.47500000e-02	2.02580373e-02	7.30616065e-04
6.50000000e-02	2.04608271e-02	7.45238191e-04
6.52500000e-02	2.07342335e-02	7.44822934e-04
6.55000000e-02	2.03254697e-02	7.30870721e-04
6.57500000e-02	2.02885299e-02	7.29411570e-04
6.60000000e-02	2.04819284e-02	7.34760127e-04
6.62500000e-02	2.06611232e-02	7.43838018e-04
6.65000000e-02	1.98865775e-02	7.08142326e-04
6.67500000e-02	2.01198784e-02	7.19816548e-04
6.70000000e-02	2.07517556e-02	7.42049717e-04
6.72500000e-02	2.06296872e-02	7.36641574e-04
6.75000000e-02	2.09400301e-02	7.39048035e-04
6.77500000e-02	2.04971893e-02	7.20228845e-04
6.80000000e-02	1.97607698e-02	7.11424670e-04
6.82500000e-02	2.02179139e-02	7.23379123e-04
6.85000000e-02	2.03060790e-02	7.24878374e-04
6.87500000e-02	2.05380129e-02	7.25758444e-04
6.90000000e-02	2.03962931e-02	7.12347879e-04
6.92500000e-02	2.07605976e-02	7.26442747e-04
6.95000000e-02	1.97236882e-02	6.95891869e-04
6.97500000e-02	1.97054049e-02	6.97843442e-04
7.00000000e-02	2.01766411e-02	7.05487294e-04
7.02500000e-02	1.97334992e-02	6.88153077e-04
7.05000000e-02	2.06818207e-02	7.20295964e-04
7.07500000e-02	2.04530877e-02	7.13318906e-04
7.10000000e-02	2.02314987e-02	7.00477611e-04
7.12500000e-02	2.01690998e-02	7.01571280e-04
7.15000000e-02	2.07688531e-02	7.16677522e-04
7.17500000e-02	2.04507551e-02	7.15445706e-04
7.20000000e-02	2.01398265e-02	6.99555643e-04
7.22500000e-02	2.03003540e-02	7.00227964e-04
7.25000000e-02	2.04928606e-02	7.11127484e-04
7.27500000e-02	2.01851211e-02	6.93208905e-04
7.30000000e-02	2.02790135e-02	6.97245362e-04
7.32500000e-02	2.01759988e-02	6.95289710e-04
7.35000000e-02	2.03246135e-02	6.96923670e-04
7.37500000e-02	1.97746171e-02	6.78806890e-04
7.40000000e-02	2.03911095e-02	6.97739481e-04
7.42500000e-02	2.03026614e-02	6.91923253e-04
7.45000000e-02	2.04253243e-02	6.96169943e-04
7.47500000e-02	2.08974147e-02	7.04453062e-04
7.50000000e-02	2.05692476e-02	6.97874292e-04
7.52500000e-02	2.03111199e-02	6.89172821e-04
7.55000000e-02	2.03213835e-02	6.88743398e-04
7.57500000e-02	1.96720868e-02	6.61379468e-04
7.60000000e-02	2.03496035e-02	6.87973742e-04
7.62500000e-02	2.03172443e-02	6.87662676e-04
7.65000000e-02	2.05709525e-02	6.94175014e-04
7.67500000e-02	2.00646382e-02	6.75772350e-04
7.70000000e-02	1.98749222e-02	6.62300825e-04
7.72500000e-02	1.98211160e-02	6.78247654e-04
7.75000000e-02	1.99476151e-02	6.88930954e-04
7.77500000e-02	1.98178059e-02	6.94503600e-04
7.80000000e-02	2.00738314e-02	6.98436559e-04
7.82500000e-02	1.97024292e-02	6.93404455e-04
7.85000000e-02	2.02826230e-02	7.21295106e-04
7.87500000e-02	2.03088224e-02	7.20404850e-04
7.90000000e-02	1.95320106e-02	6.99500722e-04
7.92500000e-02	2.05224616e-02	7.23893215e-04
7.95000000e-02	2.05210151e-02	7.28783410e-04
7.97500000e-02	2.01899166e-02	7.21352500e-04
8.00000000e-02	2.00557623e-02	7.16774268e-04
8.02500000e-02	1.98822464e-02	7.08234366e-04
8.05000000e-02	2.03067653e-02	7.25231116e-04
8.07500000e-02	2.03833855e-02	7.33392846e-04
8.10000000e-02	1.98660768e-02	7.13761328e-04
8.12500000e-02	2.06702731e-02	7.46773223e-04
8.15000000e-02	2.04989944e-02	7.34666527e-04
8.17500000e-02	2.00340842e-02	7.31737485e-04
8.20000000e-02	2.05606914e-02	7.42851425e-04
8.22500000e-02	2.02406731e-02	7.35712642e-04
8.25000000e-02	2.01408439e-02	7.31951923e-04
8.27500000e-02	1.98600611e-02	7.22798798e-04
8.30000000e-02	2.00622474e-02	7.38865197e-04
8.32500000e-02	2.00573250e-02	7.40222743e-04
8.35000000e-02	1.93021850e-02	7.21812623e-04
8.37500000e-02	2.08905359e-02	7.54051468e-04
8.40000000e-02	1.95585211e-02	7.17303764e-04
8.42500000e-02	2.00965610e-02	7.36215232e-04
8.45000000e-02	1.97382241e-02	7.36141409e-04
8.47500000e-02	1.99832361e-02	7.43967355e-04
8.50000000e-02	1.98533246e-02	7.29279565e-04
8.52500000e-02	1.97528470e-02	7.34892538e-04
8.55000000e-02	1.97877791e-02	7.27362392e-04
8.57500000e-02	2.01866937e-02	7.49134670e-04
8.60000000e-02	1.98572421e-02	7.39255641e-04
8.62500000e-02	1.98743019e-02	7.36367922e-04
8.65000000e-02	1.95740492e-02	7.27513015e-04
8.67500000e-02	2.06794450e-02	7.61822738e-04
8.70000000e-02	1.97176869e-02	7.15913552e-04
8.72500000e-02	2.01993700e-02	7.15579076e-04
8.75000000e-02	1.99893516e-02	7.08580066e-04
8.77500000e-02	2.01464150e-02	7.09129994e-04
8.80000000e-02	2.08837411e-02	7.32456547e-04
8.82500000e-02	1.99393904e-02	6.93961227e-04
8.85000000e-02	1.96709570e-02	6.91399722e-04
8.87500000e-02	2.02918852e-02	7.00988176e-04
8.90000000e-02	2.00734301e-02	6.91356130e-04
8.92500000e-02	1.99156946e-02	6.84313642e-04
8.95000000e-02	1.98118348e-02	6.90846168e-04
8.97500000e-02	2.08024189e-02	7.09752001e-04
9.00000000e-02	1.99484688e-02	6.77232676e-04
9.02500000e-02	1.94787509e-02	6.60297874e-04
9.05000000e-02	2.02154807e-02	6.84145512e-04
9.07500000e-02	1.98300275e-02	6.71605854e-04
9.10000000e-02	1.93090563e-02	6.50581109e-04
9.12500000e-02	1.94822062e-02	6.57231272e-04
9.15000000e-02	1.94553448e-02	6.53308625e-04
9.17500000e-02	2.01375143e-02	6.76936039e-04
9.20000000e-02	2.01925803e-02	6.71378567e-04
9.22500000e-02	2.02128391e-02	6.71698916e-04
9.25000000e-02	2.02853668e-02	6.70662862e-04
9.27500000e-02	1.96060119e-02	6.51438402e-04
9.30000000e-02	2.01010558e-02	6.66930603e-04
9.32500000e-02	1.98825073e-02	6.60231464e-04
9.35000000e-02	1.96764633e-02	6.48321014e-04
9.37500000e-02	2.00166585e-02	6.62240922e-04
9.40000000e-02	1.95202424e-02	6.49607352e-04
9.42500000e-02	1.97094676e-02	6.45658919e-04
9.45000000e-02	2.00032415e-02	6.52266829e-04
9.47500000e-02	1.93309344e-02	6.29577534e-04
9.50000000e-02	1.98635834e-02	6.46873869e-04
9.52500000e-02	1.97921167e-02	6.44088798e-04
9.55000000e-02	2.00734778e-02	6.46610549e-04
9.57500000e-02	1.95533363e-02	6.30406217e-04
9.60000000e-02	2.00437038e-02	6.46610178e-04
9.62500000e-02	1.95741503e-02	6.32968416e-04
9.65000000e-02	1.94594777e-02	6.36086991e-04
9.67500000e-02	2.08237617e-02	6.71522718e-04
9.70000000e-02	2.01084285e-02	6.46411755e-04
9.72500000e-02	1.99601799e-02	6.37937333e-04
9.75000000e-02	1.95415254e-02	6.30998345e-04
9.77500000e-02	1.98310023e-02	6.29619959e-04
9.80000000e-02	1.98625912e-02	6.31801836e-04
9.82500000e-02	1.92283928e-02	6.17160995e-04
9.85000000e-02	1.94808540e-02	6.18363650e-04
9.87500000e-02	1.98474487e-02	6.30818080e-04
9.90000000e-02	1.96233356e-02	6.26332071e-04
9.92500000e-02	1.96904904e-02	6.23213136e-04
9.95000000e-02	1.98163801e-02	6.29092525e-04
9.97500000e-02	1.97372091e-02	6.22990753e-04
1.00000000e-01	1.97911668e-02	5.08468202e-04
1.00500000e-01	2.01245936e-02	4.49015070e-04
1.01000000e-01	1.94367198e-02	4.31875129e-04
1.01500000e-01	1.99537415e-02	4.40316827e-04
1.02000000e-01	1.99420242e-02	4.39140337e-04
1.02500000e-01	1.95976493e-02	4.30401250e-04
1.03000000e-01	1.94895429e-02	4.28282060e-04
1.03500000e-01	1.97652244e-02	4.33931783e-04
1.04000000e-01	1.97889651e-02	4.31114660e-04
1.04500000e-01	1.99158432e-02	4.31864828e-04
1.05000000e-01	1.96517778e-02	4.25165748e-04
1.05500000e-01	1.96353146e-02	4.25448208e-04
1.06000000e-01	1.97499874e-02	4.26094355e-04
1.06500000e-01	1.98228191e-02	4.25978627e-04
1.07000000e-01	1.96604383e-02	4.28153108e-04
1.07500000e-01	1.98216680e-02	4.38054391e-04
1.08000000e-01	1.94647416e-02	4.37637543e-04
1.08500000e-01	1.97513326e-02	4.45761215e-04
1.09000000e-01	2.01781491e-02	4.56182864e-04
1.09500000e-01	1.97597070e-02	4.48142252e-04
1.10000000e-01	1.93145585e-02	4.35194509e-04
1.10500000e-01	1.98541217e-02	4.35950783e-04
1.11000000e-01	1.97425426e-02	4.27885694e-04
1.11500000e-01	1.97115926e-02	4.23957821e-04
1.12000000e-01	1.95871883e-02	4.20120721e-04
1.12500000e-01	1.99036850e-02	4.22071049e-04
1.13000000e-01	1.98770244e-02	4.20811815e-04
1.13500000e-01	1.97782180e-02	4.18691806e-04
1.14000000e-01	1.99379377e-02	4.20757461e-04
1.14500000e-01	1.95632115e-02	4.10008732e-04
1.15000000e-01	1.95956401e-02	4.08705066e-04
1.15500000e-01	1.97597743e-02	4.13173549e-04
1.16000000e-01	1.93484844e-02	4.02895573e-04
1.16500000e-01	2.02122896e-02	4.20040100e-04
1.17000000e-01	1.97643941e-02	4.08936120e-04
1.17500000e-01	1.95457950e-02	4.03258057e-04
1.18000000e-01	1.97335382e-02	4.08544727e-04
1.18500000e-01	1.94276367e-02	3.99207815e-04
1.19000000e-01	1.94392350e-02	3.98570284e-04
1.19500000e-01	1.98011489e-02	4.05166219e-04
1.20000000e-01	1.98251613e-02	4.01528905e-04
1.20500000e-01	1.98879932e-02	4.04905163e-04
1.21000000e-01	1.95510454e-02	3.96968732e-04
1.21500000e-01	1.99391007e-02	4.04659193e-04
1.22000000e-01	1.94873431e-02	3.93942805e-04
1.22500000e-01	1.96391077e-02	3.98516439e-04
1.23000000e-01	1.93808222e-02	3.90555247e-04
1.23500000e-01	1.95174928e-02	3.91971998e-04
1.24000000e-01	1.93358116e-02	3.88141692e-04
1.24500000e-01	1.98288465e-02	3.95823762e-04
1.25000000e-01	1.97259618e-02	3.93075953e-04
1.25500000e-01	1.96375392e-02	3.91176161e-04
1.26000000e-01	1.96573117e-02	3.91009182e-04
1.26500000e-01	1.95419305e-02	3.88352748e-04
1.27000000e-01	1.93234762e-02	3.82201624e-04
1.27500000e-01	1.94988635e-02	3.85394379e-04
1.28000000e-01	1.95045371e-02	3.84482426e-04
1.28500000e-01	1.97637498e-02	3.87456724e-04
1.29000000e-01	1.95134387e-02	3.83550242e-04
1.29500000e-01	1.95823849e-02	3.84539555e-04
1.30000000e-01	1.93786756e-02	3.80187266e-04
1.30500000e-01	1.92055751e-02	3.76010440e-04
1.31000000e-01	1.96312665e-02	3.80977883e-04
1.31500000e-01	1.96588125e-02	3.81510548e-04
1.32000000e-01	1.95409622e-02	3.79295174e-04
1.32500000e-01	1.95319261e-02	3.76866740e-04
1.33000000e-01	1.97120074e-02	3.80953212e-04
1.33500000e-01	1.96164320e-02	3.78092791e-04
1.34000000e-01	1.95055382e-02	3.74674015e-04
1.34500000e-01	1.97663424e-02	3.78210364e-04
1.35000000e-01	1.97813999e-02	3.77394799e-04
1.35500000e-01	1.98739639e-02	3.76535774e-04
1.36000000e-01	1.95357223e-02	3.69077283e-04
1.36500000e-01	1.98655252e-02	3.77677035e-04
1.37000000e-01	1.95385471e-02	3.69331198e-04
1.37500000e-01	1.96243030e-02	3.70244412e-04
1.38000000e-01	1.92929320e-02	3.64481474e-04
1.38500000e-01	1.93985745e-02	3.67752793e-04
1.39000000e-01	1.93667952e-02	3.65460085e-04
1.39500000e-01	1.95549132e-02	3.67920605e-04
1.40000000e-01	1.96605361e-02	3.70482895e-04
1.40500000e-01	1.99367839e-02	3.74062747e-04
1.41000000e-01	1.96259912e-02	3.66931231e-04
1.41500000e-01	1.95232514e-02	3.66632599e-04
1.42000000e-01	1.94733548e-02	3.62256008e-04
1.42500000e-01	1.97832659e-02	3.69115621e-04
1.43000000e-01	1.94507710e-02	3.63393012e-04
1.43500000e-01	1.95192350e-02	3.63076721e-04
1.44000000e-01	1.90641616e-02	3.55049683e-04
1.44500000e-01	1.96164380e-02	3.63259597e-04
1.45000000e-01	1.91901112e-02	3.56214293e-04
1.45500000e-01	1.91899002e-02	3.56955962e-04
1.46000000e-01	1.95472440e-02	3.60855876e-04
1.46500000e-01	1.91929366e-02	3.54047915e-04
1.47000000e-01	1.95546101e-02	3.61261792e-04
1.47500000e-01	1.94273692e-02	3.56527628e-04
1.48000000e-01	1.93338772e-02	3.55121937e-04
1.48500000e-01	1.95379120e-02	3.57808083e-04
1.49000000e-01	1.93636188e-02	3.53858950e-04
1.49500000e-01	1.95514358e-02	3.55172260e-04
1.50000000e-01	1.91647174e-02	3.49144837e-04
1.50500000e-01	1.93024195e-02	3.51447313e-04
1.51000000e-01	1.96246893e-02	3.55688211e-04
1.51500000e-01	1.93217163e-02	3.48237328e-04
1.52000000e-01	1.96660101e-02	3.53676760e-04
1.52500000e-01	1.94601980e-02	3.50302738e-04
1.53000000e-01	1.90608551e-02	3.43366810e-04
1.53500000e-01	1.92695579e-02	3.46470499e-04
1.54000000e-01	1.91938026e-02	3.42819743e-04
1.54500000e-01	1.94892720e-02	3.55877033e-04
1.55000000e-01	1.92466575e-02	3.54210586e-04
1.55500000e-01	1.92539804e-02	3.57790595e-04
1.56000000e-01	1.91739908e-02	3.58170194e-04
1.56500000e-01	1.92961983e-02	3.61895209e-04
1.57000000e-01	1.91082651e-02	3.58112156e-04
1.57500000e-01	1.90628288e-02	3.50038703e-04
1.58000000e-01	1.91236480e-02	3.49017676e-04
1.58500000e-01	1.90752279e-02	3.45255903e-04
1.59000000e-01	1.92289313e-02	3.45089101e-04
1.59500000e-01	1.92183213e-02	3.45301167e-04
1.60000000e-01	1.91138726e-02	3.44221353e-04
1.60500000e-01	1.91664456e-02	3.41569382e-04
1.61000000e-01	1.88737486e-02	3.38404115e-04
1.61500000e-01	1.91139983e-02	3.38903767e-04
1.62000000e-01	1.88644402e-02	3.34369586e-04
1.62500000e-01	1.93024433e-02	3.41669463e-04
1.63000000e-01	1.88692647e-02	3.34591656e-04
1.63500000e-01	1.92764562e-02	3.41082113e-04
1.64000000e-01	1.90477182e-02	3.34575986e-04
1.64500000e-01	1.88716168e-02	3.31675062e-04
1.65000000e-01	1.91368582e-02	3.35182768e-04
1.65500000e-01	1.89127757e-02	3.31174036e-04
1.66000000e-01	1.91793833e-02	3.37208169e-04
1.66500000e-01	1.90482397e-02	3.32607703e-04
1.67000000e-01	1.89775635e-02	3.30055845e-04
1.67500000e-01	1.89100033e-02	3.29935826e-04
1.68000000e-01	1.90365724e-02	3.30938156e-04
1.68500000e-01	1.90221378e-02	3.29749765e-04
1.69000000e-01	1.90345497e-02	3.29816732e-04
1.69500000e-01	1.86491670e-02	3.22275422e-04
1.70000000e-01	1.91348891e-02	3.30171070e-04
1.70500000e-01	1.89487524e-02	3.26157967e-04
1.71000000e-01	1.88269946e-02	3.24244121e-04
1.71500000e-01	1.90013720e-02	3.26970488e-04
1.72000000e-01	1.89973707e-02	3.24850328e-04
1.72500000e-01	1.88106603e-02	3.22979549e-04
1.73000000e-01	1.91284595e-02	3.26490091e-04
1.73500000e-01	1.90194466e-02	3.24445962e-04
1.74000000e-01	1.87922407e-02	3.20136296e-04
1.74500000e-01	1.89503772e-02	3.20945292e-04
1.75000000e-01	1.87995702e-02	3.18415952e-04
1.75500000e-01	1.90696657e-02	3.20477113e-04
1.76000000e-01	1.83686429e-02	3.11681024e-04
1.76500000e-01	1.90360324e-02	3.21099015e-04
1.77000000e-01	1.84776506e-02	3.11639877e-04
1.77500000e-01	1.85265587e-02	3.11719659e-04
1.78000000e-01	1.86724696e-02	3.13665930e-04
1.78500000e-01	1.83101202e-02	3.08344187e-04
1.79000000e-01	1.85589242e-02	3.10476507e-04
1.79500000e-01	1.87729151e-02	3.15717293e-04
1.80000000e-01	1.87728255e-02	3.15130930e-04
1.80500000e-01	1.86595748e-02	3.12250489e-04
1.81000000e-01	1.88737819e-02	3.16465748e-04
1.81500000e-01	1.86007478e-02	3.10378686e-04
1.82000000e-01	1.88304541e-02	3.14676925e-04
1.82500000e-01	1.88545389e-02	3.12994543e-04
1.83000000e-01	1.85655555e-02	3.10105751e-04
1.83500000e-01	1.86015094e-02	3.09531376e-04
1.84000000e-01	1.86358143e-02	3.09415902e-04
1.84500000e-01	1.85963792e-02	3.09383975e-04
1.85000000e-01	1.86621875e-02	3.09014157e-04
1.85500000e-01	1.88082418e-02	3.10219698e-04
1.86000000e-01	1.88186666e-02	3.10330276e-04
1.86500000e-01	1.85197843e-02	3.04808632e-04
1.87000000e-01	1.83203299e-02	3.02810476e-04
1.87500000e-01	1.86143593e-02	3.06120996e-04
1.88000000e-01	1.85259509e-02	3.04962036e-04
1.88500000e-01	1.84596032e-02	3.02978755e-04
1.89000000e-01	1.84153111e-02	3.01281681e-04
1.89500000e-01	1.83528669e-02	3.00657894e-04
1.90000000e-01	1.84058647e-02	3.00125690e-04
1.90500000e-01	1.83237376e-02	3.01255671e-04
1.91000000e-01	1.84012684e-02	3.00208312e-04
1.91500000e-01	1.83842031e-02	3.00376716e-04
1.92000000e-01	1.86402665e-02	3.03908183e-04
1.92500000e-01	1.81025667e-02	2.94055580e-04
1.93000000e-01	1.84138130e-02	2.99368082e-04
1.93500000e-01	1.84070574e-02	2.98114859e-04
1.94000000e-01	1.82031356e-02	2.95764573e-04
1.94500000e-01	1.85042150e-02	2.99362759e-04
1.95000000e-01	1.82395286e-02	2.94828632e-04
1.95500000e-01	1.85337401e-02	2.98102064e-04
1.96000000e-01	1.83430066e-02	2.96299654e-04
1.96500000e-01	1.81322140e-02	2.92299655e-04
1.97000000e-01	1.85683947e-02	2.98447848e-04
1.97500000e-01	1.84312608e-02	2.94694809e-04
1.98000000e-01	1.83612081e-02	2.93839188e-04
1.98500000e-01	1.86223013e-02	2.97511392e-04
1.99000000e-01	1.82372452e-02	2.92893885e-04
1.99500000e-01	1.83758452e-02	2.93585534e-04
2.00000000e-01	1.83633458e-02	2.93024678e-04
2.00500000e-01	1.83088430e-02	2.90667698e-04
2.01000000e-01	1.82658666e-02	2.90429182e-04
2.01500000e-01	1.86157886e-02	2.95163114e-04
2.02000000e-01	1.82595797e-02	2.90617690e-04
2.02500000e-01	1.85871624e-02	2.94583807e-04
2.03000000e-01	1.81530350e-02	2.87893813e-04
2.03500000e-01	1.81748144e-02	2.89714242e-04
2.04000000e-01	1.81864014e-02	2.87300722e-04
2.04500000e-01	1.82945046e-02	2.89752320e-04
2.05000000e-01	1.82619549e-02	2.88703640e-04
2.05500000e-01	1.84690765e-02	2.90542880e-04
2.06000000e-01	1.83286770e-02	2.87322896e-04
2.06500000e-01	1.83014538e-02	2.87050652e-04
2.07000000e-01	1.81769842e-02	2.85234137e-04
2.07500000e-01	1.80580124e-02	2.83510853e-04
2.08000000e-01	1.79790814e-02	2.82594468e-04
2.08500000e-01	1.79450440e-02	2.80873123e-04
2.09000000e-01	1.84777851e-02	2.88498378e-04
2.09500000e-01	1.81358576e-02	2.81436787e-04
2.10000000e-01	1.79309873e-02	2.80452490e-04
2.10500000e-01	1.79134167e-02	2.78828382e-04
2.11000000e-01	1.78781845e-02	2.78398036e-04
2.11500000e-01	1.81372526e-02	2.82892928e-04
2.12000000e-01	1.80954724e-02	2.80689899e-04
2.12500000e-01	1.81786079e-02	2.81654913e-04
2.13000000e-01	1.80208656e-02	2.78369723e-04
2.13500000e-01	1.80885650e-02	2.79823315e-04
2.14000000e-01	1.80322978e-02	2.78707318e-04
2.14500000e-01	1.79140172e-02	2.76282986e-04
2.15000000e-01	1.82052864e-02	2.82551609e-04
2.15500000e-01	1.80408165e-02	2.76220095e-04
2.16000000e-01	1.81254786e-02	2.78702550e-04
2.16500000e-01	1.82232169e-02	2.79400001e-04
2.17000000e-01	1.81748313e-02	2.82936334e-04
2.17500000e-01	1.82381210e-02	2.87806295e-04
2.18000000e-01	1.76511146e-02	2.79726402e-04
2.18500000e-01	1.79870787e-02	2.87146848e-04
2.19000000e-01	1.80873721e-02	2.89393024e-04
2.19500000e-01	1.80850907e-02	2.91308076e-04
2.20000000e-01	1.80768537e-02	2.93003388e-04
2.20500000e-01	1.80952748e-02	2.91930400e-04
2.21000000e-01	1.77616704e-02	2.88633643e-04
2.21500000e-01	1.80337493e-02	2.93403436e-04
2.22000000e-01	1.79494151e-02	2.91980631e-04
2.22500000e-01	1.81936104e-02	2.95984402e-04
2.23000000e-01	1.78060380e-02	2.91147464e-04
2.23500000e-01	1.79990635e-02	2.94315678e-04
2.24000000e-01	1.79055481e-02	2.94559508e-04
2.24500000e-01	1.78924079e-02	2.96264266e-04
2.25000000e-01	1.78883646e-02	2.95704492e-04
2.25500000e-01	1.79560948e-02	2.97211275e-04
2.26000000e-01	1.80943363e-02	2.99926225e-04
2.26500000e-01	1.81268866e-02	2.95576147e-04
2.27000000e-01	1.81847055e-02	2.94262412e-04
2.27500000e-01	1.79152981e-02	2.88033298e-04
2.28000000e-01	1.78719931e-02	2.86357038e-04
2.28500000e-01	1.80475357e-02	2.86689760e-04
2.29000000e-01	1.76723940e-02	2.79390449e-04
2.29500000e-01	1.78767874e-02	2.81659416e-04
2.30000000e-01	1.81084234e-02	2.84948391e-04
2.30500000e-01	1.77397292e-02	2.78999957e-04
2.31000000e-01	1.77389174e-02	2.78443147e-04
2.31500000e-01	1.76570469e-02	2.75310283e-04
2.32000000e-01	1.78884095e-02	2.77583351e-04
2.32500000e-01	1.79539502e-02	2.79949854e-04
2.33000000e-01	1.76095324e-02	2.72197852e-04
2.33500000e-01	1.78645775e-02	2.76661721e-04
2.34000000e-01	1.76726807e-02	2.73020772e-04
2.34500000e-01	1.79148965e-02	2.74535479e-04
2.35000000e-01	1.77889447e-02	2.72984393e-04
2.35500000e-01	1.77846178e-02	2.72463745e-04
2.36000000e-01	1.75523951e-02	2.69532479e-04
2.36500000e-01	1.76803034e-02	2.70700543e-04
2.37000000e-01	1.75332820e-02	2.68677204e-04
2.37500000e-01	1.78034137e-02	2.72294889e-04
2.38000000e-01	1.74897599e-02	2.66274601e-04
2.38500000e-01	1.77825343e-02	2.70557444e-04
2.39000000e-01	1.74590582e-02	2.64904766e-04
2.39500000e-01	1.75737283e-02	2.66317690e-04
2.40000000e-01	1.76182366e-02	2.66074129e-04
2.40500000e-01	1.75688705e-02	2.63622943e-04
2.41000000e-01	1.75529840e-02	2.65088444e-04
2.41500000e-01	1.77799807e-02	2.66910989e-04
2.42000000e-01	1.75604421e-02	2.63737981e-04
2.42500000e-01	1.76336703e-02	2.65242802e-04
2.43000000e-01	1.80168444e-02	2.69488766e-04
2.43500000e-01	1.75586467e-02	2.61419448e-04
2.44000000e-01	1.75838482e-02	2.62339813e-04
2.44500000e-01	1.74787414e-02	2.60856729e-04
2.45000000e-01	1.77881131e-02	2.63068630e-04
2.45500000e-01	1.77723242e-02	2.64304415e-04
2.46000000e-01	1.77932982e-02	2.64628014e-04
2.46500000e-01	1.75681321e-02	2.60324147e-04
2.47000000e-01	1.76688971e-02	2.62333569e-04
2.47500000e-01	1.74777658e-02	2.57707917e-04
2.48000000e-01	1.75357378e-02	2.58987224e-04
2.48500000e-01	1.72920075e-02	2.55369111e-04
2.49000000e-01	1.74874705e-02	2.57608998e-04
2.49500000e-01	1.75704395e-02	2.57588775e-04
2.50000000e-01	1.73701636e-02	2.54870879e-04
2.50500000e-01	1.73625138e-02	2.55661779e-04
2.51000000e-01	1.73048801e-02	2.53319543e-04
2.51500000e-01	1.74805489e-02	2.56740808e-04
2.52000000e-01	1.74363690e-02	2.55490778e-04
2.52500000e-01	1.72156034e-02	2.52073491e-04
2.53000000e-01	1.72463504e-02	2.52179859e-04
2.53500000e-01	1.73104888e-02	2.52841775e-04
2.54000000e-01	1.75131798e-02	2.56022369e-04
2.54500000e-01	1.73555724e-02	2.54280274e-04
2.55000000e-01	1.70659250e-02	2.49976052e-04
2.55500000e-01	1.72769016e-02	2.52058324e-04
2.56000000e-01	1.75511825e-02	2.54417034e-04
2.56500000e-01	1.73484117e-02	2.51245398e-04
2.57000000e-01	1.73520961e-02	2.51433883e-04
2.57500000e-01	1.73117916e-02	2.50706400e-04
2.58000000e-01	1.74098210e-02	2.51233591e-04
2.58500000e-01	1.73466608e-02	2.50909381e-04
2.59000000e-01	1.71110765e-02	2.47088453e-04
2.59500000e-01	1.74307092e-02	2.50843400e-04
2.60000000e-01	1.72274367e-02	2.47906559e-04
2.60500000e-01	1.72803990e-02	2.48832020e-04
2.61000000e-01	1.74478842e-02	2.50918101e-04
2.61500000e-01	1.71627853e-02	2.46882005e-04
2.62000000e-01	1.74905381e-02	2.50358592e-04
2.62500000e-01	1.74004689e-02	2.49273539e-04
2.63000000e-01	1.72493741e-02	2.47136938e-04
2.63500000e-01	1.71739440e-02	2.45942074e-04
2.64000000e-01	1.72261728e-02	2.45981428e-04
2.64500000e-01	1.72659746e-02	2.46171610e-04
2.65000000e-01	1.72732247e-02	2.46281159e-04
2.65500000e-01	1.72874507e-02	2.46031445e-04
2.66000000e-01	1.71166978e-02	2.43120211e-04
2.66500000e-01	1.72819217e-02	2.45816858e-04
2.67000000e-01	1.73003211e-02	2.45509460e-04
2.67500000e-01	1.73662201e-02	2.45599661e-04
2.68000000e-01	1.70844564e-02	2.41915835e-04
2.68500000e-01	1.73424549e-02	2.44803192e-04
2.69000000e-01	1.71205666e-02	2.41552990e-04
2.69500000e-01	1.71568901e-02	2.41906158e-04
2.70000000e-01	1.71006819e-02	2.41241446e-04
2.70500000e-01	1.71983495e-02	2.41147961e-04
2.71000000e-01	1.72076826e-02	2.41794957e-04
2.71500000e-01	1.72791522e-02	2.41936339e-04
2.72000000e-01	1.69727601e-02	2.38536808e-04
2.72500000e-01	1.70970429e-02	2.40484576e-04
2.73000000e-01	1.70903587e-02	2.39446603e-04
2.73500000e-01	1.72978624e-02	2.40745550e-04
2.74000000e-01	1.70290943e-02	2.38916460e-04
2.74500000e-01	1.70709643e-02	2.38648647e-04
2.75000000e-01	1.72506771e-02	2.40233111e-04
2.75500000e-01	1.72573499e-02	2.40633648e-04
2.76000000e-01	1.68094949e-02	2.34459261e-04
2.76500000e-01	1.71922685e-02	2.39572100e-04
2.77000000e-01	1.71876739e-02	2.38735924e-04
2.77500000e-01	1.71520721e-02	2.39159811e-04
2.78000000e-01	1.69886482e-02	2.35690928e-04
2.78500000e-01	1.72652634e-02	2.39548278e-04
2.79000000e-01	1.68616842e-02	2.34906208e-04
2.79500000e-01	1.70452615e-02	2.35456839e-04
2.80000000e-01	1.72778913e-02	2.39400606e-04
2.80500000e-01	1.70245078e-02	2.35649253e-04
2.81000000e-01	1.69389478e-02	2.34553280e-04
2.81500000e-01	1.71450956e-02	2.37020466e-04
2.82000000e-01	1.70835468e-02	2.35485855e-04
2.82500000e-01	1.69394268e-02	2.34334918e-04
2.83000000e-01	1.69172794e-02	2.33263382e-04
2.83500000e-01	1.69282863e-02	2.33413980e-04
2.84000000e-01	1.68901190e-02	2.32468122e-04
2.84500000e-01	1.70727183e-02	2.34448385e-04
2.85000000e-01	1.72211901e-02	2.35844637e-04
2.85500000e-01	1.69327123e-02	2.32283957e-04
2.86000000e-01	1.68042098e-02	2.31033064e-04
2.86500000e-01	1.71641985e-02	2.34296979e-04
2.87000000e-01	1.68749815e-02	2.31562889e-04
2.87500000e-01	1.70192248e-02	2.32173401e-04
2.88000000e-01	1.69835891e-02	2.30963880e-04
2.88500000e-01	1.69393840e-02	2.30950941e-04
2.89000000e-01	1.68948861e-02	2.29532436e-04
2.89500000e-01	1.68021418e-02	2.29609939e-04
2.90000000e-01	1.67263070e-02	2.27919559e-04
2.90500000e-01	1.69066188e-02	2.29137126e-04
2.91000000e-01	1.68648354e-02	2.29290189e-04
2.91500000e-01	1.67508002e-02	2.26427083e-04
2.92000000e-01	1.68058756e-02	2.27937119e-04
2.92500000e-01	1.68070016e-02	2.26761085e-04
2.93000000e-01	1.68592934e-02	2.27882074e-04
2.93500000e-01	1.68746028e-02	2.27461871e-04
2.94000000e-01	1.67170210e-02	2.25874067e-04
2.94500000e-01	1.67106918e-02	2.25783491e-04
2.95000000e-01	1.69115505e-02	2.27337625e-04
2.95500000e-01	1.66191302e-02	2.24108163e-04
2.96000000e-01	1.67308009e-02	2.25385776e-04
2.96500000e-01	1.66531076e-02	2.24672633e-04
2.97000000e-01	1.68385900e-02	2.26322570e-04
2.97500000e-01	1.67309127e-02	2.23094540e-04
2.98000000e-01	1.66933810e-02	2.24435284e-04
2.98500000e-01	1.67455026e-02	2.25582653e-04
2.99000000e-01	1.67401223e-02	2.23565602e-04
2.99500000e-01	1.68483813e-02	2.26157383e-04
3.00000000e-01	1.67987564e-02	2.24247718e-04
3.00500000e-01	1.67765158e-02	2.24888136e-04
3.01000000e-01	1.66623881e-02	2.22593410e-04
3.01500000e-01	1.66584541e-02	2.22346870e-04
3.02000000e-01	1.65967597e-02	2.21730952e-04
3.02500000e-01	1.66424171e-02	2.21290922e-04
3.03000000e-01	1.67583847e-02	2.22714972e-04
3.03500000e-01	1.66895959e-02	2.21499421e-04
3.04000000e-01	1.68413473e-02	2.23730960e-04
3.04500000e-01	1.68202219e-02	2.22705338e-04
3.05000000e-01	1.65837988e-02	2.19798107e-04
3.05500000e-01	1.67302684e-02	2.21070301e-04
3.06000000e-01	1.65712040e-02	2.18580110e-04
3.06500000e-01	1.68122410e-02	2.21329754e-04
3.07000000e-01	1.65896737e-02	2.19128030e-04
3.07500000e-01	1.65958748e-02	2.18936388e-04
3.08000000e-01	1.64877893e-02	2.18271356e-04
3.08500000e-01	1.64985184e-02	2.17820993e-04
3.09000000e-01	1.65848336e-02	2.19190960e-04
3.09500000e-01	1.66112423e-02	2.18203664e-04
3.10000000e-01	1.65876229e-02	2.18627365e-04
3.10500000e-01	1.64652986e-02	2.17457081e-04
3.11000000e-01	1.65794880e-02	2.17642378e-04
3.11500000e-01	1.64949281e-02	2.16599919e-04
3.12000000e-01	1.63984037e-02	2.14464524e-04
3.12500000e-01	1.65288540e-02	2.17040052e-04
3.13000000e-01	1.67271574e-02	2.18761391e-04
3.13500000e-01	1.65956829e-02	2.16621402e-04
3.14000000e-01	1.65546274e-02	2.16271532e-04
3.14500000e-01	1.64170491e-02	2.14095300e-04
3.15000000e-01	1.63910118e-02	2.14767958e-04
3.15500000e-01	1.66797005e-02	2.17054424e-04
3.16000000e-01	1.63322726e-02	2.13122078e-04
3.16500000e-01	1.66633059e-02	2.16581169e-04
3.17000000e-01	1.65310235e-02	2.15011402e-04
3.17500000e-01	1.64609479e-02	2.14109729e-04
3.18000000e-01	1.63547833e-02	2.12351511e-04
3.18500000e-01	1.63990780e-02	2.12648566e-04
3.19000000e-01	1.63816861e-02	2.12203637e-04
3.19500000e-01	1.64691284e-02	2.13133177e-04
3.20000000e-01	1.62374982e-02	2.10070421e-04
3.20500000e-01	1.63848613e-02	2.12370091e-04
3.21000000e-01	1.63470240e-02	2.11920412e-04
3.21500000e-01	1.64285759e-02	2.12037718e-04
3.22000000e-01	1.62243623e-02	2.09789377e-04
3.22500000e-01	1.63688832e-02	2.11231623e-04
3.23000000e-01	1.62647575e-02	2.09882941e-04
3.23500000e-01	1.61552590e-02	2.08461546e-04
3.24000000e-01	1.63327143e-02	2.10298914e-04
3.24500000e-01	1.63041748e-02	2.10594739e-04
3.25000000e-01	1.63972003e-02	2.10730090e-04
3.25500000e-01	1.63109285e-02	2.09426527e-04
3.26000000e-01	1.63517972e-02	2.09770564e-04
3.26500000e-01	1.62145609e-02	2.07624466e-04
3.27000000e-01	1.61496589e-02	2.07835856e-04
3.27500000e-01	1.62653244e-02	2.08503503e-04
3.28000000e-01	1.62350354e-02	2.07686693e-04
3.28500000e-01	1.62543682e-02	2.08295728e-04
3.29000000e-01	1.62475129e-02	2.07859571e-04
3.29500000e-01	1.64472984e-02	2.10718267e-04
3.30000000e-01	1.61788439e-02	2.05866731e-04
3.30500000e-01	1.63402802e-02	2.08298166e-04
3.31000000e-01	1.61808690e-02	2.05447964e-04
3.31500000e-01	1.59949322e-02	2.04727643e-04
3.32000000e-01	1.60212982e-02	2.04508054e-04
3.32500000e-01	1.62699382e-02	2.05840046e-04
3.33000000e-01	1.62653471e-02	2.06607380e-04
3.33500000e-01	1.61407680e-02	2.05140350e-04
3.34000000e-01	1.61805411e-02	2.05321735e-04
3.34500000e-01	1.60221372e-02	2.03462083e-04
3.35000000e-01	1.60493511e-02	2.03666942e-04
3.35500000e-01	1.60444813e-02	2.03504417e-04
3.36000000e-01	1.62238043e-02	2.05096204e-04
3.36500000e-01	1.61067132e-02	2.04383000e-04
3.37000000e-01	1.62696246e-02	2.05440901e-04
3.37500000e-01	1.62705847e-02	2.05198676e-04
3.38000000e-01	1.61028123e-02	2.03056607e-04
3.38500000e-01	1.60037381e-02	2.01237699e-04
3.39000000e-01	1.61179351e-02	2.03278659e-04
3.39500000e-01	1.60912660e-02	2.01995739e-04
3.40000000e-01	1.60559851e-02	2.02371279e-04
3.40500000e-01	1.59946745e-02	2.01194605e-04
3.41000000e-01	1.59136683e-02	1.99868369e-04
3.41500000e-01	1.60663244e-02	2.02064555e-04
3.42000000e-01	1.61009484e-02	2.01701434e-04
3.42500000e-01	1.60626587e-02	2.01564336e-04
3.43000000e-01	1.61771346e-02	2.02176916e-04
3.43500000e-01	1.59982704e-02	2.00526165e-04
3.44000000e-01	1.58406341e-02	1.98990146e-04
3.44500000e-01	1.58794166e-02	1.98429363e-04
3.45000000e-01	1.58508267e-02	1.99059688e-04
3.45500000e-01	1.59507702e-02	1.98437687e-04
3.46000000e-01	1.59853871e-02	2.00037167e-04
3.46500000e-01	1.60436030e-02	1.99988793e-04
3.47000000e-01	1.59591128e-02	1.98428798e-04
3.47500000e-01	1.59989686e-02	1.99819078e-04
3.48000000e-01	1.58342982e-02	1.96780878e-04
3.48500000e-01	1.59243992e-02	1.98810711e-04
3.49000000e-01	1.56419356e-02	1.94900693e-04
3.49500000e-01	1.59277276e-02	1.97643122e-04
3.50000000e-01	1.58594854e-02	1.60312071e-04
3.51000000e-01	1.58328633e-02	1.38728503e-04
3.52000000e-01	1.58267379e-02	1.38588103e-04
3.53000000e-01	1.58164213e-02	1.38160687e-04
3.54000000e-01	1.57901002e-02	1.37605443e-04
3.55000000e-01	1.57906166e-02	1.37699740e-04
3.56000000e-01	1.57743769e-02	1.38471484e-04
3.57000000e-01	1.56420993e-02	1.39624561e-04
3.58000000e-01	1.56375169e-02	1.40606785e-04
3.59000000e-01	1.57015691e-02	1.42348195e-04
3.60000000e-01	1.57473487e-02	1.43366536e-04
3.61000000e-01	1.56117602e-02	1.42957317e-04
3.62000000e-01	1.57037147e-02	1.44463771e-04
3.63000000e-01	1.55991118e-02	1.43708256e-04
3.64000000e-01	1.55425648e-02	1.44032215e-04
3.65000000e-01	1.55248616e-02	1.44535772e-04
3.66000000e-01	1.54818840e-02	1.42512956e-04
3.67000000e-01	1.56019148e-02	1.41249278e-04
3.68000000e-01	1.55514511e-02	1.39976695e-04
3.69000000e-01	1.55215712e-02	1.38954607e-04
3.70000000e-01	1.55076067e-02	1.37854450e-04
3.71000000e-01	1.55133044e-02	1.39782851e-04
3.72000000e-01	1.55519805e-02	1.41033749e-04
3.73000000e-01	1.55774253e-02	1.41809887e-04
3.74000000e-01	1.56170860e-02	1.41920388e-04
3.75000000e-01	1.54735922e-02	1.41200176e-04
3.76000000e-01	1.55341213e-02	1.41313329e-04
3.77000000e-01	1.55432197e-02	1.41557954e-04
3.78000000e-01	1.55257893e-02	1.41424489e-04
3.79000000e-01	1.52901162e-02	1.39489416e-04
3.80000000e-01	1.54500330e-02	1.40433434e-04
3.81000000e-01	1.53655497e-02	1.39613389e-04
3.82000000e-01	1.53817554e-02	1.40110933e-04
3.83000000e-01	1.53129783e-02	1.39691819e-04
3.84000000e-01	1.54512558e-02	1.39989036e-04
3.85000000e-01	1.52281748e-02	1.38564757e-04
3.86000000e-01	1.52730177e-02	1.38542751e-04
3.87000000e-01	1.53829444e-02	1.39409234e-04
3.88000000e-01	1.53728129e-02	1.39488659e-04
3.89000000e-01	1.51856339e-02	1.38121138e-04
3.90000000e-01	1.54019101e-02	1.39442276e-04
3.91000000e-01	1.52469600e-02	1.38180472e-04
3.92000000e-01	1.52646087e-02	1.38228599e-04
3.93000000e-01	1.51879529e-02	1.37641879e-04
3.94000000e-01	1.53056296e-02	1.38585857e-04
3.95000000e-01	1.52545631e-02	1.38246373e-04
3.96000000e-01	1.51946953e-02	1.37603583e-04
3.97000000e-01	1.50718049e-02	1.36697015e-04
3.98000000e-01	1.52214143e-02	1.37995200e-04
3.99000000e-01	1.51621909e-02	1.37189617e-04
4.00000000e-01	1.51428009e-02	1.37435314e-04
4.01000000e-01	1.52044866e-02	1.37660452e-04
4.02000000e-01	1.50901597e-02	1.37176894e-04
4.03000000e-01	1.52294900e-02	1.38170299e-04
4.04000000e-01	1.50914812e-02	1.36869704e-04
4.05000000e-01	1.51449965e-02	1.37344529e-04
4.06000000e-01	1.50570836e-02	1.36466065e-04
4.07000000e-01	1.49991893e-02	1.35860423e-04
4.08000000e-01	1.51267794e-02	1.36778933e-04
4.09000000e-01	1.49724636e-02	1.35404517e-04
4.10000000e-01	1.49593360e-02	1.35315877e-04
4.11000000e-01	1.51105956e-02	1.36666822e-04
4.12000000e-01	1.48661610e-02	1.34360814e-04
4.13000000e-01	1.50483953e-02	1.35785468e-04
4.14000000e-01	1.50576732e-02	1.35499325e-04
4.15000000e-01	1.49147493e-02	1.34481944e-04
4.16000000e-01	1.50232969e-02	1.35578671e-04
4.17000000e-01	1.50105651e-02	1.35467949e-04
4.18000000e-01	1.49072655e-02	1.35972663e-04
4.19000000e-01	1.51648583e-02	1.39592915e-04
4.20000000e-01	1.50956156e-02	1.40201227e-04
4.21000000e-01	1.49794563e-02	1.39880504e-04
4.22000000e-01	1.48833628e-02	1.39252918e-04
4.23000000e-01	1.50581771e-02	1.41206940e-04
4.24000000e-01	1.49653029e-02	1.40955899e-04
4.25000000e-01	1.50232287e-02	1.41113342e-04
4.26000000e-01	1.49567620e-02	1.40558554e-04
4.27000000e-01	1.49498396e-02	1.40971360e-04
4.28000000e-01	1.48725523e-02	1.40415122e-04
4.29000000e-01	1.49666352e-02	1.41550846e-04
4.30000000e-01	1.49308709e-02	1.40986273e-04
4.31000000e-01	1.49450514e-02	1.41003967e-04
4.32000000e-01	1.49705538e-02	1.41656674e-04
4.33000000e-01	1.48329022e-02	1.40427941e-04
4.34000000e-01	1.48145827e-02	1.40356047e-04
4.35000000e-01	1.48132323e-02	1.40360215e-04
4.36000000e-01	1.48442740e-02	1.40796284e-04
4.37000000e-01	1.49506896e-02	1.41901961e-04
4.38000000e-01	1.48258211e-02	1.41293991e-04
4.39000000e-01	1.48004023e-02	1.41193843e-04
4.40000000e-01	1.48543539e-02	1.41580886e-04
4.41000000e-01	1.49037141e-02	1.42356171e-04
4.42000000e-01	1.47512817e-02	1.41344175e-04
4.43000000e-01	1.48714031e-02	1.42344911e-04
4.44000000e-01	1.47490493e-02	1.41769125e-04
4.45000000e-01	1.48541737e-02	1.42500098e-04
4.46000000e-01	1.47822839e-02	1.41969215e-04
4.47000000e-01	1.46781768e-02	1.41412716e-04
4.48000000e-01	1.47281076e-02	1.41939353e-04
4.49000000e-01	1.46434235e-02	1.41544684e-04
4.50000000e-01	1.45742230e-02	1.40658921e-04
4.51000000e-01	1.47485807e-02	1.42400735e-04
4.52000000e-01	1.47530718e-02	1.42895324e-04
4.53000000e-01	1.46621514e-02	1.42089210e-04
4.54000000e-01	1.47853516e-02	1.43500681e-04
4.55000000e-01	1.47158030e-02	1.43267177e-04
4.56000000e-01	1.44895849e-02	1.41016084e-04
4.57000000e-01	1.45727402e-02	1.42007428e-04
4.58000000e-01	1.46313960e-02	1.42113997e-04
4.59000000e-01	1.45855434e-02	1.41630495e-04
4.60000000e-01	1.45397539e-02	1.41462772e-04
4.61000000e-01	1.45689418e-02	1.42004562e-04
4.62000000e-01	1.45287637e-02	1.41915390e-04
4.63000000e-01	1.47385014e-02	1.44038846e-04
4.64000000e-01	1.46749988e-02	1.43176621e-04
4.65000000e-01	1.45863636e-02	1.42667680e-04
4.66000000e-01	1.44994867e-02	1.41992035e-04
4.67000000e-01	1.45178649e-02	1.42260454e-04
4.68000000e-01	1.45586076e-02	1.42691792e-04
4.69000000e-01	1.45411006e-02	1.42796270e-04
4.70000000e-01	1.46610854e-02	1.43532845e-04
4.71000000e-01	1.45599710e-02	1.42757606e-04
4.72000000e-01	1.46125936e-02	1.43205675e-04
4.73000000e-01	1.45797642e-02	1.42793484e-04
4.74000000e-01	1.45201983e-02	1.42000845e-04
4.75000000e-01	1.45106385e-02	1.42145231e-04
4.76000000e-01	1.43708336e-02	1.40829853e-04
4.77000000e-01	1.42713671e-02	1.40132910e-04
4.78000000e-01	1.45395364e-02	1.42653739e-04
4.79000000e-01	1.45169983e-02	1.42292299e-04
4.80000000e-01	1.44267596e-02	1.41820264e-04
4.81000000e-01	1.43654095e-02	1.41078488e-04
4.82000000e-01	1.44164200e-02	1.41518215e-04
4.83000000e-01	1.43449774e-02	1.41449916e-04
4.84000000e-01	1.44194018e-02	1.42396698e-04
4.85000000e-01	1.44463392e-02	1.42368060e-04
4.86000000e-01	1.42862685e-02	1.40618388e-04
4.87000000e-01	1.42961916e-02	1.40675652e-04
4.88000000e-01	1.44001432e-02	1.42002673e-04
4.89000000e-01	1.43201310e-02	1.41269819e-04
4.90000000e-01	1.43730659e-02	1.42137323e-04
4.91000000e-01	1.44092113e-02	1.42105641e-04
4.92000000e-01	1.42394820e-02	1.40753626e-04
4.93000000e-01	1.43551763e-02	1.41816835e-04
4.94000000e-01	1.41478086e-02	1.40197255e-04
4.95000000e-01	1.42379040e-02	1.42327271e-04
4.96000000e-01	1.43520976e-02	1.47399442e-04
4.97000000e-01	1.42358659e-02	1.48863176e-04
4.98000000e-01	1.43184378e-02	1.51915761e-04
4.99000000e-01	1.43252508e-02	1.53505767e-04
5.00000000e-01	1.42483277e-02	1.54545295e-04
5.01000000e-01	1.42863028e-02	1.56268675e-04
5.02000000e-01	1.43144707e-02	1.58378108e-04
5.03000000e-01	1.42552382e-02	1.58635991e-04
5.04000000e-01	1.44603445e-02	1.62104197e-04
5.05000000e-01	1.44356119e-02	1.59592502e-04
5.06000000e-01	1.43336836e-02	1.55740557e-04
5.07000000e-01	1.44342584e-02	1.54425051e-04
5.08000000e-01	1.43776164e-02	1.53263777e-04
5.09000000e-01	1.42708974e-02	1.50931131e-04
5.10000000e-01	1.41935490e-02	1.49993172e-04
5.11000000e-01	1.41835174e-02	1.49355029e-04
5.12000000e-01	1.41209805e-02	1.48779819e-04
5.13000000e-01	1.41999832e-02	1.49209187e-04
5.14000000e-01	1.41912358e-02	1.48658902e-04
5.15000000e-01	1.41801468e-02	1.48081271e-04
5.16000000e-01	1.41592955e-02	1.47825389e-04
5.17000000e-01	1.40233770e-02	1.46184479e-04
5.18000000e-01	1.42090766e-02	1.47861408e-04
5.19000000e-01	1.40219007e-02	1.45280939e-04
5.20000000e-01	1.39957646e-02	1.44769961e-04
5.21000000e-01	1.40741295e-02	1.46247880e-04
5.22000000e-01	1.40924532e-02	1.45284250e-04
5.23000000e-01	1.40497773e-02	1.45221827e-04
5.24000000e-01	1.40086528e-02	1.44770371e-04
5.25000000e-01	1.41358733e-02	1.45970696e-04
5.26000000e-01	1.40249539e-02	1.45041557e-04
5.27000000e-01	1.41727939e-02	1.45645592e-04
5.28000000e-01	1.40177467e-02	1.44907947e-04
5.29000000e-01	1.40538219e-02	1.45066019e-04
5.30000000e-01	1.39948199e-02	1.44673852e-04
5.31000000e-01	1.40350402e-02	1.45420655e-04
5.32000000e-01	1.39106313e-02	1.44578454e-04
5.33000000e-01	1.39588639e-02	1.44430397e-04
5.34000000e-01	1.39273222e-02	1.43828107e-04
5.35000000e-01	1.38800220e-02	1.43650872e-04
5.36000000e-01	1.38844443e-02	1.43602712e-04
5.37000000e-01	1.39248196e-02	1.43673512e-04
5.38000000e-01	1.39506239e-02	1.43612384e-04
5.39000000e-01	1.39468891e-02	1.44290162e-04
5.40000000e-01	1.38442878e-02	1.42956361e-04
5.41000000e-01	1.38578091e-02	1.42631481e-04
5.42000000e-01	1.37663991e-02	1.42377964e-04
5.43000000e-01	1.38678723e-02	1.43421181e-04
5.44000000e-01	1.38877862e-02	1.43626579e-04
5.45000000e-01	1.38574415e-02	1.43030214e-04
5.46000000e-01	1.37213111e-02	1.42143104e-04
5.47000000e-01	1.39031504e-02	1.43948314e-04
5.48000000e-01	1.38340733e-02	1.42939105e-04
5.49000000e-01	1.37900387e-02	1.42410084e-04
5.50000000e-01	1.38018467e-02	1.42537178e-04
5.51000000e-01	1.38387457e-02	1.42850288e-04
5.52000000e-01	1.37657248e-02	1.41204654e-04
5.53000000e-01	1.37384117e-02	1.41304064e-04
5.54000000e-01	1.37284815e-02	1.40687119e-04
5.55000000e-01	1.39067131e-02	1.42290176e-04
5.56000000e-01	1.37665585e-02	1.40998631e-04
5.57000000e-01	1.37079632e-02	1.40954177e-04
5.58000000e-01	1.37108845e-02	1.40688600e-04
5.59000000e-01	1.36677301e-02	1.40753579e-04
5.60000000e-01	1.37131994e-02	1.40703850e-04
5.61000000e-01	1.36416577e-02	1.40421205e-04
5.62000000e-01	1.37945656e-02	1.41912487e-04
5.63000000e-01	1.35139996e-02	1.38774581e-04
5.64000000e-01	1.37762509e-02	1.41432602e-04
5.65000000e-01	1.37457600e-02	1.41090862e-04
5.66000000e-01	1.35881214e-02	1.39972697e-04
5.67000000e-01	1.35249134e-02	1.39359716e-04
5.68000000e-01	1.36906808e-02	1.40326628e-04
5.69000000e-01	1.36069018e-02	1.39895470e-04
5.70000000e-01	1.36082600e-02	1.39637822e-04
5.71000000e-01	1.35009640e-02	1.38226822e-04
5.72000000e-01	1.35313274e-02	1.39293270e-04
5.73000000e-01	1.35167830e-02	1.39335795e-04
5.74000000e-01	1.36316881e-02	1.39632946e-04
5.75000000e-01	1.33672274e-02	1.38059020e-04
5.76000000e-01	1.34734569e-02	1.38823411e-04
5.77000000e-01	1.34963112e-02	1.38663548e-04
5.78000000e-01	1.35660508e-02	1.39766856e-04
5.79000000e-01	1.34692613e-02	1.38928467e-04
5.80000000e-01	1.34443107e-02	1.38469200e-04
5.81000000e-01	1.33561468e-02	1.37474926e-04
5.82000000e-01	1.35772398e-02	1.40155269e-04
5.83000000e-01	1.33964753e-02	1.38384339e-04
5.84000000e-01	1.34628002e-02	1.38599716e-04
5.85000000e-01	1.33000842e-02	1.37429413e-04
5.86000000e-01	1.34773477e-02	1.38784195e-04
5.87000000e-01	1.32898384e-02	1.37094255e-04
5.88000000e-01	1.34000778e-02	1.38855888e-04
5.89000000e-01	1.33979849e-02	1.38302174e-04
5.90000000e-01	1.32858858e-02	1.37223047e-04
5.91000000e-01	1.33765044e-02	1.38327451e-04
5.92000000e-01	1.33564850e-02	1.38056558e-04
5.93000000e-01	1.33160247e-02	1.37516603e-04
5.94000000e-01	1.32275621e-02	1.36862814e-04
5.95000000e-01	1.32737030e-02	1.37280777e-04
5.96000000e-01	1.32608041e-02	1.37226834e-04
5.97000000e-01	1.32330985e-02	1.36892689e-04
5.98000000e-01	1.32867851e-02	1.37612680e-04
5.99000000e-01	1.32577403e-02	1.37367936e-04
6.00000000e-01	1.31644603e-02	1.36067158e-04
6.01000000e-01	1.33118658e-02	1.37985484e-04
6.02000000e-01	1.33177451e-02	1.37815449e-04
6.03000000e-01	1.33734608e-02	1.38407662e-04
6.04000000e-01	1.32806100e-02	1.37213091e-04
6.05000000e-01	1.30948800e-02	1.36097535e-04
6.06000000e-01	1.31603252e-02	1.36573152e-04
6.07000000e-01	1.32611370e-02	1.37175052e-04
6.08000000e-01	1.30631207e-02	1.35626113e-04
6.09000000e-01	1.31945712e-02	1.36775215e-04
6.10000000e-01	1.31550645e-02	1.36362815e-04
6.11000000e-01	1.31587747e-02	1.36455376e-04
6.12000000e-01	1.31552045e-02	1.36575925e-04
6.13000000e-01	1.31620192e-02	1.36827355e-04
6.14000000e-01	1.31139445e-02	1.36181228e-04
6.15000000e-01	1.31439924e-02	1.36530319e-04
6.16000000e-01	1.31835947e-02	1.36678232e-04
6.17000000e-01	1.30913517e-02	1.36144166e-04
6.18000000e-01	1.31166370e-02	1.36643589e-04
6.19000000e-01	1.31732473e-02	1.36668829e-04
6.20000000e-01	1.32428891e-02	1.37145903e-04
6.21000000e-01	1.30460582e-02	1.34818786e-04
6.22000000e-01	1.31786126e-02	1.36293467e-04
6.23000000e-01	1.30292323e-02	1.34862836e-04
6.24000000e-01	1.32208226e-02	1.36117917e-04
6.25000000e-01	1.30481630e-02	1.34129933e-04
6.26000000e-01	1.29430369e-02	1.33756739e-04
6.27000000e-01	1.31622938e-02	1.36004986e-04
6.28000000e-01	1.30664054e-02	1.34544196e-04
6.29000000e-01	1.29389251e-02	1.33657091e-04
6.30000000e-01	1.29978556e-02	1.34265167e-04
6.31000000e-01	1.30455802e-02	1.34904146e-04
6.32000000e-01	1.28978924e-02	1.33605369e-04
6.33000000e-01	1.30540781e-02	1.34457998e-04
6.34000000e-01	1.30340481e-02	1.37650649e-04
6.35000000e-01	1.29991566e-02	1.41400498e-04
6.36000000e-01	1.30624011e-02	1.44260404e-04
6.37000000e-01	1.31967322e-02	1.48541918e-04
6.38000000e-01	1.29021209e-02	1.47285233e-04
6.39000000e-01	1.30285201e-02	1.50667547e-04
6.40000000e-01	1.30822112e-02	1.52786919e-04
6.41000000e-01	1.30692735e-02	1.54342621e-04
6.42000000e-01	1.29856872e-02	1.55366619e-04
6.43000000e-01	1.30159448e-02	1.55423050e-04
6.44000000e-01	1.29191410e-02	1.48720749e-04
6.45000000e-01	1.30615758e-02	1.48310588e-04
6.46000000e-01	1.30407721e-02	1.47362321e-04
6.47000000e-01	1.30707802e-02	1.45910245e-04
6.48000000e-01	1.30266297e-02	1.44242754e-04
6.49000000e-01	1.31820778e-02	1.45342222e-04
6.50000000e-01	1.29827427e-02	1.41971890e-04
6.51000000e-01	1.28825623e-02	1.41144986e-04
6.52000000e-01	1.29217249e-02	1.41085760e-04
6.53000000e-01	1.30594676e-02	1.41649051e-04
6.54000000e-01	1.30901399e-02	1.41285148e-04
6.55000000e-01	1.29663488e-02	1.40133972e-04
6.56000000e-01	1.29209228e-02	1.39256889e-04
6.57000000e-01	1.30033472e-02	1.40005814e-04
6.58000000e-01	1.28380834e-02	1.38218374e-04
6.59000000e-01	1.29351178e-02	1.39482877e-04
6.60000000e-01	1.29723841e-02	1.39295412e-04
6.61000000e-01	1.30468790e-02	1.39660392e-04
6.62000000e-01	1.30777648e-02	1.40534091e-04
6.63000000e-01	1.30276746e-02	1.39914900e-04
6.64000000e-01	1.29792854e-02	1.39531126e-04
6.65000000e-01	1.27279972e-02	1.36666989e-04
6.66000000e-01	1.29396362e-02	1.38513186e-04
6.67000000e-01	1.28759804e-02	1.38128568e-04
6.68000000e-01	1.27659269e-02	1.36610771e-04
6.69000000e-01	1.28037086e-02	1.37392178e-04
6.70000000e-01	1.27856301e-02	1.36743673e-04
6.71000000e-01	1.27459159e-02	1.36970796e-04
6.72000000e-01	1.27222488e-02	1.36270350e-04
6.73000000e-01	1.27441571e-02	1.36243375e-04
6.74000000e-01	1.28936557e-02	1.37588627e-04
6.75000000e-01	1.28064266e-02	1.36808200e-04
6.76000000e-01	1.28101504e-02	1.37041389e-04
6.77000000e-01	1.28681626e-02	1.36919189e-04
6.78000000e-01	1.27213197e-02	1.35783608e-04
6.79000000e-01	1.27450586e-02	1.36138404e-04
6.80000000e-01	1.28264941e-02	1.36427968e-04
6.81000000e-01	1.28022295e-02	1.36527111e-04
6.82000000e-01	1.27535031e-02	1.36380431e-04
6.83000000e-01	1.26963216e-02	1.35675969e-04
6.84000000e-01	1.28980290e-02	1.37345830e-04
6.85000000e-01	1.28148043e-02	1.36157041e-04
6.86000000e-01	1.27930005e-02	1.36054261e-04
6.87000000e-01	1.27039717e-02	1.35228752e-04
6.88000000e-01	1.27270546e-02	1.36290307e-04
6.89000000e-01	1.27968963e-02	1.35971153e-04
6.90000000e-01	1.26619839e-02	1.34545992e-04
6.91000000e-01	1.26847761e-02	1.35002049e-04
6.92000000e-01	1.26116993e-02	1.34150844e-04
6.93000000e-01	1.25083646e-02	1.33514375e-04
6.94000000e-01	1.28023029e-02	1.36295686e-04
6.95000000e-01	1.26773982e-02	1.34987566e-04
6.96000000e-01	1.26664915e-02	1.35388125e-04
6.97000000e-01	1.26208931e-02	1.34545308e-04
6.98000000e-01	1.27042213e-02	1.35497504e-04
6.99000000e-01	1.25573618e-02	1.33765205e-04
7.00000000e-01	1.26308471e-02	1.34097203e-04
7.01000000e-01	1.24844736e-02	1.33444622e-04
7.02000000e-01	1.26570693e-02	1.34649844e-04
7.03000000e-01	1.24675077e-02	1.32879295e-04
7.04000000e-01	1.24996032e-02	1.33404326e-04
7.05000000e-01	1.24372690e-02	1.32640661e-04
7.06000000e-01	1.24980877e-02	1.33138143e-04
7.07000000e-01	1.25604305e-02	1.33576284e-04
7.08000000e-01	1.24427414e-02	1.31987971e-04
7.09000000e-01	1.24713942e-02	1.32907817e-04
7.10000000e-01	1.25848278e-02	1.33376891e-04
7.11000000e-01	1.23607436e-02	1.31479819e-04
7.12000000e-01	1.25260918e-02	1.32919409e-04
7.13000000e-01	1.23223098e-02	1.31392782e-04
7.14000000e-01	1.24882400e-02	1.32726188e-04
7.15000000e-01	1.24936934e-02	1.32898108e-04
7.16000000e-01	1.24398424e-02	1.32424769e-04
7.17000000e-01	1.22421291e-02	1.30823109e-04
7.18000000e-01	1.25004236e-02	1.33012018e-04
7.19000000e-01	1.24163981e-02	1.32229055e-04
7.20000000e-01	1.23633852e-02	1.31600041e-04
7.21000000e-01	1.23442647e-02	1.31923963e-04
7.22000000e-01	1.24327995e-02	1.32574827e-04
7.23000000e-01	1.23191545e-02	1.31026442e-04
7.24000000e-01	1.24766120e-02	1.32973293e-04
7.25000000e-01	1.21813386e-02	1.29854206e-04
7.26000000e-01	1.22807210e-02	1.31235936e-04
7.27000000e-01	1.21008393e-02	1.29241876e-04
7.28000000e-01	1.22274836e-02	1.30473210e-04
7.29000000e-01	1.22669063e-02	1.31072465e-04
7.30000000e-01	1.21899432e-02	1.30288534e-04
7.31000000e-01	1.22674374e-02	1.30643100e-04
7.32000000e-01	1.22917377e-02	1.31125221e-04
7.33000000e-01	1.20967258e-02	1.29310847e-04
7.34000000e-01	1.20862648e-02	1.28806122e-04
7.35000000e-01	1.20158763e-02	1.27880659e-04
7.36000000e-01	1.21381530e-02	1.28997660e-04
7.37000000e-01	1.21768615e-02	1.29191198e-04
7.38000000e-01	1.23062827e-02	1.30322747e-04
7.39000000e-01	1.21303934e-02	1.28582090e-04
7.40000000e-01	1.21354734e-02	1.28413269e-04
7.41000000e-01	1.20296833e-02	1.27054370e-04
7.42000000e-01	1.22154476e-02	1.28626577e-04
7.43000000e-01	1.23227353e-02	1.30298301e-04
7.44000000e-01	1.21242895e-02	1.27891092e-04
7.45000000e-01	1.21301967e-02	1.27851845e-04
7.46000000e-01	1.20278701e-02	1.26830057e-04
7.47000000e-01	1.19978692e-02	1.26674527e-04
7.48000000e-01	1.20293450e-02	1.26916794e-04
7.49000000e-01	1.20851155e-02	1.28184801e-04
7.50000000e-01	1.20851649e-02	1.27638217e-04
7.51000000e-01	1.19830314e-02	1.26938411e-04
7.52000000e-01	1.19271877e-02	1.26276551e-04
7.53000000e-01	1.20494024e-02	1.27617081e-04
7.54000000e-01	1.19592365e-02	1.26451351e-04
7.55000000e-01	1.20000785e-02	1.26761510e-04
7.56000000e-01	1.19874420e-02	1.26639416e-04
7.57000000e-01	1.19657183e-02	1.26728730e-04
7.58000000e-01	1.20512394e-02	1.27317172e-04
7.59000000e-01	1.19125708e-02	1.26070909e-04
7.60000000e-01	1.20292817e-02	1.27052113e-04
7.61000000e-01	1.19321565e-02	1.25859492e-04
7.62000000e-01	1.19208455e-02	1.25584156e-04
7.63000000e-01	1.18875021e-02	1.25011149e-04
7.64000000e-01	1.19474854e-02	1.25327143e-04
7.65000000e-01	1.18851258e-02	1.24780025e-04
7.66000000e-01	1.18519473e-02	1.24434361e-04
7.67000000e-01	1.17720644e-02	1.23777916e-04
7.68000000e-01	1.17924693e-02	1.23951417e-04
7.69000000e-01	1.19367465e-02	1.25251394e-04
7.70000000e-01	1.18107802e-02	1.24174948e-04
7.71000000e-01	1.18677981e-02	1.24578506e-04
7.72000000e-01	1.18716166e-02	1.28905323e-04
7.73000000e-01	1.16809761e-02	1.30692376e-04
7.74000000e-01	1.17131772e-02	1.33885880e-04
7.75000000e-01	1.19600606e-02	1.38635567e-04
7.76000000e-01	1.17523490e-02	1.38268389e-04
7.77000000e-01	1.17214823e-02	1.39911894e-04
7.78000000e-01	1.17158525e-02	1.41774447e-04
7.79000000e-01	1.19208948e-02	1.45364223e-04
7.80000000e-01	1.17763465e-02	1.46156131e-04
7.81000000e-01	1.16995211e-02	1.46723744e-04
7.82000000e-01	1.16023226e-02	1.47421690e-04
7.83000000e-01	1.16158138e-02	1.48893081e-04
7.84000000e-01	1.17073206e-02	1.51549069e-04
7.85000000e-01	1.15668653e-02	1.51806921e-04
7.86000000e-01	1.16166957e-02	1.53910209e-04
7.87000000e-01	1.15337845e-02	1.53633692e-04
7.88000000e-01	1.15775043e-02	1.56255799e-04
7.89000000e-01	1.18399089e-02	1.61198545e-04
7.90000000e-01	1.15771578e-02	1.59016307e-04
7.91000000e-01	1.17150561e-02	1.62551704e-04
7.92000000e-01	1.15429606e-02	1.61508850e-04
7.93000000e-01	1.14986594e-02	1.63430584e-04
7.94000000e-01	1.15459218e-02	1.65971444e-04
7.95000000e-01	1.15983329e-02	1.67149231e-04
7.96000000e-01	1.14221755e-02	1.67147786e-04
7.97000000e-01	1.15131518e-02	1.70650947e-04
7.98000000e-01	1.17396248e-02	1.75156834e-04
7.99000000e-01	1.14867961e-02	1.73492179e-04
8.00000000e-01	1.15061851e-02	1.75513668e-04
8.01000000e-01	1.15309428e-02	1.77302780e-04
8.02000000e-01	1.13550718e-02	1.76952809e-04
8.03000000e-01	1.14974051e-02	1.80409391e-04
8.04000000e-01	1.15788216e-02	1.83887457e-04
8.05000000e-01	1.15009767e-02	1.84984907e-04
8.06000000e-01	1.16585586e-02	1.88572374e-04
8.07000000e-01	1.13253475e-02	1.86048269e-04
8.08000000e-01	1.14878351e-02	1.91319029e-04
8.09000000e-01	1.12475097e-02	1.87663854e-04
8.10000000e-01	1.12664002e-02	1.91446965e-04
8.11000000e-01	1.13083549e-02	1.94682205e-04
8.12000000e-01	1.12489650e-02	1.95994615e-04
8.13000000e-01	1.12391404e-02	1.98247351e-04
8.14000000e-01	1.12727437e-02	2.00294275e-04
8.15000000e-01	1.12496034e-02	2.03608109e-04
8.16000000e-01	1.14379556e-02	2.06542727e-04
8.17000000e-01	1.11218752e-02	2.05611729e-04
8.18000000e-01	1.12829535e-02	2.10177265e-04
8.19000000e-01	1.14669830e-02	2.16407652e-04
8.20000000e-01	1.11801119e-02	2.14451972e-04
8.21000000e-01	1.12352054e-02	2.18884991e-04
8.22000000e-01	1.10316349e-02	2.15777674e-04
8.23000000e-01	1.13513709e-02	2.24862904e-04
8.24000000e-01	1.12109096e-02	2.26068226e-04
8.25000000e-01	1.10986722e-02	2.28104035e-04
8.26000000e-01	1.08839471e-02	2.26869308e-04
8.27000000e-01	1.10080390e-02	2.31446054e-04
8.28000000e-01	1.11664523e-02	2.38302320e-04
8.29000000e-01	1.10310674e-02	2.40990319e-04
8.30000000e-01	1.11047204e-02	2.45900205e-04
8.31000000e-01	1.11323601e-02	2.51139165e-04
8.32000000e-01	1.08250037e-02	2.46821452e-04
8.33000000e-01	1.11315524e-02	2.58578537e-04
8.34000000e-01	1.08895128e-02	2.55780325e-04
8.35000000e-01	1.08058670e-02	2.61977841e-04
8.36000000e-01	1.10065463e-02	2.67880112e-04
8.37000000e-01	1.10534310e-02	2.75588894e-04
8.38000000e-01	1.10134057e-02	2.80212314e-04
8.39000000e-01	1.07663302e-02	2.83107975e-04
8.40000000e-01	1.07641839e-02	2.87322544e-04
8.41000000e-01	1.09204790e-02	2.96299360e-04
8.42000000e-01	1.09129458e-02	3.04729817e-04
8.43000000e-01	1.10900965e-02	3.13322470e-04
8.44000000e-01	1.10273124e-02	3.18170731e-04
8.45000000e-01	1.10437435e-02	3.27972483e-04
8.46000000e-01	1.06189364e-02	3.24593841e-04
8.47000000e-01	1.05502448e-02	3.32979715e-04
8.48000000e-01	1.07844139e-02	3.50973546e-04
8.49000000e-01	1.03516735e-02	3.48746396e-04
8.50000000e-01	1.05402478e-02	3.65050113e-04
8.51000000e-01	1.09365266e-02	3.98166614e-04
8.52000000e-01	1.08361476e-02	4.10508043e-04
8.53000000e-01	1.05132484e-02	4.10506948e-04
8.54000000e-01	1.03609185e-02	4.31912519e-04
8.55000000e-01	1.06726122e-02	4.57775810e-04
8.56000000e-01	1.03875574e-02	4.54496751e-04
8.57000000e-01	1.03356703e-02	4.65231987e-04
8.58000000e-01	1.05507541e-02	4.89985331e-04
8.59000000e-01	1.03292910e-02	4.97102386e-04
8.60000000e-01	1.10420916e-02	5.34427554e-04
8.61000000e-01	1.02395159e-02	5.18430878e-04
8.62000000e-01	1.02519765e-02	5.58498396e-04
8.63000000e-01	1.06847397e-02	5.70605212e-04
8.64000000e-01	1.00887031e-02	5.76165994e-04
8.65000000e-01	1.01525447e-02	6.15204269e-04
8.66000000e-01	9.60650965e-03	6.09058259e-04
8.67000000e-01	1.02784527e-02	6.98897424e-04
8.68000000e-01	1.08530717e-02	7.54912161e-04
8.69000000e-01	1.03598000e-02	7.82210781e-04
8.70000000e-01	1.06537656e-02	8.88986835e-04
8.71000000e-01	1.03988441e-02	9.57035885e-04
8.72000000e-01	1.09106041e-02	1.13315465e-03
8.73000000e-01	1.10265038e-02	1.37238021e-03
8.74000000e-01	1.08827049e-02	1.75771567e-03
8.75000000e-01	1.06465603e-02	3.63856608e-03
