% Filename : SDL1_00020_00001.h5
% Date & Time : 30-Oct-2025 16:41:51
% X-ray Energy (keV) : 13.30001
% Exposure Time (s) : 0.500
% Beam Center : 1461.24000, 208.98300
% Sample to Detector Distance (SDD) (mm) : 1990.750
% Detector Pixel Size (mm) : 0.075
% Photodiode Value : 141258.000
% I0 of Sample : 0
% I0 of Standard : 1
% 
% q(A^-1)   I(q)    I(q)_SE
0.00000000e+00	6.39493693e-03	3.83696468e-03
2.50000000e-04	0.00000000e+00	0.00000000e+00
5.00000000e-04	0.00000000e+00	0.00000000e+00
7.50000000e-04	0.00000000e+00	0.00000000e+00
1.00000000e-03	0.00000000e+00	0.00000000e+00
1.25000000e-03	0.00000000e+00	0.00000000e+00
1.50000000e-03	0.00000000e+00	0.00000000e+00
1.75000000e-03	0.00000000e+00	0.00000000e+00
2.00000000e-03	0.00000000e+00	0.00000000e+00
2.25000000e-03	0.00000000e+00	0.00000000e+00
2.50000000e-03	0.00000000e+00	0.00000000e+00
2.75000000e-03	0.00000000e+00	0.00000000e+00
3.00000000e-03	0.00000000e+00	0.00000000e+00
3.25000000e-03	3.10000545e+01	2.18398059e+01
3.50000000e-03	1.70424281e+01	5.19465959e+00
3.75000000e-03	1.11632459e+01	3.20932045e+00
4.00000000e-03	8.12525411e+00	2.16837392e+00
4.25000000e-03	5.43180451e+00	1.23782200e+00
4.50000000e-03	7.85630951e+00	1.59659518e+00
4.75000000e-03	8.09370061e+00	1.54902901e+00
5.00000000e-03	6.05503860e+00	1.10701519e+00
5.25000000e-03	4.67714897e+00	8.00895324e-01
5.50000000e-03	3.65625804e+00	5.80624128e-01
5.75000000e-03	3.10466820e+00	4.67962799e-01
6.00000000e-03	2.59195468e+00	3.88821576e-01
6.25000000e-03	2.28347646e+00	3.43044202e-01
6.50000000e-03	1.86427574e+00	2.76471908e-01
6.75000000e-03	1.62187796e+00	2.31400266e-01
7.00000000e-03	1.47813456e+00	1.94313621e-01
7.25000000e-03	1.26376124e+00	1.57897306e-01
7.50000000e-03	1.09575043e+00	1.36221216e-01
7.75000000e-03	9.38270944e-01	1.13538043e-01
8.00000000e-03	8.41026434e-01	9.90681622e-02
8.25000000e-03	7.04116810e-01	7.95970278e-02
8.50000000e-03	6.66101282e-01	7.37478130e-02
8.75000000e-03	6.24611557e-01	6.82131120e-02
9.00000000e-03	5.61862734e-01	5.86087391e-02
9.25000000e-03	4.93472144e-01	5.06978826e-02
9.50000000e-03	4.40472221e-01	4.36273817e-02
9.75000000e-03	3.93845942e-01	3.81982122e-02
1.00000000e-02	3.38657444e-01	3.18550990e-02
1.02500000e-02	3.22758904e-01	3.01688126e-02
1.05000000e-02	3.07902622e-01	2.69845656e-02
1.07500000e-02	2.84748088e-01	2.47363381e-02
1.10000000e-02	2.58323314e-01	2.16626427e-02
1.12500000e-02	2.32202541e-01	1.99179425e-02
1.15000000e-02	2.17099995e-01	1.82563841e-02
1.17500000e-02	1.96967921e-01	1.60555280e-02
1.20000000e-02	1.94538528e-01	1.58728825e-02
1.22500000e-02	1.84633204e-01	1.43344499e-02
1.25000000e-02	1.68874240e-01	1.26215866e-02
1.27500000e-02	1.53707110e-01	1.12544167e-02
1.30000000e-02	1.42208216e-01	1.01053114e-02
1.32500000e-02	1.32198125e-01	9.21038591e-03
1.35000000e-02	1.28521813e-01	9.01558532e-03
1.37500000e-02	1.24163332e-01	8.77509001e-03
1.40000000e-02	1.18629424e-01	8.11988761e-03
1.42500000e-02	1.12502137e-01	7.41889273e-03
1.45000000e-02	1.03547175e-01	6.75676471e-03
1.47500000e-02	9.68680906e-02	6.19652803e-03
1.50000000e-02	9.28851397e-02	5.81764112e-03
1.52500000e-02	8.73989316e-02	5.49757424e-03
1.55000000e-02	8.32809251e-02	5.03034419e-03
1.57500000e-02	8.02167489e-02	4.81559834e-03
1.60000000e-02	7.95640133e-02	4.69866069e-03
1.62500000e-02	7.49111230e-02	4.48369982e-03
1.65000000e-02	7.03359204e-02	4.15274930e-03
1.67500000e-02	6.78989602e-02	3.85095472e-03
1.70000000e-02	6.61156935e-02	3.77718196e-03
1.72500000e-02	6.27902800e-02	3.54220337e-03
1.75000000e-02	6.16810840e-02	3.47271173e-03
1.77500000e-02	5.86236522e-02	3.17577741e-03
1.80000000e-02	5.78286978e-02	3.18960131e-03
1.82500000e-02	5.63306353e-02	2.96229773e-03
1.85000000e-02	5.29466533e-02	2.87528655e-03
1.87500000e-02	5.05408025e-02	2.69696737e-03
1.90000000e-02	4.91971675e-02	2.60830722e-03
1.92500000e-02	4.83172887e-02	2.50186336e-03
1.95000000e-02	4.62073303e-02	2.38759880e-03
1.97500000e-02	4.53740846e-02	2.36729901e-03
2.00000000e-02	4.49432706e-02	2.31887009e-03
2.02500000e-02	4.26244333e-02	2.18633246e-03
2.05000000e-02	4.22581003e-02	2.11894976e-03
2.07500000e-02	4.10035291e-02	2.04832340e-03
2.10000000e-02	4.11851094e-02	2.06276248e-03
2.12500000e-02	4.05163263e-02	2.02456611e-03
2.15000000e-02	4.04755231e-02	2.00089932e-03
2.17500000e-02	3.76215862e-02	1.89298992e-03
2.20000000e-02	3.82078604e-02	1.93242412e-03
2.22500000e-02	3.71379800e-02	1.84828202e-03
2.25000000e-02	3.58991296e-02	1.80733872e-03
2.27500000e-02	3.55300719e-02	1.77045742e-03
2.30000000e-02	3.55561973e-02	1.78268919e-03
2.32500000e-02	3.47288307e-02	1.71198148e-03
2.35000000e-02	3.46501570e-02	1.72719503e-03
2.37500000e-02	3.33972412e-02	1.65992336e-03
2.40000000e-02	3.29863224e-02	1.65088782e-03
2.42500000e-02	3.31278713e-02	1.64657346e-03
2.45000000e-02	3.37401902e-02	1.67059166e-03
2.47500000e-02	3.17348307e-02	1.55552883e-03
2.50000000e-02	3.13444413e-02	1.54032730e-03
2.52500000e-02	3.19487324e-02	1.58946020e-03
2.55000000e-02	3.01745748e-02	1.46177006e-03
2.57500000e-02	2.99166503e-02	1.47505434e-03
2.60000000e-02	2.87688208e-02	1.40525327e-03
2.62500000e-02	2.90513048e-02	1.43565768e-03
2.65000000e-02	2.92141837e-02	1.42652463e-03
2.67500000e-02	2.93692792e-02	1.41018355e-03
2.70000000e-02	2.84988348e-02	1.39482378e-03
2.72500000e-02	2.84410389e-02	1.35856160e-03
2.75000000e-02	2.78034592e-02	1.37247372e-03
2.77500000e-02	2.86723751e-02	1.38845236e-03
2.80000000e-02	2.87699388e-02	1.37447355e-03
2.82500000e-02	2.83782250e-02	1.35618871e-03
2.85000000e-02	2.90764221e-02	1.38859529e-03
2.87500000e-02	2.75342432e-02	1.31419967e-03
2.90000000e-02	2.62607728e-02	1.26129252e-03
2.92500000e-02	2.68106288e-02	1.25076803e-03
2.95000000e-02	2.80077695e-02	1.34029194e-03
2.97500000e-02	2.81899934e-02	1.31995222e-03
3.00000000e-02	2.89293562e-02	1.36559791e-03
3.02500000e-02	2.61298144e-02	1.23967355e-03
3.05000000e-02	2.65330799e-02	1.22941971e-03
3.07500000e-02	2.59311921e-02	1.22052159e-03
3.10000000e-02	2.70349545e-02	1.26800371e-03
3.12500000e-02	2.58248533e-02	1.22092830e-03
3.15000000e-02	2.62474606e-02	1.21093925e-03
3.17500000e-02	2.61225953e-02	1.19564767e-03
3.20000000e-02	2.59854763e-02	1.20306087e-03
3.22500000e-02	2.51189577e-02	1.17456336e-03
3.25000000e-02	2.60847196e-02	1.21004079e-03
3.27500000e-02	2.57147380e-02	1.17506717e-03
3.30000000e-02	2.54354296e-02	1.16916858e-03
3.32500000e-02	2.54761567e-02	1.16127317e-03
3.35000000e-02	2.49392833e-02	1.16030237e-03
3.37500000e-02	2.42551982e-02	1.11094725e-03
3.40000000e-02	2.47311218e-02	1.12331143e-03
3.42500000e-02	2.45745665e-02	1.12097725e-03
3.45000000e-02	2.40246092e-02	1.10208243e-03
3.47500000e-02	2.52974570e-02	1.15079442e-03
3.50000000e-02	2.34718473e-02	1.07998127e-03
3.52500000e-02	2.35519696e-02	1.07149858e-03
3.55000000e-02	2.42809310e-02	1.08528339e-03
3.57500000e-02	2.36650121e-02	1.06741775e-03
3.60000000e-02	2.38263580e-02	1.07040609e-03
3.62500000e-02	2.45363794e-02	1.10727395e-03
3.65000000e-02	2.38374800e-02	1.06516648e-03
3.67500000e-02	2.38747318e-02	1.06275290e-03
3.70000000e-02	2.40659922e-02	1.07343016e-03
3.72500000e-02	2.29492156e-02	1.01960283e-03
3.75000000e-02	2.33041388e-02	1.04408361e-03
3.77500000e-02	2.36905413e-02	1.05347467e-03
3.80000000e-02	2.32742427e-02	1.02364544e-03
3.82500000e-02	2.27095809e-02	9.97035932e-04
3.85000000e-02	2.31133589e-02	1.03836945e-03
3.87500000e-02	2.28063974e-02	1.01142695e-03
3.90000000e-02	2.24017567e-02	1.00464631e-03
3.92500000e-02	2.27047277e-02	9.91481776e-04
3.95000000e-02	2.27740385e-02	9.89318018e-04
3.97500000e-02	2.19968583e-02	9.59134210e-04
4.00000000e-02	2.22830587e-02	9.69331694e-04
4.02500000e-02	2.26893206e-02	9.77023559e-04
4.05000000e-02	2.20959743e-02	9.55451423e-04
4.07500000e-02	2.25924580e-02	9.71379595e-04
4.10000000e-02	2.23499940e-02	9.65865365e-04
4.12500000e-02	2.24230427e-02	9.70774367e-04
4.15000000e-02	2.21736614e-02	9.53939403e-04
4.17500000e-02	2.22436003e-02	9.41466047e-04
4.20000000e-02	2.21433061e-02	9.45589662e-04
4.22500000e-02	2.20443039e-02	9.34339760e-04
4.25000000e-02	2.18760195e-02	9.35810906e-04
4.27500000e-02	2.17291309e-02	9.20863873e-04
4.30000000e-02	2.18872111e-02	9.33218801e-04
4.32500000e-02	2.23481770e-02	9.31360024e-04
4.35000000e-02	2.20927940e-02	9.38777175e-04
4.37500000e-02	2.22075714e-02	9.18344633e-04
4.40000000e-02	2.24133805e-02	9.47678751e-04
4.42500000e-02	2.17964585e-02	9.16266115e-04
4.45000000e-02	2.14427388e-02	8.96829247e-04
4.47500000e-02	2.24283693e-02	9.31361936e-04
4.50000000e-02	2.18349578e-02	9.11905386e-04
4.52500000e-02	2.14722578e-02	8.93238506e-04
4.55000000e-02	2.13453507e-02	8.86252493e-04
4.57500000e-02	2.22871764e-02	9.20428096e-04
4.60000000e-02	2.15429680e-02	8.88496244e-04
4.62500000e-02	2.13326482e-02	8.78867972e-04
4.65000000e-02	2.15121533e-02	8.82469479e-04
4.67500000e-02	2.14999039e-02	8.74925318e-04
4.70000000e-02	2.16779894e-02	8.83506197e-04
4.72500000e-02	2.18549525e-02	8.96104468e-04
4.75000000e-02	2.15143631e-02	8.89086672e-04
4.77500000e-02	2.07236741e-02	8.37728005e-04
4.80000000e-02	2.17369820e-02	8.86904664e-04
4.82500000e-02	2.09219364e-02	8.47875007e-04
4.85000000e-02	2.13754604e-02	8.75289686e-04
4.87500000e-02	2.09286113e-02	8.56392457e-04
4.90000000e-02	2.18888127e-02	8.68822782e-04
4.92500000e-02	2.13737226e-02	8.64481991e-04
4.95000000e-02	2.13756008e-02	8.59387065e-04
4.97500000e-02	2.23376346e-02	8.98753611e-04
5.00000000e-02	2.11895873e-02	8.51784939e-04
5.02500000e-02	2.11898047e-02	8.34796565e-04
5.05000000e-02	2.10523057e-02	8.40253934e-04
5.07500000e-02	2.09628760e-02	8.35796465e-04
5.10000000e-02	2.12569810e-02	8.49308042e-04
5.12500000e-02	2.20580783e-02	8.77880345e-04
5.15000000e-02	2.11775841e-02	8.36108154e-04
5.17500000e-02	2.11025771e-02	8.39511300e-04
5.20000000e-02	2.08850027e-02	8.17294786e-04
5.22500000e-02	2.08525028e-02	8.31336801e-04
5.25000000e-02	2.11484139e-02	8.30991796e-04
5.27500000e-02	2.15105413e-02	8.34814645e-04
5.30000000e-02	2.03150839e-02	8.03318363e-04
5.32500000e-02	2.03410013e-02	7.99203870e-04
5.35000000e-02	2.07242535e-02	8.12623255e-04
5.37500000e-02	2.05913166e-02	8.06212487e-04
5.40000000e-02	2.10245430e-02	8.17494731e-04
5.42500000e-02	2.09840344e-02	8.17524843e-04
5.45000000e-02	2.10375539e-02	8.16880125e-04
5.47500000e-02	2.11337542e-02	8.18826478e-04
5.50000000e-02	2.05671648e-02	7.91051451e-04
5.52500000e-02	2.04413845e-02	7.86439756e-04
5.55000000e-02	2.13373355e-02	8.25652762e-04
5.57500000e-02	2.13616570e-02	8.22639729e-04
5.60000000e-02	2.04703954e-02	7.91731901e-04
5.62500000e-02	2.03689499e-02	7.83891830e-04
5.65000000e-02	1.99761816e-02	7.61880255e-04
5.67500000e-02	2.13561092e-02	8.13977405e-04
5.70000000e-02	2.07590609e-02	7.91238703e-04
5.72500000e-02	2.10529302e-02	8.01018531e-04
5.75000000e-02	2.13180612e-02	8.18033179e-04
5.77500000e-02	2.08050861e-02	7.81386372e-04
5.80000000e-02	2.05879784e-02	7.77976309e-04
5.82500000e-02	2.06663421e-02	7.78317037e-04
5.85000000e-02	2.04454655e-02	7.66223210e-04
5.87500000e-02	2.03488531e-02	7.65326349e-04
5.90000000e-02	2.04864218e-02	7.77110372e-04
5.92500000e-02	2.06222241e-02	7.74381933e-04
5.95000000e-02	2.06624355e-02	7.73830751e-04
5.97500000e-02	2.05418917e-02	7.74272721e-04
6.00000000e-02	2.11484548e-02	7.86966797e-04
6.02500000e-02	2.05036234e-02	7.62392544e-04
6.05000000e-02	2.11821740e-02	7.85424239e-04
6.07500000e-02	2.05752647e-02	7.60430008e-04
6.10000000e-02	2.04822826e-02	7.55072245e-04
6.12500000e-02	2.05396940e-02	7.59063248e-04
6.15000000e-02	2.08656053e-02	7.73890059e-04
6.17500000e-02	2.05950962e-02	7.54702903e-04
6.20000000e-02	1.99586595e-02	7.37590779e-04
6.22500000e-02	2.01484349e-02	7.42012654e-04
6.25000000e-02	2.07161158e-02	7.60395425e-04
6.27500000e-02	2.04862215e-02	7.50254137e-04
6.30000000e-02	2.01618174e-02	7.34580901e-04
6.32500000e-02	2.03436211e-02	7.42169646e-04
6.35000000e-02	2.03534777e-02	7.39544445e-04
6.37500000e-02	2.04933674e-02	7.60283955e-04
6.40000000e-02	2.02877110e-02	7.41902086e-04
6.42500000e-02	2.06570930e-02	7.44218555e-04
6.45000000e-02	2.05129192e-02	7.40750634e-04
6.47500000e-02	2.06164599e-02	7.49606758e-04
6.50000000e-02	2.00058696e-02	7.29454818e-04
6.52500000e-02	2.02124941e-02	7.31174289e-04
6.55000000e-02	2.02487763e-02	7.30606038e-04
6.57500000e-02	2.03619108e-02	7.32091794e-04
6.60000000e-02	2.05089655e-02	7.30476321e-04
6.62500000e-02	1.98035129e-02	7.10855336e-04
6.65000000e-02	2.00858112e-02	7.18050284e-04
6.67500000e-02	1.99485484e-02	7.11595429e-04
6.70000000e-02	2.07329240e-02	7.43125965e-04
6.72500000e-02	2.00453844e-02	7.17351249e-04
6.75000000e-02	2.04053571e-02	7.22145866e-04
6.77500000e-02	1.98836633e-02	7.09994748e-04
6.80000000e-02	2.03833354e-02	7.29426001e-04
6.82500000e-02	2.03197424e-02	7.20079895e-04
6.85000000e-02	2.01306737e-02	7.18027140e-04
6.87500000e-02	1.98941782e-02	7.06237237e-04
6.90000000e-02	2.02946193e-02	7.19799934e-04
6.92500000e-02	2.01512142e-02	7.04846304e-04
6.95000000e-02	1.98592779e-02	7.00273107e-04
6.97500000e-02	2.04828978e-02	7.15409055e-04
7.00000000e-02	2.00614045e-02	7.06140011e-04
7.02500000e-02	2.05519733e-02	7.15980166e-04
7.05000000e-02	1.99539618e-02	6.93172750e-04
7.07500000e-02	2.04847808e-02	7.16950919e-04
7.10000000e-02	2.02724233e-02	7.01425521e-04
7.12500000e-02	1.98719363e-02	6.92826810e-04
7.15000000e-02	2.05423461e-02	7.11584756e-04
7.17500000e-02	1.99588800e-02	6.97705666e-04
7.20000000e-02	1.99589225e-02	6.91960643e-04
7.22500000e-02	2.04606248e-02	7.06314221e-04
7.25000000e-02	2.02819684e-02	6.97360257e-04
7.27500000e-02	1.99827617e-02	6.98466035e-04
7.30000000e-02	2.03623951e-02	7.00873519e-04
7.32500000e-02	2.06982937e-02	7.05641621e-04
7.35000000e-02	2.01715512e-02	6.99250222e-04
7.37500000e-02	1.99309595e-02	6.82898797e-04
7.40000000e-02	2.03239924e-02	6.99096457e-04
7.42500000e-02	1.99168464e-02	6.84874278e-04
7.45000000e-02	2.01496099e-02	6.82054456e-04
7.47500000e-02	1.98850824e-02	6.72847582e-04
7.50000000e-02	1.99267043e-02	6.77857340e-04
7.52500000e-02	1.99451883e-02	6.80585997e-04
7.55000000e-02	2.03385336e-02	6.87916159e-04
7.57500000e-02	2.03946398e-02	6.89996695e-04
7.60000000e-02	2.01881199e-02	6.85257441e-04
7.62500000e-02	1.96890675e-02	6.68389787e-04
7.65000000e-02	2.04789423e-02	6.91061349e-04
7.67500000e-02	2.02493514e-02	6.84804497e-04
7.70000000e-02	2.01927900e-02	6.79676869e-04
7.72500000e-02	1.99171806e-02	6.85489213e-04
7.75000000e-02	2.01071153e-02	6.97701994e-04
7.77500000e-02	1.96799315e-02	6.83501446e-04
7.80000000e-02	2.00225685e-02	7.02453094e-04
7.82500000e-02	2.01564332e-02	7.12318850e-04
7.85000000e-02	2.02244057e-02	7.18604314e-04
7.87500000e-02	1.98509448e-02	7.02197610e-04
7.90000000e-02	1.96734626e-02	6.99635470e-04
7.92500000e-02	2.00203335e-02	7.17341655e-04
7.95000000e-02	2.02945296e-02	7.27109778e-04
7.97500000e-02	2.00831881e-02	7.28063350e-04
8.00000000e-02	2.00058609e-02	7.14457855e-04
8.02500000e-02	2.01195069e-02	7.18625934e-04
8.05000000e-02	2.01852063e-02	7.21230674e-04
8.07500000e-02	1.99968617e-02	7.29120565e-04
8.10000000e-02	2.03611923e-02	7.34455816e-04
8.12500000e-02	1.93850421e-02	7.06537276e-04
8.15000000e-02	1.93996025e-02	7.07931409e-04
8.17500000e-02	1.97014243e-02	7.19925097e-04
8.20000000e-02	1.95015923e-02	7.03184116e-04
8.22500000e-02	2.00557676e-02	7.27938089e-04
8.25000000e-02	2.04545821e-02	7.50264221e-04
8.27500000e-02	2.02085981e-02	7.29669862e-04
8.30000000e-02	2.02978053e-02	7.41782539e-04
8.32500000e-02	2.01754271e-02	7.42530212e-04
8.35000000e-02	1.94318637e-02	7.15971558e-04
8.37500000e-02	2.00399544e-02	7.32368810e-04
8.40000000e-02	2.02023612e-02	7.40841926e-04
8.42500000e-02	1.95703556e-02	7.20845845e-04
8.45000000e-02	1.97266455e-02	7.29443743e-04
8.47500000e-02	2.03160595e-02	7.47264097e-04
8.50000000e-02	1.98098266e-02	7.30855573e-04
8.52500000e-02	2.01589905e-02	7.48843556e-04
8.55000000e-02	1.96243595e-02	7.24081366e-04
8.57500000e-02	1.90709392e-02	7.13400452e-04
8.60000000e-02	1.98454297e-02	7.38117651e-04
8.62500000e-02	1.99392135e-02	7.38003337e-04
8.65000000e-02	1.99064384e-02	7.35491297e-04
8.67500000e-02	1.97826824e-02	7.34497805e-04
8.70000000e-02	2.02625216e-02	7.38395752e-04
8.72500000e-02	1.96904430e-02	7.07976554e-04
8.75000000e-02	2.00907026e-02	7.08491524e-04
8.77500000e-02	2.01876895e-02	7.06725162e-04
8.80000000e-02	1.94559051e-02	6.88280407e-04
8.82500000e-02	1.99949092e-02	6.98524689e-04
8.85000000e-02	1.98092569e-02	6.95923087e-04
8.87500000e-02	1.99182242e-02	6.89187842e-04
8.90000000e-02	1.98744335e-02	6.87533642e-04
8.92500000e-02	2.01691397e-02	6.91843522e-04
8.95000000e-02	2.00741870e-02	6.89820153e-04
8.97500000e-02	2.00396086e-02	6.88500649e-04
9.00000000e-02	2.00294593e-02	6.83387978e-04
9.02500000e-02	1.94995728e-02	6.68296865e-04
9.05000000e-02	1.99652967e-02	6.70202830e-04
9.07500000e-02	1.97554576e-02	6.66717034e-04
9.10000000e-02	1.98705141e-02	6.71514314e-04
9.12500000e-02	1.96510881e-02	6.57734934e-04
9.15000000e-02	1.97139295e-02	6.57858322e-04
9.17500000e-02	2.02807253e-02	6.74098530e-04
9.20000000e-02	1.94982656e-02	6.48332510e-04
9.22500000e-02	1.95501040e-02	6.47653043e-04
9.25000000e-02	2.05876322e-02	6.77591910e-04
9.27500000e-02	1.93151520e-02	6.41383782e-04
9.30000000e-02	1.95978357e-02	6.53080294e-04
9.32500000e-02	2.00134595e-02	6.62552036e-04
9.35000000e-02	1.93608610e-02	6.38802727e-04
9.37500000e-02	2.00981657e-02	6.60608914e-04
9.40000000e-02	1.99262193e-02	6.59748976e-04
9.42500000e-02	1.95301180e-02	6.40002145e-04
9.45000000e-02	2.00501440e-02	6.54955824e-04
9.47500000e-02	1.99992082e-02	6.52746825e-04
9.50000000e-02	2.04255553e-02	6.62899785e-04
9.52500000e-02	1.91806662e-02	6.26647192e-04
9.55000000e-02	2.00195324e-02	6.49520949e-04
9.57500000e-02	1.98432419e-02	6.44733683e-04
9.60000000e-02	2.00359528e-02	6.47851324e-04
9.62500000e-02	1.94370831e-02	6.26484352e-04
9.65000000e-02	2.01971668e-02	6.55620767e-04
9.67500000e-02	1.95987184e-02	6.31277700e-04
9.70000000e-02	2.02411614e-02	6.48556888e-04
9.72500000e-02	1.97642373e-02	6.36074584e-04
9.75000000e-02	1.97185855e-02	6.31806563e-04
9.77500000e-02	1.98481707e-02	6.28344464e-04
9.80000000e-02	1.93308174e-02	6.19855430e-04
9.82500000e-02	1.91838344e-02	6.16022103e-04
9.85000000e-02	1.95218292e-02	6.20610025e-04
9.87500000e-02	1.94786888e-02	6.17660090e-04
9.90000000e-02	1.97726540e-02	6.30149229e-04
9.92500000e-02	1.95665714e-02	6.21509581e-04
9.95000000e-02	1.98854223e-02	6.29613451e-04
9.97500000e-02	1.98299245e-02	6.24164166e-04
1.00000000e-01	1.96910820e-02	5.07836690e-04
1.00500000e-01	1.98540185e-02	4.45405307e-04
1.01000000e-01	1.96176249e-02	4.36471380e-04
1.01500000e-01	1.91910831e-02	4.27094777e-04
1.02000000e-01	1.97874276e-02	4.36928138e-04
1.02500000e-01	1.98101306e-02	4.32526909e-04
1.03000000e-01	1.96370798e-02	4.31473273e-04
1.03500000e-01	1.99577454e-02	4.36693777e-04
1.04000000e-01	1.97476320e-02	4.30073311e-04
1.04500000e-01	1.97428358e-02	4.28975880e-04
1.05000000e-01	1.97995256e-02	4.27265758e-04
1.05500000e-01	1.98928351e-02	4.28537696e-04
1.06000000e-01	2.02783834e-02	4.36314128e-04
1.06500000e-01	1.98808322e-02	4.28820062e-04
1.07000000e-01	1.99373781e-02	4.33276651e-04
1.07500000e-01	1.96784943e-02	4.36667799e-04
1.08000000e-01	1.93020049e-02	4.32435981e-04
1.08500000e-01	1.96066646e-02	4.42429382e-04
1.09000000e-01	1.92900981e-02	4.36694843e-04
1.09500000e-01	1.95369283e-02	4.47018557e-04
1.10000000e-01	1.95672356e-02	4.41410560e-04
1.10500000e-01	1.94060477e-02	4.28433229e-04
1.11000000e-01	1.98818680e-02	4.32405508e-04
1.11500000e-01	1.95083028e-02	4.23068199e-04
1.12000000e-01	1.98626120e-02	4.23716377e-04
1.12500000e-01	1.98640014e-02	4.19498564e-04
1.13000000e-01	1.97766139e-02	4.19121103e-04
1.13500000e-01	1.95436552e-02	4.13084713e-04
1.14000000e-01	1.95479734e-02	4.11652657e-04
1.14500000e-01	1.98769216e-02	4.19040962e-04
1.15000000e-01	2.00130746e-02	4.19041574e-04
1.15500000e-01	1.96595306e-02	4.10185143e-04
1.16000000e-01	1.99268502e-02	4.14212456e-04
1.16500000e-01	1.97522178e-02	4.10442798e-04
1.17000000e-01	1.97821058e-02	4.10894897e-04
1.17500000e-01	1.98801486e-02	4.08197656e-04
1.18000000e-01	1.95816294e-02	4.04859830e-04
1.18500000e-01	1.92996234e-02	3.98201946e-04
1.19000000e-01	1.92543273e-02	3.93502253e-04
1.19500000e-01	1.95251718e-02	4.00247656e-04
1.20000000e-01	1.95543745e-02	3.98453008e-04
1.20500000e-01	1.96098160e-02	3.99702604e-04
1.21000000e-01	1.94047897e-02	3.94959501e-04
1.21500000e-01	1.93209101e-02	3.93471137e-04
1.22000000e-01	1.99118589e-02	4.01029063e-04
1.22500000e-01	1.96455621e-02	3.96636428e-04
1.23000000e-01	2.00106071e-02	4.00505179e-04
1.23500000e-01	1.94679597e-02	3.89082684e-04
1.24000000e-01	1.95873158e-02	3.93289413e-04
1.24500000e-01	1.96473303e-02	3.91893528e-04
1.25000000e-01	1.97518028e-02	3.93607829e-04
1.25500000e-01	1.97404677e-02	3.93964776e-04
1.26000000e-01	1.94017845e-02	3.87171859e-04
1.26500000e-01	1.95831314e-02	3.88324959e-04
1.27000000e-01	1.98680392e-02	3.92503758e-04
1.27500000e-01	1.95987473e-02	3.87468139e-04
1.28000000e-01	1.96336382e-02	3.85911083e-04
1.28500000e-01	1.99216207e-02	3.90935395e-04
1.29000000e-01	1.98483043e-02	3.89484199e-04
1.29500000e-01	1.94721512e-02	3.80538186e-04
1.30000000e-01	1.98067749e-02	3.87977526e-04
1.30500000e-01	1.94074125e-02	3.79907573e-04
1.31000000e-01	1.94552776e-02	3.77383461e-04
1.31500000e-01	1.99515727e-02	3.86485746e-04
1.32000000e-01	1.97336290e-02	3.82455395e-04
1.32500000e-01	1.95869261e-02	3.79621953e-04
1.33000000e-01	1.94032327e-02	3.75471946e-04
1.33500000e-01	1.95834725e-02	3.76355235e-04
1.34000000e-01	1.95863937e-02	3.77053756e-04
1.34500000e-01	1.96716798e-02	3.74933743e-04
1.35000000e-01	1.97491620e-02	3.78010310e-04
1.35500000e-01	1.96464645e-02	3.72588595e-04
1.36000000e-01	1.95794135e-02	3.72778996e-04
1.36500000e-01	1.96279497e-02	3.73603218e-04
1.37000000e-01	1.93045135e-02	3.66363634e-04
1.37500000e-01	1.93841757e-02	3.66844792e-04
1.38000000e-01	1.95088846e-02	3.67502684e-04
1.38500000e-01	1.93401815e-02	3.66248206e-04
1.39000000e-01	1.97058828e-02	3.74433209e-04
1.39500000e-01	1.95449134e-02	3.68570950e-04
1.40000000e-01	1.93938605e-02	3.65123250e-04
1.40500000e-01	1.96262069e-02	3.69042393e-04
1.41000000e-01	1.94124974e-02	3.64453960e-04
1.41500000e-01	1.95385241e-02	3.67536238e-04
1.42000000e-01	1.97055835e-02	3.68397001e-04
1.42500000e-01	1.95073123e-02	3.65482190e-04
1.43000000e-01	1.96057835e-02	3.64961155e-04
1.43500000e-01	1.96952126e-02	3.67027006e-04
1.44000000e-01	1.95504849e-02	3.63480569e-04
1.44500000e-01	1.96116236e-02	3.62549890e-04
1.45000000e-01	1.93333242e-02	3.57755518e-04
1.45500000e-01	1.92970755e-02	3.57799058e-04
1.46000000e-01	1.91904280e-02	3.54683854e-04
1.46500000e-01	1.91527490e-02	3.54685554e-04
1.47000000e-01	1.95365715e-02	3.59399801e-04
1.47500000e-01	1.93399502e-02	3.55875112e-04
1.48000000e-01	1.95891770e-02	3.58810683e-04
1.48500000e-01	1.91656561e-02	3.51930457e-04
1.49000000e-01	1.92205812e-02	3.52737712e-04
1.49500000e-01	1.93322646e-02	3.52455432e-04
1.50000000e-01	1.92009410e-02	3.50044189e-04
1.50500000e-01	1.93784690e-02	3.54367076e-04
1.51000000e-01	1.95202613e-02	3.53847370e-04
1.51500000e-01	1.92499602e-02	3.48884029e-04
1.52000000e-01	1.94817437e-02	3.50612795e-04
1.52500000e-01	1.92462737e-02	3.47809577e-04
1.53000000e-01	1.93809289e-02	3.50517040e-04
1.53500000e-01	1.94646241e-02	3.49695005e-04
1.54000000e-01	1.92283879e-02	3.45620107e-04
1.54500000e-01	1.92673566e-02	3.51996696e-04
1.55000000e-01	1.93379766e-02	3.57764368e-04
1.55500000e-01	1.90406644e-02	3.55994220e-04
1.56000000e-01	1.92892751e-02	3.62128154e-04
1.56500000e-01	1.92446021e-02	3.60156594e-04
1.57000000e-01	1.92823691e-02	3.62582225e-04
1.57500000e-01	1.92112003e-02	3.54484223e-04
1.58000000e-01	1.91401776e-02	3.48564413e-04
1.58500000e-01	1.92585639e-02	3.47617648e-04
1.59000000e-01	1.89850780e-02	3.40790876e-04
1.59500000e-01	1.91025732e-02	3.41873386e-04
1.60000000e-01	1.95866077e-02	3.49828025e-04
1.60500000e-01	1.90626698e-02	3.40514718e-04
1.61000000e-01	1.90895138e-02	3.41217622e-04
1.61500000e-01	1.93449722e-02	3.42650451e-04
1.62000000e-01	1.85516401e-02	3.28578816e-04
1.62500000e-01	1.92247054e-02	3.40396521e-04
1.63000000e-01	1.91105944e-02	3.36343586e-04
1.63500000e-01	1.91876737e-02	3.40263545e-04
1.64000000e-01	1.91912964e-02	3.37159162e-04
1.64500000e-01	1.89064722e-02	3.32223424e-04
1.65000000e-01	1.86700375e-02	3.26607718e-04
1.65500000e-01	1.91183375e-02	3.32793824e-04
1.66000000e-01	1.90264430e-02	3.32304678e-04
1.66500000e-01	1.90265287e-02	3.31041678e-04
1.67000000e-01	1.87207022e-02	3.27566338e-04
1.67500000e-01	1.85970784e-02	3.24281778e-04
1.68000000e-01	1.90569214e-02	3.32240063e-04
1.68500000e-01	1.90567323e-02	3.29241228e-04
1.69000000e-01	1.92592011e-02	3.33265724e-04
1.69500000e-01	1.88787879e-02	3.25702189e-04
1.70000000e-01	1.88112003e-02	3.24942158e-04
1.70500000e-01	1.89866281e-02	3.26136598e-04
1.71000000e-01	1.89302501e-02	3.26357640e-04
1.71500000e-01	1.88343479e-02	3.24463748e-04
1.72000000e-01	1.91686856e-02	3.27364529e-04
1.72500000e-01	1.88586467e-02	3.23987671e-04
1.73000000e-01	1.90298977e-02	3.25051257e-04
1.73500000e-01	1.88726319e-02	3.20903648e-04
1.74000000e-01	1.87287751e-02	3.20631786e-04
1.74500000e-01	1.90624827e-02	3.22221480e-04
1.75000000e-01	1.90469678e-02	3.20989169e-04
1.75500000e-01	1.87836361e-02	3.17151596e-04
1.76000000e-01	1.88228245e-02	3.17797471e-04
1.76500000e-01	1.89629850e-02	3.18635169e-04
1.77000000e-01	1.88102927e-02	3.17161369e-04
1.77500000e-01	1.87176427e-02	3.15072408e-04
1.78000000e-01	1.86824020e-02	3.12636158e-04
1.78500000e-01	1.87747727e-02	3.15209655e-04
1.79000000e-01	1.86832693e-02	3.13307719e-04
1.79500000e-01	1.86749766e-02	3.13847205e-04
1.80000000e-01	1.88296719e-02	3.16483986e-04
1.80500000e-01	1.86695357e-02	3.12853957e-04
1.81000000e-01	1.84998260e-02	3.09456857e-04
1.81500000e-01	1.83515949e-02	3.06893431e-04
1.82000000e-01	1.85522066e-02	3.09271340e-04
1.82500000e-01	1.86203972e-02	3.10535787e-04
1.83000000e-01	1.86138719e-02	3.11062337e-04
1.83500000e-01	1.86802014e-02	3.09310598e-04
1.84000000e-01	1.87230645e-02	3.11042233e-04
1.84500000e-01	1.87606291e-02	3.10043611e-04
1.85000000e-01	1.83896875e-02	3.05271016e-04
1.85500000e-01	1.88111284e-02	3.10599773e-04
1.86000000e-01	1.84605464e-02	3.05501295e-04
1.86500000e-01	1.86038883e-02	3.07227930e-04
1.87000000e-01	1.84864026e-02	3.04997306e-04
1.87500000e-01	1.85959532e-02	3.04428135e-04
1.88000000e-01	1.85361763e-02	3.04773754e-04
1.88500000e-01	1.84009976e-02	3.01976940e-04
1.89000000e-01	1.86947032e-02	3.05619753e-04
1.89500000e-01	1.85477728e-02	3.03454930e-04
1.90000000e-01	1.86315060e-02	3.04027128e-04
1.90500000e-01	1.82750479e-02	2.98641980e-04
1.91000000e-01	1.87250113e-02	3.04494075e-04
1.91500000e-01	1.84897368e-02	3.01662953e-04
1.92000000e-01	1.83625998e-02	2.98606042e-04
1.92500000e-01	1.83638200e-02	2.99047113e-04
1.93000000e-01	1.83909303e-02	3.00282774e-04
1.93500000e-01	1.84122803e-02	2.98029670e-04
1.94000000e-01	1.84554910e-02	2.99326876e-04
1.94500000e-01	1.80771015e-02	2.93064362e-04
1.95000000e-01	1.83988315e-02	2.96853872e-04
1.95500000e-01	1.82548109e-02	2.93391602e-04
1.96000000e-01	1.82678884e-02	2.94589549e-04
1.96500000e-01	1.82413958e-02	2.94163127e-04
1.97000000e-01	1.83863305e-02	2.95114394e-04
1.97500000e-01	1.83740836e-02	2.94089192e-04
1.98000000e-01	1.85363661e-02	2.96460532e-04
1.98500000e-01	1.81337477e-02	2.90229602e-04
1.99000000e-01	1.80032583e-02	2.87597547e-04
1.99500000e-01	1.81755659e-02	2.90128238e-04
2.00000000e-01	1.82989715e-02	2.91946999e-04
2.00500000e-01	1.82564680e-02	2.91249383e-04
2.01000000e-01	1.83797743e-02	2.91707277e-04
2.01500000e-01	1.83216142e-02	2.92336019e-04
2.02000000e-01	1.81750491e-02	2.88758355e-04
2.02500000e-01	1.81570116e-02	2.86324235e-04
2.03000000e-01	1.83143514e-02	2.89298057e-04
2.03500000e-01	1.84566455e-02	2.91228661e-04
2.04000000e-01	1.82068223e-02	2.88063023e-04
2.04500000e-01	1.78960477e-02	2.82514972e-04
2.05000000e-01	1.78977992e-02	2.83922087e-04
2.05500000e-01	1.81007923e-02	2.85912751e-04
2.06000000e-01	1.82747757e-02	2.86421309e-04
2.06500000e-01	1.80620189e-02	2.84118745e-04
2.07000000e-01	1.79910733e-02	2.82293423e-04
2.07500000e-01	1.80552023e-02	2.83424432e-04
2.08000000e-01	1.80485474e-02	2.83160458e-04
2.08500000e-01	1.81504581e-02	2.81971834e-04
2.09000000e-01	1.79658001e-02	2.82025332e-04
2.09500000e-01	1.83200574e-02	2.83643097e-04
2.10000000e-01	1.79844582e-02	2.80787849e-04
2.10500000e-01	1.82383796e-02	2.83419748e-04
2.11000000e-01	1.81983365e-02	2.82852344e-04
2.11500000e-01	1.80313376e-02	2.80952741e-04
2.12000000e-01	1.80865789e-02	2.80810178e-04
2.12500000e-01	1.82291126e-02	2.83243828e-04
2.13000000e-01	1.82089481e-02	2.81930970e-04
2.13500000e-01	1.80480000e-02	2.78812183e-04
2.14000000e-01	1.79138332e-02	2.77422611e-04
2.14500000e-01	1.79777256e-02	2.77172805e-04
2.15000000e-01	1.78916651e-02	2.77628032e-04
2.15500000e-01	1.79318979e-02	2.74423153e-04
2.16000000e-01	1.81254248e-02	2.78012277e-04
2.16500000e-01	1.81889936e-02	2.79441086e-04
2.17000000e-01	1.81381632e-02	2.81816529e-04
2.17500000e-01	1.81998153e-02	2.86887085e-04
2.18000000e-01	1.80355084e-02	2.86488020e-04
2.18500000e-01	1.78256846e-02	2.84576164e-04
2.19000000e-01	1.78157523e-02	2.86166388e-04
2.19500000e-01	1.78413368e-02	2.87150818e-04
2.20000000e-01	1.79691872e-02	2.91112843e-04
2.20500000e-01	1.79117173e-02	2.90563177e-04
2.21000000e-01	1.80391987e-02	2.92241007e-04
2.21500000e-01	1.79218614e-02	2.91290422e-04
2.22000000e-01	1.81781939e-02	2.96626000e-04
2.22500000e-01	1.80870601e-02	2.95645205e-04
2.23000000e-01	1.79779635e-02	2.95803614e-04
2.23500000e-01	1.79018247e-02	2.94896576e-04
2.24000000e-01	1.78588823e-02	2.94109303e-04
2.24500000e-01	1.78270558e-02	2.94151613e-04
2.25000000e-01	1.80927622e-02	2.99251770e-04
2.25500000e-01	1.82016018e-02	3.01754125e-04
2.26000000e-01	1.78874204e-02	2.97795288e-04
2.26500000e-01	1.78712569e-02	2.92792202e-04
2.27000000e-01	1.80591931e-02	2.92519461e-04
2.27500000e-01	1.81313080e-02	2.90294480e-04
2.28000000e-01	1.78039359e-02	2.85552803e-04
2.28500000e-01	1.80282039e-02	2.86970578e-04
2.29000000e-01	1.79042913e-02	2.82689113e-04
2.29500000e-01	1.78325779e-02	2.81864554e-04
2.30000000e-01	1.78780091e-02	2.81059288e-04
2.30500000e-01	1.75955046e-02	2.76052716e-04
2.31000000e-01	1.76486367e-02	2.76142553e-04
2.31500000e-01	1.78111937e-02	2.78020715e-04
2.32000000e-01	1.77728734e-02	2.77047124e-04
2.32500000e-01	1.79958370e-02	2.79411915e-04
2.33000000e-01	1.77614991e-02	2.74949103e-04
2.33500000e-01	1.78341373e-02	2.75510633e-04
2.34000000e-01	1.76990095e-02	2.72232277e-04
2.34500000e-01	1.76888813e-02	2.72425068e-04
2.35000000e-01	1.78477498e-02	2.74059951e-04
2.35500000e-01	1.76768014e-02	2.70644191e-04
2.36000000e-01	1.76482732e-02	2.70656414e-04
2.36500000e-01	1.77861611e-02	2.71430138e-04
2.37000000e-01	1.77020963e-02	2.70539145e-04
2.37500000e-01	1.77860965e-02	2.71246741e-04
2.38000000e-01	1.74246924e-02	2.64415710e-04
2.38500000e-01	1.75972495e-02	2.68486154e-04
2.39000000e-01	1.76049554e-02	2.66907998e-04
2.39500000e-01	1.76166980e-02	2.67673039e-04
2.40000000e-01	1.75235996e-02	2.65675857e-04
2.40500000e-01	1.78919139e-02	2.69695562e-04
2.41000000e-01	1.74401245e-02	2.63865379e-04
2.41500000e-01	1.75425118e-02	2.63063757e-04
2.42000000e-01	1.77880593e-02	2.66952132e-04
2.42500000e-01	1.73413356e-02	2.60293381e-04
2.43000000e-01	1.76018886e-02	2.63899850e-04
2.43500000e-01	1.76960293e-02	2.64523399e-04
2.44000000e-01	1.77223138e-02	2.64298546e-04
2.44500000e-01	1.76119129e-02	2.61851898e-04
2.45000000e-01	1.76770859e-02	2.62069531e-04
2.45500000e-01	1.75946951e-02	2.61308778e-04
2.46000000e-01	1.77054722e-02	2.63545260e-04
2.46500000e-01	1.77460856e-02	2.62866053e-04
2.47000000e-01	1.74714620e-02	2.58473404e-04
2.47500000e-01	1.76796659e-02	2.59875695e-04
2.48000000e-01	1.76395955e-02	2.61506436e-04
2.48500000e-01	1.74273121e-02	2.57496647e-04
2.49000000e-01	1.74520599e-02	2.56787391e-04
2.49500000e-01	1.74149536e-02	2.56260568e-04
2.50000000e-01	1.75635097e-02	2.57402536e-04
2.50500000e-01	1.75602689e-02	2.57673909e-04
2.51000000e-01	1.72907497e-02	2.53307261e-04
2.51500000e-01	1.75302845e-02	2.56865881e-04
2.52000000e-01	1.75696670e-02	2.57084617e-04
2.52500000e-01	1.73563393e-02	2.53740145e-04
2.53000000e-01	1.75067302e-02	2.56418836e-04
2.53500000e-01	1.75884396e-02	2.56824092e-04
2.54000000e-01	1.74413250e-02	2.55212031e-04
2.54500000e-01	1.74031178e-02	2.54504913e-04
2.55000000e-01	1.73872996e-02	2.52343964e-04
2.55500000e-01	1.75592711e-02	2.54854155e-04
2.56000000e-01	1.73474258e-02	2.52885226e-04
2.56500000e-01	1.73128560e-02	2.51898352e-04
2.57000000e-01	1.71170892e-02	2.49235927e-04
2.57500000e-01	1.72912263e-02	2.50530493e-04
2.58000000e-01	1.72507237e-02	2.50371414e-04
2.58500000e-01	1.74203751e-02	2.51237862e-04
2.59000000e-01	1.74424485e-02	2.52018779e-04
2.59500000e-01	1.75162941e-02	2.52162673e-04
2.60000000e-01	1.72724679e-02	2.49187783e-04
2.60500000e-01	1.72159858e-02	2.47534631e-04
2.61000000e-01	1.73367559e-02	2.48685337e-04
2.61500000e-01	1.73578014e-02	2.49702856e-04
2.62000000e-01	1.73617369e-02	2.48863624e-04
2.62500000e-01	1.73303149e-02	2.48372797e-04
2.63000000e-01	1.73872749e-02	2.48878549e-04
2.63500000e-01	1.73078242e-02	2.46839870e-04
2.64000000e-01	1.72453813e-02	2.46657531e-04
2.64500000e-01	1.71746717e-02	2.45282099e-04
2.65000000e-01	1.71290220e-02	2.44594343e-04
2.65500000e-01	1.69502430e-02	2.42263829e-04
2.66000000e-01	1.72606073e-02	2.45214268e-04
2.66500000e-01	1.72675508e-02	2.45649320e-04
2.67000000e-01	1.69612104e-02	2.40845839e-04
2.67500000e-01	1.71285208e-02	2.41970771e-04
2.68000000e-01	1.71733753e-02	2.44008382e-04
2.68500000e-01	1.71325080e-02	2.41922445e-04
2.69000000e-01	1.71442666e-02	2.42100026e-04
2.69500000e-01	1.70388758e-02	2.40182640e-04
2.70000000e-01	1.71997259e-02	2.43403936e-04
2.70500000e-01	1.70665502e-02	2.40108364e-04
2.71000000e-01	1.71327226e-02	2.40385826e-04
2.71500000e-01	1.69844160e-02	2.39177359e-04
2.72000000e-01	1.71103658e-02	2.39258098e-04
2.72500000e-01	1.72573231e-02	2.41430690e-04
2.73000000e-01	1.70630007e-02	2.40049719e-04
2.73500000e-01	1.70080665e-02	2.38289136e-04
2.74000000e-01	1.69821660e-02	2.37289055e-04
2.74500000e-01	1.71186331e-02	2.38659443e-04
2.75000000e-01	1.70720706e-02	2.38773779e-04
2.75500000e-01	1.73415598e-02	2.41545825e-04
2.76000000e-01	1.71306679e-02	2.39154825e-04
2.76500000e-01	1.71473810e-02	2.39787994e-04
2.77000000e-01	1.69498883e-02	2.35040699e-04
2.77500000e-01	1.72484430e-02	2.39605847e-04
2.78000000e-01	1.70792347e-02	2.36915554e-04
2.78500000e-01	1.70646834e-02	2.36187008e-04
2.79000000e-01	1.70754131e-02	2.36363338e-04
2.79500000e-01	1.70048699e-02	2.35153242e-04
2.80000000e-01	1.69546682e-02	2.35649208e-04
2.80500000e-01	1.70390125e-02	2.35895378e-04
2.81000000e-01	1.70984936e-02	2.36862991e-04
2.81500000e-01	1.70063668e-02	2.35088080e-04
2.82000000e-01	1.73278787e-02	2.38417130e-04
2.82500000e-01	1.69324419e-02	2.33987937e-04
2.83000000e-01	1.71396152e-02	2.35968268e-04
2.83500000e-01	1.67927092e-02	2.31688840e-04
2.84000000e-01	1.68212073e-02	2.31495912e-04
2.84500000e-01	1.69801579e-02	2.32830183e-04
2.85000000e-01	1.69444757e-02	2.33449341e-04
2.85500000e-01	1.66105509e-02	2.27963669e-04
2.86000000e-01	1.68199892e-02	2.30278256e-04
2.86500000e-01	1.72078488e-02	2.34555237e-04
2.87000000e-01	1.68495568e-02	2.30411761e-04
2.87500000e-01	1.70554135e-02	2.32716793e-04
2.88000000e-01	1.68318056e-02	2.29356542e-04
2.88500000e-01	1.69365897e-02	2.31387633e-04
2.89000000e-01	1.68749746e-02	2.29481621e-04
2.89500000e-01	1.67026893e-02	2.28273373e-04
2.90000000e-01	1.67349043e-02	2.27813175e-04
2.90500000e-01	1.69539333e-02	2.30089469e-04
2.91000000e-01	1.68130196e-02	2.28045638e-04
2.91500000e-01	1.65988804e-02	2.24941795e-04
2.92000000e-01	1.68153257e-02	2.27243283e-04
2.92500000e-01	1.69252718e-02	2.28532541e-04
2.93000000e-01	1.67954106e-02	2.27291509e-04
2.93500000e-01	1.68179226e-02	2.26907153e-04
2.94000000e-01	1.66625824e-02	2.25170878e-04
2.94500000e-01	1.67991236e-02	2.27820013e-04
2.95000000e-01	1.68793224e-02	2.27466939e-04
2.95500000e-01	1.69391812e-02	2.28683349e-04
2.96000000e-01	1.68547878e-02	2.26918759e-04
2.96500000e-01	1.68324709e-02	2.26277837e-04
2.97000000e-01	1.66973681e-02	2.24414717e-04
2.97500000e-01	1.67176412e-02	2.24092620e-04
2.98000000e-01	1.67167812e-02	2.25011963e-04
2.98500000e-01	1.66100489e-02	2.23096187e-04
2.99000000e-01	1.71058203e-02	2.28444108e-04
2.99500000e-01	1.67535799e-02	2.24639421e-04
3.00000000e-01	1.67884788e-02	2.24997078e-04
3.00500000e-01	1.68330374e-02	2.23800160e-04
3.01000000e-01	1.65412384e-02	2.19787638e-04
3.01500000e-01	1.67689792e-02	2.23748112e-04
3.02000000e-01	1.66397708e-02	2.21291352e-04
3.02500000e-01	1.66253949e-02	2.21541155e-04
3.03000000e-01	1.67428152e-02	2.22744560e-04
3.03500000e-01	1.67508397e-02	2.21966313e-04
3.04000000e-01	1.67945016e-02	2.22959851e-04
3.04500000e-01	1.65447054e-02	2.19640937e-04
3.05000000e-01	1.65893284e-02	2.21088603e-04
3.05500000e-01	1.67332256e-02	2.21622549e-04
3.06000000e-01	1.67735229e-02	2.20674780e-04
3.06500000e-01	1.66544967e-02	2.20607758e-04
3.07000000e-01	1.63356387e-02	2.15670199e-04
3.07500000e-01	1.66545490e-02	2.19329595e-04
3.08000000e-01	1.64443900e-02	2.17850262e-04
3.08500000e-01	1.66763701e-02	2.19085520e-04
3.09000000e-01	1.65798344e-02	2.17595047e-04
3.09500000e-01	1.65005002e-02	2.16675437e-04
3.10000000e-01	1.66473393e-02	2.19198677e-04
3.10500000e-01	1.64436691e-02	2.15789370e-04
3.11000000e-01	1.65434941e-02	2.17413296e-04
3.11500000e-01	1.66416581e-02	2.17870980e-04
3.12000000e-01	1.65295788e-02	2.16590733e-04
3.12500000e-01	1.65769093e-02	2.17111346e-04
3.13000000e-01	1.63424151e-02	2.14260147e-04
3.13500000e-01	1.65358029e-02	2.16581431e-04
3.14000000e-01	1.64797183e-02	2.16188690e-04
3.14500000e-01	1.65203217e-02	2.15506674e-04
3.15000000e-01	1.64223003e-02	2.14616380e-04
3.15500000e-01	1.65029547e-02	2.15315446e-04
3.16000000e-01	1.65450629e-02	2.15692475e-04
3.16500000e-01	1.63825442e-02	2.13069378e-04
3.17000000e-01	1.65356962e-02	2.14454698e-04
3.17500000e-01	1.64329674e-02	2.13667066e-04
3.18000000e-01	1.63418465e-02	2.12599198e-04
3.18500000e-01	1.63764377e-02	2.13177363e-04
3.19000000e-01	1.65204869e-02	2.13600915e-04
3.19500000e-01	1.62867841e-02	2.11807164e-04
3.20000000e-01	1.61747830e-02	2.09820546e-04
3.20500000e-01	1.66240476e-02	2.14586968e-04
3.21000000e-01	1.62550712e-02	2.10840232e-04
3.21500000e-01	1.62000035e-02	2.09834920e-04
3.22000000e-01	1.62410659e-02	2.09012900e-04
3.22500000e-01	1.63391417e-02	2.11050395e-04
3.23000000e-01	1.63948776e-02	2.11629953e-04
3.23500000e-01	1.62606485e-02	2.09415822e-04
3.24000000e-01	1.62304637e-02	2.08873664e-04
3.24500000e-01	1.63330866e-02	2.10626760e-04
3.25000000e-01	1.63192424e-02	2.09082771e-04
3.25500000e-01	1.61934663e-02	2.08644523e-04
3.26000000e-01	1.61336700e-02	2.07480322e-04
3.26500000e-01	1.64319537e-02	2.10237726e-04
3.27000000e-01	1.64329156e-02	2.10089430e-04
3.27500000e-01	1.62852239e-02	2.08546649e-04
3.28000000e-01	1.61202202e-02	2.06113829e-04
3.28500000e-01	1.61257942e-02	2.06788535e-04
3.29000000e-01	1.61811216e-02	2.06371682e-04
3.29500000e-01	1.61536777e-02	2.06985516e-04
3.30000000e-01	1.60977691e-02	2.05676370e-04
3.30500000e-01	1.62223733e-02	2.06895402e-04
3.31000000e-01	1.62229744e-02	2.06308107e-04
3.31500000e-01	1.61819298e-02	2.06091439e-04
3.32000000e-01	1.63268896e-02	2.08716549e-04
3.32500000e-01	1.61890530e-02	2.05712147e-04
3.33000000e-01	1.61849658e-02	2.05896790e-04
3.33500000e-01	1.61031519e-02	2.04806410e-04
3.34000000e-01	1.63482111e-02	2.07483362e-04
3.34500000e-01	1.62192664e-02	2.06160772e-04
3.35000000e-01	1.61602131e-02	2.04882134e-04
3.35500000e-01	1.62077200e-02	2.05067588e-04
3.36000000e-01	1.60270456e-02	2.02937818e-04
3.36500000e-01	1.62452604e-02	2.05794582e-04
3.37000000e-01	1.60664848e-02	2.02529206e-04
3.37500000e-01	1.59995054e-02	2.02699378e-04
3.38000000e-01	1.61365044e-02	2.03450422e-04
3.38500000e-01	1.61244669e-02	2.02821637e-04
3.39000000e-01	1.60803471e-02	2.03340933e-04
3.39500000e-01	1.61942785e-02	2.03207903e-04
3.40000000e-01	1.60967881e-02	2.02630220e-04
3.40500000e-01	1.61761873e-02	2.02826951e-04
3.41000000e-01	1.60215054e-02	2.01281815e-04
3.41500000e-01	1.60665635e-02	2.02428819e-04
3.42000000e-01	1.59634711e-02	2.00530737e-04
3.42500000e-01	1.60834403e-02	2.01873136e-04
3.43000000e-01	1.59931130e-02	2.01195807e-04
3.43500000e-01	1.60302956e-02	2.00316713e-04
3.44000000e-01	1.60152804e-02	2.00567444e-04
3.44500000e-01	1.60472230e-02	2.00544192e-04
3.45000000e-01	1.59931178e-02	1.99667205e-04
3.45500000e-01	1.56353805e-02	1.95482730e-04
3.46000000e-01	1.61234306e-02	2.01094014e-04
3.46500000e-01	1.58093400e-02	1.96991066e-04
3.47000000e-01	1.58739057e-02	1.97433090e-04
3.47500000e-01	1.58189625e-02	1.97883376e-04
3.48000000e-01	1.60814491e-02	1.99862613e-04
3.48500000e-01	1.58988234e-02	1.98464906e-04
3.49000000e-01	1.59007892e-02	1.97230660e-04
3.49500000e-01	1.59200152e-02	1.98664628e-04
3.50000000e-01	1.59444344e-02	1.61371645e-04
3.51000000e-01	1.58301695e-02	1.38624984e-04
3.52000000e-01	1.57907929e-02	1.38300569e-04
3.53000000e-01	1.58371096e-02	1.38141600e-04
3.54000000e-01	1.57956855e-02	1.37629815e-04
3.55000000e-01	1.58344028e-02	1.38024443e-04
3.56000000e-01	1.57544568e-02	1.38032376e-04
3.57000000e-01	1.57277057e-02	1.40368149e-04
3.58000000e-01	1.56640649e-02	1.40589988e-04
3.59000000e-01	1.56937345e-02	1.42052268e-04
3.60000000e-01	1.55457788e-02	1.41606716e-04
3.61000000e-01	1.55387480e-02	1.42068462e-04
3.62000000e-01	1.54993839e-02	1.42570813e-04
3.63000000e-01	1.55759963e-02	1.43651117e-04
3.64000000e-01	1.56008900e-02	1.44385626e-04
3.65000000e-01	1.56148027e-02	1.45088383e-04
3.66000000e-01	1.55432873e-02	1.42471628e-04
3.67000000e-01	1.56226409e-02	1.41374555e-04
3.68000000e-01	1.55238849e-02	1.39344556e-04
3.69000000e-01	1.55478913e-02	1.39171558e-04
3.70000000e-01	1.53427965e-02	1.36647411e-04
3.71000000e-01	1.54876118e-02	1.39672418e-04
3.72000000e-01	1.55135262e-02	1.41235122e-04
3.73000000e-01	1.55193381e-02	1.41183417e-04
3.74000000e-01	1.54958317e-02	1.41571845e-04
3.75000000e-01	1.54866719e-02	1.41122319e-04
3.76000000e-01	1.55353177e-02	1.41623365e-04
3.77000000e-01	1.54568268e-02	1.40856263e-04
3.78000000e-01	1.53872385e-02	1.40074564e-04
3.79000000e-01	1.54125992e-02	1.40712010e-04
3.80000000e-01	1.55722727e-02	1.41530337e-04
3.81000000e-01	1.55026474e-02	1.41106474e-04
3.82000000e-01	1.54185297e-02	1.40488976e-04
3.83000000e-01	1.53512137e-02	1.39326682e-04
3.84000000e-01	1.53085563e-02	1.39507123e-04
3.85000000e-01	1.52842292e-02	1.39193277e-04
3.86000000e-01	1.51787305e-02	1.38116617e-04
3.87000000e-01	1.54252983e-02	1.40184979e-04
3.88000000e-01	1.51140082e-02	1.37508701e-04
3.89000000e-01	1.53893788e-02	1.39665098e-04
3.90000000e-01	1.52726666e-02	1.38254236e-04
3.91000000e-01	1.53400445e-02	1.38776329e-04
3.92000000e-01	1.52330772e-02	1.38276570e-04
3.93000000e-01	1.53067954e-02	1.38643814e-04
3.94000000e-01	1.52369833e-02	1.37944294e-04
3.95000000e-01	1.51800944e-02	1.37544360e-04
3.96000000e-01	1.51852101e-02	1.37629610e-04
3.97000000e-01	1.53486666e-02	1.38938652e-04
3.98000000e-01	1.51473757e-02	1.37953983e-04
3.99000000e-01	1.52258466e-02	1.37880341e-04
4.00000000e-01	1.51034586e-02	1.37233096e-04
4.01000000e-01	1.51532560e-02	1.37425320e-04
4.02000000e-01	1.50747170e-02	1.36912634e-04
4.03000000e-01	1.50886886e-02	1.36781086e-04
4.04000000e-01	1.51419199e-02	1.36924995e-04
4.05000000e-01	1.50326017e-02	1.36583601e-04
4.06000000e-01	1.50710168e-02	1.36307921e-04
4.07000000e-01	1.52451147e-02	1.37819829e-04
4.08000000e-01	1.50076530e-02	1.35842537e-04
4.09000000e-01	1.49647924e-02	1.35609581e-04
4.10000000e-01	1.50429928e-02	1.36198074e-04
4.11000000e-01	1.49689726e-02	1.34996694e-04
4.12000000e-01	1.50013720e-02	1.35813595e-04
4.13000000e-01	1.50408534e-02	1.36041099e-04
4.14000000e-01	1.49143373e-02	1.34531470e-04
4.15000000e-01	1.50050028e-02	1.35228329e-04
4.16000000e-01	1.49371598e-02	1.35032726e-04
4.17000000e-01	1.50168158e-02	1.35428889e-04
4.18000000e-01	1.49047309e-02	1.35806998e-04
4.19000000e-01	1.50131707e-02	1.38582022e-04
4.20000000e-01	1.50177787e-02	1.39107382e-04
4.21000000e-01	1.49243521e-02	1.38986474e-04
4.22000000e-01	1.50257276e-02	1.40449947e-04
4.23000000e-01	1.49918554e-02	1.40555372e-04
4.24000000e-01	1.50674977e-02	1.41244274e-04
4.25000000e-01	1.49839971e-02	1.41187208e-04
4.26000000e-01	1.49424340e-02	1.40758871e-04
4.27000000e-01	1.50098072e-02	1.41587894e-04
4.28000000e-01	1.50568995e-02	1.41868847e-04
4.29000000e-01	1.49964314e-02	1.42170101e-04
4.30000000e-01	1.48520331e-02	1.40134154e-04
4.31000000e-01	1.50386930e-02	1.41630783e-04
4.32000000e-01	1.48501562e-02	1.40391248e-04
4.33000000e-01	1.49761535e-02	1.41635774e-04
4.34000000e-01	1.47521471e-02	1.39902883e-04
4.35000000e-01	1.46661391e-02	1.39469585e-04
4.36000000e-01	1.46931097e-02	1.39800713e-04
4.37000000e-01	1.50591243e-02	1.43077147e-04
4.38000000e-01	1.49091859e-02	1.42437068e-04
4.39000000e-01	1.48811864e-02	1.41996657e-04
4.40000000e-01	1.47871023e-02	1.41066362e-04
4.41000000e-01	1.48027466e-02	1.41543121e-04
4.42000000e-01	1.47061287e-02	1.40614663e-04
4.43000000e-01	1.48993669e-02	1.42407322e-04
4.44000000e-01	1.47019499e-02	1.41158636e-04
4.45000000e-01	1.47688949e-02	1.41805236e-04
4.46000000e-01	1.47253348e-02	1.41298616e-04
4.47000000e-01	1.46938659e-02	1.41546803e-04
4.48000000e-01	1.46902600e-02	1.41574510e-04
4.49000000e-01	1.47645254e-02	1.42142699e-04
4.50000000e-01	1.46769167e-02	1.41928352e-04
4.51000000e-01	1.45781368e-02	1.40974054e-04
4.52000000e-01	1.47579612e-02	1.42591251e-04
4.53000000e-01	1.46982138e-02	1.41985451e-04
4.54000000e-01	1.47508580e-02	1.42985491e-04
4.55000000e-01	1.49183936e-02	1.44045589e-04
4.56000000e-01	1.46656528e-02	1.42379656e-04
4.57000000e-01	1.45766508e-02	1.41425314e-04
4.58000000e-01	1.45642218e-02	1.41249811e-04
4.59000000e-01	1.46507570e-02	1.42506636e-04
4.60000000e-01	1.44579340e-02	1.41000119e-04
4.61000000e-01	1.46400334e-02	1.42529193e-04
4.62000000e-01	1.46040536e-02	1.42201507e-04
4.63000000e-01	1.46421781e-02	1.42880058e-04
4.64000000e-01	1.46753182e-02	1.43346165e-04
4.65000000e-01	1.46714298e-02	1.43362420e-04
4.66000000e-01	1.46935823e-02	1.43437895e-04
4.67000000e-01	1.44605384e-02	1.41951084e-04
4.68000000e-01	1.44962666e-02	1.42253484e-04
4.69000000e-01	1.45249811e-02	1.42716866e-04
4.70000000e-01	1.45070737e-02	1.42025006e-04
4.71000000e-01	1.44450177e-02	1.41782682e-04
4.72000000e-01	1.44561552e-02	1.41908206e-04
4.73000000e-01	1.44636399e-02	1.41660460e-04
4.74000000e-01	1.43551491e-02	1.40929259e-04
4.75000000e-01	1.44142916e-02	1.41566325e-04
4.76000000e-01	1.44216654e-02	1.41705573e-04
4.77000000e-01	1.44004661e-02	1.41582662e-04
4.78000000e-01	1.43889530e-02	1.41411438e-04
4.79000000e-01	1.45131106e-02	1.42298360e-04
4.80000000e-01	1.43385275e-02	1.41310661e-04
4.81000000e-01	1.43540905e-02	1.41741737e-04
4.82000000e-01	1.43165018e-02	1.40986613e-04
4.83000000e-01	1.43364792e-02	1.41273856e-04
4.84000000e-01	1.43736873e-02	1.41409548e-04
4.85000000e-01	1.43082655e-02	1.41222923e-04
4.86000000e-01	1.42465073e-02	1.40224761e-04
4.87000000e-01	1.42389981e-02	1.40386141e-04
4.88000000e-01	1.43161256e-02	1.41032376e-04
4.89000000e-01	1.43350750e-02	1.41159139e-04
4.90000000e-01	1.41862425e-02	1.40232578e-04
4.91000000e-01	1.43496680e-02	1.41535544e-04
4.92000000e-01	1.43632819e-02	1.42018047e-04
4.93000000e-01	1.43234848e-02	1.42534382e-04
4.94000000e-01	1.43762710e-02	1.42374888e-04
4.95000000e-01	1.42698371e-02	1.42528298e-04
4.96000000e-01	1.42569810e-02	1.46501325e-04
4.97000000e-01	1.41419707e-02	1.48082760e-04
4.98000000e-01	1.41808255e-02	1.50222224e-04
4.99000000e-01	1.42771349e-02	1.53407875e-04
5.00000000e-01	1.43432517e-02	1.55207892e-04
5.01000000e-01	1.41460398e-02	1.54533083e-04
5.02000000e-01	1.42086036e-02	1.57181724e-04
5.03000000e-01	1.42393997e-02	1.59005307e-04
5.04000000e-01	1.42164058e-02	1.59534434e-04
5.05000000e-01	1.42960588e-02	1.58294346e-04
5.06000000e-01	1.42014610e-02	1.53523909e-04
5.07000000e-01	1.42697169e-02	1.52999867e-04
5.08000000e-01	1.42706845e-02	1.52571387e-04
5.09000000e-01	1.42739979e-02	1.51105862e-04
5.10000000e-01	1.41562088e-02	1.49762009e-04
5.11000000e-01	1.42785660e-02	1.50747792e-04
5.12000000e-01	1.41929159e-02	1.49562893e-04
5.13000000e-01	1.41510222e-02	1.48716510e-04
5.14000000e-01	1.42158078e-02	1.48781312e-04
5.15000000e-01	1.42517528e-02	1.49036756e-04
5.16000000e-01	1.41958937e-02	1.48285072e-04
5.17000000e-01	1.40250278e-02	1.46551091e-04
5.18000000e-01	1.40700571e-02	1.46332525e-04
5.19000000e-01	1.39533862e-02	1.44999298e-04
5.20000000e-01	1.40310127e-02	1.45088955e-04
5.21000000e-01	1.41523960e-02	1.45896328e-04
5.22000000e-01	1.40797491e-02	1.46202523e-04
5.23000000e-01	1.41662339e-02	1.46295399e-04
5.24000000e-01	1.39982185e-02	1.44854380e-04
5.25000000e-01	1.39640221e-02	1.43649280e-04
5.26000000e-01	1.39372046e-02	1.44299061e-04
5.27000000e-01	1.40672738e-02	1.44974953e-04
5.28000000e-01	1.39685763e-02	1.44598301e-04
5.29000000e-01	1.39630196e-02	1.44241502e-04
5.30000000e-01	1.40802891e-02	1.45758334e-04
5.31000000e-01	1.39750447e-02	1.44748995e-04
5.32000000e-01	1.38545863e-02	1.43159070e-04
5.33000000e-01	1.38473437e-02	1.43246052e-04
5.34000000e-01	1.39889503e-02	1.44554988e-04
5.35000000e-01	1.38826061e-02	1.43565804e-04
5.36000000e-01	1.38123694e-02	1.42947223e-04
5.37000000e-01	1.38668362e-02	1.43519255e-04
5.38000000e-01	1.39248847e-02	1.43738263e-04
5.39000000e-01	1.37730292e-02	1.42624986e-04
5.40000000e-01	1.38401223e-02	1.43024075e-04
5.41000000e-01	1.39611298e-02	1.43902495e-04
5.42000000e-01	1.38562325e-02	1.43149525e-04
5.43000000e-01	1.37815710e-02	1.42345463e-04
5.44000000e-01	1.37711361e-02	1.42355038e-04
5.45000000e-01	1.36682779e-02	1.40935830e-04
5.46000000e-01	1.38430163e-02	1.42787000e-04
5.47000000e-01	1.37711608e-02	1.42580127e-04
5.48000000e-01	1.38638595e-02	1.43172433e-04
5.49000000e-01	1.37291735e-02	1.41831680e-04
5.50000000e-01	1.38189646e-02	1.42100303e-04
5.51000000e-01	1.37496433e-02	1.41796723e-04
5.52000000e-01	1.38019468e-02	1.42117714e-04
5.53000000e-01	1.36472447e-02	1.40344670e-04
5.54000000e-01	1.36987440e-02	1.41018460e-04
5.55000000e-01	1.37432374e-02	1.41496030e-04
5.56000000e-01	1.36228966e-02	1.39780800e-04
5.57000000e-01	1.37015829e-02	1.40501497e-04
5.58000000e-01	1.36399054e-02	1.40341081e-04
5.59000000e-01	1.36951875e-02	1.40611718e-04
5.60000000e-01	1.36142684e-02	1.40072683e-04
5.61000000e-01	1.35761323e-02	1.39753498e-04
5.62000000e-01	1.37328208e-02	1.40820536e-04
5.63000000e-01	1.36044354e-02	1.40302678e-04
5.64000000e-01	1.36912836e-02	1.40709187e-04
5.65000000e-01	1.35877975e-02	1.39785000e-04
5.66000000e-01	1.36525522e-02	1.40271968e-04
5.67000000e-01	1.36803519e-02	1.41022762e-04
5.68000000e-01	1.37318152e-02	1.41088334e-04
5.69000000e-01	1.35065159e-02	1.38622851e-04
5.70000000e-01	1.35642150e-02	1.39277510e-04
5.71000000e-01	1.35937814e-02	1.39622473e-04
5.72000000e-01	1.35785490e-02	1.39540310e-04
5.73000000e-01	1.34764673e-02	1.39212396e-04
5.74000000e-01	1.36041988e-02	1.39569366e-04
5.75000000e-01	1.35962990e-02	1.40020328e-04
5.76000000e-01	1.34784841e-02	1.38752019e-04
5.77000000e-01	1.33865777e-02	1.37744603e-04
5.78000000e-01	1.34834866e-02	1.38894308e-04
5.79000000e-01	1.34738981e-02	1.39357882e-04
5.80000000e-01	1.34004004e-02	1.38651983e-04
5.81000000e-01	1.34591971e-02	1.38830653e-04
5.82000000e-01	1.35018161e-02	1.39247262e-04
5.83000000e-01	1.34131441e-02	1.38323102e-04
5.84000000e-01	1.33363542e-02	1.37442327e-04
5.85000000e-01	1.35003230e-02	1.39062685e-04
5.86000000e-01	1.34235278e-02	1.37895044e-04
5.87000000e-01	1.32265998e-02	1.36489636e-04
5.88000000e-01	1.32944874e-02	1.37649889e-04
5.89000000e-01	1.33903598e-02	1.38116768e-04
5.90000000e-01	1.32801157e-02	1.37544317e-04
5.91000000e-01	1.33197644e-02	1.38315576e-04
5.92000000e-01	1.33880099e-02	1.38659230e-04
5.93000000e-01	1.33118164e-02	1.37664172e-04
5.94000000e-01	1.33664944e-02	1.38267858e-04
5.95000000e-01	1.33793238e-02	1.38346062e-04
5.96000000e-01	1.32639702e-02	1.37241785e-04
5.97000000e-01	1.33464568e-02	1.38170508e-04
5.98000000e-01	1.33269101e-02	1.37774331e-04
5.99000000e-01	1.32114192e-02	1.36554315e-04
6.00000000e-01	1.32723827e-02	1.37439292e-04
6.01000000e-01	1.31994425e-02	1.36907864e-04
6.02000000e-01	1.31635515e-02	1.36550561e-04
6.03000000e-01	1.32418511e-02	1.37491627e-04
6.04000000e-01	1.31926220e-02	1.36659656e-04
6.05000000e-01	1.30561866e-02	1.35800827e-04
6.06000000e-01	1.31779355e-02	1.36966314e-04
6.07000000e-01	1.32890886e-02	1.37867212e-04
6.08000000e-01	1.30707891e-02	1.35986435e-04
6.09000000e-01	1.31842693e-02	1.36564457e-04
6.10000000e-01	1.31022199e-02	1.36274606e-04
6.11000000e-01	1.31314842e-02	1.36203742e-04
6.12000000e-01	1.31322503e-02	1.35856073e-04
6.13000000e-01	1.31934395e-02	1.37012200e-04
6.14000000e-01	1.32457504e-02	1.37147939e-04
6.15000000e-01	1.31501643e-02	1.36773904e-04
6.16000000e-01	1.29763250e-02	1.35224716e-04
6.17000000e-01	1.31814814e-02	1.37002045e-04
6.18000000e-01	1.31641705e-02	1.36699251e-04
6.19000000e-01	1.30570331e-02	1.35392435e-04
6.20000000e-01	1.31931028e-02	1.36706724e-04
6.21000000e-01	1.31996558e-02	1.36933270e-04
6.22000000e-01	1.32192719e-02	1.36718648e-04
6.23000000e-01	1.30692391e-02	1.35221730e-04
6.24000000e-01	1.30171604e-02	1.34337946e-04
6.25000000e-01	1.30966304e-02	1.35200556e-04
6.26000000e-01	1.30606701e-02	1.34809654e-04
6.27000000e-01	1.30804024e-02	1.35032171e-04
6.28000000e-01	1.30636996e-02	1.34603697e-04
6.29000000e-01	1.31698554e-02	1.35300092e-04
6.30000000e-01	1.29356628e-02	1.34089899e-04
6.31000000e-01	1.29101078e-02	1.33269444e-04
6.32000000e-01	1.30499743e-02	1.34767660e-04
6.33000000e-01	1.30781280e-02	1.34553506e-04
6.34000000e-01	1.30197744e-02	1.37934124e-04
6.35000000e-01	1.30446316e-02	1.41664629e-04
6.36000000e-01	1.29493526e-02	1.43251584e-04
6.37000000e-01	1.31372340e-02	1.48041356e-04
6.38000000e-01	1.30151000e-02	1.48660455e-04
6.39000000e-01	1.31457301e-02	1.51852722e-04
6.40000000e-01	1.29528993e-02	1.51981453e-04
6.41000000e-01	1.30552331e-02	1.53948396e-04
6.42000000e-01	1.31586651e-02	1.57837996e-04
6.43000000e-01	1.30204705e-02	1.55716832e-04
6.44000000e-01	1.31656234e-02	1.51844749e-04
6.45000000e-01	1.31518732e-02	1.49424640e-04
6.46000000e-01	1.30172231e-02	1.46106862e-04
6.47000000e-01	1.30811079e-02	1.45927044e-04
6.48000000e-01	1.30801095e-02	1.44806321e-04
6.49000000e-01	1.30333202e-02	1.43201707e-04
6.50000000e-01	1.30990378e-02	1.43739678e-04
6.51000000e-01	1.29623657e-02	1.41514216e-04
6.52000000e-01	1.27778029e-02	1.39799976e-04
6.53000000e-01	1.30231388e-02	1.40606573e-04
6.54000000e-01	1.29428250e-02	1.40154738e-04
6.55000000e-01	1.31121862e-02	1.41164740e-04
6.56000000e-01	1.30239923e-02	1.40502940e-04
6.57000000e-01	1.28419235e-02	1.38278539e-04
6.58000000e-01	1.29772018e-02	1.39479234e-04
6.59000000e-01	1.29961808e-02	1.39890320e-04
6.60000000e-01	1.27913066e-02	1.37799046e-04
6.61000000e-01	1.29382820e-02	1.38413234e-04
6.62000000e-01	1.28846061e-02	1.38771353e-04
6.63000000e-01	1.29321869e-02	1.39513362e-04
6.64000000e-01	1.29659391e-02	1.38806805e-04
6.65000000e-01	1.28964883e-02	1.38616320e-04
6.66000000e-01	1.28919903e-02	1.38141235e-04
6.67000000e-01	1.29106471e-02	1.37890119e-04
6.68000000e-01	1.28680996e-02	1.38229208e-04
6.69000000e-01	1.29258913e-02	1.38431266e-04
6.70000000e-01	1.27414140e-02	1.36298878e-04
6.71000000e-01	1.28582985e-02	1.37521212e-04
6.72000000e-01	1.28652994e-02	1.37683365e-04
6.73000000e-01	1.28931046e-02	1.37451182e-04
6.74000000e-01	1.27499391e-02	1.36265284e-04
6.75000000e-01	1.27811015e-02	1.36621974e-04
6.76000000e-01	1.27802512e-02	1.36265746e-04
6.77000000e-01	1.27795625e-02	1.36580477e-04
6.78000000e-01	1.28094639e-02	1.36550661e-04
6.79000000e-01	1.27532995e-02	1.36508419e-04
6.80000000e-01	1.27128046e-02	1.35614554e-04
6.81000000e-01	1.28585089e-02	1.37054768e-04
6.82000000e-01	1.26698984e-02	1.35109939e-04
6.83000000e-01	1.27061770e-02	1.35535064e-04
6.84000000e-01	1.25797587e-02	1.34747068e-04
6.85000000e-01	1.26984451e-02	1.35355670e-04
6.86000000e-01	1.27596429e-02	1.36039637e-04
6.87000000e-01	1.28178655e-02	1.36593329e-04
6.88000000e-01	1.27563556e-02	1.35822036e-04
6.89000000e-01	1.27562329e-02	1.35918380e-04
6.90000000e-01	1.26614962e-02	1.34988874e-04
6.91000000e-01	1.25809276e-02	1.34185415e-04
6.92000000e-01	1.27339271e-02	1.35194595e-04
6.93000000e-01	1.27231871e-02	1.35403698e-04
6.94000000e-01	1.27916928e-02	1.36051215e-04
6.95000000e-01	1.27320760e-02	1.35571727e-04
6.96000000e-01	1.27121459e-02	1.35311218e-04
6.97000000e-01	1.27128360e-02	1.34892515e-04
6.98000000e-01	1.26482882e-02	1.35189440e-04
6.99000000e-01	1.25954483e-02	1.34306355e-04
7.00000000e-01	1.26320220e-02	1.34293388e-04
7.01000000e-01	1.26671297e-02	1.34771622e-04
7.02000000e-01	1.27371430e-02	1.35505409e-04
7.03000000e-01	1.25728303e-02	1.33653841e-04
7.04000000e-01	1.25306325e-02	1.33367903e-04
7.05000000e-01	1.25820067e-02	1.33981630e-04
7.06000000e-01	1.25520841e-02	1.33320268e-04
7.07000000e-01	1.26181738e-02	1.34043555e-04
7.08000000e-01	1.25414036e-02	1.33246051e-04
7.09000000e-01	1.24317247e-02	1.32294719e-04
7.10000000e-01	1.25007028e-02	1.32754368e-04
7.11000000e-01	1.24779089e-02	1.33081508e-04
7.12000000e-01	1.23226968e-02	1.31462269e-04
7.13000000e-01	1.23876059e-02	1.31537742e-04
7.14000000e-01	1.23436736e-02	1.31757367e-04
7.15000000e-01	1.22735733e-02	1.30894876e-04
7.16000000e-01	1.22334640e-02	1.30489796e-04
7.17000000e-01	1.25445421e-02	1.33653341e-04
7.18000000e-01	1.24285442e-02	1.32516982e-04
7.19000000e-01	1.23549941e-02	1.31842794e-04
7.20000000e-01	1.22061848e-02	1.30549385e-04
7.21000000e-01	1.22524311e-02	1.31215970e-04
7.22000000e-01	1.23837836e-02	1.31781463e-04
7.23000000e-01	1.23036125e-02	1.31325442e-04
7.24000000e-01	1.22616525e-02	1.31361710e-04
7.25000000e-01	1.22078796e-02	1.30354766e-04
7.26000000e-01	1.23175963e-02	1.31446391e-04
7.27000000e-01	1.24463589e-02	1.31964953e-04
7.28000000e-01	1.22438337e-02	1.30577968e-04
7.29000000e-01	1.22074600e-02	1.30189749e-04
7.30000000e-01	1.23300991e-02	1.31512791e-04
7.31000000e-01	1.22645733e-02	1.30711490e-04
7.32000000e-01	1.20924469e-02	1.29871713e-04
7.33000000e-01	1.21681999e-02	1.30264113e-04
7.34000000e-01	1.21734939e-02	1.29284688e-04
7.35000000e-01	1.21691600e-02	1.29304636e-04
7.36000000e-01	1.21417934e-02	1.29318575e-04
7.37000000e-01	1.21579074e-02	1.29179138e-04
7.38000000e-01	1.21459199e-02	1.29148652e-04
7.39000000e-01	1.22225922e-02	1.29141744e-04
7.40000000e-01	1.21496525e-02	1.28400594e-04
7.41000000e-01	1.21962535e-02	1.28569725e-04
7.42000000e-01	1.22373187e-02	1.28994444e-04
7.43000000e-01	1.21468213e-02	1.28296404e-04
7.44000000e-01	1.20855715e-02	1.27915545e-04
7.45000000e-01	1.21743970e-02	1.28367533e-04
7.46000000e-01	1.20187205e-02	1.26704976e-04
7.47000000e-01	1.20146993e-02	1.27106539e-04
7.48000000e-01	1.20786474e-02	1.27619888e-04
7.49000000e-01	1.20479522e-02	1.27154996e-04
7.50000000e-01	1.19262032e-02	1.26397243e-04
7.51000000e-01	1.20554781e-02	1.26977574e-04
7.52000000e-01	1.21466617e-02	1.28201823e-04
7.53000000e-01	1.20811088e-02	1.27921046e-04
7.54000000e-01	1.19900330e-02	1.27112667e-04
7.55000000e-01	1.19920563e-02	1.27175529e-04
7.56000000e-01	1.20859785e-02	1.27699180e-04
7.57000000e-01	1.19596659e-02	1.26238713e-04
7.58000000e-01	1.18664442e-02	1.25480636e-04
7.59000000e-01	1.19552388e-02	1.25949775e-04
7.60000000e-01	1.20015311e-02	1.26739736e-04
7.61000000e-01	1.18417484e-02	1.24878246e-04
7.62000000e-01	1.20115781e-02	1.26540393e-04
7.63000000e-01	1.18361863e-02	1.25131071e-04
7.64000000e-01	1.19051372e-02	1.25084965e-04
7.65000000e-01	1.18459212e-02	1.24342594e-04
7.66000000e-01	1.18073188e-02	1.24076785e-04
7.67000000e-01	1.18412439e-02	1.24097058e-04
7.68000000e-01	1.18423104e-02	1.23969312e-04
7.69000000e-01	1.18814996e-02	1.24869675e-04
7.70000000e-01	1.18579971e-02	1.24501451e-04
7.71000000e-01	1.18592625e-02	1.24721589e-04
7.72000000e-01	1.18090480e-02	1.27796174e-04
7.73000000e-01	1.17441910e-02	1.31067975e-04
7.74000000e-01	1.19450696e-02	1.36126877e-04
7.75000000e-01	1.18487972e-02	1.37669386e-04
7.76000000e-01	1.17436791e-02	1.38677556e-04
7.77000000e-01	1.18667392e-02	1.41533589e-04
7.78000000e-01	1.17382889e-02	1.42252726e-04
7.79000000e-01	1.17335784e-02	1.43370926e-04
7.80000000e-01	1.17113865e-02	1.45404495e-04
7.81000000e-01	1.17942174e-02	1.46996585e-04
7.82000000e-01	1.14857550e-02	1.45932770e-04
7.83000000e-01	1.17771981e-02	1.50538819e-04
7.84000000e-01	1.16099305e-02	1.50445266e-04
7.85000000e-01	1.17266579e-02	1.53299218e-04
7.86000000e-01	1.16521708e-02	1.54139024e-04
7.87000000e-01	1.16202006e-02	1.54838555e-04
7.88000000e-01	1.16138058e-02	1.57016526e-04
7.89000000e-01	1.15918945e-02	1.58192573e-04
7.90000000e-01	1.14319890e-02	1.57451229e-04
7.91000000e-01	1.16631034e-02	1.62360753e-04
7.92000000e-01	1.16482986e-02	1.62834103e-04
7.93000000e-01	1.14895582e-02	1.63437326e-04
7.94000000e-01	1.17025681e-02	1.66790150e-04
7.95000000e-01	1.14887561e-02	1.67056628e-04
7.96000000e-01	1.13570390e-02	1.66544511e-04
7.97000000e-01	1.12852983e-02	1.68170654e-04
7.98000000e-01	1.15378807e-02	1.71626263e-04
7.99000000e-01	1.14716576e-02	1.72407403e-04
8.00000000e-01	1.13861289e-02	1.73083467e-04
8.01000000e-01	1.12801205e-02	1.74660215e-04
8.02000000e-01	1.17073991e-02	1.81449059e-04
8.03000000e-01	1.15018182e-02	1.81391503e-04
8.04000000e-01	1.14589843e-02	1.82363546e-04
8.05000000e-01	1.15305980e-02	1.84807296e-04
8.06000000e-01	1.17345386e-02	1.89415304e-04
8.07000000e-01	1.12042630e-02	1.84420710e-04
8.08000000e-01	1.13587302e-02	1.89424606e-04
8.09000000e-01	1.13379789e-02	1.89632782e-04
8.10000000e-01	1.13731747e-02	1.93357562e-04
8.11000000e-01	1.13027777e-02	1.94953969e-04
8.12000000e-01	1.11855056e-02	1.94290820e-04
8.13000000e-01	1.13425966e-02	1.99560875e-04
8.14000000e-01	1.13304006e-02	2.00400278e-04
8.15000000e-01	1.11348769e-02	2.00396663e-04
8.16000000e-01	1.14163390e-02	2.09092363e-04
8.17000000e-01	1.12643008e-02	2.07272310e-04
8.18000000e-01	1.11195110e-02	2.08036938e-04
8.19000000e-01	1.14628841e-02	2.16774150e-04
8.20000000e-01	1.12719331e-02	2.16543787e-04
8.21000000e-01	1.12829387e-02	2.19458243e-04
8.22000000e-01	1.10705970e-02	2.17667784e-04
8.23000000e-01	1.11977489e-02	2.22018089e-04
8.24000000e-01	1.11107758e-02	2.24154110e-04
8.25000000e-01	1.12135037e-02	2.30760974e-04
8.26000000e-01	1.09031864e-02	2.28872524e-04
8.27000000e-01	1.10276099e-02	2.32097487e-04
8.28000000e-01	1.11317134e-02	2.39332402e-04
8.29000000e-01	1.11375989e-02	2.43033414e-04
8.30000000e-01	1.12105823e-02	2.45218019e-04
8.31000000e-01	1.08528026e-02	2.43059115e-04
8.32000000e-01	1.10629094e-02	2.52685046e-04
8.33000000e-01	1.08635940e-02	2.51498442e-04
8.34000000e-01	1.09694897e-02	2.60606559e-04
8.35000000e-01	1.10447283e-02	2.66217460e-04
8.36000000e-01	1.08023903e-02	2.65903587e-04
8.37000000e-01	1.08836371e-02	2.72522401e-04
8.38000000e-01	1.12362859e-02	2.84967725e-04
8.39000000e-01	1.07588581e-02	2.81037297e-04
8.40000000e-01	1.11231373e-02	2.96640131e-04
8.41000000e-01	1.09269727e-02	2.98128096e-04
8.42000000e-01	1.10789304e-02	3.07603799e-04
8.43000000e-01	1.09406095e-02	3.12211052e-04
8.44000000e-01	1.09114294e-02	3.16720654e-04
8.45000000e-01	1.07209155e-02	3.22901327e-04
8.46000000e-01	1.08973685e-02	3.36075641e-04
8.47000000e-01	1.15998439e-02	3.60786736e-04
8.48000000e-01	1.06583847e-02	3.48326298e-04
8.49000000e-01	1.05563347e-02	3.55433467e-04
8.50000000e-01	1.06911864e-02	3.73944204e-04
8.51000000e-01	1.05920945e-02	3.81872643e-04
8.52000000e-01	1.06657842e-02	3.98792722e-04
8.53000000e-01	1.10552692e-02	4.28310714e-04
8.54000000e-01	1.07239911e-02	4.45623740e-04
8.55000000e-01	1.08783992e-02	4.61471632e-04
8.56000000e-01	1.07283686e-02	4.69654418e-04
8.57000000e-01	1.07092596e-02	4.75131906e-04
8.58000000e-01	1.06138063e-02	5.01919470e-04
8.59000000e-01	1.03324759e-02	4.89428436e-04
8.60000000e-01	1.06258395e-02	5.25767841e-04
8.61000000e-01	1.05643400e-02	5.31767279e-04
8.62000000e-01	1.04375493e-02	5.58759068e-04
8.63000000e-01	1.03504412e-02	5.70349415e-04
8.64000000e-01	1.11060139e-02	6.36722043e-04
8.65000000e-01	1.05509117e-02	6.36941281e-04
8.66000000e-01	1.12796106e-02	7.03302839e-04
8.67000000e-01	1.01491228e-02	6.85784832e-04
8.68000000e-01	1.03869138e-02	7.45079053e-04
8.69000000e-01	1.10432683e-02	8.54294858e-04
8.70000000e-01	1.13923132e-02	9.37518983e-04
8.71000000e-01	1.08010799e-02	9.59474477e-04
8.72000000e-01	1.12299536e-02	1.17283235e-03
8.73000000e-01	1.05537037e-02	1.22550232e-03
8.74000000e-01	1.25995203e-02	2.02516244e-03
8.75000000e-01	1.10843029e-02	3.41055700e-03
