% Filename : SDL1_00022_00035.h5
% Date & Time : 30-Oct-2025 16:49:53
% X-ray Energy (keV) : 13.30001
% Exposure Time (s) : 0.500
% Beam Center : 1461.24000, 208.98300
% Sample to Detector Distance (SDD) (mm) : 1990.750
% Detector Pixel Size (mm) : 0.075
% Photodiode Value : 141026.000
% I0 of Sample : 0
% I0 of Standard : 1
% 
% q(A^-1)   I(q)    I(q)_SE
0.00000000e+00	7.68653219e-03	4.05115286e-03
2.50000000e-04	0.00000000e+00	0.00000000e+00
5.00000000e-04	0.00000000e+00	0.00000000e+00
7.50000000e-04	0.00000000e+00	0.00000000e+00
1.00000000e-03	0.00000000e+00	0.00000000e+00
1.25000000e-03	0.00000000e+00	0.00000000e+00
1.50000000e-03	0.00000000e+00	0.00000000e+00
1.75000000e-03	0.00000000e+00	0.00000000e+00
2.00000000e-03	0.00000000e+00	0.00000000e+00
2.25000000e-03	0.00000000e+00	0.00000000e+00
2.50000000e-03	0.00000000e+00	0.00000000e+00
2.75000000e-03	0.00000000e+00	0.00000000e+00
3.00000000e-03	0.00000000e+00	0.00000000e+00
3.25000000e-03	6.49620786e+02	4.01590731e+02
3.50000000e-03	1.75086711e+02	6.73591659e+01
3.75000000e-03	1.08623876e+02	3.97150307e+01
4.00000000e-03	1.00677630e+02	3.46338440e+01
4.25000000e-03	6.08103795e+01	2.14735888e+01
4.50000000e-03	5.84190552e+01	1.50264916e+01
4.75000000e-03	6.10698452e+01	1.37920065e+01
5.00000000e-03	4.57846613e+01	1.01104513e+01
5.25000000e-03	3.97804201e+01	9.33616628e+00
5.50000000e-03	3.27718614e+01	7.71887762e+00
5.75000000e-03	2.66645554e+01	5.66014839e+00
6.00000000e-03	2.16193850e+01	4.52197784e+00
6.25000000e-03	1.85382540e+01	3.67293163e+00
6.50000000e-03	1.59659367e+01	3.09956613e+00
6.75000000e-03	1.41657455e+01	2.73720022e+00
7.00000000e-03	1.23866482e+01	2.31552413e+00
7.25000000e-03	9.99411505e+00	1.81131182e+00
7.50000000e-03	8.22655934e+00	1.43147092e+00
7.75000000e-03	7.58269826e+00	1.29598379e+00
8.00000000e-03	7.17475478e+00	1.23525221e+00
8.25000000e-03	5.93415335e+00	9.09662974e-01
8.50000000e-03	5.30886964e+00	8.14409840e-01
8.75000000e-03	4.74389178e+00	7.09404766e-01
9.00000000e-03	4.57273839e+00	7.48869560e-01
9.25000000e-03	3.99664148e+00	5.97905698e-01
9.50000000e-03	3.63290714e+00	5.42556550e-01
9.75000000e-03	3.17895463e+00	4.34873126e-01
1.00000000e-02	2.66014821e+00	3.29839305e-01
1.02500000e-02	2.58127866e+00	3.37835375e-01
1.05000000e-02	2.33162333e+00	2.92456851e-01
1.07500000e-02	2.23574538e+00	3.01934774e-01
1.10000000e-02	1.96044873e+00	2.44618128e-01
1.12500000e-02	1.93084315e+00	2.64162386e-01
1.15000000e-02	1.76887735e+00	2.31307862e-01
1.17500000e-02	1.52592475e+00	1.72554535e-01
1.20000000e-02	1.44289355e+00	1.65424570e-01
1.22500000e-02	1.32751029e+00	1.54401599e-01
1.25000000e-02	1.23329705e+00	1.35146301e-01
1.27500000e-02	1.12535316e+00	1.14628613e-01
1.30000000e-02	1.04535523e+00	1.00708003e-01
1.32500000e-02	1.00989587e+00	1.01620133e-01
1.35000000e-02	9.59198033e-01	9.18893139e-02
1.37500000e-02	8.88709410e-01	8.43778617e-02
1.40000000e-02	8.24574828e-01	8.05759282e-02
1.42500000e-02	7.69023063e-01	7.10659035e-02
1.45000000e-02	7.26964977e-01	6.49743278e-02
1.47500000e-02	6.69096531e-01	5.76691448e-02
1.50000000e-02	6.28068204e-01	5.32460668e-02
1.52500000e-02	6.09901342e-01	5.27970654e-02
1.55000000e-02	5.64316534e-01	4.63788212e-02
1.57500000e-02	5.26986531e-01	4.30492304e-02
1.60000000e-02	4.95941567e-01	3.96996569e-02
1.62500000e-02	4.84945542e-01	3.84324618e-02
1.65000000e-02	4.41989077e-01	3.38362570e-02
1.67500000e-02	4.27526450e-01	3.20352379e-02
1.70000000e-02	4.06314125e-01	3.07835150e-02
1.72500000e-02	3.85174630e-01	2.89390963e-02
1.75000000e-02	3.62871282e-01	2.64991592e-02
1.77500000e-02	3.46547750e-01	2.45217850e-02
1.80000000e-02	3.30539929e-01	2.33964555e-02
1.82500000e-02	3.11796226e-01	2.10520938e-02
1.85000000e-02	2.99948159e-01	2.12187334e-02
1.87500000e-02	2.85776647e-01	1.89806303e-02
1.90000000e-02	2.70053079e-01	1.81320511e-02
1.92500000e-02	2.61791559e-01	1.77224224e-02
1.95000000e-02	2.42313984e-01	1.56074308e-02
1.97500000e-02	2.37775926e-01	1.56224558e-02
2.00000000e-02	2.21314899e-01	1.39061378e-02
2.02500000e-02	2.10000109e-01	1.29899782e-02
2.05000000e-02	2.06376512e-01	1.28161053e-02
2.07500000e-02	1.97058986e-01	1.20226982e-02
2.10000000e-02	1.87317018e-01	1.15156956e-02
2.12500000e-02	1.85569870e-01	1.14201836e-02
2.15000000e-02	1.75504655e-01	1.05268048e-02
2.17500000e-02	1.71207936e-01	1.02697911e-02
2.20000000e-02	1.65572754e-01	9.95434703e-03
2.22500000e-02	1.61025991e-01	9.46804436e-03
2.25000000e-02	1.53654954e-01	9.00602582e-03
2.27500000e-02	1.47750960e-01	8.77021208e-03
2.30000000e-02	1.48582506e-01	8.73933283e-03
2.32500000e-02	1.38431616e-01	8.05565684e-03
2.35000000e-02	1.33949102e-01	7.77410565e-03
2.37500000e-02	1.30884006e-01	7.47558074e-03
2.40000000e-02	1.27995543e-01	7.53457410e-03
2.42500000e-02	1.27071512e-01	7.33631861e-03
2.45000000e-02	1.18009116e-01	6.72210742e-03
2.47500000e-02	1.14246112e-01	6.30727029e-03
2.50000000e-02	1.09533542e-01	6.27174805e-03
2.52500000e-02	1.07366876e-01	6.10939433e-03
2.55000000e-02	1.06097622e-01	5.84604398e-03
2.57500000e-02	1.02754472e-01	5.61801419e-03
2.60000000e-02	9.91069309e-02	5.32069732e-03
2.62500000e-02	9.62900730e-02	5.27542964e-03
2.65000000e-02	9.36649524e-02	5.12437833e-03
2.67500000e-02	9.27589744e-02	5.02847581e-03
2.70000000e-02	8.94710600e-02	4.83988235e-03
2.72500000e-02	8.79663122e-02	4.68535452e-03
2.75000000e-02	8.52229612e-02	4.67457521e-03
2.77500000e-02	8.27481850e-02	4.44977574e-03
2.80000000e-02	8.08099257e-02	4.24154187e-03
2.82500000e-02	7.88037085e-02	4.13832468e-03
2.85000000e-02	7.56484105e-02	3.90164252e-03
2.87500000e-02	7.49885165e-02	3.92391565e-03
2.90000000e-02	7.25243661e-02	3.78801985e-03
2.92500000e-02	7.20282020e-02	3.62313149e-03
2.95000000e-02	7.15430138e-02	3.72076056e-03
2.97500000e-02	6.94605353e-02	3.50709217e-03
3.00000000e-02	6.83607100e-02	3.48088022e-03
3.02500000e-02	6.76811520e-02	3.41829615e-03
3.05000000e-02	6.37554475e-02	3.12041825e-03
3.07500000e-02	6.31174701e-02	3.16148825e-03
3.10000000e-02	6.21891837e-02	3.05486631e-03
3.12500000e-02	6.25485291e-02	3.12739843e-03
3.15000000e-02	5.94610737e-02	2.93798778e-03
3.17500000e-02	5.83808288e-02	2.79297918e-03
3.20000000e-02	5.79920772e-02	2.82700060e-03
3.22500000e-02	5.62618078e-02	2.74284477e-03
3.25000000e-02	5.57154569e-02	2.72820961e-03
3.27500000e-02	5.47359186e-02	2.63893336e-03
3.30000000e-02	5.34918103e-02	2.56171588e-03
3.32500000e-02	5.19121792e-02	2.44923020e-03
3.35000000e-02	5.29796317e-02	2.56941117e-03
3.37500000e-02	5.15999825e-02	2.45487836e-03
3.40000000e-02	4.98477220e-02	2.37284158e-03
3.42500000e-02	4.97907706e-02	2.34222955e-03
3.45000000e-02	4.78257331e-02	2.25316241e-03
3.47500000e-02	4.88590629e-02	2.34024511e-03
3.50000000e-02	4.67065418e-02	2.19562883e-03
3.52500000e-02	4.66869365e-02	2.17468141e-03
3.55000000e-02	4.46762111e-02	2.08168162e-03
3.57500000e-02	4.51592239e-02	2.09922231e-03
3.60000000e-02	4.44786201e-02	2.07132494e-03
3.62500000e-02	4.25929605e-02	1.98786468e-03
3.65000000e-02	4.24585228e-02	1.95017991e-03
3.67500000e-02	4.31026401e-02	1.95989568e-03
3.70000000e-02	4.15142614e-02	1.88940116e-03
3.72500000e-02	4.18973110e-02	1.87668119e-03
3.75000000e-02	4.01081069e-02	1.84049587e-03
3.77500000e-02	4.03886017e-02	1.86325599e-03
3.80000000e-02	3.97283374e-02	1.78067828e-03
3.82500000e-02	3.89271017e-02	1.75918313e-03
3.85000000e-02	3.77932416e-02	1.69794259e-03
3.87500000e-02	3.68110694e-02	1.64167669e-03
3.90000000e-02	3.76827948e-02	1.68833997e-03
3.92500000e-02	3.60960790e-02	1.59799318e-03
3.95000000e-02	3.64138317e-02	1.61996214e-03
3.97500000e-02	3.62161335e-02	1.61083817e-03
4.00000000e-02	3.50738398e-02	1.54675965e-03
4.02500000e-02	3.55539563e-02	1.56180530e-03
4.05000000e-02	3.49806486e-02	1.52840483e-03
4.07500000e-02	3.52443405e-02	1.52431215e-03
4.10000000e-02	3.43821369e-02	1.51537574e-03
4.12500000e-02	3.36747100e-02	1.44901957e-03
4.15000000e-02	3.36811456e-02	1.44097628e-03
4.17500000e-02	3.33902825e-02	1.43416873e-03
4.20000000e-02	3.41601899e-02	1.45521458e-03
4.22500000e-02	3.19769734e-02	1.36647203e-03
4.25000000e-02	3.28976622e-02	1.39748987e-03
4.27500000e-02	3.20136362e-02	1.35675249e-03
4.30000000e-02	3.23252245e-02	1.36983057e-03
4.32500000e-02	3.15434068e-02	1.33212004e-03
4.35000000e-02	3.12151286e-02	1.32001997e-03
4.37500000e-02	3.07326434e-02	1.28424810e-03
4.40000000e-02	3.10648840e-02	1.31591951e-03
4.42500000e-02	3.04804141e-02	1.28343326e-03
4.45000000e-02	2.97649183e-02	1.24792272e-03
4.47500000e-02	3.01185792e-02	1.26485336e-03
4.50000000e-02	3.07032111e-02	1.27715932e-03
4.52500000e-02	2.98509796e-02	1.24114420e-03
4.55000000e-02	2.95307213e-02	1.22974520e-03
4.57500000e-02	2.81642998e-02	1.15532507e-03
4.60000000e-02	2.88639910e-02	1.19909056e-03
4.62500000e-02	2.87265841e-02	1.17680116e-03
4.65000000e-02	2.84627685e-02	1.16120557e-03
4.67500000e-02	2.83255524e-02	1.14790417e-03
4.70000000e-02	2.82690998e-02	1.15345381e-03
4.72500000e-02	2.85548349e-02	1.16437337e-03
4.75000000e-02	2.76783970e-02	1.13438639e-03
4.77500000e-02	2.77525207e-02	1.11801018e-03
4.80000000e-02	2.69357625e-02	1.08543932e-03
4.82500000e-02	2.76756938e-02	1.11620608e-03
4.85000000e-02	2.71671911e-02	1.11023090e-03
4.87500000e-02	2.71634705e-02	1.09319038e-03
4.90000000e-02	2.71954002e-02	1.08419796e-03
4.92500000e-02	2.69668343e-02	1.07533017e-03
4.95000000e-02	2.64789826e-02	1.05911808e-03
4.97500000e-02	2.72122647e-02	1.10356175e-03
5.00000000e-02	2.66707926e-02	1.06301898e-03
5.02500000e-02	2.59206687e-02	1.01847899e-03
5.05000000e-02	2.65636495e-02	1.05888716e-03
5.07500000e-02	2.59614296e-02	1.02472334e-03
5.10000000e-02	2.56477047e-02	1.01672382e-03
5.12500000e-02	2.55409838e-02	1.02529850e-03
5.15000000e-02	2.62024767e-02	1.03060313e-03
5.17500000e-02	2.55035026e-02	1.00717822e-03
5.20000000e-02	2.58028430e-02	1.00709252e-03
5.22500000e-02	2.49118023e-02	9.83393821e-04
5.25000000e-02	2.50995843e-02	9.72362175e-04
5.27500000e-02	2.47596208e-02	9.67816461e-04
5.30000000e-02	2.58081641e-02	1.01181812e-03
5.32500000e-02	2.44197121e-02	9.54099556e-04
5.35000000e-02	2.52352731e-02	9.77576172e-04
5.37500000e-02	2.51645610e-02	9.72763317e-04
5.40000000e-02	2.49451864e-02	9.66722091e-04
5.42500000e-02	2.42447433e-02	9.38037103e-04
5.45000000e-02	2.38465725e-02	9.16125713e-04
5.47500000e-02	2.49758520e-02	9.57174213e-04
5.50000000e-02	2.41250134e-02	9.25272296e-04
5.52500000e-02	2.44625655e-02	9.32486936e-04
5.55000000e-02	2.45255533e-02	9.32994266e-04
5.57500000e-02	2.45195422e-02	9.34838458e-04
5.60000000e-02	2.35737897e-02	8.96877738e-04
5.62500000e-02	2.40887172e-02	9.21707744e-04
5.65000000e-02	2.34239367e-02	8.86063745e-04
5.67500000e-02	2.38953521e-02	9.09166460e-04
5.70000000e-02	2.37329613e-02	8.94536716e-04
5.72500000e-02	2.36936305e-02	8.96930299e-04
5.75000000e-02	2.31237933e-02	8.72445524e-04
5.77500000e-02	2.34058139e-02	8.69335771e-04
5.80000000e-02	2.30795831e-02	8.74290677e-04
5.82500000e-02	2.36844819e-02	8.83214251e-04
5.85000000e-02	2.33587941e-02	8.74539435e-04
5.87500000e-02	2.30674936e-02	8.53654398e-04
5.90000000e-02	2.40159343e-02	8.97228826e-04
5.92500000e-02	2.34219440e-02	8.71784903e-04
5.95000000e-02	2.30240057e-02	8.53712933e-04
5.97500000e-02	2.27081153e-02	8.49265669e-04
6.00000000e-02	2.37570156e-02	8.74921489e-04
6.02500000e-02	2.29938151e-02	8.49780705e-04
6.05000000e-02	2.30303937e-02	8.56970132e-04
6.07500000e-02	2.28013349e-02	8.42796822e-04
6.10000000e-02	2.27795811e-02	8.40242290e-04
6.12500000e-02	2.21712639e-02	8.16576851e-04
6.15000000e-02	2.29740535e-02	8.38722343e-04
6.17500000e-02	2.24978988e-02	8.29302984e-04
6.20000000e-02	2.28302961e-02	8.37763157e-04
6.22500000e-02	2.25983738e-02	8.22809316e-04
6.25000000e-02	2.25493768e-02	8.25697883e-04
6.27500000e-02	2.25537657e-02	8.15587738e-04
6.30000000e-02	2.21496842e-02	8.06863248e-04
6.32500000e-02	2.28084150e-02	8.34007978e-04
6.35000000e-02	2.23855778e-02	8.14887103e-04
6.37500000e-02	2.18230769e-02	7.98235573e-04
6.40000000e-02	2.16765339e-02	7.93236575e-04
6.42500000e-02	2.19180256e-02	7.95385843e-04
6.45000000e-02	2.24007352e-02	8.10762429e-04
6.47500000e-02	2.17308573e-02	7.80286478e-04
6.50000000e-02	2.23271281e-02	8.07348618e-04
6.52500000e-02	2.20824942e-02	7.85033836e-04
6.55000000e-02	2.22018549e-02	7.89974472e-04
6.57500000e-02	2.21092645e-02	7.91477562e-04
6.60000000e-02	2.15935350e-02	7.75788156e-04
6.62500000e-02	2.23810410e-02	7.94771773e-04
6.65000000e-02	2.16774285e-02	7.68611234e-04
6.67500000e-02	2.14605251e-02	7.62114575e-04
6.70000000e-02	2.23024770e-02	7.89680279e-04
6.72500000e-02	2.18544841e-02	7.75442193e-04
6.75000000e-02	2.17308102e-02	7.66070151e-04
6.77500000e-02	2.19912047e-02	7.73584874e-04
6.80000000e-02	2.13027970e-02	7.55340874e-04
6.82500000e-02	2.13625426e-02	7.59497795e-04
6.85000000e-02	2.13787818e-02	7.55563077e-04
6.87500000e-02	2.14448145e-02	7.50730773e-04
6.90000000e-02	2.13471270e-02	7.57921851e-04
6.92500000e-02	2.12568444e-02	7.41855954e-04
6.95000000e-02	2.12782507e-02	7.47056988e-04
6.97500000e-02	2.10068529e-02	7.35217487e-04
7.00000000e-02	2.11465985e-02	7.37553453e-04
7.02500000e-02	2.06685744e-02	7.20441139e-04
7.05000000e-02	2.14358783e-02	7.42299366e-04
7.07500000e-02	2.18181149e-02	7.55494608e-04
7.10000000e-02	2.17168360e-02	7.51715006e-04
7.12500000e-02	2.15927719e-02	7.42111207e-04
7.15000000e-02	2.15869819e-02	7.42669688e-04
7.17500000e-02	2.12517166e-02	7.39909009e-04
7.20000000e-02	2.09331698e-02	7.24743178e-04
7.22500000e-02	2.16764627e-02	7.43241112e-04
7.25000000e-02	2.10719837e-02	7.29634984e-04
7.27500000e-02	2.17814399e-02	7.47798157e-04
7.30000000e-02	2.12944535e-02	7.28554805e-04
7.32500000e-02	2.13932668e-02	7.27588666e-04
7.35000000e-02	2.14113413e-02	7.36169525e-04
7.37500000e-02	2.08183363e-02	7.11724422e-04
7.40000000e-02	2.16136530e-02	7.33920462e-04
7.42500000e-02	2.08082142e-02	7.11534007e-04
7.45000000e-02	2.04109433e-02	7.01206772e-04
7.47500000e-02	2.14168345e-02	7.30412597e-04
7.50000000e-02	2.08146279e-02	7.05289668e-04
7.52500000e-02	2.11058648e-02	7.13887283e-04
7.55000000e-02	2.08345757e-02	6.99366875e-04
7.57500000e-02	2.10390156e-02	7.13846117e-04
7.60000000e-02	2.15106874e-02	7.26310892e-04
7.62500000e-02	2.12434300e-02	7.21666902e-04
7.65000000e-02	2.07364392e-02	6.99438850e-04
7.67500000e-02	2.07732630e-02	6.95134987e-04
7.70000000e-02	2.12658949e-02	7.04709272e-04
7.72500000e-02	2.09530681e-02	7.17170227e-04
7.75000000e-02	2.08465318e-02	7.18519618e-04
7.77500000e-02	2.13827595e-02	7.36424568e-04
7.80000000e-02	2.12743774e-02	7.36217031e-04
7.82500000e-02	2.11505320e-02	7.34735989e-04
7.85000000e-02	2.03677186e-02	7.21418318e-04
7.87500000e-02	2.10820648e-02	7.36899239e-04
7.90000000e-02	2.10946954e-02	7.39500802e-04
7.92500000e-02	2.11838829e-02	7.52771686e-04
7.95000000e-02	2.01958836e-02	7.19040950e-04
7.97500000e-02	2.07022859e-02	7.37441718e-04
8.00000000e-02	2.05185595e-02	7.40748219e-04
8.02500000e-02	2.09304792e-02	7.50085064e-04
8.05000000e-02	2.05874179e-02	7.29760712e-04
8.07500000e-02	2.08477273e-02	7.49016324e-04
8.10000000e-02	2.07232983e-02	7.43810663e-04
8.12500000e-02	2.09516400e-02	7.60381463e-04
8.15000000e-02	2.06482611e-02	7.40797511e-04
8.17500000e-02	2.11789359e-02	7.67690551e-04
8.20000000e-02	2.05425788e-02	7.47934168e-04
8.22500000e-02	2.03433847e-02	7.45545885e-04
8.25000000e-02	2.07968857e-02	7.55744800e-04
8.27500000e-02	2.08605202e-02	7.56308710e-04
8.30000000e-02	2.07494018e-02	7.57865878e-04
8.32500000e-02	2.11822027e-02	7.78142740e-04
8.35000000e-02	2.07308363e-02	7.55586638e-04
8.37500000e-02	2.12334211e-02	7.67599042e-04
8.40000000e-02	2.12038063e-02	7.73259781e-04
8.42500000e-02	2.07649072e-02	7.62647911e-04
8.45000000e-02	2.09592636e-02	7.67551254e-04
8.47500000e-02	2.12963506e-02	7.89683441e-04
8.50000000e-02	2.06365444e-02	7.54574711e-04
8.52500000e-02	2.07596278e-02	7.67655178e-04
8.55000000e-02	2.10703990e-02	7.79161092e-04
8.57500000e-02	2.06102450e-02	7.63149611e-04
8.60000000e-02	2.08984559e-02	7.75578704e-04
8.62500000e-02	2.12458942e-02	7.80081145e-04
8.65000000e-02	2.06233468e-02	7.63126235e-04
8.67500000e-02	2.06977081e-02	7.58597300e-04
8.70000000e-02	1.97076465e-02	7.15742356e-04
8.72500000e-02	2.02951040e-02	7.26202473e-04
8.75000000e-02	2.02689611e-02	7.14217533e-04
8.77500000e-02	2.02999845e-02	7.09025800e-04
8.80000000e-02	2.06182203e-02	7.24116729e-04
8.82500000e-02	2.07668538e-02	7.19040873e-04
8.85000000e-02	2.05760031e-02	7.16421920e-04
8.87500000e-02	2.08137112e-02	7.09954904e-04
8.90000000e-02	2.07231918e-02	7.11831726e-04
8.92500000e-02	2.07053607e-02	7.06467625e-04
8.95000000e-02	2.03677284e-02	6.96855769e-04
8.97500000e-02	2.12078809e-02	7.14215104e-04
9.00000000e-02	1.99704643e-02	6.74872889e-04
9.02500000e-02	2.01874788e-02	6.82179698e-04
9.05000000e-02	2.09117620e-02	7.07621335e-04
9.07500000e-02	2.06695536e-02	6.96279895e-04
9.10000000e-02	2.08286181e-02	6.98728004e-04
9.12500000e-02	2.03485173e-02	6.81419755e-04
9.15000000e-02	2.00564424e-02	6.66997812e-04
9.17500000e-02	1.97543229e-02	6.68595670e-04
9.20000000e-02	2.02251502e-02	6.77124321e-04
9.22500000e-02	2.01969755e-02	6.74074617e-04
9.25000000e-02	2.07005438e-02	6.83124502e-04
9.27500000e-02	2.05390639e-02	6.79717521e-04
9.30000000e-02	2.07337746e-02	6.86882356e-04
9.32500000e-02	2.08111437e-02	6.87124526e-04
9.35000000e-02	2.02011011e-02	6.63046635e-04
9.37500000e-02	2.09569489e-02	6.81740740e-04
9.40000000e-02	2.00110102e-02	6.59326004e-04
9.42500000e-02	2.08906003e-02	6.80226535e-04
9.45000000e-02	2.04622965e-02	6.68489565e-04
9.47500000e-02	2.02582916e-02	6.62880512e-04
9.50000000e-02	2.00867880e-02	6.50697729e-04
9.52500000e-02	2.04203764e-02	6.62801500e-04
9.55000000e-02	2.08748734e-02	6.76590334e-04
9.57500000e-02	2.00611303e-02	6.51451030e-04
9.60000000e-02	2.04571829e-02	6.62013634e-04
9.62500000e-02	2.03019596e-02	6.48473669e-04
9.65000000e-02	2.06039538e-02	6.64419332e-04
9.67500000e-02	2.05751919e-02	6.60626933e-04
9.70000000e-02	2.00309845e-02	6.48587506e-04
9.72500000e-02	2.00636640e-02	6.46069851e-04
9.75000000e-02	2.02450057e-02	6.51450210e-04
9.77500000e-02	2.02320172e-02	6.42890483e-04
9.80000000e-02	1.99817013e-02	6.39563762e-04
9.82500000e-02	2.04504942e-02	6.46839002e-04
9.85000000e-02	2.02200053e-02	6.45385426e-04
9.87500000e-02	2.01469962e-02	6.42868458e-04
9.90000000e-02	1.94436267e-02	6.17694897e-04
9.92500000e-02	2.00626120e-02	6.37292457e-04
9.95000000e-02	2.02856580e-02	6.38220527e-04
9.97500000e-02	2.00777506e-02	6.33343298e-04
1.00000000e-01	2.02646766e-02	5.19712282e-04
1.00500000e-01	2.01891995e-02	4.51775914e-04
1.01000000e-01	2.02034431e-02	4.48101543e-04
1.01500000e-01	2.00647224e-02	4.45821526e-04
1.02000000e-01	1.99148581e-02	4.38147787e-04
1.02500000e-01	2.05065097e-02	4.47768243e-04
1.03000000e-01	2.01539562e-02	4.42372395e-04
1.03500000e-01	2.00726000e-02	4.39631701e-04
1.04000000e-01	1.96530435e-02	4.30041166e-04
1.04500000e-01	2.00832998e-02	4.36470246e-04
1.05000000e-01	2.00673273e-02	4.33109145e-04
1.05500000e-01	2.01512884e-02	4.35956026e-04
1.06000000e-01	2.00743741e-02	4.31990321e-04
1.06500000e-01	2.01698801e-02	4.32936546e-04
1.07000000e-01	2.01125900e-02	4.38539163e-04
1.07500000e-01	1.99205784e-02	4.43382916e-04
1.08000000e-01	1.97953704e-02	4.43348182e-04
1.08500000e-01	2.00095035e-02	4.49866234e-04
1.09000000e-01	2.01592407e-02	4.56265570e-04
1.09500000e-01	1.99520844e-02	4.53900728e-04
1.10000000e-01	1.97206838e-02	4.42025847e-04
1.10500000e-01	1.98109204e-02	4.37747171e-04
1.11000000e-01	1.98525480e-02	4.31682914e-04
1.11500000e-01	1.99991423e-02	4.31144007e-04
1.12000000e-01	2.02903895e-02	4.32916493e-04
1.12500000e-01	2.03025506e-02	4.28819573e-04
1.13000000e-01	1.98360287e-02	4.20296057e-04
1.13500000e-01	1.98177025e-02	4.21235655e-04
1.14000000e-01	1.96892816e-02	4.13867888e-04
1.14500000e-01	1.98024950e-02	4.14781777e-04
1.15000000e-01	1.99332729e-02	4.15333394e-04
1.15500000e-01	1.99228463e-02	4.14961178e-04
1.16000000e-01	1.99648038e-02	4.13785496e-04
1.16500000e-01	2.01607292e-02	4.17828782e-04
1.17000000e-01	1.98864909e-02	4.12259855e-04
1.17500000e-01	2.01538514e-02	4.14278993e-04
1.18000000e-01	1.99502252e-02	4.13155057e-04
1.18500000e-01	1.98588211e-02	4.09131784e-04
1.19000000e-01	1.98102792e-02	4.05202275e-04
1.19500000e-01	1.98000535e-02	4.03237115e-04
1.20000000e-01	2.01714626e-02	4.10193675e-04
1.20500000e-01	1.97936884e-02	4.02578939e-04
1.21000000e-01	1.97403847e-02	4.00506571e-04
1.21500000e-01	1.99097008e-02	4.03606076e-04
1.22000000e-01	2.00063233e-02	4.03006153e-04
1.22500000e-01	2.01665517e-02	4.07241022e-04
1.23000000e-01	1.97110548e-02	3.96461446e-04
1.23500000e-01	1.95352424e-02	3.92290912e-04
1.24000000e-01	1.95424674e-02	3.92638461e-04
1.24500000e-01	1.98715942e-02	3.94823307e-04
1.25000000e-01	1.99239797e-02	3.96892277e-04
1.25500000e-01	1.99860129e-02	3.97189472e-04
1.26000000e-01	2.02269148e-02	4.01885849e-04
1.26500000e-01	1.98892171e-02	3.92608159e-04
1.27000000e-01	1.94880717e-02	3.84887442e-04
1.27500000e-01	1.99057542e-02	3.93791779e-04
1.28000000e-01	1.98177377e-02	3.89390764e-04
1.28500000e-01	1.98020347e-02	3.89446679e-04
1.29000000e-01	1.96247350e-02	3.84181576e-04
1.29500000e-01	2.00174928e-02	3.92250955e-04
1.30000000e-01	2.00540440e-02	3.90208280e-04
1.30500000e-01	1.98645983e-02	3.88457894e-04
1.31000000e-01	1.99074822e-02	3.86757042e-04
1.31500000e-01	1.96791179e-02	3.82901199e-04
1.32000000e-01	1.98902762e-02	3.86259081e-04
1.32500000e-01	2.01214032e-02	3.86632767e-04
1.33000000e-01	2.01166727e-02	3.88265836e-04
1.33500000e-01	1.97354041e-02	3.78368345e-04
1.34000000e-01	1.99264612e-02	3.82350708e-04
1.34500000e-01	1.99708021e-02	3.81128304e-04
1.35000000e-01	1.98625809e-02	3.79293503e-04
1.35500000e-01	1.97680768e-02	3.76482861e-04
1.36000000e-01	1.98315132e-02	3.76209972e-04
1.36500000e-01	1.98287434e-02	3.77427166e-04
1.37000000e-01	1.97902069e-02	3.74457191e-04
1.37500000e-01	2.01153840e-02	3.79921074e-04
1.38000000e-01	1.97678198e-02	3.74269693e-04
1.38500000e-01	1.95177799e-02	3.68504305e-04
1.39000000e-01	1.95951460e-02	3.69890231e-04
1.39500000e-01	1.96713361e-02	3.70774506e-04
1.40000000e-01	1.97633713e-02	3.72676922e-04
1.40500000e-01	1.92699533e-02	3.63111435e-04
1.41000000e-01	1.97380065e-02	3.68251614e-04
1.41500000e-01	1.99014228e-02	3.71957336e-04
1.42000000e-01	1.95636102e-02	3.66607276e-04
1.42500000e-01	1.95421850e-02	3.65411973e-04
1.43000000e-01	1.96020009e-02	3.65014635e-04
1.43500000e-01	1.94265022e-02	3.62673677e-04
1.44000000e-01	1.97761947e-02	3.67157793e-04
1.44500000e-01	1.96330126e-02	3.62254892e-04
1.45000000e-01	1.93501079e-02	3.58632757e-04
1.45500000e-01	1.97235078e-02	3.64845750e-04
1.46000000e-01	1.93436045e-02	3.58184571e-04
1.46500000e-01	1.94788178e-02	3.58573482e-04
1.47000000e-01	1.95431558e-02	3.59294370e-04
1.47500000e-01	1.92687530e-02	3.55281172e-04
1.48000000e-01	1.95719960e-02	3.59115583e-04
1.48500000e-01	1.96189110e-02	3.60259150e-04
1.49000000e-01	1.96278271e-02	3.58034703e-04
1.49500000e-01	1.94763736e-02	3.57279549e-04
1.50000000e-01	1.96174156e-02	3.56135466e-04
1.50500000e-01	1.94605687e-02	3.55230398e-04
1.51000000e-01	1.99946346e-02	3.63496319e-04
1.51500000e-01	1.93989610e-02	3.50414807e-04
1.52000000e-01	1.94814616e-02	3.51230066e-04
1.52500000e-01	1.94117288e-02	3.48752070e-04
1.53000000e-01	1.94904480e-02	3.49195376e-04
1.53500000e-01	1.94465319e-02	3.48334631e-04
1.54000000e-01	1.92933268e-02	3.47655042e-04
1.54500000e-01	1.92100317e-02	3.50474026e-04
1.55000000e-01	1.93616129e-02	3.56685582e-04
1.55500000e-01	1.92842203e-02	3.59650559e-04
1.56000000e-01	1.89286673e-02	3.55753381e-04
1.56500000e-01	1.94752008e-02	3.64413505e-04
1.57000000e-01	1.94162447e-02	3.63364699e-04
1.57500000e-01	1.91874741e-02	3.53151596e-04
1.58000000e-01	1.94773871e-02	3.52112377e-04
1.58500000e-01	1.94599363e-02	3.49514623e-04
1.59000000e-01	1.90623698e-02	3.41859449e-04
1.59500000e-01	1.90778610e-02	3.41674376e-04
1.60000000e-01	1.92130012e-02	3.42757894e-04
1.60500000e-01	1.91267184e-02	3.39402376e-04
1.61000000e-01	1.91474600e-02	3.41603609e-04
1.61500000e-01	1.94329504e-02	3.43062127e-04
1.62000000e-01	1.93213634e-02	3.40489010e-04
1.62500000e-01	1.92376232e-02	3.40328580e-04
1.63000000e-01	1.90177342e-02	3.35190973e-04
1.63500000e-01	1.91134065e-02	3.38662721e-04
1.64000000e-01	1.90041343e-02	3.33703979e-04
1.64500000e-01	1.89755681e-02	3.34325818e-04
1.65000000e-01	1.92181152e-02	3.35920251e-04
1.65500000e-01	1.91085335e-02	3.36362012e-04
1.66000000e-01	1.90152225e-02	3.32893467e-04
1.66500000e-01	1.91637870e-02	3.33700071e-04
1.67000000e-01	1.90785880e-02	3.34496451e-04
1.67500000e-01	1.90069710e-02	3.30862343e-04
1.68000000e-01	1.87325455e-02	3.26632163e-04
1.68500000e-01	1.90630855e-02	3.31071411e-04
1.69000000e-01	1.90981417e-02	3.31631439e-04
1.69500000e-01	1.87800505e-02	3.23499441e-04
1.70000000e-01	1.91195668e-02	3.30125605e-04
1.70500000e-01	1.92602485e-02	3.32749080e-04
1.71000000e-01	1.90599054e-02	3.28347100e-04
1.71500000e-01	1.89720543e-02	3.26860612e-04
1.72000000e-01	1.91478626e-02	3.28758647e-04
1.72500000e-01	1.88058979e-02	3.23237453e-04
1.73000000e-01	1.90276409e-02	3.26270232e-04
1.73500000e-01	1.89770693e-02	3.24258270e-04
1.74000000e-01	1.89533379e-02	3.23867377e-04
1.74500000e-01	1.89689044e-02	3.19792212e-04
1.75000000e-01	1.88132469e-02	3.17493490e-04
1.75500000e-01	1.90853474e-02	3.21577191e-04
1.76000000e-01	1.89451266e-02	3.20078971e-04
1.76500000e-01	1.92590529e-02	3.24967670e-04
1.77000000e-01	1.87102786e-02	3.14323087e-04
1.77500000e-01	1.86676997e-02	3.13692554e-04
1.78000000e-01	1.91138049e-02	3.20776293e-04
1.78500000e-01	1.88782847e-02	3.16559435e-04
1.79000000e-01	1.88131150e-02	3.16512521e-04
1.79500000e-01	1.89298330e-02	3.18827155e-04
1.80000000e-01	1.87992494e-02	3.16581737e-04
1.80500000e-01	1.91025719e-02	3.21105181e-04
1.81000000e-01	1.88773552e-02	3.15586247e-04
1.81500000e-01	1.88250504e-02	3.13826865e-04
1.82000000e-01	1.87646936e-02	3.13342233e-04
1.82500000e-01	1.90489527e-02	3.15092968e-04
1.83000000e-01	1.88989509e-02	3.14441129e-04
1.83500000e-01	1.87676555e-02	3.12538211e-04
1.84000000e-01	1.87810596e-02	3.11130201e-04
1.84500000e-01	1.88132372e-02	3.12193806e-04
1.85000000e-01	1.89124978e-02	3.12855100e-04
1.85500000e-01	1.85079187e-02	3.06785740e-04
1.86000000e-01	1.85016782e-02	3.05920558e-04
1.86500000e-01	1.86452287e-02	3.07587252e-04
1.87000000e-01	1.86731831e-02	3.08413871e-04
1.87500000e-01	1.88215819e-02	3.08714311e-04
1.88000000e-01	1.90037338e-02	3.12114851e-04
1.88500000e-01	1.84005187e-02	3.01958450e-04
1.89000000e-01	1.87032516e-02	3.05334346e-04
1.89500000e-01	1.85952082e-02	3.04332985e-04
1.90000000e-01	1.84937443e-02	3.02299858e-04
1.90500000e-01	1.88080342e-02	3.07861653e-04
1.91000000e-01	1.85381141e-02	3.03201035e-04
1.91500000e-01	1.83869231e-02	3.00612773e-04
1.92000000e-01	1.86327271e-02	3.02595025e-04
1.92500000e-01	1.86290509e-02	3.02130874e-04
1.93000000e-01	1.83255118e-02	2.98274673e-04
1.93500000e-01	1.87104086e-02	3.03118363e-04
1.94000000e-01	1.83712771e-02	2.98321252e-04
1.94500000e-01	1.83815918e-02	2.97664189e-04
1.95000000e-01	1.84033578e-02	2.97372546e-04
1.95500000e-01	1.85473089e-02	2.99065152e-04
1.96000000e-01	1.88978402e-02	3.02091659e-04
1.96500000e-01	1.83092231e-02	2.95289904e-04
1.97000000e-01	1.84623110e-02	2.95402378e-04
1.97500000e-01	1.84296412e-02	2.95149235e-04
1.98000000e-01	1.83341924e-02	2.94324447e-04
1.98500000e-01	1.85410228e-02	2.95883045e-04
1.99000000e-01	1.84046557e-02	2.94918979e-04
1.99500000e-01	1.85128626e-02	2.94374332e-04
2.00000000e-01	1.85324198e-02	2.94644061e-04
2.00500000e-01	1.84556535e-02	2.93411477e-04
2.01000000e-01	1.83304001e-02	2.91959999e-04
2.01500000e-01	1.83139246e-02	2.92132431e-04
2.02000000e-01	1.84878347e-02	2.92877332e-04
2.02500000e-01	1.84634393e-02	2.91892122e-04
2.03000000e-01	1.84303582e-02	2.90786017e-04
2.03500000e-01	1.82684724e-02	2.89540452e-04
2.04000000e-01	1.82406992e-02	2.88777106e-04
2.04500000e-01	1.81574445e-02	2.87359823e-04
2.05000000e-01	1.82551210e-02	2.87031399e-04
2.05500000e-01	1.83493162e-02	2.89199716e-04
2.06000000e-01	1.84888758e-02	2.89396393e-04
2.06500000e-01	1.81976397e-02	2.86926830e-04
2.07000000e-01	1.80959894e-02	2.84359258e-04
2.07500000e-01	1.82447690e-02	2.85824641e-04
2.08000000e-01	1.83376337e-02	2.87852343e-04
2.08500000e-01	1.80636112e-02	2.82241236e-04
2.09000000e-01	1.83741442e-02	2.87171823e-04
2.09500000e-01	1.84580255e-02	2.86794094e-04
2.10000000e-01	1.81992045e-02	2.84197935e-04
2.10500000e-01	1.81500550e-02	2.83619639e-04
2.11000000e-01	1.81053907e-02	2.81072760e-04
2.11500000e-01	1.82568709e-02	2.84504545e-04
2.12000000e-01	1.81625281e-02	2.80868924e-04
2.12500000e-01	1.81449813e-02	2.81071740e-04
2.13000000e-01	1.81862957e-02	2.81433730e-04
2.13500000e-01	1.84011257e-02	2.83696803e-04
2.14000000e-01	1.80568682e-02	2.79804459e-04
2.14500000e-01	1.81207414e-02	2.78884104e-04
2.15000000e-01	1.81729656e-02	2.81415613e-04
2.15500000e-01	1.81618719e-02	2.78564981e-04
2.16000000e-01	1.81580227e-02	2.79668373e-04
2.16500000e-01	1.83719457e-02	2.82258702e-04
2.17000000e-01	1.83003790e-02	2.83969959e-04
2.17500000e-01	1.82120922e-02	2.87271902e-04
2.18000000e-01	1.80789573e-02	2.85266506e-04
2.18500000e-01	1.79339740e-02	2.85927974e-04
2.19000000e-01	1.80467444e-02	2.89261100e-04
2.19500000e-01	1.79852171e-02	2.88580569e-04
2.20000000e-01	1.80459344e-02	2.91324568e-04
2.20500000e-01	1.80099551e-02	2.91393918e-04
2.21000000e-01	1.82638735e-02	2.96635759e-04
2.21500000e-01	1.80274621e-02	2.94268639e-04
2.22000000e-01	1.79845844e-02	2.93534592e-04
2.22500000e-01	1.79990231e-02	2.94209188e-04
2.23000000e-01	1.81427275e-02	2.97642483e-04
2.23500000e-01	1.82303769e-02	2.98428059e-04
2.24000000e-01	1.75523121e-02	2.89168036e-04
2.24500000e-01	1.80631058e-02	2.98163623e-04
2.25000000e-01	1.81268170e-02	3.00342347e-04
2.25500000e-01	1.77534648e-02	2.94559206e-04
2.26000000e-01	1.80697411e-02	3.01053396e-04
2.26500000e-01	1.80923261e-02	2.93843746e-04
2.27000000e-01	1.79756345e-02	2.91182045e-04
2.27500000e-01	1.80812517e-02	2.89843972e-04
2.28000000e-01	1.79395966e-02	2.86834722e-04
2.28500000e-01	1.80558781e-02	2.86345114e-04
2.29000000e-01	1.80310836e-02	2.85298605e-04
2.29500000e-01	1.78843554e-02	2.81587058e-04
2.30000000e-01	1.81382089e-02	2.85728846e-04
2.30500000e-01	1.77657917e-02	2.78188511e-04
2.31000000e-01	1.81844743e-02	2.84238994e-04
2.31500000e-01	1.80838143e-02	2.82101645e-04
2.32000000e-01	1.80851669e-02	2.80908750e-04
2.32500000e-01	1.80036567e-02	2.80183927e-04
2.33000000e-01	1.76648696e-02	2.73153525e-04
2.33500000e-01	1.76294285e-02	2.73061658e-04
2.34000000e-01	1.77365064e-02	2.73824007e-04
2.34500000e-01	1.77430010e-02	2.73028955e-04
2.35000000e-01	1.78214999e-02	2.73353625e-04
2.35500000e-01	1.77758431e-02	2.71660881e-04
2.36000000e-01	1.79752377e-02	2.76297968e-04
2.36500000e-01	1.78337585e-02	2.72506701e-04
2.37000000e-01	1.76665351e-02	2.70105290e-04
2.37500000e-01	1.76915688e-02	2.70219218e-04
2.38000000e-01	1.76879213e-02	2.68537326e-04
2.38500000e-01	1.77067828e-02	2.69212722e-04
2.39000000e-01	1.76563550e-02	2.67556418e-04
2.39500000e-01	1.77542380e-02	2.69372864e-04
2.40000000e-01	1.76974073e-02	2.68041149e-04
2.40500000e-01	1.76281688e-02	2.64649635e-04
2.41000000e-01	1.75979823e-02	2.65708347e-04
2.41500000e-01	1.76737764e-02	2.64747621e-04
2.42000000e-01	1.75639995e-02	2.65251396e-04
2.42500000e-01	1.77763864e-02	2.66721507e-04
2.43000000e-01	1.77297325e-02	2.65768529e-04
2.43500000e-01	1.78090055e-02	2.66555201e-04
2.44000000e-01	1.77584173e-02	2.64219863e-04
2.44500000e-01	1.77433984e-02	2.64457690e-04
2.45000000e-01	1.75871246e-02	2.61671614e-04
2.45500000e-01	1.75985888e-02	2.61460539e-04
2.46000000e-01	1.75714769e-02	2.61801237e-04
2.46500000e-01	1.76321304e-02	2.60347659e-04
2.47000000e-01	1.75053627e-02	2.60682917e-04
2.47500000e-01	1.78565857e-02	2.63209911e-04
2.48000000e-01	1.73761971e-02	2.57313371e-04
2.48500000e-01	1.74381756e-02	2.57235015e-04
2.49000000e-01	1.75044792e-02	2.58316936e-04
2.49500000e-01	1.76512032e-02	2.61197737e-04
2.50000000e-01	1.76580529e-02	2.58969197e-04
2.50500000e-01	1.74426865e-02	2.57904702e-04
2.51000000e-01	1.77382004e-02	2.60133566e-04
2.51500000e-01	1.75532397e-02	2.58571779e-04
2.52000000e-01	1.77586867e-02	2.59534080e-04
2.52500000e-01	1.75249315e-02	2.57352531e-04
2.53000000e-01	1.78355326e-02	2.60942044e-04
2.53500000e-01	1.74239230e-02	2.54397055e-04
2.54000000e-01	1.73992677e-02	2.53840972e-04
2.54500000e-01	1.76209249e-02	2.57125867e-04
2.55000000e-01	1.75957726e-02	2.56480838e-04
2.55500000e-01	1.77104124e-02	2.57940517e-04
2.56000000e-01	1.75103501e-02	2.54425363e-04
2.56500000e-01	1.75071891e-02	2.53783284e-04
2.57000000e-01	1.76017471e-02	2.54242439e-04
2.57500000e-01	1.75650806e-02	2.54021680e-04
2.58000000e-01	1.73770842e-02	2.51351555e-04
2.58500000e-01	1.74409065e-02	2.53158340e-04
2.59000000e-01	1.73460294e-02	2.50630645e-04
2.59500000e-01	1.72744391e-02	2.49122774e-04
2.60000000e-01	1.72491804e-02	2.48510252e-04
2.60500000e-01	1.75006266e-02	2.51201092e-04
2.61000000e-01	1.73821271e-02	2.49108655e-04
2.61500000e-01	1.73863565e-02	2.50343763e-04
2.62000000e-01	1.73264106e-02	2.49464839e-04
2.62500000e-01	1.75558478e-02	2.51280178e-04
2.63000000e-01	1.74677300e-02	2.50625825e-04
2.63500000e-01	1.75447389e-02	2.50645961e-04
2.64000000e-01	1.72960209e-02	2.47367797e-04
2.64500000e-01	1.73682314e-02	2.47538666e-04
2.65000000e-01	1.74767426e-02	2.49083951e-04
2.65500000e-01	1.74754902e-02	2.48689913e-04
2.66000000e-01	1.72559747e-02	2.46376806e-04
2.66500000e-01	1.71706306e-02	2.44382059e-04
2.67000000e-01	1.73793714e-02	2.46038300e-04
2.67500000e-01	1.72383708e-02	2.44358946e-04
2.68000000e-01	1.71285209e-02	2.42825779e-04
2.68500000e-01	1.72949060e-02	2.44810031e-04
2.69000000e-01	1.72489432e-02	2.43138432e-04
2.69500000e-01	1.72937652e-02	2.44079046e-04
2.70000000e-01	1.72287919e-02	2.43161971e-04
2.70500000e-01	1.71560265e-02	2.40508265e-04
2.71000000e-01	1.72705106e-02	2.43280070e-04
2.71500000e-01	1.70660501e-02	2.39951192e-04
2.72000000e-01	1.72162520e-02	2.41313503e-04
2.72500000e-01	1.71450045e-02	2.40902324e-04
2.73000000e-01	1.72060885e-02	2.40197179e-04
2.73500000e-01	1.71786832e-02	2.40693696e-04
2.74000000e-01	1.72240287e-02	2.40878121e-04
2.74500000e-01	1.70228718e-02	2.37326112e-04
2.75000000e-01	1.72627410e-02	2.40495895e-04
2.75500000e-01	1.72269900e-02	2.40654372e-04
2.76000000e-01	1.69742161e-02	2.36955985e-04
2.76500000e-01	1.71559753e-02	2.39814900e-04
2.77000000e-01	1.69957778e-02	2.36007596e-04
2.77500000e-01	1.71445390e-02	2.38353861e-04
2.78000000e-01	1.72337261e-02	2.39945861e-04
2.78500000e-01	1.70957518e-02	2.37696310e-04
2.79000000e-01	1.70841246e-02	2.37924879e-04
2.79500000e-01	1.72097123e-02	2.38975748e-04
2.80000000e-01	1.70309222e-02	2.36000508e-04
2.80500000e-01	1.71773156e-02	2.37431580e-04
2.81000000e-01	1.72208222e-02	2.37633803e-04
2.81500000e-01	1.70956450e-02	2.36218410e-04
2.82000000e-01	1.70591326e-02	2.34912621e-04
2.82500000e-01	1.70090871e-02	2.34696740e-04
2.83000000e-01	1.69984213e-02	2.33224618e-04
2.83500000e-01	1.67133207e-02	2.30224512e-04
2.84000000e-01	1.69894269e-02	2.34000007e-04
2.84500000e-01	1.71015590e-02	2.35483946e-04
2.85000000e-01	1.70380421e-02	2.33265397e-04
2.85500000e-01	1.73151683e-02	2.36866058e-04
2.86000000e-01	1.69198267e-02	2.32329325e-04
2.86500000e-01	1.68965464e-02	2.31694818e-04
2.87000000e-01	1.69476584e-02	2.32636915e-04
2.87500000e-01	1.71750392e-02	2.34188759e-04
2.88000000e-01	1.68659593e-02	2.29869656e-04
2.88500000e-01	1.70366479e-02	2.32773611e-04
2.89000000e-01	1.69931552e-02	2.30163629e-04
2.89500000e-01	1.69969314e-02	2.31156354e-04
2.90000000e-01	1.71122034e-02	2.32370332e-04
2.90500000e-01	1.69811091e-02	2.30455795e-04
2.91000000e-01	1.69820234e-02	2.29824225e-04
2.91500000e-01	1.68567899e-02	2.28637282e-04
2.92000000e-01	1.70000611e-02	2.30226460e-04
2.92500000e-01	1.69538227e-02	2.28830849e-04
2.93000000e-01	1.68789130e-02	2.28125261e-04
2.93500000e-01	1.68173473e-02	2.27782152e-04
2.94000000e-01	1.68742275e-02	2.26900844e-04
2.94500000e-01	1.70430588e-02	2.30345781e-04
2.95000000e-01	1.68140090e-02	2.26317248e-04
2.95500000e-01	1.69775853e-02	2.28750172e-04
2.96000000e-01	1.69230673e-02	2.27010114e-04
2.96500000e-01	1.69264281e-02	2.26809969e-04
2.97000000e-01	1.68773261e-02	2.26792732e-04
2.97500000e-01	1.69199045e-02	2.26281556e-04
2.98000000e-01	1.67741938e-02	2.25196347e-04
2.98500000e-01	1.69445855e-02	2.27495408e-04
2.99000000e-01	1.66867412e-02	2.23456566e-04
2.99500000e-01	1.68643291e-02	2.25829763e-04
3.00000000e-01	1.67898839e-02	2.23727034e-04
3.00500000e-01	1.68234582e-02	2.24314898e-04
3.01000000e-01	1.67714070e-02	2.23779589e-04
3.01500000e-01	1.68330267e-02	2.25105436e-04
3.02000000e-01	1.69585665e-02	2.25566868e-04
3.02500000e-01	1.69802480e-02	2.26693962e-04
3.03000000e-01	1.68442816e-02	2.23727500e-04
3.03500000e-01	1.66975619e-02	2.21006536e-04
3.04000000e-01	1.68310190e-02	2.24232290e-04
3.04500000e-01	1.67778433e-02	2.22185455e-04
3.05000000e-01	1.68820125e-02	2.23594123e-04
3.05500000e-01	1.66289122e-02	2.20440086e-04
3.06000000e-01	1.68952512e-02	2.22907575e-04
3.06500000e-01	1.67421425e-02	2.22014441e-04
3.07000000e-01	1.65930555e-02	2.19117816e-04
3.07500000e-01	1.67619323e-02	2.21819807e-04
3.08000000e-01	1.66306353e-02	2.19376845e-04
3.08500000e-01	1.67332256e-02	2.19934383e-04
3.09000000e-01	1.66117968e-02	2.18321921e-04
3.09500000e-01	1.68637593e-02	2.21393878e-04
3.10000000e-01	1.65332108e-02	2.17620704e-04
3.10500000e-01	1.66305653e-02	2.18875080e-04
3.11000000e-01	1.65634033e-02	2.17915807e-04
3.11500000e-01	1.66173108e-02	2.17221560e-04
3.12000000e-01	1.65124291e-02	2.16525672e-04
3.12500000e-01	1.67027656e-02	2.18856131e-04
3.13000000e-01	1.66658331e-02	2.18164525e-04
3.13500000e-01	1.66723803e-02	2.18697611e-04
3.14000000e-01	1.64745948e-02	2.15356970e-04
3.14500000e-01	1.65815824e-02	2.16552693e-04
3.15000000e-01	1.64959391e-02	2.15803265e-04
3.15500000e-01	1.65346824e-02	2.15593312e-04
3.16000000e-01	1.62581890e-02	2.12464042e-04
3.16500000e-01	1.65176536e-02	2.15720892e-04
3.17000000e-01	1.66091230e-02	2.16028427e-04
3.17500000e-01	1.65721732e-02	2.15817465e-04
3.18000000e-01	1.64335594e-02	2.12706048e-04
3.18500000e-01	1.63624934e-02	2.12782182e-04
3.19000000e-01	1.63899881e-02	2.11999385e-04
3.19500000e-01	1.65145017e-02	2.13273097e-04
3.20000000e-01	1.63792657e-02	2.12270253e-04
3.20500000e-01	1.64589650e-02	2.12888507e-04
3.21000000e-01	1.65397115e-02	2.13629526e-04
3.21500000e-01	1.64109152e-02	2.11687731e-04
3.22000000e-01	1.64364447e-02	2.12318741e-04
3.22500000e-01	1.63257371e-02	2.09800779e-04
3.23000000e-01	1.63637940e-02	2.11338739e-04
3.23500000e-01	1.63219369e-02	2.10814718e-04
3.24000000e-01	1.64233841e-02	2.10781277e-04
3.24500000e-01	1.64800793e-02	2.12452328e-04
3.25000000e-01	1.63315201e-02	2.09636371e-04
3.25500000e-01	1.62771991e-02	2.09439783e-04
3.26000000e-01	1.64139207e-02	2.10948367e-04
3.26500000e-01	1.63121593e-02	2.09169271e-04
3.27000000e-01	1.63261022e-02	2.08856935e-04
3.27500000e-01	1.63610999e-02	2.08971233e-04
3.28000000e-01	1.64695111e-02	2.10301675e-04
3.28500000e-01	1.62771799e-02	2.09059239e-04
3.29000000e-01	1.63429777e-02	2.08861834e-04
3.29500000e-01	1.61639119e-02	2.06948485e-04
3.30000000e-01	1.62963696e-02	2.08181751e-04
3.30500000e-01	1.62409368e-02	2.07865036e-04
3.31000000e-01	1.62372376e-02	2.07177213e-04
3.31500000e-01	1.59843371e-02	2.03679195e-04
3.32000000e-01	1.60791312e-02	2.05119233e-04
3.32500000e-01	1.61104373e-02	2.05269655e-04
3.33000000e-01	1.62252269e-02	2.06213150e-04
3.33500000e-01	1.62685857e-02	2.06086406e-04
3.34000000e-01	1.63769577e-02	2.08007059e-04
3.34500000e-01	1.62292770e-02	2.06112766e-04
3.35000000e-01	1.62867925e-02	2.06237183e-04
3.35500000e-01	1.61071150e-02	2.04285755e-04
3.36000000e-01	1.62764438e-02	2.06074491e-04
3.36500000e-01	1.61007396e-02	2.03862616e-04
3.37000000e-01	1.59324314e-02	2.01237900e-04
3.37500000e-01	1.61852661e-02	2.04938183e-04
3.38000000e-01	1.61110873e-02	2.03159703e-04
3.38500000e-01	1.61072911e-02	2.03412657e-04
3.39000000e-01	1.60134582e-02	2.02244121e-04
3.39500000e-01	1.61016744e-02	2.02745897e-04
3.40000000e-01	1.61378401e-02	2.03447913e-04
3.40500000e-01	1.60744403e-02	2.02640281e-04
3.41000000e-01	1.60231606e-02	2.01640854e-04
3.41500000e-01	1.61457024e-02	2.02912916e-04
3.42000000e-01	1.60804164e-02	2.01051775e-04
3.42500000e-01	1.61641576e-02	2.03064395e-04
3.43000000e-01	1.60560312e-02	2.00974690e-04
3.43500000e-01	1.61523344e-02	2.02202847e-04
3.44000000e-01	1.61040938e-02	2.01871960e-04
3.44500000e-01	1.59452343e-02	1.99633853e-04
3.45000000e-01	1.59351276e-02	1.99000352e-04
3.45500000e-01	1.60957689e-02	2.00074385e-04
3.46000000e-01	1.60819177e-02	2.01348781e-04
3.46500000e-01	1.59915506e-02	1.98863503e-04
3.47000000e-01	1.60095602e-02	1.99247671e-04
3.47500000e-01	1.60619836e-02	2.00338052e-04
3.48000000e-01	1.59790032e-02	1.98336815e-04
3.48500000e-01	1.59860182e-02	1.98758699e-04
3.49000000e-01	1.60234879e-02	1.99174501e-04
3.49500000e-01	1.60671521e-02	1.99607092e-04
3.50000000e-01	1.59413081e-02	1.61236144e-04
3.51000000e-01	1.58160302e-02	1.38653102e-04
3.52000000e-01	1.59785497e-02	1.39672187e-04
3.53000000e-01	1.59473583e-02	1.39087425e-04
3.54000000e-01	1.57303019e-02	1.37200728e-04
3.55000000e-01	1.57833652e-02	1.37336052e-04
3.56000000e-01	1.58210183e-02	1.38476023e-04
3.57000000e-01	1.56885150e-02	1.39582840e-04
3.58000000e-01	1.58427894e-02	1.42325554e-04
3.59000000e-01	1.57666842e-02	1.42523712e-04
3.60000000e-01	1.57354260e-02	1.43473731e-04
3.61000000e-01	1.57831951e-02	1.44233315e-04
3.62000000e-01	1.55525269e-02	1.43132047e-04
3.63000000e-01	1.57885877e-02	1.45360867e-04
3.64000000e-01	1.55495247e-02	1.44001557e-04
3.65000000e-01	1.55811268e-02	1.44895266e-04
3.66000000e-01	1.55727070e-02	1.42794725e-04
3.67000000e-01	1.57091617e-02	1.42197043e-04
3.68000000e-01	1.55574149e-02	1.39743601e-04
3.69000000e-01	1.54946046e-02	1.38589032e-04
3.70000000e-01	1.56389092e-02	1.39080669e-04
3.71000000e-01	1.55273090e-02	1.39799057e-04
3.72000000e-01	1.56565938e-02	1.41839595e-04
3.73000000e-01	1.55618549e-02	1.41185322e-04
3.74000000e-01	1.55436704e-02	1.41387395e-04
3.75000000e-01	1.55017498e-02	1.41390642e-04
3.76000000e-01	1.55303193e-02	1.41333210e-04
3.77000000e-01	1.55406274e-02	1.41669292e-04
3.78000000e-01	1.56606287e-02	1.42690093e-04
3.79000000e-01	1.54731826e-02	1.41010870e-04
3.80000000e-01	1.54327794e-02	1.40183618e-04
3.81000000e-01	1.53712684e-02	1.39692791e-04
3.82000000e-01	1.54824338e-02	1.40703018e-04
3.83000000e-01	1.54199572e-02	1.39828821e-04
3.84000000e-01	1.53400063e-02	1.39439848e-04
3.85000000e-01	1.54715656e-02	1.40691706e-04
3.86000000e-01	1.53298325e-02	1.39320707e-04
3.87000000e-01	1.54647469e-02	1.40207603e-04
3.88000000e-01	1.53502442e-02	1.39570243e-04
3.89000000e-01	1.52805379e-02	1.38843715e-04
3.90000000e-01	1.53298436e-02	1.39121087e-04
3.91000000e-01	1.53079841e-02	1.39256917e-04
3.92000000e-01	1.52596932e-02	1.38634414e-04
3.93000000e-01	1.52652189e-02	1.38434883e-04
3.94000000e-01	1.53021368e-02	1.38787339e-04
3.95000000e-01	1.52153073e-02	1.38090055e-04
3.96000000e-01	1.52961964e-02	1.39062283e-04
3.97000000e-01	1.52451881e-02	1.37665388e-04
3.98000000e-01	1.51328169e-02	1.37407107e-04
3.99000000e-01	1.52095812e-02	1.37693299e-04
4.00000000e-01	1.51575133e-02	1.37693255e-04
4.01000000e-01	1.51040778e-02	1.37095355e-04
4.02000000e-01	1.52399724e-02	1.38036083e-04
4.03000000e-01	1.51534640e-02	1.37220521e-04
4.04000000e-01	1.52244114e-02	1.38145902e-04
4.05000000e-01	1.50935566e-02	1.37114513e-04
4.06000000e-01	1.49317652e-02	1.35302194e-04
4.07000000e-01	1.49682156e-02	1.35506546e-04
4.08000000e-01	1.50619777e-02	1.36749252e-04
4.09000000e-01	1.50965899e-02	1.36363055e-04
4.10000000e-01	1.50360073e-02	1.35768340e-04
4.11000000e-01	1.49698778e-02	1.35349612e-04
4.12000000e-01	1.50371392e-02	1.36203610e-04
4.13000000e-01	1.51135467e-02	1.36507336e-04
4.14000000e-01	1.49496201e-02	1.35568835e-04
4.15000000e-01	1.50520485e-02	1.36035900e-04
4.16000000e-01	1.50319169e-02	1.35541026e-04
4.17000000e-01	1.50102522e-02	1.35458277e-04
4.18000000e-01	1.50070136e-02	1.36615335e-04
4.19000000e-01	1.49330423e-02	1.38136488e-04
4.20000000e-01	1.49490063e-02	1.38524851e-04
4.21000000e-01	1.50459507e-02	1.40170142e-04
4.22000000e-01	1.50849900e-02	1.40925051e-04
4.23000000e-01	1.51070291e-02	1.41657172e-04
4.24000000e-01	1.49946113e-02	1.41366217e-04
4.25000000e-01	1.48318228e-02	1.39586278e-04
4.26000000e-01	1.50771320e-02	1.41978881e-04
4.27000000e-01	1.48736172e-02	1.40081904e-04
4.28000000e-01	1.50779801e-02	1.42394517e-04
4.29000000e-01	1.50059344e-02	1.41605115e-04
4.30000000e-01	1.49596349e-02	1.41368750e-04
4.31000000e-01	1.49526363e-02	1.41043177e-04
4.32000000e-01	1.49437420e-02	1.41322505e-04
4.33000000e-01	1.49106579e-02	1.41233185e-04
4.34000000e-01	1.49399746e-02	1.41768011e-04
4.35000000e-01	1.49130516e-02	1.41165929e-04
4.36000000e-01	1.50020080e-02	1.41938528e-04
4.37000000e-01	1.48370669e-02	1.41026015e-04
4.38000000e-01	1.47906021e-02	1.40977340e-04
4.39000000e-01	1.49070382e-02	1.42321781e-04
4.40000000e-01	1.48731072e-02	1.41816012e-04
4.41000000e-01	1.47673502e-02	1.40935163e-04
4.42000000e-01	1.48247844e-02	1.42081069e-04
4.43000000e-01	1.47580952e-02	1.41239808e-04
4.44000000e-01	1.49569065e-02	1.43447150e-04
4.45000000e-01	1.47272608e-02	1.41408116e-04
4.46000000e-01	1.47467815e-02	1.41598230e-04
4.47000000e-01	1.47246518e-02	1.41436249e-04
4.48000000e-01	1.48242267e-02	1.43100857e-04
4.49000000e-01	1.47174663e-02	1.42380817e-04
4.50000000e-01	1.47693976e-02	1.42280592e-04
4.51000000e-01	1.47847777e-02	1.43009801e-04
4.52000000e-01	1.47273883e-02	1.42465278e-04
4.53000000e-01	1.47664060e-02	1.42692895e-04
4.54000000e-01	1.46563926e-02	1.41769880e-04
4.55000000e-01	1.46759590e-02	1.42540758e-04
4.56000000e-01	1.47318473e-02	1.43006356e-04
4.57000000e-01	1.46378139e-02	1.42381627e-04
4.58000000e-01	1.46239849e-02	1.42127769e-04
4.59000000e-01	1.46461032e-02	1.42645261e-04
4.60000000e-01	1.45290564e-02	1.42140030e-04
4.61000000e-01	1.45785641e-02	1.42042648e-04
4.62000000e-01	1.45992166e-02	1.41921562e-04
4.63000000e-01	1.48071291e-02	1.44413199e-04
4.64000000e-01	1.46156898e-02	1.42826656e-04
4.65000000e-01	1.45556743e-02	1.42085037e-04
4.66000000e-01	1.44976381e-02	1.41920644e-04
4.67000000e-01	1.46058139e-02	1.42783923e-04
4.68000000e-01	1.44888295e-02	1.42196348e-04
4.69000000e-01	1.45294147e-02	1.42650595e-04
4.70000000e-01	1.44735617e-02	1.42367978e-04
4.71000000e-01	1.44659014e-02	1.41956570e-04
4.72000000e-01	1.46001081e-02	1.43503055e-04
4.73000000e-01	1.43655745e-02	1.41250495e-04
4.74000000e-01	1.44896521e-02	1.42081793e-04
4.75000000e-01	1.45047988e-02	1.42387326e-04
4.76000000e-01	1.45160858e-02	1.42005337e-04
4.77000000e-01	1.46212838e-02	1.43417017e-04
4.78000000e-01	1.45059081e-02	1.42811982e-04
4.79000000e-01	1.44477188e-02	1.41777806e-04
4.80000000e-01	1.44875711e-02	1.42404527e-04
4.81000000e-01	1.43816764e-02	1.41073589e-04
4.82000000e-01	1.43584659e-02	1.41067617e-04
4.83000000e-01	1.44399946e-02	1.42125649e-04
4.84000000e-01	1.43676266e-02	1.41394560e-04
4.85000000e-01	1.43840282e-02	1.42059276e-04
4.86000000e-01	1.43729370e-02	1.41378459e-04
4.87000000e-01	1.44729483e-02	1.42764112e-04
4.88000000e-01	1.45907921e-02	1.43789835e-04
4.89000000e-01	1.43688595e-02	1.41594927e-04
4.90000000e-01	1.44062731e-02	1.42196230e-04
4.91000000e-01	1.44465227e-02	1.42612216e-04
4.92000000e-01	1.42712197e-02	1.41108989e-04
4.93000000e-01	1.43496041e-02	1.41974798e-04
4.94000000e-01	1.42619746e-02	1.41436838e-04
4.95000000e-01	1.44145946e-02	1.44033927e-04
4.96000000e-01	1.43497329e-02	1.47315925e-04
4.97000000e-01	1.42158032e-02	1.48523562e-04
4.98000000e-01	1.42388883e-02	1.50916203e-04
4.99000000e-01	1.42594115e-02	1.52834116e-04
5.00000000e-01	1.44427254e-02	1.56128141e-04
5.01000000e-01	1.43541175e-02	1.56330853e-04
5.02000000e-01	1.42940301e-02	1.57836479e-04
5.03000000e-01	1.41931316e-02	1.58210230e-04
5.04000000e-01	1.43704121e-02	1.61398130e-04
5.05000000e-01	1.42550084e-02	1.57569674e-04
5.06000000e-01	1.44717204e-02	1.56817297e-04
5.07000000e-01	1.44592961e-02	1.54727242e-04
5.08000000e-01	1.41449551e-02	1.50955711e-04
5.09000000e-01	1.42659916e-02	1.51528431e-04
5.10000000e-01	1.42571421e-02	1.50966029e-04
5.11000000e-01	1.43111780e-02	1.50685827e-04
5.12000000e-01	1.41333403e-02	1.49145655e-04
5.13000000e-01	1.41668892e-02	1.49169360e-04
5.14000000e-01	1.42490230e-02	1.49128460e-04
5.15000000e-01	1.42609614e-02	1.49350086e-04
5.16000000e-01	1.41263572e-02	1.47904582e-04
5.17000000e-01	1.41193641e-02	1.47179227e-04
5.18000000e-01	1.41851561e-02	1.47769065e-04
5.19000000e-01	1.41492290e-02	1.46550811e-04
5.20000000e-01	1.41529009e-02	1.46481912e-04
5.21000000e-01	1.40896490e-02	1.45877746e-04
5.22000000e-01	1.40778785e-02	1.45158215e-04
5.23000000e-01	1.39442621e-02	1.44289389e-04
5.24000000e-01	1.40765223e-02	1.45667559e-04
5.25000000e-01	1.42455280e-02	1.46708355e-04
5.26000000e-01	1.39518196e-02	1.44568393e-04
5.27000000e-01	1.41015127e-02	1.45759668e-04
5.28000000e-01	1.40728736e-02	1.45507646e-04
5.29000000e-01	1.39399386e-02	1.44198182e-04
5.30000000e-01	1.41466990e-02	1.45752588e-04
5.31000000e-01	1.40576532e-02	1.45571043e-04
5.32000000e-01	1.39551548e-02	1.44380607e-04
5.33000000e-01	1.40201247e-02	1.44818861e-04
5.34000000e-01	1.41202798e-02	1.45542657e-04
5.35000000e-01	1.39386955e-02	1.44366402e-04
5.36000000e-01	1.38936603e-02	1.43745636e-04
5.37000000e-01	1.39999246e-02	1.44430240e-04
5.38000000e-01	1.38892860e-02	1.43261992e-04
5.39000000e-01	1.39395781e-02	1.44184881e-04
5.40000000e-01	1.39523318e-02	1.43942143e-04
5.41000000e-01	1.39243366e-02	1.43807955e-04
5.42000000e-01	1.39503066e-02	1.43823980e-04
5.43000000e-01	1.39708208e-02	1.44244938e-04
5.44000000e-01	1.40817400e-02	1.45619286e-04
5.45000000e-01	1.37952968e-02	1.43107884e-04
5.46000000e-01	1.38835925e-02	1.43165736e-04
5.47000000e-01	1.38279122e-02	1.43118146e-04
5.48000000e-01	1.39238342e-02	1.44129970e-04
5.49000000e-01	1.38436614e-02	1.42874716e-04
5.50000000e-01	1.37265100e-02	1.41939920e-04
5.51000000e-01	1.37447724e-02	1.41665754e-04
5.52000000e-01	1.36495821e-02	1.40523539e-04
5.53000000e-01	1.38414523e-02	1.42262487e-04
5.54000000e-01	1.38566905e-02	1.42364589e-04
5.55000000e-01	1.36071014e-02	1.40478694e-04
5.56000000e-01	1.38164205e-02	1.41793629e-04
5.57000000e-01	1.37596256e-02	1.41150011e-04
5.58000000e-01	1.37988078e-02	1.41473145e-04
5.59000000e-01	1.36681932e-02	1.40657736e-04
5.60000000e-01	1.37125166e-02	1.40720893e-04
5.61000000e-01	1.36716946e-02	1.40175099e-04
5.62000000e-01	1.38351544e-02	1.41946298e-04
5.63000000e-01	1.35674859e-02	1.39525977e-04
5.64000000e-01	1.36923517e-02	1.40402534e-04
5.65000000e-01	1.37971463e-02	1.42247578e-04
5.66000000e-01	1.37460874e-02	1.40953542e-04
5.67000000e-01	1.35733797e-02	1.39508035e-04
5.68000000e-01	1.37442558e-02	1.41097054e-04
5.69000000e-01	1.35619060e-02	1.38974226e-04
5.70000000e-01	1.37477245e-02	1.41051816e-04
5.71000000e-01	1.35188787e-02	1.39210777e-04
5.72000000e-01	1.36126029e-02	1.40050055e-04
5.73000000e-01	1.36804376e-02	1.41075535e-04
5.74000000e-01	1.34724892e-02	1.38685846e-04
5.75000000e-01	1.33929509e-02	1.38367963e-04
5.76000000e-01	1.33687952e-02	1.37955860e-04
5.77000000e-01	1.36205653e-02	1.40454116e-04
5.78000000e-01	1.35268381e-02	1.39070871e-04
5.79000000e-01	1.34941075e-02	1.38899988e-04
5.80000000e-01	1.33946285e-02	1.38200326e-04
5.81000000e-01	1.33720502e-02	1.37579765e-04
5.82000000e-01	1.34433429e-02	1.38819242e-04
5.83000000e-01	1.36457420e-02	1.40466071e-04
5.84000000e-01	1.34586067e-02	1.38751615e-04
5.85000000e-01	1.34546690e-02	1.38912562e-04
5.86000000e-01	1.34487512e-02	1.38947005e-04
5.87000000e-01	1.33098682e-02	1.37809491e-04
5.88000000e-01	1.34290133e-02	1.38869016e-04
5.89000000e-01	1.33872591e-02	1.38947597e-04
5.90000000e-01	1.34255210e-02	1.38806978e-04
5.91000000e-01	1.33397124e-02	1.37965798e-04
5.92000000e-01	1.34100340e-02	1.38668490e-04
5.93000000e-01	1.34359115e-02	1.38618125e-04
5.94000000e-01	1.33039727e-02	1.37684693e-04
5.95000000e-01	1.33903283e-02	1.38838736e-04
5.96000000e-01	1.33716469e-02	1.38295516e-04
5.97000000e-01	1.31865548e-02	1.36465294e-04
5.98000000e-01	1.33539493e-02	1.38156242e-04
5.99000000e-01	1.33385993e-02	1.38283904e-04
6.00000000e-01	1.32749431e-02	1.37367815e-04
6.01000000e-01	1.34256333e-02	1.39145003e-04
6.02000000e-01	1.31926790e-02	1.36967869e-04
6.03000000e-01	1.33392677e-02	1.37736963e-04
6.04000000e-01	1.33158900e-02	1.38180287e-04
6.05000000e-01	1.32722323e-02	1.37545052e-04
6.06000000e-01	1.33040448e-02	1.38264530e-04
6.07000000e-01	1.33578659e-02	1.38727953e-04
6.08000000e-01	1.33472875e-02	1.38032253e-04
6.09000000e-01	1.31267063e-02	1.36810147e-04
6.10000000e-01	1.31395431e-02	1.36449849e-04
6.11000000e-01	1.32690811e-02	1.38019312e-04
6.12000000e-01	1.31152014e-02	1.36160746e-04
6.13000000e-01	1.31701127e-02	1.36775215e-04
6.14000000e-01	1.31645537e-02	1.36435869e-04
6.15000000e-01	1.31429925e-02	1.36598827e-04
6.16000000e-01	1.31925235e-02	1.37089323e-04
6.17000000e-01	1.31683932e-02	1.36379450e-04
6.18000000e-01	1.30712993e-02	1.36066015e-04
6.19000000e-01	1.30883409e-02	1.35827507e-04
6.20000000e-01	1.31161784e-02	1.35938559e-04
6.21000000e-01	1.31108754e-02	1.35655983e-04
6.22000000e-01	1.32386697e-02	1.36476315e-04
6.23000000e-01	1.31749576e-02	1.35807369e-04
6.24000000e-01	1.30482956e-02	1.34247860e-04
6.25000000e-01	1.31018585e-02	1.34827640e-04
6.26000000e-01	1.28583134e-02	1.32844254e-04
6.27000000e-01	1.30999751e-02	1.35467439e-04
6.28000000e-01	1.31302388e-02	1.35409986e-04
6.29000000e-01	1.30967711e-02	1.35294379e-04
6.30000000e-01	1.29577208e-02	1.33612981e-04
6.31000000e-01	1.31921880e-02	1.36006939e-04
6.32000000e-01	1.30671636e-02	1.34815994e-04
6.33000000e-01	1.31070353e-02	1.35239441e-04
6.34000000e-01	1.30035252e-02	1.37492054e-04
6.35000000e-01	1.30288246e-02	1.41681814e-04
6.36000000e-01	1.29203070e-02	1.43069741e-04
6.37000000e-01	1.30447824e-02	1.46376172e-04
6.38000000e-01	1.30897531e-02	1.48835211e-04
6.39000000e-01	1.31854134e-02	1.51695764e-04
6.40000000e-01	1.30142154e-02	1.51884410e-04
6.41000000e-01	1.29639653e-02	1.53495353e-04
6.42000000e-01	1.30805166e-02	1.56482664e-04
6.43000000e-01	1.32859041e-02	1.58208930e-04
6.44000000e-01	1.30354803e-02	1.50356988e-04
6.45000000e-01	1.31083789e-02	1.48705945e-04
6.46000000e-01	1.31684365e-02	1.47767597e-04
6.47000000e-01	1.29311587e-02	1.44273907e-04
6.48000000e-01	1.32857670e-02	1.47046570e-04
6.49000000e-01	1.29620602e-02	1.43477433e-04
6.50000000e-01	1.31725377e-02	1.43916865e-04
6.51000000e-01	1.31019653e-02	1.43748617e-04
6.52000000e-01	1.28465697e-02	1.40482649e-04
6.53000000e-01	1.30019383e-02	1.41272145e-04
6.54000000e-01	1.30532618e-02	1.40962439e-04
6.55000000e-01	1.28604132e-02	1.38996743e-04
6.56000000e-01	1.29415383e-02	1.39577944e-04
6.57000000e-01	1.29449168e-02	1.39542067e-04
6.58000000e-01	1.31787025e-02	1.41596850e-04
6.59000000e-01	1.30361488e-02	1.40231234e-04
6.60000000e-01	1.30379798e-02	1.39919277e-04
6.61000000e-01	1.29070238e-02	1.38627577e-04
6.62000000e-01	1.29888790e-02	1.39178008e-04
6.63000000e-01	1.29408190e-02	1.39389035e-04
6.64000000e-01	1.29067307e-02	1.38411104e-04
6.65000000e-01	1.29933829e-02	1.39230855e-04
6.66000000e-01	1.30702934e-02	1.39685681e-04
6.67000000e-01	1.28958743e-02	1.38152535e-04
6.68000000e-01	1.30109842e-02	1.39438069e-04
6.69000000e-01	1.29387959e-02	1.38069339e-04
6.70000000e-01	1.29780161e-02	1.38555168e-04
6.71000000e-01	1.30163551e-02	1.38558275e-04
6.72000000e-01	1.28476890e-02	1.37650580e-04
6.73000000e-01	1.28511160e-02	1.37609496e-04
6.74000000e-01	1.28520828e-02	1.36817220e-04
6.75000000e-01	1.28108582e-02	1.36787993e-04
6.76000000e-01	1.27359903e-02	1.36094717e-04
6.77000000e-01	1.28611891e-02	1.37626355e-04
6.78000000e-01	1.29139162e-02	1.37816197e-04
6.79000000e-01	1.29360686e-02	1.38053189e-04
6.80000000e-01	1.28667170e-02	1.37428883e-04
6.81000000e-01	1.28630929e-02	1.37668332e-04
6.82000000e-01	1.28909270e-02	1.37503716e-04
6.83000000e-01	1.27854036e-02	1.36147564e-04
6.84000000e-01	1.29413298e-02	1.37809489e-04
6.85000000e-01	1.27528330e-02	1.35817164e-04
6.86000000e-01	1.28260888e-02	1.36918517e-04
6.87000000e-01	1.25883692e-02	1.34788432e-04
6.88000000e-01	1.26606781e-02	1.35169589e-04
6.89000000e-01	1.28114449e-02	1.36374736e-04
6.90000000e-01	1.27422314e-02	1.35638845e-04
6.91000000e-01	1.27051948e-02	1.35601148e-04
6.92000000e-01	1.26599794e-02	1.34818578e-04
6.93000000e-01	1.27614487e-02	1.36095188e-04
6.94000000e-01	1.25648453e-02	1.34238006e-04
6.95000000e-01	1.26520964e-02	1.34696265e-04
6.96000000e-01	1.25012731e-02	1.33486470e-04
6.97000000e-01	1.25946923e-02	1.34338038e-04
6.98000000e-01	1.27074125e-02	1.35422501e-04
6.99000000e-01	1.27870476e-02	1.36171381e-04
7.00000000e-01	1.27487059e-02	1.35721139e-04
7.01000000e-01	1.27003205e-02	1.35453256e-04
7.02000000e-01	1.26367216e-02	1.34880690e-04
7.03000000e-01	1.25223476e-02	1.33844005e-04
7.04000000e-01	1.24582324e-02	1.32834532e-04
7.05000000e-01	1.26051760e-02	1.34224775e-04
7.06000000e-01	1.23881253e-02	1.32264425e-04
7.07000000e-01	1.27355182e-02	1.34968659e-04
7.08000000e-01	1.26380795e-02	1.33811012e-04
7.09000000e-01	1.24875708e-02	1.32804780e-04
7.10000000e-01	1.24650058e-02	1.33198945e-04
7.11000000e-01	1.25852727e-02	1.34446040e-04
7.12000000e-01	1.25490255e-02	1.33443975e-04
7.13000000e-01	1.24552597e-02	1.32630483e-04
7.14000000e-01	1.24075296e-02	1.32156891e-04
7.15000000e-01	1.24466570e-02	1.32680378e-04
7.16000000e-01	1.24744480e-02	1.33057000e-04
7.17000000e-01	1.24060974e-02	1.32272655e-04
7.18000000e-01	1.23233808e-02	1.31386307e-04
7.19000000e-01	1.22902481e-02	1.31392300e-04
7.20000000e-01	1.23665973e-02	1.31703271e-04
7.21000000e-01	1.24139528e-02	1.32148113e-04
7.22000000e-01	1.22838590e-02	1.31188032e-04
7.23000000e-01	1.22889325e-02	1.31246681e-04
7.24000000e-01	1.23787111e-02	1.31957689e-04
7.25000000e-01	1.22324791e-02	1.30136959e-04
7.26000000e-01	1.25412616e-02	1.33543402e-04
7.27000000e-01	1.22540575e-02	1.30765230e-04
7.28000000e-01	1.23329420e-02	1.31505936e-04
7.29000000e-01	1.22447888e-02	1.30363867e-04
7.30000000e-01	1.23216322e-02	1.31638220e-04
7.31000000e-01	1.22580812e-02	1.30843570e-04
7.32000000e-01	1.23181356e-02	1.31374122e-04
7.33000000e-01	1.22361929e-02	1.30368153e-04
7.34000000e-01	1.22875811e-02	1.31059711e-04
7.35000000e-01	1.22091566e-02	1.30312629e-04
7.36000000e-01	1.22516283e-02	1.30221913e-04
7.37000000e-01	1.21835845e-02	1.29409468e-04
7.38000000e-01	1.21578141e-02	1.29347163e-04
7.39000000e-01	1.21468215e-02	1.28635827e-04
7.40000000e-01	1.21089040e-02	1.27468961e-04
7.41000000e-01	1.22179194e-02	1.29202423e-04
7.42000000e-01	1.20431686e-02	1.27492940e-04
7.43000000e-01	1.22466538e-02	1.29247672e-04
7.44000000e-01	1.21768791e-02	1.28437267e-04
7.45000000e-01	1.21659509e-02	1.28029004e-04
7.46000000e-01	1.21078293e-02	1.27867332e-04
7.47000000e-01	1.21940347e-02	1.28604521e-04
7.48000000e-01	1.20792636e-02	1.27724061e-04
7.49000000e-01	1.20986739e-02	1.28267030e-04
7.50000000e-01	1.22227267e-02	1.28728248e-04
7.51000000e-01	1.21891720e-02	1.28744038e-04
7.52000000e-01	1.21602225e-02	1.28651995e-04
7.53000000e-01	1.19918516e-02	1.27250258e-04
7.54000000e-01	1.20775227e-02	1.28017587e-04
7.55000000e-01	1.20286526e-02	1.27345457e-04
7.56000000e-01	1.21283317e-02	1.27671159e-04
7.57000000e-01	1.19897819e-02	1.26894479e-04
7.58000000e-01	1.19388746e-02	1.26170590e-04
7.59000000e-01	1.20264803e-02	1.26965874e-04
7.60000000e-01	1.19060188e-02	1.25916068e-04
7.61000000e-01	1.19427039e-02	1.26279495e-04
7.62000000e-01	1.20364943e-02	1.26301764e-04
7.63000000e-01	1.19225559e-02	1.25446236e-04
7.64000000e-01	1.19558751e-02	1.25799198e-04
7.65000000e-01	1.19567945e-02	1.25112699e-04
7.66000000e-01	1.19034005e-02	1.24985824e-04
7.67000000e-01	1.19567822e-02	1.25394884e-04
7.68000000e-01	1.18774971e-02	1.24292389e-04
7.69000000e-01	1.18329287e-02	1.24450685e-04
7.70000000e-01	1.18400986e-02	1.24349566e-04
7.71000000e-01	1.18878253e-02	1.24501219e-04
7.72000000e-01	1.19624900e-02	1.29226912e-04
7.73000000e-01	1.19248567e-02	1.32833016e-04
7.74000000e-01	1.17171742e-02	1.33437072e-04
7.75000000e-01	1.18121594e-02	1.36940369e-04
7.76000000e-01	1.19865676e-02	1.40885350e-04
7.77000000e-01	1.19056184e-02	1.41695047e-04
7.78000000e-01	1.18370534e-02	1.42976830e-04
7.79000000e-01	1.17908203e-02	1.43804471e-04
7.80000000e-01	1.17941056e-02	1.46146166e-04
7.81000000e-01	1.16064102e-02	1.45922508e-04
7.82000000e-01	1.16206845e-02	1.47464637e-04
7.83000000e-01	1.16614051e-02	1.49739465e-04
7.84000000e-01	1.17528751e-02	1.51381235e-04
7.85000000e-01	1.15958377e-02	1.52106600e-04
7.86000000e-01	1.17094081e-02	1.54801994e-04
7.87000000e-01	1.16799079e-02	1.55427484e-04
7.88000000e-01	1.16355033e-02	1.56555548e-04
7.89000000e-01	1.16267910e-02	1.58175523e-04
7.90000000e-01	1.18796938e-02	1.63239209e-04
7.91000000e-01	1.16548079e-02	1.62360576e-04
7.92000000e-01	1.16275400e-02	1.62895870e-04
7.93000000e-01	1.16591634e-02	1.64937121e-04
7.94000000e-01	1.15561061e-02	1.66602959e-04
7.95000000e-01	1.14607235e-02	1.65180001e-04
7.96000000e-01	1.14493974e-02	1.66982700e-04
7.97000000e-01	1.15126026e-02	1.70060655e-04
7.98000000e-01	1.15497313e-02	1.73389271e-04
7.99000000e-01	1.13887485e-02	1.72293773e-04
8.00000000e-01	1.15555526e-02	1.75191014e-04
8.01000000e-01	1.15108913e-02	1.77929909e-04
8.02000000e-01	1.17275160e-02	1.82413800e-04
8.03000000e-01	1.14655111e-02	1.79748653e-04
8.04000000e-01	1.14635162e-02	1.82321257e-04
8.05000000e-01	1.13860594e-02	1.82622194e-04
8.06000000e-01	1.12907239e-02	1.83662193e-04
8.07000000e-01	1.13322835e-02	1.85804907e-04
8.08000000e-01	1.15258683e-02	1.90538819e-04
8.09000000e-01	1.15615269e-02	1.93131610e-04
8.10000000e-01	1.13143400e-02	1.91584092e-04
8.11000000e-01	1.13838192e-02	1.94824907e-04
8.12000000e-01	1.13348894e-02	1.97459460e-04
8.13000000e-01	1.14321374e-02	1.99826820e-04
8.14000000e-01	1.14081003e-02	2.01208772e-04
8.15000000e-01	1.13007442e-02	2.03171820e-04
8.16000000e-01	1.12808121e-02	2.05244576e-04
8.17000000e-01	1.12744334e-02	2.07997509e-04
8.18000000e-01	1.13726078e-02	2.12042140e-04
8.19000000e-01	1.10809484e-02	2.09899369e-04
8.20000000e-01	1.12453092e-02	2.15169663e-04
8.21000000e-01	1.11278950e-02	2.15514733e-04
8.22000000e-01	1.13650046e-02	2.22176387e-04
8.23000000e-01	1.11659395e-02	2.21866146e-04
8.24000000e-01	1.13709274e-02	2.29715867e-04
8.25000000e-01	1.12599476e-02	2.30223012e-04
8.26000000e-01	1.14848530e-02	2.37367963e-04
8.27000000e-01	1.11363628e-02	2.35307396e-04
8.28000000e-01	1.10629647e-02	2.37427206e-04
8.29000000e-01	1.09877740e-02	2.39606097e-04
8.30000000e-01	1.13283050e-02	2.48998078e-04
8.31000000e-01	1.11537464e-02	2.50543695e-04
8.32000000e-01	1.12017768e-02	2.54929838e-04
8.33000000e-01	1.08435854e-02	2.53204756e-04
8.34000000e-01	1.12515711e-02	2.66423596e-04
8.35000000e-01	1.08616415e-02	2.63247250e-04
8.36000000e-01	1.11246319e-02	2.71676225e-04
8.37000000e-01	1.07283899e-02	2.70273531e-04
8.38000000e-01	1.10160314e-02	2.81046924e-04
8.39000000e-01	1.10118131e-02	2.86066425e-04
8.40000000e-01	1.11389662e-02	2.95575937e-04
8.41000000e-01	1.09241845e-02	2.98821213e-04
8.42000000e-01	1.09588551e-02	3.04037178e-04
8.43000000e-01	1.10465016e-02	3.14403845e-04
8.44000000e-01	1.07628364e-02	3.15368245e-04
8.45000000e-01	1.10799984e-02	3.32542582e-04
8.46000000e-01	1.13050102e-02	3.45708389e-04
8.47000000e-01	1.10691458e-02	3.48616785e-04
8.48000000e-01	1.08285985e-02	3.56195661e-04
8.49000000e-01	1.05618260e-02	3.55159278e-04
8.50000000e-01	1.07087678e-02	3.73213083e-04
8.51000000e-01	1.10668312e-02	3.98933218e-04
8.52000000e-01	1.08212457e-02	3.99995004e-04
8.53000000e-01	1.07780911e-02	4.25132584e-04
8.54000000e-01	1.01070024e-02	4.17331767e-04
8.55000000e-01	1.05822658e-02	4.51000558e-04
8.56000000e-01	1.05346634e-02	4.56305308e-04
8.57000000e-01	1.08944950e-02	4.84143773e-04
8.58000000e-01	1.08979707e-02	5.03508275e-04
8.59000000e-01	1.02155691e-02	4.84312657e-04
8.60000000e-01	1.15765209e-02	5.67150077e-04
8.61000000e-01	1.02763049e-02	5.14612436e-04
8.62000000e-01	1.05324465e-02	5.60183731e-04
8.63000000e-01	1.06193093e-02	5.89500810e-04
8.64000000e-01	1.00015478e-02	5.72940922e-04
8.65000000e-01	1.02928073e-02	6.36267687e-04
8.66000000e-01	1.05209113e-02	6.73708504e-04
8.67000000e-01	9.80666511e-03	6.59936843e-04
8.68000000e-01	1.02976676e-02	7.55509904e-04
8.69000000e-01	1.06328475e-02	8.03744401e-04
8.70000000e-01	1.06341333e-02	8.95358441e-04
8.71000000e-01	9.31204312e-03	8.68734843e-04
8.72000000e-01	1.06705911e-02	1.10108159e-03
8.73000000e-01	1.10025336e-02	1.29441613e-03
8.74000000e-01	1.06275916e-02	1.67069755e-03
8.75000000e-01	9.39443704e-03	3.52129116e-03
