% Filename : SDL1_00022_00034.h5
% Date & Time : 30-Oct-2025 16:49:51
% X-ray Energy (keV) : 13.30001
% Exposure Time (s) : 0.500
% Beam Center : 1461.24000, 208.98300
% Sample to Detector Distance (SDD) (mm) : 1990.750
% Detector Pixel Size (mm) : 0.075
% Photodiode Value : 141350.000
% I0 of Sample : 0
% I0 of Standard : 1
% 
% q(A^-1)   I(q)    I(q)_SE
0.00000000e+00	7.66893839e-03	4.04189072e-03
2.50000000e-04	0.00000000e+00	0.00000000e+00
5.00000000e-04	0.00000000e+00	0.00000000e+00
7.50000000e-04	0.00000000e+00	0.00000000e+00
1.00000000e-03	0.00000000e+00	0.00000000e+00
1.25000000e-03	0.00000000e+00	0.00000000e+00
1.50000000e-03	0.00000000e+00	0.00000000e+00
1.75000000e-03	0.00000000e+00	0.00000000e+00
2.00000000e-03	0.00000000e+00	0.00000000e+00
2.25000000e-03	0.00000000e+00	0.00000000e+00
2.50000000e-03	0.00000000e+00	0.00000000e+00
2.75000000e-03	0.00000000e+00	0.00000000e+00
3.00000000e-03	0.00000000e+00	0.00000000e+00
3.25000000e-03	4.56794523e+02	2.70300784e+02
3.50000000e-03	1.30400328e+02	4.66811367e+01
3.75000000e-03	8.68705455e+01	2.94347508e+01
4.00000000e-03	7.47798236e+01	2.35424163e+01
4.25000000e-03	4.46872131e+01	1.41153612e+01
4.50000000e-03	4.55929907e+01	1.10037361e+01
4.75000000e-03	4.79188070e+01	1.00747571e+01
5.00000000e-03	3.70445980e+01	7.67647174e+00
5.25000000e-03	3.14574500e+01	6.81639831e+00
5.50000000e-03	2.59750717e+01	5.48226218e+00
5.75000000e-03	2.12610500e+01	4.15136953e+00
6.00000000e-03	1.69085677e+01	3.31945619e+00
6.25000000e-03	1.48182031e+01	2.85932473e+00
6.50000000e-03	1.25197092e+01	2.30001152e+00
6.75000000e-03	1.10783940e+01	2.02350166e+00
7.00000000e-03	9.71080943e+00	1.70155534e+00
7.25000000e-03	7.92497342e+00	1.32750353e+00
7.50000000e-03	6.55963921e+00	1.04262807e+00
7.75000000e-03	6.07183390e+00	9.69285686e-01
8.00000000e-03	5.66541307e+00	8.94070083e-01
8.25000000e-03	4.76549462e+00	6.93010670e-01
8.50000000e-03	4.18754722e+00	6.11565176e-01
8.75000000e-03	3.72396316e+00	5.29784374e-01
9.00000000e-03	3.61733186e+00	5.62606341e-01
9.25000000e-03	3.17383003e+00	4.48327384e-01
9.50000000e-03	2.89874930e+00	4.14771309e-01
9.75000000e-03	2.50443246e+00	3.18936116e-01
1.00000000e-02	2.11158089e+00	2.51660517e-01
1.02500000e-02	2.02968725e+00	2.55627500e-01
1.05000000e-02	1.84912603e+00	2.21207628e-01
1.07500000e-02	1.74492329e+00	2.18782611e-01
1.10000000e-02	1.55759033e+00	1.83314260e-01
1.12500000e-02	1.51482410e+00	1.93412716e-01
1.15000000e-02	1.37634499e+00	1.60497192e-01
1.17500000e-02	1.19799649e+00	1.26797657e-01
1.20000000e-02	1.14274475e+00	1.24925884e-01
1.22500000e-02	1.04874953e+00	1.13934748e-01
1.25000000e-02	9.59524528e-01	9.62866114e-02
1.27500000e-02	8.94365418e-01	8.66719750e-02
1.30000000e-02	8.42422953e-01	7.87789878e-02
1.32500000e-02	7.98378169e-01	7.63619009e-02
1.35000000e-02	7.58827072e-01	6.93024314e-02
1.37500000e-02	6.99586917e-01	6.32656499e-02
1.40000000e-02	6.56749038e-01	6.01543053e-02
1.42500000e-02	6.05242818e-01	5.27632606e-02
1.45000000e-02	5.74556031e-01	4.96636579e-02
1.47500000e-02	5.34491034e-01	4.40237494e-02
1.50000000e-02	4.97528063e-01	4.04052359e-02
1.52500000e-02	4.83436020e-01	3.92954571e-02
1.55000000e-02	4.49654130e-01	3.52993996e-02
1.57500000e-02	4.17662478e-01	3.25174068e-02
1.60000000e-02	4.00817658e-01	3.04030116e-02
1.62500000e-02	3.85424744e-01	2.97716011e-02
1.65000000e-02	3.58959947e-01	2.67096332e-02
1.67500000e-02	3.38715778e-01	2.43925456e-02
1.70000000e-02	3.21492204e-01	2.29222554e-02
1.72500000e-02	3.09012434e-01	2.20952971e-02
1.75000000e-02	2.92853498e-01	2.02769727e-02
1.77500000e-02	2.72643757e-01	1.84018672e-02
1.80000000e-02	2.63286433e-01	1.77603963e-02
1.82500000e-02	2.48168080e-01	1.59582720e-02
1.85000000e-02	2.41112329e-01	1.64441426e-02
1.87500000e-02	2.27525661e-01	1.47047574e-02
1.90000000e-02	2.16734468e-01	1.39644911e-02
1.92500000e-02	2.06274301e-01	1.31659583e-02
1.95000000e-02	1.96201641e-01	1.23249199e-02
1.97500000e-02	1.90334884e-01	1.19389583e-02
2.00000000e-02	1.77951699e-01	1.07777527e-02
2.02500000e-02	1.68622527e-01	9.99796083e-03
2.05000000e-02	1.65507646e-01	9.81272394e-03
2.07500000e-02	1.60472241e-01	9.44252626e-03
2.10000000e-02	1.54002375e-01	9.19851087e-03
2.12500000e-02	1.50981435e-01	8.89653088e-03
2.15000000e-02	1.42513757e-01	8.32964909e-03
2.17500000e-02	1.39441221e-01	8.10575395e-03
2.20000000e-02	1.33761404e-01	7.75248766e-03
2.22500000e-02	1.29472569e-01	7.40534397e-03
2.25000000e-02	1.26972690e-01	7.33890995e-03
2.27500000e-02	1.22448710e-01	6.98761559e-03
2.30000000e-02	1.20953299e-01	6.94003031e-03
2.32500000e-02	1.13212330e-01	6.34669385e-03
2.35000000e-02	1.11338467e-01	6.27239826e-03
2.37500000e-02	1.06876381e-01	5.99586344e-03
2.40000000e-02	1.03397381e-01	5.82850436e-03
2.42500000e-02	1.02229147e-01	5.68810283e-03
2.45000000e-02	9.73332211e-02	5.36501077e-03
2.47500000e-02	9.25842767e-02	5.07544565e-03
2.50000000e-02	9.22698381e-02	5.15085996e-03
2.52500000e-02	8.83951028e-02	4.86950267e-03
2.55000000e-02	8.65207822e-02	4.57440832e-03
2.57500000e-02	8.44161534e-02	4.52209962e-03
2.60000000e-02	8.15031105e-02	4.29555438e-03
2.62500000e-02	7.91829614e-02	4.22158704e-03
2.65000000e-02	7.64889699e-02	4.03432897e-03
2.67500000e-02	7.48170173e-02	3.89086836e-03
2.70000000e-02	7.42528818e-02	3.93452377e-03
2.72500000e-02	7.19336765e-02	3.72951031e-03
2.75000000e-02	7.07946222e-02	3.78095046e-03
2.77500000e-02	6.85599781e-02	3.57500594e-03
2.80000000e-02	6.79358763e-02	3.46070668e-03
2.82500000e-02	6.51410365e-02	3.33250519e-03
2.85000000e-02	6.45605449e-02	3.28316374e-03
2.87500000e-02	6.42208203e-02	3.28839624e-03
2.90000000e-02	6.25432604e-02	3.23231723e-03
2.92500000e-02	6.18667297e-02	3.05582032e-03
2.95000000e-02	6.15333142e-02	3.10316405e-03
2.97500000e-02	5.92022250e-02	2.92798885e-03
3.00000000e-02	5.71439043e-02	2.84754436e-03
3.02500000e-02	5.66292818e-02	2.84805181e-03
3.05000000e-02	5.55999763e-02	2.70689826e-03
3.07500000e-02	5.44723843e-02	2.65517386e-03
3.10000000e-02	5.43182434e-02	2.64256825e-03
3.12500000e-02	5.30881725e-02	2.61974625e-03
3.15000000e-02	5.15528143e-02	2.50476183e-03
3.17500000e-02	4.95217843e-02	2.33741564e-03
3.20000000e-02	4.93141304e-02	2.38121248e-03
3.22500000e-02	4.92262603e-02	2.37202076e-03
3.25000000e-02	4.86922343e-02	2.35084198e-03
3.27500000e-02	4.70014503e-02	2.23178620e-03
3.30000000e-02	4.67665532e-02	2.18388157e-03
3.32500000e-02	4.55018511e-02	2.12334790e-03
3.35000000e-02	4.41595593e-02	2.11079692e-03
3.37500000e-02	4.50172859e-02	2.10482358e-03
3.40000000e-02	4.38212742e-02	2.03999242e-03
3.42500000e-02	4.35984580e-02	2.02403816e-03
3.45000000e-02	4.19294627e-02	1.92689935e-03
3.47500000e-02	4.18367609e-02	1.95602151e-03
3.50000000e-02	4.13690143e-02	1.90875753e-03
3.52500000e-02	4.08212276e-02	1.87794353e-03
3.55000000e-02	3.93095063e-02	1.80175280e-03
3.57500000e-02	3.96156257e-02	1.83872237e-03
3.60000000e-02	3.82462305e-02	1.74159471e-03
3.62500000e-02	3.79974039e-02	1.75956771e-03
3.65000000e-02	3.77243213e-02	1.71999871e-03
3.67500000e-02	3.79127886e-02	1.72712597e-03
3.70000000e-02	3.73481689e-02	1.70085919e-03
3.72500000e-02	3.67679110e-02	1.65500450e-03
3.75000000e-02	3.58895296e-02	1.62513579e-03
3.77500000e-02	3.53838385e-02	1.59436563e-03
3.80000000e-02	3.58047633e-02	1.59032099e-03
3.82500000e-02	3.52234000e-02	1.55693601e-03
3.85000000e-02	3.41208663e-02	1.53427326e-03
3.87500000e-02	3.39522043e-02	1.49551188e-03
3.90000000e-02	3.40313789e-02	1.50428235e-03
3.92500000e-02	3.28756973e-02	1.43980871e-03
3.95000000e-02	3.37052030e-02	1.49315872e-03
3.97500000e-02	3.32936429e-02	1.46346911e-03
4.00000000e-02	3.26094626e-02	1.43310800e-03
4.02500000e-02	3.24198192e-02	1.42058196e-03
4.05000000e-02	3.21345685e-02	1.38772125e-03
4.07500000e-02	3.11261737e-02	1.34177630e-03
4.10000000e-02	3.11027037e-02	1.34693441e-03
4.12500000e-02	3.12339527e-02	1.34833977e-03
4.15000000e-02	2.91482532e-02	1.24883488e-03
4.17500000e-02	3.05294921e-02	1.30804210e-03
4.20000000e-02	3.03507251e-02	1.28101236e-03
4.22500000e-02	2.95401682e-02	1.26659917e-03
4.25000000e-02	2.91317849e-02	1.24268091e-03
4.27500000e-02	2.93894201e-02	1.24589755e-03
4.30000000e-02	2.88647241e-02	1.22695901e-03
4.32500000e-02	2.95900720e-02	1.24277527e-03
4.35000000e-02	2.92393789e-02	1.23272484e-03
4.37500000e-02	2.88418082e-02	1.19475808e-03
4.40000000e-02	2.85193923e-02	1.20062012e-03
4.42500000e-02	2.80365163e-02	1.17137057e-03
4.45000000e-02	2.84752159e-02	1.17801282e-03
4.47500000e-02	2.72927678e-02	1.13374001e-03
4.50000000e-02	2.73522660e-02	1.14650921e-03
4.52500000e-02	2.70101313e-02	1.12200761e-03
4.55000000e-02	2.77225404e-02	1.14290768e-03
4.57500000e-02	2.76026458e-02	1.12602683e-03
4.60000000e-02	2.74579111e-02	1.12304710e-03
4.62500000e-02	2.69205720e-02	1.10989711e-03
4.65000000e-02	2.71188517e-02	1.09759492e-03
4.67500000e-02	2.65314855e-02	1.07244866e-03
4.70000000e-02	2.63781241e-02	1.06565145e-03
4.72500000e-02	2.58815342e-02	1.05093686e-03
4.75000000e-02	2.65262402e-02	1.08346752e-03
4.77500000e-02	2.59940743e-02	1.04931075e-03
4.80000000e-02	2.68473997e-02	1.07725119e-03
4.82500000e-02	2.61320800e-02	1.05766582e-03
4.85000000e-02	2.68340052e-02	1.09011222e-03
4.87500000e-02	2.57405046e-02	1.04448477e-03
4.90000000e-02	2.49241036e-02	9.98708766e-04
4.92500000e-02	2.53281228e-02	1.00822998e-03
4.95000000e-02	2.46305352e-02	9.76628442e-04
4.97500000e-02	2.50426945e-02	1.00595197e-03
5.00000000e-02	2.53016269e-02	1.00933166e-03
5.02500000e-02	2.52238059e-02	9.93825750e-04
5.05000000e-02	2.53204578e-02	9.96190383e-04
5.07500000e-02	2.49435436e-02	9.87526063e-04
5.10000000e-02	2.40359419e-02	9.52663695e-04
5.12500000e-02	2.47639012e-02	9.69826097e-04
5.15000000e-02	2.36812181e-02	9.26513436e-04
5.17500000e-02	2.42766164e-02	9.62942962e-04
5.20000000e-02	2.41487893e-02	9.50587599e-04
5.22500000e-02	2.46520113e-02	9.73421839e-04
5.25000000e-02	2.43794648e-02	9.51072265e-04
5.27500000e-02	2.41982244e-02	9.41247130e-04
5.30000000e-02	2.37000809e-02	9.35174834e-04
5.32500000e-02	2.48135487e-02	9.57024172e-04
5.35000000e-02	2.41039491e-02	9.35253301e-04
5.37500000e-02	2.38606540e-02	9.16823315e-04
5.40000000e-02	2.40784931e-02	9.20059937e-04
5.42500000e-02	2.39299785e-02	9.14543699e-04
5.45000000e-02	2.38645960e-02	9.26899749e-04
5.47500000e-02	2.30252921e-02	8.87043935e-04
5.50000000e-02	2.34014459e-02	9.02282841e-04
5.52500000e-02	2.32749083e-02	8.98424083e-04
5.55000000e-02	2.28668257e-02	8.67164386e-04
5.57500000e-02	2.33309432e-02	8.96807287e-04
5.60000000e-02	2.25086574e-02	8.61611901e-04
5.62500000e-02	2.34571727e-02	8.88929602e-04
5.65000000e-02	2.24702653e-02	8.47423521e-04
5.67500000e-02	2.25560400e-02	8.58631538e-04
5.70000000e-02	2.28496665e-02	8.61082437e-04
5.72500000e-02	2.34590006e-02	8.84013850e-04
5.75000000e-02	2.27034757e-02	8.65334333e-04
5.77500000e-02	2.26708459e-02	8.48442661e-04
5.80000000e-02	2.27728155e-02	8.61805217e-04
5.82500000e-02	2.23810951e-02	8.41939625e-04
5.85000000e-02	2.30477033e-02	8.62510030e-04
5.87500000e-02	2.22516095e-02	8.35968472e-04
5.90000000e-02	2.28096286e-02	8.60007615e-04
5.92500000e-02	2.24971454e-02	8.31827499e-04
5.95000000e-02	2.29433189e-02	8.51298619e-04
5.97500000e-02	2.21185201e-02	8.24937320e-04
6.00000000e-02	2.24521191e-02	8.34329140e-04
6.02500000e-02	2.21408376e-02	8.23851693e-04
6.05000000e-02	2.17991233e-02	8.03681618e-04
6.07500000e-02	2.25714294e-02	8.36345030e-04
6.10000000e-02	2.26832996e-02	8.30278993e-04
6.12500000e-02	2.23724345e-02	8.21052741e-04
6.15000000e-02	2.18239177e-02	8.00250245e-04
6.17500000e-02	2.24789472e-02	8.23427859e-04
6.20000000e-02	2.26420582e-02	8.22171588e-04
6.22500000e-02	2.18367446e-02	8.02201203e-04
6.25000000e-02	2.22381630e-02	8.12334391e-04
6.27500000e-02	2.22996829e-02	8.12916108e-04
6.30000000e-02	2.20828838e-02	8.03149791e-04
6.32500000e-02	2.19226148e-02	7.98587846e-04
6.35000000e-02	2.13852331e-02	7.85852833e-04
6.37500000e-02	2.19707485e-02	7.99393471e-04
6.40000000e-02	2.19397417e-02	7.96607534e-04
6.42500000e-02	2.17844397e-02	7.81468575e-04
6.45000000e-02	2.13878997e-02	7.73494968e-04
6.47500000e-02	2.19965598e-02	7.88766591e-04
6.50000000e-02	2.20979102e-02	7.91798838e-04
6.52500000e-02	2.20215239e-02	7.86852768e-04
6.55000000e-02	2.23787376e-02	7.98701394e-04
6.57500000e-02	2.12217028e-02	7.55359407e-04
6.60000000e-02	2.11123355e-02	7.53011549e-04
6.62500000e-02	2.19936041e-02	7.85444331e-04
6.65000000e-02	2.10941607e-02	7.51663127e-04
6.67500000e-02	2.09396960e-02	7.45077620e-04
6.70000000e-02	2.11293094e-02	7.52334825e-04
6.72500000e-02	2.14224821e-02	7.65561913e-04
6.75000000e-02	2.09036333e-02	7.32469421e-04
6.77500000e-02	2.13357749e-02	7.49610440e-04
6.80000000e-02	2.13802380e-02	7.57542956e-04
6.82500000e-02	2.18045795e-02	7.68121133e-04
6.85000000e-02	2.10620820e-02	7.47185775e-04
6.87500000e-02	2.05416202e-02	7.26383896e-04
6.90000000e-02	2.09921729e-02	7.36501035e-04
6.92500000e-02	2.17406651e-02	7.58905601e-04
6.95000000e-02	2.08016039e-02	7.32852374e-04
6.97500000e-02	2.09735239e-02	7.37630730e-04
7.00000000e-02	2.14350326e-02	7.44254758e-04
7.02500000e-02	2.05434555e-02	7.15662621e-04
7.05000000e-02	2.14157555e-02	7.41954146e-04
7.07500000e-02	2.19007163e-02	7.65749159e-04
7.10000000e-02	2.09920708e-02	7.27110271e-04
7.12500000e-02	2.03512547e-02	7.07515744e-04
7.15000000e-02	2.10165090e-02	7.21297179e-04
7.17500000e-02	2.11550223e-02	7.22005272e-04
7.20000000e-02	2.11067550e-02	7.32359336e-04
7.22500000e-02	2.10776309e-02	7.27960015e-04
7.25000000e-02	2.11613720e-02	7.24843716e-04
7.27500000e-02	2.11553707e-02	7.24734983e-04
7.30000000e-02	2.11697484e-02	7.22880772e-04
7.32500000e-02	2.06848220e-02	7.07813688e-04
7.35000000e-02	2.03094924e-02	6.97805693e-04
7.37500000e-02	2.11340327e-02	7.20592806e-04
7.40000000e-02	2.09421142e-02	7.11130218e-04
7.42500000e-02	2.08541390e-02	7.13382441e-04
7.45000000e-02	2.03316344e-02	6.91858057e-04
7.47500000e-02	2.08230482e-02	7.09388005e-04
7.50000000e-02	2.17492294e-02	7.33145011e-04
7.52500000e-02	2.07946135e-02	7.06990844e-04
7.55000000e-02	2.11249649e-02	7.16281144e-04
7.57500000e-02	2.08075048e-02	7.02025359e-04
7.60000000e-02	2.06327738e-02	7.02844198e-04
7.62500000e-02	2.09660490e-02	7.03911157e-04
7.65000000e-02	2.10534699e-02	7.12967406e-04
7.67500000e-02	2.06893893e-02	6.94902643e-04
7.70000000e-02	2.04042148e-02	6.85177879e-04
7.72500000e-02	2.07366776e-02	7.04560276e-04
7.75000000e-02	2.09225496e-02	7.23358581e-04
7.77500000e-02	2.12663106e-02	7.33124277e-04
7.80000000e-02	2.03389917e-02	7.09413386e-04
7.82500000e-02	2.06251410e-02	7.25211139e-04
7.85000000e-02	2.06304384e-02	7.31536468e-04
7.87500000e-02	2.06088170e-02	7.25482900e-04
7.90000000e-02	2.08153950e-02	7.39920855e-04
7.92500000e-02	2.10799319e-02	7.48323153e-04
7.95000000e-02	2.02863873e-02	7.22615824e-04
7.97500000e-02	2.09574485e-02	7.45854573e-04
8.00000000e-02	2.07770723e-02	7.43214181e-04
8.02500000e-02	2.10418329e-02	7.48524579e-04
8.05000000e-02	2.07652142e-02	7.39808237e-04
8.07500000e-02	2.05174466e-02	7.42449675e-04
8.10000000e-02	2.10452864e-02	7.56043290e-04
8.12500000e-02	2.01824399e-02	7.34272001e-04
8.15000000e-02	2.02325948e-02	7.22694899e-04
8.17500000e-02	2.08240756e-02	7.54335735e-04
8.20000000e-02	2.03110376e-02	7.34761161e-04
8.22500000e-02	2.07201544e-02	7.52299284e-04
8.25000000e-02	2.02872959e-02	7.40868714e-04
8.27500000e-02	2.07810497e-02	7.50877449e-04
8.30000000e-02	2.04985666e-02	7.48100967e-04
8.32500000e-02	2.07848207e-02	7.60334909e-04
8.35000000e-02	2.03291512e-02	7.51586816e-04
8.37500000e-02	2.08040905e-02	7.50130236e-04
8.40000000e-02	2.04414433e-02	7.49003612e-04
8.42500000e-02	2.05493176e-02	7.53862258e-04
8.45000000e-02	2.08567931e-02	7.69419596e-04
8.47500000e-02	2.07997591e-02	7.69840767e-04
8.50000000e-02	2.02658503e-02	7.43252827e-04
8.52500000e-02	2.05581319e-02	7.69437940e-04
8.55000000e-02	2.04741706e-02	7.49483154e-04
8.57500000e-02	2.05849657e-02	7.66884487e-04
8.60000000e-02	2.02012087e-02	7.54582184e-04
8.62500000e-02	2.00407857e-02	7.35563732e-04
8.65000000e-02	2.03030374e-02	7.53146942e-04
8.67500000e-02	2.00344843e-02	7.39741305e-04
8.70000000e-02	1.97259172e-02	7.19366740e-04
8.72500000e-02	1.97489965e-02	7.09789416e-04
8.75000000e-02	1.98278421e-02	7.04284153e-04
8.77500000e-02	2.07318033e-02	7.25442500e-04
8.80000000e-02	2.00565621e-02	7.08575380e-04
8.82500000e-02	2.02602353e-02	7.07553021e-04
8.85000000e-02	2.06313854e-02	7.21966133e-04
8.87500000e-02	2.06907463e-02	7.16185855e-04
8.90000000e-02	2.03164879e-02	7.02193488e-04
8.92500000e-02	2.03738128e-02	6.93529959e-04
8.95000000e-02	2.05478815e-02	7.02607778e-04
8.97500000e-02	2.09596530e-02	7.08498689e-04
9.00000000e-02	2.08512046e-02	7.04773735e-04
9.02500000e-02	1.99614968e-02	6.80225960e-04
9.05000000e-02	2.05185534e-02	6.96798448e-04
9.07500000e-02	2.02256826e-02	6.82239437e-04
9.10000000e-02	2.07133170e-02	6.93230941e-04
9.12500000e-02	2.05888273e-02	6.87268920e-04
9.15000000e-02	2.03826110e-02	6.77133005e-04
9.17500000e-02	2.03080602e-02	6.88447926e-04
9.20000000e-02	1.99255002e-02	6.64921962e-04
9.22500000e-02	1.99433052e-02	6.67692405e-04
9.25000000e-02	1.97242743e-02	6.60795611e-04
9.27500000e-02	2.04612618e-02	6.74213957e-04
9.30000000e-02	2.00045729e-02	6.60044552e-04
9.32500000e-02	2.05091052e-02	6.82541663e-04
9.35000000e-02	2.00987275e-02	6.61934452e-04
9.37500000e-02	2.00979565e-02	6.61279571e-04
9.40000000e-02	2.01554090e-02	6.61245343e-04
9.42500000e-02	2.00330412e-02	6.54807771e-04
9.45000000e-02	2.01136040e-02	6.55770513e-04
9.47500000e-02	2.04077152e-02	6.66793658e-04
9.50000000e-02	2.02729426e-02	6.63718208e-04
9.52500000e-02	2.02808469e-02	6.59641625e-04
9.55000000e-02	2.02618687e-02	6.59264930e-04
9.57500000e-02	2.05948086e-02	6.63764210e-04
9.60000000e-02	1.96646910e-02	6.36074656e-04
9.62500000e-02	1.98025336e-02	6.40106431e-04
9.65000000e-02	2.03993617e-02	6.54067597e-04
9.67500000e-02	2.01372160e-02	6.46552809e-04
9.70000000e-02	2.04132628e-02	6.56644506e-04
9.72500000e-02	2.01160012e-02	6.43520427e-04
9.75000000e-02	1.97919997e-02	6.35456388e-04
9.77500000e-02	1.97063735e-02	6.29148411e-04
9.80000000e-02	2.04438461e-02	6.51960060e-04
9.82500000e-02	2.00538648e-02	6.42505236e-04
9.85000000e-02	2.01656023e-02	6.42821952e-04
9.87500000e-02	2.00646561e-02	6.39567655e-04
9.90000000e-02	2.02327371e-02	6.43416954e-04
9.92500000e-02	2.01091828e-02	6.35436764e-04
9.95000000e-02	2.02830018e-02	6.39930498e-04
9.97500000e-02	2.02822246e-02	6.38895706e-04
1.00000000e-01	2.01866189e-02	5.18454101e-04
1.00500000e-01	2.01210800e-02	4.51068304e-04
1.01000000e-01	2.04927928e-02	4.52510226e-04
1.01500000e-01	1.97061206e-02	4.36850084e-04
1.02000000e-01	2.02942196e-02	4.45557271e-04
1.02500000e-01	2.00747767e-02	4.41814686e-04
1.03000000e-01	1.97892895e-02	4.35946363e-04
1.03500000e-01	2.03691525e-02	4.42545228e-04
1.04000000e-01	1.97612709e-02	4.28867599e-04
1.04500000e-01	1.99241562e-02	4.32998195e-04
1.05000000e-01	1.99132973e-02	4.29289035e-04
1.05500000e-01	2.03600877e-02	4.38624850e-04
1.06000000e-01	1.99562024e-02	4.29882750e-04
1.06500000e-01	2.01052474e-02	4.28623900e-04
1.07000000e-01	2.01763688e-02	4.38222463e-04
1.07500000e-01	1.96578645e-02	4.35638162e-04
1.08000000e-01	1.98417083e-02	4.45341180e-04
1.08500000e-01	1.97413929e-02	4.44760292e-04
1.09000000e-01	1.98781144e-02	4.51552003e-04
1.09500000e-01	1.99001541e-02	4.53232329e-04
1.10000000e-01	1.96714483e-02	4.44081097e-04
1.10500000e-01	2.00891537e-02	4.43430313e-04
1.11000000e-01	1.98558003e-02	4.30121444e-04
1.11500000e-01	2.01904872e-02	4.33907095e-04
1.12000000e-01	2.00840217e-02	4.26906044e-04
1.12500000e-01	2.00696689e-02	4.22049489e-04
1.13000000e-01	2.01392066e-02	4.25999568e-04
1.13500000e-01	1.98787510e-02	4.19302389e-04
1.14000000e-01	2.00024662e-02	4.18676953e-04
1.14500000e-01	1.97851381e-02	4.17236913e-04
1.15000000e-01	2.00623380e-02	4.18017510e-04
1.15500000e-01	2.01093577e-02	4.17734988e-04
1.16000000e-01	2.00944941e-02	4.18170724e-04
1.16500000e-01	1.98575611e-02	4.11871272e-04
1.17000000e-01	1.98426136e-02	4.09224233e-04
1.17500000e-01	1.99704996e-02	4.11657701e-04
1.18000000e-01	1.98858508e-02	4.08613307e-04
1.18500000e-01	2.01357264e-02	4.13300174e-04
1.19000000e-01	1.99587257e-02	4.06684153e-04
1.19500000e-01	1.97662813e-02	4.02343623e-04
1.20000000e-01	1.96999056e-02	3.99971000e-04
1.20500000e-01	2.01971803e-02	4.09880751e-04
1.21000000e-01	1.97983120e-02	4.00825018e-04
1.21500000e-01	1.99376164e-02	4.05124956e-04
1.22000000e-01	1.95894468e-02	3.95848434e-04
1.22500000e-01	1.98620214e-02	3.98771043e-04
1.23000000e-01	1.98719839e-02	3.98439483e-04
1.23500000e-01	1.97526819e-02	3.96040783e-04
1.24000000e-01	1.98100578e-02	3.98148693e-04
1.24500000e-01	2.02612772e-02	4.04320568e-04
1.25000000e-01	1.99179023e-02	3.97389274e-04
1.25500000e-01	1.95953460e-02	3.89822128e-04
1.26000000e-01	2.00565029e-02	3.97261092e-04
1.26500000e-01	1.97140323e-02	3.91530804e-04
1.27000000e-01	1.99079298e-02	3.92174416e-04
1.27500000e-01	1.98477362e-02	3.90132019e-04
1.28000000e-01	1.97676756e-02	3.90114773e-04
1.28500000e-01	1.97965667e-02	3.87843433e-04
1.29000000e-01	1.95506677e-02	3.83224553e-04
1.29500000e-01	1.99014958e-02	3.89453553e-04
1.30000000e-01	1.97802112e-02	3.87424304e-04
1.30500000e-01	2.00863193e-02	3.89454093e-04
1.31000000e-01	1.99429929e-02	3.85788591e-04
1.31500000e-01	1.96265077e-02	3.80106523e-04
1.32000000e-01	1.98073650e-02	3.83945737e-04
1.32500000e-01	1.95534221e-02	3.79450185e-04
1.33000000e-01	1.94408612e-02	3.75570956e-04
1.33500000e-01	1.96522949e-02	3.73886771e-04
1.34000000e-01	1.99495271e-02	3.82093422e-04
1.34500000e-01	1.99264718e-02	3.78929081e-04
1.35000000e-01	1.98372380e-02	3.78187771e-04
1.35500000e-01	1.96566677e-02	3.74243191e-04
1.36000000e-01	1.98416148e-02	3.75933821e-04
1.36500000e-01	2.02215479e-02	3.85269801e-04
1.37000000e-01	1.96995552e-02	3.72766922e-04
1.37500000e-01	1.98991013e-02	3.77321989e-04
1.38000000e-01	2.00789648e-02	3.77891231e-04
1.38500000e-01	1.96792094e-02	3.71243447e-04
1.39000000e-01	1.95869978e-02	3.69318637e-04
1.39500000e-01	2.00403605e-02	3.76097732e-04
1.40000000e-01	1.95898202e-02	3.68811002e-04
1.40500000e-01	1.97575777e-02	3.72256384e-04
1.41000000e-01	1.95072592e-02	3.65184894e-04
1.41500000e-01	1.98949573e-02	3.73509997e-04
1.42000000e-01	1.96430461e-02	3.68473036e-04
1.42500000e-01	1.95404007e-02	3.66451846e-04
1.43000000e-01	1.97741705e-02	3.68424573e-04
1.43500000e-01	1.93833445e-02	3.61053604e-04
1.44000000e-01	1.97322338e-02	3.66108777e-04
1.44500000e-01	2.00518079e-02	3.69077980e-04
1.45000000e-01	1.95537179e-02	3.61932003e-04
1.45500000e-01	1.97080685e-02	3.63027181e-04
1.46000000e-01	1.91455827e-02	3.53384916e-04
1.46500000e-01	1.97145727e-02	3.63651553e-04
1.47000000e-01	1.97680891e-02	3.62708257e-04
1.47500000e-01	1.95689544e-02	3.59041216e-04
1.48000000e-01	1.93992351e-02	3.57379738e-04
1.48500000e-01	1.96960540e-02	3.59095009e-04
1.49000000e-01	1.94442791e-02	3.54377837e-04
1.49500000e-01	1.93855927e-02	3.52260573e-04
1.50000000e-01	1.94911918e-02	3.54665926e-04
1.50500000e-01	1.93513519e-02	3.53608268e-04
1.51000000e-01	1.93378455e-02	3.51509493e-04
1.51500000e-01	1.95951255e-02	3.54486946e-04
1.52000000e-01	1.94187425e-02	3.48934784e-04
1.52500000e-01	1.94411052e-02	3.49352118e-04
1.53000000e-01	1.95116110e-02	3.51573509e-04
1.53500000e-01	1.93917004e-02	3.49432114e-04
1.54000000e-01	1.94101405e-02	3.48099195e-04
1.54500000e-01	1.93515877e-02	3.53678243e-04
1.55000000e-01	1.90466720e-02	3.52934071e-04
1.55500000e-01	1.95040127e-02	3.63755464e-04
1.56000000e-01	1.92084617e-02	3.60439073e-04
1.56500000e-01	1.93736523e-02	3.62753305e-04
1.57000000e-01	1.91972186e-02	3.60290791e-04
1.57500000e-01	1.93656532e-02	3.55805798e-04
1.58000000e-01	1.92580712e-02	3.47961754e-04
1.58500000e-01	1.92460292e-02	3.47679750e-04
1.59000000e-01	1.88629414e-02	3.38385085e-04
1.59500000e-01	1.89883052e-02	3.41854739e-04
1.60000000e-01	1.92071598e-02	3.45514180e-04
1.60500000e-01	1.92509631e-02	3.42316943e-04
1.61000000e-01	1.92258920e-02	3.42772351e-04
1.61500000e-01	1.92190863e-02	3.40778052e-04
1.62000000e-01	1.90796614e-02	3.38273809e-04
1.62500000e-01	1.92246367e-02	3.40297857e-04
1.63000000e-01	1.91546379e-02	3.36402657e-04
1.63500000e-01	1.90000295e-02	3.36582301e-04
1.64000000e-01	1.92592708e-02	3.37675618e-04
1.64500000e-01	1.93025702e-02	3.39290332e-04
1.65000000e-01	1.88124956e-02	3.30485650e-04
1.65500000e-01	1.91337384e-02	3.34644182e-04
1.66000000e-01	1.90819364e-02	3.33390917e-04
1.66500000e-01	1.92556062e-02	3.34912323e-04
1.67000000e-01	1.88915564e-02	3.29243626e-04
1.67500000e-01	1.87945476e-02	3.27331347e-04
1.68000000e-01	1.93683592e-02	3.36367247e-04
1.68500000e-01	1.90752065e-02	3.31746231e-04
1.69000000e-01	1.89499060e-02	3.27752032e-04
1.69500000e-01	1.91078354e-02	3.29356818e-04
1.70000000e-01	1.90769185e-02	3.28514888e-04
1.70500000e-01	1.91010550e-02	3.28334032e-04
1.71000000e-01	1.89471815e-02	3.26080162e-04
1.71500000e-01	1.88724029e-02	3.24486811e-04
1.72000000e-01	1.86291877e-02	3.18460162e-04
1.72500000e-01	1.91249755e-02	3.27443587e-04
1.73000000e-01	1.86272313e-02	3.19125336e-04
1.73500000e-01	1.90296739e-02	3.22931858e-04
1.74000000e-01	1.90826123e-02	3.23774227e-04
1.74500000e-01	1.89152261e-02	3.19869166e-04
1.75000000e-01	1.89260795e-02	3.19055632e-04
1.75500000e-01	1.86295609e-02	3.14979661e-04
1.76000000e-01	1.87880731e-02	3.16444781e-04
1.76500000e-01	1.88415620e-02	3.18667923e-04
1.77000000e-01	1.89164235e-02	3.17556354e-04
1.77500000e-01	1.87748225e-02	3.16658941e-04
1.78000000e-01	1.89096469e-02	3.15636721e-04
1.78500000e-01	1.89821610e-02	3.18895878e-04
1.79000000e-01	1.88633201e-02	3.15826117e-04
1.79500000e-01	1.89899079e-02	3.18078818e-04
1.80000000e-01	1.88708780e-02	3.17084948e-04
1.80500000e-01	1.89345948e-02	3.17206493e-04
1.81000000e-01	1.86825094e-02	3.12378528e-04
1.81500000e-01	1.85679081e-02	3.11168795e-04
1.82000000e-01	1.87117787e-02	3.12978138e-04
1.82500000e-01	1.86846267e-02	3.10601901e-04
1.83000000e-01	1.88228020e-02	3.12975170e-04
1.83500000e-01	1.85679173e-02	3.08652958e-04
1.84000000e-01	1.86870026e-02	3.09381380e-04
1.84500000e-01	1.87115352e-02	3.10653500e-04
1.85000000e-01	1.84329230e-02	3.05289248e-04
1.85500000e-01	1.86902642e-02	3.09025212e-04
1.86000000e-01	1.84818200e-02	3.05568619e-04
1.86500000e-01	1.86539016e-02	3.06620396e-04
1.87000000e-01	1.85705416e-02	3.06069858e-04
1.87500000e-01	1.86146858e-02	3.05862714e-04
1.88000000e-01	1.86740741e-02	3.07261695e-04
1.88500000e-01	1.85498272e-02	3.04450014e-04
1.89000000e-01	1.84915747e-02	3.03389593e-04
1.89500000e-01	1.88301191e-02	3.07326311e-04
1.90000000e-01	1.84849582e-02	3.02785687e-04
1.90500000e-01	1.85171876e-02	3.03514598e-04
1.91000000e-01	1.86762755e-02	3.05452961e-04
1.91500000e-01	1.86995939e-02	3.04323833e-04
1.92000000e-01	1.86128150e-02	3.02057884e-04
1.92500000e-01	1.85697492e-02	3.01541883e-04
1.93000000e-01	1.83748097e-02	2.98317173e-04
1.93500000e-01	1.83796607e-02	2.98157182e-04
1.94000000e-01	1.85196872e-02	3.00864338e-04
1.94500000e-01	1.85673788e-02	2.99698807e-04
1.95000000e-01	1.83467920e-02	2.96687365e-04
1.95500000e-01	1.82042106e-02	2.93646480e-04
1.96000000e-01	1.84605961e-02	2.96077086e-04
1.96500000e-01	1.82641953e-02	2.94734791e-04
1.97000000e-01	1.83185934e-02	2.94934483e-04
1.97500000e-01	1.84531071e-02	2.95389216e-04
1.98000000e-01	1.83507048e-02	2.94726645e-04
1.98500000e-01	1.82464669e-02	2.92957044e-04
1.99000000e-01	1.83996626e-02	2.94687375e-04
1.99500000e-01	1.85423554e-02	2.95738100e-04
2.00000000e-01	1.86088688e-02	2.97563505e-04
2.00500000e-01	1.83853891e-02	2.92142189e-04
2.01000000e-01	1.82893766e-02	2.91187547e-04
2.01500000e-01	1.86265388e-02	2.95695306e-04
2.02000000e-01	1.83008721e-02	2.92145583e-04
2.02500000e-01	1.82728458e-02	2.87831203e-04
2.03000000e-01	1.81803094e-02	2.88374095e-04
2.03500000e-01	1.83100797e-02	2.90144526e-04
2.04000000e-01	1.81264371e-02	2.86349751e-04
2.04500000e-01	1.83619579e-02	2.91314365e-04
2.05000000e-01	1.80754373e-02	2.85328531e-04
2.05500000e-01	1.85216034e-02	2.91290521e-04
2.06000000e-01	1.81759061e-02	2.84342765e-04
2.06500000e-01	1.80715898e-02	2.84812847e-04
2.07000000e-01	1.81585595e-02	2.84934921e-04
2.07500000e-01	1.83816635e-02	2.86918773e-04
2.08000000e-01	1.82009645e-02	2.84799241e-04
2.08500000e-01	1.82293139e-02	2.84264902e-04
2.09000000e-01	1.83109254e-02	2.87065372e-04
2.09500000e-01	1.81091529e-02	2.82431754e-04
2.10000000e-01	1.79260922e-02	2.79719881e-04
2.10500000e-01	1.81779535e-02	2.82980751e-04
2.11000000e-01	1.81336790e-02	2.80609233e-04
2.11500000e-01	1.82653017e-02	2.82675331e-04
2.12000000e-01	1.80447069e-02	2.80756625e-04
2.12500000e-01	1.80610461e-02	2.81871443e-04
2.13000000e-01	1.81708529e-02	2.80108898e-04
2.13500000e-01	1.79511369e-02	2.77345105e-04
2.14000000e-01	1.79255831e-02	2.77749193e-04
2.14500000e-01	1.79780849e-02	2.75826343e-04
2.15000000e-01	1.81678777e-02	2.81650631e-04
2.15500000e-01	1.81460498e-02	2.76654943e-04
2.16000000e-01	1.79601378e-02	2.76133653e-04
2.16500000e-01	1.80929497e-02	2.78040839e-04
2.17000000e-01	1.82156733e-02	2.84078028e-04
2.17500000e-01	1.82183208e-02	2.86434449e-04
2.18000000e-01	1.80208238e-02	2.85996592e-04
2.18500000e-01	1.80773591e-02	2.87476086e-04
2.19000000e-01	1.82166615e-02	2.91588503e-04
2.19500000e-01	1.82281429e-02	2.93764180e-04
2.20000000e-01	1.79523746e-02	2.89506758e-04
2.20500000e-01	1.82195747e-02	2.94839946e-04
2.21000000e-01	1.78781979e-02	2.89812692e-04
2.21500000e-01	1.80173502e-02	2.93778396e-04
2.22000000e-01	1.80298520e-02	2.93718879e-04
2.22500000e-01	1.81025697e-02	2.94478527e-04
2.23000000e-01	1.79989280e-02	2.94683725e-04
2.23500000e-01	1.78637179e-02	2.94406216e-04
2.24000000e-01	1.77677063e-02	2.92365405e-04
2.24500000e-01	1.79340734e-02	2.95848012e-04
2.25000000e-01	1.80049975e-02	2.97048954e-04
2.25500000e-01	1.78864146e-02	2.96611878e-04
2.26000000e-01	1.79039067e-02	2.97483451e-04
2.26500000e-01	1.79160535e-02	2.92254353e-04
2.27000000e-01	1.77412897e-02	2.86516198e-04
2.27500000e-01	1.78450915e-02	2.86490301e-04
2.28000000e-01	1.80286320e-02	2.88093832e-04
2.28500000e-01	1.78977059e-02	2.83347729e-04
2.29000000e-01	1.79289332e-02	2.84292830e-04
2.29500000e-01	1.79864674e-02	2.84346626e-04
2.30000000e-01	1.79379673e-02	2.82116659e-04
2.30500000e-01	1.81673083e-02	2.83707704e-04
2.31000000e-01	1.80422375e-02	2.81873128e-04
2.31500000e-01	1.77662813e-02	2.77586857e-04
2.32000000e-01	1.81005735e-02	2.80357787e-04
2.32500000e-01	1.79510494e-02	2.78260944e-04
2.33000000e-01	1.79139170e-02	2.78075092e-04
2.33500000e-01	1.78458806e-02	2.75342396e-04
2.34000000e-01	1.79522584e-02	2.76193720e-04
2.34500000e-01	1.77688986e-02	2.73414810e-04
2.35000000e-01	1.75892316e-02	2.71191069e-04
2.35500000e-01	1.77167294e-02	2.70785985e-04
2.36000000e-01	1.79643107e-02	2.74429877e-04
2.36500000e-01	1.79200314e-02	2.74816232e-04
2.37000000e-01	1.77051172e-02	2.70799669e-04
2.37500000e-01	1.79189102e-02	2.72603726e-04
2.38000000e-01	1.77256862e-02	2.69057898e-04
2.38500000e-01	1.77294320e-02	2.69011586e-04
2.39000000e-01	1.78289964e-02	2.70556097e-04
2.39500000e-01	1.78603418e-02	2.69095063e-04
2.40000000e-01	1.75729102e-02	2.65379790e-04
2.40500000e-01	1.78313696e-02	2.68419432e-04
2.41000000e-01	1.78989321e-02	2.71036857e-04
2.41500000e-01	1.76843503e-02	2.64510576e-04
2.42000000e-01	1.76963441e-02	2.66057939e-04
2.42500000e-01	1.76900870e-02	2.65506739e-04
2.43000000e-01	1.78087077e-02	2.66199448e-04
2.43500000e-01	1.76487765e-02	2.63639034e-04
2.44000000e-01	1.77185783e-02	2.63481720e-04
2.44500000e-01	1.78457431e-02	2.65799023e-04
2.45000000e-01	1.75872617e-02	2.61155491e-04
2.45500000e-01	1.75513548e-02	2.62051546e-04
2.46000000e-01	1.75113948e-02	2.60702467e-04
2.46500000e-01	1.77747301e-02	2.63285928e-04
2.47000000e-01	1.77071552e-02	2.62336486e-04
2.47500000e-01	1.77732713e-02	2.61130327e-04
2.48000000e-01	1.75098851e-02	2.58982211e-04
2.48500000e-01	1.74531921e-02	2.57898564e-04
2.49000000e-01	1.74930800e-02	2.57636196e-04
2.49500000e-01	1.74771697e-02	2.57347991e-04
2.50000000e-01	1.75134503e-02	2.57224041e-04
2.50500000e-01	1.75015353e-02	2.57949150e-04
2.51000000e-01	1.74467134e-02	2.55703121e-04
2.51500000e-01	1.75884801e-02	2.58096264e-04
2.52000000e-01	1.74762657e-02	2.56391248e-04
2.52500000e-01	1.75171954e-02	2.56246249e-04
2.53000000e-01	1.74894992e-02	2.56285847e-04
2.53500000e-01	1.74312005e-02	2.54358090e-04
2.54000000e-01	1.74033987e-02	2.54190042e-04
2.54500000e-01	1.73255643e-02	2.53445833e-04
2.55000000e-01	1.72994266e-02	2.51659244e-04
2.55500000e-01	1.73780665e-02	2.54266545e-04
2.56000000e-01	1.73238720e-02	2.51116794e-04
2.56500000e-01	1.75301347e-02	2.53465110e-04
2.57000000e-01	1.75532529e-02	2.54391381e-04
2.57500000e-01	1.74215111e-02	2.52181794e-04
2.58000000e-01	1.72680080e-02	2.49189187e-04
2.58500000e-01	1.74114692e-02	2.52110408e-04
2.59000000e-01	1.72552040e-02	2.48713874e-04
2.59500000e-01	1.74629749e-02	2.51882474e-04
2.60000000e-01	1.74417693e-02	2.50837270e-04
2.60500000e-01	1.72827865e-02	2.48912492e-04
2.61000000e-01	1.72710321e-02	2.47647657e-04
2.61500000e-01	1.73055754e-02	2.48768740e-04
2.62000000e-01	1.75034164e-02	2.50912599e-04
2.62500000e-01	1.73302220e-02	2.48473389e-04
2.63000000e-01	1.75558302e-02	2.51401744e-04
2.63500000e-01	1.73471670e-02	2.47109756e-04
2.64000000e-01	1.74428486e-02	2.49718740e-04
2.64500000e-01	1.71453427e-02	2.44184488e-04
2.65000000e-01	1.71865281e-02	2.45808292e-04
2.65500000e-01	1.72553468e-02	2.45726777e-04
2.66000000e-01	1.73882402e-02	2.47181750e-04
2.66500000e-01	1.70742228e-02	2.42627903e-04
2.67000000e-01	1.72958382e-02	2.45015042e-04
2.67500000e-01	1.72167066e-02	2.43627088e-04
2.68000000e-01	1.71916832e-02	2.43251313e-04
2.68500000e-01	1.75393286e-02	2.46778183e-04
2.69000000e-01	1.69859065e-02	2.40392081e-04
2.69500000e-01	1.70270167e-02	2.40215152e-04
2.70000000e-01	1.71554782e-02	2.41762879e-04
2.70500000e-01	1.71205306e-02	2.41543753e-04
2.71000000e-01	1.72928638e-02	2.41915210e-04
2.71500000e-01	1.71172358e-02	2.41020109e-04
2.72000000e-01	1.70178650e-02	2.38175567e-04
2.72500000e-01	1.70553498e-02	2.40132073e-04
2.73000000e-01	1.72791223e-02	2.42485554e-04
2.73500000e-01	1.73126524e-02	2.41425847e-04
2.74000000e-01	1.70066853e-02	2.37678722e-04
2.74500000e-01	1.72937044e-02	2.41411573e-04
2.75000000e-01	1.72571224e-02	2.41369730e-04
2.75500000e-01	1.70681506e-02	2.38746658e-04
2.76000000e-01	1.73240292e-02	2.41350610e-04
2.76500000e-01	1.71550365e-02	2.39547967e-04
2.77000000e-01	1.70758344e-02	2.37205512e-04
2.77500000e-01	1.70047577e-02	2.36767194e-04
2.78000000e-01	1.70711033e-02	2.37214800e-04
2.78500000e-01	1.71604085e-02	2.38733592e-04
2.79000000e-01	1.72055911e-02	2.38079697e-04
2.79500000e-01	1.70753601e-02	2.36731892e-04
2.80000000e-01	1.71707850e-02	2.37573897e-04
2.80500000e-01	1.72944806e-02	2.38383263e-04
2.81000000e-01	1.70525834e-02	2.35624743e-04
2.81500000e-01	1.67506552e-02	2.32404517e-04
2.82000000e-01	1.72054788e-02	2.37057649e-04
2.82500000e-01	1.69863250e-02	2.34829188e-04
2.83000000e-01	1.70633466e-02	2.34983612e-04
2.83500000e-01	1.70706419e-02	2.34251121e-04
2.84000000e-01	1.70687998e-02	2.34596405e-04
2.84500000e-01	1.68124704e-02	2.31541013e-04
2.85000000e-01	1.71453619e-02	2.34873058e-04
2.85500000e-01	1.69795719e-02	2.32086774e-04
2.86000000e-01	1.70388647e-02	2.33953453e-04
2.86500000e-01	1.69748547e-02	2.32141590e-04
2.87000000e-01	1.67589575e-02	2.30006728e-04
2.87500000e-01	1.70025906e-02	2.32030708e-04
2.88000000e-01	1.71246775e-02	2.32647093e-04
2.88500000e-01	1.69745470e-02	2.32003123e-04
2.89000000e-01	1.70594514e-02	2.31695038e-04
2.89500000e-01	1.69307839e-02	2.30277771e-04
2.90000000e-01	1.67204436e-02	2.28284803e-04
2.90500000e-01	1.67996403e-02	2.28798038e-04
2.91000000e-01	1.70050608e-02	2.30901228e-04
2.91500000e-01	1.69104648e-02	2.28214862e-04
2.92000000e-01	1.69844941e-02	2.29688883e-04
2.92500000e-01	1.68104874e-02	2.27076388e-04
2.93000000e-01	1.68197598e-02	2.27441495e-04
2.93500000e-01	1.68161340e-02	2.26613898e-04
2.94000000e-01	1.69309619e-02	2.27685860e-04
2.94500000e-01	1.69532166e-02	2.28941818e-04
2.95000000e-01	1.70296319e-02	2.27814866e-04
2.95500000e-01	1.68952135e-02	2.27583475e-04
2.96000000e-01	1.69052045e-02	2.26846150e-04
2.96500000e-01	1.67533142e-02	2.25377549e-04
2.97000000e-01	1.68239843e-02	2.27111858e-04
2.97500000e-01	1.69475441e-02	2.26548223e-04
2.98000000e-01	1.69765711e-02	2.27245579e-04
2.98500000e-01	1.66193484e-02	2.22569971e-04
2.99000000e-01	1.70339976e-02	2.27892973e-04
2.99500000e-01	1.69681522e-02	2.27252825e-04
3.00000000e-01	1.66626180e-02	2.22935010e-04
3.00500000e-01	1.69728868e-02	2.26021853e-04
3.01000000e-01	1.65783588e-02	2.21192373e-04
3.01500000e-01	1.68843551e-02	2.24603091e-04
3.02000000e-01	1.67429216e-02	2.23557649e-04
3.02500000e-01	1.67666945e-02	2.23287880e-04
3.03000000e-01	1.66185547e-02	2.21092303e-04
3.03500000e-01	1.67182499e-02	2.21707926e-04
3.04000000e-01	1.67965320e-02	2.23591376e-04
3.04500000e-01	1.67231665e-02	2.22137220e-04
3.05000000e-01	1.67708553e-02	2.22097815e-04
3.05500000e-01	1.67080956e-02	2.21709618e-04
3.06000000e-01	1.67854144e-02	2.19918080e-04
3.06500000e-01	1.66936362e-02	2.21216034e-04
3.07000000e-01	1.66395157e-02	2.20876870e-04
3.07500000e-01	1.68019718e-02	2.21491125e-04
3.08000000e-01	1.68170185e-02	2.21508207e-04
3.08500000e-01	1.65027362e-02	2.17230725e-04
3.09000000e-01	1.65697105e-02	2.17770239e-04
3.09500000e-01	1.65982151e-02	2.18803191e-04
3.10000000e-01	1.66851215e-02	2.19322104e-04
3.10500000e-01	1.69366535e-02	2.22221740e-04
3.11000000e-01	1.67673368e-02	2.19950012e-04
3.11500000e-01	1.65765751e-02	2.17111105e-04
3.12000000e-01	1.66079611e-02	2.17720092e-04
3.12500000e-01	1.67186113e-02	2.18420329e-04
3.13000000e-01	1.67453169e-02	2.18236633e-04
3.13500000e-01	1.65776302e-02	2.16657981e-04
3.14000000e-01	1.66507997e-02	2.18065404e-04
3.14500000e-01	1.66645547e-02	2.17066384e-04
3.15000000e-01	1.66297786e-02	2.16350720e-04
3.15500000e-01	1.63153832e-02	2.13018574e-04
3.16000000e-01	1.64938166e-02	2.14995717e-04
3.16500000e-01	1.65363479e-02	2.14600162e-04
3.17000000e-01	1.64300961e-02	2.13873636e-04
3.17500000e-01	1.64307304e-02	2.13350465e-04
3.18000000e-01	1.64120610e-02	2.13485247e-04
3.18500000e-01	1.64790884e-02	2.13844902e-04
3.19000000e-01	1.65477736e-02	2.13246592e-04
3.19500000e-01	1.66429477e-02	2.15664320e-04
3.20000000e-01	1.62339512e-02	2.10911766e-04
3.20500000e-01	1.62947428e-02	2.09917839e-04
3.21000000e-01	1.65011561e-02	2.13706953e-04
3.21500000e-01	1.65148621e-02	2.12877327e-04
3.22000000e-01	1.62989565e-02	2.10108948e-04
3.22500000e-01	1.63355239e-02	2.11428572e-04
3.23000000e-01	1.64866836e-02	2.11562114e-04
3.23500000e-01	1.63662047e-02	2.10992573e-04
3.24000000e-01	1.64534669e-02	2.11764759e-04
3.24500000e-01	1.63199051e-02	2.11021861e-04
3.25000000e-01	1.62062452e-02	2.08159657e-04
3.25500000e-01	1.63171036e-02	2.10668436e-04
3.26000000e-01	1.64716145e-02	2.11163240e-04
3.26500000e-01	1.63841641e-02	2.08958597e-04
3.27000000e-01	1.62597043e-02	2.09237092e-04
3.27500000e-01	1.62024215e-02	2.07367051e-04
3.28000000e-01	1.62424410e-02	2.08407400e-04
3.28500000e-01	1.62724206e-02	2.08812855e-04
3.29000000e-01	1.62549192e-02	2.07898474e-04
3.29500000e-01	1.60873592e-02	2.06893554e-04
3.30000000e-01	1.64518947e-02	2.09822242e-04
3.30500000e-01	1.61058301e-02	2.05947047e-04
3.31000000e-01	1.62229525e-02	2.06721849e-04
3.31500000e-01	1.62705438e-02	2.07600730e-04
3.32000000e-01	1.61659116e-02	2.06205827e-04
3.32500000e-01	1.62001364e-02	2.05833313e-04
3.33000000e-01	1.62504925e-02	2.05865893e-04
3.33500000e-01	1.61271732e-02	2.04752848e-04
3.34000000e-01	1.61010708e-02	2.04134850e-04
3.34500000e-01	1.61723631e-02	2.05533248e-04
3.35000000e-01	1.60144306e-02	2.03199639e-04
3.35500000e-01	1.62689409e-02	2.06236368e-04
3.36000000e-01	1.60563498e-02	2.02963224e-04
3.36500000e-01	1.62157034e-02	2.05342210e-04
3.37000000e-01	1.60268052e-02	2.01929882e-04
3.37500000e-01	1.60859997e-02	2.02759000e-04
3.38000000e-01	1.60857461e-02	2.03641603e-04
3.38500000e-01	1.62835355e-02	2.04573430e-04
3.39000000e-01	1.61654444e-02	2.04002877e-04
3.39500000e-01	1.60508768e-02	2.01041419e-04
3.40000000e-01	1.60469371e-02	2.02435802e-04
3.40500000e-01	1.61638463e-02	2.03245969e-04
3.41000000e-01	1.61493326e-02	2.02723626e-04
3.41500000e-01	1.60071456e-02	2.00887929e-04
3.42000000e-01	1.60207878e-02	2.01045003e-04
3.42500000e-01	1.60164319e-02	2.00879104e-04
3.43000000e-01	1.59839012e-02	2.00523856e-04
3.43500000e-01	1.61773519e-02	2.02123564e-04
3.44000000e-01	1.59671020e-02	2.00588250e-04
3.44500000e-01	1.58449362e-02	1.97667313e-04
3.45000000e-01	1.59242514e-02	1.99155282e-04
3.45500000e-01	1.59164931e-02	1.98178932e-04
3.46000000e-01	1.58944057e-02	1.98573264e-04
3.46500000e-01	1.59928199e-02	1.98987322e-04
3.47000000e-01	1.59019727e-02	1.98286466e-04
3.47500000e-01	1.58956223e-02	1.98024246e-04
3.48000000e-01	1.59783621e-02	1.98611594e-04
3.48500000e-01	1.60144146e-02	1.99575398e-04
3.49000000e-01	1.60096653e-02	1.98642448e-04
3.49500000e-01	1.59014120e-02	1.97508197e-04
3.50000000e-01	1.59961523e-02	1.62082154e-04
3.51000000e-01	1.60162168e-02	1.40490540e-04
3.52000000e-01	1.57962750e-02	1.38649946e-04
3.53000000e-01	1.58518001e-02	1.38275516e-04
3.54000000e-01	1.58904549e-02	1.38406121e-04
3.55000000e-01	1.58411560e-02	1.37960362e-04
3.56000000e-01	1.58559375e-02	1.38243599e-04
3.57000000e-01	1.58620961e-02	1.41056124e-04
3.58000000e-01	1.56612388e-02	1.40631957e-04
3.59000000e-01	1.57414439e-02	1.42771134e-04
3.60000000e-01	1.56570925e-02	1.42811575e-04
3.61000000e-01	1.55502503e-02	1.42614393e-04
3.62000000e-01	1.54934665e-02	1.42745984e-04
3.63000000e-01	1.57333233e-02	1.44813120e-04
3.64000000e-01	1.56415382e-02	1.44899666e-04
3.65000000e-01	1.56648466e-02	1.45395095e-04
3.66000000e-01	1.56090500e-02	1.43188359e-04
3.67000000e-01	1.56821780e-02	1.41738966e-04
3.68000000e-01	1.55870770e-02	1.40126103e-04
3.69000000e-01	1.55742256e-02	1.39373286e-04
3.70000000e-01	1.56917427e-02	1.39672262e-04
3.71000000e-01	1.56526919e-02	1.40998945e-04
3.72000000e-01	1.55878682e-02	1.41361299e-04
3.73000000e-01	1.55308915e-02	1.41480845e-04
3.74000000e-01	1.55821518e-02	1.41803076e-04
3.75000000e-01	1.54655887e-02	1.41167424e-04
3.76000000e-01	1.54900051e-02	1.41241938e-04
3.77000000e-01	1.55333376e-02	1.41383821e-04
3.78000000e-01	1.54483010e-02	1.40709301e-04
3.79000000e-01	1.54675266e-02	1.40414725e-04
3.80000000e-01	1.55277533e-02	1.41009257e-04
3.81000000e-01	1.54822469e-02	1.40866770e-04
3.82000000e-01	1.53956788e-02	1.39726725e-04
3.83000000e-01	1.54813818e-02	1.40636689e-04
3.84000000e-01	1.54773993e-02	1.40534708e-04
3.85000000e-01	1.53525309e-02	1.39539354e-04
3.86000000e-01	1.53911821e-02	1.39893935e-04
3.87000000e-01	1.54511370e-02	1.40053104e-04
3.88000000e-01	1.54178555e-02	1.39623340e-04
3.89000000e-01	1.53298679e-02	1.39010380e-04
3.90000000e-01	1.52304359e-02	1.38370600e-04
3.91000000e-01	1.54338264e-02	1.39556012e-04
3.92000000e-01	1.53122805e-02	1.38946077e-04
3.93000000e-01	1.51915040e-02	1.37547658e-04
3.94000000e-01	1.52388476e-02	1.38048229e-04
3.95000000e-01	1.52822937e-02	1.38366098e-04
3.96000000e-01	1.51112026e-02	1.36668279e-04
3.97000000e-01	1.51960078e-02	1.37683450e-04
3.98000000e-01	1.51741136e-02	1.37783252e-04
3.99000000e-01	1.50857725e-02	1.37275219e-04
4.00000000e-01	1.52309666e-02	1.38123859e-04
4.01000000e-01	1.51498897e-02	1.37186321e-04
4.02000000e-01	1.51654440e-02	1.37613333e-04
4.03000000e-01	1.51255289e-02	1.37303684e-04
4.04000000e-01	1.51042661e-02	1.36986384e-04
4.05000000e-01	1.51275330e-02	1.36865048e-04
4.06000000e-01	1.50862210e-02	1.36571933e-04
4.07000000e-01	1.50538643e-02	1.36585408e-04
4.08000000e-01	1.50939775e-02	1.36800991e-04
4.09000000e-01	1.50573773e-02	1.36070275e-04
4.10000000e-01	1.49065660e-02	1.34936190e-04
4.11000000e-01	1.50117871e-02	1.35526059e-04
4.12000000e-01	1.50456973e-02	1.35707099e-04
4.13000000e-01	1.50608100e-02	1.35842841e-04
4.14000000e-01	1.48537667e-02	1.34568144e-04
4.15000000e-01	1.48861359e-02	1.34075645e-04
4.16000000e-01	1.49237684e-02	1.34856811e-04
4.17000000e-01	1.49902215e-02	1.35096215e-04
4.18000000e-01	1.49385157e-02	1.36328404e-04
4.19000000e-01	1.49110040e-02	1.37816119e-04
4.20000000e-01	1.49471240e-02	1.38955726e-04
4.21000000e-01	1.50261341e-02	1.39506831e-04
4.22000000e-01	1.49594896e-02	1.39933378e-04
4.23000000e-01	1.48719482e-02	1.39848330e-04
4.24000000e-01	1.50510391e-02	1.41475617e-04
4.25000000e-01	1.50178501e-02	1.41286402e-04
4.26000000e-01	1.49646689e-02	1.41373039e-04
4.27000000e-01	1.49370966e-02	1.40701498e-04
4.28000000e-01	1.49162446e-02	1.41037129e-04
4.29000000e-01	1.50031489e-02	1.41920267e-04
4.30000000e-01	1.49082115e-02	1.41124303e-04
4.31000000e-01	1.50158015e-02	1.41156427e-04
4.32000000e-01	1.50299807e-02	1.41994502e-04
4.33000000e-01	1.48030554e-02	1.39696645e-04
4.34000000e-01	1.49185409e-02	1.41676726e-04
4.35000000e-01	1.48913666e-02	1.41134119e-04
4.36000000e-01	1.48243977e-02	1.40536033e-04
4.37000000e-01	1.48485736e-02	1.41147316e-04
4.38000000e-01	1.47805540e-02	1.40873639e-04
4.39000000e-01	1.47563532e-02	1.40850118e-04
4.40000000e-01	1.47767940e-02	1.41022624e-04
4.41000000e-01	1.48462121e-02	1.41648724e-04
4.42000000e-01	1.48375827e-02	1.42314321e-04
4.43000000e-01	1.48386719e-02	1.42055778e-04
4.44000000e-01	1.48597977e-02	1.42767401e-04
4.45000000e-01	1.49389600e-02	1.42989775e-04
4.46000000e-01	1.48694667e-02	1.43124713e-04
4.47000000e-01	1.48818768e-02	1.43434898e-04
4.48000000e-01	1.48260665e-02	1.42463733e-04
4.49000000e-01	1.45818401e-02	1.40877874e-04
4.50000000e-01	1.47089692e-02	1.41663917e-04
4.51000000e-01	1.46861778e-02	1.41587474e-04
4.52000000e-01	1.46666189e-02	1.41972824e-04
4.53000000e-01	1.47248302e-02	1.42298190e-04
4.54000000e-01	1.47964444e-02	1.43172750e-04
4.55000000e-01	1.47194798e-02	1.42623253e-04
4.56000000e-01	1.46871458e-02	1.42325461e-04
4.57000000e-01	1.46148606e-02	1.41923371e-04
4.58000000e-01	1.47245103e-02	1.43011116e-04
4.59000000e-01	1.47775957e-02	1.43303149e-04
4.60000000e-01	1.47532044e-02	1.43594312e-04
4.61000000e-01	1.46248128e-02	1.42461256e-04
4.62000000e-01	1.45611337e-02	1.42212958e-04
4.63000000e-01	1.46126732e-02	1.42750528e-04
4.64000000e-01	1.45721875e-02	1.42361338e-04
4.65000000e-01	1.46518600e-02	1.43522752e-04
4.66000000e-01	1.45577598e-02	1.42270891e-04
4.67000000e-01	1.47412393e-02	1.43888839e-04
4.68000000e-01	1.45887218e-02	1.42713024e-04
4.69000000e-01	1.45888770e-02	1.43001468e-04
4.70000000e-01	1.46024000e-02	1.43387688e-04
4.71000000e-01	1.45085565e-02	1.42401613e-04
4.72000000e-01	1.45465399e-02	1.42775754e-04
4.73000000e-01	1.46192049e-02	1.43216860e-04
4.74000000e-01	1.45574099e-02	1.42511066e-04
4.75000000e-01	1.45887102e-02	1.42817509e-04
4.76000000e-01	1.45920152e-02	1.42866961e-04
4.77000000e-01	1.45199384e-02	1.42432800e-04
4.78000000e-01	1.44539720e-02	1.41860658e-04
4.79000000e-01	1.43808441e-02	1.41413607e-04
4.80000000e-01	1.45446416e-02	1.43007912e-04
4.81000000e-01	1.43108872e-02	1.40794008e-04
4.82000000e-01	1.44177559e-02	1.42054312e-04
4.83000000e-01	1.43740597e-02	1.41440845e-04
4.84000000e-01	1.44174662e-02	1.41746295e-04
4.85000000e-01	1.42928012e-02	1.40880769e-04
4.86000000e-01	1.44470891e-02	1.42570173e-04
4.87000000e-01	1.44814206e-02	1.42590099e-04
4.88000000e-01	1.43499549e-02	1.41803069e-04
4.89000000e-01	1.43275627e-02	1.41706895e-04
4.90000000e-01	1.43547167e-02	1.42354928e-04
4.91000000e-01	1.44483123e-02	1.42220280e-04
4.92000000e-01	1.43641305e-02	1.42117943e-04
4.93000000e-01	1.43119740e-02	1.41655435e-04
4.94000000e-01	1.42939016e-02	1.41208482e-04
4.95000000e-01	1.44257230e-02	1.43298133e-04
4.96000000e-01	1.44150493e-02	1.48003629e-04
4.97000000e-01	1.42259386e-02	1.48789057e-04
4.98000000e-01	1.42325561e-02	1.50977878e-04
4.99000000e-01	1.42661284e-02	1.53167948e-04
5.00000000e-01	1.43627967e-02	1.55876565e-04
5.01000000e-01	1.43074076e-02	1.56517749e-04
5.02000000e-01	1.43646023e-02	1.58383380e-04
5.03000000e-01	1.43455558e-02	1.59963198e-04
5.04000000e-01	1.43040691e-02	1.61335097e-04
5.05000000e-01	1.43178235e-02	1.58319293e-04
5.06000000e-01	1.43882310e-02	1.55651245e-04
5.07000000e-01	1.43272317e-02	1.52853480e-04
5.08000000e-01	1.42829657e-02	1.52007454e-04
5.09000000e-01	1.42563305e-02	1.51315098e-04
5.10000000e-01	1.41436638e-02	1.49707430e-04
5.11000000e-01	1.42308019e-02	1.49830189e-04
5.12000000e-01	1.43170391e-02	1.50773565e-04
5.13000000e-01	1.43373932e-02	1.50904733e-04
5.14000000e-01	1.39810501e-02	1.46713852e-04
5.15000000e-01	1.41734848e-02	1.47796363e-04
5.16000000e-01	1.42647632e-02	1.48718697e-04
5.17000000e-01	1.40546822e-02	1.46970744e-04
5.18000000e-01	1.41417742e-02	1.47590002e-04
5.19000000e-01	1.40596990e-02	1.46148925e-04
5.20000000e-01	1.41506700e-02	1.46436692e-04
5.21000000e-01	1.41014609e-02	1.45981557e-04
5.22000000e-01	1.40598797e-02	1.45497783e-04
5.23000000e-01	1.40730674e-02	1.45287872e-04
5.24000000e-01	1.40878959e-02	1.45556573e-04
5.25000000e-01	1.41619191e-02	1.45838643e-04
5.26000000e-01	1.40209330e-02	1.44462786e-04
5.27000000e-01	1.39284339e-02	1.43944250e-04
5.28000000e-01	1.40453645e-02	1.44979778e-04
5.29000000e-01	1.40676089e-02	1.45518453e-04
5.30000000e-01	1.40410386e-02	1.45172065e-04
5.31000000e-01	1.39231196e-02	1.44129819e-04
5.32000000e-01	1.40391707e-02	1.45316700e-04
5.33000000e-01	1.40310299e-02	1.44582378e-04
5.34000000e-01	1.39743043e-02	1.44368690e-04
5.35000000e-01	1.39565074e-02	1.44038746e-04
5.36000000e-01	1.39597290e-02	1.44004060e-04
5.37000000e-01	1.38051728e-02	1.43466777e-04
5.38000000e-01	1.40487411e-02	1.45016273e-04
5.39000000e-01	1.38305061e-02	1.42471789e-04
5.40000000e-01	1.38567794e-02	1.43228999e-04
5.41000000e-01	1.37265757e-02	1.41711333e-04
5.42000000e-01	1.39072687e-02	1.43973277e-04
5.43000000e-01	1.39427443e-02	1.43803797e-04
5.44000000e-01	1.39460701e-02	1.43701190e-04
5.45000000e-01	1.37506385e-02	1.42516741e-04
5.46000000e-01	1.38438747e-02	1.43205773e-04
5.47000000e-01	1.37962156e-02	1.43021109e-04
5.48000000e-01	1.38209121e-02	1.42998743e-04
5.49000000e-01	1.36364165e-02	1.41238625e-04
5.50000000e-01	1.37225966e-02	1.41587228e-04
5.51000000e-01	1.37344248e-02	1.41293253e-04
5.52000000e-01	1.38164091e-02	1.42284085e-04
5.53000000e-01	1.37238495e-02	1.40827437e-04
5.54000000e-01	1.37930027e-02	1.41486500e-04
5.55000000e-01	1.37903296e-02	1.41256078e-04
5.56000000e-01	1.36754762e-02	1.40142738e-04
5.57000000e-01	1.36735933e-02	1.40866271e-04
5.58000000e-01	1.36345275e-02	1.39895922e-04
5.59000000e-01	1.36061311e-02	1.39935200e-04
5.60000000e-01	1.35020351e-02	1.39271511e-04
5.61000000e-01	1.37118642e-02	1.40844884e-04
5.62000000e-01	1.36915138e-02	1.40766181e-04
5.63000000e-01	1.36138838e-02	1.40095026e-04
5.64000000e-01	1.36516270e-02	1.40445697e-04
5.65000000e-01	1.36311446e-02	1.40153682e-04
5.66000000e-01	1.37017213e-02	1.40812239e-04
5.67000000e-01	1.36269565e-02	1.40098483e-04
5.68000000e-01	1.36255094e-02	1.40132114e-04
5.69000000e-01	1.35319875e-02	1.38698844e-04
5.70000000e-01	1.36037902e-02	1.39472301e-04
5.71000000e-01	1.36328711e-02	1.39781200e-04
5.72000000e-01	1.36702487e-02	1.40311428e-04
5.73000000e-01	1.36424357e-02	1.40219735e-04
5.74000000e-01	1.36358215e-02	1.40100526e-04
5.75000000e-01	1.34240232e-02	1.38647391e-04
5.76000000e-01	1.35513009e-02	1.39378097e-04
5.77000000e-01	1.34652687e-02	1.38924337e-04
5.78000000e-01	1.35564583e-02	1.39457630e-04
5.79000000e-01	1.33800603e-02	1.37899235e-04
5.80000000e-01	1.34385847e-02	1.38105521e-04
5.81000000e-01	1.33843896e-02	1.37906083e-04
5.82000000e-01	1.35113936e-02	1.39508962e-04
5.83000000e-01	1.34677810e-02	1.38922022e-04
5.84000000e-01	1.35696764e-02	1.39320135e-04
5.85000000e-01	1.34477026e-02	1.38950122e-04
5.86000000e-01	1.32619608e-02	1.37302886e-04
5.87000000e-01	1.34161669e-02	1.38452578e-04
5.88000000e-01	1.33821753e-02	1.38067794e-04
5.89000000e-01	1.34294295e-02	1.38781755e-04
5.90000000e-01	1.33192170e-02	1.37903099e-04
5.91000000e-01	1.33310991e-02	1.37906339e-04
5.92000000e-01	1.34411920e-02	1.39053227e-04
5.93000000e-01	1.33768774e-02	1.38164637e-04
5.94000000e-01	1.34577996e-02	1.38756006e-04
5.95000000e-01	1.32047341e-02	1.36954591e-04
5.96000000e-01	1.34184057e-02	1.39016985e-04
5.97000000e-01	1.32883925e-02	1.37038968e-04
5.98000000e-01	1.31569165e-02	1.36238662e-04
5.99000000e-01	1.33653377e-02	1.37941236e-04
6.00000000e-01	1.32323500e-02	1.37065875e-04
6.01000000e-01	1.33248916e-02	1.37480627e-04
6.02000000e-01	1.33307596e-02	1.38141271e-04
6.03000000e-01	1.33275553e-02	1.38117468e-04
6.04000000e-01	1.32904734e-02	1.37614360e-04
6.05000000e-01	1.31675436e-02	1.36523034e-04
6.06000000e-01	1.33321358e-02	1.37860745e-04
6.07000000e-01	1.33016794e-02	1.37849319e-04
6.08000000e-01	1.32486672e-02	1.37280121e-04
6.09000000e-01	1.31697886e-02	1.36401295e-04
6.10000000e-01	1.29953642e-02	1.34876740e-04
6.11000000e-01	1.31426173e-02	1.36044459e-04
6.12000000e-01	1.30418521e-02	1.35775669e-04
6.13000000e-01	1.31773660e-02	1.36743143e-04
6.14000000e-01	1.33351551e-02	1.38073175e-04
6.15000000e-01	1.31715266e-02	1.36491972e-04
6.16000000e-01	1.30455617e-02	1.35863673e-04
6.17000000e-01	1.31259894e-02	1.35910868e-04
6.18000000e-01	1.30909842e-02	1.36175482e-04
6.19000000e-01	1.32003154e-02	1.36720790e-04
6.20000000e-01	1.31555045e-02	1.36048429e-04
6.21000000e-01	1.31722990e-02	1.36632897e-04
6.22000000e-01	1.30142499e-02	1.34610909e-04
6.23000000e-01	1.30148292e-02	1.34780511e-04
6.24000000e-01	1.30253713e-02	1.33763600e-04
6.25000000e-01	1.31322915e-02	1.35346957e-04
6.26000000e-01	1.29879184e-02	1.33998290e-04
6.27000000e-01	1.30089902e-02	1.34294797e-04
6.28000000e-01	1.30226534e-02	1.33795535e-04
6.29000000e-01	1.30070869e-02	1.34266236e-04
6.30000000e-01	1.30638008e-02	1.34943877e-04
6.31000000e-01	1.30103022e-02	1.33991196e-04
6.32000000e-01	1.30216821e-02	1.34650308e-04
6.33000000e-01	1.32531823e-02	1.36295463e-04
6.34000000e-01	1.29581949e-02	1.36859007e-04
6.35000000e-01	1.30093372e-02	1.41544718e-04
6.36000000e-01	1.30310746e-02	1.44415347e-04
6.37000000e-01	1.31272981e-02	1.48279568e-04
6.38000000e-01	1.29492416e-02	1.47951505e-04
6.39000000e-01	1.31196470e-02	1.51856958e-04
6.40000000e-01	1.30911631e-02	1.53108610e-04
6.41000000e-01	1.30523337e-02	1.54381867e-04
6.42000000e-01	1.31370676e-02	1.56496022e-04
6.43000000e-01	1.32153064e-02	1.57917658e-04
6.44000000e-01	1.31492870e-02	1.51385212e-04
6.45000000e-01	1.31320124e-02	1.48638316e-04
6.46000000e-01	1.30614764e-02	1.47256124e-04
6.47000000e-01	1.31594953e-02	1.46385314e-04
6.48000000e-01	1.30293728e-02	1.44548823e-04
6.49000000e-01	1.30488483e-02	1.44013349e-04
6.50000000e-01	1.30241816e-02	1.42811520e-04
6.51000000e-01	1.29941405e-02	1.42281260e-04
6.52000000e-01	1.30518389e-02	1.41713508e-04
6.53000000e-01	1.28943921e-02	1.40025784e-04
6.54000000e-01	1.29891334e-02	1.40952288e-04
6.55000000e-01	1.28692270e-02	1.39450028e-04
6.56000000e-01	1.31280776e-02	1.41724348e-04
6.57000000e-01	1.30295125e-02	1.40371469e-04
6.58000000e-01	1.30358422e-02	1.40106300e-04
6.59000000e-01	1.29645410e-02	1.39749086e-04
6.60000000e-01	1.30291317e-02	1.40063207e-04
6.61000000e-01	1.29961254e-02	1.39435131e-04
6.62000000e-01	1.29936069e-02	1.39890308e-04
6.63000000e-01	1.29023262e-02	1.38825797e-04
6.64000000e-01	1.29076989e-02	1.38636300e-04
6.65000000e-01	1.30147708e-02	1.40049506e-04
6.66000000e-01	1.30420050e-02	1.39002760e-04
6.67000000e-01	1.29202093e-02	1.38518667e-04
6.68000000e-01	1.27962943e-02	1.36832075e-04
6.69000000e-01	1.28265664e-02	1.37487456e-04
6.70000000e-01	1.29599192e-02	1.39000871e-04
6.71000000e-01	1.26746118e-02	1.35704122e-04
6.72000000e-01	1.28045123e-02	1.37330663e-04
6.73000000e-01	1.28403253e-02	1.37124107e-04
6.74000000e-01	1.27420572e-02	1.36243100e-04
6.75000000e-01	1.29092419e-02	1.37566748e-04
6.76000000e-01	1.27130192e-02	1.36264239e-04
6.77000000e-01	1.27994041e-02	1.36990711e-04
6.78000000e-01	1.27688443e-02	1.36527029e-04
6.79000000e-01	1.27855593e-02	1.36395692e-04
6.80000000e-01	1.27921636e-02	1.36833745e-04
6.81000000e-01	1.26257411e-02	1.34762676e-04
6.82000000e-01	1.29552425e-02	1.37967125e-04
6.83000000e-01	1.28737130e-02	1.37020806e-04
6.84000000e-01	1.27238721e-02	1.35265876e-04
6.85000000e-01	1.27780677e-02	1.36454940e-04
6.86000000e-01	1.25295189e-02	1.33913923e-04
6.87000000e-01	1.26226361e-02	1.34887042e-04
6.88000000e-01	1.26700431e-02	1.35604894e-04
6.89000000e-01	1.26191537e-02	1.34630130e-04
6.90000000e-01	1.27892839e-02	1.36429035e-04
6.91000000e-01	1.26962468e-02	1.35491285e-04
6.92000000e-01	1.27688606e-02	1.35891334e-04
6.93000000e-01	1.26675634e-02	1.35085565e-04
6.94000000e-01	1.25800765e-02	1.34279481e-04
6.95000000e-01	1.27344771e-02	1.35725202e-04
6.96000000e-01	1.26808304e-02	1.35041481e-04
6.97000000e-01	1.27410919e-02	1.35534520e-04
6.98000000e-01	1.25693539e-02	1.34272188e-04
6.99000000e-01	1.27343227e-02	1.35561447e-04
7.00000000e-01	1.25642547e-02	1.33634897e-04
7.01000000e-01	1.26169976e-02	1.34777826e-04
7.02000000e-01	1.25293486e-02	1.33804828e-04
7.03000000e-01	1.26364716e-02	1.34269368e-04
7.04000000e-01	1.25963941e-02	1.34689435e-04
7.05000000e-01	1.25623246e-02	1.34183568e-04
7.06000000e-01	1.24983837e-02	1.32668409e-04
7.07000000e-01	1.25328673e-02	1.33070887e-04
7.08000000e-01	1.24860754e-02	1.32416387e-04
7.09000000e-01	1.24560720e-02	1.32712040e-04
7.10000000e-01	1.25142828e-02	1.33036320e-04
7.11000000e-01	1.23930012e-02	1.32256875e-04
7.12000000e-01	1.23724182e-02	1.31657866e-04
7.13000000e-01	1.23984095e-02	1.32168105e-04
7.14000000e-01	1.25164065e-02	1.33284232e-04
7.15000000e-01	1.23652287e-02	1.31888196e-04
7.16000000e-01	1.24147252e-02	1.32185927e-04
7.17000000e-01	1.24461510e-02	1.32711080e-04
7.18000000e-01	1.24192281e-02	1.32132142e-04
7.19000000e-01	1.24035359e-02	1.32531771e-04
7.20000000e-01	1.23018141e-02	1.30781945e-04
7.21000000e-01	1.23227663e-02	1.31386026e-04
7.22000000e-01	1.22761826e-02	1.30956510e-04
7.23000000e-01	1.23779909e-02	1.32198475e-04
7.24000000e-01	1.23212560e-02	1.31472234e-04
7.25000000e-01	1.22597220e-02	1.30749215e-04
7.26000000e-01	1.24061364e-02	1.31853084e-04
7.27000000e-01	1.22612133e-02	1.31083241e-04
7.28000000e-01	1.22501991e-02	1.30814598e-04
7.29000000e-01	1.22097563e-02	1.30543513e-04
7.30000000e-01	1.23142890e-02	1.31259086e-04
7.31000000e-01	1.22353054e-02	1.30725149e-04
7.32000000e-01	1.22640819e-02	1.30918486e-04
7.33000000e-01	1.23055163e-02	1.31582855e-04
7.34000000e-01	1.22720640e-02	1.30815921e-04
7.35000000e-01	1.22507337e-02	1.30037486e-04
7.36000000e-01	1.22730390e-02	1.30177808e-04
7.37000000e-01	1.21669817e-02	1.28813566e-04
7.38000000e-01	1.20250976e-02	1.27341926e-04
7.39000000e-01	1.20791902e-02	1.28056841e-04
7.40000000e-01	1.21830778e-02	1.28939883e-04
7.41000000e-01	1.22195160e-02	1.28872757e-04
7.42000000e-01	1.21937237e-02	1.28274183e-04
7.43000000e-01	1.21569301e-02	1.28632847e-04
7.44000000e-01	1.22138189e-02	1.28747993e-04
7.45000000e-01	1.21464645e-02	1.28086598e-04
7.46000000e-01	1.20744770e-02	1.27877193e-04
7.47000000e-01	1.22152866e-02	1.28944807e-04
7.48000000e-01	1.21100081e-02	1.27725077e-04
7.49000000e-01	1.20140843e-02	1.26951670e-04
7.50000000e-01	1.20998179e-02	1.27921031e-04
7.51000000e-01	1.20928331e-02	1.27962856e-04
7.52000000e-01	1.20158415e-02	1.27494388e-04
7.53000000e-01	1.20996653e-02	1.27785140e-04
7.54000000e-01	1.20274350e-02	1.27542319e-04
7.55000000e-01	1.21072773e-02	1.28135345e-04
7.56000000e-01	1.20416834e-02	1.26888789e-04
7.57000000e-01	1.18797689e-02	1.25623623e-04
7.58000000e-01	1.20334758e-02	1.26712628e-04
7.59000000e-01	1.20531599e-02	1.26821686e-04
7.60000000e-01	1.19690495e-02	1.25830784e-04
7.61000000e-01	1.19561687e-02	1.25873289e-04
7.62000000e-01	1.18953565e-02	1.24986399e-04
7.63000000e-01	1.19189274e-02	1.25471183e-04
7.64000000e-01	1.19461769e-02	1.25485599e-04
7.65000000e-01	1.21215684e-02	1.27101097e-04
7.66000000e-01	1.19369046e-02	1.25095251e-04
7.67000000e-01	1.19278044e-02	1.25137061e-04
7.68000000e-01	1.19192140e-02	1.24809155e-04
7.69000000e-01	1.18242700e-02	1.23783899e-04
7.70000000e-01	1.17304631e-02	1.23411022e-04
7.71000000e-01	1.18020576e-02	1.24501715e-04
7.72000000e-01	1.18840918e-02	1.28387867e-04
7.73000000e-01	1.19108644e-02	1.33305158e-04
7.74000000e-01	1.18429454e-02	1.34614078e-04
7.75000000e-01	1.17534937e-02	1.36379767e-04
7.76000000e-01	1.16190798e-02	1.36817909e-04
7.77000000e-01	1.19255924e-02	1.41792562e-04
7.78000000e-01	1.18641584e-02	1.43451439e-04
7.79000000e-01	1.17733883e-02	1.43763751e-04
7.80000000e-01	1.18980519e-02	1.47080281e-04
7.81000000e-01	1.17485435e-02	1.47756885e-04
7.82000000e-01	1.18039139e-02	1.49562358e-04
7.83000000e-01	1.16323410e-02	1.49756262e-04
7.84000000e-01	1.15802868e-02	1.50769780e-04
7.85000000e-01	1.17415494e-02	1.53854876e-04
7.86000000e-01	1.16993808e-02	1.54516155e-04
7.87000000e-01	1.15259427e-02	1.53705637e-04
7.88000000e-01	1.16766902e-02	1.57425888e-04
7.89000000e-01	1.16632916e-02	1.58802474e-04
7.90000000e-01	1.15618057e-02	1.59247642e-04
7.91000000e-01	1.15197933e-02	1.59974606e-04
7.92000000e-01	1.16036828e-02	1.63074333e-04
7.93000000e-01	1.15975200e-02	1.64387700e-04
7.94000000e-01	1.14808206e-02	1.64892959e-04
7.95000000e-01	1.15102677e-02	1.66505581e-04
7.96000000e-01	1.14587726e-02	1.68874994e-04
7.97000000e-01	1.15210550e-02	1.69633799e-04
7.98000000e-01	1.16331019e-02	1.74101989e-04
7.99000000e-01	1.15649274e-02	1.73176788e-04
8.00000000e-01	1.14994874e-02	1.75379308e-04
8.01000000e-01	1.14987890e-02	1.77257403e-04
8.02000000e-01	1.16109413e-02	1.81435467e-04
8.03000000e-01	1.15861698e-02	1.81953741e-04
8.04000000e-01	1.15381230e-02	1.82308204e-04
8.05000000e-01	1.15148954e-02	1.84554424e-04
8.06000000e-01	1.14720704e-02	1.85945973e-04
8.07000000e-01	1.16343140e-02	1.90915945e-04
8.08000000e-01	1.12860489e-02	1.88015285e-04
8.09000000e-01	1.12502238e-02	1.89158418e-04
8.10000000e-01	1.13688278e-02	1.93555941e-04
8.11000000e-01	1.13961453e-02	1.95399099e-04
8.12000000e-01	1.14831533e-02	1.99064634e-04
8.13000000e-01	1.12470948e-02	1.97477853e-04
8.14000000e-01	1.12074106e-02	1.99688991e-04
8.15000000e-01	1.13958059e-02	2.05253506e-04
8.16000000e-01	1.11254940e-02	2.02156675e-04
8.17000000e-01	1.12150798e-02	2.07769064e-04
8.18000000e-01	1.09712217e-02	2.05305694e-04
8.19000000e-01	1.12303359e-02	2.11218837e-04
8.20000000e-01	1.10727728e-02	2.10859657e-04
8.21000000e-01	1.11698224e-02	2.15787806e-04
8.22000000e-01	1.11828500e-02	2.19910471e-04
8.23000000e-01	1.14340651e-02	2.26937899e-04
8.24000000e-01	1.11006673e-02	2.25513553e-04
8.25000000e-01	1.09812914e-02	2.26512148e-04
8.26000000e-01	1.10237761e-02	2.29862208e-04
8.27000000e-01	1.11529230e-02	2.34462491e-04
8.28000000e-01	1.09201879e-02	2.33001205e-04
8.29000000e-01	1.11153985e-02	2.40506553e-04
8.30000000e-01	1.10410411e-02	2.43871342e-04
8.31000000e-01	1.11652493e-02	2.49763499e-04
8.32000000e-01	1.09334984e-02	2.49438361e-04
8.33000000e-01	1.13497392e-02	2.61985511e-04
8.34000000e-01	1.07984462e-02	2.55015257e-04
8.35000000e-01	1.11267766e-02	2.69698864e-04
8.36000000e-01	1.08854483e-02	2.66761048e-04
8.37000000e-01	1.08022011e-02	2.74007705e-04
8.38000000e-01	1.10474935e-02	2.82040398e-04
8.39000000e-01	1.10790348e-02	2.88125444e-04
8.40000000e-01	1.09582898e-02	2.90829583e-04
8.41000000e-01	1.09612811e-02	2.99951763e-04
8.42000000e-01	1.09283238e-02	3.04304178e-04
8.43000000e-01	1.05996795e-02	3.02051196e-04
8.44000000e-01	1.08687217e-02	3.17153627e-04
8.45000000e-01	1.09920963e-02	3.29713091e-04
8.46000000e-01	1.11242245e-02	3.41832748e-04
8.47000000e-01	1.02087642e-02	3.27706442e-04
8.48000000e-01	1.11715765e-02	3.63462563e-04
8.49000000e-01	1.08297777e-02	3.65646535e-04
8.50000000e-01	1.06292325e-02	3.71948968e-04
8.51000000e-01	1.08543993e-02	3.96840189e-04
8.52000000e-01	1.09586114e-02	4.14483921e-04
8.53000000e-01	1.10159237e-02	4.29371275e-04
8.54000000e-01	1.07756376e-02	4.42157942e-04
8.55000000e-01	1.10718204e-02	4.72274779e-04
8.56000000e-01	1.03984961e-02	4.53683280e-04
8.57000000e-01	1.03817860e-02	4.69372884e-04
8.58000000e-01	1.07473383e-02	4.97930434e-04
8.59000000e-01	1.08051023e-02	5.05683698e-04
8.60000000e-01	1.10466989e-02	5.38713891e-04
8.61000000e-01	1.05126503e-02	5.34059197e-04
8.62000000e-01	1.04792225e-02	5.62001602e-04
8.63000000e-01	1.05426132e-02	5.82437139e-04
8.64000000e-01	1.07558717e-02	6.05371678e-04
8.65000000e-01	1.09438348e-02	6.48912806e-04
8.66000000e-01	1.04413965e-02	6.66432965e-04
8.67000000e-01	9.84649971e-03	6.73728749e-04
8.68000000e-01	1.09283405e-02	7.66734035e-04
8.69000000e-01	1.03233996e-02	7.96712994e-04
8.70000000e-01	1.02706454e-02	8.64603143e-04
8.71000000e-01	1.10045278e-02	1.00533710e-03
8.72000000e-01	1.04155171e-02	1.08910193e-03
8.73000000e-01	1.07082638e-02	1.25621620e-03
8.74000000e-01	1.18339745e-02	1.83819249e-03
8.75000000e-01	9.79895197e-03	3.21654052e-03
