% Filename : SDL1_00022_00023.h5
% Date & Time : 30-Oct-2025 16:49:19
% X-ray Energy (keV) : 13.30001
% Exposure Time (s) : 0.500
% Beam Center : 1461.24000, 208.98300
% Sample to Detector Distance (SDD) (mm) : 1990.750
% Detector Pixel Size (mm) : 0.075
% Photodiode Value : 141393.000
% I0 of Sample : 0
% I0 of Standard : 1
% 
% q(A^-1)   I(q)    I(q)_SE
0.00000000e+00	1.02221172e-02	5.71433473e-03
2.50000000e-04	0.00000000e+00	0.00000000e+00
5.00000000e-04	0.00000000e+00	0.00000000e+00
7.50000000e-04	0.00000000e+00	0.00000000e+00
1.00000000e-03	0.00000000e+00	0.00000000e+00
1.25000000e-03	0.00000000e+00	0.00000000e+00
1.50000000e-03	0.00000000e+00	0.00000000e+00
1.75000000e-03	0.00000000e+00	0.00000000e+00
2.00000000e-03	0.00000000e+00	0.00000000e+00
2.25000000e-03	0.00000000e+00	0.00000000e+00
2.50000000e-03	0.00000000e+00	0.00000000e+00
2.75000000e-03	0.00000000e+00	0.00000000e+00
3.00000000e-03	0.00000000e+00	0.00000000e+00
3.25000000e-03	3.84996354e+01	2.37477314e+01
3.50000000e-03	2.27753038e+01	6.95112768e+00
3.75000000e-03	1.61627669e+01	4.64149322e+00
4.00000000e-03	1.23395731e+01	3.27822026e+00
4.25000000e-03	7.35576044e+00	1.75449065e+00
4.50000000e-03	1.24541607e+01	3.03302285e+00
4.75000000e-03	1.35353368e+01	3.01516170e+00
5.00000000e-03	1.00803440e+01	2.16266224e+00
5.25000000e-03	8.25353002e+00	1.74374876e+00
5.50000000e-03	6.50116720e+00	1.30001634e+00
5.75000000e-03	5.27706783e+00	1.02302080e+00
6.00000000e-03	4.15088024e+00	7.64199215e-01
6.25000000e-03	3.79580962e+00	6.74485221e-01
6.50000000e-03	3.20547891e+00	5.46505151e-01
6.75000000e-03	2.85310990e+00	4.64900907e-01
7.00000000e-03	2.57199446e+00	4.01672651e-01
7.25000000e-03	2.13127414e+00	3.32970735e-01
7.50000000e-03	1.72261352e+00	2.73015775e-01
7.75000000e-03	1.55083111e+00	2.46065185e-01
8.00000000e-03	1.45401037e+00	2.22239076e-01
8.25000000e-03	1.26011939e+00	1.81497659e-01
8.50000000e-03	1.16528072e+00	1.59733296e-01
8.75000000e-03	1.06274232e+00	1.43024831e-01
9.00000000e-03	9.15661926e-01	1.18789575e-01
9.25000000e-03	8.06047233e-01	1.01896960e-01
9.50000000e-03	7.04580954e-01	8.70628994e-02
9.75000000e-03	6.44790535e-01	7.88288493e-02
1.00000000e-02	5.88753575e-01	7.06693865e-02
1.02500000e-02	5.54389378e-01	6.51711002e-02
1.05000000e-02	5.16071373e-01	5.62233228e-02
1.07500000e-02	4.59287155e-01	5.09029314e-02
1.10000000e-02	4.10730184e-01	4.37406150e-02
1.12500000e-02	3.86024574e-01	4.15754591e-02
1.15000000e-02	3.61532918e-01	3.72091764e-02
1.17500000e-02	3.34444857e-01	3.30552176e-02
1.20000000e-02	3.16811590e-01	3.02363530e-02
1.22500000e-02	2.87879311e-01	2.70396766e-02
1.25000000e-02	2.69767636e-01	2.51747534e-02
1.27500000e-02	2.51810111e-01	2.28850845e-02
1.30000000e-02	2.30188220e-01	2.00278337e-02
1.32500000e-02	2.15371896e-01	1.84701590e-02
1.35000000e-02	2.04461265e-01	1.72309668e-02
1.37500000e-02	1.93741864e-01	1.60471169e-02
1.40000000e-02	1.82437960e-01	1.45057992e-02
1.42500000e-02	1.70428696e-01	1.32251972e-02
1.45000000e-02	1.57992155e-01	1.19385148e-02
1.47500000e-02	1.50479038e-01	1.12701507e-02
1.50000000e-02	1.43296142e-01	1.05824189e-02
1.52500000e-02	1.36304981e-01	1.00210640e-02
1.55000000e-02	1.26331603e-01	8.97899023e-03
1.57500000e-02	1.20100118e-01	8.35541200e-03
1.60000000e-02	1.16082845e-01	7.95545202e-03
1.62500000e-02	1.12470425e-01	7.75872437e-03
1.65000000e-02	1.03991527e-01	6.80059277e-03
1.67500000e-02	9.89110389e-02	6.43359302e-03
1.70000000e-02	9.68459809e-02	6.21608699e-03
1.72500000e-02	9.07547875e-02	5.75202209e-03
1.75000000e-02	8.94199014e-02	5.59921850e-03
1.77500000e-02	8.42096650e-02	5.13246844e-03
1.80000000e-02	7.99922028e-02	4.87518747e-03
1.82500000e-02	7.69238048e-02	4.53303046e-03
1.85000000e-02	7.56668177e-02	4.51819524e-03
1.87500000e-02	7.25844647e-02	4.28309591e-03
1.90000000e-02	6.91839953e-02	3.92939157e-03
1.92500000e-02	6.74896176e-02	3.78871778e-03
1.95000000e-02	6.54096706e-02	3.63588964e-03
1.97500000e-02	6.27546705e-02	3.52686693e-03
2.00000000e-02	6.02029163e-02	3.30517562e-03
2.02500000e-02	5.92963649e-02	3.24905218e-03
2.05000000e-02	5.67081326e-02	3.00843947e-03
2.07500000e-02	5.24792424e-02	2.76237498e-03
2.10000000e-02	5.23833418e-02	2.77795963e-03
2.12500000e-02	5.25345905e-02	2.80025219e-03
2.15000000e-02	5.12521054e-02	2.68665602e-03
2.17500000e-02	4.97466517e-02	2.63519972e-03
2.20000000e-02	5.00401458e-02	2.65160267e-03
2.22500000e-02	4.84284449e-02	2.51990363e-03
2.25000000e-02	4.66877874e-02	2.46173060e-03
2.27500000e-02	4.60158040e-02	2.37986234e-03
2.30000000e-02	4.47418438e-02	2.34877192e-03
2.32500000e-02	4.26437608e-02	2.15433403e-03
2.35000000e-02	4.21549177e-02	2.18982483e-03
2.37500000e-02	4.34455529e-02	2.22747485e-03
2.40000000e-02	4.14029045e-02	2.15226285e-03
2.42500000e-02	4.17107555e-02	2.12678434e-03
2.45000000e-02	3.99782612e-02	2.04774285e-03
2.47500000e-02	3.92551616e-02	1.99601943e-03
2.50000000e-02	3.73878790e-02	1.90698549e-03
2.52500000e-02	3.80097305e-02	1.94974353e-03
2.55000000e-02	3.74172044e-02	1.84265306e-03
2.57500000e-02	3.66156631e-02	1.82007886e-03
2.60000000e-02	3.64828316e-02	1.80132455e-03
2.62500000e-02	3.41489618e-02	1.70967524e-03
2.65000000e-02	3.51975589e-02	1.70909961e-03
2.67500000e-02	3.40116047e-02	1.68675921e-03
2.70000000e-02	3.30980158e-02	1.64601994e-03
2.72500000e-02	3.31655950e-02	1.60787367e-03
2.75000000e-02	3.34303552e-02	1.64133471e-03
2.77500000e-02	3.20764313e-02	1.57460944e-03
2.80000000e-02	3.19539718e-02	1.53478781e-03
2.82500000e-02	3.26887483e-02	1.55620188e-03
2.85000000e-02	3.21988600e-02	1.56144479e-03
2.87500000e-02	3.13054780e-02	1.51073823e-03
2.90000000e-02	3.16139214e-02	1.52420719e-03
2.92500000e-02	3.28845017e-02	1.55384827e-03
2.95000000e-02	3.17586568e-02	1.50858594e-03
2.97500000e-02	3.15593500e-02	1.49404627e-03
3.00000000e-02	3.03402401e-02	1.44488210e-03
3.02500000e-02	3.00201276e-02	1.42991116e-03
3.05000000e-02	2.98089139e-02	1.39595946e-03
3.07500000e-02	3.00085145e-02	1.41014292e-03
3.10000000e-02	3.05201473e-02	1.42605292e-03
3.12500000e-02	2.94979138e-02	1.40316368e-03
3.15000000e-02	2.87184747e-02	1.34554807e-03
3.17500000e-02	2.89526322e-02	1.33236489e-03
3.20000000e-02	2.87720951e-02	1.33779083e-03
3.22500000e-02	2.84349854e-02	1.32982215e-03
3.25000000e-02	2.84206964e-02	1.32575066e-03
3.27500000e-02	2.78647836e-02	1.28566103e-03
3.30000000e-02	2.81331454e-02	1.28893014e-03
3.32500000e-02	2.74589109e-02	1.26343078e-03
3.35000000e-02	2.72338095e-02	1.25975319e-03
3.37500000e-02	2.65765179e-02	1.21739467e-03
3.40000000e-02	2.72727222e-02	1.25235712e-03
3.42500000e-02	2.72714702e-02	1.23608145e-03
3.45000000e-02	2.63983895e-02	1.21023995e-03
3.47500000e-02	2.65510235e-02	1.19572879e-03
3.50000000e-02	2.62037074e-02	1.19399776e-03
3.52500000e-02	2.66077884e-02	1.21208480e-03
3.55000000e-02	2.63463812e-02	1.17970183e-03
3.57500000e-02	2.62730998e-02	1.19741663e-03
3.60000000e-02	2.54089103e-02	1.14373931e-03
3.62500000e-02	2.58300414e-02	1.16505856e-03
3.65000000e-02	2.46838707e-02	1.11493155e-03
3.67500000e-02	2.56766300e-02	1.13957042e-03
3.70000000e-02	2.48096502e-02	1.12098654e-03
3.72500000e-02	2.46722140e-02	1.10310032e-03
3.75000000e-02	2.48258451e-02	1.10566668e-03
3.77500000e-02	2.53826385e-02	1.12055621e-03
3.80000000e-02	2.39239058e-02	1.06502007e-03
3.82500000e-02	2.46953282e-02	1.07100565e-03
3.85000000e-02	2.46826847e-02	1.09375826e-03
3.87500000e-02	2.46258830e-02	1.07438764e-03
3.90000000e-02	2.45729582e-02	1.07875181e-03
3.92500000e-02	2.34170038e-02	1.02863906e-03
3.95000000e-02	2.38457789e-02	1.04769893e-03
3.97500000e-02	2.38240738e-02	1.04034698e-03
4.00000000e-02	2.44670694e-02	1.06434067e-03
4.02500000e-02	2.39810526e-02	1.04576228e-03
4.05000000e-02	2.31839387e-02	9.94739646e-04
4.07500000e-02	2.37058202e-02	1.01520402e-03
4.10000000e-02	2.32548691e-02	1.00966149e-03
4.12500000e-02	2.32195430e-02	1.00886198e-03
4.15000000e-02	2.33517341e-02	9.93475954e-04
4.17500000e-02	2.21774689e-02	9.49394519e-04
4.20000000e-02	2.34490515e-02	9.89690151e-04
4.22500000e-02	2.29654276e-02	9.67646969e-04
4.25000000e-02	2.29789421e-02	9.82749244e-04
4.27500000e-02	2.35496878e-02	9.99958886e-04
4.30000000e-02	2.26761768e-02	9.51122883e-04
4.32500000e-02	2.30573256e-02	9.69645508e-04
4.35000000e-02	2.28360880e-02	9.69711219e-04
4.37500000e-02	2.29896552e-02	9.56435580e-04
4.40000000e-02	2.29127239e-02	9.62717559e-04
4.42500000e-02	2.29156961e-02	9.64747263e-04
4.45000000e-02	2.30809912e-02	9.59995256e-04
4.47500000e-02	2.24492456e-02	9.25225413e-04
4.50000000e-02	2.26801436e-02	9.50077650e-04
4.52500000e-02	2.23196253e-02	9.23462564e-04
4.55000000e-02	2.25429437e-02	9.27802660e-04
4.57500000e-02	2.22520928e-02	9.14822819e-04
4.60000000e-02	2.29451954e-02	9.51123046e-04
4.62500000e-02	2.16103054e-02	8.86332733e-04
4.65000000e-02	2.22298754e-02	9.11593499e-04
4.67500000e-02	2.19723010e-02	8.92032317e-04
4.70000000e-02	2.19750850e-02	9.02459923e-04
4.72500000e-02	2.16032528e-02	8.77831446e-04
4.75000000e-02	2.19045315e-02	9.01381288e-04
4.77500000e-02	2.22387392e-02	8.98761363e-04
4.80000000e-02	2.24148198e-02	8.99863655e-04
4.82500000e-02	2.18043942e-02	8.86136949e-04
4.85000000e-02	2.20862960e-02	9.08143569e-04
4.87500000e-02	2.22091975e-02	8.99233794e-04
4.90000000e-02	2.12751284e-02	8.55411367e-04
4.92500000e-02	2.23369488e-02	8.96468187e-04
4.95000000e-02	2.13747595e-02	8.58938095e-04
4.97500000e-02	2.18028345e-02	8.81136427e-04
5.00000000e-02	2.23859107e-02	8.94732616e-04
5.02500000e-02	2.14563372e-02	8.49031653e-04
5.05000000e-02	2.14985938e-02	8.50153763e-04
5.07500000e-02	2.12129255e-02	8.47091964e-04
5.10000000e-02	2.15050187e-02	8.52767842e-04
5.12500000e-02	2.18638512e-02	8.66781232e-04
5.15000000e-02	2.09387962e-02	8.33978227e-04
5.17500000e-02	2.15585451e-02	8.53073781e-04
5.20000000e-02	2.23844536e-02	8.80446411e-04
5.22500000e-02	2.02373759e-02	8.07981282e-04
5.25000000e-02	2.18029876e-02	8.48348800e-04
5.27500000e-02	2.11331696e-02	8.30378938e-04
5.30000000e-02	2.16320803e-02	8.46905358e-04
5.32500000e-02	2.20463577e-02	8.56893515e-04
5.35000000e-02	2.15802583e-02	8.38945545e-04
5.37500000e-02	2.10517629e-02	8.18655225e-04
5.40000000e-02	2.15338402e-02	8.46826656e-04
5.42500000e-02	2.08133523e-02	8.07241590e-04
5.45000000e-02	2.08842539e-02	8.17357163e-04
5.47500000e-02	2.14190489e-02	8.31464156e-04
5.50000000e-02	2.09567928e-02	8.10793829e-04
5.52500000e-02	2.07314698e-02	7.99774836e-04
5.55000000e-02	2.10627674e-02	8.11947618e-04
5.57500000e-02	2.12034982e-02	8.19296594e-04
5.60000000e-02	2.13147226e-02	8.17914957e-04
5.62500000e-02	2.07474633e-02	8.09743925e-04
5.65000000e-02	2.15520414e-02	8.15720503e-04
5.67500000e-02	2.10352987e-02	8.04556341e-04
5.70000000e-02	2.11506642e-02	8.02016968e-04
5.72500000e-02	2.09804944e-02	7.99048582e-04
5.75000000e-02	2.16299371e-02	8.20839991e-04
5.77500000e-02	2.10633415e-02	7.95702529e-04
5.80000000e-02	2.12143255e-02	8.06516201e-04
5.82500000e-02	2.11084647e-02	7.95206706e-04
5.85000000e-02	2.09694919e-02	7.91003410e-04
5.87500000e-02	2.14594646e-02	7.98699480e-04
5.90000000e-02	2.06256075e-02	7.75498477e-04
5.92500000e-02	2.05351140e-02	7.65892211e-04
5.95000000e-02	2.05813203e-02	7.65419991e-04
5.97500000e-02	2.06014713e-02	7.76382414e-04
6.00000000e-02	2.06148447e-02	7.64892382e-04
6.02500000e-02	2.07340554e-02	7.66169819e-04
6.05000000e-02	2.02382576e-02	7.52817697e-04
6.07500000e-02	2.06222146e-02	7.62778709e-04
6.10000000e-02	2.03636066e-02	7.56879529e-04
6.12500000e-02	2.04324604e-02	7.56834168e-04
6.15000000e-02	2.00160041e-02	7.43286886e-04
6.17500000e-02	2.06134745e-02	7.63383746e-04
6.20000000e-02	2.06515378e-02	7.58630236e-04
6.22500000e-02	1.99504398e-02	7.28789388e-04
6.25000000e-02	2.09233527e-02	7.66674990e-04
6.27500000e-02	2.12866059e-02	7.69616594e-04
6.30000000e-02	2.07728572e-02	7.56620109e-04
6.32500000e-02	2.05538795e-02	7.50506256e-04
6.35000000e-02	2.01155134e-02	7.35466158e-04
6.37500000e-02	2.11361411e-02	7.69892634e-04
6.40000000e-02	2.06871737e-02	7.48270395e-04
6.42500000e-02	2.05540495e-02	7.40071546e-04
6.45000000e-02	2.05560202e-02	7.46212633e-04
6.47500000e-02	2.04285526e-02	7.42553960e-04
6.50000000e-02	2.05259608e-02	7.48477873e-04
6.52500000e-02	2.03070474e-02	7.26874305e-04
6.55000000e-02	2.04985478e-02	7.30935103e-04
6.57500000e-02	2.01307302e-02	7.29292997e-04
6.60000000e-02	2.02479090e-02	7.22161352e-04
6.62500000e-02	2.05600665e-02	7.41186786e-04
6.65000000e-02	2.05797298e-02	7.33709542e-04
6.67500000e-02	2.07001157e-02	7.30741728e-04
6.70000000e-02	2.07797136e-02	7.40204613e-04
6.72500000e-02	2.05658442e-02	7.28572134e-04
6.75000000e-02	2.07368363e-02	7.27770151e-04
6.77500000e-02	2.06094793e-02	7.32009485e-04
6.80000000e-02	2.04194163e-02	7.29096823e-04
6.82500000e-02	2.13972508e-02	7.66023062e-04
6.85000000e-02	2.04194621e-02	7.23129344e-04
6.87500000e-02	2.00290623e-02	7.07916243e-04
6.90000000e-02	2.02505707e-02	7.11881472e-04
6.92500000e-02	2.04178836e-02	7.16183265e-04
6.95000000e-02	1.96562874e-02	7.06588650e-04
6.97500000e-02	2.00385651e-02	7.01183143e-04
7.00000000e-02	1.99934384e-02	6.98234955e-04
7.02500000e-02	2.06149268e-02	7.22141340e-04
7.05000000e-02	2.02007733e-02	6.98541269e-04
7.07500000e-02	2.00233147e-02	7.06676643e-04
7.10000000e-02	2.01181114e-02	6.97332855e-04
7.12500000e-02	1.96744551e-02	6.90330148e-04
7.15000000e-02	2.05752936e-02	7.11338788e-04
7.17500000e-02	2.05202230e-02	7.06237716e-04
7.20000000e-02	2.12159018e-02	7.25966738e-04
7.22500000e-02	2.04076733e-02	6.98025653e-04
7.25000000e-02	2.02768428e-02	7.01094504e-04
7.27500000e-02	2.03825676e-02	7.02233576e-04
7.30000000e-02	2.00489527e-02	6.89558042e-04
7.32500000e-02	2.05289241e-02	7.08123370e-04
7.35000000e-02	2.05015348e-02	7.06287929e-04
7.37500000e-02	2.06851181e-02	7.09922903e-04
7.40000000e-02	2.00287479e-02	6.89372703e-04
7.42500000e-02	1.98323152e-02	6.81237330e-04
7.45000000e-02	2.09385588e-02	7.11360677e-04
7.47500000e-02	2.03552501e-02	6.85194924e-04
7.50000000e-02	2.01289775e-02	6.82244757e-04
7.52500000e-02	2.04747823e-02	6.94794939e-04
7.55000000e-02	1.98394594e-02	6.71735006e-04
7.57500000e-02	1.96468282e-02	6.68334116e-04
7.60000000e-02	2.03015643e-02	6.89526394e-04
7.62500000e-02	1.99446101e-02	6.79790865e-04
7.65000000e-02	1.99901581e-02	6.78133015e-04
7.67500000e-02	2.00714395e-02	6.71751114e-04
7.70000000e-02	2.01780002e-02	6.77110242e-04
7.72500000e-02	1.98747871e-02	6.83220938e-04
7.75000000e-02	1.96595019e-02	6.78553830e-04
7.77500000e-02	1.99356174e-02	6.89421928e-04
7.80000000e-02	2.03328061e-02	7.06712408e-04
7.82500000e-02	1.98717726e-02	6.96611130e-04
7.85000000e-02	1.95914597e-02	6.91697935e-04
7.87500000e-02	1.95998361e-02	6.93675337e-04
7.90000000e-02	2.01114139e-02	7.11912237e-04
7.92500000e-02	1.97998469e-02	6.98823462e-04
7.95000000e-02	2.03258028e-02	7.23513846e-04
7.97500000e-02	1.97102136e-02	7.11008855e-04
8.00000000e-02	2.00071232e-02	7.14791651e-04
8.02500000e-02	2.06911799e-02	7.37726350e-04
8.05000000e-02	2.04419693e-02	7.31626311e-04
8.07500000e-02	2.04589089e-02	7.40342159e-04
8.10000000e-02	2.07371414e-02	7.47640214e-04
8.12500000e-02	2.00300214e-02	7.28150237e-04
8.15000000e-02	2.05065000e-02	7.42089399e-04
8.17500000e-02	2.01789024e-02	7.32372386e-04
8.20000000e-02	2.05050644e-02	7.47906630e-04
8.22500000e-02	2.02799996e-02	7.36689414e-04
8.25000000e-02	1.97768844e-02	7.22836624e-04
8.27500000e-02	2.00099833e-02	7.31068869e-04
8.30000000e-02	2.00377795e-02	7.30482949e-04
8.32500000e-02	2.04190469e-02	7.52243482e-04
8.35000000e-02	1.99743571e-02	7.43498304e-04
8.37500000e-02	1.96614184e-02	7.11539366e-04
8.40000000e-02	1.98397135e-02	7.23457794e-04
8.42500000e-02	1.99633982e-02	7.39341558e-04
8.45000000e-02	1.98111922e-02	7.32657176e-04
8.47500000e-02	1.99036119e-02	7.34964252e-04
8.50000000e-02	2.02542989e-02	7.43866406e-04
8.52500000e-02	2.04145007e-02	7.56796762e-04
8.55000000e-02	2.02618547e-02	7.40965445e-04
8.57500000e-02	2.03536514e-02	7.50103658e-04
8.60000000e-02	1.96724469e-02	7.27704528e-04
8.62500000e-02	2.01928309e-02	7.43723743e-04
8.65000000e-02	2.00402861e-02	7.38430242e-04
8.67500000e-02	2.00283916e-02	7.32105732e-04
8.70000000e-02	1.98044851e-02	7.26414238e-04
8.72500000e-02	1.98856863e-02	7.15914039e-04
8.75000000e-02	1.99266899e-02	7.09943745e-04
8.77500000e-02	1.97740187e-02	6.98227450e-04
8.80000000e-02	1.99219022e-02	6.99747713e-04
8.82500000e-02	2.01906119e-02	7.08263725e-04
8.85000000e-02	1.98196333e-02	6.94572752e-04
8.87500000e-02	2.01907352e-02	6.90229585e-04
8.90000000e-02	2.02097633e-02	6.98985501e-04
8.92500000e-02	2.05664177e-02	7.02819214e-04
8.95000000e-02	1.98376989e-02	6.80656059e-04
8.97500000e-02	2.04010218e-02	6.92555120e-04
9.00000000e-02	1.95884858e-02	6.65108487e-04
9.02500000e-02	1.99738523e-02	6.80705263e-04
9.05000000e-02	2.01073137e-02	6.85707214e-04
9.07500000e-02	2.04154395e-02	6.86113145e-04
9.10000000e-02	1.99821144e-02	6.70827822e-04
9.12500000e-02	1.98564386e-02	6.69765143e-04
9.15000000e-02	1.98116460e-02	6.63497515e-04
9.17500000e-02	2.04144471e-02	6.86070126e-04
9.20000000e-02	2.04169821e-02	6.85071209e-04
9.22500000e-02	1.99637055e-02	6.67693362e-04
9.25000000e-02	1.96832366e-02	6.50764174e-04
9.27500000e-02	1.95599668e-02	6.44605520e-04
9.30000000e-02	2.02387505e-02	6.68820320e-04
9.32500000e-02	1.99505136e-02	6.63601216e-04
9.35000000e-02	1.95493383e-02	6.42894655e-04
9.37500000e-02	1.97401085e-02	6.49963338e-04
9.40000000e-02	1.94403153e-02	6.44003790e-04
9.42500000e-02	1.93666261e-02	6.35519058e-04
9.45000000e-02	2.02009707e-02	6.54302891e-04
9.47500000e-02	1.99120090e-02	6.57215786e-04
9.50000000e-02	1.98953742e-02	6.44920190e-04
9.52500000e-02	1.98659834e-02	6.42934146e-04
9.55000000e-02	2.04440348e-02	6.58785349e-04
9.57500000e-02	2.01350346e-02	6.49678699e-04
9.60000000e-02	1.98460949e-02	6.44050271e-04
9.62500000e-02	2.00415791e-02	6.48202728e-04
9.65000000e-02	2.00743853e-02	6.47931048e-04
9.67500000e-02	2.01434293e-02	6.47101495e-04
9.70000000e-02	2.05058383e-02	6.57579357e-04
9.72500000e-02	1.97986104e-02	6.35454046e-04
9.75000000e-02	2.03690083e-02	6.51016405e-04
9.77500000e-02	1.99701385e-02	6.34870141e-04
9.80000000e-02	1.99745219e-02	6.37321340e-04
9.82500000e-02	1.97713012e-02	6.31277893e-04
9.85000000e-02	1.97648966e-02	6.33044927e-04
9.87500000e-02	2.02714302e-02	6.45512839e-04
9.90000000e-02	1.96576108e-02	6.31304758e-04
9.92500000e-02	2.00386989e-02	6.36973670e-04
9.95000000e-02	2.03047245e-02	6.42225076e-04
9.97500000e-02	2.00733358e-02	6.30397434e-04
1.00000000e-01	1.95379906e-02	5.05098754e-04
1.00500000e-01	1.99402722e-02	4.47545215e-04
1.01000000e-01	1.96105996e-02	4.34953473e-04
1.01500000e-01	1.97723965e-02	4.37507099e-04
1.02000000e-01	1.94807751e-02	4.31262929e-04
1.02500000e-01	1.96591851e-02	4.32922372e-04
1.03000000e-01	2.01304137e-02	4.40911451e-04
1.03500000e-01	1.98340503e-02	4.35292562e-04
1.04000000e-01	1.93769173e-02	4.24501103e-04
1.04500000e-01	1.97126778e-02	4.30022370e-04
1.05000000e-01	1.97638627e-02	4.29065549e-04
1.05500000e-01	1.98626781e-02	4.29081712e-04
1.06000000e-01	1.96911846e-02	4.25568181e-04
1.06500000e-01	1.96760711e-02	4.23721472e-04
1.07000000e-01	1.95793308e-02	4.27287523e-04
1.07500000e-01	1.98102270e-02	4.40777954e-04
1.08000000e-01	1.98456398e-02	4.45424309e-04
1.08500000e-01	1.98686956e-02	4.47414742e-04
1.09000000e-01	1.98251000e-02	4.48043949e-04
1.09500000e-01	1.98672571e-02	4.52713175e-04
1.10000000e-01	1.97561734e-02	4.44609079e-04
1.10500000e-01	1.98738050e-02	4.36752759e-04
1.11000000e-01	1.99247513e-02	4.31809546e-04
1.11500000e-01	1.96304631e-02	4.23702206e-04
1.12000000e-01	1.99035763e-02	4.24754553e-04
1.12500000e-01	2.00384882e-02	4.25193603e-04
1.13000000e-01	1.98882104e-02	4.20574668e-04
1.13500000e-01	2.00093063e-02	4.20026182e-04
1.14000000e-01	1.99437056e-02	4.17302834e-04
1.14500000e-01	1.98614467e-02	4.16951845e-04
1.15000000e-01	1.97275877e-02	4.11512540e-04
1.15500000e-01	1.96875276e-02	4.10718619e-04
1.16000000e-01	1.98562364e-02	4.12406855e-04
1.16500000e-01	1.96323204e-02	4.08312859e-04
1.17000000e-01	1.97734547e-02	4.10644372e-04
1.17500000e-01	1.98780953e-02	4.10092155e-04
1.18000000e-01	1.98476076e-02	4.07620015e-04
1.18500000e-01	1.99041409e-02	4.09018814e-04
1.19000000e-01	2.01347572e-02	4.11375307e-04
1.19500000e-01	1.93970724e-02	3.96674970e-04
1.20000000e-01	1.94467110e-02	3.95684237e-04
1.20500000e-01	1.98097034e-02	4.02545377e-04
1.21000000e-01	1.97006070e-02	3.98980239e-04
1.21500000e-01	1.96456029e-02	3.98632798e-04
1.22000000e-01	1.96952467e-02	3.98709882e-04
1.22500000e-01	1.96816779e-02	3.95817071e-04
1.23000000e-01	1.97146239e-02	3.96204888e-04
1.23500000e-01	1.96571645e-02	3.93155242e-04
1.24000000e-01	1.97848155e-02	3.98040510e-04
1.24500000e-01	1.96712896e-02	3.93868403e-04
1.25000000e-01	1.95065469e-02	3.89456341e-04
1.25500000e-01	1.95752187e-02	3.90037274e-04
1.26000000e-01	1.95779088e-02	3.90214453e-04
1.26500000e-01	1.97829612e-02	3.91181373e-04
1.27000000e-01	1.98785789e-02	3.92587023e-04
1.27500000e-01	1.96512568e-02	3.86552806e-04
1.28000000e-01	1.99038009e-02	3.92479218e-04
1.28500000e-01	1.93807053e-02	3.84089628e-04
1.29000000e-01	1.95309492e-02	3.84032930e-04
1.29500000e-01	1.96409791e-02	3.83079903e-04
1.30000000e-01	1.97787517e-02	3.86110743e-04
1.30500000e-01	1.96726589e-02	3.84412138e-04
1.31000000e-01	1.92834799e-02	3.75740143e-04
1.31500000e-01	1.95770409e-02	3.79626628e-04
1.32000000e-01	1.99087872e-02	3.84952911e-04
1.32500000e-01	1.97772013e-02	3.80915244e-04
1.33000000e-01	1.96462629e-02	3.81059366e-04
1.33500000e-01	1.94555635e-02	3.74286113e-04
1.34000000e-01	1.94872758e-02	3.74373956e-04
1.34500000e-01	1.98726931e-02	3.80161049e-04
1.35000000e-01	1.96221983e-02	3.72734617e-04
1.35500000e-01	1.95817401e-02	3.73102152e-04
1.36000000e-01	1.96532890e-02	3.72453026e-04
1.36500000e-01	1.93190424e-02	3.67328464e-04
1.37000000e-01	1.96015977e-02	3.70128265e-04
1.37500000e-01	1.96052583e-02	3.69946910e-04
1.38000000e-01	1.95058126e-02	3.67720494e-04
1.38500000e-01	1.94247686e-02	3.65912134e-04
1.39000000e-01	1.93520226e-02	3.65627184e-04
1.39500000e-01	1.94055638e-02	3.65583526e-04
1.40000000e-01	1.97092553e-02	3.71891107e-04
1.40500000e-01	1.97361795e-02	3.69464314e-04
1.41000000e-01	1.93200618e-02	3.62578292e-04
1.41500000e-01	1.96149239e-02	3.67238525e-04
1.42000000e-01	1.95666684e-02	3.63688211e-04
1.42500000e-01	1.92570588e-02	3.60090569e-04
1.43000000e-01	1.96230059e-02	3.65319556e-04
1.43500000e-01	1.92416844e-02	3.57354243e-04
1.44000000e-01	1.93072828e-02	3.59110702e-04
1.44500000e-01	1.98274387e-02	3.64810232e-04
1.45000000e-01	1.93366577e-02	3.60149189e-04
1.45500000e-01	1.94261054e-02	3.59502000e-04
1.46000000e-01	1.90696811e-02	3.54278554e-04
1.46500000e-01	1.92503636e-02	3.53967415e-04
1.47000000e-01	1.91905848e-02	3.54039362e-04
1.47500000e-01	1.96350583e-02	3.59650582e-04
1.48000000e-01	1.93200825e-02	3.54136760e-04
1.48500000e-01	1.96144302e-02	3.58890151e-04
1.49000000e-01	1.94291316e-02	3.54341291e-04
1.49500000e-01	1.93045815e-02	3.52397446e-04
1.50000000e-01	1.93516240e-02	3.52839988e-04
1.50500000e-01	1.93981934e-02	3.54050805e-04
1.51000000e-01	1.94011332e-02	3.52484203e-04
1.51500000e-01	1.94890419e-02	3.51049901e-04
1.52000000e-01	1.92683694e-02	3.46886758e-04
1.52500000e-01	1.92797214e-02	3.48663821e-04
1.53000000e-01	1.92682126e-02	3.46839382e-04
1.53500000e-01	1.93537627e-02	3.46504982e-04
1.54000000e-01	1.90694834e-02	3.42236602e-04
1.54500000e-01	1.90448752e-02	3.47141875e-04
1.55000000e-01	1.90775777e-02	3.53326418e-04
1.55500000e-01	1.92754032e-02	3.60120645e-04
1.56000000e-01	1.92430059e-02	3.62318066e-04
1.56500000e-01	1.94274257e-02	3.62465067e-04
1.57000000e-01	1.91690487e-02	3.59271431e-04
1.57500000e-01	1.90999825e-02	3.53339100e-04
1.58000000e-01	1.90775967e-02	3.45160575e-04
1.58500000e-01	1.92324241e-02	3.46775885e-04
1.59000000e-01	1.91124285e-02	3.42986406e-04
1.59500000e-01	1.90028914e-02	3.42730233e-04
1.60000000e-01	1.91478577e-02	3.43716304e-04
1.60500000e-01	1.94093823e-02	3.44199059e-04
1.61000000e-01	1.89843016e-02	3.38278031e-04
1.61500000e-01	1.90887790e-02	3.39042633e-04
1.62000000e-01	1.89199469e-02	3.35513576e-04
1.62500000e-01	1.90632883e-02	3.36629672e-04
1.63000000e-01	1.91524949e-02	3.37460983e-04
1.63500000e-01	1.90141209e-02	3.37066100e-04
1.64000000e-01	1.90839998e-02	3.35270217e-04
1.64500000e-01	1.91634591e-02	3.36566846e-04
1.65000000e-01	1.90148868e-02	3.33936885e-04
1.65500000e-01	1.89681670e-02	3.33019704e-04
1.66000000e-01	1.89416323e-02	3.32285797e-04
1.66500000e-01	1.88258213e-02	3.29007356e-04
1.67000000e-01	1.92806700e-02	3.35816869e-04
1.67500000e-01	1.89540454e-02	3.30170748e-04
1.68000000e-01	1.88655059e-02	3.27213661e-04
1.68500000e-01	1.88616388e-02	3.27382697e-04
1.69000000e-01	1.87566477e-02	3.25383822e-04
1.69500000e-01	1.84359080e-02	3.19131287e-04
1.70000000e-01	1.86319290e-02	3.21794474e-04
1.70500000e-01	1.89614585e-02	3.27023488e-04
1.71000000e-01	1.91437821e-02	3.28937230e-04
1.71500000e-01	1.87134282e-02	3.23020719e-04
1.72000000e-01	1.89264092e-02	3.23826230e-04
1.72500000e-01	1.90611347e-02	3.25677644e-04
1.73000000e-01	1.86619680e-02	3.20663436e-04
1.73500000e-01	1.90982302e-02	3.24452455e-04
1.74000000e-01	1.85885395e-02	3.18054124e-04
1.74500000e-01	1.88709565e-02	3.19370295e-04
1.75000000e-01	1.89451790e-02	3.19881678e-04
1.75500000e-01	1.88579887e-02	3.16544828e-04
1.76000000e-01	1.87654886e-02	3.16266557e-04
1.76500000e-01	1.86717004e-02	3.14695385e-04
1.77000000e-01	1.87432116e-02	3.15399819e-04
1.77500000e-01	1.87713497e-02	3.16372922e-04
1.78000000e-01	1.85666052e-02	3.12361464e-04
1.78500000e-01	1.88058816e-02	3.15755477e-04
1.79000000e-01	1.88120442e-02	3.15415359e-04
1.79500000e-01	1.87272148e-02	3.14569645e-04
1.80000000e-01	1.86992354e-02	3.14772976e-04
1.80500000e-01	1.87559100e-02	3.13140489e-04
1.81000000e-01	1.86801465e-02	3.12849102e-04
1.81500000e-01	1.84953407e-02	3.08246631e-04
1.82000000e-01	1.85278925e-02	3.10760466e-04
1.82500000e-01	1.88621244e-02	3.13494874e-04
1.83000000e-01	1.86770520e-02	3.10953973e-04
1.83500000e-01	1.84480314e-02	3.07384868e-04
1.84000000e-01	1.84068336e-02	3.06506128e-04
1.84500000e-01	1.84520814e-02	3.07204670e-04
1.85000000e-01	1.83916066e-02	3.05462924e-04
1.85500000e-01	1.87372609e-02	3.09848412e-04
1.86000000e-01	1.84847874e-02	3.06334626e-04
1.86500000e-01	1.85754176e-02	3.05658176e-04
1.87000000e-01	1.85275049e-02	3.06656624e-04
1.87500000e-01	1.85409922e-02	3.06485800e-04
1.88000000e-01	1.85004030e-02	3.05033602e-04
1.88500000e-01	1.86182188e-02	3.05153876e-04
1.89000000e-01	1.85724374e-02	3.03216623e-04
1.89500000e-01	1.85965251e-02	3.04683005e-04
1.90000000e-01	1.84499407e-02	3.01043275e-04
1.90500000e-01	1.84853207e-02	3.03333357e-04
1.91000000e-01	1.86382341e-02	3.03597327e-04
1.91500000e-01	1.83883758e-02	3.00366965e-04
1.92000000e-01	1.84165457e-02	2.98049216e-04
1.92500000e-01	1.85713624e-02	3.01865661e-04
1.93000000e-01	1.85932617e-02	3.03397959e-04
1.93500000e-01	1.83977945e-02	2.97282034e-04
1.94000000e-01	1.84666970e-02	2.98870908e-04
1.94500000e-01	1.84898871e-02	2.98360413e-04
1.95000000e-01	1.83196447e-02	2.95983051e-04
1.95500000e-01	1.84207334e-02	2.95554459e-04
1.96000000e-01	1.83756097e-02	2.96849883e-04
1.96500000e-01	1.85094296e-02	2.98284049e-04
1.97000000e-01	1.82755170e-02	2.94982430e-04
1.97500000e-01	1.83989857e-02	2.94346715e-04
1.98000000e-01	1.86710227e-02	2.98946949e-04
1.98500000e-01	1.84186093e-02	2.94236093e-04
1.99000000e-01	1.82292599e-02	2.91305670e-04
1.99500000e-01	1.84917755e-02	2.94588659e-04
2.00000000e-01	1.83414458e-02	2.92996532e-04
2.00500000e-01	1.84846197e-02	2.95029174e-04
2.01000000e-01	1.81855514e-02	2.89611174e-04
2.01500000e-01	1.82226988e-02	2.90105852e-04
2.02000000e-01	1.82685768e-02	2.91060030e-04
2.02500000e-01	1.83006644e-02	2.89106772e-04
2.03000000e-01	1.82761889e-02	2.90144859e-04
2.03500000e-01	1.84233141e-02	2.89998119e-04
2.04000000e-01	1.85486456e-02	2.93844218e-04
2.04500000e-01	1.81828577e-02	2.87467681e-04
2.05000000e-01	1.81233126e-02	2.85464516e-04
2.05500000e-01	1.83445448e-02	2.88827038e-04
2.06000000e-01	1.82602260e-02	2.86289699e-04
2.06500000e-01	1.78654885e-02	2.81082815e-04
2.07000000e-01	1.83003953e-02	2.87272197e-04
2.07500000e-01	1.81858866e-02	2.84457456e-04
2.08000000e-01	1.82842436e-02	2.87792518e-04
2.08500000e-01	1.78192223e-02	2.77976174e-04
2.09000000e-01	1.82027547e-02	2.85234593e-04
2.09500000e-01	1.82882893e-02	2.84181503e-04
2.10000000e-01	1.80177403e-02	2.80786139e-04
2.10500000e-01	1.80943792e-02	2.82301665e-04
2.11000000e-01	1.81979312e-02	2.83370704e-04
2.11500000e-01	1.84133811e-02	2.85927362e-04
2.12000000e-01	1.80890566e-02	2.80367074e-04
2.12500000e-01	1.82879036e-02	2.82367661e-04
2.13000000e-01	1.81906251e-02	2.81370191e-04
2.13500000e-01	1.79447420e-02	2.77460922e-04
2.14000000e-01	1.81195253e-02	2.80082763e-04
2.14500000e-01	1.81636679e-02	2.79500560e-04
2.15000000e-01	1.80076877e-02	2.78706045e-04
2.15500000e-01	1.80281149e-02	2.76813235e-04
2.16000000e-01	1.82689568e-02	2.79837005e-04
2.16500000e-01	1.80273194e-02	2.77634386e-04
2.17000000e-01	1.81027977e-02	2.82195667e-04
2.17500000e-01	1.79827707e-02	2.85189105e-04
2.18000000e-01	1.79053976e-02	2.83258245e-04
2.18500000e-01	1.79502333e-02	2.87665217e-04
2.19000000e-01	1.80280655e-02	2.89077797e-04
2.19500000e-01	1.79971671e-02	2.89414231e-04
2.20000000e-01	1.78466464e-02	2.88900999e-04
2.20500000e-01	1.82017481e-02	2.93631576e-04
2.21000000e-01	1.79170107e-02	2.90237649e-04
2.21500000e-01	1.79203494e-02	2.92559903e-04
2.22000000e-01	1.80452037e-02	2.94308826e-04
2.22500000e-01	1.81127995e-02	2.95911932e-04
2.23000000e-01	1.78860054e-02	2.93427844e-04
2.23500000e-01	1.77969269e-02	2.92347992e-04
2.24000000e-01	1.80273967e-02	2.96125112e-04
2.24500000e-01	1.79702833e-02	2.97314867e-04
2.25000000e-01	1.76903105e-02	2.91917888e-04
2.25500000e-01	1.82635184e-02	3.01496500e-04
2.26000000e-01	1.78876462e-02	2.97994160e-04
2.26500000e-01	1.80161151e-02	2.93534962e-04
2.27000000e-01	1.78570838e-02	2.89673456e-04
2.27500000e-01	1.79697707e-02	2.88249440e-04
2.28000000e-01	1.82843832e-02	2.91894874e-04
2.28500000e-01	1.77636418e-02	2.83289223e-04
2.29000000e-01	1.77783433e-02	2.81503418e-04
2.29500000e-01	1.78466943e-02	2.81285829e-04
2.30000000e-01	1.80156882e-02	2.83139771e-04
2.30500000e-01	1.77148841e-02	2.77531075e-04
2.31000000e-01	1.77189059e-02	2.77292223e-04
2.31500000e-01	1.77209062e-02	2.76233109e-04
2.32000000e-01	1.76573763e-02	2.74934548e-04
2.32500000e-01	1.77226404e-02	2.75390429e-04
2.33000000e-01	1.78410248e-02	2.77146478e-04
2.33500000e-01	1.77676201e-02	2.75163620e-04
2.34000000e-01	1.76923264e-02	2.72575836e-04
2.34500000e-01	1.79538942e-02	2.76581519e-04
2.35000000e-01	1.78260869e-02	2.72611196e-04
2.35500000e-01	1.77673493e-02	2.72465202e-04
2.36000000e-01	1.76341743e-02	2.71011697e-04
2.36500000e-01	1.80197459e-02	2.75117432e-04
2.37000000e-01	1.78414835e-02	2.72680432e-04
2.37500000e-01	1.77800089e-02	2.71328189e-04
2.38000000e-01	1.78282751e-02	2.70474029e-04
2.38500000e-01	1.78206699e-02	2.69887880e-04
2.39000000e-01	1.76293248e-02	2.67855519e-04
2.39500000e-01	1.77886912e-02	2.68754125e-04
2.40000000e-01	1.77166332e-02	2.67787636e-04
2.40500000e-01	1.75877456e-02	2.65683918e-04
2.41000000e-01	1.74972180e-02	2.64284879e-04
2.41500000e-01	1.77124315e-02	2.66477527e-04
2.42000000e-01	1.74048432e-02	2.61707318e-04
2.42500000e-01	1.77442581e-02	2.64812753e-04
2.43000000e-01	1.75318390e-02	2.62694005e-04
2.43500000e-01	1.76608350e-02	2.64255023e-04
2.44000000e-01	1.76213578e-02	2.62410976e-04
2.44500000e-01	1.74824527e-02	2.60621346e-04
2.45000000e-01	1.74941546e-02	2.60207000e-04
2.45500000e-01	1.77209178e-02	2.63183255e-04
2.46000000e-01	1.75689102e-02	2.60795130e-04
2.46500000e-01	1.75393422e-02	2.60566898e-04
2.47000000e-01	1.74547811e-02	2.59039933e-04
2.47500000e-01	1.73636467e-02	2.56204257e-04
2.48000000e-01	1.75283687e-02	2.59628527e-04
2.48500000e-01	1.73844559e-02	2.56302366e-04
2.49000000e-01	1.75527927e-02	2.58156753e-04
2.49500000e-01	1.75065058e-02	2.58594819e-04
2.50000000e-01	1.75769615e-02	2.59367037e-04
2.50500000e-01	1.73214116e-02	2.55446565e-04
2.51000000e-01	1.74288706e-02	2.55755159e-04
2.51500000e-01	1.74464770e-02	2.55948707e-04
2.52000000e-01	1.74232913e-02	2.55300699e-04
2.52500000e-01	1.76415671e-02	2.57564954e-04
2.53000000e-01	1.76375428e-02	2.58873018e-04
2.53500000e-01	1.73455722e-02	2.54149884e-04
2.54000000e-01	1.74645205e-02	2.55791451e-04
2.54500000e-01	1.73533989e-02	2.53795506e-04
2.55000000e-01	1.73920959e-02	2.53135186e-04
2.55500000e-01	1.73315864e-02	2.51817425e-04
2.56000000e-01	1.73700931e-02	2.51552110e-04
2.56500000e-01	1.72357262e-02	2.50867822e-04
2.57000000e-01	1.73418422e-02	2.50837608e-04
2.57500000e-01	1.75284339e-02	2.53285338e-04
2.58000000e-01	1.72700861e-02	2.50203942e-04
2.58500000e-01	1.73761837e-02	2.50856606e-04
2.59000000e-01	1.74509139e-02	2.51706411e-04
2.59500000e-01	1.77582553e-02	2.55486435e-04
2.60000000e-01	1.72390561e-02	2.48248667e-04
2.60500000e-01	1.72823541e-02	2.48569117e-04
2.61000000e-01	1.74554611e-02	2.50362571e-04
2.61500000e-01	1.74711972e-02	2.51936849e-04
2.62000000e-01	1.72511699e-02	2.48355364e-04
2.62500000e-01	1.72562527e-02	2.48248783e-04
2.63000000e-01	1.73348692e-02	2.48099284e-04
2.63500000e-01	1.74525608e-02	2.49072593e-04
2.64000000e-01	1.73439387e-02	2.47803488e-04
2.64500000e-01	1.72497843e-02	2.47305430e-04
2.65000000e-01	1.72168014e-02	2.44541575e-04
2.65500000e-01	1.72217966e-02	2.44885976e-04
2.66000000e-01	1.71539299e-02	2.44211809e-04
2.66500000e-01	1.72971591e-02	2.45316537e-04
2.67000000e-01	1.71244272e-02	2.42640540e-04
2.67500000e-01	1.75435197e-02	2.47891010e-04
2.68000000e-01	1.70126977e-02	2.40760225e-04
2.68500000e-01	1.73575715e-02	2.45542732e-04
2.69000000e-01	1.71063246e-02	2.41743673e-04
2.69500000e-01	1.71726850e-02	2.42217373e-04
2.70000000e-01	1.73907853e-02	2.44699050e-04
2.70500000e-01	1.71191513e-02	2.40895661e-04
2.71000000e-01	1.73441752e-02	2.43572898e-04
2.71500000e-01	1.72352044e-02	2.42550826e-04
2.72000000e-01	1.71244355e-02	2.40403692e-04
2.72500000e-01	1.69365151e-02	2.38391989e-04
2.73000000e-01	1.71036887e-02	2.38992380e-04
2.73500000e-01	1.71204735e-02	2.39474270e-04
2.74000000e-01	1.69175266e-02	2.36857118e-04
2.74500000e-01	1.72552843e-02	2.39682604e-04
2.75000000e-01	1.72737475e-02	2.41092303e-04
2.75500000e-01	1.72026655e-02	2.40427367e-04
2.76000000e-01	1.70436568e-02	2.36709991e-04
2.76500000e-01	1.71475627e-02	2.39592138e-04
2.77000000e-01	1.70639071e-02	2.38321654e-04
2.77500000e-01	1.69583564e-02	2.35523003e-04
2.78000000e-01	1.70278679e-02	2.36283464e-04
2.78500000e-01	1.70416683e-02	2.35877565e-04
2.79000000e-01	1.70040971e-02	2.35406318e-04
2.79500000e-01	1.70590490e-02	2.35705005e-04
2.80000000e-01	1.71321688e-02	2.37843431e-04
2.80500000e-01	1.71430641e-02	2.36375426e-04
2.81000000e-01	1.70836484e-02	2.36514232e-04
2.81500000e-01	1.69230941e-02	2.34226208e-04
2.82000000e-01	1.68125416e-02	2.32616331e-04
2.82500000e-01	1.70121264e-02	2.36048714e-04
2.83000000e-01	1.71503118e-02	2.35469380e-04
2.83500000e-01	1.70193929e-02	2.33536538e-04
2.84000000e-01	1.67474670e-02	2.30294353e-04
2.84500000e-01	1.69989051e-02	2.32815320e-04
2.85000000e-01	1.69697937e-02	2.33338911e-04
2.85500000e-01	1.66402581e-02	2.27540357e-04
2.86000000e-01	1.69457082e-02	2.32389188e-04
2.86500000e-01	1.69379139e-02	2.31992312e-04
2.87000000e-01	1.70274234e-02	2.32897132e-04
2.87500000e-01	1.71448422e-02	2.34177922e-04
2.88000000e-01	1.69289195e-02	2.29917844e-04
2.88500000e-01	1.70313112e-02	2.32042071e-04
2.89000000e-01	1.69068186e-02	2.30866916e-04
2.89500000e-01	1.69113298e-02	2.30167732e-04
2.90000000e-01	1.70264089e-02	2.31375979e-04
2.90500000e-01	1.67980936e-02	2.27612636e-04
2.91000000e-01	1.67457029e-02	2.27286561e-04
2.91500000e-01	1.68279443e-02	2.27270177e-04
2.92000000e-01	1.67900553e-02	2.27761120e-04
2.92500000e-01	1.67496251e-02	2.26133621e-04
2.93000000e-01	1.67582122e-02	2.26699467e-04
2.93500000e-01	1.66856697e-02	2.24793536e-04
2.94000000e-01	1.67118993e-02	2.25448433e-04
2.94500000e-01	1.65821533e-02	2.24852778e-04
2.95000000e-01	1.67410494e-02	2.25022867e-04
2.95500000e-01	1.67548424e-02	2.26199503e-04
2.96000000e-01	1.65771810e-02	2.23305437e-04
2.96500000e-01	1.69701556e-02	2.27639683e-04
2.97000000e-01	1.68809601e-02	2.26509395e-04
2.97500000e-01	1.68801376e-02	2.25944230e-04
2.98000000e-01	1.68721928e-02	2.26419799e-04
2.98500000e-01	1.68458376e-02	2.26195340e-04
2.99000000e-01	1.68723185e-02	2.25631923e-04
2.99500000e-01	1.67783792e-02	2.23935530e-04
3.00000000e-01	1.65619167e-02	2.21297379e-04
3.00500000e-01	1.67467478e-02	2.23465618e-04
3.01000000e-01	1.65151868e-02	2.19683191e-04
3.01500000e-01	1.67522825e-02	2.23508159e-04
3.02000000e-01	1.69063610e-02	2.24517391e-04
3.02500000e-01	1.67602322e-02	2.22788309e-04
3.03000000e-01	1.66414909e-02	2.21158914e-04
3.03500000e-01	1.65139735e-02	2.19434162e-04
3.04000000e-01	1.67545978e-02	2.22200310e-04
3.04500000e-01	1.64674279e-02	2.18944973e-04
3.05000000e-01	1.67962199e-02	2.22886314e-04
3.05500000e-01	1.68290903e-02	2.22890731e-04
3.06000000e-01	1.65643605e-02	2.18323817e-04
3.06500000e-01	1.64083566e-02	2.17390841e-04
3.07000000e-01	1.67048469e-02	2.20719114e-04
3.07500000e-01	1.66091497e-02	2.19605752e-04
3.08000000e-01	1.66089073e-02	2.19057542e-04
3.08500000e-01	1.67178035e-02	2.19760577e-04
3.09000000e-01	1.66307862e-02	2.19291019e-04
3.09500000e-01	1.67049145e-02	2.19914741e-04
3.10000000e-01	1.66727233e-02	2.19446372e-04
3.10500000e-01	1.64930692e-02	2.17037885e-04
3.11000000e-01	1.64952342e-02	2.16907427e-04
3.11500000e-01	1.67163812e-02	2.19146152e-04
3.12000000e-01	1.66629797e-02	2.18002943e-04
3.12500000e-01	1.63030466e-02	2.14187450e-04
3.13000000e-01	1.64635201e-02	2.15367340e-04
3.13500000e-01	1.64516688e-02	2.15664912e-04
3.14000000e-01	1.63596574e-02	2.13668584e-04
3.14500000e-01	1.63986411e-02	2.14421714e-04
3.15000000e-01	1.64734258e-02	2.15872974e-04
3.15500000e-01	1.65837404e-02	2.16145881e-04
3.16000000e-01	1.65096862e-02	2.15952549e-04
3.16500000e-01	1.63649528e-02	2.13203947e-04
3.17000000e-01	1.64192552e-02	2.12846946e-04
3.17500000e-01	1.64179281e-02	2.13676042e-04
3.18000000e-01	1.64277613e-02	2.13500627e-04
3.18500000e-01	1.64682513e-02	2.13380663e-04
3.19000000e-01	1.63564697e-02	2.12495672e-04
3.19500000e-01	1.65753818e-02	2.15300978e-04
3.20000000e-01	1.65806119e-02	2.14847346e-04
3.20500000e-01	1.64213795e-02	2.12306825e-04
3.21000000e-01	1.62260470e-02	2.09991038e-04
3.21500000e-01	1.63843282e-02	2.11934038e-04
3.22000000e-01	1.62991171e-02	2.11039985e-04
3.22500000e-01	1.63388473e-02	2.11180423e-04
3.23000000e-01	1.63626804e-02	2.11420240e-04
3.23500000e-01	1.63357097e-02	2.10795235e-04
3.24000000e-01	1.65155370e-02	2.12314157e-04
3.24500000e-01	1.62391020e-02	2.09746068e-04
3.25000000e-01	1.63478839e-02	2.10087227e-04
3.25500000e-01	1.64677906e-02	2.11266738e-04
3.26000000e-01	1.62255440e-02	2.07917153e-04
3.26500000e-01	1.60925775e-02	2.07109824e-04
3.27000000e-01	1.63511058e-02	2.09704550e-04
3.27500000e-01	1.63870492e-02	2.09069563e-04
3.28000000e-01	1.61457000e-02	2.06902531e-04
3.28500000e-01	1.63569610e-02	2.08934073e-04
3.29000000e-01	1.61500606e-02	2.06258807e-04
3.29500000e-01	1.62247563e-02	2.07209271e-04
3.30000000e-01	1.63262232e-02	2.07466195e-04
3.30500000e-01	1.63246777e-02	2.08271374e-04
3.31000000e-01	1.61071057e-02	2.05203827e-04
3.31500000e-01	1.60617874e-02	2.04333369e-04
3.32000000e-01	1.62175153e-02	2.05986804e-04
3.32500000e-01	1.60383634e-02	2.04460103e-04
3.33000000e-01	1.60582378e-02	2.04408646e-04
3.33500000e-01	1.61241167e-02	2.05226418e-04
3.34000000e-01	1.61478937e-02	2.05446499e-04
3.34500000e-01	1.61446588e-02	2.04689381e-04
3.35000000e-01	1.61594687e-02	2.04805376e-04
3.35500000e-01	1.61100735e-02	2.04309370e-04
3.36000000e-01	1.61076914e-02	2.04345019e-04
3.36500000e-01	1.61556749e-02	2.04131849e-04
3.37000000e-01	1.61722600e-02	2.04293465e-04
3.37500000e-01	1.60683120e-02	2.03106252e-04
3.38000000e-01	1.62113400e-02	2.04552578e-04
3.38500000e-01	1.60521642e-02	2.02157167e-04
3.39000000e-01	1.58714917e-02	2.00466181e-04
3.39500000e-01	1.59131742e-02	2.00451830e-04
3.40000000e-01	1.60977695e-02	2.02553563e-04
3.40500000e-01	1.58799328e-02	2.00762837e-04
3.41000000e-01	1.61979033e-02	2.02908604e-04
3.41500000e-01	1.59793149e-02	2.00943155e-04
3.42000000e-01	1.60434697e-02	2.00780252e-04
3.42500000e-01	1.56507781e-02	1.96633317e-04
3.43000000e-01	1.61011500e-02	2.01530645e-04
3.43500000e-01	1.59332868e-02	1.99948532e-04
3.44000000e-01	1.61893020e-02	2.03150991e-04
3.44500000e-01	1.58246311e-02	1.97808145e-04
3.45000000e-01	1.58395010e-02	1.98642320e-04
3.45500000e-01	1.59341893e-02	1.98535444e-04
3.46000000e-01	1.59419561e-02	1.99957060e-04
3.46500000e-01	1.58831034e-02	1.98666434e-04
3.47000000e-01	1.59343427e-02	1.98568090e-04
3.47500000e-01	1.58133207e-02	1.97129362e-04
3.48000000e-01	1.60200926e-02	1.99366689e-04
3.48500000e-01	1.58635461e-02	1.98099112e-04
3.49000000e-01	1.57775737e-02	1.95517855e-04
3.49500000e-01	1.60060293e-02	1.99258512e-04
3.50000000e-01	1.58425408e-02	1.61072882e-04
3.51000000e-01	1.58764871e-02	1.38856099e-04
3.52000000e-01	1.58002254e-02	1.38566010e-04
3.53000000e-01	1.58126897e-02	1.37792950e-04
3.54000000e-01	1.57956483e-02	1.37941466e-04
3.55000000e-01	1.58718913e-02	1.38062210e-04
3.56000000e-01	1.58333250e-02	1.38331668e-04
3.57000000e-01	1.57842259e-02	1.40608835e-04
3.58000000e-01	1.57043607e-02	1.41485734e-04
3.59000000e-01	1.56068347e-02	1.41529905e-04
3.60000000e-01	1.55656201e-02	1.41804235e-04
3.61000000e-01	1.55525130e-02	1.42441349e-04
3.62000000e-01	1.56904225e-02	1.44367303e-04
3.63000000e-01	1.55669412e-02	1.43606354e-04
3.64000000e-01	1.54840962e-02	1.43430994e-04
3.65000000e-01	1.57340110e-02	1.45928379e-04
3.66000000e-01	1.57448162e-02	1.44465976e-04
3.67000000e-01	1.56295001e-02	1.41479856e-04
3.68000000e-01	1.55942938e-02	1.40093223e-04
3.69000000e-01	1.55123939e-02	1.38834861e-04
3.70000000e-01	1.54714955e-02	1.37705523e-04
3.71000000e-01	1.55101275e-02	1.39863243e-04
3.72000000e-01	1.54937121e-02	1.40640238e-04
3.73000000e-01	1.54038135e-02	1.40352927e-04
3.74000000e-01	1.54879433e-02	1.41015175e-04
3.75000000e-01	1.55859755e-02	1.41887492e-04
3.76000000e-01	1.54124029e-02	1.40474949e-04
3.77000000e-01	1.54855005e-02	1.41242367e-04
3.78000000e-01	1.54325972e-02	1.40509339e-04
3.79000000e-01	1.56654851e-02	1.42028140e-04
3.80000000e-01	1.55470918e-02	1.40849587e-04
3.81000000e-01	1.54509912e-02	1.40336486e-04
3.82000000e-01	1.53766206e-02	1.39851225e-04
3.83000000e-01	1.52697734e-02	1.38856693e-04
3.84000000e-01	1.54020655e-02	1.39936841e-04
3.85000000e-01	1.53297135e-02	1.39682790e-04
3.86000000e-01	1.53053382e-02	1.39220062e-04
3.87000000e-01	1.53993425e-02	1.39730579e-04
3.88000000e-01	1.53290859e-02	1.39279715e-04
3.89000000e-01	1.51496987e-02	1.37691960e-04
3.90000000e-01	1.52636709e-02	1.38629060e-04
3.91000000e-01	1.52707367e-02	1.38439146e-04
3.92000000e-01	1.52442977e-02	1.37924304e-04
3.93000000e-01	1.52184729e-02	1.38150204e-04
3.94000000e-01	1.52714077e-02	1.38448974e-04
3.95000000e-01	1.51714822e-02	1.37366677e-04
3.96000000e-01	1.52620674e-02	1.38303177e-04
3.97000000e-01	1.51248687e-02	1.36836365e-04
3.98000000e-01	1.51623671e-02	1.37353811e-04
3.99000000e-01	1.52106901e-02	1.37892884e-04
4.00000000e-01	1.52154875e-02	1.38230293e-04
4.01000000e-01	1.50608541e-02	1.36898566e-04
4.02000000e-01	1.50058958e-02	1.35814304e-04
4.03000000e-01	1.51947603e-02	1.37681561e-04
4.04000000e-01	1.51055396e-02	1.36674674e-04
4.05000000e-01	1.50960668e-02	1.36544715e-04
4.06000000e-01	1.50513787e-02	1.36603672e-04
4.07000000e-01	1.50190745e-02	1.36001270e-04
4.08000000e-01	1.50271925e-02	1.35630380e-04
4.09000000e-01	1.49652488e-02	1.35331653e-04
4.10000000e-01	1.50996081e-02	1.36432166e-04
4.11000000e-01	1.51362719e-02	1.36354490e-04
4.12000000e-01	1.48954943e-02	1.34763915e-04
4.13000000e-01	1.49194941e-02	1.34709101e-04
4.14000000e-01	1.48804933e-02	1.34875497e-04
4.15000000e-01	1.49692900e-02	1.34981716e-04
4.16000000e-01	1.48480018e-02	1.34178996e-04
4.17000000e-01	1.49260395e-02	1.34560320e-04
4.18000000e-01	1.50662649e-02	1.37172197e-04
4.19000000e-01	1.50241744e-02	1.38833669e-04
4.20000000e-01	1.49830446e-02	1.39213791e-04
4.21000000e-01	1.50267778e-02	1.40048086e-04
4.22000000e-01	1.50464915e-02	1.40198764e-04
4.23000000e-01	1.50466546e-02	1.40682200e-04
4.24000000e-01	1.50740589e-02	1.41280499e-04
4.25000000e-01	1.49660302e-02	1.40735279e-04
4.26000000e-01	1.49764261e-02	1.40639836e-04
4.27000000e-01	1.49005944e-02	1.39984969e-04
4.28000000e-01	1.47839026e-02	1.39577939e-04
4.29000000e-01	1.49484940e-02	1.41766730e-04
4.30000000e-01	1.49436427e-02	1.40916996e-04
4.31000000e-01	1.48792265e-02	1.40339408e-04
4.32000000e-01	1.49766217e-02	1.41507592e-04
4.33000000e-01	1.48618539e-02	1.40294009e-04
4.34000000e-01	1.49713043e-02	1.41731482e-04
4.35000000e-01	1.48591464e-02	1.40688103e-04
4.36000000e-01	1.48110895e-02	1.40422341e-04
4.37000000e-01	1.48410018e-02	1.41027143e-04
4.38000000e-01	1.47910476e-02	1.41036651e-04
4.39000000e-01	1.47740684e-02	1.41032902e-04
4.40000000e-01	1.47535026e-02	1.40777839e-04
4.41000000e-01	1.48204638e-02	1.41590752e-04
4.42000000e-01	1.47591401e-02	1.41157594e-04
4.43000000e-01	1.47904088e-02	1.41746161e-04
4.44000000e-01	1.47289770e-02	1.41440799e-04
4.45000000e-01	1.48049778e-02	1.41959984e-04
4.46000000e-01	1.49466273e-02	1.43557634e-04
4.47000000e-01	1.47225326e-02	1.41502377e-04
4.48000000e-01	1.48006984e-02	1.42716300e-04
4.49000000e-01	1.48076377e-02	1.42864733e-04
4.50000000e-01	1.46471751e-02	1.41956027e-04
4.51000000e-01	1.47415069e-02	1.42525406e-04
4.52000000e-01	1.45881626e-02	1.41115819e-04
4.53000000e-01	1.47024417e-02	1.42589626e-04
4.54000000e-01	1.46981202e-02	1.42047989e-04
4.55000000e-01	1.47343769e-02	1.42902794e-04
4.56000000e-01	1.45776094e-02	1.41536699e-04
4.57000000e-01	1.45623786e-02	1.41591495e-04
4.58000000e-01	1.44626295e-02	1.40545041e-04
4.59000000e-01	1.45854238e-02	1.41956473e-04
4.60000000e-01	1.47061177e-02	1.42780418e-04
4.61000000e-01	1.45503244e-02	1.41931164e-04
4.62000000e-01	1.47418540e-02	1.43321166e-04
4.63000000e-01	1.46018101e-02	1.42943931e-04
4.64000000e-01	1.46552367e-02	1.43154544e-04
4.65000000e-01	1.46821055e-02	1.43574945e-04
4.66000000e-01	1.45504714e-02	1.41998197e-04
4.67000000e-01	1.46012438e-02	1.42921841e-04
4.68000000e-01	1.44795556e-02	1.41765105e-04
4.69000000e-01	1.46480605e-02	1.43613935e-04
4.70000000e-01	1.45572886e-02	1.42655160e-04
4.71000000e-01	1.44966024e-02	1.41975783e-04
4.72000000e-01	1.44990521e-02	1.41988736e-04
4.73000000e-01	1.44656059e-02	1.41684065e-04
4.74000000e-01	1.45633610e-02	1.42681116e-04
4.75000000e-01	1.44574800e-02	1.42105800e-04
4.76000000e-01	1.44082536e-02	1.41334320e-04
4.77000000e-01	1.43526313e-02	1.41132685e-04
4.78000000e-01	1.44179643e-02	1.41580740e-04
4.79000000e-01	1.44644300e-02	1.42065917e-04
4.80000000e-01	1.44844855e-02	1.42219564e-04
4.81000000e-01	1.43987253e-02	1.41472632e-04
4.82000000e-01	1.43229963e-02	1.40687168e-04
4.83000000e-01	1.44176661e-02	1.41973247e-04
4.84000000e-01	1.43433423e-02	1.41406652e-04
4.85000000e-01	1.43242647e-02	1.41114965e-04
4.86000000e-01	1.41822656e-02	1.40007725e-04
4.87000000e-01	1.43521136e-02	1.41797672e-04
4.88000000e-01	1.43397900e-02	1.41617125e-04
4.89000000e-01	1.43998747e-02	1.42123916e-04
4.90000000e-01	1.43630661e-02	1.42217452e-04
4.91000000e-01	1.42927145e-02	1.41325178e-04
4.92000000e-01	1.44034424e-02	1.42658265e-04
4.93000000e-01	1.43473290e-02	1.41680289e-04
4.94000000e-01	1.43840776e-02	1.42802963e-04
4.95000000e-01	1.42439687e-02	1.41937528e-04
4.96000000e-01	1.43505795e-02	1.47197290e-04
4.97000000e-01	1.43582808e-02	1.50236790e-04
4.98000000e-01	1.43780782e-02	1.51934668e-04
4.99000000e-01	1.43504205e-02	1.53517752e-04
5.00000000e-01	1.41956922e-02	1.54117601e-04
5.01000000e-01	1.41984281e-02	1.55443789e-04
5.02000000e-01	1.43347490e-02	1.58580921e-04
5.03000000e-01	1.43092176e-02	1.59709627e-04
5.04000000e-01	1.43970766e-02	1.60870632e-04
5.05000000e-01	1.42979399e-02	1.57805166e-04
5.06000000e-01	1.42727571e-02	1.54556549e-04
5.07000000e-01	1.42398233e-02	1.52642595e-04
5.08000000e-01	1.42955322e-02	1.52294908e-04
5.09000000e-01	1.42465510e-02	1.50959846e-04
5.10000000e-01	1.43533749e-02	1.51467308e-04
5.11000000e-01	1.42202726e-02	1.49776104e-04
5.12000000e-01	1.41880057e-02	1.49129145e-04
5.13000000e-01	1.42336286e-02	1.49482494e-04
5.14000000e-01	1.41344410e-02	1.48502324e-04
5.15000000e-01	1.42466676e-02	1.48804376e-04
5.16000000e-01	1.42195621e-02	1.48027432e-04
5.17000000e-01	1.40281944e-02	1.46392764e-04
5.18000000e-01	1.40723094e-02	1.47168480e-04
5.19000000e-01	1.41320628e-02	1.46885400e-04
5.20000000e-01	1.40581475e-02	1.45496256e-04
5.21000000e-01	1.41337177e-02	1.46209365e-04
5.22000000e-01	1.40841400e-02	1.45721118e-04
5.23000000e-01	1.40343463e-02	1.44850954e-04
5.24000000e-01	1.40582295e-02	1.45207146e-04
5.25000000e-01	1.39708281e-02	1.44126343e-04
5.26000000e-01	1.41374721e-02	1.45324680e-04
5.27000000e-01	1.41340789e-02	1.45706008e-04
5.28000000e-01	1.38974740e-02	1.43355080e-04
5.29000000e-01	1.40023518e-02	1.44968911e-04
5.30000000e-01	1.39326890e-02	1.44383034e-04
5.31000000e-01	1.39276065e-02	1.44324661e-04
5.32000000e-01	1.38789575e-02	1.43820250e-04
5.33000000e-01	1.39750500e-02	1.44160037e-04
5.34000000e-01	1.39292952e-02	1.43746937e-04
5.35000000e-01	1.40292500e-02	1.45106157e-04
5.36000000e-01	1.39156182e-02	1.43925085e-04
5.37000000e-01	1.39010747e-02	1.43749686e-04
5.38000000e-01	1.38709769e-02	1.43071161e-04
5.39000000e-01	1.38745357e-02	1.43206668e-04
5.40000000e-01	1.38959846e-02	1.43389866e-04
5.41000000e-01	1.38783260e-02	1.43897277e-04
5.42000000e-01	1.38663048e-02	1.43161639e-04
5.43000000e-01	1.39175892e-02	1.43563332e-04
5.44000000e-01	1.38566148e-02	1.43086481e-04
5.45000000e-01	1.37318465e-02	1.41832150e-04
5.46000000e-01	1.37642977e-02	1.42491247e-04
5.47000000e-01	1.38944438e-02	1.43400864e-04
5.48000000e-01	1.37638682e-02	1.42204908e-04
5.49000000e-01	1.37833370e-02	1.42204880e-04
5.50000000e-01	1.37286522e-02	1.42044178e-04
5.51000000e-01	1.36640502e-02	1.41498195e-04
5.52000000e-01	1.36911079e-02	1.40950778e-04
5.53000000e-01	1.36884576e-02	1.41107646e-04
5.54000000e-01	1.36790484e-02	1.40691759e-04
5.55000000e-01	1.36725392e-02	1.40550298e-04
5.56000000e-01	1.37140805e-02	1.40698619e-04
5.57000000e-01	1.37441439e-02	1.40966360e-04
5.58000000e-01	1.36852148e-02	1.41102719e-04
5.59000000e-01	1.35245965e-02	1.39441554e-04
5.60000000e-01	1.36578142e-02	1.40365904e-04
5.61000000e-01	1.37111898e-02	1.40456963e-04
5.62000000e-01	1.36900812e-02	1.40633185e-04
5.63000000e-01	1.35552391e-02	1.39613443e-04
5.64000000e-01	1.35786116e-02	1.39758423e-04
5.65000000e-01	1.35658672e-02	1.39357510e-04
5.66000000e-01	1.35865428e-02	1.39714051e-04
5.67000000e-01	1.35365882e-02	1.39231247e-04
5.68000000e-01	1.35637398e-02	1.39370161e-04
5.69000000e-01	1.36855075e-02	1.40472132e-04
5.70000000e-01	1.37046271e-02	1.40872316e-04
5.71000000e-01	1.36875577e-02	1.40165512e-04
5.72000000e-01	1.34350773e-02	1.38289427e-04
5.73000000e-01	1.35644257e-02	1.39713827e-04
5.74000000e-01	1.35986016e-02	1.39199752e-04
5.75000000e-01	1.34660625e-02	1.38485056e-04
5.76000000e-01	1.34324424e-02	1.38054193e-04
5.77000000e-01	1.35372354e-02	1.38979003e-04
5.78000000e-01	1.34639667e-02	1.38812947e-04
5.79000000e-01	1.34360666e-02	1.38891064e-04
5.80000000e-01	1.34063629e-02	1.38376201e-04
5.81000000e-01	1.34861977e-02	1.39442284e-04
5.82000000e-01	1.35381472e-02	1.39657375e-04
5.83000000e-01	1.34531264e-02	1.38304396e-04
5.84000000e-01	1.34209384e-02	1.38182161e-04
5.85000000e-01	1.34412656e-02	1.39057655e-04
5.86000000e-01	1.33832873e-02	1.38770058e-04
5.87000000e-01	1.32827444e-02	1.37260003e-04
5.88000000e-01	1.34513159e-02	1.38526272e-04
5.89000000e-01	1.32291627e-02	1.36963710e-04
5.90000000e-01	1.33143839e-02	1.37586657e-04
5.91000000e-01	1.33227309e-02	1.37939637e-04
5.92000000e-01	1.32608729e-02	1.36704661e-04
5.93000000e-01	1.33473261e-02	1.37746559e-04
5.94000000e-01	1.33364822e-02	1.38194803e-04
5.95000000e-01	1.33445975e-02	1.38052681e-04
5.96000000e-01	1.33923272e-02	1.38516495e-04
5.97000000e-01	1.33583944e-02	1.37947938e-04
5.98000000e-01	1.32109880e-02	1.37015494e-04
5.99000000e-01	1.32576695e-02	1.37141127e-04
6.00000000e-01	1.32761859e-02	1.37347269e-04
6.01000000e-01	1.32375327e-02	1.37251056e-04
6.02000000e-01	1.32196247e-02	1.36428642e-04
6.03000000e-01	1.32056346e-02	1.37179309e-04
6.04000000e-01	1.32652296e-02	1.37239296e-04
6.05000000e-01	1.31497884e-02	1.36626710e-04
6.06000000e-01	1.32537903e-02	1.37465782e-04
6.07000000e-01	1.31214665e-02	1.36377188e-04
6.08000000e-01	1.31723072e-02	1.36458090e-04
6.09000000e-01	1.31964574e-02	1.36959607e-04
6.10000000e-01	1.31880076e-02	1.36681688e-04
6.11000000e-01	1.33766993e-02	1.38399837e-04
6.12000000e-01	1.32617333e-02	1.37658557e-04
6.13000000e-01	1.32214224e-02	1.36942036e-04
6.14000000e-01	1.31398296e-02	1.36530593e-04
6.15000000e-01	1.31061230e-02	1.36339164e-04
6.16000000e-01	1.31598578e-02	1.36487792e-04
6.17000000e-01	1.32157931e-02	1.37384869e-04
6.18000000e-01	1.31425413e-02	1.36548845e-04
6.19000000e-01	1.31861080e-02	1.36571207e-04
6.20000000e-01	1.30695921e-02	1.35504111e-04
6.21000000e-01	1.31143616e-02	1.35669099e-04
6.22000000e-01	1.31395041e-02	1.35720669e-04
6.23000000e-01	1.31213151e-02	1.35541894e-04
6.24000000e-01	1.29512079e-02	1.33586160e-04
6.25000000e-01	1.31902939e-02	1.35870517e-04
6.26000000e-01	1.28586009e-02	1.32845305e-04
6.27000000e-01	1.29557407e-02	1.33474614e-04
6.28000000e-01	1.30117220e-02	1.34188212e-04
6.29000000e-01	1.29988705e-02	1.34220373e-04
6.30000000e-01	1.29659717e-02	1.34186220e-04
6.31000000e-01	1.30090573e-02	1.34398018e-04
6.32000000e-01	1.29249647e-02	1.33430945e-04
6.33000000e-01	1.30280102e-02	1.34102762e-04
6.34000000e-01	1.29599719e-02	1.37015950e-04
6.35000000e-01	1.30970077e-02	1.42773826e-04
6.36000000e-01	1.28939450e-02	1.43117623e-04
6.37000000e-01	1.30224842e-02	1.46656183e-04
6.38000000e-01	1.29747019e-02	1.48122229e-04
6.39000000e-01	1.30548161e-02	1.50646065e-04
6.40000000e-01	1.29549971e-02	1.51142410e-04
6.41000000e-01	1.31704825e-02	1.55424835e-04
6.42000000e-01	1.28636499e-02	1.55010634e-04
6.43000000e-01	1.31628192e-02	1.56729164e-04
6.44000000e-01	1.31336427e-02	1.51312740e-04
6.45000000e-01	1.31948624e-02	1.49050212e-04
6.46000000e-01	1.29580980e-02	1.45708675e-04
6.47000000e-01	1.30026666e-02	1.44893094e-04
6.48000000e-01	1.30258597e-02	1.44317080e-04
6.49000000e-01	1.29537517e-02	1.43234032e-04
6.50000000e-01	1.30452505e-02	1.42897022e-04
6.51000000e-01	1.30129065e-02	1.42088919e-04
6.52000000e-01	1.28928842e-02	1.41024685e-04
6.53000000e-01	1.29630391e-02	1.40667105e-04
6.54000000e-01	1.29941613e-02	1.40907514e-04
6.55000000e-01	1.29469744e-02	1.40154329e-04
6.56000000e-01	1.29546577e-02	1.39592076e-04
6.57000000e-01	1.29337404e-02	1.39623525e-04
6.58000000e-01	1.28513480e-02	1.38658102e-04
6.59000000e-01	1.29121410e-02	1.39465538e-04
6.60000000e-01	1.28506039e-02	1.37930726e-04
6.61000000e-01	1.30051721e-02	1.39217997e-04
6.62000000e-01	1.30283510e-02	1.40068977e-04
6.63000000e-01	1.28807414e-02	1.38431563e-04
6.64000000e-01	1.28150744e-02	1.37475621e-04
6.65000000e-01	1.28183382e-02	1.37711678e-04
6.66000000e-01	1.29532198e-02	1.39190854e-04
6.67000000e-01	1.29363304e-02	1.38239521e-04
6.68000000e-01	1.28224419e-02	1.37466971e-04
6.69000000e-01	1.28589368e-02	1.37338781e-04
6.70000000e-01	1.27808367e-02	1.36611639e-04
6.71000000e-01	1.27198799e-02	1.36239041e-04
6.72000000e-01	1.28962629e-02	1.37966138e-04
6.73000000e-01	1.28256394e-02	1.36690433e-04
6.74000000e-01	1.28668848e-02	1.37177682e-04
6.75000000e-01	1.28302679e-02	1.36831244e-04
6.76000000e-01	1.28489291e-02	1.37270116e-04
6.77000000e-01	1.27358970e-02	1.36436248e-04
6.78000000e-01	1.27686827e-02	1.36285278e-04
6.79000000e-01	1.27812599e-02	1.36704736e-04
6.80000000e-01	1.28539797e-02	1.37176734e-04
6.81000000e-01	1.28214446e-02	1.36866595e-04
6.82000000e-01	1.27251816e-02	1.35538704e-04
6.83000000e-01	1.28124502e-02	1.36418172e-04
6.84000000e-01	1.26630598e-02	1.35716076e-04
6.85000000e-01	1.27894446e-02	1.36179355e-04
6.86000000e-01	1.26716185e-02	1.35336017e-04
6.87000000e-01	1.27726346e-02	1.36025986e-04
6.88000000e-01	1.27437627e-02	1.35974979e-04
6.89000000e-01	1.27568010e-02	1.35843983e-04
6.90000000e-01	1.26259184e-02	1.35053141e-04
6.91000000e-01	1.27742865e-02	1.36114349e-04
6.92000000e-01	1.26571601e-02	1.34928181e-04
6.93000000e-01	1.25418835e-02	1.34094077e-04
6.94000000e-01	1.27206488e-02	1.35008658e-04
6.95000000e-01	1.25921383e-02	1.33872059e-04
6.96000000e-01	1.26777988e-02	1.34799743e-04
6.97000000e-01	1.25931880e-02	1.34205334e-04
6.98000000e-01	1.26263501e-02	1.34610756e-04
6.99000000e-01	1.26392779e-02	1.34576039e-04
7.00000000e-01	1.25973803e-02	1.34424304e-04
7.01000000e-01	1.24973825e-02	1.33348559e-04
7.02000000e-01	1.24693169e-02	1.32681423e-04
7.03000000e-01	1.24857417e-02	1.32984900e-04
7.04000000e-01	1.25277004e-02	1.33193759e-04
7.05000000e-01	1.25457830e-02	1.33690712e-04
7.06000000e-01	1.25298481e-02	1.33035675e-04
7.07000000e-01	1.25118376e-02	1.32790167e-04
7.08000000e-01	1.25667385e-02	1.33316294e-04
7.09000000e-01	1.25672165e-02	1.33238121e-04
7.10000000e-01	1.25080185e-02	1.32786270e-04
7.11000000e-01	1.23908754e-02	1.32154225e-04
7.12000000e-01	1.23297647e-02	1.31923795e-04
7.13000000e-01	1.23245243e-02	1.31010441e-04
7.14000000e-01	1.23867985e-02	1.32143400e-04
7.15000000e-01	1.24475557e-02	1.32507958e-04
7.16000000e-01	1.24232326e-02	1.31707293e-04
7.17000000e-01	1.23984946e-02	1.32005726e-04
7.18000000e-01	1.23339735e-02	1.31182066e-04
7.19000000e-01	1.23423784e-02	1.31475602e-04
7.20000000e-01	1.23455480e-02	1.31536624e-04
7.21000000e-01	1.23677957e-02	1.32047083e-04
7.22000000e-01	1.23101246e-02	1.30692354e-04
7.23000000e-01	1.22848994e-02	1.31038070e-04
7.24000000e-01	1.22769698e-02	1.31157031e-04
7.25000000e-01	1.22072764e-02	1.30273407e-04
7.26000000e-01	1.23622790e-02	1.31778710e-04
7.27000000e-01	1.22525699e-02	1.30939618e-04
7.28000000e-01	1.22214964e-02	1.30282233e-04
7.29000000e-01	1.22568248e-02	1.30460092e-04
7.30000000e-01	1.22851430e-02	1.31442828e-04
7.31000000e-01	1.22217640e-02	1.30157677e-04
7.32000000e-01	1.22964059e-02	1.31329352e-04
7.33000000e-01	1.22244743e-02	1.30390127e-04
7.34000000e-01	1.22516080e-02	1.30159569e-04
7.35000000e-01	1.21827560e-02	1.29599174e-04
7.36000000e-01	1.22944502e-02	1.30106595e-04
7.37000000e-01	1.22113889e-02	1.29442133e-04
7.38000000e-01	1.21685891e-02	1.28545109e-04
7.39000000e-01	1.22687787e-02	1.29570277e-04
7.40000000e-01	1.20217099e-02	1.27308245e-04
7.41000000e-01	1.22269973e-02	1.29086551e-04
7.42000000e-01	1.22304358e-02	1.28695862e-04
7.43000000e-01	1.20903982e-02	1.27790914e-04
7.44000000e-01	1.22273142e-02	1.29258339e-04
7.45000000e-01	1.21475713e-02	1.28051403e-04
7.46000000e-01	1.20927922e-02	1.27583676e-04
7.47000000e-01	1.20724094e-02	1.27612667e-04
7.48000000e-01	1.20511119e-02	1.27317133e-04
7.49000000e-01	1.20484577e-02	1.27501923e-04
7.50000000e-01	1.20601150e-02	1.27514538e-04
7.51000000e-01	1.19044088e-02	1.26022273e-04
7.52000000e-01	1.20906350e-02	1.27951108e-04
7.53000000e-01	1.20287553e-02	1.27208593e-04
7.54000000e-01	1.20609728e-02	1.27367350e-04
7.55000000e-01	1.19822087e-02	1.27088212e-04
7.56000000e-01	1.20436237e-02	1.27464852e-04
7.57000000e-01	1.19814873e-02	1.26475676e-04
7.58000000e-01	1.19078859e-02	1.26188047e-04
7.59000000e-01	1.18828140e-02	1.26144394e-04
7.60000000e-01	1.19530790e-02	1.26346637e-04
7.61000000e-01	1.18756316e-02	1.25146339e-04
7.62000000e-01	1.19261498e-02	1.25286624e-04
7.63000000e-01	1.19741328e-02	1.25427409e-04
7.64000000e-01	1.18418532e-02	1.24839215e-04
7.65000000e-01	1.19124014e-02	1.24973367e-04
7.66000000e-01	1.16901796e-02	1.22887084e-04
7.67000000e-01	1.17682915e-02	1.23964291e-04
7.68000000e-01	1.18141678e-02	1.23788458e-04
7.69000000e-01	1.18497345e-02	1.24334361e-04
7.70000000e-01	1.19998340e-02	1.25678975e-04
7.71000000e-01	1.19884953e-02	1.25400355e-04
7.72000000e-01	1.18859091e-02	1.28653681e-04
7.73000000e-01	1.18249998e-02	1.31802550e-04
7.74000000e-01	1.17963421e-02	1.34546890e-04
7.75000000e-01	1.19537577e-02	1.38290791e-04
7.76000000e-01	1.19381853e-02	1.40748912e-04
7.77000000e-01	1.16989316e-02	1.40009798e-04
7.78000000e-01	1.17786941e-02	1.42037450e-04
7.79000000e-01	1.18465562e-02	1.44814787e-04
7.80000000e-01	1.16478266e-02	1.44668104e-04
7.81000000e-01	1.17634048e-02	1.47296370e-04
7.82000000e-01	1.16178893e-02	1.47020034e-04
7.83000000e-01	1.15751112e-02	1.48348550e-04
7.84000000e-01	1.16817909e-02	1.51654280e-04
7.85000000e-01	1.17270245e-02	1.53028215e-04
7.86000000e-01	1.15688314e-02	1.53838238e-04
7.87000000e-01	1.15376209e-02	1.54150365e-04
7.88000000e-01	1.16679696e-02	1.56585628e-04
7.89000000e-01	1.16722394e-02	1.58581117e-04
7.90000000e-01	1.15899024e-02	1.59929299e-04
7.91000000e-01	1.16122244e-02	1.61134007e-04
7.92000000e-01	1.16665159e-02	1.62783576e-04
7.93000000e-01	1.15968432e-02	1.64476607e-04
7.94000000e-01	1.16549928e-02	1.67151987e-04
7.95000000e-01	1.14332058e-02	1.65605316e-04
7.96000000e-01	1.14371053e-02	1.68302703e-04
7.97000000e-01	1.14997507e-02	1.69873422e-04
7.98000000e-01	1.16840717e-02	1.73450888e-04
7.99000000e-01	1.14663394e-02	1.72835158e-04
8.00000000e-01	1.14360316e-02	1.73405032e-04
8.01000000e-01	1.14759728e-02	1.77308912e-04
8.02000000e-01	1.13589195e-02	1.76223452e-04
8.03000000e-01	1.13850419e-02	1.79299275e-04
8.04000000e-01	1.16533184e-02	1.84630227e-04
8.05000000e-01	1.13519509e-02	1.83036969e-04
8.06000000e-01	1.15506990e-02	1.87674979e-04
8.07000000e-01	1.14007654e-02	1.86830019e-04
8.08000000e-01	1.14219199e-02	1.90368644e-04
8.09000000e-01	1.13489825e-02	1.91215042e-04
8.10000000e-01	1.13653736e-02	1.93475735e-04
8.11000000e-01	1.12130974e-02	1.91998560e-04
8.12000000e-01	1.11928810e-02	1.94595786e-04
8.13000000e-01	1.14503197e-02	2.00963060e-04
8.14000000e-01	1.12951343e-02	2.01347108e-04
8.15000000e-01	1.12360449e-02	2.03544822e-04
8.16000000e-01	1.15651764e-02	2.09338094e-04
8.17000000e-01	1.14617211e-02	2.10420609e-04
8.18000000e-01	1.12854596e-02	2.11331772e-04
8.19000000e-01	1.11615567e-02	2.11894367e-04
8.20000000e-01	1.12688893e-02	2.15692842e-04
8.21000000e-01	1.11955023e-02	2.17239339e-04
8.22000000e-01	1.09962399e-02	2.17167383e-04
8.23000000e-01	1.10520717e-02	2.18627061e-04
8.24000000e-01	1.11777014e-02	2.26721798e-04
8.25000000e-01	1.12586448e-02	2.29366691e-04
8.26000000e-01	1.12225388e-02	2.33308033e-04
8.27000000e-01	1.11043406e-02	2.33420513e-04
8.28000000e-01	1.10036990e-02	2.35458613e-04
8.29000000e-01	1.11502130e-02	2.42585590e-04
8.30000000e-01	1.09659826e-02	2.41973200e-04
8.31000000e-01	1.10206800e-02	2.47520627e-04
8.32000000e-01	1.10213452e-02	2.52358072e-04
8.33000000e-01	1.08947790e-02	2.55344080e-04
8.34000000e-01	1.09726729e-02	2.58987679e-04
8.35000000e-01	1.10139127e-02	2.65716050e-04
8.36000000e-01	1.10517734e-02	2.70574041e-04
8.37000000e-01	1.10918430e-02	2.76770591e-04
8.38000000e-01	1.08445681e-02	2.77394212e-04
8.39000000e-01	1.09642772e-02	2.84496112e-04
8.40000000e-01	1.09771176e-02	2.91355571e-04
8.41000000e-01	1.08828884e-02	2.92796601e-04
8.42000000e-01	1.08195108e-02	3.03091383e-04
8.43000000e-01	1.10121708e-02	3.14987262e-04
8.44000000e-01	1.08357535e-02	3.15945137e-04
8.45000000e-01	1.08294080e-02	3.20345690e-04
8.46000000e-01	1.07914316e-02	3.31510154e-04
8.47000000e-01	1.05898552e-02	3.35298747e-04
8.48000000e-01	1.06779304e-02	3.49023362e-04
8.49000000e-01	1.08383306e-02	3.68527903e-04
8.50000000e-01	1.07613136e-02	3.79168759e-04
8.51000000e-01	1.07735628e-02	3.88961532e-04
8.52000000e-01	1.04640115e-02	3.94179555e-04
8.53000000e-01	1.07822551e-02	4.20632173e-04
8.54000000e-01	1.04910336e-02	4.34656930e-04
8.55000000e-01	1.04420550e-02	4.45183393e-04
8.56000000e-01	1.08959868e-02	4.75499287e-04
8.57000000e-01	1.01835888e-02	4.56121678e-04
8.58000000e-01	1.03228797e-02	4.83478320e-04
8.59000000e-01	1.07861006e-02	5.06261441e-04
8.60000000e-01	1.03054481e-02	5.09433025e-04
8.61000000e-01	1.06886351e-02	5.43876131e-04
8.62000000e-01	1.03112973e-02	5.44773064e-04
8.63000000e-01	1.08010716e-02	5.93349085e-04
8.64000000e-01	1.02726876e-02	5.89006625e-04
8.65000000e-01	1.06532592e-02	6.40366713e-04
8.66000000e-01	1.05074540e-02	6.72103185e-04
8.67000000e-01	1.06222728e-02	7.07942946e-04
8.68000000e-01	1.02709304e-02	7.47719752e-04
8.69000000e-01	9.64854021e-03	7.76719094e-04
8.70000000e-01	1.08729099e-02	8.84126589e-04
8.71000000e-01	1.05202553e-02	9.88717153e-04
8.72000000e-01	9.79761331e-03	1.00706675e-03
8.73000000e-01	1.08125915e-02	1.30775771e-03
8.74000000e-01	1.18303818e-02	1.88099436e-03
8.75000000e-01	8.94415460e-03	2.98138614e-03
