% Filename : SDL1_00002_00009.h5
% Date & Time : 30-Oct-2025 14:16:37
% X-ray Energy (keV) : 13.30001
% Exposure Time (s) : 0.200
% Beam Center : 1461.24000, 208.98300
% Sample to Detector Distance (SDD) (mm) : 1990.750
% Detector Pixel Size (mm) : 0.075
% Photodiode Value : 56881.000
% I0 of Sample : 0
% I0 of Standard : 1
% 
% q(A^-1)   I(q)    I(q)_SE
0.00000000e+00	1.58811741e-02	8.40354351e-03
2.50000000e-04	0.00000000e+00	0.00000000e+00
5.00000000e-04	0.00000000e+00	0.00000000e+00
7.50000000e-04	0.00000000e+00	0.00000000e+00
1.00000000e-03	0.00000000e+00	0.00000000e+00
1.25000000e-03	0.00000000e+00	0.00000000e+00
1.50000000e-03	0.00000000e+00	0.00000000e+00
1.75000000e-03	0.00000000e+00	0.00000000e+00
2.00000000e-03	0.00000000e+00	0.00000000e+00
2.25000000e-03	0.00000000e+00	0.00000000e+00
2.50000000e-03	0.00000000e+00	0.00000000e+00
2.75000000e-03	0.00000000e+00	0.00000000e+00
3.00000000e-03	0.00000000e+00	0.00000000e+00
3.25000000e-03	5.33905991e+02	3.74309254e+02
3.50000000e-03	1.99814026e+02	9.15759613e+01
3.75000000e-03	9.78392139e+01	4.97045158e+01
4.00000000e-03	7.87965577e+01	3.27791694e+01
4.25000000e-03	4.11396296e+01	1.57187963e+01
4.50000000e-03	4.58100129e+01	1.31755220e+01
4.75000000e-03	4.60874503e+01	1.13882980e+01
5.00000000e-03	3.61350957e+01	8.72053121e+00
5.25000000e-03	3.13741255e+01	7.58075084e+00
5.50000000e-03	2.39178786e+01	5.51594357e+00
5.75000000e-03	1.94685823e+01	4.31189259e+00
6.00000000e-03	1.58684250e+01	3.43198638e+00
6.25000000e-03	1.46480736e+01	3.13717936e+00
6.50000000e-03	1.22185982e+01	2.57411741e+00
6.75000000e-03	1.07278679e+01	2.21650902e+00
7.00000000e-03	9.35549723e+00	1.84530513e+00
7.25000000e-03	7.87177486e+00	1.47057887e+00
7.50000000e-03	6.63734273e+00	1.24025819e+00
7.75000000e-03	6.00054754e+00	1.09468868e+00
8.00000000e-03	5.54290779e+00	1.00890272e+00
8.25000000e-03	4.67112542e+00	8.06601152e-01
8.50000000e-03	4.31027102e+00	7.20080740e-01
8.75000000e-03	4.03999621e+00	6.73615182e-01
9.00000000e-03	3.51761179e+00	5.78530823e-01
9.25000000e-03	3.06291956e+00	4.76422740e-01
9.50000000e-03	2.72091642e+00	4.11407895e-01
9.75000000e-03	2.40408744e+00	3.50098502e-01
1.00000000e-02	2.16134512e+00	3.12423631e-01
1.02500000e-02	2.10310113e+00	3.02243170e-01
1.05000000e-02	1.87722851e+00	2.55575859e-01
1.07500000e-02	1.72633014e+00	2.31201905e-01
1.10000000e-02	1.51837951e+00	1.93668043e-01
1.12500000e-02	1.44521620e+00	1.88964416e-01
1.15000000e-02	1.33720462e+00	1.66785910e-01
1.17500000e-02	1.21281757e+00	1.45842323e-01
1.20000000e-02	1.12675276e+00	1.33773509e-01
1.22500000e-02	1.05359251e+00	1.22348716e-01
1.25000000e-02	9.99566832e-01	1.12508787e-01
1.27500000e-02	9.06302007e-01	9.92669539e-02
1.30000000e-02	8.42527406e-01	8.94113830e-02
1.32500000e-02	7.77875881e-01	8.10446665e-02
1.35000000e-02	7.47820996e-01	7.85182519e-02
1.37500000e-02	7.04752439e-01	7.19579623e-02
1.40000000e-02	6.53655671e-01	6.49402411e-02
1.42500000e-02	6.03343267e-01	5.66245024e-02
1.45000000e-02	5.59170158e-01	5.13875721e-02
1.47500000e-02	5.27067296e-01	4.83221033e-02
1.50000000e-02	4.95421864e-01	4.47178266e-02
1.52500000e-02	4.79815883e-01	4.30006314e-02
1.55000000e-02	4.49559623e-01	3.96409075e-02
1.57500000e-02	4.17820666e-01	3.55635778e-02
1.60000000e-02	4.00693876e-01	3.36295188e-02
1.62500000e-02	3.85638806e-01	3.21879628e-02
1.65000000e-02	3.52448472e-01	2.82111753e-02
1.67500000e-02	3.39477658e-01	2.67048703e-02
1.70000000e-02	3.12609624e-01	2.42584400e-02
1.72500000e-02	3.07364802e-01	2.36897254e-02
1.75000000e-02	2.97646315e-01	2.28867203e-02
1.77500000e-02	2.70665526e-01	1.99295160e-02
1.80000000e-02	2.65322261e-01	1.97472170e-02
1.82500000e-02	2.52216151e-01	1.79452782e-02
1.85000000e-02	2.42459784e-01	1.74210603e-02
1.87500000e-02	2.22843432e-01	1.53529154e-02
1.90000000e-02	2.12456758e-01	1.47520911e-02
1.92500000e-02	2.03040571e-01	1.39256464e-02
1.95000000e-02	1.94073440e-01	1.29691559e-02
1.97500000e-02	1.91813321e-01	1.28254116e-02
2.00000000e-02	1.76155012e-01	1.17178870e-02
2.02500000e-02	1.74045239e-01	1.16100539e-02
2.05000000e-02	1.68700004e-01	1.07531953e-02
2.07500000e-02	1.56414847e-01	9.80349590e-03
2.10000000e-02	1.54883150e-01	9.79708892e-03
2.12500000e-02	1.51327890e-01	9.66413780e-03
2.15000000e-02	1.41745868e-01	8.65446077e-03
2.17500000e-02	1.40984321e-01	8.85970823e-03
2.20000000e-02	1.35990818e-01	8.45457359e-03
2.22500000e-02	1.30497597e-01	7.99869761e-03
2.25000000e-02	1.29782820e-01	8.14313805e-03
2.27500000e-02	1.22209077e-01	7.35066992e-03
2.30000000e-02	1.19266529e-01	7.39928442e-03
2.32500000e-02	1.14243178e-01	6.86794197e-03
2.35000000e-02	1.13027597e-01	6.77505707e-03
2.37500000e-02	1.10834182e-01	6.48311501e-03
2.40000000e-02	1.06066731e-01	6.32506879e-03
2.42500000e-02	1.01965059e-01	5.96986589e-03
2.45000000e-02	1.02215301e-01	5.93373362e-03
2.47500000e-02	9.62926526e-02	5.63145728e-03
2.50000000e-02	9.36468673e-02	5.42126012e-03
2.52500000e-02	8.98223146e-02	5.42440968e-03
2.55000000e-02	8.73958957e-02	4.96880086e-03
2.57500000e-02	8.37904516e-02	4.71271622e-03
2.60000000e-02	8.02427946e-02	4.58609955e-03
2.62500000e-02	8.19540676e-02	4.71489728e-03
2.65000000e-02	7.87436861e-02	4.41094942e-03
2.67500000e-02	7.80601996e-02	4.30650597e-03
2.70000000e-02	7.50094651e-02	4.20960298e-03
2.72500000e-02	7.19480685e-02	3.99407205e-03
2.75000000e-02	7.21809527e-02	4.03997855e-03
2.77500000e-02	7.04878442e-02	3.90160090e-03
2.80000000e-02	6.84093285e-02	3.71512057e-03
2.82500000e-02	6.71004490e-02	3.59538697e-03
2.85000000e-02	6.67979662e-02	3.63972117e-03
2.87500000e-02	6.45929162e-02	3.51762136e-03
2.90000000e-02	6.03282787e-02	3.26420623e-03
2.92500000e-02	6.32872879e-02	3.29232002e-03
2.95000000e-02	6.22167046e-02	3.34440809e-03
2.97500000e-02	5.98806896e-02	3.14009834e-03
3.00000000e-02	5.72594031e-02	3.01696560e-03
3.02500000e-02	5.89534044e-02	3.01121133e-03
3.05000000e-02	5.53734000e-02	2.84146127e-03
3.07500000e-02	5.68011045e-02	2.97463019e-03
3.10000000e-02	5.49108177e-02	2.85541685e-03
3.12500000e-02	5.37608515e-02	2.83751973e-03
3.15000000e-02	5.22545529e-02	2.70617333e-03
3.17500000e-02	5.16587184e-02	2.57330177e-03
3.20000000e-02	4.88975372e-02	2.59318951e-03
3.22500000e-02	4.94578675e-02	2.57389870e-03
3.25000000e-02	4.74640367e-02	2.44501056e-03
3.27500000e-02	4.73587141e-02	2.41903808e-03
3.30000000e-02	4.86392883e-02	2.43865662e-03
3.32500000e-02	4.74397707e-02	2.38326109e-03
3.35000000e-02	4.57274549e-02	2.33180797e-03
3.37500000e-02	4.37409790e-02	2.19876492e-03
3.40000000e-02	4.38817017e-02	2.18088707e-03
3.42500000e-02	4.22163723e-02	2.10786897e-03
3.45000000e-02	4.39111581e-02	2.18958788e-03
3.47500000e-02	4.19247365e-02	2.11486852e-03
3.50000000e-02	4.28694936e-02	2.13662500e-03
3.52500000e-02	4.14304807e-02	2.06482669e-03
3.55000000e-02	4.14326678e-02	2.03060627e-03
3.57500000e-02	3.94661594e-02	1.95662789e-03
3.60000000e-02	4.02158262e-02	1.97529531e-03
3.62500000e-02	3.75360528e-02	1.90211932e-03
3.65000000e-02	3.84570185e-02	1.88191188e-03
3.67500000e-02	3.74861734e-02	1.89465690e-03
3.70000000e-02	3.85393360e-02	1.94125725e-03
3.72500000e-02	3.73826977e-02	1.78959596e-03
3.75000000e-02	3.66531440e-02	1.80773039e-03
3.77500000e-02	3.72408730e-02	1.81264506e-03
3.80000000e-02	3.64053072e-02	1.76934093e-03
3.82500000e-02	3.56345205e-02	1.70157304e-03
3.85000000e-02	3.48832956e-02	1.68772114e-03
3.87500000e-02	3.46679465e-02	1.69545168e-03
3.90000000e-02	3.43466241e-02	1.68532893e-03
3.92500000e-02	3.50292557e-02	1.66006276e-03
3.95000000e-02	3.33749998e-02	1.59383413e-03
3.97500000e-02	3.37492615e-02	1.62360113e-03
4.00000000e-02	3.47182624e-02	1.65293595e-03
4.02500000e-02	3.29744462e-02	1.57770909e-03
4.05000000e-02	3.31768494e-02	1.55332192e-03
4.07500000e-02	3.16495391e-02	1.48411879e-03
4.10000000e-02	3.19285188e-02	1.53193850e-03
4.12500000e-02	3.22854115e-02	1.53642696e-03
4.15000000e-02	3.12731714e-02	1.46812829e-03
4.17500000e-02	3.14512618e-02	1.46627366e-03
4.20000000e-02	3.05828979e-02	1.42067802e-03
4.22500000e-02	3.05011510e-02	1.42329264e-03
4.25000000e-02	3.00488226e-02	1.42536968e-03
4.27500000e-02	3.14036787e-02	1.43762650e-03
4.30000000e-02	3.02151328e-02	1.40037869e-03
4.32500000e-02	3.06711693e-02	1.40898449e-03
4.35000000e-02	2.86475314e-02	1.34456090e-03
4.37500000e-02	2.74778989e-02	1.27314726e-03
4.40000000e-02	2.83699935e-02	1.30315860e-03
4.42500000e-02	2.85706742e-02	1.31058486e-03
4.45000000e-02	2.85641821e-02	1.28837514e-03
4.47500000e-02	2.91195067e-02	1.33042473e-03
4.50000000e-02	2.88857937e-02	1.33232799e-03
4.52500000e-02	2.85323085e-02	1.29001698e-03
4.55000000e-02	2.90995555e-02	1.30249267e-03
4.57500000e-02	2.78283439e-02	1.25138898e-03
4.60000000e-02	2.76038450e-02	1.26449641e-03
4.62500000e-02	2.70141644e-02	1.24092480e-03
4.65000000e-02	2.77311147e-02	1.25672667e-03
4.67500000e-02	2.55801829e-02	1.14605328e-03
4.70000000e-02	2.71107955e-02	1.22003417e-03
4.72500000e-02	2.66815788e-02	1.20083577e-03
4.75000000e-02	2.64761157e-02	1.18986889e-03
4.77500000e-02	2.60958964e-02	1.15850440e-03
4.80000000e-02	2.62465275e-02	1.18119768e-03
4.82500000e-02	2.54344017e-02	1.14846683e-03
4.85000000e-02	2.66260106e-02	1.21250432e-03
4.87500000e-02	2.63416370e-02	1.17133827e-03
4.90000000e-02	2.71064192e-02	1.18083948e-03
4.92500000e-02	2.59729580e-02	1.15524991e-03
4.95000000e-02	2.56664851e-02	1.13624099e-03
4.97500000e-02	2.68038522e-02	1.17750930e-03
5.00000000e-02	2.37236164e-02	1.05883313e-03
5.02500000e-02	2.56143403e-02	1.12088730e-03
5.05000000e-02	2.64105788e-02	1.15693834e-03
5.07500000e-02	2.47908109e-02	1.08936092e-03
5.10000000e-02	2.48066107e-02	1.08876797e-03
5.12500000e-02	2.49502380e-02	1.09332138e-03
5.15000000e-02	2.56597073e-02	1.11366848e-03
5.17500000e-02	2.41121425e-02	1.06091761e-03
5.20000000e-02	2.45417931e-02	1.07558957e-03
5.22500000e-02	2.50110551e-02	1.08355627e-03
5.25000000e-02	2.32515445e-02	1.01736723e-03
5.27500000e-02	2.43620796e-02	1.07172545e-03
5.30000000e-02	2.45266469e-02	1.08529221e-03
5.32500000e-02	2.53415883e-02	1.09596834e-03
5.35000000e-02	2.30733089e-02	1.00777948e-03
5.37500000e-02	2.46995494e-02	1.05455560e-03
5.40000000e-02	2.38675920e-02	1.02895950e-03
5.42500000e-02	2.35468561e-02	1.03776975e-03
5.45000000e-02	2.37967872e-02	1.03878758e-03
5.47500000e-02	2.42689485e-02	1.04307522e-03
5.50000000e-02	2.48799204e-02	1.04758117e-03
5.52500000e-02	2.48788172e-02	1.05931274e-03
5.55000000e-02	2.30853509e-02	9.91101799e-04
5.57500000e-02	2.34799217e-02	1.01583880e-03
5.60000000e-02	2.35189914e-02	1.01649491e-03
5.62500000e-02	2.31364172e-02	9.93418758e-04
5.65000000e-02	2.29600227e-02	9.84212029e-04
5.67500000e-02	2.34721591e-02	1.01584501e-03
5.70000000e-02	2.27011599e-02	9.56340671e-04
5.72500000e-02	2.37635699e-02	1.00478543e-03
5.75000000e-02	2.18197598e-02	9.32684733e-04
5.77500000e-02	2.30823647e-02	9.70758328e-04
5.80000000e-02	2.31409790e-02	9.71369677e-04
5.82500000e-02	2.28762296e-02	9.69003318e-04
5.85000000e-02	2.29550446e-02	9.66290055e-04
5.87500000e-02	2.25704637e-02	9.48953643e-04
5.90000000e-02	2.26052392e-02	9.52297617e-04
5.92500000e-02	2.22617210e-02	9.37072435e-04
5.95000000e-02	2.25976924e-02	9.44222092e-04
5.97500000e-02	2.22024610e-02	9.30691214e-04
6.00000000e-02	2.22786771e-02	9.24971995e-04
6.02500000e-02	2.33808483e-02	9.76243110e-04
6.05000000e-02	2.29333469e-02	9.52162299e-04
6.07500000e-02	2.17684384e-02	9.10884925e-04
6.10000000e-02	2.24350701e-02	9.32712549e-04
6.12500000e-02	2.31149939e-02	9.45692079e-04
6.15000000e-02	2.23877839e-02	9.32966163e-04
6.17500000e-02	2.10608142e-02	8.82657303e-04
6.20000000e-02	2.20064793e-02	9.19121818e-04
6.22500000e-02	2.28369071e-02	9.41983764e-04
6.25000000e-02	2.19274912e-02	8.97498171e-04
6.27500000e-02	2.29098046e-02	9.21996911e-04
6.30000000e-02	2.15495145e-02	8.93355296e-04
6.32500000e-02	2.35411762e-02	9.45510214e-04
6.35000000e-02	2.09072499e-02	8.70423537e-04
6.37500000e-02	2.16292481e-02	8.84034484e-04
6.40000000e-02	2.09278723e-02	8.53471045e-04
6.42500000e-02	2.24072221e-02	8.97860004e-04
6.45000000e-02	2.27244320e-02	9.13603144e-04
6.47500000e-02	2.18882125e-02	8.97297234e-04
6.50000000e-02	2.15750528e-02	8.65124230e-04
6.52500000e-02	2.19975633e-02	8.88273255e-04
6.55000000e-02	2.13929751e-02	8.64960331e-04
6.57500000e-02	2.17081088e-02	8.66027732e-04
6.60000000e-02	2.16217774e-02	8.73409915e-04
6.62500000e-02	2.14479578e-02	8.70919142e-04
6.65000000e-02	2.04701548e-02	8.40978561e-04
6.67500000e-02	2.16509639e-02	8.65264455e-04
6.70000000e-02	2.23191245e-02	8.86221196e-04
6.72500000e-02	2.12459697e-02	8.55709718e-04
6.75000000e-02	2.16108447e-02	8.70092466e-04
6.77500000e-02	2.13718845e-02	8.50217572e-04
6.80000000e-02	2.13374141e-02	8.56996399e-04
6.82500000e-02	2.13028361e-02	8.50562668e-04
6.85000000e-02	2.20654460e-02	8.79497446e-04
6.87500000e-02	2.13587007e-02	8.56201354e-04
6.90000000e-02	2.03609803e-02	8.18404805e-04
6.92500000e-02	2.12108652e-02	8.53975420e-04
6.95000000e-02	2.14508607e-02	8.50576728e-04
6.97500000e-02	2.11179007e-02	8.44051917e-04
7.00000000e-02	2.05299828e-02	8.20070671e-04
7.02500000e-02	2.09853818e-02	8.22126817e-04
7.05000000e-02	2.06313006e-02	8.14692212e-04
7.07500000e-02	2.17743043e-02	8.55418456e-04
7.10000000e-02	2.12184673e-02	8.29120899e-04
7.12500000e-02	2.13949375e-02	8.48519040e-04
7.15000000e-02	1.97882643e-02	7.81585790e-04
7.17500000e-02	2.14860593e-02	8.54171958e-04
7.20000000e-02	2.01926245e-02	7.85169385e-04
7.22500000e-02	2.17391982e-02	8.34536061e-04
7.25000000e-02	2.08008983e-02	8.09472091e-04
7.27500000e-02	2.13338205e-02	8.38766239e-04
7.30000000e-02	2.13941002e-02	8.20642313e-04
7.32500000e-02	2.18252399e-02	8.45102058e-04
7.35000000e-02	2.13397806e-02	8.24473609e-04
7.37500000e-02	2.11416407e-02	8.20658968e-04
7.40000000e-02	2.15696447e-02	8.31734663e-04
7.42500000e-02	2.04964691e-02	7.93571997e-04
7.45000000e-02	2.11403373e-02	8.21050830e-04
7.47500000e-02	2.14392391e-02	8.04850070e-04
7.50000000e-02	2.10756219e-02	8.17551083e-04
7.52500000e-02	2.12017122e-02	8.07123593e-04
7.55000000e-02	2.18477020e-02	8.27461807e-04
7.57500000e-02	2.06440498e-02	7.98611413e-04
7.60000000e-02	2.13076930e-02	8.16794845e-04
7.62500000e-02	2.15154874e-02	8.22039973e-04
7.65000000e-02	2.10857947e-02	8.00586802e-04
7.67500000e-02	2.00472814e-02	7.65851205e-04
7.70000000e-02	2.11279008e-02	8.07077157e-04
7.72500000e-02	2.07680931e-02	8.00046863e-04
7.75000000e-02	2.12751595e-02	8.26764874e-04
7.77500000e-02	2.10430603e-02	8.29470805e-04
7.80000000e-02	2.12741453e-02	8.41315581e-04
7.82500000e-02	1.99761277e-02	7.92276089e-04
7.85000000e-02	2.02264908e-02	8.25314401e-04
7.87500000e-02	2.08118731e-02	8.16397616e-04
7.90000000e-02	2.04735207e-02	8.21634482e-04
7.92500000e-02	2.07858696e-02	8.38255863e-04
7.95000000e-02	2.01572167e-02	8.17987956e-04
7.97500000e-02	2.06100315e-02	8.31806770e-04
8.00000000e-02	2.04880032e-02	8.28183972e-04
8.02500000e-02	2.04482262e-02	8.43252694e-04
8.05000000e-02	2.12836850e-02	8.61527729e-04
8.07500000e-02	2.07350456e-02	8.49589417e-04
8.10000000e-02	2.05880556e-02	8.42877611e-04
8.12500000e-02	2.11808775e-02	8.62498822e-04
8.15000000e-02	2.10781909e-02	8.56023395e-04
8.17500000e-02	2.11165806e-02	8.69659544e-04
8.20000000e-02	2.06659794e-02	8.56182304e-04
8.22500000e-02	2.02145313e-02	8.48784236e-04
8.25000000e-02	2.03319179e-02	8.35398588e-04
8.27500000e-02	2.09632471e-02	8.63584653e-04
8.30000000e-02	1.99396644e-02	8.26314071e-04
8.32500000e-02	2.01907874e-02	8.41334938e-04
8.35000000e-02	2.08517884e-02	8.84782500e-04
8.37500000e-02	2.07450613e-02	8.44831992e-04
8.40000000e-02	2.01241906e-02	8.49856670e-04
8.42500000e-02	2.08328158e-02	8.81316080e-04
8.45000000e-02	2.01528699e-02	8.38575804e-04
8.47500000e-02	2.03412462e-02	8.52961512e-04
8.50000000e-02	2.18319827e-02	8.97288282e-04
8.52500000e-02	2.06124626e-02	8.78159392e-04
8.55000000e-02	2.01815639e-02	8.46967179e-04
8.57500000e-02	2.09309363e-02	8.76663936e-04
8.60000000e-02	2.06079509e-02	8.57815583e-04
8.62500000e-02	2.08749239e-02	8.78055410e-04
8.65000000e-02	2.07756879e-02	8.62416686e-04
8.67500000e-02	2.01479383e-02	8.40520544e-04
8.70000000e-02	2.09162398e-02	8.62339727e-04
8.72500000e-02	2.18145945e-02	8.83871800e-04
8.75000000e-02	2.08064010e-02	8.24221129e-04
8.77500000e-02	2.03183057e-02	8.12515776e-04
8.80000000e-02	2.02804767e-02	8.07298733e-04
8.82500000e-02	2.05198060e-02	8.20956407e-04
8.85000000e-02	2.05319702e-02	8.11304760e-04
8.87500000e-02	2.03843686e-02	7.96691877e-04
8.90000000e-02	1.96614978e-02	7.77532874e-04
8.92500000e-02	2.04728735e-02	7.95403801e-04
8.95000000e-02	2.09390726e-02	8.10657765e-04
8.97500000e-02	2.09839684e-02	8.15473016e-04
9.00000000e-02	2.08470219e-02	7.93208871e-04
9.02500000e-02	1.96609070e-02	7.49563909e-04
9.05000000e-02	2.06495168e-02	8.01057378e-04
9.07500000e-02	2.08043249e-02	7.93489137e-04
9.10000000e-02	2.06719632e-02	7.88314363e-04
9.12500000e-02	2.10247199e-02	7.94674344e-04
9.15000000e-02	2.04787993e-02	7.71611295e-04
9.17500000e-02	1.97207171e-02	7.46111651e-04
9.20000000e-02	1.94902284e-02	7.38536000e-04
9.22500000e-02	2.00539991e-02	7.59402704e-04
9.25000000e-02	2.08384817e-02	7.80710781e-04
9.27500000e-02	2.05698167e-02	7.68120878e-04
9.30000000e-02	2.04036969e-02	7.70363230e-04
9.32500000e-02	1.94838801e-02	7.36013158e-04
9.35000000e-02	2.04712609e-02	7.56810868e-04
9.37500000e-02	1.98324584e-02	7.34405555e-04
9.40000000e-02	1.96219367e-02	7.28185516e-04
9.42500000e-02	2.01628616e-02	7.44301166e-04
9.45000000e-02	2.01852642e-02	7.55434076e-04
9.47500000e-02	2.02620940e-02	7.52125292e-04
9.50000000e-02	2.05206952e-02	7.59142017e-04
9.52500000e-02	2.10306535e-02	7.72624233e-04
9.55000000e-02	1.97450819e-02	7.29108075e-04
9.57500000e-02	1.98012127e-02	7.39343927e-04
9.60000000e-02	2.02051245e-02	7.54131662e-04
9.62500000e-02	2.05469984e-02	7.46414413e-04
9.65000000e-02	2.09006927e-02	7.58526235e-04
9.67500000e-02	2.02209524e-02	7.32207216e-04
9.70000000e-02	2.06469379e-02	7.50875029e-04
9.72500000e-02	2.08098834e-02	7.48975557e-04
9.75000000e-02	2.02285613e-02	7.39927259e-04
9.77500000e-02	1.91058345e-02	6.85330707e-04
9.80000000e-02	2.00748937e-02	7.29718420e-04
9.82500000e-02	2.04147020e-02	7.44168760e-04
9.85000000e-02	1.99466284e-02	7.23167748e-04
9.87500000e-02	2.06672226e-02	7.38423368e-04
9.90000000e-02	2.05078542e-02	7.41542942e-04
9.92500000e-02	1.94106105e-02	7.07623835e-04
9.95000000e-02	2.01653675e-02	7.16274046e-04
9.97500000e-02	1.97416906e-02	7.11412270e-04
1.00000000e-01	1.95118588e-02	5.65979047e-04
1.00500000e-01	2.03054058e-02	5.15057196e-04
1.01000000e-01	2.00818774e-02	5.04047275e-04
1.01500000e-01	2.01346829e-02	5.07204191e-04
1.02000000e-01	2.01293502e-02	5.00494946e-04
1.02500000e-01	1.98916431e-02	4.94949346e-04
1.03000000e-01	2.01331000e-02	5.03077266e-04
1.03500000e-01	2.01420497e-02	4.96890718e-04
1.04000000e-01	2.03378160e-02	5.02759532e-04
1.04500000e-01	1.96660472e-02	4.86524666e-04
1.05000000e-01	2.01669859e-02	5.00257307e-04
1.05500000e-01	2.02028778e-02	4.96514847e-04
1.06000000e-01	1.94898944e-02	4.77702365e-04
1.06500000e-01	2.04611532e-02	4.95269529e-04
1.07000000e-01	2.05921068e-02	5.07050250e-04
1.07500000e-01	2.00638437e-02	4.99321949e-04
1.08000000e-01	2.02439687e-02	5.13068913e-04
1.08500000e-01	1.98519892e-02	5.10636225e-04
1.09000000e-01	2.01122554e-02	5.19718736e-04
1.09500000e-01	2.04091426e-02	5.24780976e-04
1.10000000e-01	2.00625993e-02	5.10642875e-04
1.10500000e-01	2.03039070e-02	5.08849001e-04
1.11000000e-01	1.99874830e-02	4.93736510e-04
1.11500000e-01	1.98373654e-02	4.85841820e-04
1.12000000e-01	2.01107823e-02	4.79420458e-04
1.12500000e-01	2.04685230e-02	4.91420726e-04
1.13000000e-01	2.03979064e-02	4.90767752e-04
1.13500000e-01	2.03205094e-02	4.85642534e-04
1.14000000e-01	1.95674129e-02	4.69150359e-04
1.14500000e-01	2.01289309e-02	4.78374966e-04
1.15000000e-01	1.97743759e-02	4.68708056e-04
1.15500000e-01	2.03444545e-02	4.77816831e-04
1.16000000e-01	2.03125705e-02	4.78518411e-04
1.16500000e-01	2.01097199e-02	4.75824599e-04
1.17000000e-01	1.94021965e-02	4.58548874e-04
1.17500000e-01	1.94106399e-02	4.55824788e-04
1.18000000e-01	2.00833872e-02	4.73858800e-04
1.18500000e-01	2.00681519e-02	4.69280134e-04
1.19000000e-01	2.04154916e-02	4.70723344e-04
1.19500000e-01	2.00476639e-02	4.64964842e-04
1.20000000e-01	2.00733989e-02	4.63768329e-04
1.20500000e-01	2.03473978e-02	4.72897582e-04
1.21000000e-01	1.96242732e-02	4.55301577e-04
1.21500000e-01	2.01219098e-02	4.61969392e-04
1.22000000e-01	1.96394957e-02	4.54793111e-04
1.22500000e-01	2.00069258e-02	4.62404195e-04
1.23000000e-01	1.98832999e-02	4.58181315e-04
1.23500000e-01	1.99378227e-02	4.55419588e-04
1.24000000e-01	2.01276079e-02	4.61616850e-04
1.24500000e-01	1.97355053e-02	4.50283266e-04
1.25000000e-01	2.00786994e-02	4.51429632e-04
1.25500000e-01	1.94676983e-02	4.39157822e-04
1.26000000e-01	1.96974604e-02	4.47969651e-04
1.26500000e-01	2.04556684e-02	4.56133837e-04
1.27000000e-01	2.05198058e-02	4.56073563e-04
1.27500000e-01	1.99442807e-02	4.46290378e-04
1.28000000e-01	1.99433458e-02	4.46696499e-04
1.28500000e-01	2.00853944e-02	4.45496477e-04
1.29000000e-01	2.03585747e-02	4.55581840e-04
1.29500000e-01	2.02336760e-02	4.50333430e-04
1.30000000e-01	1.97846948e-02	4.35106915e-04
1.30500000e-01	2.00777161e-02	4.43594689e-04
1.31000000e-01	2.03992283e-02	4.46764033e-04
1.31500000e-01	1.98541036e-02	4.41992799e-04
1.32000000e-01	2.01945981e-02	4.44151453e-04
1.32500000e-01	2.03402944e-02	4.44625873e-04
1.33000000e-01	1.98833849e-02	4.34114063e-04
1.33500000e-01	2.00600516e-02	4.34447423e-04
1.34000000e-01	1.98553720e-02	4.30425765e-04
1.34500000e-01	1.99817047e-02	4.33861106e-04
1.35000000e-01	2.00185756e-02	4.29624102e-04
1.35500000e-01	1.97744924e-02	4.30323950e-04
1.36000000e-01	2.00193265e-02	4.30163535e-04
1.36500000e-01	1.96389831e-02	4.30357453e-04
1.37000000e-01	2.01385558e-02	4.32152161e-04
1.37500000e-01	2.02774027e-02	4.32956871e-04
1.38000000e-01	2.05210038e-02	4.39060790e-04
1.38500000e-01	1.95422840e-02	4.20142832e-04
1.39000000e-01	1.96403600e-02	4.21092426e-04
1.39500000e-01	2.02013850e-02	4.32717589e-04
1.40000000e-01	2.01237933e-02	4.30873498e-04
1.40500000e-01	2.00488014e-02	4.25571476e-04
1.41000000e-01	1.95275684e-02	4.19488915e-04
1.41500000e-01	2.00112777e-02	4.25870105e-04
1.42000000e-01	1.94532250e-02	4.11337620e-04
1.42500000e-01	2.01727975e-02	4.26449445e-04
1.43000000e-01	1.99374014e-02	4.19087514e-04
1.43500000e-01	1.94341783e-02	4.13322057e-04
1.44000000e-01	1.92525082e-02	4.06135901e-04
1.44500000e-01	2.00380905e-02	4.23979091e-04
1.45000000e-01	1.93796141e-02	4.09428980e-04
1.45500000e-01	1.97762149e-02	4.13287589e-04
1.46000000e-01	1.97617805e-02	4.16252879e-04
1.46500000e-01	1.94637231e-02	4.12993309e-04
1.47000000e-01	1.95715469e-02	4.10497350e-04
1.47500000e-01	1.95763548e-02	4.10090353e-04
1.48000000e-01	1.93246518e-02	4.04923764e-04
1.48500000e-01	1.92032783e-02	3.99555783e-04
1.49000000e-01	1.93900165e-02	4.03610338e-04
1.49500000e-01	1.97561561e-02	4.11353501e-04
1.50000000e-01	1.96029733e-02	4.03625946e-04
1.50500000e-01	2.00794106e-02	4.14857516e-04
1.51000000e-01	1.98635982e-02	4.08202131e-04
1.51500000e-01	1.94744204e-02	4.01855656e-04
1.52000000e-01	2.00141411e-02	4.07549263e-04
1.52500000e-01	1.94037815e-02	4.00605204e-04
1.53000000e-01	1.94344193e-02	3.99554653e-04
1.53500000e-01	1.95067377e-02	3.94256512e-04
1.54000000e-01	1.92435961e-02	3.95400416e-04
1.54500000e-01	1.92942124e-02	4.04276725e-04
1.55000000e-01	1.94406332e-02	4.06279290e-04
1.55500000e-01	1.93905032e-02	4.10289865e-04
1.56000000e-01	1.93854746e-02	4.13697534e-04
1.56500000e-01	1.94051331e-02	4.11076102e-04
1.57000000e-01	1.95747977e-02	4.20107864e-04
1.57500000e-01	1.97072743e-02	4.11040546e-04
1.58000000e-01	1.91050446e-02	3.96248056e-04
1.58500000e-01	1.90863305e-02	3.94865804e-04
1.59000000e-01	1.93087881e-02	3.94481523e-04
1.59500000e-01	1.93401015e-02	3.93821269e-04
1.60000000e-01	1.95096709e-02	3.94939109e-04
1.60500000e-01	1.96692111e-02	3.97360123e-04
1.61000000e-01	1.92817343e-02	3.95531165e-04
1.61500000e-01	1.92653673e-02	3.87595822e-04
1.62000000e-01	1.94503025e-02	3.92415116e-04
1.62500000e-01	1.92559632e-02	3.89670895e-04
1.63000000e-01	1.98117727e-02	3.93705969e-04
1.63500000e-01	1.89355165e-02	3.81313511e-04
1.64000000e-01	1.92595448e-02	3.85505555e-04
1.64500000e-01	1.93011026e-02	3.86605675e-04
1.65000000e-01	1.86688582e-02	3.76483426e-04
1.65500000e-01	1.88956870e-02	3.79164345e-04
1.66000000e-01	1.93795908e-02	3.84624781e-04
1.66500000e-01	1.92995815e-02	3.82565338e-04
1.67000000e-01	1.89572511e-02	3.75944296e-04
1.67500000e-01	1.91175549e-02	3.81619488e-04
1.68000000e-01	1.95990909e-02	3.87501872e-04
1.68500000e-01	1.88256867e-02	3.71628272e-04
1.69000000e-01	1.91796599e-02	3.79689842e-04
1.69500000e-01	1.92963613e-02	3.79273748e-04
1.70000000e-01	1.95016813e-02	3.81402805e-04
1.70500000e-01	1.88190955e-02	3.71498419e-04
1.71000000e-01	1.92982398e-02	3.79014090e-04
1.71500000e-01	1.90075799e-02	3.76532028e-04
1.72000000e-01	1.89755971e-02	3.69197315e-04
1.72500000e-01	1.90045531e-02	3.68928849e-04
1.73000000e-01	1.90182781e-02	3.71870422e-04
1.73500000e-01	1.90088451e-02	3.71433172e-04
1.74000000e-01	1.89079527e-02	3.67654801e-04
1.74500000e-01	1.89009527e-02	3.66035919e-04
1.75000000e-01	1.92147746e-02	3.68590758e-04
1.75500000e-01	1.91299920e-02	3.68689353e-04
1.76000000e-01	1.90668403e-02	3.68760182e-04
1.76500000e-01	1.89521658e-02	3.65318859e-04
1.77000000e-01	1.87541784e-02	3.60315441e-04
1.77500000e-01	1.93439485e-02	3.68465759e-04
1.78000000e-01	1.88079059e-02	3.60731239e-04
1.78500000e-01	1.89730765e-02	3.63212810e-04
1.79000000e-01	1.89208628e-02	3.62443791e-04
1.79500000e-01	1.88274052e-02	3.62308955e-04
1.80000000e-01	1.93107483e-02	3.67884749e-04
1.80500000e-01	1.90018427e-02	3.65432105e-04
1.81000000e-01	1.91275359e-02	3.64634361e-04
1.81500000e-01	1.88029273e-02	3.57969843e-04
1.82000000e-01	1.88555296e-02	3.59803414e-04
1.82500000e-01	1.88154620e-02	3.55834878e-04
1.83000000e-01	1.88203644e-02	3.59186147e-04
1.83500000e-01	1.90586258e-02	3.60064608e-04
1.84000000e-01	1.89374346e-02	3.59362607e-04
1.84500000e-01	1.89104457e-02	3.58144883e-04
1.85000000e-01	1.85521340e-02	3.52457004e-04
1.85500000e-01	1.90202493e-02	3.56627325e-04
1.86000000e-01	1.89116597e-02	3.58841327e-04
1.86500000e-01	1.84664816e-02	3.50872850e-04
1.87000000e-01	1.89833857e-02	3.58143164e-04
1.87500000e-01	1.81400265e-02	3.42584972e-04
1.88000000e-01	1.84796628e-02	3.47829620e-04
1.88500000e-01	1.90890310e-02	3.53546637e-04
1.89000000e-01	1.85752535e-02	3.48537916e-04
1.89500000e-01	1.84770264e-02	3.48899696e-04
1.90000000e-01	1.86826044e-02	3.51840766e-04
1.90500000e-01	1.84087865e-02	3.45448019e-04
1.91000000e-01	1.87018441e-02	3.47656236e-04
1.91500000e-01	1.87841238e-02	3.51716571e-04
1.92000000e-01	1.87566769e-02	3.48917143e-04
1.92500000e-01	1.86332320e-02	3.45210469e-04
1.93000000e-01	1.88215654e-02	3.49775183e-04
1.93500000e-01	1.81269214e-02	3.39523549e-04
1.94000000e-01	1.86691872e-02	3.44044996e-04
1.94500000e-01	1.89510190e-02	3.50280811e-04
1.95000000e-01	1.88990222e-02	3.50173848e-04
1.95500000e-01	1.87726544e-02	3.44880364e-04
1.96000000e-01	1.84399752e-02	3.39102514e-04
1.96500000e-01	1.83219560e-02	3.38003747e-04
1.97000000e-01	1.89208585e-02	3.45758105e-04
1.97500000e-01	1.82203930e-02	3.35506529e-04
1.98000000e-01	1.88381163e-02	3.45376868e-04
1.98500000e-01	1.82393946e-02	3.34160204e-04
1.99000000e-01	1.87150161e-02	3.42143936e-04
1.99500000e-01	1.84997122e-02	3.37804712e-04
2.00000000e-01	1.85420123e-02	3.37174806e-04
2.00500000e-01	1.83287704e-02	3.33305348e-04
2.01000000e-01	1.86820656e-02	3.37193713e-04
2.01500000e-01	1.82873002e-02	3.33378927e-04
2.02000000e-01	1.84544789e-02	3.35110823e-04
2.02500000e-01	1.85937374e-02	3.38060521e-04
2.03000000e-01	1.85754755e-02	3.34850610e-04
2.03500000e-01	1.84463281e-02	3.32858398e-04
2.04000000e-01	1.79238564e-02	3.25812140e-04
2.04500000e-01	1.86831974e-02	3.36327064e-04
2.05000000e-01	1.86415283e-02	3.34436520e-04
2.05500000e-01	1.85534166e-02	3.33409987e-04
2.06000000e-01	1.88613574e-02	3.36501067e-04
2.06500000e-01	1.84021666e-02	3.33319051e-04
2.07000000e-01	1.88249130e-02	3.37060205e-04
2.07500000e-01	1.83660180e-02	3.28338261e-04
2.08000000e-01	1.80097801e-02	3.24031160e-04
2.08500000e-01	1.84663026e-02	3.28551185e-04
2.09000000e-01	1.82416730e-02	3.25210450e-04
2.09500000e-01	1.83261335e-02	3.26491904e-04
2.10000000e-01	1.85805908e-02	3.31120111e-04
2.10500000e-01	1.84186588e-02	3.27275582e-04
2.11000000e-01	1.85189947e-02	3.28519878e-04
2.11500000e-01	1.81143117e-02	3.23110929e-04
2.12000000e-01	1.83184657e-02	3.25037737e-04
2.12500000e-01	1.86458517e-02	3.32306368e-04
2.13000000e-01	1.83581837e-02	3.25261660e-04
2.13500000e-01	1.83902053e-02	3.23910412e-04
2.14000000e-01	1.84180146e-02	3.23349192e-04
2.14500000e-01	1.80810177e-02	3.20612258e-04
2.15000000e-01	1.83213284e-02	3.25368015e-04
2.15500000e-01	1.82026394e-02	3.21707855e-04
2.16000000e-01	1.82440016e-02	3.20926804e-04
2.16500000e-01	1.83427376e-02	3.21718069e-04
2.17000000e-01	1.83794235e-02	3.28908197e-04
2.17500000e-01	1.83665114e-02	3.32961917e-04
2.18000000e-01	1.83256659e-02	3.31791148e-04
2.18500000e-01	1.79546125e-02	3.27095221e-04
2.19000000e-01	1.79164373e-02	3.33493380e-04
2.19500000e-01	1.82083231e-02	3.35278719e-04
2.20000000e-01	1.82888088e-02	3.39993442e-04
2.20500000e-01	1.84808826e-02	3.43001583e-04
2.21000000e-01	1.78932915e-02	3.36249638e-04
2.21500000e-01	1.79103702e-02	3.35500780e-04
2.22000000e-01	1.82433865e-02	3.40789237e-04
2.22500000e-01	1.80780077e-02	3.39069204e-04
2.23000000e-01	1.81439782e-02	3.40865268e-04
2.23500000e-01	1.89652240e-02	3.56454516e-04
2.24000000e-01	1.84008067e-02	3.46219510e-04
2.24500000e-01	1.79970485e-02	3.43929296e-04
2.25000000e-01	1.81092950e-02	3.40108065e-04
2.25500000e-01	1.82085624e-02	3.47580514e-04
2.26000000e-01	1.83245875e-02	3.49024666e-04
2.26500000e-01	1.86162434e-02	3.43235621e-04
2.27000000e-01	1.83175959e-02	3.37755781e-04
2.27500000e-01	1.84571421e-02	3.37256192e-04
2.28000000e-01	1.78986554e-02	3.28509910e-04
2.28500000e-01	1.81430900e-02	3.31163427e-04
2.29000000e-01	1.78341264e-02	3.23506126e-04
2.29500000e-01	1.83010253e-02	3.29833301e-04
2.30000000e-01	1.81083535e-02	3.28433725e-04
2.30500000e-01	1.82390943e-02	3.30552792e-04
2.31000000e-01	1.79697713e-02	3.22678387e-04
2.31500000e-01	1.79748892e-02	3.21218298e-04
2.32000000e-01	1.82299146e-02	3.24004776e-04
2.32500000e-01	1.77696965e-02	3.16587309e-04
2.33000000e-01	1.81576620e-02	3.22445045e-04
2.33500000e-01	1.83368155e-02	3.27811912e-04
2.34000000e-01	1.78917307e-02	3.16490188e-04
2.34500000e-01	1.81779369e-02	3.20649443e-04
2.35000000e-01	1.81446776e-02	3.20810108e-04
2.35500000e-01	1.83043480e-02	3.20194958e-04
2.36000000e-01	1.77622298e-02	3.10033025e-04
2.36500000e-01	1.81331181e-02	3.19014841e-04
2.37000000e-01	1.80945373e-02	3.16050156e-04
2.37500000e-01	1.75569341e-02	3.09617162e-04
2.38000000e-01	1.76569987e-02	3.07926658e-04
2.38500000e-01	1.82597899e-02	3.18740221e-04
2.39000000e-01	1.81462282e-02	3.15793297e-04
2.39500000e-01	1.82533103e-02	3.15721778e-04
2.40000000e-01	1.79703492e-02	3.10549791e-04
2.40500000e-01	1.77434717e-02	3.05716817e-04
2.41000000e-01	1.76180324e-02	3.07456365e-04
2.41500000e-01	1.74859679e-02	3.02357389e-04
2.42000000e-01	1.77062396e-02	3.06335108e-04
2.42500000e-01	1.76545676e-02	3.05571913e-04
2.43000000e-01	1.75591813e-02	3.02659976e-04
2.43500000e-01	1.76781247e-02	3.03118521e-04
2.44000000e-01	1.78225394e-02	3.06799272e-04
2.44500000e-01	1.78817788e-02	3.06507085e-04
2.45000000e-01	1.78689330e-02	3.05146957e-04
2.45500000e-01	1.74033017e-02	3.01148106e-04
2.46000000e-01	1.78527874e-02	3.04724280e-04
2.46500000e-01	1.78560399e-02	3.01885009e-04
2.47000000e-01	1.78005373e-02	3.03075815e-04
2.47500000e-01	1.80547365e-02	3.03576014e-04
2.48000000e-01	1.75372302e-02	2.96737343e-04
2.48500000e-01	1.79741887e-02	3.03306581e-04
2.49000000e-01	1.78135513e-02	3.02221229e-04
2.49500000e-01	1.73362596e-02	2.95586721e-04
2.50000000e-01	1.76517719e-02	2.99380570e-04
2.50500000e-01	1.72924980e-02	2.95117755e-04
2.51000000e-01	1.75316071e-02	2.93109953e-04
2.51500000e-01	1.75576450e-02	2.96051801e-04
2.52000000e-01	1.78287498e-02	3.01077965e-04
2.52500000e-01	1.80689717e-02	3.02378488e-04
2.53000000e-01	1.77994390e-02	3.01220332e-04
2.53500000e-01	1.75650734e-02	2.96186239e-04
2.54000000e-01	1.77493516e-02	2.99440943e-04
2.54500000e-01	1.72739500e-02	2.90787755e-04
2.55000000e-01	1.71998083e-02	2.87833643e-04
2.55500000e-01	1.76888166e-02	2.98316903e-04
2.56000000e-01	1.80103167e-02	2.98786407e-04
2.56500000e-01	1.78362409e-02	2.97579048e-04
2.57000000e-01	1.74832514e-02	2.90915800e-04
2.57500000e-01	1.75681299e-02	2.90852240e-04
2.58000000e-01	1.77175530e-02	2.94089019e-04
2.58500000e-01	1.72212541e-02	2.88368530e-04
2.59000000e-01	1.77516035e-02	2.93949701e-04
2.59500000e-01	1.71535564e-02	2.85927365e-04
2.60000000e-01	1.77498062e-02	2.93082906e-04
2.60500000e-01	1.74461658e-02	2.88215574e-04
2.61000000e-01	1.78852922e-02	2.94427410e-04
2.61500000e-01	1.77251276e-02	2.92486303e-04
2.62000000e-01	1.76911244e-02	2.90774114e-04
2.62500000e-01	1.71524595e-02	2.84932091e-04
2.63000000e-01	1.74541433e-02	2.87068262e-04
2.63500000e-01	1.75493161e-02	2.86800886e-04
2.64000000e-01	1.74412111e-02	2.87413495e-04
2.64500000e-01	1.71566866e-02	2.81338616e-04
2.65000000e-01	1.72823414e-02	2.83641678e-04
2.65500000e-01	1.75509545e-02	2.86286594e-04
2.66000000e-01	1.72797093e-02	2.84988579e-04
2.66500000e-01	1.72336505e-02	2.81414726e-04
2.67000000e-01	1.78312520e-02	2.90646491e-04
2.67500000e-01	1.76997575e-02	2.85704282e-04
2.68000000e-01	1.70280738e-02	2.78004322e-04
2.68500000e-01	1.70475669e-02	2.78635310e-04
2.69000000e-01	1.76424817e-02	2.85404284e-04
2.69500000e-01	1.72409863e-02	2.80191251e-04
2.70000000e-01	1.70617998e-02	2.77062884e-04
2.70500000e-01	1.74171179e-02	2.81067308e-04
2.71000000e-01	1.74787965e-02	2.83403386e-04
2.71500000e-01	1.76615950e-02	2.84228021e-04
2.72000000e-01	1.74543837e-02	2.82893889e-04
2.72500000e-01	1.73330566e-02	2.79745519e-04
2.73000000e-01	1.72571175e-02	2.79459788e-04
2.73500000e-01	1.75278949e-02	2.82713119e-04
2.74000000e-01	1.71492356e-02	2.77226695e-04
2.74500000e-01	1.73556426e-02	2.78785499e-04
2.75000000e-01	1.73126559e-02	2.79577458e-04
2.75500000e-01	1.73788046e-02	2.77985436e-04
2.76000000e-01	1.73016352e-02	2.79802796e-04
2.76500000e-01	1.71516988e-02	2.76846578e-04
2.77000000e-01	1.72204826e-02	2.75992550e-04
2.77500000e-01	1.71771127e-02	2.76868577e-04
2.78000000e-01	1.71241498e-02	2.74011381e-04
2.78500000e-01	1.68644564e-02	2.71252542e-04
2.79000000e-01	1.71194449e-02	2.74232863e-04
2.79500000e-01	1.74336162e-02	2.76802702e-04
2.80000000e-01	1.70892452e-02	2.74394740e-04
2.80500000e-01	1.73563075e-02	2.77251935e-04
2.81000000e-01	1.71026221e-02	2.71623485e-04
2.81500000e-01	1.68172356e-02	2.69483329e-04
2.82000000e-01	1.71041607e-02	2.72088521e-04
2.82500000e-01	1.72723131e-02	2.74993397e-04
2.83000000e-01	1.72043095e-02	2.72812140e-04
2.83500000e-01	1.72914158e-02	2.73275602e-04
2.84000000e-01	1.72688359e-02	2.72556430e-04
2.84500000e-01	1.70777482e-02	2.71485434e-04
2.85000000e-01	1.74251353e-02	2.76450567e-04
2.85500000e-01	1.70439031e-02	2.68444625e-04
2.86000000e-01	1.67736967e-02	2.65896610e-04
2.86500000e-01	1.70483135e-02	2.68121779e-04
2.87000000e-01	1.72737363e-02	2.73633149e-04
2.87500000e-01	1.68677681e-02	2.65456682e-04
2.88000000e-01	1.70875458e-02	2.67365247e-04
2.88500000e-01	1.73320858e-02	2.70128304e-04
2.89000000e-01	1.69771074e-02	2.65571750e-04
2.89500000e-01	1.71589146e-02	2.69186474e-04
2.90000000e-01	1.71344874e-02	2.67364531e-04
2.90500000e-01	1.70471314e-02	2.68972862e-04
2.91000000e-01	1.70581588e-02	2.67305492e-04
2.91500000e-01	1.70868391e-02	2.64734544e-04
2.92000000e-01	1.70151849e-02	2.63732349e-04
2.92500000e-01	1.71752702e-02	2.68826335e-04
2.93000000e-01	1.71786833e-02	2.69913817e-04
2.93500000e-01	1.72110676e-02	2.66665035e-04
2.94000000e-01	1.71394382e-02	2.65896780e-04
2.94500000e-01	1.68698083e-02	2.63369048e-04
2.95000000e-01	1.73325266e-02	2.67906892e-04
2.95500000e-01	1.70220962e-02	2.64911691e-04
2.96000000e-01	1.69154950e-02	2.60821219e-04
2.96500000e-01	1.73079804e-02	2.64244123e-04
2.97000000e-01	1.67824375e-02	2.61068127e-04
2.97500000e-01	1.70615560e-02	2.63224705e-04
2.98000000e-01	1.72190410e-02	2.65710173e-04
2.98500000e-01	1.72651914e-02	2.65374126e-04
2.99000000e-01	1.71238207e-02	2.62881012e-04
2.99500000e-01	1.67045223e-02	2.58550366e-04
3.00000000e-01	1.67741130e-02	2.59236601e-04
3.00500000e-01	1.71274737e-02	2.62841660e-04
3.01000000e-01	1.65782508e-02	2.56128512e-04
3.01500000e-01	1.70901420e-02	2.61930871e-04
3.02000000e-01	1.66299979e-02	2.56757712e-04
3.02500000e-01	1.73415321e-02	2.64521709e-04
3.03000000e-01	1.70823422e-02	2.60648032e-04
3.03500000e-01	1.70050467e-02	2.59804447e-04
3.04000000e-01	1.69945347e-02	2.60969595e-04
3.04500000e-01	1.68630684e-02	2.58963262e-04
3.05000000e-01	1.69429367e-02	2.59268194e-04
3.05500000e-01	1.68812251e-02	2.58847973e-04
3.06000000e-01	1.66424428e-02	2.51463726e-04
3.06500000e-01	1.68137582e-02	2.57221237e-04
3.07000000e-01	1.68293895e-02	2.56842854e-04
3.07500000e-01	1.68178966e-02	2.56450548e-04
3.08000000e-01	1.65370085e-02	2.53112556e-04
3.08500000e-01	1.68136169e-02	2.56035365e-04
3.09000000e-01	1.66835265e-02	2.53178400e-04
3.09500000e-01	1.69610109e-02	2.56054092e-04
3.10000000e-01	1.70349245e-02	2.57898858e-04
3.10500000e-01	1.71551366e-02	2.58850811e-04
3.11000000e-01	1.67162253e-02	2.51833220e-04
3.11500000e-01	1.70657878e-02	2.58097981e-04
3.12000000e-01	1.67811085e-02	2.52911284e-04
3.12500000e-01	1.66653004e-02	2.51213437e-04
3.13000000e-01	1.68948960e-02	2.54066882e-04
3.13500000e-01	1.67997371e-02	2.53536685e-04
3.14000000e-01	1.70425690e-02	2.56018794e-04
3.14500000e-01	1.64635723e-02	2.49504967e-04
3.15000000e-01	1.69579386e-02	2.56160599e-04
3.15500000e-01	1.68976295e-02	2.54451204e-04
3.16000000e-01	1.68255124e-02	2.51717141e-04
3.16500000e-01	1.66662793e-02	2.50702429e-04
3.17000000e-01	1.66696068e-02	2.51350751e-04
3.17500000e-01	1.67044450e-02	2.51446023e-04
3.18000000e-01	1.65505902e-02	2.49072622e-04
3.18500000e-01	1.65839969e-02	2.48678211e-04
3.19000000e-01	1.66562121e-02	2.49291440e-04
3.19500000e-01	1.65175450e-02	2.48125849e-04
3.20000000e-01	1.63797430e-02	2.45940404e-04
3.20500000e-01	1.66569213e-02	2.47921081e-04
3.21000000e-01	1.63114360e-02	2.45602586e-04
3.21500000e-01	1.62219753e-02	2.43866832e-04
3.22000000e-01	1.65866552e-02	2.47301716e-04
3.22500000e-01	1.63067138e-02	2.43192045e-04
3.23000000e-01	1.64830667e-02	2.47158072e-04
3.23500000e-01	1.66077612e-02	2.46764234e-04
3.24000000e-01	1.63287173e-02	2.42350595e-04
3.24500000e-01	1.64628641e-02	2.46298940e-04
3.25000000e-01	1.67874994e-02	2.48439924e-04
3.25500000e-01	1.65332130e-02	2.43117569e-04
3.26000000e-01	1.62919253e-02	2.44386312e-04
3.26500000e-01	1.64734242e-02	2.43826818e-04
3.27000000e-01	1.61947858e-02	2.41079372e-04
3.27500000e-01	1.60765810e-02	2.40325639e-04
3.28000000e-01	1.65520707e-02	2.45563683e-04
3.28500000e-01	1.62122017e-02	2.42200561e-04
3.29000000e-01	1.65691389e-02	2.45143843e-04
3.29500000e-01	1.64820421e-02	2.43947743e-04
3.30000000e-01	1.65916804e-02	2.44608718e-04
3.30500000e-01	1.62345358e-02	2.39872921e-04
3.31000000e-01	1.63665887e-02	2.41164373e-04
3.31500000e-01	1.65659775e-02	2.43212544e-04
3.32000000e-01	1.65151871e-02	2.42177164e-04
3.32500000e-01	1.63028689e-02	2.38404410e-04
3.33000000e-01	1.63903372e-02	2.41137975e-04
3.33500000e-01	1.62687193e-02	2.39761380e-04
3.34000000e-01	1.63210500e-02	2.39147168e-04
3.34500000e-01	1.60971490e-02	2.37680339e-04
3.35000000e-01	1.63275645e-02	2.39960926e-04
3.35500000e-01	1.62067733e-02	2.38421440e-04
3.36000000e-01	1.65829395e-02	2.41882299e-04
3.36500000e-01	1.63254502e-02	2.41696631e-04
3.37000000e-01	1.63316404e-02	2.38110713e-04
3.37500000e-01	1.61710092e-02	2.36422560e-04
3.38000000e-01	1.63709632e-02	2.38638101e-04
3.38500000e-01	1.61488964e-02	2.35315746e-04
3.39000000e-01	1.62573047e-02	2.38548261e-04
3.39500000e-01	1.63175301e-02	2.39831910e-04
3.40000000e-01	1.62376463e-02	2.37298141e-04
3.40500000e-01	1.61612159e-02	2.34955150e-04
3.41000000e-01	1.59548262e-02	2.33986557e-04
3.41500000e-01	1.63305615e-02	2.38380798e-04
3.42000000e-01	1.62043705e-02	2.36248065e-04
3.42500000e-01	1.59470195e-02	2.34735494e-04
3.43000000e-01	1.61707836e-02	2.34441672e-04
3.43500000e-01	1.63543240e-02	2.38161925e-04
3.44000000e-01	1.62472561e-02	2.37387379e-04
3.44500000e-01	1.64413561e-02	2.37214081e-04
3.45000000e-01	1.60816693e-02	2.33863576e-04
3.45500000e-01	1.62875266e-02	2.35178865e-04
3.46000000e-01	1.59749083e-02	2.31591755e-04
3.46500000e-01	1.61670074e-02	2.32703129e-04
3.47000000e-01	1.61439960e-02	2.32742806e-04
3.47500000e-01	1.62225006e-02	2.34430132e-04
3.48000000e-01	1.62564012e-02	2.34398558e-04
3.48500000e-01	1.61564351e-02	2.32419089e-04
3.49000000e-01	1.57960527e-02	2.29678361e-04
3.49500000e-01	1.62820690e-02	2.34184520e-04
3.50000000e-01	1.60642655e-02	1.89247507e-04
3.51000000e-01	1.59840471e-02	1.62196025e-04
3.52000000e-01	1.58882765e-02	1.61552530e-04
3.53000000e-01	1.60461259e-02	1.61902300e-04
3.54000000e-01	1.59479408e-02	1.61676766e-04
3.55000000e-01	1.60715275e-02	1.61850402e-04
3.56000000e-01	1.59986727e-02	1.62552135e-04
3.57000000e-01	1.59560805e-02	1.64271499e-04
3.58000000e-01	1.60129589e-02	1.66843919e-04
3.59000000e-01	1.58163976e-02	1.66704332e-04
3.60000000e-01	1.60778653e-02	1.69887078e-04
3.61000000e-01	1.60047647e-02	1.70132227e-04
3.62000000e-01	1.60281281e-02	1.70466858e-04
3.63000000e-01	1.57366948e-02	1.69390323e-04
3.64000000e-01	1.56267514e-02	1.68344893e-04
3.65000000e-01	1.57651137e-02	1.70266457e-04
3.66000000e-01	1.58832161e-02	1.68844819e-04
3.67000000e-01	1.59346015e-02	1.66907260e-04
3.68000000e-01	1.58842812e-02	1.66295019e-04
3.69000000e-01	1.58145450e-02	1.63959983e-04
3.70000000e-01	1.55628614e-02	1.61225135e-04
3.71000000e-01	1.57541117e-02	1.64889926e-04
3.72000000e-01	1.57103150e-02	1.65939849e-04
3.73000000e-01	1.57149458e-02	1.65306266e-04
3.74000000e-01	1.58640958e-02	1.67641087e-04
3.75000000e-01	1.55503780e-02	1.65500003e-04
3.76000000e-01	1.55042953e-02	1.64750880e-04
3.77000000e-01	1.57537570e-02	1.66291388e-04
3.78000000e-01	1.55491933e-02	1.64168328e-04
3.79000000e-01	1.54562150e-02	1.64412713e-04
3.80000000e-01	1.53437801e-02	1.62822522e-04
3.81000000e-01	1.54256086e-02	1.62520222e-04
3.82000000e-01	1.55744929e-02	1.64614682e-04
3.83000000e-01	1.55161019e-02	1.64691913e-04
3.84000000e-01	1.55906222e-02	1.65626860e-04
3.85000000e-01	1.53561619e-02	1.63062424e-04
3.86000000e-01	1.55498649e-02	1.64326487e-04
3.87000000e-01	1.55233311e-02	1.65046195e-04
3.88000000e-01	1.55019169e-02	1.64154435e-04
3.89000000e-01	1.55093213e-02	1.63802634e-04
3.90000000e-01	1.54793766e-02	1.62659257e-04
3.91000000e-01	1.53511840e-02	1.62960174e-04
3.92000000e-01	1.52481074e-02	1.61936762e-04
3.93000000e-01	1.54844254e-02	1.63701384e-04
3.94000000e-01	1.53647655e-02	1.62918089e-04
3.95000000e-01	1.53148570e-02	1.62098364e-04
3.96000000e-01	1.53058994e-02	1.61520115e-04
3.97000000e-01	1.53611578e-02	1.62076053e-04
3.98000000e-01	1.53676862e-02	1.62721008e-04
3.99000000e-01	1.52866012e-02	1.61853178e-04
4.00000000e-01	1.52640015e-02	1.61569965e-04
4.01000000e-01	1.52752403e-02	1.61292888e-04
4.02000000e-01	1.52946907e-02	1.60905703e-04
4.03000000e-01	1.51460419e-02	1.59734081e-04
4.04000000e-01	1.50629944e-02	1.59705751e-04
4.05000000e-01	1.49837255e-02	1.59655271e-04
4.06000000e-01	1.49280952e-02	1.58464329e-04
4.07000000e-01	1.52062360e-02	1.61120234e-04
4.08000000e-01	1.53944358e-02	1.62064705e-04
4.09000000e-01	1.52245944e-02	1.60852744e-04
4.10000000e-01	1.50874358e-02	1.59327905e-04
4.11000000e-01	1.51113628e-02	1.60085919e-04
4.12000000e-01	1.50549322e-02	1.58713058e-04
4.13000000e-01	1.52723080e-02	1.59672196e-04
4.14000000e-01	1.50257314e-02	1.58768845e-04
4.15000000e-01	1.52601518e-02	1.61036732e-04
4.16000000e-01	1.49604398e-02	1.57453951e-04
4.17000000e-01	1.49559899e-02	1.58467074e-04
4.18000000e-01	1.51829361e-02	1.61463156e-04
4.19000000e-01	1.51905741e-02	1.63789255e-04
4.20000000e-01	1.53912121e-02	1.66510488e-04
4.21000000e-01	1.51982138e-02	1.64524133e-04
4.22000000e-01	1.50313109e-02	1.64099288e-04
4.23000000e-01	1.52102296e-02	1.67146546e-04
4.24000000e-01	1.49677510e-02	1.64311712e-04
4.25000000e-01	1.52687792e-02	1.66951638e-04
4.26000000e-01	1.50205624e-02	1.65125747e-04
4.27000000e-01	1.51598663e-02	1.66571824e-04
4.28000000e-01	1.52226925e-02	1.67867508e-04
4.29000000e-01	1.50049659e-02	1.66450911e-04
4.30000000e-01	1.49450621e-02	1.64407809e-04
4.31000000e-01	1.50343264e-02	1.65873995e-04
4.32000000e-01	1.50047800e-02	1.65228210e-04
4.33000000e-01	1.49516755e-02	1.65800837e-04
4.34000000e-01	1.47451538e-02	1.63314417e-04
4.35000000e-01	1.48069639e-02	1.64511879e-04
4.36000000e-01	1.48876507e-02	1.64401854e-04
4.37000000e-01	1.51059748e-02	1.67637919e-04
4.38000000e-01	1.49827413e-02	1.67076460e-04
4.39000000e-01	1.48888211e-02	1.66124940e-04
4.40000000e-01	1.49644901e-02	1.67356333e-04
4.41000000e-01	1.50441124e-02	1.67234523e-04
4.42000000e-01	1.50317259e-02	1.67566912e-04
4.43000000e-01	1.51232343e-02	1.68861879e-04
4.44000000e-01	1.49481074e-02	1.67937081e-04
4.45000000e-01	1.47440988e-02	1.66270424e-04
4.46000000e-01	1.48873524e-02	1.66813139e-04
4.47000000e-01	1.49060406e-02	1.67869361e-04
4.48000000e-01	1.47373582e-02	1.65723229e-04
4.49000000e-01	1.47366934e-02	1.66475612e-04
4.50000000e-01	1.48388696e-02	1.66918520e-04
4.51000000e-01	1.48498620e-02	1.68122822e-04
4.52000000e-01	1.48144129e-02	1.67656069e-04
4.53000000e-01	1.48827383e-02	1.68407941e-04
4.54000000e-01	1.47570055e-02	1.67225577e-04
4.55000000e-01	1.48695632e-02	1.69340271e-04
4.56000000e-01	1.47917393e-02	1.68169881e-04
4.57000000e-01	1.47260288e-02	1.67725722e-04
4.58000000e-01	1.48192249e-02	1.68211111e-04
4.59000000e-01	1.48064285e-02	1.68286058e-04
4.60000000e-01	1.47244125e-02	1.67891233e-04
4.61000000e-01	1.47741677e-02	1.68153124e-04
4.62000000e-01	1.47293110e-02	1.68610315e-04
4.63000000e-01	1.46754055e-02	1.67472875e-04
4.64000000e-01	1.45632904e-02	1.67108965e-04
4.65000000e-01	1.46922599e-02	1.68276757e-04
4.66000000e-01	1.45794572e-02	1.67243939e-04
4.67000000e-01	1.46762138e-02	1.68859021e-04
4.68000000e-01	1.46758291e-02	1.68474934e-04
4.69000000e-01	1.45130319e-02	1.67303124e-04
4.70000000e-01	1.47710921e-02	1.69521512e-04
4.71000000e-01	1.46937386e-02	1.68066573e-04
4.72000000e-01	1.43601409e-02	1.65968342e-04
4.73000000e-01	1.47786166e-02	1.69566149e-04
4.74000000e-01	1.45322426e-02	1.67170718e-04
4.75000000e-01	1.46052437e-02	1.67635942e-04
4.76000000e-01	1.47002806e-02	1.68942823e-04
4.77000000e-01	1.44821220e-02	1.67585409e-04
4.78000000e-01	1.46064611e-02	1.66690780e-04
4.79000000e-01	1.46858728e-02	1.68270312e-04
4.80000000e-01	1.45600560e-02	1.67601843e-04
4.81000000e-01	1.44866650e-02	1.67010089e-04
4.82000000e-01	1.46066265e-02	1.68348273e-04
4.83000000e-01	1.43259068e-02	1.66426892e-04
4.84000000e-01	1.46294251e-02	1.68625231e-04
4.85000000e-01	1.45124708e-02	1.67673783e-04
4.86000000e-01	1.45649416e-02	1.68098089e-04
4.87000000e-01	1.44385208e-02	1.67372979e-04
4.88000000e-01	1.44962054e-02	1.67878999e-04
4.89000000e-01	1.45278168e-02	1.68013574e-04
4.90000000e-01	1.44835937e-02	1.68084474e-04
4.91000000e-01	1.47153243e-02	1.70842977e-04
4.92000000e-01	1.44258673e-02	1.66915414e-04
4.93000000e-01	1.42049870e-02	1.65463685e-04
4.94000000e-01	1.44634922e-02	1.67562100e-04
4.95000000e-01	1.44886633e-02	1.69747038e-04
4.96000000e-01	1.44447980e-02	1.74160356e-04
4.97000000e-01	1.44575288e-02	1.77568820e-04
4.98000000e-01	1.42013915e-02	1.77165476e-04
4.99000000e-01	1.42001897e-02	1.78888516e-04
5.00000000e-01	1.45748660e-02	1.84764445e-04
5.01000000e-01	1.43688333e-02	1.83775868e-04
5.02000000e-01	1.44855034e-02	1.87761655e-04
5.03000000e-01	1.43392689e-02	1.87712168e-04
5.04000000e-01	1.44713135e-02	1.90490529e-04
5.05000000e-01	1.45530695e-02	1.88210002e-04
5.06000000e-01	1.47608041e-02	1.86364872e-04
5.07000000e-01	1.45086558e-02	1.82761830e-04
5.08000000e-01	1.44724719e-02	1.81994472e-04
5.09000000e-01	1.44862587e-02	1.80988614e-04
5.10000000e-01	1.44763878e-02	1.79411656e-04
5.11000000e-01	1.46164985e-02	1.79880468e-04
5.12000000e-01	1.41767910e-02	1.75621788e-04
5.13000000e-01	1.41436194e-02	1.74716396e-04
5.14000000e-01	1.41965133e-02	1.75002988e-04
5.15000000e-01	1.41766594e-02	1.74338533e-04
5.16000000e-01	1.42287254e-02	1.75246916e-04
5.17000000e-01	1.42641606e-02	1.75087511e-04
5.18000000e-01	1.45695447e-02	1.76586455e-04
5.19000000e-01	1.43536510e-02	1.74993554e-04
5.20000000e-01	1.42381110e-02	1.73751295e-04
5.21000000e-01	1.43741794e-02	1.75611886e-04
5.22000000e-01	1.41564641e-02	1.72114997e-04
5.23000000e-01	1.40851304e-02	1.71664062e-04
5.24000000e-01	1.42394667e-02	1.72961507e-04
5.25000000e-01	1.43451939e-02	1.73469583e-04
5.26000000e-01	1.40144047e-02	1.70070837e-04
5.27000000e-01	1.40245372e-02	1.70246084e-04
5.28000000e-01	1.41336663e-02	1.71839932e-04
5.29000000e-01	1.40990268e-02	1.71600574e-04
5.30000000e-01	1.40670376e-02	1.71057899e-04
5.31000000e-01	1.41589373e-02	1.72422695e-04
5.32000000e-01	1.42422917e-02	1.72447149e-04
5.33000000e-01	1.40870395e-02	1.70604698e-04
5.34000000e-01	1.41228766e-02	1.71312282e-04
5.35000000e-01	1.38899164e-02	1.69301309e-04
5.36000000e-01	1.42215977e-02	1.72866965e-04
5.37000000e-01	1.42005834e-02	1.72205900e-04
5.38000000e-01	1.41236933e-02	1.71430559e-04
5.39000000e-01	1.41580030e-02	1.71343142e-04
5.40000000e-01	1.40664989e-02	1.71258251e-04
5.41000000e-01	1.40365848e-02	1.70642049e-04
5.42000000e-01	1.37826568e-02	1.69350240e-04
5.43000000e-01	1.41371735e-02	1.71837266e-04
5.44000000e-01	1.41762705e-02	1.71818107e-04
5.45000000e-01	1.40292685e-02	1.70420727e-04
5.46000000e-01	1.41363605e-02	1.70908736e-04
5.47000000e-01	1.41157486e-02	1.71762005e-04
5.48000000e-01	1.39676330e-02	1.70899019e-04
5.49000000e-01	1.38394364e-02	1.67591708e-04
5.50000000e-01	1.39407805e-02	1.69579636e-04
5.51000000e-01	1.37985242e-02	1.68393077e-04
5.52000000e-01	1.38460256e-02	1.68728782e-04
5.53000000e-01	1.38654548e-02	1.67956253e-04
5.54000000e-01	1.40201086e-02	1.69368573e-04
5.55000000e-01	1.40555896e-02	1.69310828e-04
5.56000000e-01	1.38994483e-02	1.68280656e-04
5.57000000e-01	1.37192979e-02	1.65993333e-04
5.58000000e-01	1.39684605e-02	1.69463479e-04
5.59000000e-01	1.37534978e-02	1.67200882e-04
5.60000000e-01	1.37378805e-02	1.67046590e-04
5.61000000e-01	1.38602795e-02	1.67482564e-04
5.62000000e-01	1.37753492e-02	1.67753542e-04
5.63000000e-01	1.39743369e-02	1.69469906e-04
5.64000000e-01	1.40705571e-02	1.69305903e-04
5.65000000e-01	1.36541535e-02	1.65946024e-04
5.66000000e-01	1.36869672e-02	1.66017679e-04
5.67000000e-01	1.36884131e-02	1.65891947e-04
5.68000000e-01	1.38287632e-02	1.67727420e-04
5.69000000e-01	1.38626399e-02	1.67456587e-04
5.70000000e-01	1.36997521e-02	1.65943401e-04
5.71000000e-01	1.35966638e-02	1.65175510e-04
5.72000000e-01	1.36870723e-02	1.66775027e-04
5.73000000e-01	1.37854350e-02	1.66073208e-04
5.74000000e-01	1.37339716e-02	1.65639495e-04
5.75000000e-01	1.35126021e-02	1.65035508e-04
5.76000000e-01	1.35610581e-02	1.65410244e-04
5.77000000e-01	1.36831832e-02	1.66750946e-04
5.78000000e-01	1.35338957e-02	1.65425734e-04
5.79000000e-01	1.36483532e-02	1.65134679e-04
5.80000000e-01	1.37440481e-02	1.66763523e-04
5.81000000e-01	1.33859251e-02	1.62578074e-04
5.82000000e-01	1.37368670e-02	1.67222882e-04
5.83000000e-01	1.35975819e-02	1.65400493e-04
5.84000000e-01	1.35062037e-02	1.65051455e-04
5.85000000e-01	1.34269921e-02	1.63792735e-04
5.86000000e-01	1.35523043e-02	1.64974231e-04
5.87000000e-01	1.36900823e-02	1.66493652e-04
5.88000000e-01	1.35127406e-02	1.64589963e-04
5.89000000e-01	1.35591695e-02	1.65485877e-04
5.90000000e-01	1.36102836e-02	1.65449711e-04
5.91000000e-01	1.34465014e-02	1.63987504e-04
5.92000000e-01	1.34040311e-02	1.63729331e-04
5.93000000e-01	1.36666108e-02	1.66291360e-04
5.94000000e-01	1.34780857e-02	1.64714084e-04
5.95000000e-01	1.34571020e-02	1.65222999e-04
5.96000000e-01	1.32289931e-02	1.62672600e-04
5.97000000e-01	1.33493470e-02	1.63279545e-04
5.98000000e-01	1.34496629e-02	1.64633120e-04
5.99000000e-01	1.34746577e-02	1.64612044e-04
6.00000000e-01	1.34611742e-02	1.64320314e-04
6.01000000e-01	1.33684771e-02	1.64954762e-04
6.02000000e-01	1.36209589e-02	1.66210763e-04
6.03000000e-01	1.33576290e-02	1.63701658e-04
6.04000000e-01	1.32814607e-02	1.62292742e-04
6.05000000e-01	1.31944573e-02	1.62463190e-04
6.06000000e-01	1.35011673e-02	1.64531332e-04
6.07000000e-01	1.33427561e-02	1.64416259e-04
6.08000000e-01	1.33390701e-02	1.63820503e-04
6.09000000e-01	1.34308333e-02	1.65301827e-04
6.10000000e-01	1.32073482e-02	1.62970749e-04
6.11000000e-01	1.32582909e-02	1.63130880e-04
6.12000000e-01	1.32253550e-02	1.62828389e-04
6.13000000e-01	1.33708160e-02	1.64209706e-04
6.14000000e-01	1.32843654e-02	1.63721729e-04
6.15000000e-01	1.33318682e-02	1.64008764e-04
6.16000000e-01	1.32542736e-02	1.63072001e-04
6.17000000e-01	1.34319077e-02	1.65525184e-04
6.18000000e-01	1.32165573e-02	1.62945273e-04
6.19000000e-01	1.32977851e-02	1.63481556e-04
6.20000000e-01	1.31820480e-02	1.62190754e-04
6.21000000e-01	1.32934527e-02	1.61887260e-04
6.22000000e-01	1.33484465e-02	1.63817782e-04
6.23000000e-01	1.33072406e-02	1.62757700e-04
6.24000000e-01	1.31428059e-02	1.60802009e-04
6.25000000e-01	1.32747131e-02	1.61466151e-04
6.26000000e-01	1.33290292e-02	1.62232971e-04
6.27000000e-01	1.32972499e-02	1.62446653e-04
6.28000000e-01	1.31748835e-02	1.61054578e-04
6.29000000e-01	1.32235251e-02	1.61281907e-04
6.30000000e-01	1.31825387e-02	1.60815876e-04
6.31000000e-01	1.31742189e-02	1.61467887e-04
6.32000000e-01	1.32969030e-02	1.61928494e-04
6.33000000e-01	1.31997698e-02	1.61821368e-04
6.34000000e-01	1.30272987e-02	1.62520800e-04
6.35000000e-01	1.31640534e-02	1.69424572e-04
6.36000000e-01	1.32955718e-02	1.74238769e-04
6.37000000e-01	1.31021695e-02	1.75545212e-04
6.38000000e-01	1.31365576e-02	1.76568248e-04
6.39000000e-01	1.30751137e-02	1.79163570e-04
6.40000000e-01	1.33588650e-02	1.85042769e-04
6.41000000e-01	1.31175173e-02	1.84547702e-04
6.42000000e-01	1.30241116e-02	1.85439121e-04
6.43000000e-01	1.32617416e-02	1.87637715e-04
6.44000000e-01	1.31148511e-02	1.78613304e-04
6.45000000e-01	1.31700683e-02	1.77466305e-04
6.46000000e-01	1.31539614e-02	1.75462339e-04
6.47000000e-01	1.32183184e-02	1.74811075e-04
6.48000000e-01	1.32997449e-02	1.75260532e-04
6.49000000e-01	1.31171394e-02	1.71242356e-04
6.50000000e-01	1.30508921e-02	1.69662052e-04
6.51000000e-01	1.32618228e-02	1.71448885e-04
6.52000000e-01	1.30827134e-02	1.69215257e-04
6.53000000e-01	1.30801004e-02	1.68746078e-04
6.54000000e-01	1.29093505e-02	1.66127330e-04
6.55000000e-01	1.31978554e-02	1.68848436e-04
6.56000000e-01	1.31889182e-02	1.69442270e-04
6.57000000e-01	1.30967444e-02	1.67437488e-04
6.58000000e-01	1.31816493e-02	1.68438970e-04
6.59000000e-01	1.30862441e-02	1.66210573e-04
6.60000000e-01	1.30221243e-02	1.66742446e-04
6.61000000e-01	1.31514569e-02	1.67229253e-04
6.62000000e-01	1.31183371e-02	1.66870282e-04
6.63000000e-01	1.30925077e-02	1.66987307e-04
6.64000000e-01	1.31175658e-02	1.67460006e-04
6.65000000e-01	1.32454993e-02	1.67589620e-04
6.66000000e-01	1.31574195e-02	1.66971571e-04
6.67000000e-01	1.30477052e-02	1.65166845e-04
6.68000000e-01	1.30165824e-02	1.65240071e-04
6.69000000e-01	1.29266722e-02	1.64277199e-04
6.70000000e-01	1.30340358e-02	1.64876323e-04
6.71000000e-01	1.29562706e-02	1.64231044e-04
6.72000000e-01	1.29729437e-02	1.65068760e-04
6.73000000e-01	1.29198327e-02	1.63303484e-04
6.74000000e-01	1.28567979e-02	1.62809420e-04
6.75000000e-01	1.31167367e-02	1.64448137e-04
6.76000000e-01	1.31576693e-02	1.65975578e-04
6.77000000e-01	1.29770694e-02	1.64747525e-04
6.78000000e-01	1.27243853e-02	1.61828378e-04
6.79000000e-01	1.29111218e-02	1.63251212e-04
6.80000000e-01	1.29256456e-02	1.64051699e-04
6.81000000e-01	1.29517909e-02	1.63499993e-04
6.82000000e-01	1.29094335e-02	1.63022239e-04
6.83000000e-01	1.31318838e-02	1.65262814e-04
6.84000000e-01	1.29386761e-02	1.63247299e-04
6.85000000e-01	1.29822102e-02	1.64446488e-04
6.86000000e-01	1.27222290e-02	1.61536574e-04
6.87000000e-01	1.28612950e-02	1.62051748e-04
6.88000000e-01	1.28312243e-02	1.62141408e-04
6.89000000e-01	1.26776398e-02	1.60739781e-04
6.90000000e-01	1.29303903e-02	1.62859019e-04
6.91000000e-01	1.29335982e-02	1.63869477e-04
6.92000000e-01	1.26139561e-02	1.60615687e-04
6.93000000e-01	1.29419220e-02	1.62318183e-04
6.94000000e-01	1.27562217e-02	1.61755814e-04
6.95000000e-01	1.29240918e-02	1.63421470e-04
6.96000000e-01	1.29404087e-02	1.63918142e-04
6.97000000e-01	1.27259128e-02	1.62207449e-04
6.98000000e-01	1.27787912e-02	1.62078678e-04
6.99000000e-01	1.28456131e-02	1.62581396e-04
7.00000000e-01	1.25848588e-02	1.60365355e-04
7.01000000e-01	1.28987552e-02	1.62946694e-04
7.02000000e-01	1.27349664e-02	1.61292440e-04
7.03000000e-01	1.26784138e-02	1.61005839e-04
7.04000000e-01	1.27086412e-02	1.61443536e-04
7.05000000e-01	1.25265909e-02	1.58122389e-04
7.06000000e-01	1.27005229e-02	1.61265988e-04
7.07000000e-01	1.27377608e-02	1.61269503e-04
7.08000000e-01	1.25549246e-02	1.58310003e-04
7.09000000e-01	1.26299568e-02	1.60179511e-04
7.10000000e-01	1.27506172e-02	1.61370445e-04
7.11000000e-01	1.24770677e-02	1.58324926e-04
7.12000000e-01	1.26133275e-02	1.59904693e-04
7.13000000e-01	1.27586783e-02	1.59891916e-04
7.14000000e-01	1.25238793e-02	1.60227295e-04
7.15000000e-01	1.25061057e-02	1.59767629e-04
7.16000000e-01	1.25281884e-02	1.58061923e-04
7.17000000e-01	1.25164608e-02	1.58726116e-04
7.18000000e-01	1.25741713e-02	1.59862869e-04
7.19000000e-01	1.24015237e-02	1.57032557e-04
7.20000000e-01	1.25703009e-02	1.58366165e-04
7.21000000e-01	1.25453833e-02	1.58718673e-04
7.22000000e-01	1.24422067e-02	1.57851962e-04
7.23000000e-01	1.23143772e-02	1.57102601e-04
7.24000000e-01	1.24200219e-02	1.58552346e-04
7.25000000e-01	1.24796990e-02	1.58083546e-04
7.26000000e-01	1.24712595e-02	1.57472384e-04
7.27000000e-01	1.25164556e-02	1.59727364e-04
7.28000000e-01	1.25038854e-02	1.57689423e-04
7.29000000e-01	1.24515360e-02	1.58188357e-04
7.30000000e-01	1.25478195e-02	1.58744466e-04
7.31000000e-01	1.23257276e-02	1.58089481e-04
7.32000000e-01	1.22689796e-02	1.56377350e-04
7.33000000e-01	1.23565920e-02	1.57166578e-04
7.34000000e-01	1.22960324e-02	1.55965378e-04
7.35000000e-01	1.23430792e-02	1.56503381e-04
7.36000000e-01	1.21629693e-02	1.54847397e-04
7.37000000e-01	1.20715293e-02	1.54906701e-04
7.38000000e-01	1.22470330e-02	1.55207300e-04
7.39000000e-01	1.24755959e-02	1.57536251e-04
7.40000000e-01	1.22929345e-02	1.54809532e-04
7.41000000e-01	1.22786700e-02	1.55080243e-04
7.42000000e-01	1.21715613e-02	1.54218566e-04
7.43000000e-01	1.23104822e-02	1.54637006e-04
7.44000000e-01	1.22464480e-02	1.54369777e-04
7.45000000e-01	1.22880261e-02	1.55613062e-04
7.46000000e-01	1.22848937e-02	1.54871045e-04
7.47000000e-01	1.23599515e-02	1.55947847e-04
7.48000000e-01	1.23524890e-02	1.55826379e-04
7.49000000e-01	1.21609576e-02	1.54517633e-04
7.50000000e-01	1.21476721e-02	1.53048651e-04
7.51000000e-01	1.20960768e-02	1.53151374e-04
7.52000000e-01	1.21807963e-02	1.53910498e-04
7.53000000e-01	1.22342312e-02	1.54145227e-04
7.54000000e-01	1.20312871e-02	1.53229267e-04
7.55000000e-01	1.22968061e-02	1.55346896e-04
7.56000000e-01	1.22400801e-02	1.54281376e-04
7.57000000e-01	1.23738293e-02	1.55470199e-04
7.58000000e-01	1.22278524e-02	1.54124344e-04
7.59000000e-01	1.20282785e-02	1.52545845e-04
7.60000000e-01	1.20610345e-02	1.52000876e-04
7.61000000e-01	1.20094384e-02	1.52076170e-04
7.62000000e-01	1.20812428e-02	1.52134901e-04
7.63000000e-01	1.20347357e-02	1.51444973e-04
7.64000000e-01	1.19271615e-02	1.49430755e-04
7.65000000e-01	1.20487053e-02	1.52320122e-04
7.66000000e-01	1.19462409e-02	1.50383233e-04
7.67000000e-01	1.22396911e-02	1.53149980e-04
7.68000000e-01	1.20321191e-02	1.51327510e-04
7.69000000e-01	1.20534722e-02	1.51441042e-04
7.70000000e-01	1.19858024e-02	1.50417433e-04
7.71000000e-01	1.18821893e-02	1.50818188e-04
7.72000000e-01	1.18909315e-02	1.54853662e-04
7.73000000e-01	1.19864294e-02	1.59911216e-04
7.74000000e-01	1.18634310e-02	1.61774691e-04
7.75000000e-01	1.17384596e-02	1.63817462e-04
7.76000000e-01	1.19577859e-02	1.69457736e-04
7.77000000e-01	1.18750600e-02	1.69214601e-04
7.78000000e-01	1.18298409e-02	1.70766670e-04
7.79000000e-01	1.20099130e-02	1.75768351e-04
7.80000000e-01	1.18546609e-02	1.76354672e-04
7.81000000e-01	1.19394241e-02	1.79735393e-04
7.82000000e-01	1.17116117e-02	1.79081944e-04
7.83000000e-01	1.15568012e-02	1.78897748e-04
7.84000000e-01	1.17882521e-02	1.83223349e-04
7.85000000e-01	1.19534712e-02	1.86725996e-04
7.86000000e-01	1.15933457e-02	1.83564585e-04
7.87000000e-01	1.17531055e-02	1.88677568e-04
7.88000000e-01	1.15340980e-02	1.89844801e-04
7.89000000e-01	1.18205948e-02	1.93649435e-04
7.90000000e-01	1.16051837e-02	1.91490546e-04
7.91000000e-01	1.17634673e-02	1.96914149e-04
7.92000000e-01	1.15056405e-02	1.95886838e-04
7.93000000e-01	1.18290351e-02	2.00422955e-04
7.94000000e-01	1.21428449e-02	2.07353951e-04
7.95000000e-01	1.15919791e-02	2.01063720e-04
7.96000000e-01	1.14439355e-02	2.03720527e-04
7.97000000e-01	1.16474574e-02	2.07088279e-04
7.98000000e-01	1.18591048e-02	2.11712263e-04
7.99000000e-01	1.16678309e-02	2.12684377e-04
8.00000000e-01	1.14636216e-02	2.08593839e-04
8.01000000e-01	1.15939572e-02	2.16746905e-04
8.02000000e-01	1.14347833e-02	2.13989258e-04
8.03000000e-01	1.16519024e-02	2.20313972e-04
8.04000000e-01	1.16096091e-02	2.20440513e-04
8.05000000e-01	1.16111851e-02	2.23059909e-04
8.06000000e-01	1.14589649e-02	2.25612928e-04
8.07000000e-01	1.14539974e-02	2.27671585e-04
8.08000000e-01	1.14440754e-02	2.29929090e-04
8.09000000e-01	1.17060627e-02	2.34580599e-04
8.10000000e-01	1.15581947e-02	2.36347590e-04
8.11000000e-01	1.13381408e-02	2.35450708e-04
8.12000000e-01	1.15748382e-02	2.40392869e-04
8.13000000e-01	1.12845600e-02	2.39777927e-04
8.14000000e-01	1.15618056e-02	2.46219499e-04
8.15000000e-01	1.12639594e-02	2.45983563e-04
8.16000000e-01	1.11787857e-02	2.45673536e-04
8.17000000e-01	1.13637565e-02	2.53316483e-04
8.18000000e-01	1.13108250e-02	2.54295716e-04
8.19000000e-01	1.12117611e-02	2.53936350e-04
8.20000000e-01	1.11554777e-02	2.58023765e-04
8.21000000e-01	1.13124830e-02	2.64060662e-04
8.22000000e-01	1.09194700e-02	2.62448459e-04
8.23000000e-01	1.13426907e-02	2.72399017e-04
8.24000000e-01	1.11833278e-02	2.73738713e-04
8.25000000e-01	1.09373759e-02	2.73079704e-04
8.26000000e-01	1.15930560e-02	2.89340404e-04
8.27000000e-01	1.14114383e-02	2.91366218e-04
8.28000000e-01	1.12920067e-02	2.90090967e-04
8.29000000e-01	1.09422685e-02	2.90959270e-04
8.30000000e-01	1.10936825e-02	2.95556847e-04
8.31000000e-01	1.13834473e-02	3.06660301e-04
8.32000000e-01	1.14227704e-02	3.10491549e-04
8.33000000e-01	1.11060761e-02	3.13368997e-04
8.34000000e-01	1.05465395e-02	3.02391602e-04
8.35000000e-01	1.14612664e-02	3.28885546e-04
8.36000000e-01	1.13074650e-02	3.29174926e-04
8.37000000e-01	1.09547948e-02	3.28381661e-04
8.38000000e-01	1.09643580e-02	3.42015987e-04
8.39000000e-01	1.08052326e-02	3.43335545e-04
8.40000000e-01	1.06478283e-02	3.46492387e-04
8.41000000e-01	1.05443085e-02	3.51724185e-04
8.42000000e-01	1.09058389e-02	3.71693489e-04
8.43000000e-01	1.09733866e-02	3.79799985e-04
8.44000000e-01	1.10085380e-02	3.89816869e-04
8.45000000e-01	1.05627236e-02	3.87246494e-04
8.46000000e-01	1.07758627e-02	4.03145999e-04
8.47000000e-01	1.10261920e-02	4.17641283e-04
8.48000000e-01	1.11618488e-02	4.38801789e-04
8.49000000e-01	1.05960961e-02	4.33028593e-04
8.50000000e-01	1.08472024e-02	4.62954950e-04
8.51000000e-01	1.15648597e-02	4.92652957e-04
8.52000000e-01	1.06608933e-02	4.73118619e-04
8.53000000e-01	1.05584332e-02	5.07876307e-04
8.54000000e-01	1.06789772e-02	5.41405693e-04
8.55000000e-01	1.08372831e-02	5.56207393e-04
8.56000000e-01	1.03328736e-02	5.52654101e-04
8.57000000e-01	1.03022287e-02	5.67699867e-04
8.58000000e-01	1.10759738e-02	6.16631859e-04
8.59000000e-01	1.01935456e-02	6.01888944e-04
8.60000000e-01	1.08804340e-02	6.46492691e-04
8.61000000e-01	1.05342489e-02	6.50454401e-04
8.62000000e-01	1.05512896e-02	6.77944298e-04
8.63000000e-01	9.78217587e-03	6.63291207e-04
8.64000000e-01	1.09924825e-02	7.60579224e-04
8.65000000e-01	1.09589546e-02	8.21965782e-04
8.66000000e-01	1.10120076e-02	8.47135311e-04
8.67000000e-01	9.79522062e-03	8.31273867e-04
8.68000000e-01	9.75545843e-03	8.85438249e-04
8.69000000e-01	1.16884384e-02	1.07694713e-03
8.70000000e-01	9.33023376e-03	9.79904921e-04
8.71000000e-01	1.03109548e-02	1.16711764e-03
8.72000000e-01	8.97782322e-03	1.18523447e-03
8.73000000e-01	8.69173400e-03	1.40881449e-03
8.74000000e-01	1.15277310e-02	2.19435254e-03
8.75000000e-01	1.48220401e-02	5.18661979e-03
