% Filename : SDL13_00034_00004.h5
% Date & Time : 30-Oct-2025 17:28:36
% X-ray Energy (keV) : 13.30001
% Exposure Time (s) : 0.500
% Beam Center : 1461.24000, 208.98300
% Sample to Detector Distance (SDD) (mm) : 1990.750
% Detector Pixel Size (mm) : 0.075
% Photodiode Value : 141100.000
% I0 of Sample : 0
% I0 of Standard : 1
% 
% q(A^-1)   I(q)    I(q)_SE
0.00000000e+00	1.28041943e-02	6.52888606e-03
2.50000000e-04	0.00000000e+00	0.00000000e+00
5.00000000e-04	0.00000000e+00	0.00000000e+00
7.50000000e-04	0.00000000e+00	0.00000000e+00
1.00000000e-03	0.00000000e+00	0.00000000e+00
1.25000000e-03	0.00000000e+00	0.00000000e+00
1.50000000e-03	0.00000000e+00	0.00000000e+00
1.75000000e-03	0.00000000e+00	0.00000000e+00
2.00000000e-03	0.00000000e+00	0.00000000e+00
2.25000000e-03	0.00000000e+00	0.00000000e+00
2.50000000e-03	0.00000000e+00	0.00000000e+00
2.75000000e-03	0.00000000e+00	0.00000000e+00
3.00000000e-03	0.00000000e+00	0.00000000e+00
3.25000000e-03	2.78357531e+02	1.74471141e+02
3.50000000e-03	6.46667893e+01	3.70201277e+01
3.75000000e-03	2.76842934e+01	1.39397848e+01
4.00000000e-03	3.07489356e+01	1.42894375e+01
4.25000000e-03	1.66769579e+01	9.48242049e+00
4.50000000e-03	1.45465700e+01	5.06261364e+00
4.75000000e-03	1.52901128e+01	4.41798350e+00
5.00000000e-03	1.20094281e+01	3.36078638e+00
5.25000000e-03	9.88803961e+00	2.68399295e+00
5.50000000e-03	7.60923171e+00	1.95438955e+00
5.75000000e-03	7.89917988e+00	2.13052592e+00
6.00000000e-03	5.49989264e+00	1.42346480e+00
6.25000000e-03	5.00306625e+00	1.27951160e+00
6.50000000e-03	4.15237026e+00	1.08531006e+00
6.75000000e-03	3.45065139e+00	8.50281093e-01
7.00000000e-03	2.82780916e+00	6.76428158e-01
7.25000000e-03	2.54477772e+00	5.91687603e-01
7.50000000e-03	2.33635539e+00	5.53828963e-01
7.75000000e-03	1.97469014e+00	4.49141072e-01
8.00000000e-03	1.95110489e+00	4.39832967e-01
8.25000000e-03	1.47464291e+00	3.33437698e-01
8.50000000e-03	1.36859547e+00	2.97719979e-01
8.75000000e-03	1.25776618e+00	2.89334682e-01
9.00000000e-03	1.12076447e+00	2.37270397e-01
9.25000000e-03	8.86757379e-01	1.82254799e-01
9.50000000e-03	8.53483001e-01	1.73826736e-01
9.75000000e-03	7.56821250e-01	1.47077411e-01
1.00000000e-02	6.90215559e-01	1.45322270e-01
1.02500000e-02	6.93621266e-01	1.40191984e-01
1.05000000e-02	6.05234252e-01	1.23427921e-01
1.07500000e-02	5.53905736e-01	1.11581502e-01
1.10000000e-02	4.71580729e-01	9.12849653e-02
1.12500000e-02	4.49496902e-01	8.58445420e-02
1.15000000e-02	4.14577606e-01	7.57816474e-02
1.17500000e-02	3.58392183e-01	6.67394770e-02
1.20000000e-02	3.33923331e-01	5.96209293e-02
1.22500000e-02	3.30247139e-01	6.08956594e-02
1.25000000e-02	3.11230238e-01	5.69146296e-02
1.27500000e-02	2.72771029e-01	4.69158908e-02
1.30000000e-02	2.74395282e-01	5.02168505e-02
1.32500000e-02	2.27170418e-01	3.55435937e-02
1.35000000e-02	2.23779789e-01	3.69679184e-02
1.37500000e-02	1.96777291e-01	3.02803287e-02
1.40000000e-02	1.85235424e-01	2.85555728e-02
1.42500000e-02	1.88145972e-01	2.97522246e-02
1.45000000e-02	1.73987805e-01	2.62636124e-02
1.47500000e-02	1.62126437e-01	2.38883876e-02
1.50000000e-02	1.45243534e-01	2.08083066e-02
1.52500000e-02	1.36844823e-01	1.96807465e-02
1.55000000e-02	1.23528607e-01	1.65865559e-02
1.57500000e-02	1.23066859e-01	1.69667161e-02
1.60000000e-02	1.15604861e-01	1.55798218e-02
1.62500000e-02	1.09088608e-01	1.40473226e-02
1.65000000e-02	1.05472093e-01	1.38258781e-02
1.67500000e-02	9.93070168e-02	1.24881955e-02
1.70000000e-02	9.80836711e-02	1.21794690e-02
1.72500000e-02	9.50104740e-02	1.15592869e-02
1.75000000e-02	8.53469552e-02	1.00122471e-02
1.77500000e-02	7.88058812e-02	8.82096201e-03
1.80000000e-02	8.07854893e-02	8.86579643e-03
1.82500000e-02	7.55025147e-02	8.05795762e-03
1.85000000e-02	7.54398424e-02	8.45420284e-03
1.87500000e-02	6.89329410e-02	7.29211388e-03
1.90000000e-02	6.87829337e-02	7.08738411e-03
1.92500000e-02	6.56830288e-02	6.74354119e-03
1.95000000e-02	6.05630794e-02	6.17735816e-03
1.97500000e-02	6.12756564e-02	6.10117809e-03
2.00000000e-02	5.57211874e-02	5.37677246e-03
2.02500000e-02	5.42558235e-02	5.08747432e-03
2.05000000e-02	5.31191866e-02	4.53473734e-03
2.07500000e-02	5.29660355e-02	4.86535172e-03
2.10000000e-02	5.19948566e-02	4.52681541e-03
2.12500000e-02	5.12884966e-02	4.47792268e-03
2.15000000e-02	4.94719341e-02	4.07740462e-03
2.17500000e-02	4.84843432e-02	3.90571062e-03
2.20000000e-02	4.79634216e-02	3.95505702e-03
2.22500000e-02	4.64276449e-02	3.71277540e-03
2.25000000e-02	4.72830102e-02	3.83873525e-03
2.27500000e-02	4.45599282e-02	3.47341977e-03
2.30000000e-02	4.35916832e-02	3.31918078e-03
2.32500000e-02	4.26600943e-02	3.28128730e-03
2.35000000e-02	4.32686292e-02	3.23461883e-03
2.37500000e-02	4.24226683e-02	3.18832190e-03
2.40000000e-02	4.07650530e-02	2.99899649e-03
2.42500000e-02	4.15389143e-02	3.03344895e-03
2.45000000e-02	4.02589312e-02	2.92024906e-03
2.47500000e-02	3.87569995e-02	2.72942342e-03
2.50000000e-02	3.77003779e-02	2.59922993e-03
2.52500000e-02	3.85558138e-02	2.70230693e-03
2.55000000e-02	3.77927179e-02	2.66368244e-03
2.57500000e-02	3.74452230e-02	2.57891419e-03
2.60000000e-02	3.67468319e-02	2.35783382e-03
2.62500000e-02	3.59624583e-02	2.34655028e-03
2.65000000e-02	3.56669476e-02	2.26896561e-03
2.67500000e-02	3.44934505e-02	2.10600633e-03
2.70000000e-02	3.34248524e-02	2.09571917e-03
2.72500000e-02	3.42872276e-02	2.05153504e-03
2.75000000e-02	3.31087269e-02	2.00482261e-03
2.77500000e-02	3.41762736e-02	2.08168489e-03
2.80000000e-02	3.26943376e-02	1.90951177e-03
2.82500000e-02	3.26139595e-02	1.93909877e-03
2.85000000e-02	3.31457834e-02	1.90461983e-03
2.87500000e-02	3.26067604e-02	1.89284939e-03
2.90000000e-02	3.22397564e-02	1.83433432e-03
2.92500000e-02	3.15520897e-02	1.71600411e-03
2.95000000e-02	3.21479869e-02	1.82863303e-03
2.97500000e-02	3.10204687e-02	1.66511682e-03
3.00000000e-02	3.14113455e-02	1.68658354e-03
3.02500000e-02	3.07394930e-02	1.66473093e-03
3.05000000e-02	3.04355975e-02	1.60810657e-03
3.07500000e-02	3.03007278e-02	1.55651164e-03
3.10000000e-02	3.04552527e-02	1.62324104e-03
3.12500000e-02	3.06698526e-02	1.61299365e-03
3.15000000e-02	2.97149448e-02	1.51840102e-03
3.17500000e-02	2.90039776e-02	1.47613335e-03
3.20000000e-02	2.99695840e-02	1.53587257e-03
3.22500000e-02	2.85840033e-02	1.46001059e-03
3.25000000e-02	2.79740494e-02	1.39139637e-03
3.27500000e-02	2.79050012e-02	1.39462449e-03
3.30000000e-02	2.83571416e-02	1.42636693e-03
3.32500000e-02	2.76286297e-02	1.36607451e-03
3.35000000e-02	2.78778256e-02	1.40657796e-03
3.37500000e-02	2.78107127e-02	1.34659942e-03
3.40000000e-02	2.67822471e-02	1.33064802e-03
3.42500000e-02	2.77866827e-02	1.34933471e-03
3.45000000e-02	2.65827948e-02	1.30834572e-03
3.47500000e-02	2.68622325e-02	1.30871164e-03
3.50000000e-02	2.70054409e-02	1.27898316e-03
3.52500000e-02	2.67908597e-02	1.28640072e-03
3.55000000e-02	2.58902081e-02	1.22574588e-03
3.57500000e-02	2.66233781e-02	1.28608124e-03
3.60000000e-02	2.65592311e-02	1.23879996e-03
3.62500000e-02	2.61779066e-02	1.22550815e-03
3.65000000e-02	2.52825853e-02	1.19594958e-03
3.67500000e-02	2.58529404e-02	1.22023484e-03
3.70000000e-02	2.53270087e-02	1.18091100e-03
3.72500000e-02	2.51788786e-02	1.16732051e-03
3.75000000e-02	2.50738620e-02	1.14642658e-03
3.77500000e-02	2.52175370e-02	1.15823004e-03
3.80000000e-02	2.53441908e-02	1.15908249e-03
3.82500000e-02	2.46677229e-02	1.11330239e-03
3.85000000e-02	2.44842643e-02	1.12877226e-03
3.87500000e-02	2.43786655e-02	1.09703782e-03
3.90000000e-02	2.52631539e-02	1.14956055e-03
3.92500000e-02	2.38062728e-02	1.07143219e-03
3.95000000e-02	2.46701512e-02	1.11520579e-03
3.97500000e-02	2.43111620e-02	1.08864156e-03
4.00000000e-02	2.44170754e-02	1.08285847e-03
4.02500000e-02	2.38373028e-02	1.05871689e-03
4.05000000e-02	2.46327047e-02	1.08929964e-03
4.07500000e-02	2.44178377e-02	1.07442574e-03
4.10000000e-02	2.29733248e-02	1.02536184e-03
4.12500000e-02	2.45730609e-02	1.08392067e-03
4.15000000e-02	2.43033915e-02	1.05754644e-03
4.17500000e-02	2.33706868e-02	1.02204312e-03
4.20000000e-02	2.37784470e-02	1.02422574e-03
4.22500000e-02	2.31606365e-02	1.00362386e-03
4.25000000e-02	2.41231665e-02	1.04902406e-03
4.27500000e-02	2.44186461e-02	1.05341725e-03
4.30000000e-02	2.26720865e-02	9.82781075e-04
4.32500000e-02	2.35473058e-02	9.99558434e-04
4.35000000e-02	2.33917030e-02	9.99328433e-04
4.37500000e-02	2.35574095e-02	9.99246830e-04
4.40000000e-02	2.28950752e-02	9.74009844e-04
4.42500000e-02	2.26686963e-02	9.54362571e-04
4.45000000e-02	2.26055133e-02	9.53474247e-04
4.47500000e-02	2.27501328e-02	9.54141409e-04
4.50000000e-02	2.29762080e-02	9.68046731e-04
4.52500000e-02	2.19732182e-02	9.23091652e-04
4.55000000e-02	2.30291357e-02	9.71858012e-04
4.57500000e-02	2.29968509e-02	9.60326618e-04
4.60000000e-02	2.30137067e-02	9.60756052e-04
4.62500000e-02	2.30789492e-02	9.55087003e-04
4.65000000e-02	2.30843307e-02	9.48266631e-04
4.67500000e-02	2.27351678e-02	9.37387162e-04
4.70000000e-02	2.26034194e-02	9.29419444e-04
4.72500000e-02	2.30291836e-02	9.49322987e-04
4.75000000e-02	2.21695173e-02	9.18081365e-04
4.77500000e-02	2.20984898e-02	9.13190292e-04
4.80000000e-02	2.21480126e-02	8.99980614e-04
4.82500000e-02	2.22220340e-02	8.98766003e-04
4.85000000e-02	2.26749465e-02	9.34783003e-04
4.87500000e-02	2.23085104e-02	9.07846966e-04
4.90000000e-02	2.20569316e-02	9.00744831e-04
4.92500000e-02	2.29316555e-02	9.27317808e-04
4.95000000e-02	2.18570708e-02	8.75314799e-04
4.97500000e-02	2.27848335e-02	9.16958258e-04
5.00000000e-02	2.19695363e-02	8.79578089e-04
5.02500000e-02	2.18265667e-02	8.66772913e-04
5.05000000e-02	2.16840839e-02	8.58867048e-04
5.07500000e-02	2.17144607e-02	8.70272723e-04
5.10000000e-02	2.18057613e-02	8.72809728e-04
5.12500000e-02	2.18578372e-02	8.71950955e-04
5.15000000e-02	2.21149315e-02	8.68093948e-04
5.17500000e-02	2.20613328e-02	8.74825397e-04
5.20000000e-02	2.14785608e-02	8.44907328e-04
5.22500000e-02	2.22083541e-02	8.80366885e-04
5.25000000e-02	2.16993818e-02	8.46208542e-04
5.27500000e-02	2.19476885e-02	8.58475078e-04
5.30000000e-02	2.13328215e-02	8.44709544e-04
5.32500000e-02	2.16044936e-02	8.48248389e-04
5.35000000e-02	2.22863688e-02	8.76521984e-04
5.37500000e-02	2.11259275e-02	8.25515363e-04
5.40000000e-02	2.12310066e-02	8.24970744e-04
5.42500000e-02	2.09954549e-02	8.15271048e-04
5.45000000e-02	2.22564551e-02	8.64178524e-04
5.47500000e-02	2.16255831e-02	8.42071964e-04
5.50000000e-02	2.16335765e-02	8.31133646e-04
5.52500000e-02	2.15859313e-02	8.32843841e-04
5.55000000e-02	2.12960668e-02	8.13763046e-04
5.57500000e-02	2.13555665e-02	8.23232748e-04
5.60000000e-02	2.09703174e-02	8.06132149e-04
5.62500000e-02	2.09333958e-02	8.05553676e-04
5.65000000e-02	2.15616689e-02	8.16994981e-04
5.67500000e-02	2.18168319e-02	8.31397401e-04
5.70000000e-02	2.12410384e-02	8.16295667e-04
5.72500000e-02	2.13911664e-02	8.13476211e-04
5.75000000e-02	2.10498974e-02	8.03558621e-04
5.77500000e-02	2.08170074e-02	7.86509310e-04
5.80000000e-02	2.05358938e-02	7.88756993e-04
5.82500000e-02	2.14094161e-02	7.99536995e-04
5.85000000e-02	2.11506383e-02	7.99048194e-04
5.87500000e-02	2.10114377e-02	7.90057941e-04
5.90000000e-02	2.06570750e-02	7.75070981e-04
5.92500000e-02	2.14954506e-02	8.02866610e-04
5.95000000e-02	2.06911648e-02	7.73626767e-04
5.97500000e-02	2.07462822e-02	7.82031467e-04
6.00000000e-02	2.11945052e-02	7.88403543e-04
6.02500000e-02	2.13282718e-02	7.91044506e-04
6.05000000e-02	2.10950416e-02	7.83956083e-04
6.07500000e-02	2.01589777e-02	7.57637008e-04
6.10000000e-02	2.03948563e-02	7.55917752e-04
6.12500000e-02	2.04968405e-02	7.56497332e-04
6.15000000e-02	2.10038347e-02	7.72184391e-04
6.17500000e-02	2.12008686e-02	7.83281749e-04
6.20000000e-02	2.12281197e-02	7.78516170e-04
6.22500000e-02	2.04315477e-02	7.51244657e-04
6.25000000e-02	2.07718113e-02	7.65589335e-04
6.27500000e-02	2.06905639e-02	7.56268659e-04
6.30000000e-02	2.10622090e-02	7.69034083e-04
6.32500000e-02	2.09658856e-02	7.66235756e-04
6.35000000e-02	2.07715099e-02	7.55816532e-04
6.37500000e-02	2.13245501e-02	7.78643932e-04
6.40000000e-02	2.04804348e-02	7.44857866e-04
6.42500000e-02	2.08680837e-02	7.55901057e-04
6.45000000e-02	2.08604428e-02	7.52511090e-04
6.47500000e-02	2.05763308e-02	7.43872096e-04
6.50000000e-02	2.08256256e-02	7.53418204e-04
6.52500000e-02	2.02247558e-02	7.22340444e-04
6.55000000e-02	2.09611670e-02	7.54321448e-04
6.57500000e-02	2.12334276e-02	7.57705762e-04
6.60000000e-02	2.03465875e-02	7.24923529e-04
6.62500000e-02	2.06908284e-02	7.39158158e-04
6.65000000e-02	2.08617277e-02	7.46895750e-04
6.67500000e-02	2.04484397e-02	7.21536001e-04
6.70000000e-02	2.06894165e-02	7.38252956e-04
6.72500000e-02	2.02922803e-02	7.27013403e-04
6.75000000e-02	2.03277235e-02	7.19173783e-04
6.77500000e-02	2.04418959e-02	7.25585119e-04
6.80000000e-02	2.11550102e-02	7.48354031e-04
6.82500000e-02	2.08996180e-02	7.38851372e-04
6.85000000e-02	2.00621393e-02	7.09871434e-04
6.87500000e-02	2.03840243e-02	7.19343842e-04
6.90000000e-02	2.06980786e-02	7.25121242e-04
6.92500000e-02	2.09147357e-02	7.31677735e-04
6.95000000e-02	2.04596697e-02	7.26873763e-04
6.97500000e-02	2.10849272e-02	7.41535568e-04
7.00000000e-02	2.05436556e-02	7.14705915e-04
7.02500000e-02	2.08573025e-02	7.26206508e-04
7.05000000e-02	2.07077370e-02	7.18191071e-04
7.07500000e-02	1.95876269e-02	6.95849791e-04
7.10000000e-02	2.05752565e-02	7.18531797e-04
7.12500000e-02	2.03389674e-02	7.08439476e-04
7.15000000e-02	2.04600083e-02	7.05915527e-04
7.17500000e-02	2.07502932e-02	7.17833679e-04
7.20000000e-02	2.06471536e-02	7.19606472e-04
7.22500000e-02	2.07131506e-02	7.13836700e-04
7.25000000e-02	1.99194185e-02	6.87446965e-04
7.27500000e-02	2.05393714e-02	7.07239453e-04
7.30000000e-02	2.03851964e-02	6.95127538e-04
7.32500000e-02	2.06699368e-02	7.06198718e-04
7.35000000e-02	2.02698075e-02	6.95191959e-04
7.37500000e-02	2.03500096e-02	6.98838081e-04
7.40000000e-02	2.02249418e-02	6.84917050e-04
7.42500000e-02	2.00938974e-02	6.87738696e-04
7.45000000e-02	2.05538339e-02	7.00947200e-04
7.47500000e-02	2.07304637e-02	7.08987999e-04
7.50000000e-02	2.03694347e-02	6.95899548e-04
7.52500000e-02	2.00599218e-02	6.82850103e-04
7.55000000e-02	2.04894819e-02	6.89385940e-04
7.57500000e-02	2.01787836e-02	6.78706871e-04
7.60000000e-02	2.07335355e-02	7.05402590e-04
7.62500000e-02	2.00089350e-02	6.77726576e-04
7.65000000e-02	2.06023063e-02	6.91021381e-04
7.67500000e-02	2.06261621e-02	6.95185664e-04
7.70000000e-02	2.06203392e-02	6.88600301e-04
7.72500000e-02	2.05438521e-02	6.99765195e-04
7.75000000e-02	2.04206040e-02	7.05113470e-04
7.77500000e-02	2.08890087e-02	7.27830904e-04
7.80000000e-02	2.04720982e-02	7.12821606e-04
7.82500000e-02	2.05779541e-02	7.18791893e-04
7.85000000e-02	2.02270554e-02	7.08416456e-04
7.87500000e-02	2.03582470e-02	7.21218562e-04
7.90000000e-02	2.03644147e-02	7.18971174e-04
7.92500000e-02	2.06935229e-02	7.39600844e-04
7.95000000e-02	2.02766509e-02	7.26719745e-04
7.97500000e-02	2.00799858e-02	7.23589247e-04
8.00000000e-02	2.03292482e-02	7.29898584e-04
8.02500000e-02	2.05281950e-02	7.35555409e-04
8.05000000e-02	2.00695046e-02	7.15302135e-04
8.07500000e-02	2.06481306e-02	7.44466393e-04
8.10000000e-02	2.01076875e-02	7.23822725e-04
8.12500000e-02	2.04537818e-02	7.36038605e-04
8.15000000e-02	2.03983685e-02	7.37191897e-04
8.17500000e-02	2.04377208e-02	7.41387605e-04
8.20000000e-02	2.00883311e-02	7.31066498e-04
8.22500000e-02	1.98396407e-02	7.25990026e-04
8.25000000e-02	1.98924154e-02	7.23516978e-04
8.27500000e-02	2.00991006e-02	7.32834762e-04
8.30000000e-02	2.01276178e-02	7.37958204e-04
8.32500000e-02	1.95098779e-02	7.16838382e-04
8.35000000e-02	2.00595016e-02	7.40590079e-04
8.37500000e-02	2.00094318e-02	7.35099354e-04
8.40000000e-02	1.98916636e-02	7.29173845e-04
8.42500000e-02	1.98202764e-02	7.33521056e-04
8.45000000e-02	2.00976906e-02	7.45210998e-04
8.47500000e-02	1.98628870e-02	7.37363494e-04
8.50000000e-02	1.99022014e-02	7.32410730e-04
8.52500000e-02	2.00108605e-02	7.43733023e-04
8.55000000e-02	2.02658868e-02	7.50082999e-04
8.57500000e-02	2.00768869e-02	7.44380723e-04
8.60000000e-02	2.03417417e-02	7.51504124e-04
8.62500000e-02	2.01036158e-02	7.46709086e-04
8.65000000e-02	2.07328800e-02	7.63235882e-04
8.67500000e-02	1.98860019e-02	7.36096369e-04
8.70000000e-02	1.97132000e-02	7.19725975e-04
8.72500000e-02	2.01312541e-02	7.17691426e-04
8.75000000e-02	2.02132900e-02	7.14491725e-04
8.77500000e-02	2.06647921e-02	7.17960270e-04
8.80000000e-02	2.03051584e-02	7.16594946e-04
8.82500000e-02	1.97384655e-02	6.93620449e-04
8.85000000e-02	2.01200562e-02	7.06779143e-04
8.87500000e-02	1.98886978e-02	6.81655967e-04
8.90000000e-02	2.02229427e-02	6.95522955e-04
8.92500000e-02	2.05854087e-02	7.04518177e-04
8.95000000e-02	2.01013999e-02	6.91160314e-04
8.97500000e-02	2.03457261e-02	6.91698999e-04
9.00000000e-02	1.96245674e-02	6.66600479e-04
9.02500000e-02	2.04446241e-02	6.91503769e-04
9.05000000e-02	2.03981059e-02	6.83499980e-04
9.07500000e-02	1.97182281e-02	6.71060717e-04
9.10000000e-02	2.00506791e-02	6.72886719e-04
9.12500000e-02	1.97000422e-02	6.62959922e-04
9.15000000e-02	2.03558426e-02	6.78362487e-04
9.17500000e-02	2.02222212e-02	6.73645663e-04
9.20000000e-02	2.03436382e-02	6.76373784e-04
9.22500000e-02	1.96603970e-02	6.54078289e-04
9.25000000e-02	2.04395148e-02	6.73891836e-04
9.27500000e-02	2.01985380e-02	6.73689065e-04
9.30000000e-02	1.96679329e-02	6.51742080e-04
9.32500000e-02	1.98337982e-02	6.59383944e-04
9.35000000e-02	1.99528698e-02	6.56770783e-04
9.37500000e-02	2.00347036e-02	6.57313434e-04
9.40000000e-02	1.96063097e-02	6.46633783e-04
9.42500000e-02	2.00429216e-02	6.54577367e-04
9.45000000e-02	1.99576276e-02	6.55066772e-04
9.47500000e-02	1.96889046e-02	6.43405296e-04
9.50000000e-02	2.02242769e-02	6.61468866e-04
9.52500000e-02	1.99072363e-02	6.48488765e-04
9.55000000e-02	1.97316118e-02	6.41479852e-04
9.57500000e-02	1.97266014e-02	6.44343676e-04
9.60000000e-02	1.98873063e-02	6.50332834e-04
9.62500000e-02	1.99916252e-02	6.48694675e-04
9.65000000e-02	2.02737133e-02	6.51076442e-04
9.67500000e-02	2.03377395e-02	6.50785135e-04
9.70000000e-02	1.99792342e-02	6.42448030e-04
9.72500000e-02	2.00859753e-02	6.46408903e-04
9.75000000e-02	1.96131207e-02	6.28984863e-04
9.77500000e-02	2.03505134e-02	6.44905000e-04
9.80000000e-02	1.99875048e-02	6.35588641e-04
9.82500000e-02	2.01016183e-02	6.41926417e-04
9.85000000e-02	2.04837552e-02	6.45727966e-04
9.87500000e-02	1.99834850e-02	6.34309980e-04
9.90000000e-02	1.99313107e-02	6.33201561e-04
9.92500000e-02	2.02133456e-02	6.42192835e-04
9.95000000e-02	2.03508808e-02	6.46018715e-04
9.97500000e-02	1.99118770e-02	6.31492948e-04
1.00000000e-01	1.98503400e-02	5.10864413e-04
1.00500000e-01	1.94943211e-02	4.37473880e-04
1.01000000e-01	1.96435021e-02	4.36811414e-04
1.01500000e-01	1.97860531e-02	4.38039711e-04
1.02000000e-01	1.95870272e-02	4.31681532e-04
1.02500000e-01	1.98438181e-02	4.35719860e-04
1.03000000e-01	1.98877748e-02	4.36172913e-04
1.03500000e-01	1.94481808e-02	4.27340462e-04
1.04000000e-01	1.94967713e-02	4.26209654e-04
1.04500000e-01	1.98159317e-02	4.32365361e-04
1.05000000e-01	1.96873504e-02	4.25098803e-04
1.05500000e-01	1.95776298e-02	4.24705160e-04
1.06000000e-01	1.99137144e-02	4.28453052e-04
1.06500000e-01	1.97925012e-02	4.24917286e-04
1.07000000e-01	1.98230580e-02	4.31730951e-04
1.07500000e-01	1.98768291e-02	4.41801817e-04
1.08000000e-01	1.95652888e-02	4.37908707e-04
1.08500000e-01	1.96104037e-02	4.44259238e-04
1.09000000e-01	1.98376182e-02	4.49710571e-04
1.09500000e-01	1.96043289e-02	4.45534098e-04
1.10000000e-01	2.00981652e-02	4.53046969e-04
1.10500000e-01	1.98917769e-02	4.38227718e-04
1.11000000e-01	1.96260933e-02	4.26929739e-04
1.11500000e-01	1.98865575e-02	4.28942223e-04
1.12000000e-01	1.99449066e-02	4.25737702e-04
1.12500000e-01	1.98072663e-02	4.18992853e-04
1.13000000e-01	1.98130878e-02	4.20758561e-04
1.13500000e-01	1.97308674e-02	4.17770774e-04
1.14000000e-01	1.98337970e-02	4.15614652e-04
1.14500000e-01	1.99167317e-02	4.17640661e-04
1.15000000e-01	1.95848205e-02	4.09104701e-04
1.15500000e-01	1.94975566e-02	4.08098049e-04
1.16000000e-01	2.00577238e-02	4.15523945e-04
1.16500000e-01	1.98927452e-02	4.12479692e-04
1.17000000e-01	1.94315597e-02	4.02578694e-04
1.17500000e-01	1.98600034e-02	4.10218402e-04
1.18000000e-01	1.97105306e-02	4.06233330e-04
1.18500000e-01	1.97295834e-02	4.04222462e-04
1.19000000e-01	1.96793528e-02	4.04525833e-04
1.19500000e-01	1.98129363e-02	4.05723484e-04
1.20000000e-01	1.96935236e-02	4.01960665e-04
1.20500000e-01	1.97816605e-02	4.02189092e-04
1.21000000e-01	2.00515920e-02	4.06203723e-04
1.21500000e-01	1.96241768e-02	3.96854647e-04
1.22000000e-01	1.96306476e-02	3.96523233e-04
1.22500000e-01	1.98923609e-02	4.01564030e-04
1.23000000e-01	1.98926754e-02	4.00729704e-04
1.23500000e-01	1.96275072e-02	3.93711066e-04
1.24000000e-01	1.95627095e-02	3.93320771e-04
1.24500000e-01	1.97597023e-02	3.94749994e-04
1.25000000e-01	1.94328263e-02	3.88584633e-04
1.25500000e-01	1.99487144e-02	3.95923550e-04
1.26000000e-01	1.94958686e-02	3.88631818e-04
1.26500000e-01	1.97020375e-02	3.91081376e-04
1.27000000e-01	1.96474944e-02	3.89276829e-04
1.27500000e-01	1.95027769e-02	3.83809393e-04
1.28000000e-01	1.96896831e-02	3.87136494e-04
1.28500000e-01	1.96685960e-02	3.86834017e-04
1.29000000e-01	1.95377702e-02	3.84206623e-04
1.29500000e-01	1.96008390e-02	3.83769102e-04
1.30000000e-01	1.97209064e-02	3.84670442e-04
1.30500000e-01	1.97361989e-02	3.84535678e-04
1.31000000e-01	1.97540384e-02	3.83957477e-04
1.31500000e-01	1.99964603e-02	3.87877840e-04
1.32000000e-01	1.98529277e-02	3.85366594e-04
1.32500000e-01	2.00113430e-02	3.85918777e-04
1.33000000e-01	1.97833105e-02	3.79873028e-04
1.33500000e-01	1.96126972e-02	3.76491177e-04
1.34000000e-01	1.97782852e-02	3.79398964e-04
1.34500000e-01	1.95734386e-02	3.73219053e-04
1.35000000e-01	1.95069466e-02	3.73877100e-04
1.35500000e-01	1.95964923e-02	3.73055801e-04
1.36000000e-01	1.99995011e-02	3.78547132e-04
1.36500000e-01	1.97506899e-02	3.76049188e-04
1.37000000e-01	1.97472186e-02	3.72303320e-04
1.37500000e-01	1.96402870e-02	3.71188457e-04
1.38000000e-01	1.97631206e-02	3.70898324e-04
1.38500000e-01	1.98088564e-02	3.74696818e-04
1.39000000e-01	1.99305267e-02	3.74764146e-04
1.39500000e-01	1.96174251e-02	3.69031911e-04
1.40000000e-01	1.96993561e-02	3.71012278e-04
1.40500000e-01	1.95500487e-02	3.68427509e-04
1.41000000e-01	1.96186706e-02	3.66495723e-04
1.41500000e-01	1.93586915e-02	3.64351967e-04
1.42000000e-01	1.94606665e-02	3.63265353e-04
1.42500000e-01	1.98113008e-02	3.69247071e-04
1.43000000e-01	1.95086051e-02	3.62623183e-04
1.43500000e-01	1.96458076e-02	3.66300392e-04
1.44000000e-01	1.92801497e-02	3.60172738e-04
1.44500000e-01	1.97381917e-02	3.64490833e-04
1.45000000e-01	1.95392280e-02	3.61812065e-04
1.45500000e-01	1.94257763e-02	3.58181753e-04
1.46000000e-01	1.92024634e-02	3.56227124e-04
1.46500000e-01	1.94172832e-02	3.58064672e-04
1.47000000e-01	1.93514237e-02	3.56547889e-04
1.47500000e-01	1.93214927e-02	3.52829419e-04
1.48000000e-01	1.94629682e-02	3.57265849e-04
1.48500000e-01	1.94224682e-02	3.56998047e-04
1.49000000e-01	1.95844847e-02	3.57497585e-04
1.49500000e-01	1.94714408e-02	3.56314836e-04
1.50000000e-01	1.93077814e-02	3.50704134e-04
1.50500000e-01	1.94384752e-02	3.54776193e-04
1.51000000e-01	1.96885905e-02	3.57205251e-04
1.51500000e-01	1.95047546e-02	3.52090040e-04
1.52000000e-01	1.93743020e-02	3.49416779e-04
1.52500000e-01	1.92652286e-02	3.48856774e-04
1.53000000e-01	1.92965845e-02	3.47965993e-04
1.53500000e-01	1.93811087e-02	3.47471430e-04
1.54000000e-01	1.95533601e-02	3.51574133e-04
1.54500000e-01	1.92915878e-02	3.51664460e-04
1.55000000e-01	1.90749706e-02	3.52666300e-04
1.55500000e-01	1.92135008e-02	3.57949244e-04
1.56000000e-01	1.90499168e-02	3.58544736e-04
1.56500000e-01	1.92147049e-02	3.58065919e-04
1.57000000e-01	1.92550087e-02	3.60237456e-04
1.57500000e-01	1.92596888e-02	3.54486206e-04
1.58000000e-01	1.93849056e-02	3.52109365e-04
1.58500000e-01	1.92296373e-02	3.46817619e-04
1.59000000e-01	1.90191243e-02	3.41114950e-04
1.59500000e-01	1.89377863e-02	3.41004365e-04
1.60000000e-01	1.91123637e-02	3.43832002e-04
1.60500000e-01	1.91330231e-02	3.40838111e-04
1.61000000e-01	1.92170049e-02	3.42467545e-04
1.61500000e-01	1.93603981e-02	3.43498626e-04
1.62000000e-01	1.89865989e-02	3.35901857e-04
1.62500000e-01	1.90904082e-02	3.37577385e-04
1.63000000e-01	1.89068968e-02	3.34205788e-04
1.63500000e-01	1.89640049e-02	3.36944330e-04
1.64000000e-01	1.89966098e-02	3.33117243e-04
1.64500000e-01	1.91738545e-02	3.37621463e-04
1.65000000e-01	1.90994956e-02	3.35551322e-04
1.65500000e-01	1.91433838e-02	3.33966756e-04
1.66000000e-01	1.91801006e-02	3.35213224e-04
1.66500000e-01	1.90177488e-02	3.32078115e-04
1.67000000e-01	1.90890901e-02	3.31968745e-04
1.67500000e-01	1.91913518e-02	3.34905396e-04
1.68000000e-01	1.91776203e-02	3.32709016e-04
1.68500000e-01	1.88472695e-02	3.27308812e-04
1.69000000e-01	1.90429382e-02	3.28926530e-04
1.69500000e-01	1.88327062e-02	3.24709802e-04
1.70000000e-01	1.87779890e-02	3.23576773e-04
1.70500000e-01	1.91337226e-02	3.29896128e-04
1.71000000e-01	1.92608973e-02	3.31092566e-04
1.71500000e-01	1.93536073e-02	3.32611862e-04
1.72000000e-01	1.88517474e-02	3.23392439e-04
1.72500000e-01	1.87285871e-02	3.23210234e-04
1.73000000e-01	1.87770637e-02	3.21816117e-04
1.73500000e-01	1.89751396e-02	3.22358979e-04
1.74000000e-01	1.86592238e-02	3.19052222e-04
1.74500000e-01	1.89805253e-02	3.21331475e-04
1.75000000e-01	1.87297922e-02	3.16041981e-04
1.75500000e-01	1.88114362e-02	3.16989551e-04
1.76000000e-01	1.88326314e-02	3.18133366e-04
1.76500000e-01	1.86406278e-02	3.14659935e-04
1.77000000e-01	1.86848043e-02	3.15279664e-04
1.77500000e-01	1.84898001e-02	3.11921470e-04
1.78000000e-01	1.89621143e-02	3.18057757e-04
1.78500000e-01	1.87176250e-02	3.15004904e-04
1.79000000e-01	1.86563309e-02	3.12814201e-04
1.79500000e-01	1.90447299e-02	3.19430801e-04
1.80000000e-01	1.87849269e-02	3.15955042e-04
1.80500000e-01	1.86771119e-02	3.13373648e-04
1.81000000e-01	1.88918390e-02	3.15809963e-04
1.81500000e-01	1.88239722e-02	3.14988762e-04
1.82000000e-01	1.82378948e-02	3.05731958e-04
1.82500000e-01	1.86423409e-02	3.10770227e-04
1.83000000e-01	1.86445813e-02	3.10643718e-04
1.83500000e-01	1.86891265e-02	3.10395015e-04
1.84000000e-01	1.87635992e-02	3.12073015e-04
1.84500000e-01	1.87381677e-02	3.09911010e-04
1.85000000e-01	1.86640195e-02	3.09037138e-04
1.85500000e-01	1.85639309e-02	3.07005036e-04
1.86000000e-01	1.87921070e-02	3.10169715e-04
1.86500000e-01	1.86236466e-02	3.06730448e-04
1.87000000e-01	1.85445693e-02	3.06655114e-04
1.87500000e-01	1.85166459e-02	3.04862073e-04
1.88000000e-01	1.88467348e-02	3.08287014e-04
1.88500000e-01	1.85879931e-02	3.05112792e-04
1.89000000e-01	1.85010860e-02	3.02885220e-04
1.89500000e-01	1.84332292e-02	3.01078844e-04
1.90000000e-01	1.87228540e-02	3.04685557e-04
1.90500000e-01	1.85079321e-02	3.01858602e-04
1.91000000e-01	1.85482676e-02	3.01635857e-04
1.91500000e-01	1.83793771e-02	3.00875616e-04
1.92000000e-01	1.84277985e-02	2.98848466e-04
1.92500000e-01	1.85246982e-02	2.99812867e-04
1.93000000e-01	1.83990515e-02	2.98802353e-04
1.93500000e-01	1.82065433e-02	2.97752290e-04
1.94000000e-01	1.84359223e-02	2.98450230e-04
1.94500000e-01	1.82248767e-02	2.95060688e-04
1.95000000e-01	1.83751818e-02	2.98038610e-04
1.95500000e-01	1.82048219e-02	2.92933377e-04
1.96000000e-01	1.83352510e-02	2.94873600e-04
1.96500000e-01	1.84875917e-02	2.98482423e-04
1.97000000e-01	1.83855874e-02	2.94603733e-04
1.97500000e-01	1.83966839e-02	2.95662919e-04
1.98000000e-01	1.81375296e-02	2.90725257e-04
1.98500000e-01	1.83773829e-02	2.93641582e-04
1.99000000e-01	1.82963168e-02	2.93007993e-04
1.99500000e-01	1.84721299e-02	2.95512348e-04
2.00000000e-01	1.83164581e-02	2.91582044e-04
2.00500000e-01	1.82098855e-02	2.90511292e-04
2.01000000e-01	1.84570484e-02	2.91279231e-04
2.01500000e-01	1.83829263e-02	2.91980916e-04
2.02000000e-01	1.83600833e-02	2.91093583e-04
2.02500000e-01	1.81940659e-02	2.89026621e-04
2.03000000e-01	1.82154808e-02	2.87955269e-04
2.03500000e-01	1.83867961e-02	2.90090213e-04
2.04000000e-01	1.83409820e-02	2.88648969e-04
2.04500000e-01	1.80762101e-02	2.86045890e-04
2.05000000e-01	1.84312793e-02	2.89549857e-04
2.05500000e-01	1.83592133e-02	2.88747958e-04
2.06000000e-01	1.82119828e-02	2.86143281e-04
2.06500000e-01	1.81725580e-02	2.85408346e-04
2.07000000e-01	1.81540575e-02	2.85452815e-04
2.07500000e-01	1.82092123e-02	2.85741220e-04
2.08000000e-01	1.82138652e-02	2.84788401e-04
2.08500000e-01	1.82797787e-02	2.84403986e-04
2.09000000e-01	1.82357490e-02	2.84822119e-04
2.09500000e-01	1.80983196e-02	2.83720349e-04
2.10000000e-01	1.79664389e-02	2.80239834e-04
2.10500000e-01	1.79354781e-02	2.80040583e-04
2.11000000e-01	1.81998185e-02	2.82594789e-04
2.11500000e-01	1.81522631e-02	2.82382521e-04
2.12000000e-01	1.80210839e-02	2.80164412e-04
2.12500000e-01	1.82014506e-02	2.82432229e-04
2.13000000e-01	1.81007042e-02	2.79315680e-04
2.13500000e-01	1.79829421e-02	2.79239166e-04
2.14000000e-01	1.80267607e-02	2.78768964e-04
2.14500000e-01	1.80201609e-02	2.76934813e-04
2.15000000e-01	1.82057037e-02	2.82462208e-04
2.15500000e-01	1.79196599e-02	2.75451026e-04
2.16000000e-01	1.83031875e-02	2.80855277e-04
2.16500000e-01	1.82223385e-02	2.79286732e-04
2.17000000e-01	1.78976660e-02	2.79697021e-04
2.17500000e-01	1.81348657e-02	2.86344572e-04
2.18000000e-01	1.82170290e-02	2.88433764e-04
2.18500000e-01	1.80724247e-02	2.87498100e-04
2.19000000e-01	1.82428906e-02	2.92501333e-04
2.19500000e-01	1.81530608e-02	2.91457047e-04
2.20000000e-01	1.83717316e-02	2.96656260e-04
2.20500000e-01	1.81851725e-02	2.94411188e-04
2.21000000e-01	1.79418413e-02	2.90580620e-04
2.21500000e-01	1.78877371e-02	2.91516022e-04
2.22000000e-01	1.78300482e-02	2.91848129e-04
2.22500000e-01	1.81546159e-02	2.96716382e-04
2.23000000e-01	1.80783208e-02	2.94739308e-04
2.23500000e-01	1.79971378e-02	2.95958670e-04
2.24000000e-01	1.79341342e-02	2.94733762e-04
2.24500000e-01	1.78020549e-02	2.94262959e-04
2.25000000e-01	1.82041555e-02	3.01142576e-04
2.25500000e-01	1.78644166e-02	2.94530017e-04
2.26000000e-01	1.82109104e-02	3.02116817e-04
2.26500000e-01	1.78650981e-02	2.92054513e-04
2.27000000e-01	1.80825034e-02	2.92262319e-04
2.27500000e-01	1.78989445e-02	2.88403869e-04
2.28000000e-01	1.81799293e-02	2.90610243e-04
2.28500000e-01	1.78253152e-02	2.84059218e-04
2.29000000e-01	1.77445068e-02	2.80725611e-04
2.29500000e-01	1.77677017e-02	2.80657699e-04
2.30000000e-01	1.80201468e-02	2.83074794e-04
2.30500000e-01	1.78343160e-02	2.80155392e-04
2.31000000e-01	1.77499434e-02	2.79193063e-04
2.31500000e-01	1.78626108e-02	2.78647223e-04
2.32000000e-01	1.79038502e-02	2.78089177e-04
2.32500000e-01	1.78105629e-02	2.77629718e-04
2.33000000e-01	1.78330156e-02	2.75703179e-04
2.33500000e-01	1.79626489e-02	2.77777093e-04
2.34000000e-01	1.76322773e-02	2.73370084e-04
2.34500000e-01	1.78994833e-02	2.74567083e-04
2.35000000e-01	1.77574968e-02	2.73265195e-04
2.35500000e-01	1.77517994e-02	2.72812299e-04
2.36000000e-01	1.79465111e-02	2.75459418e-04
2.36500000e-01	1.78537296e-02	2.72912037e-04
2.37000000e-01	1.80387877e-02	2.75211838e-04
2.37500000e-01	1.77914575e-02	2.71507803e-04
2.38000000e-01	1.76047055e-02	2.68269222e-04
2.38500000e-01	1.77753237e-02	2.70942970e-04
2.39000000e-01	1.79090250e-02	2.70289273e-04
2.39500000e-01	1.76678092e-02	2.67298277e-04
2.40000000e-01	1.78088795e-02	2.69610848e-04
2.40500000e-01	1.77231305e-02	2.65831601e-04
2.41000000e-01	1.76671034e-02	2.65500338e-04
2.41500000e-01	1.77730356e-02	2.67064407e-04
2.42000000e-01	1.78370901e-02	2.68063755e-04
2.42500000e-01	1.77073901e-02	2.66252112e-04
2.43000000e-01	1.78157712e-02	2.66113989e-04
2.43500000e-01	1.77874419e-02	2.66732851e-04
2.44000000e-01	1.75858934e-02	2.63335361e-04
2.44500000e-01	1.75508828e-02	2.62907596e-04
2.45000000e-01	1.76753255e-02	2.62916290e-04
2.45500000e-01	1.75781356e-02	2.61769437e-04
2.46000000e-01	1.77736058e-02	2.63843189e-04
2.46500000e-01	1.72913296e-02	2.56525132e-04
2.47000000e-01	1.72641487e-02	2.55716675e-04
2.47500000e-01	1.75321751e-02	2.58256916e-04
2.48000000e-01	1.76567915e-02	2.61022983e-04
2.48500000e-01	1.75247941e-02	2.58413878e-04
2.49000000e-01	1.77238074e-02	2.61867157e-04
2.49500000e-01	1.74293732e-02	2.57270627e-04
2.50000000e-01	1.73299691e-02	2.55094957e-04
2.50500000e-01	1.75418532e-02	2.57972156e-04
2.51000000e-01	1.73771170e-02	2.55105117e-04
2.51500000e-01	1.76557680e-02	2.58492133e-04
2.52000000e-01	1.75667187e-02	2.57111873e-04
2.52500000e-01	1.75982204e-02	2.56256437e-04
2.53000000e-01	1.72548857e-02	2.52741768e-04
2.53500000e-01	1.75749416e-02	2.56175252e-04
2.54000000e-01	1.75773218e-02	2.56384715e-04
2.54500000e-01	1.76440262e-02	2.56644242e-04
2.55000000e-01	1.74405807e-02	2.53707732e-04
2.55500000e-01	1.73857400e-02	2.53117110e-04
2.56000000e-01	1.74086197e-02	2.52280602e-04
2.56500000e-01	1.71919168e-02	2.50550241e-04
2.57000000e-01	1.73476538e-02	2.51696181e-04
2.57500000e-01	1.74491191e-02	2.52020697e-04
2.58000000e-01	1.75222110e-02	2.53009448e-04
2.58500000e-01	1.75641573e-02	2.53068605e-04
2.59000000e-01	1.76113877e-02	2.54781880e-04
2.59500000e-01	1.74285038e-02	2.50550831e-04
2.60000000e-01	1.73063427e-02	2.49150401e-04
2.60500000e-01	1.75430074e-02	2.52286511e-04
2.61000000e-01	1.74804795e-02	2.50420540e-04
2.61500000e-01	1.72646865e-02	2.49075913e-04
2.62000000e-01	1.73109377e-02	2.47064890e-04
2.62500000e-01	1.74433781e-02	2.49793787e-04
2.63000000e-01	1.74418261e-02	2.50180788e-04
2.63500000e-01	1.72939356e-02	2.47068035e-04
2.64000000e-01	1.74658050e-02	2.50173833e-04
2.64500000e-01	1.70421223e-02	2.43645687e-04
2.65000000e-01	1.72375328e-02	2.45974650e-04
2.65500000e-01	1.74151184e-02	2.47401973e-04
2.66000000e-01	1.73538147e-02	2.46177353e-04
2.66500000e-01	1.73088079e-02	2.45220576e-04
2.67000000e-01	1.73249193e-02	2.45018113e-04
2.67500000e-01	1.71694681e-02	2.43505866e-04
2.68000000e-01	1.70806724e-02	2.41295239e-04
2.68500000e-01	1.71307574e-02	2.42065478e-04
2.69000000e-01	1.71210011e-02	2.41879990e-04
2.69500000e-01	1.73039765e-02	2.44804128e-04
2.70000000e-01	1.72959905e-02	2.44072822e-04
2.70500000e-01	1.71017704e-02	2.40454339e-04
2.71000000e-01	1.71113067e-02	2.40717181e-04
2.71500000e-01	1.71713297e-02	2.41467827e-04
2.72000000e-01	1.72590227e-02	2.42245630e-04
2.72500000e-01	1.73301494e-02	2.42024683e-04
2.73000000e-01	1.71940194e-02	2.40307671e-04
2.73500000e-01	1.70976340e-02	2.39363298e-04
2.74000000e-01	1.72074135e-02	2.40510501e-04
2.74500000e-01	1.70275381e-02	2.37739665e-04
2.75000000e-01	1.71327567e-02	2.40029652e-04
2.75500000e-01	1.72921156e-02	2.42212633e-04
2.76000000e-01	1.72568064e-02	2.40663432e-04
2.76500000e-01	1.70949503e-02	2.38367848e-04
2.77000000e-01	1.70281060e-02	2.37206617e-04
2.77500000e-01	1.72474755e-02	2.39729444e-04
2.78000000e-01	1.70736922e-02	2.36431694e-04
2.78500000e-01	1.71878197e-02	2.38910541e-04
2.79000000e-01	1.70021588e-02	2.35490152e-04
2.79500000e-01	1.70224261e-02	2.36104525e-04
2.80000000e-01	1.69855518e-02	2.35964641e-04
2.80500000e-01	1.70965566e-02	2.37241335e-04
2.81000000e-01	1.69730779e-02	2.35123046e-04
2.81500000e-01	1.70017880e-02	2.34411737e-04
2.82000000e-01	1.69808888e-02	2.34842665e-04
2.82500000e-01	1.70142045e-02	2.35011918e-04
2.83000000e-01	1.69726491e-02	2.33135702e-04
2.83500000e-01	1.70137092e-02	2.33746118e-04
2.84000000e-01	1.67968769e-02	2.31857896e-04
2.84500000e-01	1.71035372e-02	2.34693004e-04
2.85000000e-01	1.71151887e-02	2.35111542e-04
2.85500000e-01	1.65646466e-02	2.26999230e-04
2.86000000e-01	1.71018396e-02	2.34072201e-04
2.86500000e-01	1.69868367e-02	2.31814066e-04
2.87000000e-01	1.69220900e-02	2.31436859e-04
2.87500000e-01	1.68785015e-02	2.29326685e-04
2.88000000e-01	1.68865455e-02	2.29969918e-04
2.88500000e-01	1.68985506e-02	2.31400478e-04
2.89000000e-01	1.69053467e-02	2.29738590e-04
2.89500000e-01	1.70496560e-02	2.32144205e-04
2.90000000e-01	1.68430060e-02	2.28613284e-04
2.90500000e-01	1.70714472e-02	2.31298971e-04
2.91000000e-01	1.69138974e-02	2.28956729e-04
2.91500000e-01	1.66999856e-02	2.25830964e-04
2.92000000e-01	1.69265027e-02	2.28058252e-04
2.92500000e-01	1.69838249e-02	2.29081144e-04
2.93000000e-01	1.67859430e-02	2.27216408e-04
2.93500000e-01	1.70392841e-02	2.29209372e-04
2.94000000e-01	1.69286309e-02	2.27961471e-04
2.94500000e-01	1.68461954e-02	2.27748840e-04
2.95000000e-01	1.67261494e-02	2.25293678e-04
2.95500000e-01	1.69665739e-02	2.28294622e-04
2.96000000e-01	1.67912001e-02	2.26006877e-04
2.96500000e-01	1.66066135e-02	2.22444537e-04
2.97000000e-01	1.68209339e-02	2.26943161e-04
2.97500000e-01	1.68334002e-02	2.25079028e-04
2.98000000e-01	1.67973781e-02	2.25745149e-04
2.98500000e-01	1.68363587e-02	2.26108669e-04
2.99000000e-01	1.68355053e-02	2.25256615e-04
2.99500000e-01	1.67494753e-02	2.24883494e-04
3.00000000e-01	1.67190284e-02	2.23465102e-04
3.00500000e-01	1.66056169e-02	2.22314099e-04
3.01000000e-01	1.66515917e-02	2.22626734e-04
3.01500000e-01	1.67829437e-02	2.24242291e-04
3.02000000e-01	1.68977092e-02	2.23988190e-04
3.02500000e-01	1.66836464e-02	2.23095024e-04
3.03000000e-01	1.68696528e-02	2.24443705e-04
3.03500000e-01	1.66555369e-02	2.20785209e-04
3.04000000e-01	1.67490696e-02	2.23589987e-04
3.04500000e-01	1.67101442e-02	2.22051392e-04
3.05000000e-01	1.65766985e-02	2.19821419e-04
3.05500000e-01	1.67309065e-02	2.21638737e-04
3.06000000e-01	1.66484882e-02	2.19500575e-04
3.06500000e-01	1.66629973e-02	2.19894062e-04
3.07000000e-01	1.67543145e-02	2.20382295e-04
3.07500000e-01	1.66570757e-02	2.20494085e-04
3.08000000e-01	1.65957307e-02	2.18735955e-04
3.08500000e-01	1.65620499e-02	2.18341987e-04
3.09000000e-01	1.65783233e-02	2.17367395e-04
3.09500000e-01	1.64189953e-02	2.15844215e-04
3.10000000e-01	1.65378828e-02	2.17379642e-04
3.10500000e-01	1.65912228e-02	2.17867216e-04
3.11000000e-01	1.66874994e-02	2.19183421e-04
3.11500000e-01	1.66702343e-02	2.18307186e-04
3.12000000e-01	1.67094874e-02	2.18401546e-04
3.12500000e-01	1.66020845e-02	2.17334333e-04
3.13000000e-01	1.67624719e-02	2.19198919e-04
3.13500000e-01	1.65668315e-02	2.16718923e-04
3.14000000e-01	1.66112635e-02	2.16915617e-04
3.14500000e-01	1.66226740e-02	2.16908543e-04
3.15000000e-01	1.63264912e-02	2.14079442e-04
3.15500000e-01	1.64397266e-02	2.14514368e-04
3.16000000e-01	1.65145384e-02	2.15663439e-04
3.16500000e-01	1.64992232e-02	2.14338325e-04
3.17000000e-01	1.63518389e-02	2.13396111e-04
3.17500000e-01	1.63542464e-02	2.12913862e-04
3.18000000e-01	1.63977270e-02	2.12849100e-04
3.18500000e-01	1.64213694e-02	2.14072512e-04
3.19000000e-01	1.64860242e-02	2.13267748e-04
3.19500000e-01	1.64154400e-02	2.13022319e-04
3.20000000e-01	1.65187180e-02	2.14064116e-04
3.20500000e-01	1.63441981e-02	2.11480738e-04
3.21000000e-01	1.63029159e-02	2.10631230e-04
3.21500000e-01	1.62457360e-02	2.10294184e-04
3.22000000e-01	1.62836083e-02	2.10628521e-04
3.22500000e-01	1.62999193e-02	2.10535345e-04
3.23000000e-01	1.64298151e-02	2.12428463e-04
3.23500000e-01	1.64425080e-02	2.11335476e-04
3.24000000e-01	1.63691156e-02	2.10600092e-04
3.24500000e-01	1.63073104e-02	2.10517067e-04
3.25000000e-01	1.62014071e-02	2.08250576e-04
3.25500000e-01	1.62813431e-02	2.10435095e-04
3.26000000e-01	1.62010605e-02	2.09258588e-04
3.26500000e-01	1.64169729e-02	2.09402734e-04
3.27000000e-01	1.61623095e-02	2.06935045e-04
3.27500000e-01	1.63430850e-02	2.09699976e-04
3.28000000e-01	1.61685154e-02	2.07273748e-04
3.28500000e-01	1.63307255e-02	2.08185046e-04
3.29000000e-01	1.64432900e-02	2.10255055e-04
3.29500000e-01	1.62961352e-02	2.08543944e-04
3.30000000e-01	1.64106113e-02	2.09311436e-04
3.30500000e-01	1.62673938e-02	2.07712846e-04
3.31000000e-01	1.62057487e-02	2.06046692e-04
3.31500000e-01	1.63179943e-02	2.07489943e-04
3.32000000e-01	1.62642617e-02	2.06657423e-04
3.32500000e-01	1.62969052e-02	2.06850591e-04
3.33000000e-01	1.62644175e-02	2.06960648e-04
3.33500000e-01	1.63526331e-02	2.07401133e-04
3.34000000e-01	1.61919132e-02	2.05025432e-04
3.34500000e-01	1.60454993e-02	2.03919802e-04
3.35000000e-01	1.62377837e-02	2.05891793e-04
3.35500000e-01	1.63094416e-02	2.06953313e-04
3.36000000e-01	1.62121784e-02	2.04586112e-04
3.36500000e-01	1.62554768e-02	2.05868795e-04
3.37000000e-01	1.60838655e-02	2.03463790e-04
3.37500000e-01	1.61395337e-02	2.03904990e-04
3.38000000e-01	1.59327753e-02	2.01576877e-04
3.38500000e-01	1.62408012e-02	2.04026979e-04
3.39000000e-01	1.60556700e-02	2.02361413e-04
3.39500000e-01	1.60484611e-02	2.01868665e-04
3.40000000e-01	1.58902878e-02	2.00250007e-04
3.40500000e-01	1.61682802e-02	2.03562926e-04
3.41000000e-01	1.61400086e-02	2.02609980e-04
3.41500000e-01	1.62510730e-02	2.04373342e-04
3.42000000e-01	1.60599778e-02	2.00973216e-04
3.42500000e-01	1.59972081e-02	2.01482942e-04
3.43000000e-01	1.62941380e-02	2.03910041e-04
3.43500000e-01	1.60434646e-02	2.00437687e-04
3.44000000e-01	1.59749805e-02	1.99859190e-04
3.44500000e-01	1.61230868e-02	2.01939053e-04
3.45000000e-01	1.59942952e-02	1.99389989e-04
3.45500000e-01	1.60284909e-02	1.99124274e-04
3.46000000e-01	1.60042887e-02	1.99727507e-04
3.46500000e-01	1.58668155e-02	1.98235528e-04
3.47000000e-01	1.58674173e-02	1.97832172e-04
3.47500000e-01	1.58366765e-02	1.97512049e-04
3.48000000e-01	1.59995798e-02	1.99477138e-04
3.48500000e-01	1.59255113e-02	1.97668334e-04
3.49000000e-01	1.58585816e-02	1.96944185e-04
3.49500000e-01	1.60174479e-02	1.98294376e-04
3.50000000e-01	1.59693306e-02	1.61397846e-04
3.51000000e-01	1.59059382e-02	1.39684401e-04
3.52000000e-01	1.59263114e-02	1.39182481e-04
3.53000000e-01	1.58102932e-02	1.38084310e-04
3.54000000e-01	1.59046943e-02	1.38215437e-04
3.55000000e-01	1.58405482e-02	1.38294916e-04
3.56000000e-01	1.59015663e-02	1.38892537e-04
3.57000000e-01	1.57701204e-02	1.40607349e-04
3.58000000e-01	1.57157475e-02	1.41045225e-04
3.59000000e-01	1.56510977e-02	1.41735245e-04
3.60000000e-01	1.56491291e-02	1.42776461e-04
3.61000000e-01	1.56386248e-02	1.43348569e-04
3.62000000e-01	1.56176235e-02	1.43555430e-04
3.63000000e-01	1.56488180e-02	1.44204912e-04
3.64000000e-01	1.55772547e-02	1.44562037e-04
3.65000000e-01	1.55375539e-02	1.43906021e-04
3.66000000e-01	1.54792231e-02	1.42010239e-04
3.67000000e-01	1.55980501e-02	1.40862151e-04
3.68000000e-01	1.54936492e-02	1.39297133e-04
3.69000000e-01	1.55278670e-02	1.38768853e-04
3.70000000e-01	1.55789094e-02	1.38600676e-04
3.71000000e-01	1.55824961e-02	1.40296606e-04
3.72000000e-01	1.57226329e-02	1.42538192e-04
3.73000000e-01	1.56244292e-02	1.41966332e-04
3.74000000e-01	1.54965098e-02	1.40898037e-04
3.75000000e-01	1.54057484e-02	1.40265656e-04
3.76000000e-01	1.55637314e-02	1.42025371e-04
3.77000000e-01	1.53811037e-02	1.40447594e-04
3.78000000e-01	1.55289146e-02	1.41694975e-04
3.79000000e-01	1.54487191e-02	1.40367049e-04
3.80000000e-01	1.53169641e-02	1.39059154e-04
3.81000000e-01	1.54699304e-02	1.40600721e-04
3.82000000e-01	1.54658582e-02	1.40487232e-04
3.83000000e-01	1.54650306e-02	1.40058820e-04
3.84000000e-01	1.53125461e-02	1.39370246e-04
3.85000000e-01	1.53910207e-02	1.40104142e-04
3.86000000e-01	1.52955157e-02	1.39064099e-04
3.87000000e-01	1.54035055e-02	1.39862663e-04
3.88000000e-01	1.53269032e-02	1.39535791e-04
3.89000000e-01	1.53860297e-02	1.39490053e-04
3.90000000e-01	1.53986265e-02	1.39587984e-04
3.91000000e-01	1.52884423e-02	1.38532734e-04
3.92000000e-01	1.52818632e-02	1.38924706e-04
3.93000000e-01	1.53562113e-02	1.38851109e-04
3.94000000e-01	1.53037403e-02	1.38790687e-04
3.95000000e-01	1.52761837e-02	1.38544266e-04
3.96000000e-01	1.51901117e-02	1.37817618e-04
3.97000000e-01	1.52688152e-02	1.38419892e-04
3.98000000e-01	1.50872868e-02	1.36778302e-04
3.99000000e-01	1.51249191e-02	1.37165418e-04
4.00000000e-01	1.51883861e-02	1.37922451e-04
4.01000000e-01	1.51510097e-02	1.37167419e-04
4.02000000e-01	1.50652563e-02	1.36387089e-04
4.03000000e-01	1.51693531e-02	1.37587000e-04
4.04000000e-01	1.52250908e-02	1.37784692e-04
4.05000000e-01	1.50540761e-02	1.36350488e-04
4.06000000e-01	1.51738940e-02	1.37566948e-04
4.07000000e-01	1.51067962e-02	1.36516335e-04
4.08000000e-01	1.50318629e-02	1.35794299e-04
4.09000000e-01	1.49630792e-02	1.35241136e-04
4.10000000e-01	1.51789973e-02	1.37191054e-04
4.11000000e-01	1.49321599e-02	1.35154170e-04
4.12000000e-01	1.51169957e-02	1.36682844e-04
4.13000000e-01	1.50027018e-02	1.35647946e-04
4.14000000e-01	1.49000369e-02	1.34897062e-04
4.15000000e-01	1.50257858e-02	1.35715471e-04
4.16000000e-01	1.51116424e-02	1.36262811e-04
4.17000000e-01	1.49165906e-02	1.35019239e-04
4.18000000e-01	1.49352103e-02	1.36597616e-04
4.19000000e-01	1.49711690e-02	1.38417086e-04
4.20000000e-01	1.50401103e-02	1.39440245e-04
4.21000000e-01	1.49518409e-02	1.39456408e-04
4.22000000e-01	1.48837326e-02	1.39602808e-04
4.23000000e-01	1.50477457e-02	1.40956813e-04
4.24000000e-01	1.51186868e-02	1.42130259e-04
4.25000000e-01	1.48837317e-02	1.40525950e-04
4.26000000e-01	1.49498273e-02	1.40522053e-04
4.27000000e-01	1.49942544e-02	1.41168550e-04
4.28000000e-01	1.49614470e-02	1.41067264e-04
4.29000000e-01	1.49663972e-02	1.41736798e-04
4.30000000e-01	1.49965490e-02	1.41906097e-04
4.31000000e-01	1.49488336e-02	1.40821253e-04
4.32000000e-01	1.50367184e-02	1.41793429e-04
4.33000000e-01	1.50216040e-02	1.42228487e-04
4.34000000e-01	1.47875808e-02	1.40328079e-04
4.35000000e-01	1.49123369e-02	1.41368803e-04
4.36000000e-01	1.48727111e-02	1.41093196e-04
4.37000000e-01	1.47534026e-02	1.40399324e-04
4.38000000e-01	1.49378294e-02	1.42033610e-04
4.39000000e-01	1.47684650e-02	1.41012048e-04
4.40000000e-01	1.47827686e-02	1.41226401e-04
4.41000000e-01	1.47863753e-02	1.41206180e-04
4.42000000e-01	1.48332031e-02	1.42266737e-04
4.43000000e-01	1.48021356e-02	1.41778933e-04
4.44000000e-01	1.49137917e-02	1.43197526e-04
4.45000000e-01	1.49217319e-02	1.43308638e-04
4.46000000e-01	1.47130353e-02	1.41410453e-04
4.47000000e-01	1.48219778e-02	1.42917292e-04
4.48000000e-01	1.47317950e-02	1.42102525e-04
4.49000000e-01	1.47391111e-02	1.42444335e-04
4.50000000e-01	1.47493924e-02	1.42555344e-04
4.51000000e-01	1.46393148e-02	1.41339720e-04
4.52000000e-01	1.47762443e-02	1.42777305e-04
4.53000000e-01	1.48494580e-02	1.43535615e-04
4.54000000e-01	1.46825107e-02	1.42176895e-04
4.55000000e-01	1.47889743e-02	1.43169076e-04
4.56000000e-01	1.45909193e-02	1.41653552e-04
4.57000000e-01	1.46234130e-02	1.42172646e-04
4.58000000e-01	1.46301335e-02	1.42545058e-04
4.59000000e-01	1.46898734e-02	1.43086599e-04
4.60000000e-01	1.46964577e-02	1.42996839e-04
4.61000000e-01	1.45645056e-02	1.41863510e-04
4.62000000e-01	1.45976150e-02	1.42170857e-04
4.63000000e-01	1.46710807e-02	1.43283100e-04
4.64000000e-01	1.46076680e-02	1.42802426e-04
4.65000000e-01	1.46272701e-02	1.42872675e-04
4.66000000e-01	1.47078868e-02	1.43749542e-04
4.67000000e-01	1.44957711e-02	1.42085976e-04
4.68000000e-01	1.45714411e-02	1.42841139e-04
4.69000000e-01	1.45736635e-02	1.43007379e-04
4.70000000e-01	1.45518103e-02	1.42675838e-04
4.71000000e-01	1.45511820e-02	1.42635331e-04
4.72000000e-01	1.45658410e-02	1.42932869e-04
4.73000000e-01	1.45057060e-02	1.41848240e-04
4.74000000e-01	1.44698588e-02	1.41705295e-04
4.75000000e-01	1.43830554e-02	1.41024126e-04
4.76000000e-01	1.44797801e-02	1.41881025e-04
4.77000000e-01	1.45618441e-02	1.43237173e-04
4.78000000e-01	1.44875006e-02	1.42214088e-04
4.79000000e-01	1.44264704e-02	1.41494117e-04
4.80000000e-01	1.44828550e-02	1.42280570e-04
4.81000000e-01	1.45693646e-02	1.42775120e-04
4.82000000e-01	1.43339769e-02	1.40974700e-04
4.83000000e-01	1.43416887e-02	1.41101823e-04
4.84000000e-01	1.44375796e-02	1.41981275e-04
4.85000000e-01	1.43340736e-02	1.41499484e-04
4.86000000e-01	1.42863817e-02	1.40775203e-04
4.87000000e-01	1.42872295e-02	1.40954297e-04
4.88000000e-01	1.43594004e-02	1.41980028e-04
4.89000000e-01	1.43161718e-02	1.41050514e-04
4.90000000e-01	1.44158276e-02	1.42118384e-04
4.91000000e-01	1.43216660e-02	1.41709494e-04
4.92000000e-01	1.43078736e-02	1.41468787e-04
4.93000000e-01	1.42760042e-02	1.41685561e-04
4.94000000e-01	1.42848492e-02	1.41042031e-04
4.95000000e-01	1.43449373e-02	1.43102486e-04
4.96000000e-01	1.43036412e-02	1.47276529e-04
4.97000000e-01	1.42939417e-02	1.49463951e-04
4.98000000e-01	1.42929079e-02	1.51423402e-04
4.99000000e-01	1.42729557e-02	1.53164949e-04
5.00000000e-01	1.43093389e-02	1.55116804e-04
5.01000000e-01	1.43715732e-02	1.56871855e-04
5.02000000e-01	1.43020388e-02	1.58084256e-04
5.03000000e-01	1.43106011e-02	1.59483072e-04
5.04000000e-01	1.42233707e-02	1.59955593e-04
5.05000000e-01	1.42475329e-02	1.57841791e-04
5.06000000e-01	1.42441006e-02	1.54029835e-04
5.07000000e-01	1.44233988e-02	1.54039166e-04
5.08000000e-01	1.42468402e-02	1.51805143e-04
5.09000000e-01	1.41515089e-02	1.50378491e-04
5.10000000e-01	1.41420195e-02	1.49956407e-04
5.11000000e-01	1.42556013e-02	1.50345435e-04
5.12000000e-01	1.42838537e-02	1.50484722e-04
5.13000000e-01	1.42380779e-02	1.49376681e-04
5.14000000e-01	1.40983109e-02	1.47850907e-04
5.15000000e-01	1.42510430e-02	1.49226363e-04
5.16000000e-01	1.42255754e-02	1.48253917e-04
5.17000000e-01	1.40544905e-02	1.46869122e-04
5.18000000e-01	1.41285375e-02	1.47380953e-04
5.19000000e-01	1.42046089e-02	1.47430450e-04
5.20000000e-01	1.42139711e-02	1.47055684e-04
5.21000000e-01	1.39827451e-02	1.44630445e-04
5.22000000e-01	1.40923379e-02	1.45453937e-04
5.23000000e-01	1.40944323e-02	1.45483128e-04
5.24000000e-01	1.39928301e-02	1.44643065e-04
5.25000000e-01	1.41557498e-02	1.46435856e-04
5.26000000e-01	1.41347860e-02	1.45771995e-04
5.27000000e-01	1.40715400e-02	1.45510274e-04
5.28000000e-01	1.42427145e-02	1.47035633e-04
5.29000000e-01	1.40385710e-02	1.45156113e-04
5.30000000e-01	1.39338620e-02	1.44317190e-04
5.31000000e-01	1.38309947e-02	1.43608157e-04
5.32000000e-01	1.38443199e-02	1.43398915e-04
5.33000000e-01	1.40270122e-02	1.44918998e-04
5.34000000e-01	1.39205469e-02	1.43611905e-04
5.35000000e-01	1.39480023e-02	1.43819136e-04
5.36000000e-01	1.38219038e-02	1.42816774e-04
5.37000000e-01	1.40104246e-02	1.44473698e-04
5.38000000e-01	1.38661963e-02	1.43473307e-04
5.39000000e-01	1.39972403e-02	1.44696201e-04
5.40000000e-01	1.38053852e-02	1.42753606e-04
5.41000000e-01	1.40238330e-02	1.44391763e-04
5.42000000e-01	1.40455003e-02	1.44845579e-04
5.43000000e-01	1.37886982e-02	1.42720341e-04
5.44000000e-01	1.39960773e-02	1.44544029e-04
5.45000000e-01	1.39855375e-02	1.44139370e-04
5.46000000e-01	1.39253445e-02	1.43699110e-04
5.47000000e-01	1.38804976e-02	1.43405458e-04
5.48000000e-01	1.39532809e-02	1.44531077e-04
5.49000000e-01	1.38332462e-02	1.42829155e-04
5.50000000e-01	1.37678074e-02	1.42057689e-04
5.51000000e-01	1.38780806e-02	1.42987093e-04
5.52000000e-01	1.38060507e-02	1.42225718e-04
5.53000000e-01	1.37247011e-02	1.41354121e-04
5.54000000e-01	1.38420114e-02	1.42463512e-04
5.55000000e-01	1.37371853e-02	1.40855634e-04
5.56000000e-01	1.37651528e-02	1.41270387e-04
5.57000000e-01	1.37730745e-02	1.41790304e-04
5.58000000e-01	1.37237648e-02	1.40744460e-04
5.59000000e-01	1.36785649e-02	1.40297939e-04
5.60000000e-01	1.36537406e-02	1.40836944e-04
5.61000000e-01	1.37022884e-02	1.40720648e-04
5.62000000e-01	1.36294301e-02	1.40137718e-04
5.63000000e-01	1.37246134e-02	1.41461244e-04
5.64000000e-01	1.35046621e-02	1.39192957e-04
5.65000000e-01	1.35472165e-02	1.39514949e-04
5.66000000e-01	1.37033593e-02	1.40677789e-04
5.67000000e-01	1.37136572e-02	1.40705692e-04
5.68000000e-01	1.36699391e-02	1.40627415e-04
5.69000000e-01	1.37338173e-02	1.40691949e-04
5.70000000e-01	1.35348252e-02	1.39112883e-04
5.71000000e-01	1.36988031e-02	1.40544473e-04
5.72000000e-01	1.34668795e-02	1.39120982e-04
5.73000000e-01	1.36102171e-02	1.40229986e-04
5.74000000e-01	1.34903763e-02	1.38287009e-04
5.75000000e-01	1.35786247e-02	1.39769455e-04
5.76000000e-01	1.34927961e-02	1.38773038e-04
5.77000000e-01	1.36165522e-02	1.39882255e-04
5.78000000e-01	1.33935748e-02	1.38260350e-04
5.79000000e-01	1.35140035e-02	1.39194845e-04
5.80000000e-01	1.34447747e-02	1.38848659e-04
5.81000000e-01	1.34194567e-02	1.38526558e-04
5.82000000e-01	1.35087136e-02	1.39326749e-04
5.83000000e-01	1.34838057e-02	1.39220001e-04
5.84000000e-01	1.34304012e-02	1.38663388e-04
5.85000000e-01	1.33852757e-02	1.38576533e-04
5.86000000e-01	1.33152932e-02	1.37839398e-04
5.87000000e-01	1.34371973e-02	1.38393009e-04
5.88000000e-01	1.34408015e-02	1.38735185e-04
5.89000000e-01	1.34728428e-02	1.39079682e-04
5.90000000e-01	1.34349456e-02	1.39110326e-04
5.91000000e-01	1.33177847e-02	1.37655862e-04
5.92000000e-01	1.33743537e-02	1.38107651e-04
5.93000000e-01	1.32646520e-02	1.37308991e-04
5.94000000e-01	1.33292123e-02	1.37611387e-04
5.95000000e-01	1.32937371e-02	1.37259676e-04
5.96000000e-01	1.33705403e-02	1.38173115e-04
5.97000000e-01	1.33547251e-02	1.38099373e-04
5.98000000e-01	1.33736836e-02	1.38404758e-04
5.99000000e-01	1.32360451e-02	1.36993704e-04
6.00000000e-01	1.33218373e-02	1.37693089e-04
6.01000000e-01	1.33043980e-02	1.37629609e-04
6.02000000e-01	1.31716089e-02	1.36451777e-04
6.03000000e-01	1.33003821e-02	1.37955518e-04
6.04000000e-01	1.32435934e-02	1.37216055e-04
6.05000000e-01	1.31314297e-02	1.36196611e-04
6.06000000e-01	1.32218387e-02	1.36984988e-04
6.07000000e-01	1.31037908e-02	1.36541006e-04
6.08000000e-01	1.32063572e-02	1.37078634e-04
6.09000000e-01	1.32270135e-02	1.37426076e-04
6.10000000e-01	1.31704752e-02	1.36947365e-04
6.11000000e-01	1.31501306e-02	1.36196482e-04
6.12000000e-01	1.30909762e-02	1.36064189e-04
6.13000000e-01	1.31395184e-02	1.36552908e-04
6.14000000e-01	1.32956819e-02	1.37911302e-04
6.15000000e-01	1.31017872e-02	1.36033531e-04
6.16000000e-01	1.31180536e-02	1.36557096e-04
6.17000000e-01	1.31168616e-02	1.36601113e-04
6.18000000e-01	1.30762857e-02	1.35696465e-04
6.19000000e-01	1.30555447e-02	1.35375942e-04
6.20000000e-01	1.30715989e-02	1.35526300e-04
6.21000000e-01	1.30620960e-02	1.35295518e-04
6.22000000e-01	1.33099628e-02	1.37766566e-04
6.23000000e-01	1.31384301e-02	1.35811055e-04
6.24000000e-01	1.31444467e-02	1.35610240e-04
6.25000000e-01	1.31031416e-02	1.34868233e-04
6.26000000e-01	1.31590460e-02	1.35748109e-04
6.27000000e-01	1.29997575e-02	1.34479329e-04
6.28000000e-01	1.29941054e-02	1.33804796e-04
6.29000000e-01	1.30627341e-02	1.34765926e-04
6.30000000e-01	1.30356460e-02	1.34685963e-04
6.31000000e-01	1.30539465e-02	1.34719739e-04
6.32000000e-01	1.30459205e-02	1.35147083e-04
6.33000000e-01	1.30270713e-02	1.34652026e-04
6.34000000e-01	1.32209615e-02	1.39345332e-04
6.35000000e-01	1.30670334e-02	1.42178581e-04
6.36000000e-01	1.30550623e-02	1.45158836e-04
6.37000000e-01	1.31093091e-02	1.47339446e-04
6.38000000e-01	1.31128204e-02	1.49621882e-04
6.39000000e-01	1.29497517e-02	1.49276839e-04
6.40000000e-01	1.32168247e-02	1.54713860e-04
6.41000000e-01	1.30188621e-02	1.53847229e-04
6.42000000e-01	1.30585126e-02	1.55260470e-04
6.43000000e-01	1.31556856e-02	1.57269810e-04
6.44000000e-01	1.31122872e-02	1.50724394e-04
6.45000000e-01	1.30651804e-02	1.48436915e-04
6.46000000e-01	1.31045417e-02	1.47119955e-04
6.47000000e-01	1.31089752e-02	1.46042832e-04
6.48000000e-01	1.30137603e-02	1.44224885e-04
6.49000000e-01	1.31027035e-02	1.44227926e-04
6.50000000e-01	1.30327362e-02	1.42916265e-04
6.51000000e-01	1.29900177e-02	1.42609974e-04
6.52000000e-01	1.29790902e-02	1.41577655e-04
6.53000000e-01	1.30394418e-02	1.41345522e-04
6.54000000e-01	1.29616002e-02	1.40602970e-04
6.55000000e-01	1.30215961e-02	1.40533321e-04
6.56000000e-01	1.29258163e-02	1.39662367e-04
6.57000000e-01	1.30280087e-02	1.40554983e-04
6.58000000e-01	1.30335767e-02	1.39628365e-04
6.59000000e-01	1.30985582e-02	1.40302607e-04
6.60000000e-01	1.30652833e-02	1.40395537e-04
6.61000000e-01	1.29326049e-02	1.38360453e-04
6.62000000e-01	1.29184223e-02	1.39114584e-04
6.63000000e-01	1.30140759e-02	1.40169395e-04
6.64000000e-01	1.29657842e-02	1.38681782e-04
6.65000000e-01	1.29453858e-02	1.38679852e-04
6.66000000e-01	1.30328724e-02	1.39323936e-04
6.67000000e-01	1.30155117e-02	1.39198367e-04
6.68000000e-01	1.28490666e-02	1.37551806e-04
6.69000000e-01	1.30046969e-02	1.39046352e-04
6.70000000e-01	1.29015903e-02	1.37721779e-04
6.71000000e-01	1.29790779e-02	1.38615661e-04
6.72000000e-01	1.29317940e-02	1.38442799e-04
6.73000000e-01	1.29249954e-02	1.37982338e-04
6.74000000e-01	1.28457577e-02	1.37303131e-04
6.75000000e-01	1.28157755e-02	1.36838738e-04
6.76000000e-01	1.28286454e-02	1.37237718e-04
6.77000000e-01	1.27316445e-02	1.36093750e-04
6.78000000e-01	1.27126924e-02	1.35928020e-04
6.79000000e-01	1.29317721e-02	1.37765094e-04
6.80000000e-01	1.28276650e-02	1.37354258e-04
6.81000000e-01	1.27412591e-02	1.36407736e-04
6.82000000e-01	1.27105977e-02	1.35744999e-04
6.83000000e-01	1.28431918e-02	1.37575126e-04
6.84000000e-01	1.27703952e-02	1.36544862e-04
6.85000000e-01	1.28908194e-02	1.37307810e-04
6.86000000e-01	1.27235409e-02	1.35785514e-04
6.87000000e-01	1.26280553e-02	1.35234048e-04
6.88000000e-01	1.26788470e-02	1.35084779e-04
6.89000000e-01	1.27086939e-02	1.35700558e-04
6.90000000e-01	1.29127043e-02	1.37295707e-04
6.91000000e-01	1.26614146e-02	1.35142953e-04
6.92000000e-01	1.27374639e-02	1.35816330e-04
6.93000000e-01	1.26759830e-02	1.35471858e-04
6.94000000e-01	1.26963578e-02	1.35428996e-04
6.95000000e-01	1.27586861e-02	1.36247136e-04
6.96000000e-01	1.26167318e-02	1.34279699e-04
6.97000000e-01	1.26431880e-02	1.34304097e-04
6.98000000e-01	1.28341658e-02	1.36193205e-04
6.99000000e-01	1.26140803e-02	1.34554344e-04
7.00000000e-01	1.26873067e-02	1.35090522e-04
7.01000000e-01	1.27376763e-02	1.35122471e-04
7.02000000e-01	1.25918482e-02	1.34263756e-04
7.03000000e-01	1.26551605e-02	1.34989624e-04
7.04000000e-01	1.26520341e-02	1.34763046e-04
7.05000000e-01	1.26088440e-02	1.34848976e-04
7.06000000e-01	1.26047683e-02	1.34085561e-04
7.07000000e-01	1.25304243e-02	1.33687125e-04
7.08000000e-01	1.26614442e-02	1.33866372e-04
7.09000000e-01	1.24246698e-02	1.32089207e-04
7.10000000e-01	1.24354842e-02	1.32535551e-04
7.11000000e-01	1.26547705e-02	1.34513373e-04
7.12000000e-01	1.23935231e-02	1.31726464e-04
7.13000000e-01	1.25674712e-02	1.33768453e-04
7.14000000e-01	1.23854183e-02	1.32030122e-04
7.15000000e-01	1.24729914e-02	1.32664210e-04
7.16000000e-01	1.23973338e-02	1.32337500e-04
7.17000000e-01	1.23950688e-02	1.31925229e-04
7.18000000e-01	1.22988669e-02	1.31480117e-04
7.19000000e-01	1.23441839e-02	1.31792147e-04
7.20000000e-01	1.25540966e-02	1.33445727e-04
7.21000000e-01	1.22723120e-02	1.30985421e-04
7.22000000e-01	1.22983457e-02	1.31211048e-04
7.23000000e-01	1.22488188e-02	1.30506531e-04
7.24000000e-01	1.22979509e-02	1.31105546e-04
7.25000000e-01	1.21969387e-02	1.30240049e-04
7.26000000e-01	1.23650002e-02	1.31501680e-04
7.27000000e-01	1.23473938e-02	1.31827276e-04
7.28000000e-01	1.23424759e-02	1.31386356e-04
7.29000000e-01	1.22100458e-02	1.30378781e-04
7.30000000e-01	1.21796890e-02	1.30068167e-04
7.31000000e-01	1.22979911e-02	1.30780740e-04
7.32000000e-01	1.21548442e-02	1.29621794e-04
7.33000000e-01	1.23535499e-02	1.31590268e-04
7.34000000e-01	1.21732282e-02	1.29510746e-04
7.35000000e-01	1.21950108e-02	1.29979444e-04
7.36000000e-01	1.21025545e-02	1.28628878e-04
7.37000000e-01	1.22152754e-02	1.29455718e-04
7.38000000e-01	1.20997296e-02	1.28457444e-04
7.39000000e-01	1.22741234e-02	1.29922990e-04
7.40000000e-01	1.22649661e-02	1.29874577e-04
7.41000000e-01	1.22768302e-02	1.29384997e-04
7.42000000e-01	1.23139916e-02	1.29693908e-04
7.43000000e-01	1.21106913e-02	1.28272146e-04
7.44000000e-01	1.21139431e-02	1.28260198e-04
7.45000000e-01	1.20870152e-02	1.27612895e-04
7.46000000e-01	1.21419369e-02	1.28175745e-04
7.47000000e-01	1.21720124e-02	1.28527713e-04
7.48000000e-01	1.21254491e-02	1.28087596e-04
7.49000000e-01	1.20750789e-02	1.27429953e-04
7.50000000e-01	1.20442444e-02	1.27451511e-04
7.51000000e-01	1.21206690e-02	1.27737827e-04
7.52000000e-01	1.20275065e-02	1.27468167e-04
7.53000000e-01	1.19799478e-02	1.26598045e-04
7.54000000e-01	1.19854258e-02	1.26965047e-04
7.55000000e-01	1.21809186e-02	1.28742265e-04
7.56000000e-01	1.21279858e-02	1.28228423e-04
7.57000000e-01	1.20629565e-02	1.27195659e-04
7.58000000e-01	1.20531923e-02	1.27259067e-04
7.59000000e-01	1.19953999e-02	1.27125581e-04
7.60000000e-01	1.20954859e-02	1.27951504e-04
7.61000000e-01	1.20031720e-02	1.26177016e-04
7.62000000e-01	1.18700578e-02	1.24867970e-04
7.63000000e-01	1.18739691e-02	1.25187401e-04
7.64000000e-01	1.19622183e-02	1.25881427e-04
7.65000000e-01	1.19178465e-02	1.25304030e-04
7.66000000e-01	1.19293744e-02	1.25019061e-04
7.67000000e-01	1.19131318e-02	1.25188832e-04
7.68000000e-01	1.19603434e-02	1.25270811e-04
7.69000000e-01	1.18715863e-02	1.24630458e-04
7.70000000e-01	1.18094920e-02	1.24243262e-04
7.71000000e-01	1.18229705e-02	1.24035383e-04
7.72000000e-01	1.19482620e-02	1.28745396e-04
7.73000000e-01	1.18165888e-02	1.32215872e-04
7.74000000e-01	1.18268623e-02	1.34793674e-04
7.75000000e-01	1.18467213e-02	1.36938232e-04
7.76000000e-01	1.17528766e-02	1.38298475e-04
7.77000000e-01	1.18204633e-02	1.41464183e-04
7.78000000e-01	1.18762995e-02	1.42826379e-04
7.79000000e-01	1.17216134e-02	1.42968885e-04
7.80000000e-01	1.18004971e-02	1.46279165e-04
7.81000000e-01	1.17357749e-02	1.47120635e-04
7.82000000e-01	1.17402750e-02	1.49089258e-04
7.83000000e-01	1.18342505e-02	1.50928539e-04
7.84000000e-01	1.17114303e-02	1.51704262e-04
7.85000000e-01	1.16056111e-02	1.51767233e-04
7.86000000e-01	1.18323976e-02	1.56413048e-04
7.87000000e-01	1.15983477e-02	1.54512075e-04
7.88000000e-01	1.17252176e-02	1.58220910e-04
7.89000000e-01	1.16187143e-02	1.57651026e-04
7.90000000e-01	1.14791659e-02	1.58631650e-04
7.91000000e-01	1.16123038e-02	1.60876192e-04
7.92000000e-01	1.14751420e-02	1.60828549e-04
7.93000000e-01	1.16230673e-02	1.64829012e-04
7.94000000e-01	1.17959348e-02	1.67978309e-04
7.95000000e-01	1.15075797e-02	1.65962577e-04
7.96000000e-01	1.15800387e-02	1.69240552e-04
7.97000000e-01	1.14018634e-02	1.69689974e-04
7.98000000e-01	1.15270495e-02	1.71946005e-04
7.99000000e-01	1.14804634e-02	1.73322011e-04
8.00000000e-01	1.15346771e-02	1.76152053e-04
8.01000000e-01	1.15578794e-02	1.78220553e-04
8.02000000e-01	1.16032782e-02	1.80753114e-04
8.03000000e-01	1.15567579e-02	1.81898874e-04
8.04000000e-01	1.13224579e-02	1.80099742e-04
8.05000000e-01	1.15626781e-02	1.85295460e-04
8.06000000e-01	1.14110412e-02	1.85920620e-04
8.07000000e-01	1.12844328e-02	1.86053956e-04
8.08000000e-01	1.12611407e-02	1.87730163e-04
8.09000000e-01	1.13914391e-02	1.90523388e-04
8.10000000e-01	1.14379248e-02	1.93721889e-04
8.11000000e-01	1.15817306e-02	1.98258154e-04
8.12000000e-01	1.14587995e-02	1.98928299e-04
8.13000000e-01	1.13781853e-02	1.99846773e-04
8.14000000e-01	1.13141339e-02	2.01223500e-04
8.15000000e-01	1.12410858e-02	2.01900240e-04
8.16000000e-01	1.13508435e-02	2.05937324e-04
8.17000000e-01	1.14867203e-02	2.11901387e-04
8.18000000e-01	1.11860202e-02	2.09130540e-04
8.19000000e-01	1.14429684e-02	2.15961388e-04
8.20000000e-01	1.12652089e-02	2.14584658e-04
8.21000000e-01	1.09551720e-02	2.12664163e-04
8.22000000e-01	1.10517172e-02	2.19530676e-04
8.23000000e-01	1.10499208e-02	2.19586488e-04
8.24000000e-01	1.11750182e-02	2.27338558e-04
8.25000000e-01	1.11465391e-02	2.29011140e-04
8.26000000e-01	1.13128449e-02	2.36121617e-04
8.27000000e-01	1.09447025e-02	2.30529401e-04
8.28000000e-01	1.10893945e-02	2.35710961e-04
8.29000000e-01	1.11084673e-02	2.43163109e-04
8.30000000e-01	1.10058603e-02	2.44925712e-04
8.31000000e-01	1.11319809e-02	2.49041043e-04
8.32000000e-01	1.10095118e-02	2.53337269e-04
8.33000000e-01	1.11521458e-02	2.57312927e-04
8.34000000e-01	1.10677895e-02	2.61615306e-04
8.35000000e-01	1.10713224e-02	2.66492437e-04
8.36000000e-01	1.10033685e-02	2.68179567e-04
8.37000000e-01	1.09593487e-02	2.75304992e-04
8.38000000e-01	1.07898266e-02	2.77449799e-04
8.39000000e-01	1.08421553e-02	2.84997355e-04
8.40000000e-01	1.11084592e-02	2.95153285e-04
8.41000000e-01	1.07265375e-02	2.95221473e-04
8.42000000e-01	1.06034510e-02	2.93560278e-04
8.43000000e-01	1.06978115e-02	3.08604318e-04
8.44000000e-01	1.06561231e-02	3.12584876e-04
8.45000000e-01	1.09614787e-02	3.29881694e-04
8.46000000e-01	1.06851083e-02	3.29349379e-04
8.47000000e-01	1.08358475e-02	3.43601835e-04
8.48000000e-01	1.06591604e-02	3.50835190e-04
8.49000000e-01	1.10427790e-02	3.68317894e-04
8.50000000e-01	1.07878973e-02	3.77372150e-04
8.51000000e-01	1.04394192e-02	3.76130579e-04
8.52000000e-01	1.11355593e-02	4.21474661e-04
8.53000000e-01	1.06489868e-02	4.19827948e-04
8.54000000e-01	1.06420239e-02	4.38007408e-04
8.55000000e-01	1.11604835e-02	4.75147410e-04
8.56000000e-01	1.03905261e-02	4.58021903e-04
8.57000000e-01	1.06305180e-02	4.83536932e-04
8.58000000e-01	1.05294323e-02	4.83292608e-04
8.59000000e-01	1.01314888e-02	4.77355087e-04
8.60000000e-01	1.04865010e-02	5.17701256e-04
8.61000000e-01	1.05133237e-02	5.34553544e-04
8.62000000e-01	1.01481820e-02	5.44259297e-04
8.63000000e-01	1.05403328e-02	5.80635639e-04
8.64000000e-01	1.08779892e-02	6.23185909e-04
8.65000000e-01	1.03249602e-02	6.19592370e-04
8.66000000e-01	1.09176932e-02	6.92377549e-04
8.67000000e-01	1.04726455e-02	7.11983750e-04
8.68000000e-01	1.02745374e-02	7.29105685e-04
8.69000000e-01	1.13003956e-02	8.54763528e-04
8.70000000e-01	1.08226979e-02	9.13128853e-04
8.71000000e-01	1.01204101e-02	9.53438727e-04
8.72000000e-01	1.14350254e-02	1.18607963e-03
8.73000000e-01	1.21287812e-02	1.39427313e-03
8.74000000e-01	9.19943067e-03	1.46003612e-03
8.75000000e-01	7.25553710e-03	2.21769827e-03
