% Filename : SDL1_00022_00015.h5
% Date & Time : 30-Oct-2025 16:48:57
% X-ray Energy (keV) : 13.30001
% Exposure Time (s) : 0.500
% Beam Center : 1461.24000, 208.98300
% Sample to Detector Distance (SDD) (mm) : 1990.750
% Detector Pixel Size (mm) : 0.075
% Photodiode Value : 141261.000
% I0 of Sample : 0
% I0 of Standard : 1
% 
% q(A^-1)   I(q)    I(q)_SE
0.00000000e+00	1.27896261e-02	7.00517913e-03
2.50000000e-04	0.00000000e+00	0.00000000e+00
5.00000000e-04	0.00000000e+00	0.00000000e+00
7.50000000e-04	0.00000000e+00	0.00000000e+00
1.00000000e-03	0.00000000e+00	0.00000000e+00
1.25000000e-03	0.00000000e+00	0.00000000e+00
1.50000000e-03	0.00000000e+00	0.00000000e+00
1.75000000e-03	0.00000000e+00	0.00000000e+00
2.00000000e-03	0.00000000e+00	0.00000000e+00
2.25000000e-03	0.00000000e+00	0.00000000e+00
2.50000000e-03	0.00000000e+00	0.00000000e+00
2.75000000e-03	0.00000000e+00	0.00000000e+00
3.00000000e-03	0.00000000e+00	0.00000000e+00
3.25000000e-03	8.80754589e+01	5.47251455e+01
3.50000000e-03	3.87101017e+01	1.45480237e+01
3.75000000e-03	1.96241412e+01	6.50391116e+00
4.00000000e-03	1.40904352e+01	3.92557758e+00
4.25000000e-03	8.23825456e+00	2.13386851e+00
4.50000000e-03	1.38190521e+01	3.25518066e+00
4.75000000e-03	1.38669398e+01	3.03991310e+00
5.00000000e-03	1.06344968e+01	2.25848144e+00
5.25000000e-03	8.83993422e+00	1.79602029e+00
5.50000000e-03	6.81925628e+00	1.33804393e+00
5.75000000e-03	5.83272334e+00	1.10364585e+00
6.00000000e-03	4.89254740e+00	8.82583007e-01
6.25000000e-03	4.35814802e+00	7.62727493e-01
6.50000000e-03	3.35297432e+00	5.77533619e-01
6.75000000e-03	2.81740218e+00	4.65346355e-01
7.00000000e-03	2.52993070e+00	4.04001327e-01
7.25000000e-03	2.29394563e+00	3.54341342e-01
7.50000000e-03	1.99201288e+00	3.05773690e-01
7.75000000e-03	1.86335830e+00	2.80143465e-01
8.00000000e-03	1.65292295e+00	2.38814248e-01
8.25000000e-03	1.34272509e+00	1.86545923e-01
8.50000000e-03	1.19784562e+00	1.59103913e-01
8.75000000e-03	1.09621860e+00	1.42705453e-01
9.00000000e-03	9.83700252e-01	1.28477045e-01
9.25000000e-03	8.84939192e-01	1.12405140e-01
9.50000000e-03	7.97738377e-01	9.85164357e-02
9.75000000e-03	7.36937847e-01	8.75307910e-02
1.00000000e-02	6.59942837e-01	7.66679088e-02
1.02500000e-02	5.96071608e-01	6.84496045e-02
1.05000000e-02	5.58465738e-01	5.91717956e-02
1.07500000e-02	5.04625038e-01	5.43358423e-02
1.10000000e-02	4.47572261e-01	4.67552346e-02
1.12500000e-02	4.29176750e-01	4.60325186e-02
1.15000000e-02	3.98021094e-01	3.98847241e-02
1.17500000e-02	3.54008364e-01	3.44017361e-02
1.20000000e-02	3.32383275e-01	3.14560792e-02
1.22500000e-02	3.17967741e-01	2.91468976e-02
1.25000000e-02	3.04490697e-01	2.75862947e-02
1.27500000e-02	2.83174871e-01	2.54463490e-02
1.30000000e-02	2.58028205e-01	2.19901175e-02
1.32500000e-02	2.43654429e-01	2.03810386e-02
1.35000000e-02	2.32180633e-01	1.91945906e-02
1.37500000e-02	2.14643082e-01	1.75081373e-02
1.40000000e-02	1.96137297e-01	1.55106703e-02
1.42500000e-02	1.82220660e-01	1.40051902e-02
1.45000000e-02	1.75118536e-01	1.29847092e-02
1.47500000e-02	1.66455657e-01	1.24520474e-02
1.50000000e-02	1.56963656e-01	1.14683107e-02
1.52500000e-02	1.52378433e-01	1.10504328e-02
1.55000000e-02	1.43698455e-01	1.00716870e-02
1.57500000e-02	1.37613856e-01	9.73462391e-03
1.60000000e-02	1.28826591e-01	8.71981735e-03
1.62500000e-02	1.23627301e-01	8.32574083e-03
1.65000000e-02	1.12917944e-01	7.34353695e-03
1.67500000e-02	1.10019362e-01	7.01860512e-03
1.70000000e-02	1.07808212e-01	6.94388283e-03
1.72500000e-02	1.02802368e-01	6.60625727e-03
1.75000000e-02	9.85707215e-02	6.33328429e-03
1.77500000e-02	9.31539043e-02	5.73571713e-03
1.80000000e-02	8.77772801e-02	5.26342715e-03
1.82500000e-02	8.60733824e-02	4.97293812e-03
1.85000000e-02	8.30031467e-02	4.99886416e-03
1.87500000e-02	7.88753808e-02	4.57481489e-03
1.90000000e-02	7.59365958e-02	4.38930292e-03
1.92500000e-02	7.32983411e-02	4.18076137e-03
1.95000000e-02	7.05891007e-02	3.97293192e-03
1.97500000e-02	6.93423722e-02	3.85914138e-03
2.00000000e-02	6.55149564e-02	3.57083756e-03
2.02500000e-02	6.29675422e-02	3.44651704e-03
2.05000000e-02	6.15345650e-02	3.30980232e-03
2.07500000e-02	5.89846697e-02	3.14310289e-03
2.10000000e-02	5.74509727e-02	3.06179425e-03
2.12500000e-02	5.73110059e-02	3.00843353e-03
2.15000000e-02	5.54887974e-02	2.92489477e-03
2.17500000e-02	5.60927707e-02	2.94794793e-03
2.20000000e-02	5.41906643e-02	2.84838129e-03
2.22500000e-02	5.30457084e-02	2.77215969e-03
2.25000000e-02	5.12743052e-02	2.70411676e-03
2.27500000e-02	4.84910527e-02	2.50558091e-03
2.30000000e-02	4.92977942e-02	2.54919847e-03
2.32500000e-02	4.65067906e-02	2.39119867e-03
2.35000000e-02	4.62520635e-02	2.44401036e-03
2.37500000e-02	4.62085804e-02	2.38709454e-03
2.40000000e-02	4.35162921e-02	2.25273248e-03
2.42500000e-02	4.26997627e-02	2.17279836e-03
2.45000000e-02	4.10131515e-02	2.10377977e-03
2.47500000e-02	4.22478738e-02	2.13706010e-03
2.50000000e-02	4.19718960e-02	2.12181389e-03
2.52500000e-02	4.04302052e-02	2.07592256e-03
2.55000000e-02	4.02385227e-02	2.00305096e-03
2.57500000e-02	3.88777734e-02	1.92808225e-03
2.60000000e-02	3.78430114e-02	1.87443253e-03
2.62500000e-02	3.76213530e-02	1.89541546e-03
2.65000000e-02	3.68237361e-02	1.82253927e-03
2.67500000e-02	3.70653361e-02	1.82365873e-03
2.70000000e-02	3.63912673e-02	1.76741983e-03
2.72500000e-02	3.62258591e-02	1.76119264e-03
2.75000000e-02	3.40925668e-02	1.69234309e-03
2.77500000e-02	3.39879895e-02	1.68797409e-03
2.80000000e-02	3.43449259e-02	1.64637584e-03
2.82500000e-02	3.43628590e-02	1.65369315e-03
2.85000000e-02	3.38341848e-02	1.61405648e-03
2.87500000e-02	3.36597527e-02	1.60972751e-03
2.90000000e-02	3.39202484e-02	1.64679684e-03
2.92500000e-02	3.30787618e-02	1.56593086e-03
2.95000000e-02	3.21873502e-02	1.52154748e-03
2.97500000e-02	3.24990746e-02	1.54626702e-03
3.00000000e-02	3.19590134e-02	1.51358602e-03
3.02500000e-02	3.17826300e-02	1.50381062e-03
3.05000000e-02	3.18157378e-02	1.46907505e-03
3.07500000e-02	3.17358717e-02	1.48438786e-03
3.10000000e-02	3.20129527e-02	1.48924078e-03
3.12500000e-02	3.06628658e-02	1.46914095e-03
3.15000000e-02	3.10529302e-02	1.43429803e-03
3.17500000e-02	2.92338943e-02	1.34231053e-03
3.20000000e-02	2.99805238e-02	1.40442402e-03
3.22500000e-02	2.92793653e-02	1.34647844e-03
3.25000000e-02	2.86005840e-02	1.33740100e-03
3.27500000e-02	2.88777954e-02	1.32977648e-03
3.30000000e-02	2.89167358e-02	1.31540550e-03
3.32500000e-02	2.88354180e-02	1.31198879e-03
3.35000000e-02	2.76060000e-02	1.28339244e-03
3.37500000e-02	2.70429760e-02	1.23785513e-03
3.40000000e-02	2.74283223e-02	1.25673467e-03
3.42500000e-02	2.72290930e-02	1.24460054e-03
3.45000000e-02	2.78210112e-02	1.26783858e-03
3.47500000e-02	2.67975123e-02	1.22725410e-03
3.50000000e-02	2.64996363e-02	1.20596175e-03
3.52500000e-02	2.64283747e-02	1.19976685e-03
3.55000000e-02	2.68730700e-02	1.21710683e-03
3.57500000e-02	2.69896936e-02	1.21781331e-03
3.60000000e-02	2.59933602e-02	1.18334347e-03
3.62500000e-02	2.61396738e-02	1.18050941e-03
3.65000000e-02	2.48146461e-02	1.12060802e-03
3.67500000e-02	2.60282285e-02	1.16760329e-03
3.70000000e-02	2.49389566e-02	1.11114212e-03
3.72500000e-02	2.54669958e-02	1.12506028e-03
3.75000000e-02	2.58220727e-02	1.14023433e-03
3.77500000e-02	2.51082172e-02	1.11209815e-03
3.80000000e-02	2.48509512e-02	1.09194590e-03
3.82500000e-02	2.50335900e-02	1.10171230e-03
3.85000000e-02	2.51240818e-02	1.11667106e-03
3.87500000e-02	2.48057439e-02	1.09297749e-03
3.90000000e-02	2.45639981e-02	1.07987779e-03
3.92500000e-02	2.50937590e-02	1.08838437e-03
3.95000000e-02	2.44622221e-02	1.07242156e-03
3.97500000e-02	2.44551788e-02	1.07471981e-03
4.00000000e-02	2.39555221e-02	1.03032810e-03
4.02500000e-02	2.40343937e-02	1.04565343e-03
4.05000000e-02	2.43080969e-02	1.05419003e-03
4.07500000e-02	2.29455657e-02	9.92255763e-04
4.10000000e-02	2.38895447e-02	1.03669789e-03
4.12500000e-02	2.37188000e-02	1.01114104e-03
4.15000000e-02	2.41340342e-02	1.02300507e-03
4.17500000e-02	2.40255739e-02	1.02161971e-03
4.20000000e-02	2.41719195e-02	1.02489267e-03
4.22500000e-02	2.35468246e-02	9.99388824e-04
4.25000000e-02	2.41030726e-02	1.00952288e-03
4.27500000e-02	2.32498957e-02	9.78081300e-04
4.30000000e-02	2.33911404e-02	9.81171870e-04
4.32500000e-02	2.33974001e-02	9.80864308e-04
4.35000000e-02	2.29383513e-02	9.71648378e-04
4.37500000e-02	2.31676759e-02	9.66068369e-04
4.40000000e-02	2.33974505e-02	9.79262210e-04
4.42500000e-02	2.28796950e-02	9.55352790e-04
4.45000000e-02	2.27916992e-02	9.46815830e-04
4.47500000e-02	2.24137829e-02	9.29309120e-04
4.50000000e-02	2.18558099e-02	9.19796322e-04
4.52500000e-02	2.33282545e-02	9.69493898e-04
4.55000000e-02	2.31282830e-02	9.53041536e-04
4.57500000e-02	2.25354077e-02	9.30054696e-04
4.60000000e-02	2.23344633e-02	9.24519517e-04
4.62500000e-02	2.28098399e-02	9.41123329e-04
4.65000000e-02	2.25995970e-02	9.27835910e-04
4.67500000e-02	2.19117283e-02	8.97356772e-04
4.70000000e-02	2.21783525e-02	9.03328593e-04
4.72500000e-02	2.23505635e-02	9.16895716e-04
4.75000000e-02	2.19318516e-02	9.08575059e-04
4.77500000e-02	2.33435658e-02	9.44898618e-04
4.80000000e-02	2.25356571e-02	9.07693759e-04
4.82500000e-02	2.23029746e-02	9.11831796e-04
4.85000000e-02	2.22899165e-02	9.06183567e-04
4.87500000e-02	2.19443555e-02	8.92024920e-04
4.90000000e-02	2.22991212e-02	8.86556888e-04
4.92500000e-02	2.15101932e-02	8.63356398e-04
4.95000000e-02	2.14012618e-02	8.58177586e-04
4.97500000e-02	2.19022776e-02	8.85300946e-04
5.00000000e-02	2.14821648e-02	8.63410879e-04
5.02500000e-02	2.22035352e-02	8.78450771e-04
5.05000000e-02	2.17680822e-02	8.62997294e-04
5.07500000e-02	2.21724205e-02	8.77084673e-04
5.10000000e-02	2.16849854e-02	8.62785480e-04
5.12500000e-02	2.24877203e-02	8.95545945e-04
5.15000000e-02	2.15771747e-02	8.52197235e-04
5.17500000e-02	2.15850444e-02	8.51811549e-04
5.20000000e-02	2.10285041e-02	8.26972791e-04
5.22500000e-02	2.12196646e-02	8.41405430e-04
5.25000000e-02	2.11355721e-02	8.23408491e-04
5.27500000e-02	2.13068687e-02	8.33319264e-04
5.30000000e-02	2.15335316e-02	8.49515363e-04
5.32500000e-02	2.16045329e-02	8.44360166e-04
5.35000000e-02	2.13843578e-02	8.36751593e-04
5.37500000e-02	2.18622217e-02	8.49354478e-04
5.40000000e-02	2.13468883e-02	8.25851556e-04
5.42500000e-02	2.16832427e-02	8.43483231e-04
5.45000000e-02	2.08249783e-02	8.00946046e-04
5.47500000e-02	2.12232341e-02	8.24822815e-04
5.50000000e-02	2.12836118e-02	8.27647055e-04
5.52500000e-02	2.10607342e-02	8.09434306e-04
5.55000000e-02	2.10410300e-02	8.02191386e-04
5.57500000e-02	2.06837359e-02	8.00409947e-04
5.60000000e-02	2.16228664e-02	8.25015328e-04
5.62500000e-02	2.15100104e-02	8.26029798e-04
5.65000000e-02	2.11102118e-02	8.04053994e-04
5.67500000e-02	2.10608509e-02	8.03903945e-04
5.70000000e-02	2.06194172e-02	7.80519964e-04
5.72500000e-02	2.10699445e-02	8.03303229e-04
5.75000000e-02	2.11017486e-02	8.04146744e-04
5.77500000e-02	2.12080111e-02	7.93644899e-04
5.80000000e-02	2.10898171e-02	7.99532499e-04
5.82500000e-02	2.01123013e-02	7.52273522e-04
5.85000000e-02	2.11265325e-02	7.98096422e-04
5.87500000e-02	2.11288774e-02	7.90068892e-04
5.90000000e-02	2.09002463e-02	7.87365413e-04
5.92500000e-02	2.07342582e-02	7.76974835e-04
5.95000000e-02	2.07010973e-02	7.63033785e-04
5.97500000e-02	2.19965696e-02	8.24252272e-04
6.00000000e-02	2.05782498e-02	7.74158506e-04
6.02500000e-02	2.04364566e-02	7.63713748e-04
6.05000000e-02	2.08274035e-02	7.71906094e-04
6.07500000e-02	2.11636321e-02	7.90573166e-04
6.10000000e-02	2.10495628e-02	7.77945172e-04
6.12500000e-02	1.99253273e-02	7.39152106e-04
6.15000000e-02	2.08979431e-02	7.71478432e-04
6.17500000e-02	2.08829622e-02	7.68691620e-04
6.20000000e-02	2.06599560e-02	7.59183242e-04
6.22500000e-02	2.10372085e-02	7.75131852e-04
6.25000000e-02	2.12188248e-02	7.81657643e-04
6.27500000e-02	2.09174589e-02	7.59101041e-04
6.30000000e-02	2.03164355e-02	7.43634461e-04
6.32500000e-02	2.09366434e-02	7.64259890e-04
6.35000000e-02	2.08545359e-02	7.62009854e-04
6.37500000e-02	2.04608535e-02	7.49475796e-04
6.40000000e-02	1.99582685e-02	7.27280603e-04
6.42500000e-02	2.06722914e-02	7.48806689e-04
6.45000000e-02	2.03399338e-02	7.37461170e-04
6.47500000e-02	2.01003583e-02	7.25375607e-04
6.50000000e-02	2.12158316e-02	7.62472154e-04
6.52500000e-02	2.04451616e-02	7.34655012e-04
6.55000000e-02	2.06472008e-02	7.46880519e-04
6.57500000e-02	2.05320622e-02	7.39177519e-04
6.60000000e-02	2.05805257e-02	7.35907359e-04
6.62500000e-02	1.97927433e-02	7.12458139e-04
6.65000000e-02	2.05481111e-02	7.27106204e-04
6.67500000e-02	2.03997611e-02	7.26000187e-04
6.70000000e-02	1.98045459e-02	7.16440584e-04
6.72500000e-02	2.03455820e-02	7.28344548e-04
6.75000000e-02	2.00987996e-02	7.14011222e-04
6.77500000e-02	2.03235344e-02	7.21000798e-04
6.80000000e-02	2.02969841e-02	7.22673261e-04
6.82500000e-02	2.06251280e-02	7.29031809e-04
6.85000000e-02	2.04031646e-02	7.21348212e-04
6.87500000e-02	2.06638688e-02	7.27588358e-04
6.90000000e-02	2.04275404e-02	7.14119709e-04
6.92500000e-02	2.06787331e-02	7.27822932e-04
6.95000000e-02	2.02820204e-02	7.24079811e-04
6.97500000e-02	1.99485247e-02	7.02604093e-04
7.00000000e-02	2.06179564e-02	7.22003985e-04
7.02500000e-02	2.03521962e-02	7.16740438e-04
7.05000000e-02	2.00938515e-02	6.96174156e-04
7.07500000e-02	2.05236630e-02	7.22272621e-04
7.10000000e-02	2.01224374e-02	7.06288081e-04
7.12500000e-02	2.03399313e-02	7.09228519e-04
7.15000000e-02	2.02932067e-02	7.06472185e-04
7.17500000e-02	1.99872636e-02	6.94710968e-04
7.20000000e-02	2.00548931e-02	6.93522016e-04
7.22500000e-02	1.99632589e-02	6.90939499e-04
7.25000000e-02	2.05713418e-02	7.12854768e-04
7.27500000e-02	2.02872656e-02	6.98613684e-04
7.30000000e-02	2.06657310e-02	7.10404567e-04
7.32500000e-02	2.04545153e-02	6.98075941e-04
7.35000000e-02	2.01286075e-02	6.92098081e-04
7.37500000e-02	1.99445227e-02	6.82804723e-04
7.40000000e-02	1.98743178e-02	6.82726554e-04
7.42500000e-02	2.04504009e-02	6.93929849e-04
7.45000000e-02	2.02189185e-02	6.88647095e-04
7.47500000e-02	1.98615653e-02	6.81356588e-04
7.50000000e-02	1.98109136e-02	6.75403780e-04
7.52500000e-02	2.02677939e-02	6.94938737e-04
7.55000000e-02	1.99860259e-02	6.78183325e-04
7.57500000e-02	1.94359355e-02	6.61818316e-04
7.60000000e-02	1.98624524e-02	6.72149083e-04
7.62500000e-02	2.00502030e-02	6.83236919e-04
7.65000000e-02	2.04283485e-02	6.89344566e-04
7.67500000e-02	2.08158005e-02	6.99483792e-04
7.70000000e-02	1.93025131e-02	6.48238093e-04
7.72500000e-02	2.04829999e-02	7.07221672e-04
7.75000000e-02	2.03925651e-02	7.02777115e-04
7.77500000e-02	2.00361838e-02	7.03122505e-04
7.80000000e-02	2.05360288e-02	7.16681150e-04
7.82500000e-02	2.08250841e-02	7.28696880e-04
7.85000000e-02	1.98095096e-02	7.01859269e-04
7.87500000e-02	2.02460504e-02	7.04060005e-04
7.90000000e-02	2.04266088e-02	7.23107410e-04
7.92500000e-02	1.95714383e-02	7.01886324e-04
7.95000000e-02	2.03143777e-02	7.22235294e-04
7.97500000e-02	2.06524489e-02	7.35695947e-04
8.00000000e-02	2.02856957e-02	7.21224915e-04
8.02500000e-02	2.02733671e-02	7.30040224e-04
8.05000000e-02	2.02615256e-02	7.25323529e-04
8.07500000e-02	2.04047411e-02	7.33264886e-04
8.10000000e-02	2.07981776e-02	7.54329959e-04
8.12500000e-02	2.00121339e-02	7.21685912e-04
8.15000000e-02	2.02505332e-02	7.32131043e-04
8.17500000e-02	2.03774351e-02	7.37311235e-04
8.20000000e-02	1.95380921e-02	7.14682349e-04
8.22500000e-02	1.96157871e-02	7.14918636e-04
8.25000000e-02	2.02522628e-02	7.36618373e-04
8.27500000e-02	2.03190292e-02	7.40628970e-04
8.30000000e-02	1.99655078e-02	7.25915395e-04
8.32500000e-02	2.00622293e-02	7.33154118e-04
8.35000000e-02	1.99166920e-02	7.38418752e-04
8.37500000e-02	2.01876562e-02	7.33155329e-04
8.40000000e-02	2.03630320e-02	7.43662305e-04
8.42500000e-02	2.00200104e-02	7.33106272e-04
8.45000000e-02	2.00039838e-02	7.37375400e-04
8.47500000e-02	1.97801435e-02	7.32886039e-04
8.50000000e-02	1.92431147e-02	7.14600493e-04
8.52500000e-02	1.99715526e-02	7.40458340e-04
8.55000000e-02	1.94339461e-02	7.16065243e-04
8.57500000e-02	1.99386253e-02	7.47278297e-04
8.60000000e-02	1.98560211e-02	7.41258297e-04
8.62500000e-02	2.04136530e-02	7.51607660e-04
8.65000000e-02	1.96983766e-02	7.26407480e-04
8.67500000e-02	2.03443812e-02	7.45340044e-04
8.70000000e-02	1.98970562e-02	7.24470773e-04
8.72500000e-02	2.00113903e-02	7.12303570e-04
8.75000000e-02	2.00652818e-02	7.18301690e-04
8.77500000e-02	2.00244205e-02	7.04726194e-04
8.80000000e-02	1.99801120e-02	7.06529991e-04
8.82500000e-02	1.96377893e-02	6.89028823e-04
8.85000000e-02	2.05515453e-02	7.18826215e-04
8.87500000e-02	2.01248857e-02	6.87435355e-04
8.90000000e-02	1.99890290e-02	6.89920069e-04
8.92500000e-02	2.03013689e-02	6.98994538e-04
8.95000000e-02	2.00217440e-02	6.85268385e-04
8.97500000e-02	1.98440866e-02	6.76982007e-04
9.00000000e-02	1.96572760e-02	6.67325967e-04
9.02500000e-02	2.04121012e-02	6.93357609e-04
9.05000000e-02	1.99879059e-02	6.81694503e-04
9.07500000e-02	2.06169266e-02	6.89926498e-04
9.10000000e-02	2.01179609e-02	6.75375515e-04
9.12500000e-02	2.02383964e-02	6.73252261e-04
9.15000000e-02	2.00006443e-02	6.70842236e-04
9.17500000e-02	2.01766398e-02	6.80785116e-04
9.20000000e-02	1.97068366e-02	6.56305299e-04
9.22500000e-02	2.00883205e-02	6.62664260e-04
9.25000000e-02	1.97410855e-02	6.53978342e-04
9.27500000e-02	1.95431103e-02	6.48130715e-04
9.30000000e-02	1.98466502e-02	6.62122779e-04
9.32500000e-02	2.01534461e-02	6.67171353e-04
9.35000000e-02	2.03703350e-02	6.66695909e-04
9.37500000e-02	1.93893162e-02	6.37027302e-04
9.40000000e-02	1.92378044e-02	6.36906107e-04
9.42500000e-02	1.99220029e-02	6.52258176e-04
9.45000000e-02	1.97477391e-02	6.48460421e-04
9.47500000e-02	1.97729770e-02	6.45026079e-04
9.50000000e-02	1.97618859e-02	6.42530187e-04
9.52500000e-02	2.01502365e-02	6.59841620e-04
9.55000000e-02	1.97258793e-02	6.37756702e-04
9.57500000e-02	1.99268824e-02	6.47536149e-04
9.60000000e-02	1.96437365e-02	6.40908924e-04
9.62500000e-02	1.99147915e-02	6.43310230e-04
9.65000000e-02	2.02216006e-02	6.53192849e-04
9.67500000e-02	1.95406721e-02	6.29382488e-04
9.70000000e-02	1.98122689e-02	6.40060583e-04
9.72500000e-02	2.02762581e-02	6.50624690e-04
9.75000000e-02	1.97839212e-02	6.35365172e-04
9.77500000e-02	1.97429694e-02	6.27192808e-04
9.80000000e-02	2.00338486e-02	6.43002442e-04
9.82500000e-02	2.00054575e-02	6.37958184e-04
9.85000000e-02	1.94408139e-02	6.18998399e-04
9.87500000e-02	1.96431067e-02	6.23753211e-04
9.90000000e-02	2.01171453e-02	6.38730561e-04
9.92500000e-02	1.99285666e-02	6.33665754e-04
9.95000000e-02	1.91471891e-02	6.09980964e-04
9.97500000e-02	1.99050972e-02	6.26037499e-04
1.00000000e-01	1.95852393e-02	5.01508033e-04
1.00500000e-01	1.99847357e-02	4.48769108e-04
1.01000000e-01	1.95039496e-02	4.34193447e-04
1.01500000e-01	1.99023101e-02	4.41085859e-04
1.02000000e-01	1.97580112e-02	4.35157750e-04
1.02500000e-01	1.95434860e-02	4.31060727e-04
1.03000000e-01	1.97307284e-02	4.33853337e-04
1.03500000e-01	2.00430165e-02	4.38941658e-04
1.04000000e-01	1.97188105e-02	4.32089397e-04
1.04500000e-01	1.97348710e-02	4.30548192e-04
1.05000000e-01	1.96350915e-02	4.26801167e-04
1.05500000e-01	1.96316754e-02	4.26353862e-04
1.06000000e-01	2.00520863e-02	4.31700600e-04
1.06500000e-01	1.99006626e-02	4.27651327e-04
1.07000000e-01	1.99653899e-02	4.36387295e-04
1.07500000e-01	1.97269925e-02	4.35266614e-04
1.08000000e-01	1.97085744e-02	4.42696059e-04
1.08500000e-01	1.99701507e-02	4.48266136e-04
1.09000000e-01	1.98967708e-02	4.48360129e-04
1.09500000e-01	1.98982232e-02	4.53192765e-04
1.10000000e-01	1.95789258e-02	4.39339785e-04
1.10500000e-01	1.97837809e-02	4.37272710e-04
1.11000000e-01	1.98889519e-02	4.34476066e-04
1.11500000e-01	1.99751429e-02	4.30111139e-04
1.12000000e-01	1.96331582e-02	4.18062996e-04
1.12500000e-01	1.95856792e-02	4.16987911e-04
1.13000000e-01	1.93700791e-02	4.11213799e-04
1.13500000e-01	1.97492206e-02	4.16095287e-04
1.14000000e-01	1.94702256e-02	4.11411210e-04
1.14500000e-01	1.99641617e-02	4.21810391e-04
1.15000000e-01	1.94274537e-02	4.05893057e-04
1.15500000e-01	1.98636970e-02	4.15889418e-04
1.16000000e-01	1.98541365e-02	4.13466314e-04
1.16500000e-01	1.98323618e-02	4.13042319e-04
1.17000000e-01	1.98414541e-02	4.10577325e-04
1.17500000e-01	1.96984321e-02	4.05539508e-04
1.18000000e-01	1.96643208e-02	4.06613100e-04
1.18500000e-01	2.00497851e-02	4.12284912e-04
1.19000000e-01	1.96084290e-02	4.02091082e-04
1.19500000e-01	1.98816540e-02	4.07562946e-04
1.20000000e-01	1.96727283e-02	4.01722759e-04
1.20500000e-01	1.97278550e-02	4.02339995e-04
1.21000000e-01	1.98517542e-02	4.01622874e-04
1.21500000e-01	1.94922296e-02	3.95534242e-04
1.22000000e-01	1.99843894e-02	4.03506596e-04
1.22500000e-01	1.94884490e-02	3.93288039e-04
1.23000000e-01	1.94478540e-02	3.91823421e-04
1.23500000e-01	1.96883322e-02	3.95015833e-04
1.24000000e-01	1.96414016e-02	3.94070850e-04
1.24500000e-01	1.95645623e-02	3.91385692e-04
1.25000000e-01	1.96879964e-02	3.93612229e-04
1.25500000e-01	1.97463508e-02	3.93009945e-04
1.26000000e-01	1.98680237e-02	3.93403695e-04
1.26500000e-01	1.96842697e-02	3.88822427e-04
1.27000000e-01	1.96561930e-02	3.90359143e-04
1.27500000e-01	1.97471085e-02	3.89561784e-04
1.28000000e-01	1.98512649e-02	3.91095003e-04
1.28500000e-01	1.95401659e-02	3.85252060e-04
1.29000000e-01	1.97483219e-02	3.89135444e-04
1.29500000e-01	1.95784993e-02	3.84198472e-04
1.30000000e-01	1.96817095e-02	3.84991986e-04
1.30500000e-01	1.97393893e-02	3.85447071e-04
1.31000000e-01	1.95691367e-02	3.81534076e-04
1.31500000e-01	1.94842365e-02	3.78132076e-04
1.32000000e-01	1.96032585e-02	3.80039085e-04
1.32500000e-01	1.98312863e-02	3.83917203e-04
1.33000000e-01	1.97992192e-02	3.82346370e-04
1.33500000e-01	1.95670242e-02	3.74800276e-04
1.34000000e-01	1.95171933e-02	3.74763789e-04
1.34500000e-01	1.98594211e-02	3.78462749e-04
1.35000000e-01	1.94399874e-02	3.71094099e-04
1.35500000e-01	1.95712821e-02	3.73063100e-04
1.36000000e-01	1.95961036e-02	3.70896661e-04
1.36500000e-01	1.97324924e-02	3.75557279e-04
1.37000000e-01	1.95760120e-02	3.70990754e-04
1.37500000e-01	1.94745808e-02	3.66458051e-04
1.38000000e-01	1.97703191e-02	3.72629643e-04
1.38500000e-01	1.95305262e-02	3.70158222e-04
1.39000000e-01	1.94295366e-02	3.65284313e-04
1.39500000e-01	1.94012227e-02	3.65450343e-04
1.40000000e-01	1.96529305e-02	3.70162562e-04
1.40500000e-01	1.95123630e-02	3.66022675e-04
1.41000000e-01	1.93646327e-02	3.63268483e-04
1.41500000e-01	1.97815659e-02	3.73876252e-04
1.42000000e-01	1.96153510e-02	3.65289859e-04
1.42500000e-01	1.98192639e-02	3.69614468e-04
1.43000000e-01	1.96413426e-02	3.65524772e-04
1.43500000e-01	1.93214337e-02	3.61859514e-04
1.44000000e-01	1.94144000e-02	3.60752671e-04
1.44500000e-01	1.95311447e-02	3.60558421e-04
1.45000000e-01	1.92388462e-02	3.58228157e-04
1.45500000e-01	1.95634153e-02	3.61114589e-04
1.46000000e-01	1.95906554e-02	3.60823165e-04
1.46500000e-01	1.95327451e-02	3.58632080e-04
1.47000000e-01	1.91843476e-02	3.52830253e-04
1.47500000e-01	1.95746054e-02	3.59572648e-04
1.48000000e-01	1.96487515e-02	3.60229216e-04
1.48500000e-01	1.89965734e-02	3.48358627e-04
1.49000000e-01	1.93007185e-02	3.52525005e-04
1.49500000e-01	1.92804116e-02	3.52825390e-04
1.50000000e-01	1.91992217e-02	3.49119221e-04
1.50500000e-01	1.93345173e-02	3.52085093e-04
1.51000000e-01	1.95485848e-02	3.56041691e-04
1.51500000e-01	1.94148453e-02	3.49621150e-04
1.52000000e-01	1.93018682e-02	3.45526516e-04
1.52500000e-01	1.91576822e-02	3.46790157e-04
1.53000000e-01	1.93223874e-02	3.48755635e-04
1.53500000e-01	1.93295146e-02	3.47049327e-04
1.54000000e-01	1.92433263e-02	3.44522633e-04
1.54500000e-01	1.96144823e-02	3.58811439e-04
1.55000000e-01	1.91770319e-02	3.54080232e-04
1.55500000e-01	1.91255623e-02	3.56815223e-04
1.56000000e-01	1.95202533e-02	3.65973872e-04
1.56500000e-01	1.91053070e-02	3.56000950e-04
1.57000000e-01	1.89676254e-02	3.55455655e-04
1.57500000e-01	1.90693282e-02	3.52136505e-04
1.58000000e-01	1.94645497e-02	3.52857430e-04
1.58500000e-01	1.91003860e-02	3.44881368e-04
1.59000000e-01	1.91864895e-02	3.44161265e-04
1.59500000e-01	1.90843351e-02	3.41315174e-04
1.60000000e-01	1.91453651e-02	3.44136549e-04
1.60500000e-01	1.88852861e-02	3.35949691e-04
1.61000000e-01	1.90159208e-02	3.38859694e-04
1.61500000e-01	1.91078624e-02	3.38386236e-04
1.62000000e-01	1.92308290e-02	3.41017415e-04
1.62500000e-01	1.90823468e-02	3.37397179e-04
1.63000000e-01	1.89209788e-02	3.33718612e-04
1.63500000e-01	1.92494172e-02	3.41480184e-04
1.64000000e-01	1.90676743e-02	3.35938109e-04
1.64500000e-01	1.87482345e-02	3.30442939e-04
1.65000000e-01	1.90265642e-02	3.34934147e-04
1.65500000e-01	1.90791673e-02	3.33856552e-04
1.66000000e-01	1.92419269e-02	3.37668191e-04
1.66500000e-01	1.89792448e-02	3.30460173e-04
1.67000000e-01	1.89673222e-02	3.31264027e-04
1.67500000e-01	1.89969219e-02	3.29166635e-04
1.68000000e-01	1.89441173e-02	3.29514938e-04
1.68500000e-01	1.89042193e-02	3.27194813e-04
1.69000000e-01	1.88668221e-02	3.27928410e-04
1.69500000e-01	1.89443542e-02	3.26435768e-04
1.70000000e-01	1.90029040e-02	3.28795812e-04
1.70500000e-01	1.89686048e-02	3.27478685e-04
1.71000000e-01	1.89157987e-02	3.24661974e-04
1.71500000e-01	1.87660391e-02	3.23305586e-04
1.72000000e-01	1.89115711e-02	3.23787321e-04
1.72500000e-01	1.88257218e-02	3.24226413e-04
1.73000000e-01	1.88792910e-02	3.23223962e-04
1.73500000e-01	1.89008518e-02	3.22930436e-04
1.74000000e-01	1.88794583e-02	3.22234814e-04
1.74500000e-01	1.87672624e-02	3.16741307e-04
1.75000000e-01	1.89594898e-02	3.20549818e-04
1.75500000e-01	1.90254345e-02	3.20062415e-04
1.76000000e-01	1.87075991e-02	3.15666083e-04
1.76500000e-01	1.86418877e-02	3.14309373e-04
1.77000000e-01	1.88970537e-02	3.16934075e-04
1.77500000e-01	1.87105288e-02	3.14866788e-04
1.78000000e-01	1.86898049e-02	3.14255412e-04
1.78500000e-01	1.88368401e-02	3.15072665e-04
1.79000000e-01	1.87951591e-02	3.15375204e-04
1.79500000e-01	1.89328515e-02	3.17370684e-04
1.80000000e-01	1.87913787e-02	3.15179426e-04
1.80500000e-01	1.86780157e-02	3.14092269e-04
1.81000000e-01	1.85415021e-02	3.10935929e-04
1.81500000e-01	1.87410253e-02	3.12591986e-04
1.82000000e-01	1.87543951e-02	3.11607634e-04
1.82500000e-01	1.86112708e-02	3.10479329e-04
1.83000000e-01	1.87196885e-02	3.12745183e-04
1.83500000e-01	1.85578357e-02	3.08101578e-04
1.84000000e-01	1.86770574e-02	3.11206195e-04
1.84500000e-01	1.86060928e-02	3.08829939e-04
1.85000000e-01	1.85539318e-02	3.08297041e-04
1.85500000e-01	1.86719082e-02	3.08631373e-04
1.86000000e-01	1.85514879e-02	3.06130965e-04
1.86500000e-01	1.87342462e-02	3.09608704e-04
1.87000000e-01	1.87992955e-02	3.09125522e-04
1.87500000e-01	1.82146452e-02	2.99638826e-04
1.88000000e-01	1.85591955e-02	3.04971596e-04
1.88500000e-01	1.84662400e-02	3.02063290e-04
1.89000000e-01	1.84683874e-02	3.02210146e-04
1.89500000e-01	1.86857057e-02	3.06775771e-04
1.90000000e-01	1.84913502e-02	3.02365362e-04
1.90500000e-01	1.84826370e-02	3.01989906e-04
1.91000000e-01	1.84487602e-02	3.00455634e-04
1.91500000e-01	1.82076158e-02	2.97048875e-04
1.92000000e-01	1.81403165e-02	2.93680400e-04
1.92500000e-01	1.83821172e-02	2.98932612e-04
1.93000000e-01	1.83521267e-02	2.98669384e-04
1.93500000e-01	1.83902089e-02	2.98910775e-04
1.94000000e-01	1.83819345e-02	2.98088702e-04
1.94500000e-01	1.82832089e-02	2.95880563e-04
1.95000000e-01	1.84889011e-02	2.97750364e-04
1.95500000e-01	1.83788113e-02	2.96378299e-04
1.96000000e-01	1.85302840e-02	2.98494557e-04
1.96500000e-01	1.85481543e-02	2.98592426e-04
1.97000000e-01	1.83108574e-02	2.93105950e-04
1.97500000e-01	1.83868437e-02	2.94602671e-04
1.98000000e-01	1.83450983e-02	2.93951072e-04
1.98500000e-01	1.83363408e-02	2.93034829e-04
1.99000000e-01	1.83076517e-02	2.93505991e-04
1.99500000e-01	1.83101296e-02	2.91446813e-04
2.00000000e-01	1.81925794e-02	2.91206804e-04
2.00500000e-01	1.84859048e-02	2.95369102e-04
2.01000000e-01	1.83545474e-02	2.90587453e-04
2.01500000e-01	1.83192377e-02	2.91497375e-04
2.02000000e-01	1.80775516e-02	2.86368730e-04
2.02500000e-01	1.82037887e-02	2.87868370e-04
2.03000000e-01	1.82962237e-02	2.90317331e-04
2.03500000e-01	1.84051503e-02	2.90169273e-04
2.04000000e-01	1.84072705e-02	2.90272428e-04
2.04500000e-01	1.81321443e-02	2.86722318e-04
2.05000000e-01	1.83451944e-02	2.88535640e-04
2.05500000e-01	1.81793764e-02	2.87043027e-04
2.06000000e-01	1.82511796e-02	2.86708909e-04
2.06500000e-01	1.80189551e-02	2.83446264e-04
2.07000000e-01	1.80196112e-02	2.82307164e-04
2.07500000e-01	1.81528858e-02	2.84336675e-04
2.08000000e-01	1.82327240e-02	2.86326996e-04
2.08500000e-01	1.82780448e-02	2.84874941e-04
2.09000000e-01	1.81170656e-02	2.83933508e-04
2.09500000e-01	1.82996630e-02	2.85548884e-04
2.10000000e-01	1.82680248e-02	2.83875506e-04
2.10500000e-01	1.82122709e-02	2.83856925e-04
2.11000000e-01	1.78921972e-02	2.77801568e-04
2.11500000e-01	1.82578245e-02	2.84143855e-04
2.12000000e-01	1.81163126e-02	2.80188340e-04
2.12500000e-01	1.80159315e-02	2.78881730e-04
2.13000000e-01	1.81035210e-02	2.78942163e-04
2.13500000e-01	1.83040626e-02	2.82054884e-04
2.14000000e-01	1.82254717e-02	2.80436868e-04
2.14500000e-01	1.78724471e-02	2.74870702e-04
2.15000000e-01	1.79306912e-02	2.77676036e-04
2.15500000e-01	1.77738024e-02	2.73605506e-04
2.16000000e-01	1.84285110e-02	2.82756960e-04
2.16500000e-01	1.82571242e-02	2.80161320e-04
2.17000000e-01	1.82081352e-02	2.83808276e-04
2.17500000e-01	1.79711649e-02	2.84024776e-04
2.18000000e-01	1.81795633e-02	2.87761360e-04
2.18500000e-01	1.80258818e-02	2.89350198e-04
2.19000000e-01	1.81063232e-02	2.91172399e-04
2.19500000e-01	1.80483866e-02	2.90683143e-04
2.20000000e-01	1.77947083e-02	2.87298888e-04
2.20500000e-01	1.80363542e-02	2.91617584e-04
2.21000000e-01	1.81593287e-02	2.93786342e-04
2.21500000e-01	1.82296098e-02	2.97519502e-04
2.22000000e-01	1.81882354e-02	2.95418639e-04
2.22500000e-01	1.77527867e-02	2.89451202e-04
2.23000000e-01	1.79406776e-02	2.93868551e-04
2.23500000e-01	1.78675600e-02	2.94205112e-04
2.24000000e-01	1.79550872e-02	2.95537826e-04
2.24500000e-01	1.81047010e-02	2.98662782e-04
2.25000000e-01	1.76789964e-02	2.92422147e-04
2.25500000e-01	1.76788827e-02	2.93258289e-04
2.26000000e-01	1.77408949e-02	2.94311370e-04
2.26500000e-01	1.79158391e-02	2.94281462e-04
2.27000000e-01	1.79015265e-02	2.89807442e-04
2.27500000e-01	1.79209443e-02	2.88145910e-04
2.28000000e-01	1.79488245e-02	2.86947537e-04
2.28500000e-01	1.78644179e-02	2.84677517e-04
2.29000000e-01	1.78263665e-02	2.81903213e-04
2.29500000e-01	1.76500394e-02	2.80205779e-04
2.30000000e-01	1.75968853e-02	2.77151496e-04
2.30500000e-01	1.77794327e-02	2.78443082e-04
2.31000000e-01	1.78006242e-02	2.79437336e-04
2.31500000e-01	1.79813318e-02	2.80185107e-04
2.32000000e-01	1.75534461e-02	2.74433981e-04
2.32500000e-01	1.76295135e-02	2.74040676e-04
2.33000000e-01	1.78276923e-02	2.76274965e-04
2.33500000e-01	1.78206741e-02	2.74917586e-04
2.34000000e-01	1.77386061e-02	2.72950880e-04
2.34500000e-01	1.78679811e-02	2.75412614e-04
2.35000000e-01	1.75216616e-02	2.69778117e-04
2.35500000e-01	1.76065801e-02	2.70750761e-04
2.36000000e-01	1.75331464e-02	2.69550817e-04
2.36500000e-01	1.75038617e-02	2.68865720e-04
2.37000000e-01	1.79463777e-02	2.73859582e-04
2.37500000e-01	1.77957144e-02	2.72754296e-04
2.38000000e-01	1.78134114e-02	2.71721255e-04
2.38500000e-01	1.74585743e-02	2.66637443e-04
2.39000000e-01	1.78500852e-02	2.69863722e-04
2.39500000e-01	1.78698023e-02	2.70067821e-04
2.40000000e-01	1.78180655e-02	2.69456165e-04
2.40500000e-01	1.79564774e-02	2.69884911e-04
2.41000000e-01	1.77234503e-02	2.67235788e-04
2.41500000e-01	1.78453190e-02	2.68169977e-04
2.42000000e-01	1.77057317e-02	2.66715134e-04
2.42500000e-01	1.77547028e-02	2.65976083e-04
2.43000000e-01	1.78382751e-02	2.66394394e-04
2.43500000e-01	1.76790832e-02	2.64006897e-04
2.44000000e-01	1.75519756e-02	2.61604825e-04
2.44500000e-01	1.77425023e-02	2.65309529e-04
2.45000000e-01	1.77016847e-02	2.63479386e-04
2.45500000e-01	1.74787618e-02	2.60470824e-04
2.46000000e-01	1.76456428e-02	2.62358036e-04
2.46500000e-01	1.76036538e-02	2.61130286e-04
2.47000000e-01	1.74779585e-02	2.59074441e-04
2.47500000e-01	1.73018360e-02	2.55282335e-04
2.48000000e-01	1.74451686e-02	2.57880228e-04
2.48500000e-01	1.76681952e-02	2.59245379e-04
2.49000000e-01	1.76089264e-02	2.58714446e-04
2.49500000e-01	1.74543427e-02	2.57826727e-04
2.50000000e-01	1.74387779e-02	2.56283752e-04
2.50500000e-01	1.73477398e-02	2.55562271e-04
2.51000000e-01	1.74677451e-02	2.56435329e-04
2.51500000e-01	1.74082343e-02	2.56169997e-04
2.52000000e-01	1.74630055e-02	2.55498137e-04
2.52500000e-01	1.74142233e-02	2.54070240e-04
2.53000000e-01	1.75514086e-02	2.56312928e-04
2.53500000e-01	1.74256049e-02	2.54161768e-04
2.54000000e-01	1.75589493e-02	2.56167967e-04
2.54500000e-01	1.72428774e-02	2.52660867e-04
2.55000000e-01	1.71793560e-02	2.51031152e-04
2.55500000e-01	1.71886215e-02	2.50799046e-04
2.56000000e-01	1.75147610e-02	2.52470665e-04
2.56500000e-01	1.72788811e-02	2.51068786e-04
2.57000000e-01	1.74982749e-02	2.53199403e-04
2.57500000e-01	1.74438829e-02	2.52852144e-04
2.58000000e-01	1.73204608e-02	2.51126650e-04
2.58500000e-01	1.72739667e-02	2.49652895e-04
2.59000000e-01	1.74696549e-02	2.52133483e-04
2.59500000e-01	1.73610489e-02	2.50198961e-04
2.60000000e-01	1.75092135e-02	2.53011155e-04
2.60500000e-01	1.72759719e-02	2.49876546e-04
2.61000000e-01	1.72594829e-02	2.47645657e-04
2.61500000e-01	1.75148267e-02	2.50895572e-04
2.62000000e-01	1.72274266e-02	2.46803920e-04
2.62500000e-01	1.71884223e-02	2.46780679e-04
2.63000000e-01	1.72212553e-02	2.45904427e-04
2.63500000e-01	1.73818332e-02	2.47437550e-04
2.64000000e-01	1.72855091e-02	2.47166790e-04
2.64500000e-01	1.71995741e-02	2.44727165e-04
2.65000000e-01	1.72628955e-02	2.46276030e-04
2.65500000e-01	1.70868038e-02	2.43789998e-04
2.66000000e-01	1.70561257e-02	2.42994793e-04
2.66500000e-01	1.72327767e-02	2.45125762e-04
2.67000000e-01	1.70787478e-02	2.42913716e-04
2.67500000e-01	1.71716437e-02	2.42692262e-04
2.68000000e-01	1.71854336e-02	2.42958369e-04
2.68500000e-01	1.74659577e-02	2.47691631e-04
2.69000000e-01	1.71192243e-02	2.41391291e-04
2.69500000e-01	1.69699535e-02	2.39867258e-04
2.70000000e-01	1.72001292e-02	2.42540431e-04
2.70500000e-01	1.70922394e-02	2.40460003e-04
2.71000000e-01	1.71706185e-02	2.42367385e-04
2.71500000e-01	1.71892817e-02	2.42183759e-04
2.72000000e-01	1.71936989e-02	2.40726953e-04
2.72500000e-01	1.70737290e-02	2.39639676e-04
2.73000000e-01	1.70459086e-02	2.39127457e-04
2.73500000e-01	1.73084112e-02	2.41485317e-04
2.74000000e-01	1.70931343e-02	2.38824816e-04
2.74500000e-01	1.71378837e-02	2.39168890e-04
2.75000000e-01	1.72476114e-02	2.40212081e-04
2.75500000e-01	1.71688528e-02	2.40428759e-04
2.76000000e-01	1.72145674e-02	2.39000585e-04
2.76500000e-01	1.69624943e-02	2.36580930e-04
2.77000000e-01	1.69764918e-02	2.35605458e-04
2.77500000e-01	1.69471905e-02	2.35941226e-04
2.78000000e-01	1.72005755e-02	2.38847480e-04
2.78500000e-01	1.69491978e-02	2.36290795e-04
2.79000000e-01	1.72328008e-02	2.38979222e-04
2.79500000e-01	1.70215726e-02	2.35724536e-04
2.80000000e-01	1.72046299e-02	2.38301952e-04
2.80500000e-01	1.70674658e-02	2.37101062e-04
2.81000000e-01	1.70433343e-02	2.36185657e-04
2.81500000e-01	1.70163286e-02	2.34997502e-04
2.82000000e-01	1.72133731e-02	2.37485724e-04
2.82500000e-01	1.69881708e-02	2.35231962e-04
2.83000000e-01	1.69027923e-02	2.31888686e-04
2.83500000e-01	1.69504120e-02	2.33530141e-04
2.84000000e-01	1.68011188e-02	2.31386013e-04
2.84500000e-01	1.69506374e-02	2.32532890e-04
2.85000000e-01	1.70140694e-02	2.33696715e-04
2.85500000e-01	1.68454810e-02	2.30802321e-04
2.86000000e-01	1.67723288e-02	2.31172041e-04
2.86500000e-01	1.67065055e-02	2.29337626e-04
2.87000000e-01	1.70802779e-02	2.33320631e-04
2.87500000e-01	1.68355105e-02	2.29971657e-04
2.88000000e-01	1.72107543e-02	2.32792563e-04
2.88500000e-01	1.68807322e-02	2.30461502e-04
2.89000000e-01	1.68223176e-02	2.29663440e-04
2.89500000e-01	1.69708039e-02	2.30375042e-04
2.90000000e-01	1.67309780e-02	2.28446484e-04
2.90500000e-01	1.68180695e-02	2.28885525e-04
2.91000000e-01	1.70164868e-02	2.30226382e-04
2.91500000e-01	1.68486428e-02	2.28683432e-04
2.92000000e-01	1.68220646e-02	2.27656829e-04
2.92500000e-01	1.68415629e-02	2.27152477e-04
2.93000000e-01	1.68960204e-02	2.27914220e-04
2.93500000e-01	1.69409185e-02	2.29004562e-04
2.94000000e-01	1.67555962e-02	2.25853398e-04
2.94500000e-01	1.68601621e-02	2.27894971e-04
2.95000000e-01	1.67797496e-02	2.25807835e-04
2.95500000e-01	1.67929415e-02	2.26028180e-04
2.96000000e-01	1.67064486e-02	2.24148631e-04
2.96500000e-01	1.66245943e-02	2.23382755e-04
2.97000000e-01	1.68953384e-02	2.26875888e-04
2.97500000e-01	1.67110555e-02	2.23885634e-04
2.98000000e-01	1.67025365e-02	2.23784253e-04
2.98500000e-01	1.67248830e-02	2.24950604e-04
2.99000000e-01	1.67804339e-02	2.24830506e-04
2.99500000e-01	1.68514998e-02	2.26202785e-04
3.00000000e-01	1.67901876e-02	2.24178235e-04
3.00500000e-01	1.67196764e-02	2.23136768e-04
3.01000000e-01	1.68078516e-02	2.23723789e-04
3.01500000e-01	1.66944499e-02	2.22587228e-04
3.02000000e-01	1.66735656e-02	2.21217097e-04
3.02500000e-01	1.68407388e-02	2.23792154e-04
3.03000000e-01	1.65907583e-02	2.20652514e-04
3.03500000e-01	1.63700381e-02	2.17908085e-04
3.04000000e-01	1.67292977e-02	2.22531519e-04
3.04500000e-01	1.66586396e-02	2.21025858e-04
3.05000000e-01	1.68302106e-02	2.22576337e-04
3.05500000e-01	1.68285326e-02	2.23688307e-04
3.06000000e-01	1.66778456e-02	2.19554380e-04
3.06500000e-01	1.67365921e-02	2.21270778e-04
3.07000000e-01	1.67821907e-02	2.21434308e-04
3.07500000e-01	1.65159638e-02	2.18135070e-04
3.08000000e-01	1.65298752e-02	2.18356953e-04
3.08500000e-01	1.66119312e-02	2.17930644e-04
3.09000000e-01	1.68495339e-02	2.21286110e-04
3.09500000e-01	1.66432936e-02	2.18237380e-04
3.10000000e-01	1.66296591e-02	2.19042018e-04
3.10500000e-01	1.63608705e-02	2.15907680e-04
3.11000000e-01	1.65544162e-02	2.17377322e-04
3.11500000e-01	1.66075416e-02	2.17819075e-04
3.12000000e-01	1.65847276e-02	2.17023069e-04
3.12500000e-01	1.64470891e-02	2.15211315e-04
3.13000000e-01	1.65545593e-02	2.16794800e-04
3.13500000e-01	1.66893744e-02	2.18220810e-04
3.14000000e-01	1.65102364e-02	2.16145196e-04
3.14500000e-01	1.65906418e-02	2.16307284e-04
3.15000000e-01	1.66422223e-02	2.17245031e-04
3.15500000e-01	1.63308860e-02	2.13150792e-04
3.16000000e-01	1.66139578e-02	2.15899491e-04
3.16500000e-01	1.64719617e-02	2.14560911e-04
3.17000000e-01	1.66243904e-02	2.16044813e-04
3.17500000e-01	1.65055392e-02	2.14741080e-04
3.18000000e-01	1.66204484e-02	2.15375381e-04
3.18500000e-01	1.63294414e-02	2.12085069e-04
3.19000000e-01	1.65046525e-02	2.13344853e-04
3.19500000e-01	1.64199501e-02	2.13174092e-04
3.20000000e-01	1.62796946e-02	2.11055513e-04
3.20500000e-01	1.63872510e-02	2.11667259e-04
3.21000000e-01	1.62933475e-02	2.11126419e-04
3.21500000e-01	1.60676206e-02	2.08360773e-04
3.22000000e-01	1.64001385e-02	2.11984874e-04
3.22500000e-01	1.62283583e-02	2.09770583e-04
3.23000000e-01	1.64926128e-02	2.12182518e-04
3.23500000e-01	1.61932568e-02	2.08870375e-04
3.24000000e-01	1.64536987e-02	2.11852722e-04
3.24500000e-01	1.62715007e-02	2.09842244e-04
3.25000000e-01	1.62727347e-02	2.09216940e-04
3.25500000e-01	1.62615202e-02	2.09263932e-04
3.26000000e-01	1.63322941e-02	2.08627472e-04
3.26500000e-01	1.61667514e-02	2.07842953e-04
3.27000000e-01	1.62504092e-02	2.09155345e-04
3.27500000e-01	1.63307404e-02	2.09051665e-04
3.28000000e-01	1.61532352e-02	2.06722580e-04
3.28500000e-01	1.60045618e-02	2.05544300e-04
3.29000000e-01	1.60426404e-02	2.05434682e-04
3.29500000e-01	1.61916066e-02	2.07536664e-04
3.30000000e-01	1.62711269e-02	2.07332207e-04
3.30500000e-01	1.60691909e-02	2.05161732e-04
3.31000000e-01	1.61581292e-02	2.06055609e-04
3.31500000e-01	1.61332215e-02	2.05749104e-04
3.32000000e-01	1.61474999e-02	2.05759906e-04
3.32500000e-01	1.61683129e-02	2.05992650e-04
3.33000000e-01	1.61450200e-02	2.05296467e-04
3.33500000e-01	1.61977502e-02	2.05618832e-04
3.34000000e-01	1.62504936e-02	2.06037015e-04
3.34500000e-01	1.61850180e-02	2.04701579e-04
3.35000000e-01	1.61004628e-02	2.03845366e-04
3.35500000e-01	1.61877350e-02	2.04778279e-04
3.36000000e-01	1.60738068e-02	2.04138599e-04
3.36500000e-01	1.60212576e-02	2.03137543e-04
3.37000000e-01	1.61039134e-02	2.03725252e-04
3.37500000e-01	1.60693003e-02	2.03049834e-04
3.38000000e-01	1.59268232e-02	2.00995351e-04
3.38500000e-01	1.59502127e-02	2.00747370e-04
3.39000000e-01	1.60434625e-02	2.03051834e-04
3.39500000e-01	1.59606760e-02	2.00804697e-04
3.40000000e-01	1.61334202e-02	2.02809869e-04
3.40500000e-01	1.59606573e-02	2.01058595e-04
3.41000000e-01	1.61192073e-02	2.02914640e-04
3.41500000e-01	1.60783190e-02	2.02127915e-04
3.42000000e-01	1.60296826e-02	2.00971445e-04
3.42500000e-01	1.58694358e-02	1.99210812e-04
3.43000000e-01	1.60682645e-02	2.00515969e-04
3.43500000e-01	1.58037187e-02	1.97908139e-04
3.44000000e-01	1.59951516e-02	2.00544358e-04
3.44500000e-01	1.60391331e-02	2.00484125e-04
3.45000000e-01	1.57886453e-02	1.97607540e-04
3.45500000e-01	1.58410380e-02	1.97597039e-04
3.46000000e-01	1.60509929e-02	2.00528432e-04
3.46500000e-01	1.59868864e-02	1.99196543e-04
3.47000000e-01	1.61431231e-02	2.00469208e-04
3.47500000e-01	1.58683470e-02	1.97803035e-04
3.48000000e-01	1.59329406e-02	1.98174861e-04
3.48500000e-01	1.58831029e-02	1.98061674e-04
3.49000000e-01	1.59139680e-02	1.97680365e-04
3.49500000e-01	1.58878708e-02	1.97590514e-04
3.50000000e-01	1.59612906e-02	1.61942571e-04
3.51000000e-01	1.58207561e-02	1.38773176e-04
3.52000000e-01	1.59096187e-02	1.39270581e-04
3.53000000e-01	1.58507337e-02	1.38187642e-04
3.54000000e-01	1.56117581e-02	1.36337692e-04
3.55000000e-01	1.57683920e-02	1.37313476e-04
3.56000000e-01	1.58396549e-02	1.38623016e-04
3.57000000e-01	1.57183080e-02	1.39840052e-04
3.58000000e-01	1.56413029e-02	1.40637676e-04
3.59000000e-01	1.57644495e-02	1.42451324e-04
3.60000000e-01	1.55520766e-02	1.41756625e-04
3.61000000e-01	1.56176200e-02	1.42827200e-04
3.62000000e-01	1.54522011e-02	1.42376231e-04
3.63000000e-01	1.55064376e-02	1.43248295e-04
3.64000000e-01	1.55272409e-02	1.44147410e-04
3.65000000e-01	1.56059571e-02	1.45114103e-04
3.66000000e-01	1.56073508e-02	1.43501899e-04
3.67000000e-01	1.57026453e-02	1.41921208e-04
3.68000000e-01	1.55419673e-02	1.39634592e-04
3.69000000e-01	1.55636721e-02	1.39042710e-04
3.70000000e-01	1.53674361e-02	1.36770570e-04
3.71000000e-01	1.55690551e-02	1.40442114e-04
3.72000000e-01	1.55776619e-02	1.41341638e-04
3.73000000e-01	1.55723922e-02	1.41720001e-04
3.74000000e-01	1.56130241e-02	1.42125721e-04
3.75000000e-01	1.54706137e-02	1.41054085e-04
3.76000000e-01	1.55208350e-02	1.41304691e-04
3.77000000e-01	1.54694142e-02	1.40838136e-04
3.78000000e-01	1.54794318e-02	1.41327974e-04
3.79000000e-01	1.54788418e-02	1.40751051e-04
3.80000000e-01	1.53877125e-02	1.40007710e-04
3.81000000e-01	1.53688314e-02	1.39625698e-04
3.82000000e-01	1.55749153e-02	1.41270475e-04
3.83000000e-01	1.53515121e-02	1.39305499e-04
3.84000000e-01	1.55293771e-02	1.40995318e-04
3.85000000e-01	1.52767013e-02	1.39090571e-04
3.86000000e-01	1.53246387e-02	1.39037314e-04
3.87000000e-01	1.51905269e-02	1.38203777e-04
3.88000000e-01	1.53081880e-02	1.38598038e-04
3.89000000e-01	1.54136590e-02	1.39596481e-04
3.90000000e-01	1.52077208e-02	1.37954942e-04
3.91000000e-01	1.53465575e-02	1.39032198e-04
3.92000000e-01	1.53147809e-02	1.38978404e-04
3.93000000e-01	1.53480082e-02	1.39049193e-04
3.94000000e-01	1.53585841e-02	1.39267354e-04
3.95000000e-01	1.51683093e-02	1.37813678e-04
3.96000000e-01	1.52425427e-02	1.38513948e-04
3.97000000e-01	1.51578925e-02	1.37450341e-04
3.98000000e-01	1.52075701e-02	1.37756504e-04
3.99000000e-01	1.50245713e-02	1.36651350e-04
4.00000000e-01	1.51130640e-02	1.36898777e-04
4.01000000e-01	1.52225836e-02	1.38324179e-04
4.02000000e-01	1.50162024e-02	1.36290346e-04
4.03000000e-01	1.50744535e-02	1.36619752e-04
4.04000000e-01	1.50674242e-02	1.36598019e-04
4.05000000e-01	1.50888453e-02	1.36882193e-04
4.06000000e-01	1.49891194e-02	1.36254571e-04
4.07000000e-01	1.49720119e-02	1.35615391e-04
4.08000000e-01	1.50674302e-02	1.36455293e-04
4.09000000e-01	1.49743133e-02	1.35752315e-04
4.10000000e-01	1.49377955e-02	1.35470582e-04
4.11000000e-01	1.48976106e-02	1.35257362e-04
4.12000000e-01	1.48995714e-02	1.35049564e-04
4.13000000e-01	1.50518873e-02	1.35938822e-04
4.14000000e-01	1.49572501e-02	1.35209907e-04
4.15000000e-01	1.48242636e-02	1.33798225e-04
4.16000000e-01	1.50987027e-02	1.36130878e-04
4.17000000e-01	1.49240722e-02	1.34574040e-04
4.18000000e-01	1.50052127e-02	1.36827059e-04
4.19000000e-01	1.49756138e-02	1.38489066e-04
4.20000000e-01	1.49925080e-02	1.38837318e-04
4.21000000e-01	1.50597403e-02	1.39875729e-04
4.22000000e-01	1.50309915e-02	1.40320547e-04
4.23000000e-01	1.49207066e-02	1.39687669e-04
4.24000000e-01	1.50512042e-02	1.41607014e-04
4.25000000e-01	1.50106568e-02	1.41418550e-04
4.26000000e-01	1.49787608e-02	1.41232059e-04
4.27000000e-01	1.49408430e-02	1.40713230e-04
4.28000000e-01	1.50050081e-02	1.41989106e-04
4.29000000e-01	1.49984679e-02	1.41779836e-04
4.30000000e-01	1.49481942e-02	1.41533336e-04
4.31000000e-01	1.48268974e-02	1.39813584e-04
4.32000000e-01	1.48966541e-02	1.40827500e-04
4.33000000e-01	1.48754047e-02	1.40826126e-04
4.34000000e-01	1.48385387e-02	1.40862735e-04
4.35000000e-01	1.48250341e-02	1.40532883e-04
4.36000000e-01	1.47199014e-02	1.39848638e-04
4.37000000e-01	1.49201288e-02	1.41862639e-04
4.38000000e-01	1.48174863e-02	1.40815092e-04
4.39000000e-01	1.48001821e-02	1.41375694e-04
4.40000000e-01	1.48948902e-02	1.41784125e-04
4.41000000e-01	1.48658511e-02	1.42161038e-04
4.42000000e-01	1.48073488e-02	1.41993685e-04
4.43000000e-01	1.47604396e-02	1.41749100e-04
4.44000000e-01	1.48380733e-02	1.42161651e-04
4.45000000e-01	1.46934083e-02	1.41334724e-04
4.46000000e-01	1.46976530e-02	1.41330844e-04
4.47000000e-01	1.48043912e-02	1.42005757e-04
4.48000000e-01	1.48280997e-02	1.42735585e-04
4.49000000e-01	1.46929828e-02	1.42250274e-04
4.50000000e-01	1.47955547e-02	1.42768853e-04
4.51000000e-01	1.47986832e-02	1.42624235e-04
4.52000000e-01	1.46470760e-02	1.42090902e-04
4.53000000e-01	1.45808437e-02	1.41033669e-04
4.54000000e-01	1.47199447e-02	1.42910196e-04
4.55000000e-01	1.46758700e-02	1.42144991e-04
4.56000000e-01	1.46861645e-02	1.42700393e-04
4.57000000e-01	1.46406854e-02	1.42314806e-04
4.58000000e-01	1.46343395e-02	1.41852483e-04
4.59000000e-01	1.46047228e-02	1.42307316e-04
4.60000000e-01	1.46740228e-02	1.42734825e-04
4.61000000e-01	1.46646314e-02	1.42848311e-04
4.62000000e-01	1.46748846e-02	1.43154455e-04
4.63000000e-01	1.46165253e-02	1.43024524e-04
4.64000000e-01	1.46560640e-02	1.43374741e-04
4.65000000e-01	1.43910877e-02	1.41180868e-04
4.66000000e-01	1.45898380e-02	1.42442395e-04
4.67000000e-01	1.46841423e-02	1.43776788e-04
4.68000000e-01	1.45939634e-02	1.43264704e-04
4.69000000e-01	1.46336867e-02	1.43870573e-04
4.70000000e-01	1.44826287e-02	1.42577897e-04
4.71000000e-01	1.45565289e-02	1.42591114e-04
4.72000000e-01	1.44411214e-02	1.41596187e-04
4.73000000e-01	1.43843818e-02	1.40828606e-04
4.74000000e-01	1.44436938e-02	1.41670236e-04
4.75000000e-01	1.43967770e-02	1.41347068e-04
4.76000000e-01	1.44657836e-02	1.41669025e-04
4.77000000e-01	1.43523975e-02	1.41011473e-04
4.78000000e-01	1.44918444e-02	1.42498206e-04
4.79000000e-01	1.44373396e-02	1.41768933e-04
4.80000000e-01	1.44746269e-02	1.42331082e-04
4.81000000e-01	1.45278865e-02	1.42796735e-04
4.82000000e-01	1.43497146e-02	1.41017252e-04
4.83000000e-01	1.44253615e-02	1.41441039e-04
4.84000000e-01	1.43339591e-02	1.41078221e-04
4.85000000e-01	1.44611137e-02	1.42673976e-04
4.86000000e-01	1.44431586e-02	1.42192491e-04
4.87000000e-01	1.42937751e-02	1.41159235e-04
4.88000000e-01	1.44065223e-02	1.41954999e-04
4.89000000e-01	1.43922352e-02	1.42423075e-04
4.90000000e-01	1.43146678e-02	1.41595890e-04
4.91000000e-01	1.43660993e-02	1.42542672e-04
4.92000000e-01	1.41920980e-02	1.40669620e-04
4.93000000e-01	1.43516205e-02	1.41725937e-04
4.94000000e-01	1.43281115e-02	1.41800380e-04
4.95000000e-01	1.42375932e-02	1.42133720e-04
4.96000000e-01	1.42523539e-02	1.46189384e-04
4.97000000e-01	1.43260985e-02	1.49197530e-04
4.98000000e-01	1.43342744e-02	1.52102464e-04
4.99000000e-01	1.42361185e-02	1.53019219e-04
5.00000000e-01	1.42606288e-02	1.54058942e-04
5.01000000e-01	1.44104548e-02	1.57393688e-04
5.02000000e-01	1.43244569e-02	1.58608795e-04
5.03000000e-01	1.42316745e-02	1.58873314e-04
5.04000000e-01	1.40546327e-02	1.57972417e-04
5.05000000e-01	1.42687825e-02	1.58271842e-04
5.06000000e-01	1.43320651e-02	1.55086466e-04
5.07000000e-01	1.43726805e-02	1.54156882e-04
5.08000000e-01	1.43143932e-02	1.52759374e-04
5.09000000e-01	1.42187881e-02	1.50816955e-04
5.10000000e-01	1.43405306e-02	1.52063518e-04
5.11000000e-01	1.43266931e-02	1.50708811e-04
5.12000000e-01	1.41732577e-02	1.48978438e-04
5.13000000e-01	1.41001514e-02	1.48030340e-04
5.14000000e-01	1.41251659e-02	1.48226236e-04
5.15000000e-01	1.42843435e-02	1.49455132e-04
5.16000000e-01	1.41708906e-02	1.48044524e-04
5.17000000e-01	1.41407427e-02	1.47807509e-04
5.18000000e-01	1.41547119e-02	1.47117721e-04
5.19000000e-01	1.40897308e-02	1.46521775e-04
5.20000000e-01	1.41973733e-02	1.46827210e-04
5.21000000e-01	1.41628304e-02	1.46520919e-04
5.22000000e-01	1.40457320e-02	1.45022027e-04
5.23000000e-01	1.41857455e-02	1.46107609e-04
5.24000000e-01	1.41741870e-02	1.46453856e-04
5.25000000e-01	1.40795348e-02	1.45298008e-04
5.26000000e-01	1.40151453e-02	1.44556487e-04
5.27000000e-01	1.39743978e-02	1.44570766e-04
5.28000000e-01	1.40431259e-02	1.45297980e-04
5.29000000e-01	1.39821449e-02	1.44203071e-04
5.30000000e-01	1.40589953e-02	1.45112769e-04
5.31000000e-01	1.38370544e-02	1.43465872e-04
5.32000000e-01	1.40618820e-02	1.45421754e-04
5.33000000e-01	1.39829716e-02	1.44295278e-04
5.34000000e-01	1.41748213e-02	1.46293287e-04
5.35000000e-01	1.39269676e-02	1.44029234e-04
5.36000000e-01	1.40593902e-02	1.45224453e-04
5.37000000e-01	1.39390121e-02	1.43625984e-04
5.38000000e-01	1.40485155e-02	1.45497305e-04
5.39000000e-01	1.38946235e-02	1.43537007e-04
5.40000000e-01	1.38200736e-02	1.42611165e-04
5.41000000e-01	1.38130602e-02	1.42684642e-04
5.42000000e-01	1.39856102e-02	1.44486461e-04
5.43000000e-01	1.38871418e-02	1.43202544e-04
5.44000000e-01	1.37625520e-02	1.42868645e-04
5.45000000e-01	1.39079314e-02	1.44232065e-04
5.46000000e-01	1.38838001e-02	1.43052506e-04
5.47000000e-01	1.38805110e-02	1.43745359e-04
5.48000000e-01	1.38126479e-02	1.42537394e-04
5.49000000e-01	1.36721776e-02	1.41344597e-04
5.50000000e-01	1.38064611e-02	1.42548941e-04
5.51000000e-01	1.37305331e-02	1.41540911e-04
5.52000000e-01	1.36456417e-02	1.40670652e-04
5.53000000e-01	1.37356204e-02	1.41194121e-04
5.54000000e-01	1.36532630e-02	1.40358506e-04
5.55000000e-01	1.37005017e-02	1.40715572e-04
5.56000000e-01	1.37070475e-02	1.40751013e-04
5.57000000e-01	1.37402413e-02	1.40834999e-04
5.58000000e-01	1.36746487e-02	1.40457908e-04
5.59000000e-01	1.36248236e-02	1.40258005e-04
5.60000000e-01	1.36565253e-02	1.40890175e-04
5.61000000e-01	1.35707881e-02	1.39321903e-04
5.62000000e-01	1.36189707e-02	1.40005763e-04
5.63000000e-01	1.37483290e-02	1.41356426e-04
5.64000000e-01	1.35504110e-02	1.40004432e-04
5.65000000e-01	1.35360618e-02	1.38787405e-04
5.66000000e-01	1.34990407e-02	1.39248245e-04
5.67000000e-01	1.35754038e-02	1.39752039e-04
5.68000000e-01	1.36683882e-02	1.40744741e-04
5.69000000e-01	1.36897255e-02	1.40254306e-04
5.70000000e-01	1.35943941e-02	1.39023488e-04
5.71000000e-01	1.36278117e-02	1.39375306e-04
5.72000000e-01	1.34452928e-02	1.38345068e-04
5.73000000e-01	1.36451638e-02	1.40657161e-04
5.74000000e-01	1.35112209e-02	1.38678984e-04
5.75000000e-01	1.35064227e-02	1.39341851e-04
5.76000000e-01	1.34090572e-02	1.38218541e-04
5.77000000e-01	1.34030835e-02	1.38110293e-04
5.78000000e-01	1.34745912e-02	1.38981801e-04
5.79000000e-01	1.35068006e-02	1.38860081e-04
5.80000000e-01	1.34474463e-02	1.38525988e-04
5.81000000e-01	1.34632129e-02	1.38648572e-04
5.82000000e-01	1.34049463e-02	1.38371352e-04
5.83000000e-01	1.33075730e-02	1.37626779e-04
5.84000000e-01	1.35277600e-02	1.39602610e-04
5.85000000e-01	1.35270577e-02	1.39554568e-04
5.86000000e-01	1.33801083e-02	1.38129374e-04
5.87000000e-01	1.34070198e-02	1.38025962e-04
5.88000000e-01	1.33592562e-02	1.37838728e-04
5.89000000e-01	1.34661111e-02	1.39240390e-04
5.90000000e-01	1.33840000e-02	1.37794287e-04
5.91000000e-01	1.33893407e-02	1.38597446e-04
5.92000000e-01	1.33712620e-02	1.38223417e-04
5.93000000e-01	1.32970147e-02	1.37636088e-04
5.94000000e-01	1.33022474e-02	1.37417552e-04
5.95000000e-01	1.33166486e-02	1.37866498e-04
5.96000000e-01	1.33317093e-02	1.38166757e-04
5.97000000e-01	1.31395187e-02	1.36281102e-04
5.98000000e-01	1.32480773e-02	1.37438492e-04
5.99000000e-01	1.33105169e-02	1.37589814e-04
6.00000000e-01	1.31574410e-02	1.36251019e-04
6.01000000e-01	1.32644537e-02	1.37495789e-04
6.02000000e-01	1.32135234e-02	1.36792372e-04
6.03000000e-01	1.31149413e-02	1.36144714e-04
6.04000000e-01	1.33145686e-02	1.37738099e-04
6.05000000e-01	1.32277411e-02	1.37013604e-04
6.06000000e-01	1.31992922e-02	1.36322780e-04
6.07000000e-01	1.31443548e-02	1.36658310e-04
6.08000000e-01	1.32149133e-02	1.36999265e-04
6.09000000e-01	1.31855645e-02	1.37053118e-04
6.10000000e-01	1.32357514e-02	1.37165574e-04
6.11000000e-01	1.30705468e-02	1.36054954e-04
6.12000000e-01	1.33642998e-02	1.38287618e-04
6.13000000e-01	1.31848778e-02	1.36598344e-04
6.14000000e-01	1.31209870e-02	1.36317655e-04
6.15000000e-01	1.31128552e-02	1.36357354e-04
6.16000000e-01	1.32147690e-02	1.36982929e-04
6.17000000e-01	1.32159129e-02	1.37045660e-04
6.18000000e-01	1.30424555e-02	1.36176803e-04
6.19000000e-01	1.30622508e-02	1.35249569e-04
6.20000000e-01	1.31539854e-02	1.36181029e-04
6.21000000e-01	1.31477397e-02	1.36184071e-04
6.22000000e-01	1.30498011e-02	1.34752380e-04
6.23000000e-01	1.30308155e-02	1.34666447e-04
6.24000000e-01	1.32634011e-02	1.36125514e-04
6.25000000e-01	1.30978998e-02	1.35080727e-04
6.26000000e-01	1.30669748e-02	1.34252062e-04
6.27000000e-01	1.29915471e-02	1.34271572e-04
6.28000000e-01	1.30331843e-02	1.34517086e-04
6.29000000e-01	1.31668625e-02	1.35798947e-04
6.30000000e-01	1.30227303e-02	1.33972910e-04
6.31000000e-01	1.30274248e-02	1.34596392e-04
6.32000000e-01	1.30450380e-02	1.34447580e-04
6.33000000e-01	1.30471738e-02	1.34422285e-04
6.34000000e-01	1.29892494e-02	1.37111067e-04
6.35000000e-01	1.30084475e-02	1.41473251e-04
6.36000000e-01	1.30033830e-02	1.43890386e-04
6.37000000e-01	1.30161349e-02	1.46874914e-04
6.38000000e-01	1.30024858e-02	1.48113947e-04
6.39000000e-01	1.30372990e-02	1.50379428e-04
6.40000000e-01	1.29765887e-02	1.51858431e-04
6.41000000e-01	1.29892547e-02	1.53085901e-04
6.42000000e-01	1.29633014e-02	1.54936096e-04
6.43000000e-01	1.28929093e-02	1.54053216e-04
6.44000000e-01	1.30531403e-02	1.50190930e-04
6.45000000e-01	1.29932753e-02	1.47383884e-04
6.46000000e-01	1.31978986e-02	1.48219152e-04
6.47000000e-01	1.30466842e-02	1.45201289e-04
6.48000000e-01	1.29638698e-02	1.44311313e-04
6.49000000e-01	1.30107973e-02	1.43461115e-04
6.50000000e-01	1.30807365e-02	1.43421043e-04
6.51000000e-01	1.29808986e-02	1.42217012e-04
6.52000000e-01	1.30786946e-02	1.42657610e-04
6.53000000e-01	1.29837494e-02	1.40620016e-04
6.54000000e-01	1.29891887e-02	1.40712994e-04
6.55000000e-01	1.29471534e-02	1.39837597e-04
6.56000000e-01	1.29973662e-02	1.40142097e-04
6.57000000e-01	1.29407457e-02	1.39410980e-04
6.58000000e-01	1.28789775e-02	1.38478447e-04
6.59000000e-01	1.29296889e-02	1.39094829e-04
6.60000000e-01	1.29219783e-02	1.38961254e-04
6.61000000e-01	1.28851326e-02	1.37920875e-04
6.62000000e-01	1.29504301e-02	1.39544722e-04
6.63000000e-01	1.28250281e-02	1.37665358e-04
6.64000000e-01	1.29405372e-02	1.38652155e-04
6.65000000e-01	1.29171997e-02	1.39070140e-04
6.66000000e-01	1.28774968e-02	1.37908923e-04
6.67000000e-01	1.29500898e-02	1.38791199e-04
6.68000000e-01	1.27793017e-02	1.37570028e-04
6.69000000e-01	1.29143490e-02	1.37981659e-04
6.70000000e-01	1.28160970e-02	1.37351634e-04
6.71000000e-01	1.29242808e-02	1.38183991e-04
6.72000000e-01	1.27996766e-02	1.37093404e-04
6.73000000e-01	1.28608678e-02	1.37625523e-04
6.74000000e-01	1.27995353e-02	1.36859260e-04
6.75000000e-01	1.30120021e-02	1.39163024e-04
6.76000000e-01	1.27264265e-02	1.36541487e-04
6.77000000e-01	1.29491908e-02	1.38168836e-04
6.78000000e-01	1.28696524e-02	1.37127990e-04
6.79000000e-01	1.28636078e-02	1.37122956e-04
6.80000000e-01	1.28378639e-02	1.37132858e-04
6.81000000e-01	1.28512064e-02	1.36941408e-04
6.82000000e-01	1.28111378e-02	1.36620478e-04
6.83000000e-01	1.27389435e-02	1.36380078e-04
6.84000000e-01	1.27083468e-02	1.35631180e-04
6.85000000e-01	1.28224538e-02	1.36314786e-04
6.86000000e-01	1.27568966e-02	1.36027976e-04
6.87000000e-01	1.27990178e-02	1.36573614e-04
6.88000000e-01	1.27077610e-02	1.35519238e-04
6.89000000e-01	1.26546873e-02	1.34463735e-04
6.90000000e-01	1.26913354e-02	1.35475994e-04
6.91000000e-01	1.26445104e-02	1.34527983e-04
6.92000000e-01	1.27241826e-02	1.35292728e-04
6.93000000e-01	1.26042725e-02	1.34403201e-04
6.94000000e-01	1.27234784e-02	1.35366755e-04
6.95000000e-01	1.25977366e-02	1.33788095e-04
6.96000000e-01	1.25854749e-02	1.34019889e-04
6.97000000e-01	1.26053669e-02	1.34390384e-04
6.98000000e-01	1.25887910e-02	1.34439886e-04
6.99000000e-01	1.26905503e-02	1.35038810e-04
7.00000000e-01	1.26432596e-02	1.34512909e-04
7.01000000e-01	1.25591949e-02	1.33900120e-04
7.02000000e-01	1.26062522e-02	1.34319451e-04
7.03000000e-01	1.26308803e-02	1.34769446e-04
7.04000000e-01	1.25957013e-02	1.34329456e-04
7.05000000e-01	1.25764013e-02	1.34233578e-04
7.06000000e-01	1.26921995e-02	1.35004048e-04
7.07000000e-01	1.24086383e-02	1.32806550e-04
7.08000000e-01	1.25682238e-02	1.33507140e-04
7.09000000e-01	1.24598108e-02	1.32786741e-04
7.10000000e-01	1.24249995e-02	1.31992177e-04
7.11000000e-01	1.24948995e-02	1.33238395e-04
7.12000000e-01	1.25334769e-02	1.33054857e-04
7.13000000e-01	1.24304338e-02	1.32065912e-04
7.14000000e-01	1.22896822e-02	1.30781233e-04
7.15000000e-01	1.24062550e-02	1.32332482e-04
7.16000000e-01	1.24180380e-02	1.32288872e-04
7.17000000e-01	1.23698624e-02	1.32143103e-04
7.18000000e-01	1.23118941e-02	1.31248340e-04
7.19000000e-01	1.24064295e-02	1.32012272e-04
7.20000000e-01	1.24308211e-02	1.32647469e-04
7.21000000e-01	1.23600687e-02	1.31477761e-04
7.22000000e-01	1.22507163e-02	1.30471737e-04
7.23000000e-01	1.22561875e-02	1.30804812e-04
7.24000000e-01	1.22835230e-02	1.31262934e-04
7.25000000e-01	1.23633270e-02	1.31654149e-04
7.26000000e-01	1.22342260e-02	1.30409868e-04
7.27000000e-01	1.23538277e-02	1.31845547e-04
7.28000000e-01	1.23148887e-02	1.31009327e-04
7.29000000e-01	1.23383778e-02	1.31477824e-04
7.30000000e-01	1.22441315e-02	1.30844029e-04
7.31000000e-01	1.23720387e-02	1.31879858e-04
7.32000000e-01	1.22049657e-02	1.30399467e-04
7.33000000e-01	1.22252548e-02	1.30686512e-04
7.34000000e-01	1.21499618e-02	1.29646918e-04
7.35000000e-01	1.22083851e-02	1.29876615e-04
7.36000000e-01	1.22239414e-02	1.29993904e-04
7.37000000e-01	1.22284661e-02	1.29995888e-04
7.38000000e-01	1.21254833e-02	1.28669635e-04
7.39000000e-01	1.22279613e-02	1.28957250e-04
7.40000000e-01	1.21052223e-02	1.27992831e-04
7.41000000e-01	1.21999934e-02	1.28796029e-04
7.42000000e-01	1.22498785e-02	1.29276317e-04
7.43000000e-01	1.21409534e-02	1.28053262e-04
7.44000000e-01	1.21666360e-02	1.28365565e-04
7.45000000e-01	1.20263946e-02	1.27549830e-04
7.46000000e-01	1.20772838e-02	1.28129055e-04
7.47000000e-01	1.22409971e-02	1.28815446e-04
7.48000000e-01	1.20567639e-02	1.27284945e-04
7.49000000e-01	1.20601144e-02	1.27944495e-04
7.50000000e-01	1.20701817e-02	1.27435446e-04
7.51000000e-01	1.20043899e-02	1.26724197e-04
7.52000000e-01	1.20182042e-02	1.27378945e-04
7.53000000e-01	1.19811157e-02	1.26678789e-04
7.54000000e-01	1.19029112e-02	1.26059873e-04
7.55000000e-01	1.20719987e-02	1.27936726e-04
7.56000000e-01	1.20765092e-02	1.27521063e-04
7.57000000e-01	1.19582113e-02	1.26493599e-04
7.58000000e-01	1.19986412e-02	1.26367421e-04
7.59000000e-01	1.20144563e-02	1.26939275e-04
7.60000000e-01	1.18718811e-02	1.25632211e-04
7.61000000e-01	1.18684775e-02	1.25383867e-04
7.62000000e-01	1.19784641e-02	1.26157513e-04
7.63000000e-01	1.19912480e-02	1.25986084e-04
7.64000000e-01	1.20556703e-02	1.26336865e-04
7.65000000e-01	1.18775206e-02	1.24644887e-04
7.66000000e-01	1.18447411e-02	1.24458324e-04
7.67000000e-01	1.18445303e-02	1.24441876e-04
7.68000000e-01	1.18224632e-02	1.23790610e-04
7.69000000e-01	1.19154486e-02	1.24740163e-04
7.70000000e-01	1.18117560e-02	1.24333040e-04
7.71000000e-01	1.17643004e-02	1.23488823e-04
7.72000000e-01	1.19175020e-02	1.29014613e-04
7.73000000e-01	1.17853253e-02	1.31674873e-04
7.74000000e-01	1.17897806e-02	1.34591514e-04
7.75000000e-01	1.17992137e-02	1.36754493e-04
7.76000000e-01	1.17626885e-02	1.38346310e-04
7.77000000e-01	1.17124061e-02	1.40147097e-04
7.78000000e-01	1.18742448e-02	1.43520042e-04
7.79000000e-01	1.17530667e-02	1.43836556e-04
7.80000000e-01	1.16816486e-02	1.44299922e-04
7.81000000e-01	1.17296696e-02	1.47204848e-04
7.82000000e-01	1.16572743e-02	1.47243620e-04
7.83000000e-01	1.17243752e-02	1.50158893e-04
7.84000000e-01	1.17315318e-02	1.51714885e-04
7.85000000e-01	1.18019491e-02	1.53774564e-04
7.86000000e-01	1.16569080e-02	1.54791772e-04
7.87000000e-01	1.16826428e-02	1.55763426e-04
7.88000000e-01	1.15773472e-02	1.56573161e-04
7.89000000e-01	1.16633964e-02	1.58527099e-04
7.90000000e-01	1.14761811e-02	1.57953757e-04
7.91000000e-01	1.14577759e-02	1.59688439e-04
7.92000000e-01	1.15319802e-02	1.61643291e-04
7.93000000e-01	1.18130380e-02	1.67456619e-04
7.94000000e-01	1.15274104e-02	1.65636261e-04
7.95000000e-01	1.15480116e-02	1.67261599e-04
7.96000000e-01	1.14144257e-02	1.67199103e-04
7.97000000e-01	1.13501317e-02	1.69081722e-04
7.98000000e-01	1.15882420e-02	1.73008726e-04
7.99000000e-01	1.14899584e-02	1.73679519e-04
8.00000000e-01	1.14697377e-02	1.74154094e-04
8.01000000e-01	1.15413416e-02	1.77890307e-04
8.02000000e-01	1.15635561e-02	1.79876170e-04
8.03000000e-01	1.13300419e-02	1.78484640e-04
8.04000000e-01	1.14739248e-02	1.82033259e-04
8.05000000e-01	1.15914535e-02	1.86378434e-04
8.06000000e-01	1.13485316e-02	1.84679386e-04
8.07000000e-01	1.14998975e-02	1.87982188e-04
8.08000000e-01	1.13126595e-02	1.88744237e-04
8.09000000e-01	1.11361663e-02	1.87240128e-04
8.10000000e-01	1.12354216e-02	1.91420030e-04
8.11000000e-01	1.14313782e-02	1.95966161e-04
8.12000000e-01	1.14340434e-02	1.98197461e-04
8.13000000e-01	1.14958569e-02	2.01097878e-04
8.14000000e-01	1.14280579e-02	2.02411445e-04
8.15000000e-01	1.10901081e-02	1.99867937e-04
8.16000000e-01	1.13530755e-02	2.07334790e-04
8.17000000e-01	1.14640476e-02	2.11266477e-04
8.18000000e-01	1.13119610e-02	2.10855297e-04
8.19000000e-01	1.12248277e-02	2.12032398e-04
8.20000000e-01	1.11351446e-02	2.13335134e-04
8.21000000e-01	1.09598847e-02	2.12384658e-04
8.22000000e-01	1.11477839e-02	2.19641838e-04
8.23000000e-01	1.09384329e-02	2.19420214e-04
8.24000000e-01	1.10343567e-02	2.23202493e-04
8.25000000e-01	1.11764952e-02	2.28981828e-04
8.26000000e-01	1.11873953e-02	2.33139356e-04
8.27000000e-01	1.11786708e-02	2.35159244e-04
8.28000000e-01	1.10236406e-02	2.36468852e-04
8.29000000e-01	1.09994108e-02	2.39045648e-04
8.30000000e-01	1.10497087e-02	2.44855348e-04
8.31000000e-01	1.10221403e-02	2.48499850e-04
8.32000000e-01	1.09787170e-02	2.51556559e-04
8.33000000e-01	1.10581284e-02	2.56302299e-04
8.34000000e-01	1.09829246e-02	2.59743744e-04
8.35000000e-01	1.13407987e-02	2.74229281e-04
8.36000000e-01	1.08189309e-02	2.65120090e-04
8.37000000e-01	1.07630566e-02	2.69220023e-04
8.38000000e-01	1.11089340e-02	2.83002190e-04
8.39000000e-01	1.10717846e-02	2.88424249e-04
8.40000000e-01	1.09085254e-02	2.87792572e-04
8.41000000e-01	1.05226154e-02	2.88233123e-04
8.42000000e-01	1.06671703e-02	2.99312071e-04
8.43000000e-01	1.07054318e-02	3.04605039e-04
8.44000000e-01	1.07003994e-02	3.13482910e-04
8.45000000e-01	1.05299116e-02	3.17964596e-04
8.46000000e-01	1.06069892e-02	3.25586092e-04
8.47000000e-01	1.13234178e-02	3.55987674e-04
8.48000000e-01	1.11897623e-02	3.65756412e-04
8.49000000e-01	1.11210462e-02	3.75767663e-04
8.50000000e-01	1.10422364e-02	3.82905793e-04
8.51000000e-01	1.10849483e-02	3.96328600e-04
8.52000000e-01	1.07294868e-02	4.02976364e-04
8.53000000e-01	1.06368511e-02	4.19143798e-04
8.54000000e-01	1.08704058e-02	4.41462027e-04
8.55000000e-01	1.08530854e-02	4.58384464e-04
8.56000000e-01	1.05171352e-02	4.59063887e-04
8.57000000e-01	1.08554532e-02	4.87394211e-04
8.58000000e-01	1.02807592e-02	4.84890659e-04
8.59000000e-01	1.06467796e-02	5.08865469e-04
8.60000000e-01	1.06843685e-02	5.17042745e-04
8.61000000e-01	1.06896590e-02	5.53540907e-04
8.62000000e-01	1.11163287e-02	5.77461828e-04
8.63000000e-01	1.02140322e-02	5.62295212e-04
8.64000000e-01	1.04081076e-02	6.13587502e-04
8.65000000e-01	1.01256848e-02	6.19517510e-04
8.66000000e-01	9.94912996e-03	6.49642064e-04
8.67000000e-01	1.07724998e-02	7.14240715e-04
8.68000000e-01	1.01920614e-02	7.25261544e-04
8.69000000e-01	1.03299234e-02	7.88315384e-04
8.70000000e-01	1.01074371e-02	8.50420860e-04
8.71000000e-01	1.06504276e-02	9.71176437e-04
8.72000000e-01	1.13450947e-02	1.19961600e-03
8.73000000e-01	1.16842084e-02	1.37593051e-03
8.74000000e-01	1.11782599e-02	1.88035692e-03
8.75000000e-01	1.36419233e-02	4.34752865e-03
