% Filename : SDL3_p7_00007_00010.h5
% Date & Time : 30-Oct-2025 14:34:05
% X-ray Energy (keV) : 13.30001
% Exposure Time (s) : 0.500
% Beam Center : 1461.24000, 208.98300
% Sample to Detector Distance (SDD) (mm) : 1990.750
% Detector Pixel Size (mm) : 0.075
% Photodiode Value : 134866.000
% I0 of Sample : 0
% I0 of Standard : 1
% 
% q(A^-1)   I(q)    I(q)_SE
0.00000000e+00	5.35841831e-03	2.67920915e-03
2.50000000e-04	0.00000000e+00	0.00000000e+00
5.00000000e-04	0.00000000e+00	0.00000000e+00
7.50000000e-04	0.00000000e+00	0.00000000e+00
1.00000000e-03	0.00000000e+00	0.00000000e+00
1.25000000e-03	0.00000000e+00	0.00000000e+00
1.50000000e-03	0.00000000e+00	0.00000000e+00
1.75000000e-03	0.00000000e+00	0.00000000e+00
2.00000000e-03	0.00000000e+00	0.00000000e+00
2.25000000e-03	0.00000000e+00	0.00000000e+00
2.50000000e-03	0.00000000e+00	0.00000000e+00
2.75000000e-03	0.00000000e+00	0.00000000e+00
3.00000000e-03	0.00000000e+00	0.00000000e+00
3.25000000e-03	1.45276036e+02	8.98780749e+01
3.50000000e-03	4.12710682e+01	1.68875467e+01
3.75000000e-03	2.69332520e+01	1.02492821e+01
4.00000000e-03	1.98333414e+01	6.89697347e+00
4.25000000e-03	9.66927216e+00	3.23644407e+00
4.50000000e-03	1.13597650e+01	3.07423648e+00
4.75000000e-03	1.20777825e+01	2.90386149e+00
5.00000000e-03	9.41490991e+00	2.20712446e+00
5.25000000e-03	7.81767814e+00	1.81171278e+00
5.50000000e-03	6.35146623e+00	1.44374861e+00
5.75000000e-03	5.41314676e+00	1.20772342e+00
6.00000000e-03	4.35071438e+00	9.47924632e-01
6.25000000e-03	3.85786061e+00	8.30307432e-01
6.50000000e-03	3.25861460e+00	6.90738661e-01
6.75000000e-03	2.80632137e+00	5.86130429e-01
7.00000000e-03	2.43865784e+00	4.99231517e-01
7.25000000e-03	2.08859711e+00	4.20074103e-01
7.50000000e-03	1.79685544e+00	3.66280208e-01
7.75000000e-03	1.63605700e+00	3.22712238e-01
8.00000000e-03	1.48558868e+00	2.85421756e-01
8.25000000e-03	1.26914298e+00	2.39186941e-01
8.50000000e-03	1.12060489e+00	2.06236899e-01
8.75000000e-03	1.01684644e+00	1.85316190e-01
9.00000000e-03	9.21396663e-01	1.64564065e-01
9.25000000e-03	7.98338665e-01	1.40697245e-01
9.50000000e-03	7.11984466e-01	1.23235547e-01
9.75000000e-03	6.50207984e-01	1.10396379e-01
1.00000000e-02	5.62842922e-01	9.58339537e-02
1.02500000e-02	5.35085266e-01	8.99232018e-02
1.05000000e-02	4.80873571e-01	7.73315885e-02
1.07500000e-02	4.45181832e-01	7.12783931e-02
1.10000000e-02	3.95084186e-01	6.12808959e-02
1.12500000e-02	3.56730398e-01	5.60231818e-02
1.15000000e-02	3.40578028e-01	5.16233888e-02
1.17500000e-02	2.86997088e-01	4.27224334e-02
1.20000000e-02	2.81907993e-01	4.13693999e-02
1.22500000e-02	2.64038809e-01	3.76938690e-02
1.25000000e-02	2.46402927e-01	3.43066888e-02
1.27500000e-02	2.30202291e-01	3.15290998e-02
1.30000000e-02	2.16632740e-01	2.92772017e-02
1.32500000e-02	1.93190680e-01	2.53878929e-02
1.35000000e-02	1.86466483e-01	2.44776483e-02
1.37500000e-02	1.75301178e-01	2.25775323e-02
1.40000000e-02	1.63497918e-01	2.05721305e-02
1.42500000e-02	1.55128894e-01	1.89277719e-02
1.45000000e-02	1.47103766e-01	1.79564121e-02
1.47500000e-02	1.36539708e-01	1.59966687e-02
1.50000000e-02	1.28341835e-01	1.48629828e-02
1.52500000e-02	1.23199289e-01	1.39704905e-02
1.55000000e-02	1.15191514e-01	1.30216371e-02
1.57500000e-02	1.11091630e-01	1.21253447e-02
1.60000000e-02	1.04927943e-01	1.14129971e-02
1.62500000e-02	1.03083376e-01	1.10691508e-02
1.65000000e-02	9.66937834e-02	9.96837718e-03
1.67500000e-02	9.12026255e-02	9.37932017e-03
1.70000000e-02	8.77783304e-02	8.86647266e-03
1.72500000e-02	8.47249303e-02	8.23962989e-03
1.75000000e-02	7.99120441e-02	7.98402729e-03
1.77500000e-02	7.69745021e-02	7.20447788e-03
1.80000000e-02	7.63428080e-02	7.06109942e-03
1.82500000e-02	7.02459822e-02	6.35639696e-03
1.85000000e-02	7.07768144e-02	6.62495414e-03
1.87500000e-02	6.90279341e-02	6.10362939e-03
1.90000000e-02	6.65838577e-02	5.90448186e-03
1.92500000e-02	6.16193887e-02	5.31328018e-03
1.95000000e-02	5.88570003e-02	4.82505358e-03
1.97500000e-02	6.09366599e-02	5.03952162e-03
2.00000000e-02	5.46904876e-02	4.39479033e-03
2.02500000e-02	5.27871465e-02	4.06983897e-03
2.05000000e-02	5.22306754e-02	3.98111865e-03
2.07500000e-02	5.23482097e-02	4.03402046e-03
2.10000000e-02	5.26749331e-02	3.96207734e-03
2.12500000e-02	5.08999321e-02	3.83008561e-03
2.15000000e-02	4.95059973e-02	3.63249755e-03
2.17500000e-02	4.88604798e-02	3.54357592e-03
2.20000000e-02	4.72157079e-02	3.44556049e-03
2.22500000e-02	4.53739095e-02	3.18024080e-03
2.25000000e-02	4.70949982e-02	3.35333849e-03
2.27500000e-02	4.43730505e-02	3.06069741e-03
2.30000000e-02	4.59924002e-02	3.17782254e-03
2.32500000e-02	4.42110454e-02	2.99766089e-03
2.35000000e-02	4.40843736e-02	2.92866648e-03
2.37500000e-02	4.31210937e-02	2.89010067e-03
2.40000000e-02	4.16286759e-02	2.73496681e-03
2.42500000e-02	4.09821135e-02	2.61545611e-03
2.45000000e-02	4.02152024e-02	2.59563824e-03
2.47500000e-02	3.95483437e-02	2.50190503e-03
2.50000000e-02	3.83212729e-02	2.43953224e-03
2.52500000e-02	3.91758703e-02	2.42308933e-03
2.55000000e-02	3.77428515e-02	2.25685461e-03
2.57500000e-02	3.76203877e-02	2.33313374e-03
2.60000000e-02	3.64863375e-02	2.17743266e-03
2.62500000e-02	3.64413375e-02	2.20357436e-03
2.65000000e-02	3.66418506e-02	2.15533987e-03
2.67500000e-02	3.61595684e-02	2.10348800e-03
2.70000000e-02	3.51983646e-02	2.03038884e-03
2.72500000e-02	3.44574340e-02	1.99554195e-03
2.75000000e-02	3.57091489e-02	1.98664062e-03
2.77500000e-02	3.47132721e-02	1.95145450e-03
2.80000000e-02	3.38182439e-02	1.87561141e-03
2.82500000e-02	3.44399236e-02	1.86479736e-03
2.85000000e-02	3.34469123e-02	1.79376023e-03
2.87500000e-02	3.34672539e-02	1.83802696e-03
2.90000000e-02	3.32146486e-02	1.79801070e-03
2.92500000e-02	3.27631301e-02	1.71388662e-03
2.95000000e-02	3.18428255e-02	1.72250904e-03
2.97500000e-02	3.26002761e-02	1.71749052e-03
3.00000000e-02	3.27351516e-02	1.73391054e-03
3.02500000e-02	3.30049018e-02	1.74455759e-03
3.05000000e-02	3.21800939e-02	1.63190292e-03
3.07500000e-02	3.04987079e-02	1.56181275e-03
3.10000000e-02	3.14220617e-02	1.64310911e-03
3.12500000e-02	3.09547950e-02	1.58264014e-03
3.15000000e-02	2.97372189e-02	1.50119324e-03
3.17500000e-02	3.10516183e-02	1.53404193e-03
3.20000000e-02	3.17705597e-02	1.58404328e-03
3.22500000e-02	3.06206526e-02	1.49038642e-03
3.25000000e-02	2.99661975e-02	1.50940872e-03
3.27500000e-02	2.94163956e-02	1.46526536e-03
3.30000000e-02	2.83823636e-02	1.37841202e-03
3.32500000e-02	2.81529256e-02	1.36802023e-03
3.35000000e-02	2.91385034e-02	1.43135575e-03
3.37500000e-02	2.82073758e-02	1.34577205e-03
3.40000000e-02	2.87652456e-02	1.38889031e-03
3.42500000e-02	2.84047244e-02	1.37163103e-03
3.45000000e-02	2.76578938e-02	1.33965490e-03
3.47500000e-02	2.85682829e-02	1.36757320e-03
3.50000000e-02	2.74452125e-02	1.30993123e-03
3.52500000e-02	2.76637102e-02	1.31264798e-03
3.55000000e-02	2.65093461e-02	1.24377580e-03
3.57500000e-02	2.68285987e-02	1.27043338e-03
3.60000000e-02	2.72609611e-02	1.29190530e-03
3.62500000e-02	2.76254131e-02	1.29347806e-03
3.65000000e-02	2.64859517e-02	1.23151362e-03
3.67500000e-02	2.60957466e-02	1.19957752e-03
3.70000000e-02	2.63523588e-02	1.21596306e-03
3.72500000e-02	2.64448422e-02	1.22009218e-03
3.75000000e-02	2.68238139e-02	1.23298139e-03
3.77500000e-02	2.65351020e-02	1.21991122e-03
3.80000000e-02	2.57442045e-02	1.16594883e-03
3.82500000e-02	2.61958587e-02	1.18485365e-03
3.85000000e-02	2.52031269e-02	1.15551259e-03
3.87500000e-02	2.54562507e-02	1.15115167e-03
3.90000000e-02	2.58625027e-02	1.16911401e-03
3.92500000e-02	2.51253786e-02	1.12740633e-03
3.95000000e-02	2.53683110e-02	1.14018847e-03
3.97500000e-02	2.56393078e-02	1.15461281e-03
4.00000000e-02	2.44911193e-02	1.09918307e-03
4.02500000e-02	2.51659432e-02	1.12359124e-03
4.05000000e-02	2.49032487e-02	1.10274008e-03
4.07500000e-02	2.53652825e-02	1.10180113e-03
4.10000000e-02	2.50544262e-02	1.11141400e-03
4.12500000e-02	2.57327369e-02	1.11787087e-03
4.15000000e-02	2.36384744e-02	1.05551501e-03
4.17500000e-02	2.48039630e-02	1.07172865e-03
4.20000000e-02	2.48698454e-02	1.08571695e-03
4.22500000e-02	2.52729932e-02	1.09485467e-03
4.25000000e-02	2.44165897e-02	1.05906679e-03
4.27500000e-02	2.44595914e-02	1.05560472e-03
4.30000000e-02	2.45155867e-02	1.05777250e-03
4.32500000e-02	2.47722345e-02	1.05544815e-03
4.35000000e-02	2.40260290e-02	1.04022608e-03
4.37500000e-02	2.41544363e-02	1.01628606e-03
4.40000000e-02	2.41050209e-02	1.02734861e-03
4.42500000e-02	2.40021769e-02	1.02174833e-03
4.45000000e-02	2.41388232e-02	1.00928067e-03
4.47500000e-02	2.37500002e-02	1.00236675e-03
4.50000000e-02	2.39787149e-02	1.01585122e-03
4.52500000e-02	2.44490958e-02	1.02375531e-03
4.55000000e-02	2.42030767e-02	1.00997709e-03
4.57500000e-02	2.40019613e-02	9.99386621e-04
4.60000000e-02	2.29205427e-02	9.66634044e-04
4.62500000e-02	2.37460990e-02	9.93803890e-04
4.65000000e-02	2.35923797e-02	9.86492098e-04
4.67500000e-02	2.36728035e-02	9.93005899e-04
4.70000000e-02	2.38254521e-02	9.87075434e-04
4.72500000e-02	2.33320745e-02	9.65607256e-04
4.75000000e-02	2.38616830e-02	9.93801746e-04
4.77500000e-02	2.44852876e-02	9.92958384e-04
4.80000000e-02	2.36112155e-02	9.57592616e-04
4.82500000e-02	2.38057519e-02	9.70300721e-04
4.85000000e-02	2.25305237e-02	9.31117143e-04
4.87500000e-02	2.36249159e-02	9.59972677e-04
4.90000000e-02	2.36296635e-02	9.50683403e-04
4.92500000e-02	2.29194266e-02	9.35501549e-04
4.95000000e-02	2.34896729e-02	9.56315833e-04
4.97500000e-02	2.27958945e-02	9.31507801e-04
5.00000000e-02	2.31828428e-02	9.38530046e-04
5.02500000e-02	2.32296461e-02	9.28074418e-04
5.05000000e-02	2.33294176e-02	9.31563240e-04
5.07500000e-02	2.28597498e-02	9.11472686e-04
5.10000000e-02	2.31754003e-02	9.27147645e-04
5.12500000e-02	2.33590356e-02	9.38323683e-04
5.15000000e-02	2.30716943e-02	9.13819357e-04
5.17500000e-02	2.28947359e-02	9.16037046e-04
5.20000000e-02	2.28056959e-02	8.99980410e-04
5.22500000e-02	2.21793768e-02	8.87059584e-04
5.25000000e-02	2.25077030e-02	8.88268289e-04
5.27500000e-02	2.28783405e-02	8.99476111e-04
5.30000000e-02	2.31307369e-02	9.22205276e-04
5.32500000e-02	2.28227055e-02	9.04909128e-04
5.35000000e-02	2.22625623e-02	8.77453240e-04
5.37500000e-02	2.30071863e-02	8.99273066e-04
5.40000000e-02	2.28630601e-02	8.96635366e-04
5.42500000e-02	2.29641066e-02	8.90677657e-04
5.45000000e-02	2.22060343e-02	8.64102921e-04
5.47500000e-02	2.23174992e-02	8.63979450e-04
5.50000000e-02	2.33213373e-02	8.98222802e-04
5.52500000e-02	2.24026927e-02	8.72435785e-04
5.55000000e-02	2.25283537e-02	8.73424949e-04
5.57500000e-02	2.22108279e-02	8.66602975e-04
5.60000000e-02	2.23894016e-02	8.60658205e-04
5.62500000e-02	2.21002841e-02	8.60366416e-04
5.65000000e-02	2.27420776e-02	8.68820312e-04
5.67500000e-02	2.25412050e-02	8.60969393e-04
5.70000000e-02	2.26056110e-02	8.56939931e-04
5.72500000e-02	2.26481867e-02	8.74086641e-04
5.75000000e-02	2.22673281e-02	8.51777457e-04
5.77500000e-02	2.26063812e-02	8.48437322e-04
5.80000000e-02	2.19689012e-02	8.35214408e-04
5.82500000e-02	2.18729860e-02	8.34655553e-04
5.85000000e-02	2.11205582e-02	8.05335801e-04
5.87500000e-02	2.16805571e-02	8.14280986e-04
5.90000000e-02	2.15227623e-02	8.10788652e-04
5.92500000e-02	2.22652187e-02	8.34008917e-04
5.95000000e-02	2.29873963e-02	8.54502548e-04
5.97500000e-02	2.22211957e-02	8.42638189e-04
6.00000000e-02	2.14955102e-02	8.07101213e-04
6.02500000e-02	2.24073366e-02	8.30719108e-04
6.05000000e-02	2.18961686e-02	8.18551874e-04
6.07500000e-02	2.22544294e-02	8.27712557e-04
6.10000000e-02	2.19148966e-02	8.15303589e-04
6.12500000e-02	2.20356475e-02	8.12246394e-04
6.15000000e-02	2.19232054e-02	8.11134132e-04
6.17500000e-02	2.18674810e-02	8.08018710e-04
6.20000000e-02	2.15142503e-02	7.95304230e-04
6.22500000e-02	2.21369621e-02	8.21011674e-04
6.25000000e-02	2.21172991e-02	8.15243305e-04
6.27500000e-02	2.16078835e-02	7.85038982e-04
6.30000000e-02	2.19965818e-02	8.10929188e-04
6.32500000e-02	2.18342063e-02	7.97771845e-04
6.35000000e-02	2.18434047e-02	7.97516204e-04
6.37500000e-02	2.19910508e-02	8.05947189e-04
6.40000000e-02	2.17105870e-02	7.99733846e-04
6.42500000e-02	2.18326829e-02	7.96774286e-04
6.45000000e-02	2.18137355e-02	7.91853467e-04
6.47500000e-02	2.18030132e-02	7.93523663e-04
6.50000000e-02	2.13601806e-02	7.70973860e-04
6.52500000e-02	2.17672788e-02	7.82934252e-04
6.55000000e-02	2.16316636e-02	7.85356414e-04
6.57500000e-02	2.20633138e-02	7.93395061e-04
6.60000000e-02	2.17341529e-02	7.81363292e-04
6.62500000e-02	2.23464062e-02	8.13117220e-04
6.65000000e-02	2.13360393e-02	7.61043462e-04
6.67500000e-02	2.12395009e-02	7.55879135e-04
6.70000000e-02	2.14363341e-02	7.79937941e-04
6.72500000e-02	2.13209913e-02	7.66679572e-04
6.75000000e-02	2.13041400e-02	7.59307018e-04
6.77500000e-02	2.17588763e-02	7.66236188e-04
6.80000000e-02	2.17623147e-02	7.75826553e-04
6.82500000e-02	2.15033476e-02	7.66250199e-04
6.85000000e-02	2.09683096e-02	7.47948126e-04
6.87500000e-02	2.19403279e-02	7.73009158e-04
6.90000000e-02	2.21410958e-02	7.73174429e-04
6.92500000e-02	2.13750232e-02	7.56866817e-04
6.95000000e-02	2.18799068e-02	7.73711751e-04
6.97500000e-02	2.10808512e-02	7.38393340e-04
7.00000000e-02	2.15700199e-02	7.60194310e-04
7.02500000e-02	2.11746550e-02	7.43541290e-04
7.05000000e-02	2.13051092e-02	7.44676229e-04
7.07500000e-02	2.11519457e-02	7.48686776e-04
7.10000000e-02	2.10765918e-02	7.39502275e-04
7.12500000e-02	2.11880646e-02	7.36997746e-04
7.15000000e-02	2.12404301e-02	7.37712557e-04
7.17500000e-02	2.12266802e-02	7.41355584e-04
7.20000000e-02	2.10159413e-02	7.37029891e-04
7.22500000e-02	2.12952316e-02	7.42881635e-04
7.25000000e-02	2.12979737e-02	7.36774526e-04
7.27500000e-02	2.14239008e-02	7.42534539e-04
7.30000000e-02	2.07209591e-02	7.16473924e-04
7.32500000e-02	2.08166308e-02	7.15802255e-04
7.35000000e-02	2.12611793e-02	7.35143891e-04
7.37500000e-02	2.14713389e-02	7.37489399e-04
7.40000000e-02	2.14588047e-02	7.33459630e-04
7.42500000e-02	2.14691676e-02	7.36898106e-04
7.45000000e-02	2.09585183e-02	7.22893644e-04
7.47500000e-02	2.10549251e-02	7.19739179e-04
7.50000000e-02	2.06536259e-02	7.03754363e-04
7.52500000e-02	2.10741683e-02	7.23189648e-04
7.55000000e-02	2.13551640e-02	7.24282538e-04
7.57500000e-02	2.06408818e-02	7.04568666e-04
7.60000000e-02	2.09722102e-02	7.16643965e-04
7.62500000e-02	2.11591223e-02	7.18278451e-04
7.65000000e-02	2.07474563e-02	7.06122831e-04
7.67500000e-02	2.06153142e-02	6.92110165e-04
7.70000000e-02	2.12345624e-02	7.16945925e-04
7.72500000e-02	2.12385813e-02	7.24490535e-04
7.75000000e-02	2.10201715e-02	7.27867043e-04
7.77500000e-02	2.08196505e-02	7.28197318e-04
7.80000000e-02	2.03469657e-02	7.13596750e-04
7.82500000e-02	2.04882408e-02	7.19094344e-04
7.85000000e-02	2.10155739e-02	7.40977478e-04
7.87500000e-02	2.16928477e-02	7.67488386e-04
7.90000000e-02	2.15004257e-02	7.63330906e-04
7.92500000e-02	2.13386557e-02	7.58865953e-04
7.95000000e-02	2.14794179e-02	7.65228020e-04
7.97500000e-02	2.07286209e-02	7.39581001e-04
8.00000000e-02	2.07565644e-02	7.41916114e-04
8.02500000e-02	2.06205852e-02	7.38479877e-04
8.05000000e-02	2.05577396e-02	7.31952247e-04
8.07500000e-02	2.14819393e-02	7.79688453e-04
8.10000000e-02	2.12771265e-02	7.75677675e-04
8.12500000e-02	2.12842100e-02	7.68910901e-04
8.15000000e-02	2.08192786e-02	7.50755834e-04
8.17500000e-02	2.07956974e-02	7.61747116e-04
8.20000000e-02	2.07351895e-02	7.53708797e-04
8.22500000e-02	2.09841267e-02	7.65097690e-04
8.25000000e-02	2.08286100e-02	7.59553814e-04
8.27500000e-02	2.11498004e-02	7.74130088e-04
8.30000000e-02	2.05702248e-02	7.53880562e-04
8.32500000e-02	2.10866490e-02	7.71678766e-04
8.35000000e-02	2.02214951e-02	7.51751126e-04
8.37500000e-02	2.08512239e-02	7.61838116e-04
8.40000000e-02	2.01642967e-02	7.45788540e-04
8.42500000e-02	2.07989184e-02	7.68120338e-04
8.45000000e-02	2.05874353e-02	7.60023071e-04
8.47500000e-02	2.05234776e-02	7.58839806e-04
8.50000000e-02	2.07487171e-02	7.62403545e-04
8.52500000e-02	2.04749478e-02	7.63209810e-04
8.55000000e-02	2.07307219e-02	7.63264667e-04
8.57500000e-02	2.07171754e-02	7.74567376e-04
8.60000000e-02	2.07225655e-02	7.64512416e-04
8.62500000e-02	2.11643696e-02	7.84210352e-04
8.65000000e-02	2.07869515e-02	7.68242369e-04
8.67500000e-02	2.08957862e-02	7.72946214e-04
8.70000000e-02	2.12394914e-02	7.75196498e-04
8.72500000e-02	2.06877901e-02	7.45524169e-04
8.75000000e-02	2.03308288e-02	7.16317910e-04
8.77500000e-02	2.09170734e-02	7.34932675e-04
8.80000000e-02	2.09171499e-02	7.33539565e-04
8.82500000e-02	1.99394572e-02	7.01623285e-04
8.85000000e-02	2.02260907e-02	7.12515484e-04
8.87500000e-02	2.06059107e-02	7.11339216e-04
8.90000000e-02	2.01638351e-02	7.05306485e-04
8.92500000e-02	2.10555860e-02	7.25652369e-04
8.95000000e-02	2.01736862e-02	6.92946253e-04
8.97500000e-02	2.08239658e-02	7.10183600e-04
9.00000000e-02	2.01999876e-02	6.87921405e-04
9.02500000e-02	2.00084260e-02	6.85425204e-04
9.05000000e-02	2.02408805e-02	6.91155114e-04
9.07500000e-02	2.06440065e-02	7.00501775e-04
9.10000000e-02	2.05054542e-02	6.87820364e-04
9.12500000e-02	1.96990073e-02	6.67648999e-04
9.15000000e-02	2.04274126e-02	6.84778091e-04
9.17500000e-02	2.05763535e-02	6.92488816e-04
9.20000000e-02	2.01429501e-02	6.79890358e-04
9.22500000e-02	2.01899743e-02	6.73698608e-04
9.25000000e-02	1.97909276e-02	6.60015347e-04
9.27500000e-02	2.01063983e-02	6.64800757e-04
9.30000000e-02	2.03847049e-02	6.73885038e-04
9.32500000e-02	2.09022547e-02	6.96884903e-04
9.35000000e-02	2.02061465e-02	6.63435679e-04
9.37500000e-02	2.06459867e-02	6.74933126e-04
9.40000000e-02	2.04310062e-02	6.76462848e-04
9.42500000e-02	1.96696793e-02	6.45595898e-04
9.45000000e-02	2.03366438e-02	6.64826562e-04
9.47500000e-02	1.99920951e-02	6.53389922e-04
9.50000000e-02	2.07741644e-02	6.73331778e-04
9.52500000e-02	2.05535509e-02	6.68585382e-04
9.55000000e-02	2.03672601e-02	6.59222063e-04
9.57500000e-02	1.99780776e-02	6.46927708e-04
9.60000000e-02	2.04180296e-02	6.56137659e-04
9.62500000e-02	2.02407300e-02	6.52161754e-04
9.65000000e-02	2.00867119e-02	6.49213162e-04
9.67500000e-02	2.03335805e-02	6.55620854e-04
9.70000000e-02	1.96168228e-02	6.38005346e-04
9.72500000e-02	2.07524939e-02	6.69010785e-04
9.75000000e-02	1.99558173e-02	6.46569025e-04
9.77500000e-02	1.99784293e-02	6.38892675e-04
9.80000000e-02	2.07453014e-02	6.62302977e-04
9.82500000e-02	1.99182966e-02	6.32492249e-04
9.85000000e-02	2.01642553e-02	6.42538771e-04
9.87500000e-02	2.01113318e-02	6.40862029e-04
9.90000000e-02	1.99410424e-02	6.38917240e-04
9.92500000e-02	1.97136534e-02	6.30659414e-04
9.95000000e-02	1.94953448e-02	6.17799141e-04
9.97500000e-02	1.98321275e-02	6.29150212e-04
1.00000000e-01	1.97161118e-02	5.08098010e-04
1.00500000e-01	2.05681568e-02	4.62772747e-04
1.01000000e-01	1.99153984e-02	4.44044383e-04
1.01500000e-01	2.03177089e-02	4.50764066e-04
1.02000000e-01	2.00732895e-02	4.43940496e-04
1.02500000e-01	1.99526159e-02	4.39265988e-04
1.03000000e-01	1.98439194e-02	4.39026310e-04
1.03500000e-01	1.99202979e-02	4.37086439e-04
1.04000000e-01	1.98724155e-02	4.34423257e-04
1.04500000e-01	2.02893217e-02	4.41838403e-04
1.05000000e-01	2.01600852e-02	4.37299708e-04
1.05500000e-01	1.98466446e-02	4.29725934e-04
1.06000000e-01	2.03106295e-02	4.37861020e-04
1.06500000e-01	2.00748607e-02	4.34584080e-04
1.07000000e-01	1.96254435e-02	4.28415569e-04
1.07500000e-01	1.98631168e-02	4.42231626e-04
1.08000000e-01	2.00851828e-02	4.53157859e-04
1.08500000e-01	1.95152704e-02	4.43866377e-04
1.09000000e-01	1.98425311e-02	4.53239323e-04
1.09500000e-01	1.99108279e-02	4.55669429e-04
1.10000000e-01	1.96915807e-02	4.45567290e-04
1.10500000e-01	2.00028466e-02	4.43202260e-04
1.11000000e-01	2.00124334e-02	4.34898104e-04
1.11500000e-01	1.98929971e-02	4.29530575e-04
1.12000000e-01	1.99986511e-02	4.30401164e-04
1.12500000e-01	1.98157963e-02	4.23819212e-04
1.13000000e-01	1.96739239e-02	4.19712699e-04
1.13500000e-01	1.97836318e-02	4.18797121e-04
1.14000000e-01	1.98872073e-02	4.18280738e-04
1.14500000e-01	1.97924584e-02	4.16165060e-04
1.15000000e-01	1.96559188e-02	4.13747484e-04
1.15500000e-01	1.98739894e-02	4.16511123e-04
1.16000000e-01	1.97463254e-02	4.12665461e-04
1.16500000e-01	2.03041626e-02	4.20931959e-04
1.17000000e-01	1.97895865e-02	4.11015276e-04
1.17500000e-01	1.95907414e-02	4.06146910e-04
1.18000000e-01	2.00655789e-02	4.15059230e-04
1.18500000e-01	1.97941134e-02	4.08091323e-04
1.19000000e-01	1.99969941e-02	4.12691687e-04
1.19500000e-01	1.98298556e-02	4.10498562e-04
1.20000000e-01	1.98038664e-02	4.04633718e-04
1.20500000e-01	1.98447639e-02	4.07113829e-04
1.21000000e-01	1.98507427e-02	4.04022551e-04
1.21500000e-01	1.97535391e-02	4.02938391e-04
1.22000000e-01	1.96024161e-02	3.97998840e-04
1.22500000e-01	1.98592506e-02	4.03166390e-04
1.23000000e-01	1.97287118e-02	3.99108616e-04
1.23500000e-01	1.95980129e-02	3.95653286e-04
1.24000000e-01	1.97399640e-02	3.98976387e-04
1.24500000e-01	1.97342123e-02	3.96255087e-04
1.25000000e-01	1.99227679e-02	4.00504275e-04
1.25500000e-01	1.95505056e-02	3.91229176e-04
1.26000000e-01	1.99576321e-02	3.96057884e-04
1.26500000e-01	1.95294069e-02	3.87738760e-04
1.27000000e-01	1.98441060e-02	3.93068663e-04
1.27500000e-01	1.96137428e-02	3.88852493e-04
1.28000000e-01	1.97867043e-02	3.93819265e-04
1.28500000e-01	1.99903664e-02	3.96377566e-04
1.29000000e-01	1.98905891e-02	3.90886144e-04
1.29500000e-01	1.95659449e-02	3.86075117e-04
1.30000000e-01	1.98857680e-02	3.89452013e-04
1.30500000e-01	1.97591126e-02	3.86771898e-04
1.31000000e-01	1.96355964e-02	3.81913944e-04
1.31500000e-01	1.96957783e-02	3.84051715e-04
1.32000000e-01	1.98725662e-02	3.87534486e-04
1.32500000e-01	1.97942733e-02	3.82965351e-04
1.33000000e-01	1.94258464e-02	3.75710833e-04
1.33500000e-01	1.96979473e-02	3.77439035e-04
1.34000000e-01	1.97865711e-02	3.80935253e-04
1.34500000e-01	1.95534317e-02	3.75883632e-04
1.35000000e-01	1.98101980e-02	3.79712028e-04
1.35500000e-01	1.98622755e-02	3.78784347e-04
1.36000000e-01	1.97279985e-02	3.75029386e-04
1.36500000e-01	1.94603560e-02	3.72870788e-04
1.37000000e-01	1.96394673e-02	3.73130912e-04
1.37500000e-01	1.95671728e-02	3.70113201e-04
1.38000000e-01	1.98879458e-02	3.76923558e-04
1.38500000e-01	1.95893312e-02	3.70131181e-04
1.39000000e-01	1.96038529e-02	3.71335544e-04
1.39500000e-01	1.94384167e-02	3.67764477e-04
1.40000000e-01	1.91564694e-02	3.62773910e-04
1.40500000e-01	1.96176803e-02	3.70586930e-04
1.41000000e-01	1.96367264e-02	3.69911650e-04
1.41500000e-01	1.94474836e-02	3.66820015e-04
1.42000000e-01	1.93673818e-02	3.65240303e-04
1.42500000e-01	1.94430627e-02	3.66025891e-04
1.43000000e-01	1.95726738e-02	3.66710696e-04
1.43500000e-01	1.95819982e-02	3.65717273e-04
1.44000000e-01	1.94220823e-02	3.61603853e-04
1.44500000e-01	1.97664934e-02	3.66469986e-04
1.45000000e-01	1.95799267e-02	3.65970998e-04
1.45500000e-01	1.95691910e-02	3.64380410e-04
1.46000000e-01	1.94104653e-02	3.59982698e-04
1.46500000e-01	1.94105586e-02	3.59173862e-04
1.47000000e-01	1.96903675e-02	3.61598411e-04
1.47500000e-01	1.96438377e-02	3.61710464e-04
1.48000000e-01	1.92106493e-02	3.55040351e-04
1.48500000e-01	1.92852444e-02	3.55141783e-04
1.49000000e-01	1.95949241e-02	3.57873699e-04
1.49500000e-01	1.94029906e-02	3.55473186e-04
1.50000000e-01	1.90766479e-02	3.49576801e-04
1.50500000e-01	1.93848194e-02	3.54352045e-04
1.51000000e-01	1.90484671e-02	3.47572945e-04
1.51500000e-01	1.94234398e-02	3.52322974e-04
1.52000000e-01	1.94503505e-02	3.52363130e-04
1.52500000e-01	1.92361720e-02	3.48983987e-04
1.53000000e-01	1.91440046e-02	3.48349082e-04
1.53500000e-01	1.91724966e-02	3.47947454e-04
1.54000000e-01	1.94632626e-02	3.50658246e-04
1.54500000e-01	1.96081181e-02	3.60344261e-04
1.55000000e-01	1.91088295e-02	3.56356141e-04
1.55500000e-01	1.92225605e-02	3.58660942e-04
1.56000000e-01	1.92194529e-02	3.61956590e-04
1.56500000e-01	1.93231450e-02	3.64423023e-04
1.57000000e-01	1.90783111e-02	3.58113429e-04
1.57500000e-01	1.89815026e-02	3.51752490e-04
1.58000000e-01	1.92768044e-02	3.50903625e-04
1.58500000e-01	1.91635736e-02	3.48695615e-04
1.59000000e-01	1.91396809e-02	3.45509389e-04
1.59500000e-01	1.92194722e-02	3.46653003e-04
1.60000000e-01	1.89602522e-02	3.42152249e-04
1.60500000e-01	1.89998535e-02	3.38755780e-04
1.61000000e-01	1.92937781e-02	3.45535902e-04
1.61500000e-01	1.92936267e-02	3.44175867e-04
1.62000000e-01	1.93580264e-02	3.42242391e-04
1.62500000e-01	1.92463856e-02	3.40771195e-04
1.63000000e-01	1.93034055e-02	3.42265344e-04
1.63500000e-01	1.90698298e-02	3.39821924e-04
1.64000000e-01	1.89495851e-02	3.33920797e-04
1.64500000e-01	1.88260056e-02	3.32028459e-04
1.65000000e-01	1.90700541e-02	3.35081740e-04
1.65500000e-01	1.91895738e-02	3.37347621e-04
1.66000000e-01	1.89932167e-02	3.35571002e-04
1.66500000e-01	1.91476826e-02	3.35073806e-04
1.67000000e-01	1.90842021e-02	3.36346477e-04
1.67500000e-01	1.90555085e-02	3.33857327e-04
1.68000000e-01	1.89331277e-02	3.31693175e-04
1.68500000e-01	1.90824199e-02	3.32175041e-04
1.69000000e-01	1.88967820e-02	3.29768867e-04
1.69500000e-01	1.87445275e-02	3.25710920e-04
1.70000000e-01	1.91003583e-02	3.31749878e-04
1.70500000e-01	1.91408978e-02	3.31933768e-04
1.71000000e-01	1.91419292e-02	3.29520341e-04
1.71500000e-01	1.90120455e-02	3.28937519e-04
1.72000000e-01	1.88897378e-02	3.25858372e-04
1.72500000e-01	1.91015434e-02	3.28705098e-04
1.73000000e-01	1.88317608e-02	3.22644357e-04
1.73500000e-01	1.86975107e-02	3.22084092e-04
1.74000000e-01	1.88275999e-02	3.21793325e-04
1.74500000e-01	1.90526329e-02	3.23875318e-04
1.75000000e-01	1.91916546e-02	3.24282183e-04
1.75500000e-01	1.85989883e-02	3.16324868e-04
1.76000000e-01	1.88353101e-02	3.19361703e-04
1.76500000e-01	1.89730756e-02	3.20708706e-04
1.77000000e-01	1.86718333e-02	3.15444920e-04
1.77500000e-01	1.90747834e-02	3.23211298e-04
1.78000000e-01	1.86610630e-02	3.14669838e-04
1.78500000e-01	1.87871710e-02	3.17440519e-04
1.79000000e-01	1.88968725e-02	3.17216775e-04
1.79500000e-01	1.87100488e-02	3.15719640e-04
1.80000000e-01	1.87987465e-02	3.19742983e-04
1.80500000e-01	1.87583072e-02	3.15585988e-04
1.81000000e-01	1.86460914e-02	3.13503668e-04
1.81500000e-01	1.84829730e-02	3.09641423e-04
1.82000000e-01	1.90739981e-02	3.20578339e-04
1.82500000e-01	1.88581901e-02	3.15534515e-04
1.83000000e-01	1.86015008e-02	3.12576936e-04
1.83500000e-01	1.85526570e-02	3.09738207e-04
1.84000000e-01	1.87562372e-02	3.13865012e-04
1.84500000e-01	1.86083518e-02	3.10485467e-04
1.85000000e-01	1.86214214e-02	3.09899026e-04
1.85500000e-01	1.85439692e-02	3.08688485e-04
1.86000000e-01	1.85803009e-02	3.09253121e-04
1.86500000e-01	1.86784923e-02	3.09351871e-04
1.87000000e-01	1.87342850e-02	3.10575765e-04
1.87500000e-01	1.85500858e-02	3.05577900e-04
1.88000000e-01	1.87882409e-02	3.10436987e-04
1.88500000e-01	1.86056201e-02	3.06321197e-04
1.89000000e-01	1.85203224e-02	3.04400644e-04
1.89500000e-01	1.85763356e-02	3.06151639e-04
1.90000000e-01	1.85778951e-02	3.06323367e-04
1.90500000e-01	1.86186050e-02	3.05432527e-04
1.91000000e-01	1.88069740e-02	3.06831830e-04
1.91500000e-01	1.85466187e-02	3.03327998e-04
1.92000000e-01	1.86518603e-02	3.04354369e-04
1.92500000e-01	1.86556723e-02	3.03974483e-04
1.93000000e-01	1.85883709e-02	3.03626108e-04
1.93500000e-01	1.82933289e-02	2.98021494e-04
1.94000000e-01	1.81839158e-02	2.95355349e-04
1.94500000e-01	1.83969290e-02	2.99034473e-04
1.95000000e-01	1.87260357e-02	3.03619066e-04
1.95500000e-01	1.83233344e-02	2.96696712e-04
1.96000000e-01	1.82695617e-02	2.95640564e-04
1.96500000e-01	1.84561166e-02	2.98156239e-04
1.97000000e-01	1.83236130e-02	2.95702954e-04
1.97500000e-01	1.85085680e-02	2.98565512e-04
1.98000000e-01	1.84681675e-02	2.98227042e-04
1.98500000e-01	1.83090834e-02	2.95106115e-04
1.99000000e-01	1.85257101e-02	2.98522521e-04
1.99500000e-01	1.83145541e-02	2.93637668e-04
2.00000000e-01	1.83628602e-02	2.94329950e-04
2.00500000e-01	1.83053732e-02	2.93863435e-04
2.01000000e-01	1.82196645e-02	2.91411239e-04
2.01500000e-01	1.83280148e-02	2.92744034e-04
2.02000000e-01	1.83140678e-02	2.92720548e-04
2.02500000e-01	1.83784681e-02	2.93047968e-04
2.03000000e-01	1.82193222e-02	2.89628500e-04
2.03500000e-01	1.81744003e-02	2.89362186e-04
2.04000000e-01	1.82170173e-02	2.89452606e-04
2.04500000e-01	1.83824638e-02	2.91321560e-04
2.05000000e-01	1.82862171e-02	2.90016614e-04
2.05500000e-01	1.82530675e-02	2.90529468e-04
2.06000000e-01	1.79386547e-02	2.83391000e-04
2.06500000e-01	1.80808812e-02	2.84714429e-04
2.07000000e-01	1.80248646e-02	2.83898538e-04
2.07500000e-01	1.79220330e-02	2.82794925e-04
2.08000000e-01	1.83240308e-02	2.87836417e-04
2.08500000e-01	1.80784233e-02	2.84361580e-04
2.09000000e-01	1.82000358e-02	2.86520660e-04
2.09500000e-01	1.83142380e-02	2.86240880e-04
2.10000000e-01	1.82150617e-02	2.85309438e-04
2.10500000e-01	1.80939675e-02	2.83562533e-04
2.11000000e-01	1.83254592e-02	2.86828176e-04
2.11500000e-01	1.81730522e-02	2.85069630e-04
2.12000000e-01	1.80880911e-02	2.81796956e-04
2.12500000e-01	1.81127890e-02	2.81870659e-04
2.13000000e-01	1.80071174e-02	2.80872932e-04
2.13500000e-01	1.82014836e-02	2.83341174e-04
2.14000000e-01	1.80640884e-02	2.81194646e-04
2.14500000e-01	1.80840208e-02	2.79969989e-04
2.15000000e-01	1.83357425e-02	2.84696201e-04
2.15500000e-01	1.81809057e-02	2.81501321e-04
2.16000000e-01	1.81917670e-02	2.81280086e-04
2.16500000e-01	1.79920249e-02	2.77702858e-04
2.17000000e-01	1.82648792e-02	2.86498526e-04
2.17500000e-01	1.82055813e-02	2.87213499e-04
2.18000000e-01	1.79300943e-02	2.85800140e-04
2.18500000e-01	1.79043994e-02	2.87452883e-04
2.19000000e-01	1.83585501e-02	2.95609045e-04
2.19500000e-01	1.82661780e-02	2.94417397e-04
2.20000000e-01	1.83413618e-02	2.97775835e-04
2.20500000e-01	1.78772996e-02	2.90536182e-04
2.21000000e-01	1.80299989e-02	2.93962616e-04
2.21500000e-01	1.77583466e-02	2.91830129e-04
2.22000000e-01	1.79978255e-02	2.93297261e-04
2.22500000e-01	1.78874397e-02	2.93361374e-04
2.23000000e-01	1.76052519e-02	2.90742796e-04
2.23500000e-01	1.79528485e-02	2.96857353e-04
2.24000000e-01	1.78326301e-02	2.95247550e-04
2.24500000e-01	1.80133960e-02	2.99797167e-04
2.25000000e-01	1.79295100e-02	2.97954482e-04
2.25500000e-01	1.79161458e-02	2.97094744e-04
2.26000000e-01	1.80151803e-02	3.00092304e-04
2.26500000e-01	1.78640035e-02	2.93547481e-04
2.27000000e-01	1.80268013e-02	2.93198038e-04
2.27500000e-01	1.78973092e-02	2.88792135e-04
2.28000000e-01	1.81146950e-02	2.90514631e-04
2.28500000e-01	1.78069942e-02	2.84746252e-04
2.29000000e-01	1.77093294e-02	2.81998688e-04
2.29500000e-01	1.79094650e-02	2.83059615e-04
2.30000000e-01	1.78441838e-02	2.82111426e-04
2.30500000e-01	1.78684186e-02	2.80925972e-04
2.31000000e-01	1.78537711e-02	2.80126920e-04
2.31500000e-01	1.79549227e-02	2.82101639e-04
2.32000000e-01	1.77888507e-02	2.78796849e-04
2.32500000e-01	1.79623244e-02	2.80837090e-04
2.33000000e-01	1.78323857e-02	2.78121157e-04
2.33500000e-01	1.77454694e-02	2.76142657e-04
2.34000000e-01	1.78932827e-02	2.77070883e-04
2.34500000e-01	1.77123223e-02	2.74346372e-04
2.35000000e-01	1.78960078e-02	2.76971746e-04
2.35500000e-01	1.77628085e-02	2.73026612e-04
2.36000000e-01	1.76289417e-02	2.72332520e-04
2.36500000e-01	1.76272644e-02	2.71255364e-04
2.37000000e-01	1.76694315e-02	2.70436970e-04
2.37500000e-01	1.76830088e-02	2.72052571e-04
2.38000000e-01	1.73835773e-02	2.66020140e-04
2.38500000e-01	1.78631974e-02	2.72576921e-04
2.39000000e-01	1.77533139e-02	2.70425286e-04
2.39500000e-01	1.78315242e-02	2.71817546e-04
2.40000000e-01	1.78516015e-02	2.71821558e-04
2.40500000e-01	1.78341724e-02	2.70865922e-04
2.41000000e-01	1.79658287e-02	2.72155694e-04
2.41500000e-01	1.77471385e-02	2.67934663e-04
2.42000000e-01	1.78346024e-02	2.69272450e-04
2.42500000e-01	1.77216142e-02	2.67203830e-04
2.43000000e-01	1.79227732e-02	2.68775308e-04
2.43500000e-01	1.76495628e-02	2.65558970e-04
2.44000000e-01	1.78819737e-02	2.67299327e-04
2.44500000e-01	1.76136005e-02	2.63697519e-04
2.45000000e-01	1.75587510e-02	2.62821266e-04
2.45500000e-01	1.76210718e-02	2.63279240e-04
2.46000000e-01	1.74372557e-02	2.60663987e-04
2.46500000e-01	1.75187410e-02	2.61671134e-04
2.47000000e-01	1.75460741e-02	2.60937846e-04
2.47500000e-01	1.76575950e-02	2.62117694e-04
2.48000000e-01	1.73505978e-02	2.56771547e-04
2.48500000e-01	1.77159784e-02	2.63565199e-04
2.49000000e-01	1.74141202e-02	2.57501215e-04
2.49500000e-01	1.75766833e-02	2.59644506e-04
2.50000000e-01	1.75466351e-02	2.58680244e-04
2.50500000e-01	1.75205001e-02	2.58959009e-04
2.51000000e-01	1.75424130e-02	2.59024321e-04
2.51500000e-01	1.74514280e-02	2.57353463e-04
2.52000000e-01	1.74021882e-02	2.55981103e-04
2.52500000e-01	1.75679262e-02	2.58369184e-04
2.53000000e-01	1.76129325e-02	2.59393828e-04
2.53500000e-01	1.75338921e-02	2.55827879e-04
2.54000000e-01	1.73366756e-02	2.55311988e-04
2.54500000e-01	1.73811396e-02	2.54536804e-04
2.55000000e-01	1.74762936e-02	2.54767434e-04
2.55500000e-01	1.72789543e-02	2.54131936e-04
2.56000000e-01	1.74609917e-02	2.54487385e-04
2.56500000e-01	1.74079287e-02	2.54912283e-04
2.57000000e-01	1.72332541e-02	2.50383469e-04
2.57500000e-01	1.75480637e-02	2.55294637e-04
2.58000000e-01	1.71769465e-02	2.51022994e-04
2.58500000e-01	1.74064171e-02	2.53147176e-04
2.59000000e-01	1.74213058e-02	2.53246790e-04
2.59500000e-01	1.75337114e-02	2.53368433e-04
2.60000000e-01	1.74752795e-02	2.53084542e-04
2.60500000e-01	1.73871599e-02	2.50712210e-04
2.61000000e-01	1.71851069e-02	2.47496009e-04
2.61500000e-01	1.73805879e-02	2.52123862e-04
2.62000000e-01	1.72910689e-02	2.48091859e-04
2.62500000e-01	1.74423373e-02	2.51141328e-04
2.63000000e-01	1.74205659e-02	2.50494890e-04
2.63500000e-01	1.73549065e-02	2.49460012e-04
2.64000000e-01	1.72235887e-02	2.48566284e-04
2.64500000e-01	1.73625800e-02	2.49221254e-04
2.65000000e-01	1.75107771e-02	2.50620680e-04
2.65500000e-01	1.73349016e-02	2.48265439e-04
2.66000000e-01	1.71651220e-02	2.45460257e-04
2.66500000e-01	1.72554103e-02	2.45750560e-04
2.67000000e-01	1.74118003e-02	2.48658565e-04
2.67500000e-01	1.73986314e-02	2.47052005e-04
2.68000000e-01	1.72716563e-02	2.46328087e-04
2.68500000e-01	1.70781083e-02	2.42389479e-04
2.69000000e-01	1.71014280e-02	2.43028474e-04
2.69500000e-01	1.71928693e-02	2.43520912e-04
2.70000000e-01	1.72406902e-02	2.43006908e-04
2.70500000e-01	1.72020745e-02	2.41939611e-04
2.71000000e-01	1.73692829e-02	2.44927617e-04
2.71500000e-01	1.71389063e-02	2.42292751e-04
2.72000000e-01	1.73945208e-02	2.44964783e-04
2.72500000e-01	1.72412047e-02	2.42886333e-04
2.73000000e-01	1.74670867e-02	2.45449042e-04
2.73500000e-01	1.70295310e-02	2.39186687e-04
2.74000000e-01	1.73015696e-02	2.43338958e-04
2.74500000e-01	1.71429899e-02	2.40269110e-04
2.75000000e-01	1.72636298e-02	2.42232600e-04
2.75500000e-01	1.72624974e-02	2.42726683e-04
2.76000000e-01	1.71640087e-02	2.39978379e-04
2.76500000e-01	1.72698272e-02	2.41369409e-04
2.77000000e-01	1.70463980e-02	2.38631149e-04
2.77500000e-01	1.71220477e-02	2.40401539e-04
2.78000000e-01	1.71543594e-02	2.40235806e-04
2.78500000e-01	1.70701125e-02	2.38438911e-04
2.79000000e-01	1.69050096e-02	2.35670362e-04
2.79500000e-01	1.71502958e-02	2.38513618e-04
2.80000000e-01	1.70681364e-02	2.37884964e-04
2.80500000e-01	1.69767321e-02	2.35038420e-04
2.81000000e-01	1.71363705e-02	2.38381788e-04
2.81500000e-01	1.71721474e-02	2.37862909e-04
2.82000000e-01	1.71773165e-02	2.37665079e-04
2.82500000e-01	1.71915388e-02	2.38700860e-04
2.83000000e-01	1.70371771e-02	2.35332794e-04
2.83500000e-01	1.69309852e-02	2.34023623e-04
2.84000000e-01	1.70221629e-02	2.35498696e-04
2.84500000e-01	1.70305349e-02	2.34452746e-04
2.85000000e-01	1.70560690e-02	2.35598201e-04
2.85500000e-01	1.68230407e-02	2.31622249e-04
2.86000000e-01	1.70553962e-02	2.35034671e-04
2.86500000e-01	1.71261467e-02	2.35353677e-04
2.87000000e-01	1.71208249e-02	2.34988275e-04
2.87500000e-01	1.68542377e-02	2.30582403e-04
2.88000000e-01	1.70302346e-02	2.32587372e-04
2.88500000e-01	1.69073715e-02	2.32088540e-04
2.89000000e-01	1.70271771e-02	2.33283058e-04
2.89500000e-01	1.70054048e-02	2.33358192e-04
2.90000000e-01	1.70209520e-02	2.32559938e-04
2.90500000e-01	1.69178497e-02	2.30785126e-04
2.91000000e-01	1.69238749e-02	2.30267496e-04
2.91500000e-01	1.70663059e-02	2.32079494e-04
2.92000000e-01	1.70444891e-02	2.31183379e-04
2.92500000e-01	1.69720651e-02	2.30392811e-04
2.93000000e-01	1.69443356e-02	2.29557728e-04
2.93500000e-01	1.70339721e-02	2.30755098e-04
2.94000000e-01	1.68140698e-02	2.28516987e-04
2.94500000e-01	1.69271357e-02	2.30258470e-04
2.95000000e-01	1.69914090e-02	2.28583523e-04
2.95500000e-01	1.67510436e-02	2.27055038e-04
2.96000000e-01	1.68223398e-02	2.27683730e-04
2.96500000e-01	1.69708746e-02	2.28617891e-04
2.97000000e-01	1.70754790e-02	2.30631205e-04
2.97500000e-01	1.69740767e-02	2.27905677e-04
2.98000000e-01	1.71330145e-02	2.30143745e-04
2.98500000e-01	1.70883978e-02	2.29632636e-04
2.99000000e-01	1.68945265e-02	2.27464650e-04
2.99500000e-01	1.68763632e-02	2.26352981e-04
3.00000000e-01	1.70035148e-02	2.27318953e-04
3.00500000e-01	1.66139417e-02	2.23627702e-04
3.01000000e-01	1.65981917e-02	2.22045378e-04
3.01500000e-01	1.66516076e-02	2.22781518e-04
3.02000000e-01	1.69262508e-02	2.25841953e-04
3.02500000e-01	1.68342482e-02	2.24162099e-04
3.03000000e-01	1.67289889e-02	2.23781778e-04
3.03500000e-01	1.67158133e-02	2.23329015e-04
3.04000000e-01	1.68440482e-02	2.25404796e-04
3.04500000e-01	1.66467406e-02	2.21786391e-04
3.05000000e-01	1.66927962e-02	2.22688741e-04
3.05500000e-01	1.67495802e-02	2.22001502e-04
3.06000000e-01	1.68386832e-02	2.23172725e-04
3.06500000e-01	1.68095958e-02	2.22897825e-04
3.07000000e-01	1.67197952e-02	2.21382581e-04
3.07500000e-01	1.66032932e-02	2.20669645e-04
3.08000000e-01	1.66976919e-02	2.21566264e-04
3.08500000e-01	1.66102280e-02	2.20054126e-04
3.09000000e-01	1.68440326e-02	2.23008365e-04
3.09500000e-01	1.64861648e-02	2.17830466e-04
3.10000000e-01	1.67899839e-02	2.22279333e-04
3.10500000e-01	1.67522248e-02	2.20643674e-04
3.11000000e-01	1.66121346e-02	2.19138285e-04
3.11500000e-01	1.68167193e-02	2.20711091e-04
3.12000000e-01	1.66313324e-02	2.19234450e-04
3.12500000e-01	1.66942249e-02	2.19692565e-04
3.13000000e-01	1.68151587e-02	2.20945922e-04
3.13500000e-01	1.65582009e-02	2.17774724e-04
3.14000000e-01	1.66175917e-02	2.19157308e-04
3.14500000e-01	1.65164800e-02	2.16736546e-04
3.15000000e-01	1.64027484e-02	2.15330894e-04
3.15500000e-01	1.65711432e-02	2.17423909e-04
3.16000000e-01	1.63350092e-02	2.14982915e-04
3.16500000e-01	1.65832843e-02	2.16781264e-04
3.17000000e-01	1.65133479e-02	2.15739857e-04
3.17500000e-01	1.62325271e-02	2.12076426e-04
3.18000000e-01	1.66940380e-02	2.17481153e-04
3.18500000e-01	1.64081654e-02	2.14489791e-04
3.19000000e-01	1.63074487e-02	2.12686147e-04
3.19500000e-01	1.64925759e-02	2.15074995e-04
3.20000000e-01	1.62907343e-02	2.12954726e-04
3.20500000e-01	1.64563198e-02	2.13643603e-04
3.21000000e-01	1.63506134e-02	2.13186864e-04
3.21500000e-01	1.64965149e-02	2.14209333e-04
3.22000000e-01	1.64294142e-02	2.13316663e-04
3.22500000e-01	1.65538965e-02	2.14251259e-04
3.23000000e-01	1.64741256e-02	2.12885528e-04
3.23500000e-01	1.64909240e-02	2.13594444e-04
3.24000000e-01	1.63734571e-02	2.12256927e-04
3.24500000e-01	1.63134384e-02	2.11387518e-04
3.25000000e-01	1.63018761e-02	2.10097874e-04
3.25500000e-01	1.64229893e-02	2.12105204e-04
3.26000000e-01	1.64147062e-02	2.11637423e-04
3.26500000e-01	1.63594034e-02	2.10316215e-04
3.27000000e-01	1.60947185e-02	2.08001067e-04
3.27500000e-01	1.62193807e-02	2.09540166e-04
3.28000000e-01	1.63193025e-02	2.10037541e-04
3.28500000e-01	1.59046498e-02	2.05357745e-04
3.29000000e-01	1.64943267e-02	2.11109702e-04
3.29500000e-01	1.62890663e-02	2.09543903e-04
3.30000000e-01	1.63514344e-02	2.09198448e-04
3.30500000e-01	1.63071167e-02	2.09167287e-04
3.31000000e-01	1.62090846e-02	2.08412666e-04
3.31500000e-01	1.60337905e-02	2.05456371e-04
3.32000000e-01	1.63316887e-02	2.08830886e-04
3.32500000e-01	1.62746395e-02	2.07774639e-04
3.33000000e-01	1.61458023e-02	2.05992031e-04
3.33500000e-01	1.62245130e-02	2.07164382e-04
3.34000000e-01	1.63987930e-02	2.09799685e-04
3.34500000e-01	1.60530642e-02	2.04595022e-04
3.35000000e-01	1.61383906e-02	2.05135703e-04
3.35500000e-01	1.61420413e-02	2.05779594e-04
3.36000000e-01	1.61465794e-02	2.05578664e-04
3.36500000e-01	1.62206385e-02	2.06153147e-04
3.37000000e-01	1.61324568e-02	2.04651138e-04
3.37500000e-01	1.60838906e-02	2.04133563e-04
3.38000000e-01	1.61527277e-02	2.05156448e-04
3.38500000e-01	1.61238780e-02	2.04226975e-04
3.39000000e-01	1.61120276e-02	2.04235211e-04
3.39500000e-01	1.61427712e-02	2.03843490e-04
3.40000000e-01	1.61289595e-02	2.04566234e-04
3.40500000e-01	1.61419677e-02	2.03859957e-04
3.41000000e-01	1.62390424e-02	2.04225067e-04
3.41500000e-01	1.60285465e-02	2.02281642e-04
3.42000000e-01	1.62886381e-02	2.05361191e-04
3.42500000e-01	1.61163385e-02	2.04346009e-04
3.43000000e-01	1.61285834e-02	2.02526615e-04
3.43500000e-01	1.61491890e-02	2.03137805e-04
3.44000000e-01	1.61047864e-02	2.02597837e-04
3.44500000e-01	1.60884409e-02	2.02614800e-04
3.45000000e-01	1.58671076e-02	2.00251413e-04
3.45500000e-01	1.57994119e-02	1.98299846e-04
3.46000000e-01	1.60064033e-02	2.00589054e-04
3.46500000e-01	1.59369485e-02	1.99614583e-04
3.47000000e-01	1.60244308e-02	2.00602450e-04
3.47500000e-01	1.59729143e-02	1.99942094e-04
3.48000000e-01	1.59403010e-02	2.00090323e-04
3.48500000e-01	1.59446628e-02	1.99411685e-04
3.49000000e-01	1.59477545e-02	1.98550051e-04
3.49500000e-01	1.60822881e-02	2.00992415e-04
3.50000000e-01	1.59269446e-02	1.62498396e-04
3.51000000e-01	1.59357745e-02	1.40297268e-04
3.52000000e-01	1.59151361e-02	1.40419502e-04
3.53000000e-01	1.59260319e-02	1.39843248e-04
3.54000000e-01	1.57984868e-02	1.38229667e-04
3.55000000e-01	1.58554695e-02	1.38703965e-04
3.56000000e-01	1.57887128e-02	1.38806219e-04
3.57000000e-01	1.58402235e-02	1.41833174e-04
3.58000000e-01	1.57393441e-02	1.41740574e-04
3.59000000e-01	1.56294065e-02	1.42206234e-04
3.60000000e-01	1.57278769e-02	1.44262819e-04
3.61000000e-01	1.56585302e-02	1.43999997e-04
3.62000000e-01	1.55217103e-02	1.43771937e-04
3.63000000e-01	1.55867450e-02	1.44887889e-04
3.64000000e-01	1.55897526e-02	1.45358709e-04
3.65000000e-01	1.55448237e-02	1.45316686e-04
3.66000000e-01	1.56484283e-02	1.44384070e-04
3.67000000e-01	1.55640206e-02	1.41396679e-04
3.68000000e-01	1.56711242e-02	1.41681436e-04
3.69000000e-01	1.56584845e-02	1.40775742e-04
3.70000000e-01	1.54719747e-02	1.38344368e-04
3.71000000e-01	1.54430507e-02	1.40064096e-04
3.72000000e-01	1.54047716e-02	1.40903624e-04
3.73000000e-01	1.56365247e-02	1.42674720e-04
3.74000000e-01	1.55762842e-02	1.42546758e-04
3.75000000e-01	1.56153607e-02	1.42872575e-04
3.76000000e-01	1.54576890e-02	1.41477431e-04
3.77000000e-01	1.55984876e-02	1.43167705e-04
3.78000000e-01	1.55274983e-02	1.42050632e-04
3.79000000e-01	1.54951488e-02	1.41564720e-04
3.80000000e-01	1.55404268e-02	1.41767311e-04
3.81000000e-01	1.54076650e-02	1.40543259e-04
3.82000000e-01	1.53669100e-02	1.40685298e-04
3.83000000e-01	1.53446161e-02	1.40088134e-04
3.84000000e-01	1.53772142e-02	1.40562286e-04
3.85000000e-01	1.55172171e-02	1.42201667e-04
3.86000000e-01	1.53309568e-02	1.40312850e-04
3.87000000e-01	1.54144674e-02	1.40703045e-04
3.88000000e-01	1.53533533e-02	1.39900579e-04
3.89000000e-01	1.53338159e-02	1.40163289e-04
3.90000000e-01	1.53164232e-02	1.39416750e-04
3.91000000e-01	1.52273313e-02	1.39102676e-04
3.92000000e-01	1.51121604e-02	1.37819392e-04
3.93000000e-01	1.53033473e-02	1.39546668e-04
3.94000000e-01	1.52994860e-02	1.39383698e-04
3.95000000e-01	1.52414703e-02	1.38794125e-04
3.96000000e-01	1.52451875e-02	1.39085235e-04
3.97000000e-01	1.53028520e-02	1.39248282e-04
3.98000000e-01	1.53374105e-02	1.39625235e-04
3.99000000e-01	1.52881021e-02	1.39584240e-04
4.00000000e-01	1.52214277e-02	1.38664110e-04
4.01000000e-01	1.52317383e-02	1.38438793e-04
4.02000000e-01	1.51002189e-02	1.37582372e-04
4.03000000e-01	1.51463658e-02	1.38115838e-04
4.04000000e-01	1.51354183e-02	1.37988419e-04
4.05000000e-01	1.51785187e-02	1.38055658e-04
4.06000000e-01	1.51205220e-02	1.37935590e-04
4.07000000e-01	1.50213146e-02	1.36670606e-04
4.08000000e-01	1.49816743e-02	1.36445222e-04
4.09000000e-01	1.50402503e-02	1.36577164e-04
4.10000000e-01	1.50820366e-02	1.37165862e-04
4.11000000e-01	1.49510589e-02	1.36244590e-04
4.12000000e-01	1.49969803e-02	1.36502048e-04
4.13000000e-01	1.50665218e-02	1.36930958e-04
4.14000000e-01	1.50605063e-02	1.37193437e-04
4.15000000e-01	1.49769159e-02	1.35736627e-04
4.16000000e-01	1.50781701e-02	1.36703209e-04
4.17000000e-01	1.51082726e-02	1.37388752e-04
4.18000000e-01	1.51744043e-02	1.38832610e-04
4.19000000e-01	1.50545922e-02	1.39980770e-04
4.20000000e-01	1.49526605e-02	1.40026763e-04
4.21000000e-01	1.50788489e-02	1.41040937e-04
4.22000000e-01	1.50825166e-02	1.41299622e-04
4.23000000e-01	1.51321020e-02	1.42359638e-04
4.24000000e-01	1.49199340e-02	1.40955804e-04
4.25000000e-01	1.49918959e-02	1.41728383e-04
4.26000000e-01	1.49880281e-02	1.42064330e-04
4.27000000e-01	1.49819600e-02	1.42172054e-04
4.28000000e-01	1.51149533e-02	1.42993139e-04
4.29000000e-01	1.49705410e-02	1.42454620e-04
4.30000000e-01	1.49971728e-02	1.42654909e-04
4.31000000e-01	1.49179091e-02	1.41767745e-04
4.32000000e-01	1.50932857e-02	1.43314103e-04
4.33000000e-01	1.48387509e-02	1.41359187e-04
4.34000000e-01	1.49060831e-02	1.42142752e-04
4.35000000e-01	1.48581483e-02	1.41845183e-04
4.36000000e-01	1.49395212e-02	1.42695571e-04
4.37000000e-01	1.50095753e-02	1.43863930e-04
4.38000000e-01	1.48147148e-02	1.41811855e-04
4.39000000e-01	1.48301498e-02	1.42508932e-04
4.40000000e-01	1.49067471e-02	1.42584461e-04
4.41000000e-01	1.47711190e-02	1.42128945e-04
4.42000000e-01	1.49045553e-02	1.43259142e-04
4.43000000e-01	1.48817699e-02	1.43225325e-04
4.44000000e-01	1.47070145e-02	1.42077417e-04
4.45000000e-01	1.48015942e-02	1.42907600e-04
4.46000000e-01	1.48408582e-02	1.43313428e-04
4.47000000e-01	1.48189278e-02	1.43529525e-04
4.48000000e-01	1.47424573e-02	1.42480411e-04
4.49000000e-01	1.47880842e-02	1.43749110e-04
4.50000000e-01	1.47074433e-02	1.42665292e-04
4.51000000e-01	1.48504099e-02	1.44455152e-04
4.52000000e-01	1.47206153e-02	1.43607391e-04
4.53000000e-01	1.45516801e-02	1.42425086e-04
4.54000000e-01	1.46365312e-02	1.42316172e-04
4.55000000e-01	1.46815899e-02	1.43413343e-04
4.56000000e-01	1.47112636e-02	1.43590179e-04
4.57000000e-01	1.46361339e-02	1.43225274e-04
4.58000000e-01	1.46880865e-02	1.43762386e-04
4.59000000e-01	1.45803634e-02	1.42318959e-04
4.60000000e-01	1.47118167e-02	1.44003003e-04
4.61000000e-01	1.46994905e-02	1.44116130e-04
4.62000000e-01	1.46695540e-02	1.43916064e-04
4.63000000e-01	1.45372255e-02	1.43182285e-04
4.64000000e-01	1.44960205e-02	1.42967290e-04
4.65000000e-01	1.46864002e-02	1.45147367e-04
4.66000000e-01	1.46661103e-02	1.44231168e-04
4.67000000e-01	1.44986897e-02	1.42334568e-04
4.68000000e-01	1.45448378e-02	1.43386031e-04
4.69000000e-01	1.45090824e-02	1.43541805e-04
4.70000000e-01	1.47059858e-02	1.45241716e-04
4.71000000e-01	1.45993989e-02	1.44229393e-04
4.72000000e-01	1.45683118e-02	1.43677830e-04
4.73000000e-01	1.45390765e-02	1.43482457e-04
4.74000000e-01	1.44711223e-02	1.42857506e-04
4.75000000e-01	1.45090319e-02	1.43029152e-04
4.76000000e-01	1.44890135e-02	1.42716272e-04
4.77000000e-01	1.43622705e-02	1.41743283e-04
4.78000000e-01	1.45492980e-02	1.43515844e-04
4.79000000e-01	1.44575887e-02	1.43053170e-04
4.80000000e-01	1.44379468e-02	1.42507572e-04
4.81000000e-01	1.43616119e-02	1.41838628e-04
4.82000000e-01	1.44960072e-02	1.43513115e-04
4.83000000e-01	1.44883740e-02	1.43263045e-04
4.84000000e-01	1.43442366e-02	1.41957804e-04
4.85000000e-01	1.43003814e-02	1.41941977e-04
4.86000000e-01	1.44238144e-02	1.43026840e-04
4.87000000e-01	1.44029767e-02	1.42667789e-04
4.88000000e-01	1.43227923e-02	1.42728915e-04
4.89000000e-01	1.44483933e-02	1.43264060e-04
4.90000000e-01	1.44838139e-02	1.44211642e-04
4.91000000e-01	1.43251927e-02	1.42530225e-04
4.92000000e-01	1.41792713e-02	1.41311000e-04
4.93000000e-01	1.43198673e-02	1.42785297e-04
4.94000000e-01	1.43291293e-02	1.42955663e-04
4.95000000e-01	1.41548924e-02	1.41901247e-04
4.96000000e-01	1.43188185e-02	1.47846120e-04
4.97000000e-01	1.42727912e-02	1.50363074e-04
4.98000000e-01	1.42087659e-02	1.51705643e-04
4.99000000e-01	1.43240124e-02	1.54536135e-04
5.00000000e-01	1.43034543e-02	1.56305788e-04
5.01000000e-01	1.40537771e-02	1.55097047e-04
5.02000000e-01	1.42999467e-02	1.59206161e-04
5.03000000e-01	1.43769400e-02	1.61339423e-04
5.04000000e-01	1.42422816e-02	1.61052626e-04
5.05000000e-01	1.43602178e-02	1.59718388e-04
5.06000000e-01	1.44710028e-02	1.57113284e-04
5.07000000e-01	1.42979401e-02	1.54449534e-04
5.08000000e-01	1.44204736e-02	1.54188755e-04
5.09000000e-01	1.41532726e-02	1.50991037e-04
5.10000000e-01	1.43286448e-02	1.52345421e-04
5.11000000e-01	1.42100294e-02	1.51267263e-04
5.12000000e-01	1.43276375e-02	1.51356669e-04
5.13000000e-01	1.41964274e-02	1.50088478e-04
5.14000000e-01	1.43149671e-02	1.51081709e-04
5.15000000e-01	1.42381528e-02	1.49762945e-04
5.16000000e-01	1.41175130e-02	1.48429578e-04
5.17000000e-01	1.41715092e-02	1.49047044e-04
5.18000000e-01	1.41524097e-02	1.48455860e-04
5.19000000e-01	1.40690054e-02	1.46861570e-04
5.20000000e-01	1.42943996e-02	1.48453913e-04
5.21000000e-01	1.40930920e-02	1.46946960e-04
5.22000000e-01	1.40756270e-02	1.46168807e-04
5.23000000e-01	1.40482857e-02	1.46380032e-04
5.24000000e-01	1.40217277e-02	1.45869616e-04
5.25000000e-01	1.40205797e-02	1.46215863e-04
5.26000000e-01	1.41197225e-02	1.46512737e-04
5.27000000e-01	1.39818803e-02	1.45615533e-04
5.28000000e-01	1.39843704e-02	1.46125354e-04
5.29000000e-01	1.40560651e-02	1.45864966e-04
5.30000000e-01	1.40431448e-02	1.46465613e-04
5.31000000e-01	1.39728138e-02	1.45020116e-04
5.32000000e-01	1.40000076e-02	1.45446436e-04
5.33000000e-01	1.40591577e-02	1.45818316e-04
5.34000000e-01	1.37943993e-02	1.44030863e-04
5.35000000e-01	1.39888215e-02	1.44624420e-04
5.36000000e-01	1.38645092e-02	1.44018711e-04
5.37000000e-01	1.39230201e-02	1.45025405e-04
5.38000000e-01	1.38974099e-02	1.44463627e-04
5.39000000e-01	1.39097531e-02	1.44752120e-04
5.40000000e-01	1.39998934e-02	1.45288176e-04
5.41000000e-01	1.38944516e-02	1.44369845e-04
5.42000000e-01	1.38263935e-02	1.44071633e-04
5.43000000e-01	1.40375555e-02	1.45787592e-04
5.44000000e-01	1.39233680e-02	1.44754616e-04
5.45000000e-01	1.38503016e-02	1.43725651e-04
5.46000000e-01	1.38355462e-02	1.43660494e-04
5.47000000e-01	1.39255162e-02	1.44955041e-04
5.48000000e-01	1.39574341e-02	1.44792991e-04
5.49000000e-01	1.37463564e-02	1.42763534e-04
5.50000000e-01	1.36922451e-02	1.42319753e-04
5.51000000e-01	1.37549553e-02	1.42577127e-04
5.52000000e-01	1.38122881e-02	1.42668416e-04
5.53000000e-01	1.38583511e-02	1.43287136e-04
5.54000000e-01	1.37351031e-02	1.41764615e-04
5.55000000e-01	1.36747484e-02	1.41336385e-04
5.56000000e-01	1.38838029e-02	1.43273487e-04
5.57000000e-01	1.38349272e-02	1.42883219e-04
5.58000000e-01	1.36805223e-02	1.41424082e-04
5.59000000e-01	1.37379472e-02	1.42157231e-04
5.60000000e-01	1.38698958e-02	1.43614609e-04
5.61000000e-01	1.37369132e-02	1.41954141e-04
5.62000000e-01	1.37260242e-02	1.41909465e-04
5.63000000e-01	1.36794318e-02	1.41468590e-04
5.64000000e-01	1.37524149e-02	1.42257103e-04
5.65000000e-01	1.37994877e-02	1.43359256e-04
5.66000000e-01	1.37005502e-02	1.41440755e-04
5.67000000e-01	1.37748931e-02	1.42498097e-04
5.68000000e-01	1.36054208e-02	1.40612909e-04
5.69000000e-01	1.36639251e-02	1.40581039e-04
5.70000000e-01	1.35471842e-02	1.39675322e-04
5.71000000e-01	1.36580332e-02	1.41285385e-04
5.72000000e-01	1.36899294e-02	1.41444715e-04
5.73000000e-01	1.35768345e-02	1.40573912e-04
5.74000000e-01	1.34947335e-02	1.38990453e-04
5.75000000e-01	1.35260617e-02	1.40377401e-04
5.76000000e-01	1.35686292e-02	1.40105525e-04
5.77000000e-01	1.36374494e-02	1.41415261e-04
5.78000000e-01	1.36281470e-02	1.41171673e-04
5.79000000e-01	1.34798116e-02	1.39677936e-04
5.80000000e-01	1.34853048e-02	1.39607017e-04
5.81000000e-01	1.34642527e-02	1.39749879e-04
5.82000000e-01	1.35282141e-02	1.39956692e-04
5.83000000e-01	1.34466345e-02	1.39555765e-04
5.84000000e-01	1.33308612e-02	1.38233987e-04
5.85000000e-01	1.34280974e-02	1.39336625e-04
5.86000000e-01	1.34346425e-02	1.39836598e-04
5.87000000e-01	1.33102507e-02	1.38572199e-04
5.88000000e-01	1.33458441e-02	1.39034179e-04
5.89000000e-01	1.34219240e-02	1.39631482e-04
5.90000000e-01	1.33750830e-02	1.38958915e-04
5.91000000e-01	1.33989850e-02	1.39178443e-04
5.92000000e-01	1.35253248e-02	1.40627074e-04
5.93000000e-01	1.34006092e-02	1.39547842e-04
5.94000000e-01	1.32905676e-02	1.38532043e-04
5.95000000e-01	1.34363806e-02	1.40024736e-04
5.96000000e-01	1.34116033e-02	1.39819217e-04
5.97000000e-01	1.32458712e-02	1.38288025e-04
5.98000000e-01	1.33336551e-02	1.38873562e-04
5.99000000e-01	1.34018737e-02	1.39112753e-04
6.00000000e-01	1.32947838e-02	1.38455249e-04
6.01000000e-01	1.32383820e-02	1.37717774e-04
6.02000000e-01	1.33400302e-02	1.38806650e-04
6.03000000e-01	1.33298485e-02	1.39217956e-04
6.04000000e-01	1.31864362e-02	1.37707777e-04
6.05000000e-01	1.33673380e-02	1.39244080e-04
6.06000000e-01	1.32033277e-02	1.37924860e-04
6.07000000e-01	1.33537095e-02	1.38945871e-04
6.08000000e-01	1.32423041e-02	1.37970404e-04
6.09000000e-01	1.33024260e-02	1.39103230e-04
6.10000000e-01	1.32594552e-02	1.38217178e-04
6.11000000e-01	1.32930249e-02	1.39084607e-04
6.12000000e-01	1.31289776e-02	1.37473859e-04
6.13000000e-01	1.31012918e-02	1.37261266e-04
6.14000000e-01	1.31807660e-02	1.37260897e-04
6.15000000e-01	1.31780030e-02	1.37509393e-04
6.16000000e-01	1.30776243e-02	1.36366374e-04
6.17000000e-01	1.31798465e-02	1.38407207e-04
6.18000000e-01	1.31488199e-02	1.37676765e-04
6.19000000e-01	1.31567070e-02	1.37349072e-04
6.20000000e-01	1.32419217e-02	1.38256912e-04
6.21000000e-01	1.31254496e-02	1.36659990e-04
6.22000000e-01	1.31074882e-02	1.36928508e-04
6.23000000e-01	1.31011568e-02	1.36484023e-04
6.24000000e-01	1.31160706e-02	1.35772292e-04
6.25000000e-01	1.29873428e-02	1.34532001e-04
6.26000000e-01	1.30841729e-02	1.35495456e-04
6.27000000e-01	1.31973912e-02	1.36606842e-04
6.28000000e-01	1.30039136e-02	1.35130918e-04
6.29000000e-01	1.31370481e-02	1.36534835e-04
6.30000000e-01	1.30116322e-02	1.35253919e-04
6.31000000e-01	1.30882567e-02	1.35551810e-04
6.32000000e-01	1.29999694e-02	1.35063692e-04
6.33000000e-01	1.30008090e-02	1.35096493e-04
6.34000000e-01	1.30485774e-02	1.38486889e-04
6.35000000e-01	1.30158317e-02	1.42324687e-04
6.36000000e-01	1.31621151e-02	1.46577664e-04
6.37000000e-01	1.30965867e-02	1.48707037e-04
6.38000000e-01	1.30593163e-02	1.50134969e-04
6.39000000e-01	1.30579613e-02	1.52019425e-04
6.40000000e-01	1.30982444e-02	1.54210765e-04
6.41000000e-01	1.30967917e-02	1.55164990e-04
6.42000000e-01	1.29190831e-02	1.55866997e-04
6.43000000e-01	1.29311115e-02	1.55876567e-04
6.44000000e-01	1.32401444e-02	1.53085534e-04
6.45000000e-01	1.30798357e-02	1.48789563e-04
6.46000000e-01	1.31571987e-02	1.49272838e-04
6.47000000e-01	1.31331514e-02	1.47578932e-04
6.48000000e-01	1.30772075e-02	1.45941965e-04
6.49000000e-01	1.29491924e-02	1.44021543e-04
6.50000000e-01	1.30638225e-02	1.44081441e-04
6.51000000e-01	1.32377641e-02	1.45532969e-04
6.52000000e-01	1.30343808e-02	1.42792550e-04
6.53000000e-01	1.30461178e-02	1.42668279e-04
6.54000000e-01	1.28185878e-02	1.40044769e-04
6.55000000e-01	1.31985475e-02	1.43036292e-04
6.56000000e-01	1.31244123e-02	1.42685545e-04
6.57000000e-01	1.29236183e-02	1.39864863e-04
6.58000000e-01	1.29408813e-02	1.40163656e-04
6.59000000e-01	1.30793861e-02	1.41167158e-04
6.60000000e-01	1.29988900e-02	1.40489899e-04
6.61000000e-01	1.30275449e-02	1.40505192e-04
6.62000000e-01	1.30653351e-02	1.41431381e-04
6.63000000e-01	1.29478765e-02	1.40107423e-04
6.64000000e-01	1.30137511e-02	1.40418883e-04
6.65000000e-01	1.29111369e-02	1.39847467e-04
6.66000000e-01	1.29107587e-02	1.38753825e-04
6.67000000e-01	1.29835050e-02	1.40497229e-04
6.68000000e-01	1.29496426e-02	1.39661392e-04
6.69000000e-01	1.28903496e-02	1.38884163e-04
6.70000000e-01	1.28637884e-02	1.38180208e-04
6.71000000e-01	1.29051293e-02	1.39148009e-04
6.72000000e-01	1.29052337e-02	1.38387563e-04
6.73000000e-01	1.29046190e-02	1.38440156e-04
6.74000000e-01	1.28911062e-02	1.38574881e-04
6.75000000e-01	1.28204372e-02	1.37926778e-04
6.76000000e-01	1.27506801e-02	1.37144236e-04
6.77000000e-01	1.27072860e-02	1.36502226e-04
6.78000000e-01	1.28105883e-02	1.37628815e-04
6.79000000e-01	1.28371935e-02	1.38081373e-04
6.80000000e-01	1.27529788e-02	1.36724087e-04
6.81000000e-01	1.28394784e-02	1.37525718e-04
6.82000000e-01	1.28435027e-02	1.38392526e-04
6.83000000e-01	1.27798407e-02	1.37456802e-04
6.84000000e-01	1.28394312e-02	1.38272351e-04
6.85000000e-01	1.28228547e-02	1.37358138e-04
6.86000000e-01	1.27844730e-02	1.37472716e-04
6.87000000e-01	1.28053217e-02	1.37243104e-04
6.88000000e-01	1.27587814e-02	1.36973017e-04
6.89000000e-01	1.27950768e-02	1.36772825e-04
6.90000000e-01	1.27047032e-02	1.36368925e-04
6.91000000e-01	1.27172363e-02	1.36447714e-04
6.92000000e-01	1.28745210e-02	1.38076797e-04
6.93000000e-01	1.27695799e-02	1.37215875e-04
6.94000000e-01	1.25763248e-02	1.34957436e-04
6.95000000e-01	1.27414966e-02	1.36543265e-04
6.96000000e-01	1.28182486e-02	1.37866609e-04
6.97000000e-01	1.25745461e-02	1.35148956e-04
6.98000000e-01	1.25985092e-02	1.34942022e-04
6.99000000e-01	1.27472127e-02	1.36566163e-04
7.00000000e-01	1.27224090e-02	1.36270649e-04
7.01000000e-01	1.26735001e-02	1.35792790e-04
7.02000000e-01	1.25087425e-02	1.34502923e-04
7.03000000e-01	1.26392020e-02	1.35711231e-04
7.04000000e-01	1.27251304e-02	1.36163641e-04
7.05000000e-01	1.26667920e-02	1.35645585e-04
7.06000000e-01	1.25618522e-02	1.34603433e-04
7.07000000e-01	1.25762674e-02	1.34534641e-04
7.08000000e-01	1.26152728e-02	1.34715874e-04
7.09000000e-01	1.26547065e-02	1.35115805e-04
7.10000000e-01	1.25074407e-02	1.33659612e-04
7.11000000e-01	1.24414193e-02	1.32970494e-04
7.12000000e-01	1.25328800e-02	1.33951233e-04
7.13000000e-01	1.25087390e-02	1.34193988e-04
7.14000000e-01	1.26026298e-02	1.35088496e-04
7.15000000e-01	1.25239283e-02	1.34346264e-04
7.16000000e-01	1.24990446e-02	1.33684927e-04
7.17000000e-01	1.25110904e-02	1.34220681e-04
7.18000000e-01	1.24531472e-02	1.33363552e-04
7.19000000e-01	1.25078050e-02	1.33803425e-04
7.20000000e-01	1.23775056e-02	1.32621428e-04
7.21000000e-01	1.23187628e-02	1.32285849e-04
7.22000000e-01	1.24619687e-02	1.33927555e-04
7.23000000e-01	1.24056080e-02	1.33077645e-04
7.24000000e-01	1.24044844e-02	1.32750815e-04
7.25000000e-01	1.25178112e-02	1.33887467e-04
7.26000000e-01	1.24245453e-02	1.32596724e-04
7.27000000e-01	1.24611172e-02	1.33836581e-04
7.28000000e-01	1.24244774e-02	1.32877463e-04
7.29000000e-01	1.22823907e-02	1.31529866e-04
7.30000000e-01	1.22418536e-02	1.31620086e-04
7.31000000e-01	1.21701429e-02	1.30755430e-04
7.32000000e-01	1.23399874e-02	1.32496821e-04
7.33000000e-01	1.20841483e-02	1.30374595e-04
7.34000000e-01	1.22364366e-02	1.30651656e-04
7.35000000e-01	1.22504937e-02	1.31668177e-04
7.36000000e-01	1.22176643e-02	1.30729421e-04
7.37000000e-01	1.23022313e-02	1.31001022e-04
7.38000000e-01	1.24075432e-02	1.31630602e-04
7.39000000e-01	1.22054072e-02	1.29965106e-04
7.40000000e-01	1.21719856e-02	1.29557935e-04
7.41000000e-01	1.22925714e-02	1.30451129e-04
7.42000000e-01	1.21727929e-02	1.29056199e-04
7.43000000e-01	1.22198469e-02	1.29822933e-04
7.44000000e-01	1.20243813e-02	1.28260411e-04
7.45000000e-01	1.21655403e-02	1.29372453e-04
7.46000000e-01	1.21617123e-02	1.29163502e-04
7.47000000e-01	1.20713985e-02	1.28621610e-04
7.48000000e-01	1.20554744e-02	1.28664871e-04
7.49000000e-01	1.22093861e-02	1.29209547e-04
7.50000000e-01	1.21804953e-02	1.28982066e-04
7.51000000e-01	1.20818481e-02	1.28369233e-04
7.52000000e-01	1.21185268e-02	1.29044220e-04
7.53000000e-01	1.20260671e-02	1.27939952e-04
7.54000000e-01	1.20035747e-02	1.27386997e-04
7.55000000e-01	1.21357879e-02	1.29229566e-04
7.56000000e-01	1.21838442e-02	1.29759253e-04
7.57000000e-01	1.20339702e-02	1.28026396e-04
7.58000000e-01	1.20420155e-02	1.27691937e-04
7.59000000e-01	1.19604201e-02	1.27270080e-04
7.60000000e-01	1.20432264e-02	1.28434472e-04
7.61000000e-01	1.19869958e-02	1.27134952e-04
7.62000000e-01	1.18506496e-02	1.25337306e-04
7.63000000e-01	1.20457265e-02	1.27418998e-04
7.64000000e-01	1.19275402e-02	1.26381041e-04
7.65000000e-01	1.18924805e-02	1.25481285e-04
7.66000000e-01	1.19973787e-02	1.26553675e-04
7.67000000e-01	1.19051792e-02	1.26345134e-04
7.68000000e-01	1.19721045e-02	1.26178784e-04
7.69000000e-01	1.19241970e-02	1.26286632e-04
7.70000000e-01	1.18543039e-02	1.25386807e-04
7.71000000e-01	1.18158459e-02	1.24987616e-04
7.72000000e-01	1.19150511e-02	1.29517622e-04
7.73000000e-01	1.20193084e-02	1.34574560e-04
7.74000000e-01	1.19741127e-02	1.36335954e-04
7.75000000e-01	1.18344743e-02	1.38364151e-04
7.76000000e-01	1.17835821e-02	1.39911592e-04
7.77000000e-01	1.18480562e-02	1.42225999e-04
7.78000000e-01	1.18442292e-02	1.44201369e-04
7.79000000e-01	1.19141947e-02	1.46878050e-04
7.80000000e-01	1.17602348e-02	1.46108843e-04
7.81000000e-01	1.17705340e-02	1.48723630e-04
7.82000000e-01	1.18478213e-02	1.51528776e-04
7.83000000e-01	1.16494732e-02	1.49896714e-04
7.84000000e-01	1.17260018e-02	1.53182457e-04
7.85000000e-01	1.17630457e-02	1.54108412e-04
7.86000000e-01	1.15713590e-02	1.53818912e-04
7.87000000e-01	1.18612141e-02	1.58884871e-04
7.88000000e-01	1.17090746e-02	1.58962955e-04
7.89000000e-01	1.16938378e-02	1.60539281e-04
7.90000000e-01	1.16247489e-02	1.61003100e-04
7.91000000e-01	1.18257807e-02	1.65342482e-04
7.92000000e-01	1.15478387e-02	1.62998855e-04
7.93000000e-01	1.16457402e-02	1.66592596e-04
7.94000000e-01	1.17511087e-02	1.68240013e-04
7.95000000e-01	1.15456168e-02	1.68634152e-04
7.96000000e-01	1.15990577e-02	1.71448848e-04
7.97000000e-01	1.14704377e-02	1.71475918e-04
7.98000000e-01	1.15157245e-02	1.72856381e-04
7.99000000e-01	1.14925099e-02	1.75499318e-04
8.00000000e-01	1.15494894e-02	1.76640478e-04
8.01000000e-01	1.13823776e-02	1.76810315e-04
8.02000000e-01	1.15496498e-02	1.80315000e-04
8.03000000e-01	1.16316969e-02	1.82929033e-04
8.04000000e-01	1.15454677e-02	1.84928263e-04
8.05000000e-01	1.15555736e-02	1.86367160e-04
8.06000000e-01	1.15520624e-02	1.88484383e-04
8.07000000e-01	1.14373533e-02	1.88849351e-04
8.08000000e-01	1.15457521e-02	1.93526821e-04
8.09000000e-01	1.14146035e-02	1.91762596e-04
8.10000000e-01	1.14779738e-02	1.95628711e-04
8.11000000e-01	1.15903445e-02	1.99481848e-04
8.12000000e-01	1.13715601e-02	1.99197680e-04
8.13000000e-01	1.13362855e-02	2.00098609e-04
8.14000000e-01	1.13757012e-02	2.02303102e-04
8.15000000e-01	1.13097832e-02	2.05594193e-04
8.16000000e-01	1.12997734e-02	2.07237475e-04
8.17000000e-01	1.13215307e-02	2.10621892e-04
8.18000000e-01	1.11850294e-02	2.11145044e-04
8.19000000e-01	1.13432586e-02	2.15561990e-04
8.20000000e-01	1.12421673e-02	2.16086424e-04
8.21000000e-01	1.14532477e-02	2.23295561e-04
8.22000000e-01	1.11670404e-02	2.20312566e-04
8.23000000e-01	1.12324227e-02	2.24483267e-04
8.24000000e-01	1.12880992e-02	2.29949671e-04
8.25000000e-01	1.12118836e-02	2.31750464e-04
8.26000000e-01	1.10726285e-02	2.32484744e-04
8.27000000e-01	1.10405488e-02	2.34491607e-04
8.28000000e-01	1.08416638e-02	2.34295855e-04
8.29000000e-01	1.11536557e-02	2.45300036e-04
8.30000000e-01	1.13803435e-02	2.52157112e-04
8.31000000e-01	1.09268435e-02	2.47806422e-04
8.32000000e-01	1.12431209e-02	2.58979581e-04
8.33000000e-01	1.12121021e-02	2.60994477e-04
8.34000000e-01	1.11049103e-02	2.61517374e-04
8.35000000e-01	1.11536782e-02	2.68977628e-04
8.36000000e-01	1.09279286e-02	2.70853603e-04
8.37000000e-01	1.08265100e-02	2.73389011e-04
8.38000000e-01	1.09961274e-02	2.80700870e-04
8.39000000e-01	1.12016836e-02	2.92262531e-04
8.40000000e-01	1.08579716e-02	2.87805507e-04
8.41000000e-01	1.08886162e-02	2.97713467e-04
8.42000000e-01	1.10170084e-02	3.07351924e-04
8.43000000e-01	1.06882751e-02	3.07501970e-04
8.44000000e-01	1.06480152e-02	3.12409116e-04
8.45000000e-01	1.08883590e-02	3.28483747e-04
8.46000000e-01	1.08163936e-02	3.30888748e-04
8.47000000e-01	1.09961768e-02	3.51926280e-04
8.48000000e-01	1.07975239e-02	3.53650969e-04
8.49000000e-01	1.05725047e-02	3.58716485e-04
8.50000000e-01	1.10072703e-02	3.86845734e-04
8.51000000e-01	1.05776667e-02	3.88192790e-04
8.52000000e-01	1.08262186e-02	4.05022498e-04
8.53000000e-01	1.03943520e-02	4.13380926e-04
8.54000000e-01	1.07284014e-02	4.50442748e-04
8.55000000e-01	1.08817409e-02	4.66081616e-04
8.56000000e-01	1.05116579e-02	4.65867220e-04
8.57000000e-01	1.02017746e-02	4.68906312e-04
8.58000000e-01	1.03421563e-02	4.83733846e-04
8.59000000e-01	1.02950673e-02	4.92926079e-04
8.60000000e-01	1.06459583e-02	5.28268174e-04
8.61000000e-01	1.03135949e-02	5.19259652e-04
8.62000000e-01	1.06782288e-02	5.57138203e-04
8.63000000e-01	1.03033398e-02	5.78437438e-04
8.64000000e-01	1.04823175e-02	5.98150174e-04
8.65000000e-01	1.06712624e-02	6.47436880e-04
8.66000000e-01	9.92743357e-03	6.45170708e-04
8.67000000e-01	1.06464802e-02	7.24019155e-04
8.68000000e-01	1.09162836e-02	7.79072632e-04
8.69000000e-01	1.02221898e-02	7.94206172e-04
8.70000000e-01	1.11706342e-02	9.39692682e-04
8.71000000e-01	1.07457771e-02	1.00593588e-03
8.72000000e-01	8.94248654e-03	9.41241760e-04
8.73000000e-01	1.12230980e-02	1.41444294e-03
8.74000000e-01	9.72388241e-03	1.58757462e-03
8.75000000e-01	1.38422700e-02	4.44286765e-03
