% Filename : SDL3_p7_00017_00003.h5
% Date & Time : 30-Oct-2025 16:37:29
% X-ray Energy (keV) : 13.30001
% Exposure Time (s) : 0.500
% Beam Center : 1461.24000, 208.98300
% Sample to Detector Distance (SDD) (mm) : 1990.750
% Detector Pixel Size (mm) : 0.075
% Photodiode Value : 140699.000
% I0 of Sample : 0
% I0 of Standard : 1
% 
% q(A^-1)   I(q)    I(q)_SE
0.00000000e+00	1.15566156e-02	5.88434176e-03
2.50000000e-04	0.00000000e+00	0.00000000e+00
5.00000000e-04	0.00000000e+00	0.00000000e+00
7.50000000e-04	0.00000000e+00	0.00000000e+00
1.00000000e-03	0.00000000e+00	0.00000000e+00
1.25000000e-03	0.00000000e+00	0.00000000e+00
1.50000000e-03	0.00000000e+00	0.00000000e+00
1.75000000e-03	0.00000000e+00	0.00000000e+00
2.00000000e-03	0.00000000e+00	0.00000000e+00
2.25000000e-03	0.00000000e+00	0.00000000e+00
2.50000000e-03	0.00000000e+00	0.00000000e+00
2.75000000e-03	0.00000000e+00	0.00000000e+00
3.00000000e-03	0.00000000e+00	0.00000000e+00
3.25000000e-03	4.76779796e+01	2.75654485e+01
3.50000000e-03	3.05359013e+01	1.24105597e+01
3.75000000e-03	1.76929930e+01	6.51285425e+00
4.00000000e-03	1.36563169e+01	4.60197503e+00
4.25000000e-03	7.61806274e+00	2.42507859e+00
4.50000000e-03	1.02900929e+01	2.36525858e+00
4.75000000e-03	1.03210913e+01	2.16376557e+00
5.00000000e-03	8.03729791e+00	1.63520070e+00
5.25000000e-03	6.58910006e+00	1.30613249e+00
5.50000000e-03	5.41977653e+00	1.04595281e+00
5.75000000e-03	4.51675905e+00	8.45235106e-01
6.00000000e-03	3.66716715e+00	6.69467390e-01
6.25000000e-03	3.18369867e+00	5.72064395e-01
6.50000000e-03	2.68415736e+00	4.74656066e-01
6.75000000e-03	2.30269850e+00	3.95858865e-01
7.00000000e-03	2.02049214e+00	3.37310827e-01
7.25000000e-03	1.73033737e+00	2.84971278e-01
7.50000000e-03	1.48141551e+00	2.45196637e-01
7.75000000e-03	1.30878320e+00	2.12377108e-01
8.00000000e-03	1.20582866e+00	1.90329870e-01
8.25000000e-03	1.02134239e+00	1.56919560e-01
8.50000000e-03	9.17514083e-01	1.37779352e-01
8.75000000e-03	8.31450535e-01	1.22652547e-01
9.00000000e-03	7.43914400e-01	1.08620127e-01
9.25000000e-03	6.49282262e-01	9.34032560e-02
9.50000000e-03	5.74392741e-01	8.05158517e-02
9.75000000e-03	5.25560275e-01	7.22410435e-02
1.00000000e-02	4.46175269e-01	5.98406465e-02
1.02500000e-02	4.28664711e-01	5.90055593e-02
1.05000000e-02	3.84856730e-01	5.10379965e-02
1.07500000e-02	3.54855757e-01	4.60902608e-02
1.10000000e-02	3.16101395e-01	4.00305632e-02
1.12500000e-02	2.87819347e-01	3.65764970e-02
1.15000000e-02	2.65980287e-01	3.32136348e-02
1.17500000e-02	2.38697503e-01	2.87992625e-02
1.20000000e-02	2.26317353e-01	2.70947426e-02
1.22500000e-02	2.17560443e-01	2.52312730e-02
1.25000000e-02	2.01792147e-01	2.32926849e-02
1.27500000e-02	1.90147421e-01	2.14251400e-02
1.30000000e-02	1.73796205e-01	1.92476808e-02
1.32500000e-02	1.58260076e-01	1.71066795e-02
1.35000000e-02	1.51065511e-01	1.59616186e-02
1.37500000e-02	1.44767218e-01	1.51770127e-02
1.40000000e-02	1.30884062e-01	1.32232146e-02
1.42500000e-02	1.21572334e-01	1.21982144e-02
1.45000000e-02	1.16912161e-01	1.15260106e-02
1.47500000e-02	1.11205664e-01	1.08052481e-02
1.50000000e-02	1.05641210e-01	1.00677529e-02
1.52500000e-02	9.94780884e-02	9.25849483e-03
1.55000000e-02	9.11787329e-02	8.33503434e-03
1.57500000e-02	8.73274316e-02	7.83798839e-03
1.60000000e-02	8.69173720e-02	7.63410136e-03
1.62500000e-02	8.28021346e-02	7.31523739e-03
1.65000000e-02	7.89568968e-02	6.74873399e-03
1.67500000e-02	7.47435024e-02	6.13407039e-03
1.70000000e-02	6.99533728e-02	5.78882485e-03
1.72500000e-02	7.15111447e-02	5.77585544e-03
1.75000000e-02	6.57598461e-02	5.33766835e-03
1.77500000e-02	6.44271540e-02	5.07495251e-03
1.80000000e-02	6.40820171e-02	4.96022145e-03
1.82500000e-02	5.80601232e-02	4.28403367e-03
1.85000000e-02	5.77432482e-02	4.38849112e-03
1.87500000e-02	5.62774674e-02	4.07114206e-03
1.90000000e-02	5.45595078e-02	3.88283475e-03
1.92500000e-02	5.05718354e-02	3.60422838e-03
1.95000000e-02	4.97037687e-02	3.35450569e-03
1.97500000e-02	4.98654944e-02	3.45869282e-03
2.00000000e-02	4.70925460e-02	3.12107771e-03
2.02500000e-02	4.72461277e-02	3.09887736e-03
2.05000000e-02	4.60818162e-02	2.94610553e-03
2.07500000e-02	4.41566355e-02	2.80336636e-03
2.10000000e-02	4.48083191e-02	2.79564141e-03
2.12500000e-02	4.46498950e-02	2.78931340e-03
2.15000000e-02	4.22506816e-02	2.60508031e-03
2.17500000e-02	4.23081842e-02	2.61215103e-03
2.20000000e-02	4.09902187e-02	2.48240773e-03
2.22500000e-02	4.03422342e-02	2.41363851e-03
2.25000000e-02	4.19742947e-02	2.52991852e-03
2.27500000e-02	4.00399808e-02	2.39035779e-03
2.30000000e-02	3.97119746e-02	2.33537697e-03
2.32500000e-02	3.87052620e-02	2.21547156e-03
2.35000000e-02	3.77159836e-02	2.18677271e-03
2.37500000e-02	3.71082632e-02	2.12967899e-03
2.40000000e-02	3.70834679e-02	2.08465928e-03
2.42500000e-02	3.60172894e-02	2.04429864e-03
2.45000000e-02	3.45419190e-02	1.96077774e-03
2.47500000e-02	3.53590870e-02	1.98052909e-03
2.50000000e-02	3.48483295e-02	1.93831894e-03
2.52500000e-02	3.49594562e-02	1.92055927e-03
2.55000000e-02	3.32910519e-02	1.81670062e-03
2.57500000e-02	3.28969942e-02	1.81454021e-03
2.60000000e-02	3.34833554e-02	1.75398418e-03
2.62500000e-02	3.27640239e-02	1.77091176e-03
2.65000000e-02	3.19234759e-02	1.67265754e-03
2.67500000e-02	3.22745133e-02	1.72042703e-03
2.70000000e-02	3.27933646e-02	1.72019704e-03
2.72500000e-02	3.18472420e-02	1.64369480e-03
2.75000000e-02	3.05886721e-02	1.58990589e-03
2.77500000e-02	3.07753438e-02	1.61289232e-03
2.80000000e-02	3.11214859e-02	1.58987094e-03
2.82500000e-02	3.01029490e-02	1.53664729e-03
2.85000000e-02	3.02759687e-02	1.52250207e-03
2.87500000e-02	3.05009860e-02	1.57159957e-03
2.90000000e-02	3.02588522e-02	1.53197035e-03
2.92500000e-02	3.05656939e-02	1.50745562e-03
2.95000000e-02	3.06943985e-02	1.52201644e-03
2.97500000e-02	3.01204073e-02	1.49308127e-03
3.00000000e-02	2.95072633e-02	1.44244790e-03
3.02500000e-02	2.96128439e-02	1.47826792e-03
3.05000000e-02	2.98480621e-02	1.42915942e-03
3.07500000e-02	2.98153113e-02	1.45666677e-03
3.10000000e-02	2.91821771e-02	1.41595912e-03
3.12500000e-02	2.77245935e-02	1.35259001e-03
3.15000000e-02	2.90790428e-02	1.39822558e-03
3.17500000e-02	2.92010509e-02	1.37128761e-03
3.20000000e-02	2.86423508e-02	1.37419071e-03
3.22500000e-02	2.74473901e-02	1.31237704e-03
3.25000000e-02	2.73021748e-02	1.32045072e-03
3.27500000e-02	2.83118884e-02	1.33259390e-03
3.30000000e-02	2.71270532e-02	1.27935772e-03
3.32500000e-02	2.65336999e-02	1.24282858e-03
3.35000000e-02	2.74663304e-02	1.29524155e-03
3.37500000e-02	2.68380150e-02	1.24674639e-03
3.40000000e-02	2.63273284e-02	1.23167038e-03
3.42500000e-02	2.64095605e-02	1.21206393e-03
3.45000000e-02	2.54456232e-02	1.17843802e-03
3.47500000e-02	2.68103890e-02	1.23717117e-03
3.50000000e-02	2.66054850e-02	1.22696446e-03
3.52500000e-02	2.64997563e-02	1.21145066e-03
3.55000000e-02	2.54020768e-02	1.15600783e-03
3.57500000e-02	2.58604031e-02	1.18316631e-03
3.60000000e-02	2.56098598e-02	1.16284540e-03
3.62500000e-02	2.56792425e-02	1.18854821e-03
3.65000000e-02	2.53795975e-02	1.16449417e-03
3.67500000e-02	2.48000935e-02	1.12937683e-03
3.70000000e-02	2.47025381e-02	1.11951747e-03
3.72500000e-02	2.46389481e-02	1.11180686e-03
3.75000000e-02	2.49975551e-02	1.13298335e-03
3.77500000e-02	2.44965861e-02	1.10451761e-03
3.80000000e-02	2.46126148e-02	1.10042522e-03
3.82500000e-02	2.48725160e-02	1.10941797e-03
3.85000000e-02	2.44894298e-02	1.10250156e-03
3.87500000e-02	2.48260886e-02	1.09417481e-03
3.90000000e-02	2.39490129e-02	1.07542180e-03
3.92500000e-02	2.49377820e-02	1.08434229e-03
3.95000000e-02	2.47483119e-02	1.08406141e-03
3.97500000e-02	2.41766920e-02	1.06877554e-03
4.00000000e-02	2.41367450e-02	1.05501903e-03
4.02500000e-02	2.39906439e-02	1.06770716e-03
4.05000000e-02	2.33517302e-02	1.00461808e-03
4.07500000e-02	2.43514726e-02	1.04670921e-03
4.10000000e-02	2.37772724e-02	1.04296858e-03
4.12500000e-02	2.35243386e-02	1.01460919e-03
4.15000000e-02	2.33246930e-02	1.00019862e-03
4.17500000e-02	2.43696733e-02	1.04224128e-03
4.20000000e-02	2.31720926e-02	9.84617667e-04
4.22500000e-02	2.40107295e-02	1.03648073e-03
4.25000000e-02	2.40358898e-02	1.03287002e-03
4.27500000e-02	2.36217901e-02	9.95457405e-04
4.30000000e-02	2.29713289e-02	9.79728296e-04
4.32500000e-02	2.35417349e-02	1.00087776e-03
4.35000000e-02	2.27714602e-02	9.66455634e-04
4.37500000e-02	2.32673594e-02	9.74677311e-04
4.40000000e-02	2.38397829e-02	1.00554016e-03
4.42500000e-02	2.36411943e-02	9.95583117e-04
4.45000000e-02	2.30033215e-02	9.55217739e-04
4.47500000e-02	2.32399635e-02	9.70811271e-04
4.50000000e-02	2.29703549e-02	9.65285994e-04
4.52500000e-02	2.30064611e-02	9.59520218e-04
4.55000000e-02	2.37662111e-02	9.91694294e-04
4.57500000e-02	2.24728284e-02	9.24084960e-04
4.60000000e-02	2.24934219e-02	9.28841059e-04
4.62500000e-02	2.33188506e-02	9.66355795e-04
4.65000000e-02	2.28959518e-02	9.48559485e-04
4.67500000e-02	2.21756797e-02	9.07459437e-04
4.70000000e-02	2.27086099e-02	9.21356559e-04
4.72500000e-02	2.24193714e-02	9.20937295e-04
4.75000000e-02	2.27211057e-02	9.32215574e-04
4.77500000e-02	2.30161473e-02	9.44315669e-04
4.80000000e-02	2.30201506e-02	9.26859559e-04
4.82500000e-02	2.22453583e-02	9.09528954e-04
4.85000000e-02	2.31001931e-02	9.46417250e-04
4.87500000e-02	2.22987398e-02	9.08062534e-04
4.90000000e-02	2.26042180e-02	9.01031999e-04
4.92500000e-02	2.25322276e-02	9.05941870e-04
4.95000000e-02	2.28435963e-02	9.13758895e-04
4.97500000e-02	2.20559175e-02	9.03439251e-04
5.00000000e-02	2.28101407e-02	9.18568550e-04
5.02500000e-02	2.25163628e-02	9.04661528e-04
5.05000000e-02	2.20669046e-02	8.85712324e-04
5.07500000e-02	2.20606683e-02	8.76810280e-04
5.10000000e-02	2.24008029e-02	8.95664158e-04
5.12500000e-02	2.18685717e-02	8.66658063e-04
5.15000000e-02	2.22595432e-02	8.75597626e-04
5.17500000e-02	2.18562686e-02	8.67475291e-04
5.20000000e-02	2.15272090e-02	8.50710125e-04
5.22500000e-02	2.21252924e-02	8.74604692e-04
5.25000000e-02	2.17363419e-02	8.59900982e-04
5.27500000e-02	2.18494919e-02	8.51860850e-04
5.30000000e-02	2.17889858e-02	8.58775819e-04
5.32500000e-02	2.15732130e-02	8.40583244e-04
5.35000000e-02	2.18974341e-02	8.57540397e-04
5.37500000e-02	2.18396160e-02	8.46292947e-04
5.40000000e-02	2.14871877e-02	8.39302020e-04
5.42500000e-02	2.23027452e-02	8.62810299e-04
5.45000000e-02	2.19730406e-02	8.48747072e-04
5.47500000e-02	2.15367371e-02	8.26321717e-04
5.50000000e-02	2.16528954e-02	8.37770708e-04
5.52500000e-02	2.15277868e-02	8.27379737e-04
5.55000000e-02	2.19745931e-02	8.43096000e-04
5.57500000e-02	2.22651428e-02	8.58558710e-04
5.60000000e-02	2.16560846e-02	8.32238337e-04
5.62500000e-02	2.11124378e-02	8.13825583e-04
5.65000000e-02	2.19871265e-02	8.36476944e-04
5.67500000e-02	2.14468772e-02	8.24575025e-04
5.70000000e-02	2.13073998e-02	8.09604171e-04
5.72500000e-02	2.23228401e-02	8.46304627e-04
5.75000000e-02	2.13851861e-02	8.15350737e-04
5.77500000e-02	2.15893269e-02	8.14901955e-04
5.80000000e-02	2.16783392e-02	8.24223477e-04
5.82500000e-02	2.13042632e-02	8.04697422e-04
5.85000000e-02	2.13949117e-02	8.05686866e-04
5.87500000e-02	2.12814101e-02	7.99096455e-04
5.90000000e-02	2.13255764e-02	8.01844772e-04
5.92500000e-02	2.14437923e-02	7.99752101e-04
5.95000000e-02	2.11987873e-02	7.86541058e-04
5.97500000e-02	2.13227032e-02	8.02728468e-04
6.00000000e-02	2.18605917e-02	8.25294973e-04
6.02500000e-02	2.11880654e-02	7.90188750e-04
6.05000000e-02	2.11106966e-02	7.84498772e-04
6.07500000e-02	2.09748968e-02	7.82225191e-04
6.10000000e-02	2.20965258e-02	8.19509330e-04
6.12500000e-02	2.10725783e-02	7.74770677e-04
6.15000000e-02	2.06029283e-02	7.62836739e-04
6.17500000e-02	2.19166623e-02	8.09156285e-04
6.20000000e-02	2.12995438e-02	7.84165797e-04
6.22500000e-02	2.12899904e-02	7.77789975e-04
6.25000000e-02	2.16023299e-02	7.91164006e-04
6.27500000e-02	2.13648494e-02	7.76755467e-04
6.30000000e-02	2.14067302e-02	7.81045136e-04
6.32500000e-02	2.10739496e-02	7.67537886e-04
6.35000000e-02	2.13716976e-02	7.83048576e-04
6.37500000e-02	2.10310512e-02	7.71060160e-04
6.40000000e-02	2.12687186e-02	7.76329778e-04
6.42500000e-02	2.06815988e-02	7.50339153e-04
6.45000000e-02	2.14658607e-02	7.65388931e-04
6.47500000e-02	2.15647636e-02	7.82688523e-04
6.50000000e-02	2.12427074e-02	7.63798593e-04
6.52500000e-02	2.12601128e-02	7.67156769e-04
6.55000000e-02	2.13589478e-02	7.65233775e-04
6.57500000e-02	2.08424275e-02	7.48274506e-04
6.60000000e-02	2.09621915e-02	7.56812748e-04
6.62500000e-02	2.08588985e-02	7.48818109e-04
6.65000000e-02	2.14674433e-02	7.57553172e-04
6.67500000e-02	2.13677463e-02	7.59523833e-04
6.70000000e-02	2.10263317e-02	7.54465057e-04
6.72500000e-02	2.09128373e-02	7.47797500e-04
6.75000000e-02	2.18568922e-02	7.74221536e-04
6.77500000e-02	2.08668586e-02	7.43790247e-04
6.80000000e-02	2.19307679e-02	7.72015133e-04
6.82500000e-02	2.13115230e-02	7.54443134e-04
6.85000000e-02	2.07180764e-02	7.42659810e-04
6.87500000e-02	2.17690121e-02	7.67293197e-04
6.90000000e-02	2.06777305e-02	7.31267847e-04
6.92500000e-02	2.10783733e-02	7.42556321e-04
6.95000000e-02	2.08678612e-02	7.38276380e-04
6.97500000e-02	2.04252954e-02	7.17118521e-04
7.00000000e-02	2.04501421e-02	7.16155124e-04
7.02500000e-02	2.07800682e-02	7.19354945e-04
7.05000000e-02	2.09950679e-02	7.30307828e-04
7.07500000e-02	2.05513642e-02	7.22719316e-04
7.10000000e-02	2.08857661e-02	7.21490692e-04
7.12500000e-02	2.07023794e-02	7.18535297e-04
7.15000000e-02	2.07584131e-02	7.12569831e-04
7.17500000e-02	2.08383546e-02	7.25954309e-04
7.20000000e-02	2.09479482e-02	7.24701006e-04
7.22500000e-02	2.09065077e-02	7.19526707e-04
7.25000000e-02	2.05867325e-02	7.08577691e-04
7.27500000e-02	2.12723883e-02	7.33505101e-04
7.30000000e-02	2.08435838e-02	7.18096914e-04
7.32500000e-02	2.09120804e-02	7.18069979e-04
7.35000000e-02	2.07496856e-02	7.16254802e-04
7.37500000e-02	2.06794908e-02	7.03980175e-04
7.40000000e-02	2.01604281e-02	6.93903272e-04
7.42500000e-02	2.13503606e-02	7.25683582e-04
7.45000000e-02	2.05890751e-02	7.01812738e-04
7.47500000e-02	2.05576757e-02	6.99604937e-04
7.50000000e-02	2.10112638e-02	7.16220219e-04
7.52500000e-02	2.07194018e-02	7.02130920e-04
7.55000000e-02	2.04927901e-02	6.94331633e-04
7.57500000e-02	2.06459918e-02	6.99026335e-04
7.60000000e-02	2.04384951e-02	6.91093546e-04
7.62500000e-02	2.06357302e-02	6.95320516e-04
7.65000000e-02	2.04824778e-02	6.93761642e-04
7.67500000e-02	2.04026527e-02	6.84079119e-04
7.70000000e-02	2.03948439e-02	6.79282193e-04
7.72500000e-02	2.09876704e-02	7.19496960e-04
7.75000000e-02	2.06462315e-02	7.16621991e-04
7.77500000e-02	2.06775528e-02	7.15976957e-04
7.80000000e-02	2.07932810e-02	7.27044563e-04
7.82500000e-02	2.05279367e-02	7.18942640e-04
7.85000000e-02	2.17636921e-02	7.61312604e-04
7.87500000e-02	2.07984846e-02	7.26757533e-04
7.90000000e-02	2.10529328e-02	7.46418199e-04
7.92500000e-02	2.04084804e-02	7.19284830e-04
7.95000000e-02	2.03649802e-02	7.27972842e-04
7.97500000e-02	2.08483036e-02	7.47496195e-04
8.00000000e-02	2.04485795e-02	7.31155970e-04
8.02500000e-02	2.08087301e-02	7.42748472e-04
8.05000000e-02	2.10308132e-02	7.47709175e-04
8.07500000e-02	2.08909240e-02	7.55762399e-04
8.10000000e-02	2.03793499e-02	7.37929645e-04
8.12500000e-02	2.03703238e-02	7.30535482e-04
8.15000000e-02	2.06962500e-02	7.43652412e-04
8.17500000e-02	2.02200725e-02	7.35506565e-04
8.20000000e-02	2.08656367e-02	7.63014874e-04
8.22500000e-02	2.10446550e-02	7.64575334e-04
8.25000000e-02	2.09412315e-02	7.63188926e-04
8.27500000e-02	2.03630892e-02	7.47825238e-04
8.30000000e-02	2.01419902e-02	7.38342359e-04
8.32500000e-02	2.01531473e-02	7.39549469e-04
8.35000000e-02	2.05162689e-02	7.56432189e-04
8.37500000e-02	2.11287390e-02	7.69254664e-04
8.40000000e-02	2.07948135e-02	7.64008277e-04
8.42500000e-02	1.94140087e-02	7.21268874e-04
8.45000000e-02	2.03299456e-02	7.56599155e-04
8.47500000e-02	2.03419161e-02	7.52276087e-04
8.50000000e-02	2.04354255e-02	7.47515924e-04
8.52500000e-02	2.02169935e-02	7.46281891e-04
8.55000000e-02	2.02037421e-02	7.44799771e-04
8.57500000e-02	2.04154327e-02	7.62732213e-04
8.60000000e-02	2.01841100e-02	7.45265613e-04
8.62500000e-02	2.04677919e-02	7.57291277e-04
8.65000000e-02	2.08632880e-02	7.77059658e-04
8.67500000e-02	2.04744830e-02	7.55815525e-04
8.70000000e-02	2.09591585e-02	7.58112393e-04
8.72500000e-02	2.03934864e-02	7.28718578e-04
8.75000000e-02	2.06523276e-02	7.28036233e-04
8.77500000e-02	2.00399998e-02	7.06725451e-04
8.80000000e-02	2.08400549e-02	7.27719200e-04
8.82500000e-02	2.04668099e-02	7.18688931e-04
8.85000000e-02	2.00056977e-02	7.00098823e-04
8.87500000e-02	2.05313155e-02	7.05554775e-04
8.90000000e-02	2.06125743e-02	7.14442639e-04
8.92500000e-02	1.99210601e-02	6.83443633e-04
8.95000000e-02	2.12554063e-02	7.27946385e-04
8.97500000e-02	2.05949242e-02	6.97282482e-04
9.00000000e-02	1.99892301e-02	6.76849305e-04
9.02500000e-02	2.06926914e-02	7.04709233e-04
9.05000000e-02	2.01926183e-02	6.80106492e-04
9.07500000e-02	2.01086548e-02	6.83650545e-04
9.10000000e-02	2.00309048e-02	6.66977087e-04
9.12500000e-02	2.05084191e-02	6.88727624e-04
9.15000000e-02	2.02607089e-02	6.80355500e-04
9.17500000e-02	2.01441137e-02	6.76474144e-04
9.20000000e-02	2.02275131e-02	6.78815485e-04
9.22500000e-02	2.06561520e-02	6.83462414e-04
9.25000000e-02	2.08939033e-02	6.88563427e-04
9.27500000e-02	2.05250691e-02	6.78953256e-04
9.30000000e-02	1.96756981e-02	6.51931529e-04
9.32500000e-02	1.95951647e-02	6.46136882e-04
9.35000000e-02	1.95937697e-02	6.47111057e-04
9.37500000e-02	2.04280324e-02	6.68285286e-04
9.40000000e-02	2.04007155e-02	6.70314736e-04
9.42500000e-02	1.99844538e-02	6.48026754e-04
9.45000000e-02	2.00913715e-02	6.57571834e-04
9.47500000e-02	2.03267614e-02	6.65480493e-04
9.50000000e-02	2.02734348e-02	6.55799470e-04
9.52500000e-02	1.99597387e-02	6.46535380e-04
9.55000000e-02	2.05322583e-02	6.63035976e-04
9.57500000e-02	2.01752726e-02	6.56527930e-04
9.60000000e-02	2.02452801e-02	6.52078911e-04
9.62500000e-02	2.00945184e-02	6.47873054e-04
9.65000000e-02	2.00901960e-02	6.44849941e-04
9.67500000e-02	2.01477314e-02	6.53581418e-04
9.70000000e-02	1.96763190e-02	6.29680973e-04
9.72500000e-02	1.97028204e-02	6.33086663e-04
9.75000000e-02	1.98381888e-02	6.38223235e-04
9.77500000e-02	1.95426489e-02	6.26374508e-04
9.80000000e-02	1.92647359e-02	6.20830050e-04
9.82500000e-02	2.00199946e-02	6.43133300e-04
9.85000000e-02	1.98462029e-02	6.30298778e-04
9.87500000e-02	2.00646571e-02	6.37780388e-04
9.90000000e-02	2.01411275e-02	6.33113964e-04
9.92500000e-02	2.01577544e-02	6.39387417e-04
9.95000000e-02	1.97842428e-02	6.22002656e-04
9.97500000e-02	2.04399809e-02	6.46311069e-04
1.00000000e-01	1.99016222e-02	5.12730254e-04
1.00500000e-01	1.97713133e-02	4.40941970e-04
1.01000000e-01	2.00151335e-02	4.42452222e-04
1.01500000e-01	1.99857323e-02	4.41043124e-04
1.02000000e-01	2.01241698e-02	4.43595196e-04
1.02500000e-01	1.97638461e-02	4.35108764e-04
1.03000000e-01	1.98635064e-02	4.37848931e-04
1.03500000e-01	1.95456721e-02	4.28763087e-04
1.04000000e-01	1.97804645e-02	4.32116677e-04
1.04500000e-01	1.94690135e-02	4.25274622e-04
1.05000000e-01	1.99455545e-02	4.29941729e-04
1.05500000e-01	2.00447944e-02	4.35213418e-04
1.06000000e-01	1.95819898e-02	4.23351728e-04
1.06500000e-01	1.97638812e-02	4.25903753e-04
1.07000000e-01	1.97881982e-02	4.31637464e-04
1.07500000e-01	1.99865205e-02	4.43622458e-04
1.08000000e-01	1.96130393e-02	4.39202450e-04
1.08500000e-01	1.96886219e-02	4.43425952e-04
1.09000000e-01	1.97669196e-02	4.47457834e-04
1.09500000e-01	1.99299746e-02	4.52445119e-04
1.10000000e-01	1.98495695e-02	4.48278272e-04
1.10500000e-01	1.97401457e-02	4.36564625e-04
1.11000000e-01	2.01944739e-02	4.38977430e-04
1.11500000e-01	1.96100103e-02	4.24491965e-04
1.12000000e-01	1.99141519e-02	4.24471039e-04
1.12500000e-01	1.97431140e-02	4.19890020e-04
1.13000000e-01	1.97977085e-02	4.18340944e-04
1.13500000e-01	1.96854830e-02	4.17087261e-04
1.14000000e-01	2.00932508e-02	4.22044139e-04
1.14500000e-01	1.98854838e-02	4.15570616e-04
1.15000000e-01	1.96145647e-02	4.08221840e-04
1.15500000e-01	1.95635704e-02	4.08609141e-04
1.16000000e-01	1.97139740e-02	4.11370945e-04
1.16500000e-01	1.98100421e-02	4.11670798e-04
1.17000000e-01	1.97355425e-02	4.07822635e-04
1.17500000e-01	1.98587674e-02	4.09921818e-04
1.18000000e-01	1.98790952e-02	4.11921295e-04
1.18500000e-01	1.97958837e-02	4.06089587e-04
1.19000000e-01	1.98949348e-02	4.07685247e-04
1.19500000e-01	2.01243963e-02	4.11235760e-04
1.20000000e-01	1.96171588e-02	3.99600436e-04
1.20500000e-01	1.97967446e-02	4.02390586e-04
1.21000000e-01	1.99787621e-02	4.06073550e-04
1.21500000e-01	1.99001433e-02	4.04644074e-04
1.22000000e-01	1.96865958e-02	3.98192617e-04
1.22500000e-01	2.00204177e-02	4.04539831e-04
1.23000000e-01	1.93168527e-02	3.89715915e-04
1.23500000e-01	1.98842327e-02	3.99739730e-04
1.24000000e-01	1.94736195e-02	3.90588056e-04
1.24500000e-01	1.99241379e-02	3.97798947e-04
1.25000000e-01	1.96282193e-02	3.91429076e-04
1.25500000e-01	1.95040852e-02	3.87808122e-04
1.26000000e-01	1.97959446e-02	3.92453211e-04
1.26500000e-01	1.96327010e-02	3.90844811e-04
1.27000000e-01	1.95677017e-02	3.87558612e-04
1.27500000e-01	1.99333462e-02	3.92942703e-04
1.28000000e-01	1.97582202e-02	3.90764854e-04
1.28500000e-01	2.01149188e-02	3.93959030e-04
1.29000000e-01	1.97057152e-02	3.87526303e-04
1.29500000e-01	1.96046395e-02	3.84832383e-04
1.30000000e-01	1.96367085e-02	3.85416448e-04
1.30500000e-01	1.93919879e-02	3.79739188e-04
1.31000000e-01	1.95839000e-02	3.81394646e-04
1.31500000e-01	1.97565081e-02	3.84592414e-04
1.32000000e-01	1.97385480e-02	3.82740004e-04
1.32500000e-01	1.95143146e-02	3.77407284e-04
1.33000000e-01	1.97030735e-02	3.79732306e-04
1.33500000e-01	1.96349375e-02	3.74989079e-04
1.34000000e-01	1.92527942e-02	3.71981670e-04
1.34500000e-01	1.94868150e-02	3.72818645e-04
1.35000000e-01	1.96581462e-02	3.74220055e-04
1.35500000e-01	1.95642880e-02	3.73101158e-04
1.36000000e-01	1.96171307e-02	3.71447422e-04
1.36500000e-01	1.92786405e-02	3.67057051e-04
1.37000000e-01	1.98902324e-02	3.74037938e-04
1.37500000e-01	1.95167523e-02	3.68200317e-04
1.38000000e-01	1.99601311e-02	3.77481932e-04
1.38500000e-01	1.96113748e-02	3.70638980e-04
1.39000000e-01	1.96392664e-02	3.72257483e-04
1.39500000e-01	1.95478214e-02	3.67340766e-04
1.40000000e-01	1.95232995e-02	3.68594459e-04
1.40500000e-01	1.95678067e-02	3.68269164e-04
1.41000000e-01	1.94980305e-02	3.65166045e-04
1.41500000e-01	1.96934128e-02	3.70195118e-04
1.42000000e-01	1.95216800e-02	3.64121030e-04
1.42500000e-01	1.95416067e-02	3.66666794e-04
1.43000000e-01	1.96183847e-02	3.65438092e-04
1.43500000e-01	1.94289294e-02	3.61790954e-04
1.44000000e-01	1.95896343e-02	3.65018018e-04
1.44500000e-01	1.95859976e-02	3.62933174e-04
1.45000000e-01	1.95853349e-02	3.64067470e-04
1.45500000e-01	1.94145266e-02	3.60242956e-04
1.46000000e-01	1.93533486e-02	3.55618812e-04
1.46500000e-01	1.95444027e-02	3.57869936e-04
1.47000000e-01	1.95346502e-02	3.59017393e-04
1.47500000e-01	1.92585579e-02	3.53484203e-04
1.48000000e-01	1.94247481e-02	3.56298579e-04
1.48500000e-01	1.90591174e-02	3.49063074e-04
1.49000000e-01	1.93287619e-02	3.51923808e-04
1.49500000e-01	1.95362064e-02	3.56335114e-04
1.50000000e-01	1.93509599e-02	3.51602602e-04
1.50500000e-01	1.93600842e-02	3.53593207e-04
1.51000000e-01	1.95597820e-02	3.53469390e-04
1.51500000e-01	1.91996884e-02	3.47605638e-04
1.52000000e-01	1.91702696e-02	3.45968160e-04
1.52500000e-01	1.91691053e-02	3.46031398e-04
1.53000000e-01	1.94786808e-02	3.51062617e-04
1.53500000e-01	1.93139910e-02	3.48006824e-04
1.54000000e-01	1.93047831e-02	3.46470259e-04
1.54500000e-01	1.94464521e-02	3.56918345e-04
1.55000000e-01	1.95554944e-02	3.62064802e-04
1.55500000e-01	1.90348145e-02	3.52838834e-04
1.56000000e-01	1.94540784e-02	3.64827952e-04
1.56500000e-01	1.93433722e-02	3.62457598e-04
1.57000000e-01	1.95805926e-02	3.67946879e-04
1.57500000e-01	1.92442416e-02	3.55959423e-04
1.58000000e-01	1.91743163e-02	3.47958926e-04
1.58500000e-01	1.89546611e-02	3.41229900e-04
1.59000000e-01	1.89694541e-02	3.41030258e-04
1.59500000e-01	1.90582588e-02	3.42291728e-04
1.60000000e-01	1.89212377e-02	3.39970984e-04
1.60500000e-01	1.91106824e-02	3.41890825e-04
1.61000000e-01	1.91780250e-02	3.43046137e-04
1.61500000e-01	1.91904398e-02	3.41517556e-04
1.62000000e-01	1.88511153e-02	3.33731636e-04
1.62500000e-01	1.91523172e-02	3.38202296e-04
1.63000000e-01	1.92765702e-02	3.39026796e-04
1.63500000e-01	1.92177312e-02	3.40599501e-04
1.64000000e-01	1.90409531e-02	3.36067974e-04
1.64500000e-01	1.91658515e-02	3.36206539e-04
1.65000000e-01	1.90891090e-02	3.35343232e-04
1.65500000e-01	1.89072683e-02	3.30129952e-04
1.66000000e-01	1.89486057e-02	3.31694894e-04
1.66500000e-01	1.90272970e-02	3.31347457e-04
1.67000000e-01	1.89511412e-02	3.32005834e-04
1.67500000e-01	1.90980664e-02	3.32326739e-04
1.68000000e-01	1.89369510e-02	3.29764265e-04
1.68500000e-01	1.87053175e-02	3.24161506e-04
1.69000000e-01	1.89123693e-02	3.29685030e-04
1.69500000e-01	1.90223900e-02	3.28247154e-04
1.70000000e-01	1.89131521e-02	3.26972626e-04
1.70500000e-01	1.90431928e-02	3.27487577e-04
1.71000000e-01	1.88408912e-02	3.26365498e-04
1.71500000e-01	1.91513305e-02	3.29145650e-04
1.72000000e-01	1.90267619e-02	3.26870536e-04
1.72500000e-01	1.87528084e-02	3.21999075e-04
1.73000000e-01	1.91229045e-02	3.26060125e-04
1.73500000e-01	1.90131284e-02	3.24501359e-04
1.74000000e-01	1.89008603e-02	3.21751782e-04
1.74500000e-01	1.86771523e-02	3.17261831e-04
1.75000000e-01	1.89046556e-02	3.19504760e-04
1.75500000e-01	1.89894598e-02	3.19870604e-04
1.76000000e-01	1.87947560e-02	3.16348014e-04
1.76500000e-01	1.87513715e-02	3.16237529e-04
1.77000000e-01	1.87358133e-02	3.14677859e-04
1.77500000e-01	1.85099029e-02	3.12056409e-04
1.78000000e-01	1.86078454e-02	3.14517518e-04
1.78500000e-01	1.89523979e-02	3.18023623e-04
1.79000000e-01	1.88724653e-02	3.15736509e-04
1.79500000e-01	1.88788244e-02	3.17152958e-04
1.80000000e-01	1.88138486e-02	3.16147443e-04
1.80500000e-01	1.85899818e-02	3.11785103e-04
1.81000000e-01	1.85610996e-02	3.11875034e-04
1.81500000e-01	1.86097214e-02	3.11420435e-04
1.82000000e-01	1.86402847e-02	3.11903761e-04
1.82500000e-01	1.87414933e-02	3.12237107e-04
1.83000000e-01	1.86537453e-02	3.10417555e-04
1.83500000e-01	1.88025266e-02	3.12190427e-04
1.84000000e-01	1.87494795e-02	3.10426348e-04
1.84500000e-01	1.86629757e-02	3.10331548e-04
1.85000000e-01	1.91543686e-02	3.17662398e-04
1.85500000e-01	1.84709812e-02	3.05529798e-04
1.86000000e-01	1.86385345e-02	3.07175737e-04
1.86500000e-01	1.87391353e-02	3.08690559e-04
1.87000000e-01	1.88185644e-02	3.09404535e-04
1.87500000e-01	1.84465701e-02	3.03763148e-04
1.88000000e-01	1.84773287e-02	3.03639966e-04
1.88500000e-01	1.87653202e-02	3.07306671e-04
1.89000000e-01	1.87742777e-02	3.06806544e-04
1.89500000e-01	1.86193433e-02	3.04125184e-04
1.90000000e-01	1.86918135e-02	3.04276277e-04
1.90500000e-01	1.88506917e-02	3.06887609e-04
1.91000000e-01	1.82643786e-02	2.98062591e-04
1.91500000e-01	1.84096783e-02	3.00549071e-04
1.92000000e-01	1.81544772e-02	2.95066550e-04
1.92500000e-01	1.85045314e-02	3.00739610e-04
1.93000000e-01	1.84629553e-02	3.00997908e-04
1.93500000e-01	1.84574462e-02	2.97602567e-04
1.94000000e-01	1.84243196e-02	2.97593588e-04
1.94500000e-01	1.83964640e-02	2.98314976e-04
1.95000000e-01	1.82686133e-02	2.95580380e-04
1.95500000e-01	1.85433268e-02	2.97912314e-04
1.96000000e-01	1.85470341e-02	2.98522613e-04
1.96500000e-01	1.85710174e-02	2.98852357e-04
1.97000000e-01	1.83585303e-02	2.93784388e-04
1.97500000e-01	1.86816852e-02	2.98725303e-04
1.98000000e-01	1.84680585e-02	2.96898258e-04
1.98500000e-01	1.87354430e-02	2.99313825e-04
1.99000000e-01	1.85867935e-02	2.97447897e-04
1.99500000e-01	1.86241349e-02	2.96050233e-04
2.00000000e-01	1.84007902e-02	2.94611156e-04
2.00500000e-01	1.85216211e-02	2.95242755e-04
2.01000000e-01	1.84238717e-02	2.93024166e-04
2.01500000e-01	1.81589134e-02	2.89617878e-04
2.02000000e-01	1.82741212e-02	2.90861722e-04
2.02500000e-01	1.80782189e-02	2.86524258e-04
2.03000000e-01	1.82020950e-02	2.90206344e-04
2.03500000e-01	1.84165058e-02	2.91947551e-04
2.04000000e-01	1.83981731e-02	2.89937501e-04
2.04500000e-01	1.82784564e-02	2.88838600e-04
2.05000000e-01	1.80332704e-02	2.84261675e-04
2.05500000e-01	1.83635760e-02	2.89853659e-04
2.06000000e-01	1.81396169e-02	2.85334836e-04
2.06500000e-01	1.81133276e-02	2.85222606e-04
2.07000000e-01	1.77886419e-02	2.79981381e-04
2.07500000e-01	1.81365885e-02	2.84094958e-04
2.08000000e-01	1.78864521e-02	2.81622845e-04
2.08500000e-01	1.82810590e-02	2.85019470e-04
2.09000000e-01	1.81046326e-02	2.84016832e-04
2.09500000e-01	1.83144130e-02	2.84628626e-04
2.10000000e-01	1.81075699e-02	2.83667227e-04
2.10500000e-01	1.80248539e-02	2.79889142e-04
2.11000000e-01	1.80280912e-02	2.79756371e-04
2.11500000e-01	1.81601581e-02	2.83482240e-04
2.12000000e-01	1.79401496e-02	2.77769709e-04
2.12500000e-01	1.79829618e-02	2.78326258e-04
2.13000000e-01	1.79931606e-02	2.79060486e-04
2.13500000e-01	1.82381035e-02	2.81834398e-04
2.14000000e-01	1.80348638e-02	2.79170657e-04
2.14500000e-01	1.81302355e-02	2.78450324e-04
2.15000000e-01	1.80522380e-02	2.80528715e-04
2.15500000e-01	1.80003639e-02	2.77342036e-04
2.16000000e-01	1.79930760e-02	2.77149888e-04
2.16500000e-01	1.82398777e-02	2.79852763e-04
2.17000000e-01	1.78360377e-02	2.77925851e-04
2.17500000e-01	1.79770474e-02	2.84008534e-04
2.18000000e-01	1.78595525e-02	2.83751420e-04
2.18500000e-01	1.81740256e-02	2.90156770e-04
2.19000000e-01	1.79977181e-02	2.90387582e-04
2.19500000e-01	1.80066985e-02	2.89440289e-04
2.20000000e-01	1.79686059e-02	2.91058819e-04
2.20500000e-01	1.79612756e-02	2.89691310e-04
2.21000000e-01	1.78792217e-02	2.90526691e-04
2.21500000e-01	1.79585754e-02	2.93355788e-04
2.22000000e-01	1.79478658e-02	2.92353958e-04
2.22500000e-01	1.79702261e-02	2.93815135e-04
2.23000000e-01	1.80462141e-02	2.95019560e-04
2.23500000e-01	1.81504889e-02	2.97524782e-04
2.24000000e-01	1.79063930e-02	2.94827537e-04
2.24500000e-01	1.77389911e-02	2.93507673e-04
2.25000000e-01	1.79366995e-02	2.96563874e-04
2.25500000e-01	1.79680963e-02	2.98320677e-04
2.26000000e-01	1.77628488e-02	2.95680787e-04
2.26500000e-01	1.81753171e-02	2.97692163e-04
2.27000000e-01	1.78945912e-02	2.89824197e-04
2.27500000e-01	1.79580658e-02	2.87733763e-04
2.28000000e-01	1.80667863e-02	2.88093691e-04
2.28500000e-01	1.81614758e-02	2.89100663e-04
2.29000000e-01	1.80670763e-02	2.84821639e-04
2.29500000e-01	1.80863150e-02	2.85426111e-04
2.30000000e-01	1.79383474e-02	2.83220232e-04
2.30500000e-01	1.76287886e-02	2.76817483e-04
2.31000000e-01	1.77822526e-02	2.78139651e-04
2.31500000e-01	1.80340277e-02	2.81466811e-04
2.32000000e-01	1.79805822e-02	2.79260114e-04
2.32500000e-01	1.77094251e-02	2.75910554e-04
2.33000000e-01	1.77793499e-02	2.75385816e-04
2.33500000e-01	1.78158483e-02	2.75330569e-04
2.34000000e-01	1.79531903e-02	2.76821038e-04
2.34500000e-01	1.79960105e-02	2.76551711e-04
2.35000000e-01	1.77560832e-02	2.74261256e-04
2.35500000e-01	1.76916703e-02	2.71496916e-04
2.36000000e-01	1.77663174e-02	2.73019810e-04
2.36500000e-01	1.77024366e-02	2.71863172e-04
2.37000000e-01	1.76144537e-02	2.68835355e-04
2.37500000e-01	1.76934570e-02	2.70442850e-04
2.38000000e-01	1.77217960e-02	2.70240782e-04
2.38500000e-01	1.76880376e-02	2.69211953e-04
2.39000000e-01	1.76047338e-02	2.67460622e-04
2.39500000e-01	1.77568317e-02	2.68046518e-04
2.40000000e-01	1.78120942e-02	2.69525301e-04
2.40500000e-01	1.75074704e-02	2.64308081e-04
2.41000000e-01	1.78746025e-02	2.69569008e-04
2.41500000e-01	1.77405131e-02	2.65909689e-04
2.42000000e-01	1.78259972e-02	2.67850600e-04
2.42500000e-01	1.75193604e-02	2.62805219e-04
2.43000000e-01	1.76542787e-02	2.64524026e-04
2.43500000e-01	1.76498781e-02	2.63837916e-04
2.44000000e-01	1.74914923e-02	2.62262778e-04
2.44500000e-01	1.75425622e-02	2.62687384e-04
2.45000000e-01	1.75034927e-02	2.60724586e-04
2.45500000e-01	1.76793177e-02	2.62354090e-04
2.46000000e-01	1.75742510e-02	2.61277884e-04
2.46500000e-01	1.76791240e-02	2.61259480e-04
2.47000000e-01	1.74434894e-02	2.58230668e-04
2.47500000e-01	1.75778850e-02	2.61202675e-04
2.48000000e-01	1.76250812e-02	2.60494612e-04
2.48500000e-01	1.75415949e-02	2.58012081e-04
2.49000000e-01	1.77013299e-02	2.60487261e-04
2.49500000e-01	1.73618408e-02	2.56185700e-04
2.50000000e-01	1.75877343e-02	2.58215818e-04
2.50500000e-01	1.76223977e-02	2.58857643e-04
2.51000000e-01	1.75433976e-02	2.55905266e-04
2.51500000e-01	1.73631885e-02	2.54989720e-04
2.52000000e-01	1.72537941e-02	2.53314205e-04
2.52500000e-01	1.77135461e-02	2.58641161e-04
2.53000000e-01	1.73635329e-02	2.54325624e-04
2.53500000e-01	1.73287701e-02	2.53505119e-04
2.54000000e-01	1.72686789e-02	2.53088317e-04
2.54500000e-01	1.75545949e-02	2.56382157e-04
2.55000000e-01	1.74638233e-02	2.53674332e-04
2.55500000e-01	1.75288509e-02	2.55068379e-04
2.56000000e-01	1.74352386e-02	2.52711500e-04
2.56500000e-01	1.71726098e-02	2.49887253e-04
2.57000000e-01	1.75018680e-02	2.53359367e-04
2.57500000e-01	1.75086573e-02	2.53517286e-04
2.58000000e-01	1.71850409e-02	2.49174234e-04
2.58500000e-01	1.72525474e-02	2.49483922e-04
2.59000000e-01	1.75777062e-02	2.53748868e-04
2.59500000e-01	1.74571207e-02	2.50773732e-04
2.60000000e-01	1.73896754e-02	2.49792264e-04
2.60500000e-01	1.72439901e-02	2.47863255e-04
2.61000000e-01	1.73702463e-02	2.49644860e-04
2.61500000e-01	1.72824483e-02	2.48322919e-04
2.62000000e-01	1.72938369e-02	2.47692744e-04
2.62500000e-01	1.73413698e-02	2.49509452e-04
2.63000000e-01	1.73076339e-02	2.48239872e-04
2.63500000e-01	1.74385516e-02	2.48085260e-04
2.64000000e-01	1.72301936e-02	2.46883165e-04
2.64500000e-01	1.71771062e-02	2.46260427e-04
2.65000000e-01	1.72264089e-02	2.46214073e-04
2.65500000e-01	1.72814618e-02	2.46694249e-04
2.66000000e-01	1.72763753e-02	2.45325241e-04
2.66500000e-01	1.72411567e-02	2.45220408e-04
2.67000000e-01	1.72441695e-02	2.44784359e-04
2.67500000e-01	1.73033831e-02	2.44651226e-04
2.68000000e-01	1.70015104e-02	2.40741737e-04
2.68500000e-01	1.71251484e-02	2.42568484e-04
2.69000000e-01	1.73308408e-02	2.44582531e-04
2.69500000e-01	1.72179450e-02	2.43489513e-04
2.70000000e-01	1.70734563e-02	2.41024285e-04
2.70500000e-01	1.72420561e-02	2.42438093e-04
2.71000000e-01	1.72376668e-02	2.42326832e-04
2.71500000e-01	1.71872094e-02	2.41952119e-04
2.72000000e-01	1.73074480e-02	2.42104662e-04
2.72500000e-01	1.71434612e-02	2.41077475e-04
2.73000000e-01	1.72269904e-02	2.41580802e-04
2.73500000e-01	1.69927479e-02	2.37714120e-04
2.74000000e-01	1.70808106e-02	2.39126831e-04
2.74500000e-01	1.69897256e-02	2.37496374e-04
2.75000000e-01	1.70716807e-02	2.38533159e-04
2.75500000e-01	1.72579208e-02	2.41399838e-04
2.76000000e-01	1.70144214e-02	2.37171339e-04
2.76500000e-01	1.73939613e-02	2.42255952e-04
2.77000000e-01	1.70570859e-02	2.36784296e-04
2.77500000e-01	1.70819307e-02	2.37893718e-04
2.78000000e-01	1.71920689e-02	2.38522137e-04
2.78500000e-01	1.70536745e-02	2.37344997e-04
2.79000000e-01	1.70311917e-02	2.36227476e-04
2.79500000e-01	1.72698212e-02	2.38396948e-04
2.80000000e-01	1.73591135e-02	2.39925818e-04
2.80500000e-01	1.68812006e-02	2.33978447e-04
2.81000000e-01	1.70311172e-02	2.34852467e-04
2.81500000e-01	1.69377215e-02	2.34075275e-04
2.82000000e-01	1.69568326e-02	2.33680693e-04
2.82500000e-01	1.71012256e-02	2.36356297e-04
2.83000000e-01	1.68791683e-02	2.32870608e-04
2.83500000e-01	1.69718332e-02	2.33844027e-04
2.84000000e-01	1.69592088e-02	2.33302259e-04
2.84500000e-01	1.69956549e-02	2.32936810e-04
2.85000000e-01	1.69005940e-02	2.32409221e-04
2.85500000e-01	1.70784855e-02	2.34272709e-04
2.86000000e-01	1.69036203e-02	2.31752439e-04
2.86500000e-01	1.68574289e-02	2.30576013e-04
2.87000000e-01	1.70241377e-02	2.33165113e-04
2.87500000e-01	1.69779157e-02	2.31479861e-04
2.88000000e-01	1.68648442e-02	2.29082044e-04
2.88500000e-01	1.70415079e-02	2.32773066e-04
2.89000000e-01	1.70491925e-02	2.31789247e-04
2.89500000e-01	1.68344585e-02	2.29634112e-04
2.90000000e-01	1.68537281e-02	2.29325357e-04
2.90500000e-01	1.71480272e-02	2.33165177e-04
2.91000000e-01	1.69127322e-02	2.28486081e-04
2.91500000e-01	1.68674317e-02	2.28508156e-04
2.92000000e-01	1.69683322e-02	2.29632767e-04
2.92500000e-01	1.69258540e-02	2.28586243e-04
2.93000000e-01	1.69067985e-02	2.28633448e-04
2.93500000e-01	1.67764639e-02	2.26747634e-04
2.94000000e-01	1.68154752e-02	2.27000752e-04
2.94500000e-01	1.67879330e-02	2.26597434e-04
2.95000000e-01	1.68460723e-02	2.26341597e-04
2.95500000e-01	1.68318520e-02	2.27251954e-04
2.96000000e-01	1.67002959e-02	2.25414666e-04
2.96500000e-01	1.67210618e-02	2.24611499e-04
2.97000000e-01	1.68590586e-02	2.26194716e-04
2.97500000e-01	1.66290517e-02	2.23739259e-04
2.98000000e-01	1.68020229e-02	2.24826305e-04
2.98500000e-01	1.69101204e-02	2.26732769e-04
2.99000000e-01	1.69583126e-02	2.26983937e-04
2.99500000e-01	1.70021927e-02	2.27562946e-04
3.00000000e-01	1.68427344e-02	2.25231876e-04
3.00500000e-01	1.68729352e-02	2.25326347e-04
3.01000000e-01	1.67368491e-02	2.22927782e-04
3.01500000e-01	1.67301045e-02	2.23541199e-04
3.02000000e-01	1.68985569e-02	2.24734340e-04
3.02500000e-01	1.67688882e-02	2.23584929e-04
3.03000000e-01	1.66666327e-02	2.21727145e-04
3.03500000e-01	1.67690501e-02	2.22778494e-04
3.04000000e-01	1.67131951e-02	2.22118462e-04
3.04500000e-01	1.67971480e-02	2.22020849e-04
3.05000000e-01	1.67334768e-02	2.21990982e-04
3.05500000e-01	1.67329525e-02	2.22300693e-04
3.06000000e-01	1.67545717e-02	2.20267478e-04
3.06500000e-01	1.65876765e-02	2.19628569e-04
3.07000000e-01	1.67885920e-02	2.21463800e-04
3.07500000e-01	1.64876156e-02	2.18471036e-04
3.08000000e-01	1.66450494e-02	2.19422390e-04
3.08500000e-01	1.66286887e-02	2.19287129e-04
3.09000000e-01	1.65658434e-02	2.18330655e-04
3.09500000e-01	1.65774201e-02	2.18054291e-04
3.10000000e-01	1.66271687e-02	2.19067475e-04
3.10500000e-01	1.66605379e-02	2.18746008e-04
3.11000000e-01	1.64327831e-02	2.15648514e-04
3.11500000e-01	1.66811892e-02	2.18807267e-04
3.12000000e-01	1.65030443e-02	2.17557471e-04
3.12500000e-01	1.67588282e-02	2.20189292e-04
3.13000000e-01	1.64727324e-02	2.15341456e-04
3.13500000e-01	1.65935758e-02	2.16450808e-04
3.14000000e-01	1.64218890e-02	2.14532091e-04
3.14500000e-01	1.66168350e-02	2.16479553e-04
3.15000000e-01	1.66369539e-02	2.17266005e-04
3.15500000e-01	1.65350894e-02	2.16024739e-04
3.16000000e-01	1.65038880e-02	2.15514950e-04
3.16500000e-01	1.64554693e-02	2.14457534e-04
3.17000000e-01	1.65217779e-02	2.15023677e-04
3.17500000e-01	1.62701213e-02	2.11279586e-04
3.18000000e-01	1.64438121e-02	2.13784845e-04
3.18500000e-01	1.67238093e-02	2.16827120e-04
3.19000000e-01	1.64494548e-02	2.13668526e-04
3.19500000e-01	1.66027448e-02	2.14970793e-04
3.20000000e-01	1.64478045e-02	2.14076230e-04
3.20500000e-01	1.63262725e-02	2.10968042e-04
3.21000000e-01	1.65794439e-02	2.15005793e-04
3.21500000e-01	1.64258899e-02	2.11702973e-04
3.22000000e-01	1.65588499e-02	2.13493537e-04
3.22500000e-01	1.65469796e-02	2.13082610e-04
3.23000000e-01	1.64216485e-02	2.11326483e-04
3.23500000e-01	1.62861462e-02	2.09939727e-04
3.24000000e-01	1.63903327e-02	2.10294675e-04
3.24500000e-01	1.62660461e-02	2.09403299e-04
3.25000000e-01	1.63383691e-02	2.10258811e-04
3.25500000e-01	1.62895949e-02	2.08858802e-04
3.26000000e-01	1.63303090e-02	2.10055136e-04
3.26500000e-01	1.62565913e-02	2.08347882e-04
3.27000000e-01	1.64501098e-02	2.10878546e-04
3.27500000e-01	1.62464819e-02	2.07445213e-04
3.28000000e-01	1.63087464e-02	2.09117893e-04
3.28500000e-01	1.60716337e-02	2.06444826e-04
3.29000000e-01	1.63069094e-02	2.08088714e-04
3.29500000e-01	1.62525018e-02	2.08157955e-04
3.30000000e-01	1.62411097e-02	2.07059443e-04
3.30500000e-01	1.62636513e-02	2.08052342e-04
3.31000000e-01	1.62214246e-02	2.07264382e-04
3.31500000e-01	1.63800652e-02	2.07908961e-04
3.32000000e-01	1.61246155e-02	2.05483188e-04
3.32500000e-01	1.62620604e-02	2.07199588e-04
3.33000000e-01	1.60952004e-02	2.04633800e-04
3.33500000e-01	1.62531653e-02	2.05937550e-04
3.34000000e-01	1.62485795e-02	2.05763318e-04
3.34500000e-01	1.62273861e-02	2.06242931e-04
3.35000000e-01	1.62361006e-02	2.05663961e-04
3.35500000e-01	1.61383876e-02	2.04511870e-04
3.36000000e-01	1.60630845e-02	2.02847040e-04
3.36500000e-01	1.60532608e-02	2.03037573e-04
3.37000000e-01	1.63254248e-02	2.05941539e-04
3.37500000e-01	1.61487939e-02	2.03885704e-04
3.38000000e-01	1.60964469e-02	2.03263685e-04
3.38500000e-01	1.62165158e-02	2.04206488e-04
3.39000000e-01	1.61864285e-02	2.04235807e-04
3.39500000e-01	1.61415239e-02	2.02382181e-04
3.40000000e-01	1.61029288e-02	2.02622666e-04
3.40500000e-01	1.62186086e-02	2.03775622e-04
3.41000000e-01	1.61533990e-02	2.03216152e-04
3.41500000e-01	1.58899250e-02	2.00321822e-04
3.42000000e-01	1.60196708e-02	2.00217529e-04
3.42500000e-01	1.60935597e-02	2.02024653e-04
3.43000000e-01	1.58094257e-02	1.99463395e-04
3.43500000e-01	1.59813129e-02	1.99833322e-04
3.44000000e-01	1.60614493e-02	2.01773385e-04
3.44500000e-01	1.60247898e-02	2.00640487e-04
3.45000000e-01	1.60213015e-02	2.00339512e-04
3.45500000e-01	1.60527168e-02	2.00201655e-04
3.46000000e-01	1.58889840e-02	1.98531835e-04
3.46500000e-01	1.59197764e-02	1.98271263e-04
3.47000000e-01	1.58532910e-02	1.97656057e-04
3.47500000e-01	1.59852146e-02	1.99570552e-04
3.48000000e-01	1.59515392e-02	1.97836910e-04
3.48500000e-01	1.61116780e-02	1.99479944e-04
3.49000000e-01	1.58418260e-02	1.97155286e-04
3.49500000e-01	1.58726816e-02	1.98052490e-04
3.50000000e-01	1.58174988e-02	1.60263232e-04
3.51000000e-01	1.58119247e-02	1.38853708e-04
3.52000000e-01	1.58602730e-02	1.38980926e-04
3.53000000e-01	1.58130111e-02	1.38158821e-04
3.54000000e-01	1.57880842e-02	1.37764929e-04
3.55000000e-01	1.58461891e-02	1.38535045e-04
3.56000000e-01	1.59577309e-02	1.39420611e-04
3.57000000e-01	1.56521770e-02	1.39599118e-04
3.58000000e-01	1.57093317e-02	1.41311930e-04
3.59000000e-01	1.55824510e-02	1.41209290e-04
3.60000000e-01	1.56959486e-02	1.43173222e-04
3.61000000e-01	1.56237974e-02	1.42845476e-04
3.62000000e-01	1.56424805e-02	1.43756388e-04
3.63000000e-01	1.55570078e-02	1.43380091e-04
3.64000000e-01	1.56458604e-02	1.45001353e-04
3.65000000e-01	1.57508046e-02	1.46100016e-04
3.66000000e-01	1.54496812e-02	1.41728614e-04
3.67000000e-01	1.56468819e-02	1.41682264e-04
3.68000000e-01	1.56348567e-02	1.40602728e-04
3.69000000e-01	1.55849422e-02	1.39467927e-04
3.70000000e-01	1.54789518e-02	1.37887573e-04
3.71000000e-01	1.55878704e-02	1.40304326e-04
3.72000000e-01	1.55585099e-02	1.41313335e-04
3.73000000e-01	1.56604473e-02	1.42517834e-04
3.74000000e-01	1.55425692e-02	1.41657693e-04
3.75000000e-01	1.54837675e-02	1.41081115e-04
3.76000000e-01	1.56166136e-02	1.42150949e-04
3.77000000e-01	1.53243698e-02	1.39958101e-04
3.78000000e-01	1.54632224e-02	1.41191805e-04
3.79000000e-01	1.54183469e-02	1.40651273e-04
3.80000000e-01	1.54011281e-02	1.40178780e-04
3.81000000e-01	1.53806289e-02	1.39623619e-04
3.82000000e-01	1.54565485e-02	1.40674661e-04
3.83000000e-01	1.53930729e-02	1.39767307e-04
3.84000000e-01	1.53250964e-02	1.39314037e-04
3.85000000e-01	1.53169680e-02	1.39936844e-04
3.86000000e-01	1.53685979e-02	1.39547217e-04
3.87000000e-01	1.52850524e-02	1.38873988e-04
3.88000000e-01	1.54303577e-02	1.39963208e-04
3.89000000e-01	1.52403731e-02	1.38633422e-04
3.90000000e-01	1.54057081e-02	1.39536129e-04
3.91000000e-01	1.53388802e-02	1.39031976e-04
3.92000000e-01	1.53709617e-02	1.39411418e-04
3.93000000e-01	1.52910493e-02	1.38803737e-04
3.94000000e-01	1.52523551e-02	1.38369345e-04
3.95000000e-01	1.50618623e-02	1.36726951e-04
3.96000000e-01	1.53329903e-02	1.38679799e-04
3.97000000e-01	1.52258999e-02	1.37838153e-04
3.98000000e-01	1.52075577e-02	1.38036603e-04
3.99000000e-01	1.52296729e-02	1.38319551e-04
4.00000000e-01	1.50803064e-02	1.37263745e-04
4.01000000e-01	1.51065485e-02	1.37351060e-04
4.02000000e-01	1.51995618e-02	1.37920605e-04
4.03000000e-01	1.50154571e-02	1.36213650e-04
4.04000000e-01	1.51992866e-02	1.37661126e-04
4.05000000e-01	1.50299518e-02	1.36223313e-04
4.06000000e-01	1.51346155e-02	1.36980203e-04
4.07000000e-01	1.50618661e-02	1.36445436e-04
4.08000000e-01	1.49487723e-02	1.35079096e-04
4.09000000e-01	1.50782708e-02	1.36816225e-04
4.10000000e-01	1.50039460e-02	1.35545048e-04
4.11000000e-01	1.50278279e-02	1.36028789e-04
4.12000000e-01	1.49495153e-02	1.35659663e-04
4.13000000e-01	1.50651788e-02	1.36130125e-04
4.14000000e-01	1.50416202e-02	1.35906242e-04
4.15000000e-01	1.49940040e-02	1.35239004e-04
4.16000000e-01	1.49150970e-02	1.34560620e-04
4.17000000e-01	1.50942997e-02	1.36297078e-04
4.18000000e-01	1.50799213e-02	1.37145852e-04
4.19000000e-01	1.50957026e-02	1.39477503e-04
4.20000000e-01	1.50989171e-02	1.40141224e-04
4.21000000e-01	1.49774238e-02	1.39771792e-04
4.22000000e-01	1.51401643e-02	1.41220628e-04
4.23000000e-01	1.50457704e-02	1.41347221e-04
4.24000000e-01	1.50648794e-02	1.41812131e-04
4.25000000e-01	1.50141003e-02	1.41662906e-04
4.26000000e-01	1.49412639e-02	1.40567694e-04
4.27000000e-01	1.49075152e-02	1.40612985e-04
4.28000000e-01	1.49203695e-02	1.40822588e-04
4.29000000e-01	1.49870911e-02	1.41823595e-04
4.30000000e-01	1.49366897e-02	1.41068485e-04
4.31000000e-01	1.48891599e-02	1.40345672e-04
4.32000000e-01	1.49933494e-02	1.41756635e-04
4.33000000e-01	1.47744359e-02	1.40129499e-04
4.34000000e-01	1.47738367e-02	1.39905857e-04
4.35000000e-01	1.48856076e-02	1.41500944e-04
4.36000000e-01	1.48338031e-02	1.41210883e-04
4.37000000e-01	1.50022470e-02	1.42480782e-04
4.38000000e-01	1.48434643e-02	1.41483201e-04
4.39000000e-01	1.49300122e-02	1.42443400e-04
4.40000000e-01	1.47331955e-02	1.41148734e-04
4.41000000e-01	1.48649998e-02	1.41964521e-04
4.42000000e-01	1.46588158e-02	1.40442329e-04
4.43000000e-01	1.47740480e-02	1.41892355e-04
4.44000000e-01	1.48415095e-02	1.42613605e-04
4.45000000e-01	1.48480922e-02	1.42835617e-04
4.46000000e-01	1.46610594e-02	1.41033361e-04
4.47000000e-01	1.47728277e-02	1.42119049e-04
4.48000000e-01	1.47622510e-02	1.42203539e-04
4.49000000e-01	1.47835723e-02	1.42693223e-04
4.50000000e-01	1.46621691e-02	1.41411040e-04
4.51000000e-01	1.46680350e-02	1.41830928e-04
4.52000000e-01	1.46675213e-02	1.41810591e-04
4.53000000e-01	1.45670876e-02	1.41226181e-04
4.54000000e-01	1.46064101e-02	1.41156356e-04
4.55000000e-01	1.45943208e-02	1.41710175e-04
4.56000000e-01	1.47380942e-02	1.42922512e-04
4.57000000e-01	1.47069744e-02	1.43234674e-04
4.58000000e-01	1.46821335e-02	1.42591830e-04
4.59000000e-01	1.46082598e-02	1.42431048e-04
4.60000000e-01	1.46395244e-02	1.42738565e-04
4.61000000e-01	1.45534947e-02	1.42070754e-04
4.62000000e-01	1.45306534e-02	1.42309240e-04
4.63000000e-01	1.46003697e-02	1.42849787e-04
4.64000000e-01	1.46697550e-02	1.43456028e-04
4.65000000e-01	1.46977213e-02	1.44090401e-04
4.66000000e-01	1.45687021e-02	1.42553309e-04
4.67000000e-01	1.45248355e-02	1.42931105e-04
4.68000000e-01	1.45527786e-02	1.42594247e-04
4.69000000e-01	1.47571573e-02	1.44834935e-04
4.70000000e-01	1.45415626e-02	1.42392812e-04
4.71000000e-01	1.45496976e-02	1.42888291e-04
4.72000000e-01	1.44302835e-02	1.41884291e-04
4.73000000e-01	1.44584131e-02	1.41512293e-04
4.74000000e-01	1.45715294e-02	1.42928050e-04
4.75000000e-01	1.45795442e-02	1.42706461e-04
4.76000000e-01	1.44545034e-02	1.41760200e-04
4.77000000e-01	1.44227054e-02	1.41797670e-04
4.78000000e-01	1.44475642e-02	1.42041177e-04
4.79000000e-01	1.44423313e-02	1.41755121e-04
4.80000000e-01	1.45006458e-02	1.42699358e-04
4.81000000e-01	1.44455015e-02	1.42054816e-04
4.82000000e-01	1.44971289e-02	1.42297689e-04
4.83000000e-01	1.42643835e-02	1.40655372e-04
4.84000000e-01	1.43044257e-02	1.41203038e-04
4.85000000e-01	1.43091329e-02	1.41491072e-04
4.86000000e-01	1.44426892e-02	1.41916651e-04
4.87000000e-01	1.42617342e-02	1.40632225e-04
4.88000000e-01	1.43190961e-02	1.41365778e-04
4.89000000e-01	1.43098672e-02	1.41872768e-04
4.90000000e-01	1.43251166e-02	1.41471646e-04
4.91000000e-01	1.44030266e-02	1.42307086e-04
4.92000000e-01	1.43768178e-02	1.42039280e-04
4.93000000e-01	1.42826498e-02	1.41452781e-04
4.94000000e-01	1.43945117e-02	1.42889712e-04
4.95000000e-01	1.43160901e-02	1.43156733e-04
4.96000000e-01	1.43444073e-02	1.47152193e-04
4.97000000e-01	1.43820972e-02	1.50470706e-04
4.98000000e-01	1.42870821e-02	1.51292545e-04
4.99000000e-01	1.41492672e-02	1.52499466e-04
5.00000000e-01	1.43272594e-02	1.55714099e-04
5.01000000e-01	1.41677904e-02	1.55682252e-04
5.02000000e-01	1.42252675e-02	1.56951035e-04
5.03000000e-01	1.41874658e-02	1.58377464e-04
5.04000000e-01	1.43442575e-02	1.61416587e-04
5.05000000e-01	1.43464326e-02	1.58990869e-04
5.06000000e-01	1.44315077e-02	1.56297904e-04
5.07000000e-01	1.42003576e-02	1.52436297e-04
5.08000000e-01	1.42322128e-02	1.51499695e-04
5.09000000e-01	1.42751620e-02	1.51391886e-04
5.10000000e-01	1.43065956e-02	1.51464345e-04
5.11000000e-01	1.42675560e-02	1.50444251e-04
5.12000000e-01	1.40810052e-02	1.48342924e-04
5.13000000e-01	1.42968194e-02	1.49992228e-04
5.14000000e-01	1.41503933e-02	1.48722033e-04
5.15000000e-01	1.41701600e-02	1.47861467e-04
5.16000000e-01	1.41274752e-02	1.47808329e-04
5.17000000e-01	1.41355389e-02	1.47179788e-04
5.18000000e-01	1.42096325e-02	1.48110798e-04
5.19000000e-01	1.42503050e-02	1.47910983e-04
5.20000000e-01	1.40671918e-02	1.45306424e-04
5.21000000e-01	1.42429541e-02	1.47667872e-04
5.22000000e-01	1.40779393e-02	1.45739582e-04
5.23000000e-01	1.42515566e-02	1.47351557e-04
5.24000000e-01	1.40598108e-02	1.45055255e-04
5.25000000e-01	1.40794224e-02	1.45619061e-04
5.26000000e-01	1.39632197e-02	1.43892351e-04
5.27000000e-01	1.39448167e-02	1.43960172e-04
5.28000000e-01	1.39934583e-02	1.44269988e-04
5.29000000e-01	1.40837550e-02	1.45796434e-04
5.30000000e-01	1.39524989e-02	1.44579292e-04
5.31000000e-01	1.39253926e-02	1.44572931e-04
5.32000000e-01	1.40727081e-02	1.45510962e-04
5.33000000e-01	1.39975679e-02	1.44862957e-04
5.34000000e-01	1.39991932e-02	1.44819501e-04
5.35000000e-01	1.39937043e-02	1.44449845e-04
5.36000000e-01	1.38720069e-02	1.43177127e-04
5.37000000e-01	1.39231207e-02	1.44083406e-04
5.38000000e-01	1.38217126e-02	1.43037322e-04
5.39000000e-01	1.39676052e-02	1.44114716e-04
5.40000000e-01	1.39026461e-02	1.43534779e-04
5.41000000e-01	1.38226160e-02	1.43082579e-04
5.42000000e-01	1.38136385e-02	1.43232874e-04
5.43000000e-01	1.38974019e-02	1.43511775e-04
5.44000000e-01	1.39606433e-02	1.43833787e-04
5.45000000e-01	1.38380723e-02	1.43483817e-04
5.46000000e-01	1.38195007e-02	1.43171005e-04
5.47000000e-01	1.40396753e-02	1.45215686e-04
5.48000000e-01	1.38404764e-02	1.43464601e-04
5.49000000e-01	1.38106026e-02	1.42351264e-04
5.50000000e-01	1.38473742e-02	1.42862491e-04
5.51000000e-01	1.38093866e-02	1.42696498e-04
5.52000000e-01	1.38485387e-02	1.42662385e-04
5.53000000e-01	1.36732303e-02	1.41172683e-04
5.54000000e-01	1.38830265e-02	1.42451312e-04
5.55000000e-01	1.36621821e-02	1.40447624e-04
5.56000000e-01	1.38012580e-02	1.41717162e-04
5.57000000e-01	1.37786997e-02	1.41806770e-04
5.58000000e-01	1.35760742e-02	1.39829081e-04
5.59000000e-01	1.36917524e-02	1.40392338e-04
5.60000000e-01	1.36820753e-02	1.40493182e-04
5.61000000e-01	1.37194754e-02	1.40988765e-04
5.62000000e-01	1.35264434e-02	1.39321600e-04
5.63000000e-01	1.36694410e-02	1.40674167e-04
5.64000000e-01	1.35150010e-02	1.38931046e-04
5.65000000e-01	1.35682176e-02	1.40434136e-04
5.66000000e-01	1.36942666e-02	1.40839024e-04
5.67000000e-01	1.36041409e-02	1.40190197e-04
5.68000000e-01	1.37304195e-02	1.41207763e-04
5.69000000e-01	1.35660455e-02	1.39551798e-04
5.70000000e-01	1.36581067e-02	1.40443233e-04
5.71000000e-01	1.35491215e-02	1.38982208e-04
5.72000000e-01	1.34798133e-02	1.38905907e-04
5.73000000e-01	1.35029138e-02	1.39089101e-04
5.74000000e-01	1.35921686e-02	1.39830622e-04
5.75000000e-01	1.34743526e-02	1.39495889e-04
5.76000000e-01	1.34422247e-02	1.38937912e-04
5.77000000e-01	1.35060102e-02	1.39048148e-04
5.78000000e-01	1.35181953e-02	1.39407389e-04
5.79000000e-01	1.35438943e-02	1.39685101e-04
5.80000000e-01	1.35459258e-02	1.39569607e-04
5.81000000e-01	1.35236665e-02	1.39264986e-04
5.82000000e-01	1.34902901e-02	1.39229358e-04
5.83000000e-01	1.32947094e-02	1.37197403e-04
5.84000000e-01	1.34187984e-02	1.38423166e-04
5.85000000e-01	1.33467554e-02	1.37771060e-04
5.86000000e-01	1.33280476e-02	1.38330881e-04
5.87000000e-01	1.33659343e-02	1.38312754e-04
5.88000000e-01	1.33209474e-02	1.37751970e-04
5.89000000e-01	1.33518701e-02	1.38279111e-04
5.90000000e-01	1.34130829e-02	1.38644892e-04
5.91000000e-01	1.33896275e-02	1.38454722e-04
5.92000000e-01	1.33979096e-02	1.38786692e-04
5.93000000e-01	1.32630598e-02	1.37074433e-04
5.94000000e-01	1.33281948e-02	1.37524117e-04
5.95000000e-01	1.34588782e-02	1.38955515e-04
5.96000000e-01	1.33008789e-02	1.37702228e-04
5.97000000e-01	1.33022386e-02	1.37927786e-04
5.98000000e-01	1.32446055e-02	1.37255862e-04
5.99000000e-01	1.33605286e-02	1.38008730e-04
6.00000000e-01	1.32391698e-02	1.37007550e-04
6.01000000e-01	1.31977842e-02	1.36814429e-04
6.02000000e-01	1.33159710e-02	1.37787207e-04
6.03000000e-01	1.32719555e-02	1.37566708e-04
6.04000000e-01	1.33460502e-02	1.37863750e-04
6.05000000e-01	1.31771475e-02	1.36675498e-04
6.06000000e-01	1.31907896e-02	1.36646530e-04
6.07000000e-01	1.32541563e-02	1.37258194e-04
6.08000000e-01	1.32080468e-02	1.37102726e-04
6.09000000e-01	1.32548320e-02	1.37605116e-04
6.10000000e-01	1.32281644e-02	1.36939790e-04
6.11000000e-01	1.33968058e-02	1.38416355e-04
6.12000000e-01	1.31278917e-02	1.36602539e-04
6.13000000e-01	1.31100587e-02	1.36611495e-04
6.14000000e-01	1.31465024e-02	1.37043756e-04
6.15000000e-01	1.32510594e-02	1.37653536e-04
6.16000000e-01	1.32544799e-02	1.37588829e-04
6.17000000e-01	1.31506810e-02	1.36757216e-04
6.18000000e-01	1.30755521e-02	1.36063618e-04
6.19000000e-01	1.31810137e-02	1.36211585e-04
6.20000000e-01	1.32510325e-02	1.37204630e-04
6.21000000e-01	1.31676610e-02	1.36515254e-04
6.22000000e-01	1.29548169e-02	1.34446828e-04
6.23000000e-01	1.30730959e-02	1.35506205e-04
6.24000000e-01	1.30895351e-02	1.34667068e-04
6.25000000e-01	1.29344969e-02	1.33472397e-04
6.26000000e-01	1.30756210e-02	1.34602022e-04
6.27000000e-01	1.31698160e-02	1.35511400e-04
6.28000000e-01	1.30253003e-02	1.33862273e-04
6.29000000e-01	1.29322106e-02	1.33661661e-04
6.30000000e-01	1.30186241e-02	1.34453820e-04
6.31000000e-01	1.30225731e-02	1.34215264e-04
6.32000000e-01	1.31158663e-02	1.35521076e-04
6.33000000e-01	1.31090387e-02	1.35197284e-04
6.34000000e-01	1.30476988e-02	1.38013081e-04
6.35000000e-01	1.30782169e-02	1.42261956e-04
6.36000000e-01	1.29895378e-02	1.43504882e-04
6.37000000e-01	1.30025948e-02	1.46666238e-04
6.38000000e-01	1.31463837e-02	1.49833374e-04
6.39000000e-01	1.30013312e-02	1.50538923e-04
6.40000000e-01	1.30269193e-02	1.52721085e-04
6.41000000e-01	1.29894941e-02	1.53602954e-04
6.42000000e-01	1.31905200e-02	1.57504196e-04
6.43000000e-01	1.29140361e-02	1.54920243e-04
6.44000000e-01	1.30999135e-02	1.51264030e-04
6.45000000e-01	1.31577650e-02	1.49117564e-04
6.46000000e-01	1.30401325e-02	1.45958476e-04
6.47000000e-01	1.30357206e-02	1.45728261e-04
6.48000000e-01	1.30404704e-02	1.44688708e-04
6.49000000e-01	1.29577885e-02	1.43173271e-04
6.50000000e-01	1.28593822e-02	1.41489076e-04
6.51000000e-01	1.30345039e-02	1.42159927e-04
6.52000000e-01	1.31100536e-02	1.42838414e-04
6.53000000e-01	1.30058354e-02	1.40985695e-04
6.54000000e-01	1.28941557e-02	1.39875674e-04
6.55000000e-01	1.29860449e-02	1.40604193e-04
6.56000000e-01	1.29733236e-02	1.40380533e-04
6.57000000e-01	1.30226208e-02	1.39896097e-04
6.58000000e-01	1.29291465e-02	1.39277506e-04
6.59000000e-01	1.28996135e-02	1.39360628e-04
6.60000000e-01	1.30027594e-02	1.39696140e-04
6.61000000e-01	1.30427753e-02	1.39822800e-04
6.62000000e-01	1.30431616e-02	1.40046677e-04
6.63000000e-01	1.29400532e-02	1.38551268e-04
6.64000000e-01	1.29653183e-02	1.39419186e-04
6.65000000e-01	1.29152773e-02	1.39177873e-04
6.66000000e-01	1.30196292e-02	1.39596023e-04
6.67000000e-01	1.29468318e-02	1.38566459e-04
6.68000000e-01	1.29477343e-02	1.38942963e-04
6.69000000e-01	1.29416356e-02	1.38563246e-04
6.70000000e-01	1.28137768e-02	1.37291825e-04
6.71000000e-01	1.28813562e-02	1.37088647e-04
6.72000000e-01	1.28813102e-02	1.37665762e-04
6.73000000e-01	1.27351194e-02	1.36333466e-04
6.74000000e-01	1.28439845e-02	1.37131989e-04
6.75000000e-01	1.29464714e-02	1.38210806e-04
6.76000000e-01	1.28076869e-02	1.37044407e-04
6.77000000e-01	1.27612721e-02	1.35821788e-04
6.78000000e-01	1.29002714e-02	1.37046501e-04
6.79000000e-01	1.27145711e-02	1.36350741e-04
6.80000000e-01	1.27799221e-02	1.36384934e-04
6.81000000e-01	1.28626815e-02	1.36751763e-04
6.82000000e-01	1.29624265e-02	1.37857028e-04
6.83000000e-01	1.27782194e-02	1.36223832e-04
6.84000000e-01	1.26247630e-02	1.34533051e-04
6.85000000e-01	1.27331427e-02	1.35846622e-04
6.86000000e-01	1.27047119e-02	1.35746573e-04
6.87000000e-01	1.28530424e-02	1.36654174e-04
6.88000000e-01	1.28302570e-02	1.36965531e-04
6.89000000e-01	1.27296235e-02	1.35511803e-04
6.90000000e-01	1.27850995e-02	1.36373526e-04
6.91000000e-01	1.27405158e-02	1.35971716e-04
6.92000000e-01	1.27737662e-02	1.35891650e-04
6.93000000e-01	1.27352730e-02	1.35726961e-04
6.94000000e-01	1.26634998e-02	1.35374399e-04
6.95000000e-01	1.27037980e-02	1.35919234e-04
6.96000000e-01	1.26386366e-02	1.34684008e-04
6.97000000e-01	1.25150969e-02	1.33597916e-04
6.98000000e-01	1.26047964e-02	1.34283324e-04
6.99000000e-01	1.27296858e-02	1.35817963e-04
7.00000000e-01	1.26797353e-02	1.34595745e-04
7.01000000e-01	1.26960016e-02	1.35317120e-04
7.02000000e-01	1.26071157e-02	1.34053987e-04
7.03000000e-01	1.25151679e-02	1.33782017e-04
7.04000000e-01	1.26488996e-02	1.34207557e-04
7.05000000e-01	1.25350840e-02	1.33696620e-04
7.06000000e-01	1.27033351e-02	1.35150578e-04
7.07000000e-01	1.25850893e-02	1.33818579e-04
7.08000000e-01	1.26344916e-02	1.34078996e-04
7.09000000e-01	1.25322669e-02	1.33565155e-04
7.10000000e-01	1.25108522e-02	1.33103695e-04
7.11000000e-01	1.24321946e-02	1.32473832e-04
7.12000000e-01	1.24210260e-02	1.32277925e-04
7.13000000e-01	1.23037316e-02	1.30951988e-04
7.14000000e-01	1.23342367e-02	1.31576414e-04
7.15000000e-01	1.25052446e-02	1.33209300e-04
7.16000000e-01	1.24569452e-02	1.32850495e-04
7.17000000e-01	1.23207976e-02	1.31758629e-04
7.18000000e-01	1.22643819e-02	1.30829456e-04
7.19000000e-01	1.25511397e-02	1.33681118e-04
7.20000000e-01	1.24488047e-02	1.32938932e-04
7.21000000e-01	1.23620712e-02	1.32011300e-04
7.22000000e-01	1.22836028e-02	1.31521294e-04
7.23000000e-01	1.24286753e-02	1.32352308e-04
7.24000000e-01	1.22700409e-02	1.31417993e-04
7.25000000e-01	1.22189498e-02	1.30292769e-04
7.26000000e-01	1.22880269e-02	1.31309610e-04
7.27000000e-01	1.22969477e-02	1.31249429e-04
7.28000000e-01	1.22389856e-02	1.30656878e-04
7.29000000e-01	1.22662499e-02	1.31179823e-04
7.30000000e-01	1.22765698e-02	1.30861171e-04
7.31000000e-01	1.23087761e-02	1.30923072e-04
7.32000000e-01	1.22615394e-02	1.31193898e-04
7.33000000e-01	1.21511937e-02	1.29912693e-04
7.34000000e-01	1.22714582e-02	1.30758535e-04
7.35000000e-01	1.20900003e-02	1.28638361e-04
7.36000000e-01	1.21818809e-02	1.29583921e-04
7.37000000e-01	1.21635530e-02	1.29117760e-04
7.38000000e-01	1.20965363e-02	1.28532074e-04
7.39000000e-01	1.22501540e-02	1.29717646e-04
7.40000000e-01	1.22071941e-02	1.28870974e-04
7.41000000e-01	1.22169771e-02	1.29107364e-04
7.42000000e-01	1.21057481e-02	1.27727187e-04
7.43000000e-01	1.21677305e-02	1.28681727e-04
7.44000000e-01	1.21629457e-02	1.29246723e-04
7.45000000e-01	1.20358413e-02	1.27208496e-04
7.46000000e-01	1.20797275e-02	1.27282574e-04
7.47000000e-01	1.22320209e-02	1.29411080e-04
7.48000000e-01	1.20096322e-02	1.27195526e-04
7.49000000e-01	1.21469039e-02	1.28306827e-04
7.50000000e-01	1.21260374e-02	1.28525512e-04
7.51000000e-01	1.19924631e-02	1.26640711e-04
7.52000000e-01	1.22472081e-02	1.29328071e-04
7.53000000e-01	1.21186489e-02	1.27804391e-04
7.54000000e-01	1.20260143e-02	1.27571495e-04
7.55000000e-01	1.20364783e-02	1.27455876e-04
7.56000000e-01	1.20861364e-02	1.28277752e-04
7.57000000e-01	1.20156320e-02	1.27072746e-04
7.58000000e-01	1.20618346e-02	1.27640770e-04
7.59000000e-01	1.20307889e-02	1.27305744e-04
7.60000000e-01	1.19824582e-02	1.26587969e-04
7.61000000e-01	1.20748283e-02	1.26868520e-04
7.62000000e-01	1.20529403e-02	1.26905019e-04
7.63000000e-01	1.19522505e-02	1.25897342e-04
7.64000000e-01	1.19899864e-02	1.25997376e-04
7.65000000e-01	1.19506285e-02	1.25410933e-04
7.66000000e-01	1.18719572e-02	1.24243358e-04
7.67000000e-01	1.19289315e-02	1.25442606e-04
7.68000000e-01	1.19507501e-02	1.25296420e-04
7.69000000e-01	1.18691117e-02	1.24434871e-04
7.70000000e-01	1.18336763e-02	1.24428448e-04
7.71000000e-01	1.19351805e-02	1.24913994e-04
7.72000000e-01	1.18614227e-02	1.28267531e-04
7.73000000e-01	1.16519123e-02	1.30503572e-04
7.74000000e-01	1.16965470e-02	1.33618779e-04
7.75000000e-01	1.17857577e-02	1.36684704e-04
7.76000000e-01	1.18052131e-02	1.39468467e-04
7.77000000e-01	1.18791673e-02	1.41903130e-04
7.78000000e-01	1.17278153e-02	1.41914519e-04
7.79000000e-01	1.17748391e-02	1.44272967e-04
7.80000000e-01	1.18483827e-02	1.46534046e-04
7.81000000e-01	1.18259180e-02	1.47771507e-04
7.82000000e-01	1.17668618e-02	1.49048012e-04
7.83000000e-01	1.18110885e-02	1.50854475e-04
7.84000000e-01	1.18575493e-02	1.53531954e-04
7.85000000e-01	1.16631556e-02	1.53406788e-04
7.86000000e-01	1.16283976e-02	1.54183862e-04
7.87000000e-01	1.15595662e-02	1.54344869e-04
7.88000000e-01	1.16086548e-02	1.56764838e-04
7.89000000e-01	1.17040370e-02	1.59455059e-04
7.90000000e-01	1.16795148e-02	1.60684038e-04
7.91000000e-01	1.15668974e-02	1.61049355e-04
7.92000000e-01	1.16166566e-02	1.63011650e-04
7.93000000e-01	1.16318517e-02	1.64350401e-04
7.94000000e-01	1.16671152e-02	1.67587171e-04
7.95000000e-01	1.16598501e-02	1.68959179e-04
7.96000000e-01	1.14440332e-02	1.67301561e-04
7.97000000e-01	1.14460245e-02	1.69105476e-04
7.98000000e-01	1.15130626e-02	1.72846761e-04
7.99000000e-01	1.14411288e-02	1.72883935e-04
8.00000000e-01	1.14990420e-02	1.75514664e-04
8.01000000e-01	1.16110760e-02	1.78859956e-04
8.02000000e-01	1.14020752e-02	1.77568186e-04
8.03000000e-01	1.13252131e-02	1.78902190e-04
8.04000000e-01	1.12524839e-02	1.78408376e-04
8.05000000e-01	1.17146566e-02	1.86921052e-04
8.06000000e-01	1.16329916e-02	1.88672913e-04
8.07000000e-01	1.13337851e-02	1.85618423e-04
8.08000000e-01	1.13646967e-02	1.89399446e-04
8.09000000e-01	1.14298818e-02	1.91315766e-04
8.10000000e-01	1.12680275e-02	1.91208009e-04
8.11000000e-01	1.11119284e-02	1.90636244e-04
8.12000000e-01	1.13889902e-02	1.98165918e-04
8.13000000e-01	1.14434024e-02	2.01320314e-04
8.14000000e-01	1.12235252e-02	1.99690472e-04
8.15000000e-01	1.15803753e-02	2.06626625e-04
8.16000000e-01	1.13339814e-02	2.05130141e-04
8.17000000e-01	1.13956209e-02	2.08380413e-04
8.18000000e-01	1.13830195e-02	2.12495641e-04
8.19000000e-01	1.14995831e-02	2.17103100e-04
8.20000000e-01	1.12973170e-02	2.16281734e-04
8.21000000e-01	1.13915273e-02	2.20682270e-04
8.22000000e-01	1.09495613e-02	2.15589206e-04
8.23000000e-01	1.13079658e-02	2.24452121e-04
8.24000000e-01	1.14493043e-02	2.31449483e-04
8.25000000e-01	1.12802133e-02	2.28678854e-04
8.26000000e-01	1.11801566e-02	2.33581816e-04
8.27000000e-01	1.09226511e-02	2.29183551e-04
8.28000000e-01	1.11339212e-02	2.38964456e-04
8.29000000e-01	1.09248690e-02	2.39506869e-04
8.30000000e-01	1.10955601e-02	2.43903878e-04
8.31000000e-01	1.11069596e-02	2.49574516e-04
8.32000000e-01	1.11325179e-02	2.54587470e-04
8.33000000e-01	1.06713415e-02	2.50289529e-04
8.34000000e-01	1.11620575e-02	2.66300488e-04
8.35000000e-01	1.14044334e-02	2.73425451e-04
8.36000000e-01	1.09252846e-02	2.67490491e-04
8.37000000e-01	1.09883829e-02	2.75240362e-04
8.38000000e-01	1.10575879e-02	2.80804497e-04
8.39000000e-01	1.06658380e-02	2.77725847e-04
8.40000000e-01	1.10510577e-02	2.93877841e-04
8.41000000e-01	1.12694806e-02	3.07593720e-04
8.42000000e-01	1.08538504e-02	3.04671165e-04
8.43000000e-01	1.09414390e-02	3.10564806e-04
8.44000000e-01	1.08236167e-02	3.16241489e-04
8.45000000e-01	1.11026189e-02	3.27361879e-04
8.46000000e-01	1.08744525e-02	3.33753350e-04
8.47000000e-01	1.07544082e-02	3.42320985e-04
8.48000000e-01	1.07156637e-02	3.50108357e-04
8.49000000e-01	1.07252000e-02	3.64695267e-04
8.50000000e-01	1.07379042e-02	3.76606176e-04
8.51000000e-01	1.09779619e-02	3.94544383e-04
8.52000000e-01	1.06291765e-02	4.03711589e-04
8.53000000e-01	1.06954896e-02	4.25712468e-04
8.54000000e-01	1.09079476e-02	4.47005906e-04
8.55000000e-01	1.11922990e-02	4.78079785e-04
8.56000000e-01	1.04267430e-02	4.52936678e-04
8.57000000e-01	1.12137968e-02	5.03698937e-04
8.58000000e-01	1.08638936e-02	5.03803799e-04
8.59000000e-01	1.03261549e-02	4.99798176e-04
8.60000000e-01	1.00360632e-02	4.95881126e-04
8.61000000e-01	1.02911774e-02	5.18863589e-04
8.62000000e-01	1.02842366e-02	5.44157319e-04
8.63000000e-01	1.04336256e-02	5.75889279e-04
8.64000000e-01	1.08286106e-02	6.08173508e-04
8.65000000e-01	9.56368472e-03	5.90820724e-04
8.66000000e-01	1.09209849e-02	6.80555483e-04
8.67000000e-01	1.03303124e-02	7.07289495e-04
8.68000000e-01	1.12098617e-02	7.97854796e-04
8.69000000e-01	1.01870787e-02	7.71925321e-04
8.70000000e-01	1.02451413e-02	8.55201509e-04
8.71000000e-01	1.01492548e-02	9.59964814e-04
8.72000000e-01	9.92318923e-03	1.05671844e-03
8.73000000e-01	1.09740082e-02	1.33187176e-03
8.74000000e-01	1.15082601e-02	1.79199916e-03
8.75000000e-01	1.15563358e-02	4.08297567e-03
