% Filename : SDL3_p7_00019_00007.h5
% Date & Time : 30-Oct-2025 16:38:54
% X-ray Energy (keV) : 13.30001
% Exposure Time (s) : 0.500
% Beam Center : 1461.24000, 208.98300
% Sample to Detector Distance (SDD) (mm) : 1990.750
% Detector Pixel Size (mm) : 0.075
% Photodiode Value : 140792.000
% I0 of Sample : 0
% I0 of Standard : 1
% 
% q(A^-1)   I(q)    I(q)_SE
0.00000000e+00	7.69931368e-03	4.80135777e-03
2.50000000e-04	0.00000000e+00	0.00000000e+00
5.00000000e-04	0.00000000e+00	0.00000000e+00
7.50000000e-04	0.00000000e+00	0.00000000e+00
1.00000000e-03	0.00000000e+00	0.00000000e+00
1.25000000e-03	0.00000000e+00	0.00000000e+00
1.50000000e-03	0.00000000e+00	0.00000000e+00
1.75000000e-03	0.00000000e+00	0.00000000e+00
2.00000000e-03	0.00000000e+00	0.00000000e+00
2.25000000e-03	0.00000000e+00	0.00000000e+00
2.50000000e-03	0.00000000e+00	0.00000000e+00
2.75000000e-03	0.00000000e+00	0.00000000e+00
3.00000000e-03	0.00000000e+00	0.00000000e+00
3.25000000e-03	1.25142918e+02	7.35991670e+01
3.50000000e-03	3.56900555e+01	1.37987521e+01
3.75000000e-03	2.22616620e+01	8.24159210e+00
4.00000000e-03	1.75160855e+01	5.92016500e+00
4.25000000e-03	8.96158213e+00	2.90764417e+00
4.50000000e-03	1.07369280e+01	2.85154943e+00
4.75000000e-03	1.06334405e+01	2.44577471e+00
5.00000000e-03	8.28829407e+00	1.85825369e+00
5.25000000e-03	6.99826305e+00	1.55505943e+00
5.50000000e-03	5.67912471e+00	1.22602353e+00
5.75000000e-03	4.87266439e+00	1.03161474e+00
6.00000000e-03	3.94834024e+00	8.16440310e-01
6.25000000e-03	3.48537923e+00	7.10104195e-01
6.50000000e-03	2.94568156e+00	5.92564668e-01
6.75000000e-03	2.55543784e+00	5.04470303e-01
7.00000000e-03	2.22510909e+00	4.26616676e-01
7.25000000e-03	1.90610174e+00	3.61749325e-01
7.50000000e-03	1.60331761e+00	3.01232323e-01
7.75000000e-03	1.47526469e+00	2.71469050e-01
8.00000000e-03	1.34949221e+00	2.44513431e-01
8.25000000e-03	1.14903729e+00	2.01582773e-01
8.50000000e-03	1.03444171e+00	1.79746908e-01
8.75000000e-03	9.38786583e-01	1.57909958e-01
9.00000000e-03	8.41254988e-01	1.40687129e-01
9.25000000e-03	7.37308467e-01	1.21366458e-01
9.50000000e-03	6.58005753e-01	1.06015318e-01
9.75000000e-03	5.98706554e-01	9.49608422e-02
1.00000000e-02	5.20745093e-01	8.21262875e-02
1.02500000e-02	4.99997182e-01	7.76513267e-02
1.05000000e-02	4.48792167e-01	6.70133672e-02
1.07500000e-02	4.11841504e-01	6.10278668e-02
1.10000000e-02	3.71527526e-01	5.36338225e-02
1.12500000e-02	3.38855906e-01	4.93644981e-02
1.15000000e-02	3.22906806e-01	4.57212127e-02
1.17500000e-02	2.79736795e-01	3.91014844e-02
1.20000000e-02	2.68325047e-01	3.66685832e-02
1.22500000e-02	2.53990020e-01	3.32436944e-02
1.25000000e-02	2.37628803e-01	3.07380899e-02
1.27500000e-02	2.19443107e-01	2.79444413e-02
1.30000000e-02	2.01600505e-01	2.53062370e-02
1.32500000e-02	1.86877446e-01	2.28039521e-02
1.35000000e-02	1.80103144e-01	2.15469189e-02
1.37500000e-02	1.66635415e-01	1.97605082e-02
1.40000000e-02	1.55881223e-01	1.79040251e-02
1.42500000e-02	1.46785232e-01	1.65814891e-02
1.45000000e-02	1.38454942e-01	1.51781644e-02
1.47500000e-02	1.31535155e-01	1.42759380e-02
1.50000000e-02	1.22749649e-01	1.31199410e-02
1.52500000e-02	1.17670628e-01	1.22172565e-02
1.55000000e-02	1.10329150e-01	1.14582781e-02
1.57500000e-02	1.04203922e-01	1.06392742e-02
1.60000000e-02	1.00044417e-01	9.96178159e-03
1.62500000e-02	9.62014193e-02	9.54251686e-03
1.65000000e-02	9.11474553e-02	8.83439767e-03
1.67500000e-02	8.82679367e-02	8.42722246e-03
1.70000000e-02	8.51225525e-02	7.97042974e-03
1.72500000e-02	8.11086516e-02	7.42084839e-03
1.75000000e-02	7.80085968e-02	6.96598664e-03
1.77500000e-02	7.20705231e-02	6.13519531e-03
1.80000000e-02	7.02405863e-02	6.08031164e-03
1.82500000e-02	6.91359620e-02	5.73786001e-03
1.85000000e-02	6.71842855e-02	5.59711789e-03
1.87500000e-02	6.52616957e-02	5.23577870e-03
1.90000000e-02	6.21549346e-02	5.01047846e-03
1.92500000e-02	6.14728081e-02	4.76101801e-03
1.95000000e-02	5.74504590e-02	4.40965016e-03
1.97500000e-02	5.71124615e-02	4.36532807e-03
2.00000000e-02	5.44870948e-02	3.99518707e-03
2.02500000e-02	5.31581305e-02	3.76992243e-03
2.05000000e-02	5.16287101e-02	3.78150618e-03
2.07500000e-02	5.14956905e-02	3.65359674e-03
2.10000000e-02	5.07589069e-02	3.56940183e-03
2.12500000e-02	4.92381062e-02	3.46061059e-03
2.15000000e-02	4.81621162e-02	3.23758963e-03
2.17500000e-02	4.63755803e-02	3.21283031e-03
2.20000000e-02	4.68542336e-02	3.13542076e-03
2.22500000e-02	4.57889974e-02	3.06319493e-03
2.25000000e-02	4.52402454e-02	3.00393476e-03
2.27500000e-02	4.42764254e-02	2.87965717e-03
2.30000000e-02	4.38137358e-02	2.82602726e-03
2.32500000e-02	4.33324250e-02	2.79154220e-03
2.35000000e-02	4.27907622e-02	2.68603860e-03
2.37500000e-02	4.14833416e-02	2.65455147e-03
2.40000000e-02	4.08226921e-02	2.58613633e-03
2.42500000e-02	4.02932397e-02	2.52249333e-03
2.45000000e-02	3.85538027e-02	2.31687307e-03
2.47500000e-02	3.91577380e-02	2.36023931e-03
2.50000000e-02	3.86834187e-02	2.32523735e-03
2.52500000e-02	3.82760222e-02	2.27684274e-03
2.55000000e-02	3.73182566e-02	2.14640070e-03
2.57500000e-02	3.59765142e-02	2.09360020e-03
2.60000000e-02	3.63704791e-02	2.14076265e-03
2.62500000e-02	3.50811231e-02	2.01452092e-03
2.65000000e-02	3.46329078e-02	1.98677492e-03
2.67500000e-02	3.37642964e-02	1.85474182e-03
2.70000000e-02	3.39158274e-02	1.88864239e-03
2.72500000e-02	3.42364015e-02	1.85682537e-03
2.75000000e-02	3.28897408e-02	1.81538841e-03
2.77500000e-02	3.30224358e-02	1.80460155e-03
2.80000000e-02	3.27753744e-02	1.75790964e-03
2.82500000e-02	3.32476962e-02	1.79151321e-03
2.85000000e-02	3.22116790e-02	1.71965018e-03
2.87500000e-02	3.33169409e-02	1.79857016e-03
2.90000000e-02	3.12939339e-02	1.64001704e-03
2.92500000e-02	3.30886835e-02	1.64344294e-03
2.95000000e-02	3.13890266e-02	1.61317025e-03
2.97500000e-02	3.13958583e-02	1.58448409e-03
3.00000000e-02	3.20560318e-02	1.63081195e-03
3.02500000e-02	3.20013826e-02	1.63497003e-03
3.05000000e-02	3.29459473e-02	1.64944659e-03
3.07500000e-02	3.09107637e-02	1.56407653e-03
3.10000000e-02	3.13299173e-02	1.55286336e-03
3.12500000e-02	3.03908522e-02	1.51593951e-03
3.15000000e-02	2.85676042e-02	1.38841348e-03
3.17500000e-02	3.01140308e-02	1.45752842e-03
3.20000000e-02	3.02613826e-02	1.47946851e-03
3.22500000e-02	2.90252423e-02	1.41075538e-03
3.25000000e-02	2.91483305e-02	1.42605920e-03
3.27500000e-02	3.01145611e-02	1.44131983e-03
3.30000000e-02	2.91440664e-02	1.39593082e-03
3.32500000e-02	2.91660528e-02	1.39619630e-03
3.35000000e-02	2.85186400e-02	1.36015472e-03
3.37500000e-02	2.81843252e-02	1.36218284e-03
3.40000000e-02	2.79026337e-02	1.31778884e-03
3.42500000e-02	2.88091944e-02	1.36340900e-03
3.45000000e-02	2.76019959e-02	1.32103298e-03
3.47500000e-02	2.76224656e-02	1.29760728e-03
3.50000000e-02	2.65793998e-02	1.24738476e-03
3.52500000e-02	2.72679234e-02	1.26468498e-03
3.55000000e-02	2.67643948e-02	1.22484144e-03
3.57500000e-02	2.69017795e-02	1.24555329e-03
3.60000000e-02	2.68356451e-02	1.25208439e-03
3.62500000e-02	2.65216210e-02	1.23257345e-03
3.65000000e-02	2.64933951e-02	1.22775934e-03
3.67500000e-02	2.71585438e-02	1.24202574e-03
3.70000000e-02	2.59639418e-02	1.18346607e-03
3.72500000e-02	2.62038705e-02	1.20155680e-03
3.75000000e-02	2.63428996e-02	1.21343677e-03
3.77500000e-02	2.57577840e-02	1.15980616e-03
3.80000000e-02	2.55120933e-02	1.15280816e-03
3.82500000e-02	2.50300157e-02	1.12146515e-03
3.85000000e-02	2.51351291e-02	1.14178953e-03
3.87500000e-02	2.46129749e-02	1.11128455e-03
3.90000000e-02	2.54465337e-02	1.13813405e-03
3.92500000e-02	2.54411501e-02	1.12924729e-03
3.95000000e-02	2.49515948e-02	1.10721971e-03
3.97500000e-02	2.53433054e-02	1.12520235e-03
4.00000000e-02	2.52320367e-02	1.11584487e-03
4.02500000e-02	2.51541397e-02	1.10796583e-03
4.05000000e-02	2.49535974e-02	1.10268895e-03
4.07500000e-02	2.47278937e-02	1.07624693e-03
4.10000000e-02	2.43996156e-02	1.06862315e-03
4.12500000e-02	2.48854067e-02	1.08164924e-03
4.15000000e-02	2.46707399e-02	1.05959594e-03
4.17500000e-02	2.49697416e-02	1.07940878e-03
4.20000000e-02	2.51704198e-02	1.07464351e-03
4.22500000e-02	2.41796728e-02	1.04118946e-03
4.25000000e-02	2.38863619e-02	1.03538751e-03
4.27500000e-02	2.36502145e-02	1.01042806e-03
4.30000000e-02	2.35276777e-02	9.98572927e-04
4.32500000e-02	2.43251595e-02	1.02140692e-03
4.35000000e-02	2.43212451e-02	1.04065267e-03
4.37500000e-02	2.40158721e-02	1.01801408e-03
4.40000000e-02	2.35916059e-02	9.97763089e-04
4.42500000e-02	2.32871441e-02	9.78504053e-04
4.45000000e-02	2.35552098e-02	9.89784231e-04
4.47500000e-02	2.35573027e-02	9.85160640e-04
4.50000000e-02	2.38748150e-02	1.00117813e-03
4.52500000e-02	2.40315294e-02	1.00152643e-03
4.55000000e-02	2.39601990e-02	9.99628733e-04
4.57500000e-02	2.44542492e-02	1.01242276e-03
4.60000000e-02	2.35868094e-02	9.76460633e-04
4.62500000e-02	2.37558740e-02	9.95095006e-04
4.65000000e-02	2.39311628e-02	9.83148782e-04
4.67500000e-02	2.33206204e-02	9.55959824e-04
4.70000000e-02	2.34405570e-02	9.65196686e-04
4.72500000e-02	2.36795634e-02	9.66332195e-04
4.75000000e-02	2.32216762e-02	9.58132586e-04
4.77500000e-02	2.31143807e-02	9.32132241e-04
4.80000000e-02	2.37733351e-02	9.65308655e-04
4.82500000e-02	2.29836813e-02	9.34487234e-04
4.85000000e-02	2.36153097e-02	9.71022787e-04
4.87500000e-02	2.27104988e-02	9.12635168e-04
4.90000000e-02	2.32303958e-02	9.37278548e-04
4.92500000e-02	2.22818343e-02	8.96746498e-04
4.95000000e-02	2.28481586e-02	9.18005898e-04
4.97500000e-02	2.27950116e-02	9.24322926e-04
5.00000000e-02	2.24357357e-02	9.00995138e-04
5.02500000e-02	2.30518674e-02	9.14513820e-04
5.05000000e-02	2.28479318e-02	9.09352915e-04
5.07500000e-02	2.34409282e-02	9.32977173e-04
5.10000000e-02	2.27132304e-02	9.03882838e-04
5.12500000e-02	2.27751816e-02	9.07282038e-04
5.15000000e-02	2.32545434e-02	9.19917456e-04
5.17500000e-02	2.32252749e-02	9.14430080e-04
5.20000000e-02	2.28693248e-02	9.05530969e-04
5.22500000e-02	2.18563124e-02	8.73888145e-04
5.25000000e-02	2.24617997e-02	8.80196461e-04
5.27500000e-02	2.28607015e-02	8.90099862e-04
5.30000000e-02	2.27529447e-02	8.98596673e-04
5.32500000e-02	2.23013088e-02	8.70103981e-04
5.35000000e-02	2.22855718e-02	8.68071450e-04
5.37500000e-02	2.25392690e-02	8.77233418e-04
5.40000000e-02	2.22184995e-02	8.68149402e-04
5.42500000e-02	2.21185685e-02	8.54732454e-04
5.45000000e-02	2.22504148e-02	8.64723019e-04
5.47500000e-02	2.25090094e-02	8.68071565e-04
5.50000000e-02	2.21886241e-02	8.58396963e-04
5.52500000e-02	2.17288220e-02	8.32134728e-04
5.55000000e-02	2.22509789e-02	8.50926483e-04
5.57500000e-02	2.24669848e-02	8.63163172e-04
5.60000000e-02	2.26568836e-02	8.65751209e-04
5.62500000e-02	2.18679877e-02	8.33917506e-04
5.65000000e-02	2.26297278e-02	8.58916437e-04
5.67500000e-02	2.24857113e-02	8.57414413e-04
5.70000000e-02	2.23466438e-02	8.47283070e-04
5.72500000e-02	2.25241678e-02	8.55109303e-04
5.75000000e-02	2.21203061e-02	8.46369691e-04
5.77500000e-02	2.25326910e-02	8.45872229e-04
5.80000000e-02	2.19188904e-02	8.28390915e-04
5.82500000e-02	2.20746866e-02	8.38167039e-04
5.85000000e-02	2.18232194e-02	8.30089808e-04
5.87500000e-02	2.19369227e-02	8.23539211e-04
5.90000000e-02	2.22908049e-02	8.31493524e-04
5.92500000e-02	2.16158249e-02	8.13574540e-04
5.95000000e-02	2.16835799e-02	8.06435937e-04
5.97500000e-02	2.19164621e-02	8.19609268e-04
6.00000000e-02	2.20198895e-02	8.21831222e-04
6.02500000e-02	2.19551946e-02	8.16491365e-04
6.05000000e-02	2.21576999e-02	8.16994281e-04
6.07500000e-02	2.19475091e-02	8.20879374e-04
6.10000000e-02	2.20708698e-02	8.11351983e-04
6.12500000e-02	2.18561272e-02	8.04548506e-04
6.15000000e-02	2.18665584e-02	8.06222090e-04
6.17500000e-02	2.13072841e-02	7.87022791e-04
6.20000000e-02	2.18203403e-02	8.02539948e-04
6.22500000e-02	2.09223260e-02	7.59696738e-04
6.25000000e-02	2.20494598e-02	8.09188318e-04
6.27500000e-02	2.18266236e-02	7.90856189e-04
6.30000000e-02	2.14355040e-02	7.85417103e-04
6.32500000e-02	2.12799632e-02	7.75184568e-04
6.35000000e-02	2.14485778e-02	7.81817020e-04
6.37500000e-02	2.14248426e-02	7.84099534e-04
6.40000000e-02	2.14250475e-02	7.85620810e-04
6.42500000e-02	2.08509784e-02	7.52737642e-04
6.45000000e-02	2.15513593e-02	7.78595787e-04
6.47500000e-02	2.13287840e-02	7.65931887e-04
6.50000000e-02	2.16913114e-02	7.81365881e-04
6.52500000e-02	2.11681117e-02	7.58983944e-04
6.55000000e-02	2.17294310e-02	7.77582968e-04
6.57500000e-02	2.16169960e-02	7.81344025e-04
6.60000000e-02	2.11444130e-02	7.62936667e-04
6.62500000e-02	2.12241224e-02	7.64801488e-04
6.65000000e-02	2.14022443e-02	7.58666981e-04
6.67500000e-02	2.10277777e-02	7.44504778e-04
6.70000000e-02	2.11924759e-02	7.56751422e-04
6.72500000e-02	2.16914278e-02	7.73139188e-04
6.75000000e-02	2.14446786e-02	7.62171804e-04
6.77500000e-02	2.14052750e-02	7.55672416e-04
6.80000000e-02	2.16323130e-02	7.71005071e-04
6.82500000e-02	2.09604290e-02	7.43485613e-04
6.85000000e-02	2.12824709e-02	7.57192482e-04
6.87500000e-02	2.17297076e-02	7.66121708e-04
6.90000000e-02	2.18087720e-02	7.75090568e-04
6.92500000e-02	2.09307861e-02	7.34046668e-04
6.95000000e-02	2.18380897e-02	7.68124645e-04
6.97500000e-02	2.10467271e-02	7.37357652e-04
7.00000000e-02	2.15493984e-02	7.49933084e-04
7.02500000e-02	2.14444066e-02	7.46853031e-04
7.05000000e-02	2.08744004e-02	7.21315754e-04
7.07500000e-02	2.11196520e-02	7.35155322e-04
7.10000000e-02	2.12882476e-02	7.32299282e-04
7.12500000e-02	2.09600317e-02	7.33265217e-04
7.15000000e-02	2.12629587e-02	7.38856743e-04
7.17500000e-02	2.05981835e-02	7.17708600e-04
7.20000000e-02	2.12726157e-02	7.42147189e-04
7.22500000e-02	2.15159314e-02	7.41274268e-04
7.25000000e-02	2.14502093e-02	7.37316700e-04
7.27500000e-02	2.05651822e-02	7.08786616e-04
7.30000000e-02	2.12631746e-02	7.31813835e-04
7.32500000e-02	2.09546094e-02	7.13837952e-04
7.35000000e-02	2.10250983e-02	7.28088376e-04
7.37500000e-02	2.06377651e-02	7.10724861e-04
7.40000000e-02	2.12833499e-02	7.27665405e-04
7.42500000e-02	2.05796195e-02	6.99990444e-04
7.45000000e-02	2.16343352e-02	7.36147436e-04
7.47500000e-02	2.13133992e-02	7.22112236e-04
7.50000000e-02	2.12751893e-02	7.28424080e-04
7.52500000e-02	2.11502034e-02	7.16870302e-04
7.55000000e-02	2.03783253e-02	6.87688042e-04
7.57500000e-02	2.05955517e-02	6.99442586e-04
7.60000000e-02	2.06731828e-02	7.07110070e-04
7.62500000e-02	2.08425094e-02	7.01925956e-04
7.65000000e-02	2.15395187e-02	7.27798726e-04
7.67500000e-02	2.03664250e-02	6.87297046e-04
7.70000000e-02	2.16529533e-02	7.13843229e-04
7.72500000e-02	2.10817985e-02	7.20874290e-04
7.75000000e-02	2.07377646e-02	7.11731281e-04
7.77500000e-02	2.08428235e-02	7.26901971e-04
7.80000000e-02	2.13826975e-02	7.40210650e-04
7.82500000e-02	2.11313876e-02	7.33719037e-04
7.85000000e-02	2.12182343e-02	7.44062403e-04
7.87500000e-02	2.06408901e-02	7.25650407e-04
7.90000000e-02	2.11549576e-02	7.48695926e-04
7.92500000e-02	2.11280875e-02	7.49227786e-04
7.95000000e-02	2.15926612e-02	7.62872865e-04
7.97500000e-02	2.12258880e-02	7.54173947e-04
8.00000000e-02	2.10741475e-02	7.50839249e-04
8.02500000e-02	2.07588646e-02	7.41773423e-04
8.05000000e-02	2.12273985e-02	7.56347130e-04
8.07500000e-02	2.12920411e-02	7.67921964e-04
8.10000000e-02	2.06898199e-02	7.48501248e-04
8.12500000e-02	2.09392425e-02	7.55676569e-04
8.15000000e-02	2.09690416e-02	7.56170123e-04
8.17500000e-02	2.07263325e-02	7.55839057e-04
8.20000000e-02	2.02645519e-02	7.42175540e-04
8.22500000e-02	2.04675252e-02	7.50800561e-04
8.25000000e-02	2.08047982e-02	7.57807421e-04
8.27500000e-02	2.06462493e-02	7.51785154e-04
8.30000000e-02	2.07516647e-02	7.61250180e-04
8.32500000e-02	2.11365904e-02	7.82205788e-04
8.35000000e-02	2.05847714e-02	7.62612818e-04
8.37500000e-02	2.08971588e-02	7.57616309e-04
8.40000000e-02	2.00591003e-02	7.42649311e-04
8.42500000e-02	2.02716809e-02	7.46969015e-04
8.45000000e-02	2.04258044e-02	7.56257366e-04
8.47500000e-02	2.07999597e-02	7.63285249e-04
8.50000000e-02	2.08494130e-02	7.65777808e-04
8.52500000e-02	2.10700613e-02	7.80020253e-04
8.55000000e-02	2.00433394e-02	7.41812631e-04
8.57500000e-02	2.05177110e-02	7.68244598e-04
8.60000000e-02	2.11652280e-02	7.83050834e-04
8.62500000e-02	2.07664256e-02	7.71061580e-04
8.65000000e-02	2.03177159e-02	7.57442530e-04
8.67500000e-02	2.09164900e-02	7.66371018e-04
8.70000000e-02	2.03083557e-02	7.34269310e-04
8.72500000e-02	2.07792221e-02	7.45548571e-04
8.75000000e-02	2.09897689e-02	7.40950715e-04
8.77500000e-02	2.03089689e-02	7.12977226e-04
8.80000000e-02	2.01509492e-02	7.10603324e-04
8.82500000e-02	2.07621486e-02	7.25754292e-04
8.85000000e-02	2.09092544e-02	7.28036818e-04
8.87500000e-02	2.10371905e-02	7.20387580e-04
8.90000000e-02	2.05845337e-02	7.14084059e-04
8.92500000e-02	2.05638921e-02	7.04906346e-04
8.95000000e-02	2.11512196e-02	7.21328185e-04
8.97500000e-02	2.07770666e-02	7.00738577e-04
9.00000000e-02	2.06299211e-02	6.96451067e-04
9.02500000e-02	2.08825749e-02	7.08122900e-04
9.05000000e-02	2.06276058e-02	6.96008811e-04
9.07500000e-02	2.03058428e-02	6.84515316e-04
9.10000000e-02	2.04336720e-02	6.81731476e-04
9.12500000e-02	2.08774913e-02	6.94442107e-04
9.15000000e-02	2.02653316e-02	6.83828678e-04
9.17500000e-02	2.06643734e-02	6.94496418e-04
9.20000000e-02	2.05933624e-02	6.86779476e-04
9.22500000e-02	2.05893508e-02	6.85248166e-04
9.25000000e-02	2.05282148e-02	6.85178194e-04
9.27500000e-02	2.07935170e-02	6.84289088e-04
9.30000000e-02	1.99259237e-02	6.55682330e-04
9.32500000e-02	2.02998251e-02	6.72138842e-04
9.35000000e-02	2.02173555e-02	6.66881480e-04
9.37500000e-02	2.07591600e-02	6.76320422e-04
9.40000000e-02	2.07258694e-02	6.80202771e-04
9.42500000e-02	2.00696546e-02	6.58460149e-04
9.45000000e-02	2.04536313e-02	6.67939569e-04
9.47500000e-02	1.99585352e-02	6.50216985e-04
9.50000000e-02	2.02854738e-02	6.63538907e-04
9.52500000e-02	2.00734945e-02	6.50113972e-04
9.55000000e-02	2.02833316e-02	6.62278005e-04
9.57500000e-02	2.03348470e-02	6.59676003e-04
9.60000000e-02	2.05957302e-02	6.69739913e-04
9.62500000e-02	2.01605021e-02	6.48049525e-04
9.65000000e-02	2.05592041e-02	6.63273172e-04
9.67500000e-02	2.00229091e-02	6.42233142e-04
9.70000000e-02	2.00188076e-02	6.45695186e-04
9.72500000e-02	2.00065206e-02	6.40363233e-04
9.75000000e-02	2.00436223e-02	6.47891583e-04
9.77500000e-02	1.99098220e-02	6.30514968e-04
9.80000000e-02	2.06268627e-02	6.56537025e-04
9.82500000e-02	2.00231027e-02	6.32511513e-04
9.85000000e-02	1.98977885e-02	6.33712319e-04
9.87500000e-02	1.99223259e-02	6.34108755e-04
9.90000000e-02	2.00553922e-02	6.33718640e-04
9.92500000e-02	2.03949317e-02	6.44358135e-04
9.95000000e-02	2.07075143e-02	6.46590573e-04
9.97500000e-02	2.06340575e-02	6.49598927e-04
1.00000000e-01	1.97536120e-02	5.09853686e-04
1.00500000e-01	2.04340729e-02	4.55302323e-04
1.01000000e-01	1.98647658e-02	4.40010413e-04
1.01500000e-01	2.01059166e-02	4.44126060e-04
1.02000000e-01	2.00565705e-02	4.40646694e-04
1.02500000e-01	2.00601778e-02	4.39933569e-04
1.03000000e-01	1.98542378e-02	4.38592870e-04
1.03500000e-01	1.99607506e-02	4.38284963e-04
1.04000000e-01	1.99554785e-02	4.33836676e-04
1.04500000e-01	1.99425574e-02	4.33377360e-04
1.05000000e-01	2.00782392e-02	4.35975828e-04
1.05500000e-01	2.00913489e-02	4.32494566e-04
1.06000000e-01	1.98792619e-02	4.29494793e-04
1.06500000e-01	2.03456415e-02	4.35849874e-04
1.07000000e-01	2.00927617e-02	4.36193651e-04
1.07500000e-01	1.99281651e-02	4.40473109e-04
1.08000000e-01	1.96841531e-02	4.39778698e-04
1.08500000e-01	1.98865719e-02	4.48192322e-04
1.09000000e-01	2.03157977e-02	4.58411458e-04
1.09500000e-01	1.97156506e-02	4.51989270e-04
1.10000000e-01	1.97473871e-02	4.44649208e-04
1.10500000e-01	1.99450211e-02	4.38042815e-04
1.11000000e-01	1.99137845e-02	4.32273289e-04
1.11500000e-01	1.94482281e-02	4.19502435e-04
1.12000000e-01	2.00633135e-02	4.27490711e-04
1.12500000e-01	2.03452882e-02	4.29633970e-04
1.13000000e-01	2.02603097e-02	4.29713476e-04
1.13500000e-01	2.01356970e-02	4.24463362e-04
1.14000000e-01	1.97731449e-02	4.16340923e-04
1.14500000e-01	1.97544897e-02	4.15426477e-04
1.15000000e-01	1.94435309e-02	4.06095047e-04
1.15500000e-01	1.95697823e-02	4.08557771e-04
1.16000000e-01	1.99409971e-02	4.14181716e-04
1.16500000e-01	2.00308536e-02	4.16791718e-04
1.17000000e-01	1.98492949e-02	4.11930771e-04
1.17500000e-01	1.98745498e-02	4.10091733e-04
1.18000000e-01	1.98047018e-02	4.09462598e-04
1.18500000e-01	2.01266371e-02	4.12043424e-04
1.19000000e-01	1.95932134e-02	4.00840470e-04
1.19500000e-01	1.93532933e-02	3.96238765e-04
1.20000000e-01	2.01371304e-02	4.10872079e-04
1.20500000e-01	1.98777580e-02	4.04007510e-04
1.21000000e-01	1.95199863e-02	3.96617924e-04
1.21500000e-01	1.95407520e-02	3.95621778e-04
1.22000000e-01	2.00037894e-02	4.02211705e-04
1.22500000e-01	1.96019923e-02	3.95276620e-04
1.23000000e-01	1.97114824e-02	3.96949224e-04
1.23500000e-01	1.99080183e-02	3.99498256e-04
1.24000000e-01	1.96553636e-02	3.94368198e-04
1.24500000e-01	1.99586451e-02	3.96442324e-04
1.25000000e-01	1.99364244e-02	3.98621927e-04
1.25500000e-01	1.97520537e-02	3.92864965e-04
1.26000000e-01	1.97529155e-02	3.92640437e-04
1.26500000e-01	1.97545436e-02	3.90926207e-04
1.27000000e-01	2.00367437e-02	3.94654505e-04
1.27500000e-01	1.96496216e-02	3.87158269e-04
1.28000000e-01	1.97374115e-02	3.89800252e-04
1.28500000e-01	1.96700018e-02	3.86609158e-04
1.29000000e-01	2.01214687e-02	3.94894687e-04
1.29500000e-01	1.96238247e-02	3.86252014e-04
1.30000000e-01	2.00126434e-02	3.91139386e-04
1.30500000e-01	1.98081764e-02	3.85874476e-04
1.31000000e-01	1.98877682e-02	3.86614778e-04
1.31500000e-01	1.97856353e-02	3.83617452e-04
1.32000000e-01	1.97599794e-02	3.83814929e-04
1.32500000e-01	1.98005983e-02	3.83076579e-04
1.33000000e-01	1.97568397e-02	3.80081661e-04
1.33500000e-01	1.95517747e-02	3.75590720e-04
1.34000000e-01	1.98156789e-02	3.80608678e-04
1.34500000e-01	1.97135551e-02	3.75068693e-04
1.35000000e-01	1.97320166e-02	3.77725111e-04
1.35500000e-01	1.99423054e-02	3.79276622e-04
1.36000000e-01	1.97843813e-02	3.75001469e-04
1.36500000e-01	1.96828166e-02	3.75984500e-04
1.37000000e-01	1.95147620e-02	3.68911281e-04
1.37500000e-01	1.94583013e-02	3.69375684e-04
1.38000000e-01	1.96955857e-02	3.71872439e-04
1.38500000e-01	1.91149819e-02	3.61843888e-04
1.39000000e-01	1.94474084e-02	3.66745789e-04
1.39500000e-01	1.95278622e-02	3.66770621e-04
1.40000000e-01	1.96009586e-02	3.70178072e-04
1.40500000e-01	1.93258657e-02	3.64514611e-04
1.41000000e-01	1.93731269e-02	3.62693476e-04
1.41500000e-01	1.96874241e-02	3.70905582e-04
1.42000000e-01	1.94200583e-02	3.64313371e-04
1.42500000e-01	1.94799458e-02	3.64946939e-04
1.43000000e-01	1.92278114e-02	3.61302211e-04
1.43500000e-01	1.98113587e-02	3.68630510e-04
1.44000000e-01	1.93553259e-02	3.59764521e-04
1.44500000e-01	1.94055947e-02	3.58020046e-04
1.45000000e-01	1.92290704e-02	3.57118446e-04
1.45500000e-01	1.95117466e-02	3.60934339e-04
1.46000000e-01	1.92349970e-02	3.57347454e-04
1.46500000e-01	1.96993199e-02	3.62107819e-04
1.47000000e-01	1.95230938e-02	3.58251180e-04
1.47500000e-01	1.93463401e-02	3.52708889e-04
1.48000000e-01	1.95483475e-02	3.57807488e-04
1.48500000e-01	1.92930548e-02	3.51855935e-04
1.49000000e-01	1.93928343e-02	3.52384367e-04
1.49500000e-01	1.92930239e-02	3.52898139e-04
1.50000000e-01	1.96894937e-02	3.56576881e-04
1.50500000e-01	1.94915896e-02	3.55429068e-04
1.51000000e-01	1.97198661e-02	3.57532945e-04
1.51500000e-01	1.95905174e-02	3.53938758e-04
1.52000000e-01	1.94348215e-02	3.50411121e-04
1.52500000e-01	1.95077468e-02	3.51715160e-04
1.53000000e-01	1.91016155e-02	3.44615736e-04
1.53500000e-01	1.93244012e-02	3.48138792e-04
1.54000000e-01	1.92586695e-02	3.46436298e-04
1.54500000e-01	1.91102014e-02	3.49278520e-04
1.55000000e-01	1.94374722e-02	3.59342796e-04
1.55500000e-01	1.92458692e-02	3.57884026e-04
1.56000000e-01	1.94761914e-02	3.65618224e-04
1.56500000e-01	1.94810928e-02	3.63529248e-04
1.57000000e-01	1.94022591e-02	3.64338201e-04
1.57500000e-01	1.92058464e-02	3.53490504e-04
1.58000000e-01	1.91655766e-02	3.47287998e-04
1.58500000e-01	1.93417692e-02	3.50052236e-04
1.59000000e-01	1.91619744e-02	3.45124549e-04
1.59500000e-01	1.89868830e-02	3.41931913e-04
1.60000000e-01	1.89854377e-02	3.41927814e-04
1.60500000e-01	1.89733829e-02	3.37661114e-04
1.61000000e-01	1.93489335e-02	3.46814885e-04
1.61500000e-01	1.92852576e-02	3.40586257e-04
1.62000000e-01	1.91964149e-02	3.40064849e-04
1.62500000e-01	1.94357567e-02	3.44195406e-04
1.63000000e-01	1.93045166e-02	3.40585524e-04
1.63500000e-01	1.92125200e-02	3.40063634e-04
1.64000000e-01	1.89500395e-02	3.33971628e-04
1.64500000e-01	1.91212736e-02	3.36168303e-04
1.65000000e-01	1.89102773e-02	3.32279105e-04
1.65500000e-01	1.90564287e-02	3.32922782e-04
1.66000000e-01	1.91502626e-02	3.36208707e-04
1.66500000e-01	1.88241704e-02	3.29940375e-04
1.67000000e-01	1.89640111e-02	3.31753470e-04
1.67500000e-01	1.91732204e-02	3.33308579e-04
1.68000000e-01	1.89184437e-02	3.29382623e-04
1.68500000e-01	1.91889608e-02	3.32851824e-04
1.69000000e-01	1.88772336e-02	3.28069762e-04
1.69500000e-01	1.89554571e-02	3.27561570e-04
1.70000000e-01	1.91537090e-02	3.31210867e-04
1.70500000e-01	1.88762191e-02	3.25993315e-04
1.71000000e-01	1.87908547e-02	3.23533059e-04
1.71500000e-01	1.88966862e-02	3.25711408e-04
1.72000000e-01	1.89361089e-02	3.24709075e-04
1.72500000e-01	1.86914733e-02	3.21600625e-04
1.73000000e-01	1.89143589e-02	3.23798875e-04
1.73500000e-01	1.85905099e-02	3.17168450e-04
1.74000000e-01	1.90502954e-02	3.25430460e-04
1.74500000e-01	1.88582209e-02	3.19350456e-04
1.75000000e-01	1.89488979e-02	3.20267901e-04
1.75500000e-01	1.84581306e-02	3.11803888e-04
1.76000000e-01	1.85372413e-02	3.12663614e-04
1.76500000e-01	1.86768908e-02	3.14644218e-04
1.77000000e-01	1.89117924e-02	3.18667035e-04
1.77500000e-01	1.90895931e-02	3.21347703e-04
1.78000000e-01	1.87788933e-02	3.15912050e-04
1.78500000e-01	1.87227579e-02	3.17178375e-04
1.79000000e-01	1.88042270e-02	3.14726457e-04
1.79500000e-01	1.89434236e-02	3.17142194e-04
1.80000000e-01	1.89680328e-02	3.18282728e-04
1.80500000e-01	1.90374694e-02	3.19301190e-04
1.81000000e-01	1.85888271e-02	3.11526477e-04
1.81500000e-01	1.87483677e-02	3.12706929e-04
1.82000000e-01	1.88124506e-02	3.13335743e-04
1.82500000e-01	1.87291136e-02	3.13036044e-04
1.83000000e-01	1.87721595e-02	3.13130488e-04
1.83500000e-01	1.86262109e-02	3.09795332e-04
1.84000000e-01	1.89757072e-02	3.14068172e-04
1.84500000e-01	1.85286696e-02	3.07954208e-04
1.85000000e-01	1.87450590e-02	3.12021110e-04
1.85500000e-01	1.85268021e-02	3.05650436e-04
1.86000000e-01	1.85895682e-02	3.07899088e-04
1.86500000e-01	1.85783625e-02	3.06569026e-04
1.87000000e-01	1.87181647e-02	3.08342884e-04
1.87500000e-01	1.86254761e-02	3.05994903e-04
1.88000000e-01	1.87331362e-02	3.07483624e-04
1.88500000e-01	1.86520229e-02	3.05747042e-04
1.89000000e-01	1.87353956e-02	3.07081030e-04
1.89500000e-01	1.84396520e-02	3.02658621e-04
1.90000000e-01	1.84812538e-02	3.01383776e-04
1.90500000e-01	1.86053309e-02	3.02981217e-04
1.91000000e-01	1.84598931e-02	3.01613220e-04
1.91500000e-01	1.85856116e-02	3.03617574e-04
1.92000000e-01	1.87011479e-02	3.03008676e-04
1.92500000e-01	1.82683547e-02	2.96296031e-04
1.93000000e-01	1.86570063e-02	3.01933204e-04
1.93500000e-01	1.84038208e-02	2.99164993e-04
1.94000000e-01	1.85320849e-02	2.99988165e-04
1.94500000e-01	1.83606051e-02	2.96371903e-04
1.95000000e-01	1.85329574e-02	2.99242107e-04
1.95500000e-01	1.84604930e-02	2.97791083e-04
1.96000000e-01	1.83406159e-02	2.95409100e-04
1.96500000e-01	1.84799164e-02	2.98196580e-04
1.97000000e-01	1.81886145e-02	2.92244171e-04
1.97500000e-01	1.84399739e-02	2.96148033e-04
1.98000000e-01	1.82309120e-02	2.92302396e-04
1.98500000e-01	1.84790851e-02	2.96199849e-04
1.99000000e-01	1.81355097e-02	2.91841575e-04
1.99500000e-01	1.85295903e-02	2.95599558e-04
2.00000000e-01	1.82722450e-02	2.91768247e-04
2.00500000e-01	1.85735509e-02	2.95085205e-04
2.01000000e-01	1.82711546e-02	2.90611633e-04
2.01500000e-01	1.84171580e-02	2.93003413e-04
2.02000000e-01	1.84708388e-02	2.93566208e-04
2.02500000e-01	1.83235785e-02	2.90688803e-04
2.03000000e-01	1.82602735e-02	2.89776907e-04
2.03500000e-01	1.84615300e-02	2.91798000e-04
2.04000000e-01	1.82484075e-02	2.88857612e-04
2.04500000e-01	1.80970489e-02	2.86669965e-04
2.05000000e-01	1.80769077e-02	2.84966835e-04
2.05500000e-01	1.81832009e-02	2.86520318e-04
2.06000000e-01	1.81858485e-02	2.85819019e-04
2.06500000e-01	1.83067176e-02	2.87224041e-04
2.07000000e-01	1.78523362e-02	2.79953546e-04
2.07500000e-01	1.82181787e-02	2.85881736e-04
2.08000000e-01	1.80607805e-02	2.83579447e-04
2.08500000e-01	1.82929385e-02	2.85862457e-04
2.09000000e-01	1.80907473e-02	2.82765351e-04
2.09500000e-01	1.82612150e-02	2.84955682e-04
2.10000000e-01	1.82581332e-02	2.84416538e-04
2.10500000e-01	1.82194105e-02	2.83915693e-04
2.11000000e-01	1.80976095e-02	2.81259562e-04
2.11500000e-01	1.81272101e-02	2.81844033e-04
2.12000000e-01	1.82068807e-02	2.82668674e-04
2.12500000e-01	1.84831125e-02	2.85336253e-04
2.13000000e-01	1.82315772e-02	2.81442509e-04
2.13500000e-01	1.84091711e-02	2.84543537e-04
2.14000000e-01	1.81902912e-02	2.81534317e-04
2.14500000e-01	1.81732125e-02	2.79586646e-04
2.15000000e-01	1.83198991e-02	2.83569627e-04
2.15500000e-01	1.81865052e-02	2.79395997e-04
2.16000000e-01	1.82401866e-02	2.80087042e-04
2.16500000e-01	1.81572255e-02	2.79704926e-04
2.17000000e-01	1.80102726e-02	2.80258576e-04
2.17500000e-01	1.79553435e-02	2.84395654e-04
2.18000000e-01	1.80971742e-02	2.86151867e-04
2.18500000e-01	1.81460018e-02	2.88686640e-04
2.19000000e-01	1.81151225e-02	2.91066405e-04
2.19500000e-01	1.79927740e-02	2.88431968e-04
2.20000000e-01	1.82845119e-02	2.95277739e-04
2.20500000e-01	1.79761427e-02	2.89875797e-04
2.21000000e-01	1.81247426e-02	2.94511258e-04
2.21500000e-01	1.78433126e-02	2.90791420e-04
2.22000000e-01	1.80113370e-02	2.93812069e-04
2.22500000e-01	1.80426325e-02	2.94779111e-04
2.23000000e-01	1.79285028e-02	2.94475252e-04
2.23500000e-01	1.78261519e-02	2.94198935e-04
2.24000000e-01	1.80255479e-02	2.96606447e-04
2.24500000e-01	1.80212440e-02	2.98398914e-04
2.25000000e-01	1.78335191e-02	2.93602792e-04
2.25500000e-01	1.79938920e-02	2.97530661e-04
2.26000000e-01	1.80845667e-02	3.00915376e-04
2.26500000e-01	1.81507216e-02	2.96442933e-04
2.27000000e-01	1.80147936e-02	2.92174381e-04
2.27500000e-01	1.81123159e-02	2.89942027e-04
2.28000000e-01	1.79995677e-02	2.87219999e-04
2.28500000e-01	1.77609732e-02	2.82913370e-04
2.29000000e-01	1.77941589e-02	2.82191713e-04
2.29500000e-01	1.78691218e-02	2.81848420e-04
2.30000000e-01	1.78351955e-02	2.79494364e-04
2.30500000e-01	1.77750942e-02	2.79503411e-04
2.31000000e-01	1.79887559e-02	2.81398290e-04
2.31500000e-01	1.76598759e-02	2.75822159e-04
2.32000000e-01	1.77460706e-02	2.77687165e-04
2.32500000e-01	1.77375742e-02	2.75725045e-04
2.33000000e-01	1.79971445e-02	2.77723149e-04
2.33500000e-01	1.75818334e-02	2.72284558e-04
2.34000000e-01	1.77090902e-02	2.73861707e-04
2.34500000e-01	1.79646305e-02	2.75477543e-04
2.35000000e-01	1.78641169e-02	2.74427371e-04
2.35500000e-01	1.78579460e-02	2.73301810e-04
2.36000000e-01	1.77370811e-02	2.73524225e-04
2.36500000e-01	1.78615621e-02	2.73379531e-04
2.37000000e-01	1.78784044e-02	2.73069425e-04
2.37500000e-01	1.77291786e-02	2.69660725e-04
2.38000000e-01	1.76350851e-02	2.67569731e-04
2.38500000e-01	1.76645642e-02	2.68977579e-04
2.39000000e-01	1.77612147e-02	2.68777993e-04
2.39500000e-01	1.75626735e-02	2.65788641e-04
2.40000000e-01	1.78872809e-02	2.70277955e-04
2.40500000e-01	1.78333100e-02	2.68978696e-04
2.41000000e-01	1.78253192e-02	2.67692090e-04
2.41500000e-01	1.76987290e-02	2.65895827e-04
2.42000000e-01	1.78796480e-02	2.69330187e-04
2.42500000e-01	1.78666152e-02	2.67721545e-04
2.43000000e-01	1.77828671e-02	2.66436723e-04
2.43500000e-01	1.78158531e-02	2.65932128e-04
2.44000000e-01	1.77870622e-02	2.65054845e-04
2.44500000e-01	1.73560645e-02	2.58002549e-04
2.45000000e-01	1.77753405e-02	2.62948290e-04
2.45500000e-01	1.76451430e-02	2.62546051e-04
2.46000000e-01	1.74710042e-02	2.59960703e-04
2.46500000e-01	1.77739129e-02	2.62362879e-04
2.47000000e-01	1.76567568e-02	2.61663887e-04
2.47500000e-01	1.74709568e-02	2.58319090e-04
2.48000000e-01	1.74887635e-02	2.59542642e-04
2.48500000e-01	1.75554873e-02	2.58857983e-04
2.49000000e-01	1.76277205e-02	2.59946005e-04
2.49500000e-01	1.75379488e-02	2.59378085e-04
2.50000000e-01	1.75145735e-02	2.57624874e-04
2.50500000e-01	1.76675780e-02	2.60187802e-04
2.51000000e-01	1.74696927e-02	2.56684990e-04
2.51500000e-01	1.73752936e-02	2.56133719e-04
2.52000000e-01	1.71785802e-02	2.52390933e-04
2.52500000e-01	1.76100001e-02	2.57397296e-04
2.53000000e-01	1.74617174e-02	2.55336183e-04
2.53500000e-01	1.73805285e-02	2.53624158e-04
2.54000000e-01	1.76249449e-02	2.57074044e-04
2.54500000e-01	1.73510136e-02	2.53732655e-04
2.55000000e-01	1.74374116e-02	2.54230522e-04
2.55500000e-01	1.74113625e-02	2.54211389e-04
2.56000000e-01	1.73933523e-02	2.52471192e-04
2.56500000e-01	1.75560241e-02	2.55092190e-04
2.57000000e-01	1.74052358e-02	2.52172514e-04
2.57500000e-01	1.74284909e-02	2.51831557e-04
2.58000000e-01	1.70109326e-02	2.46849891e-04
2.58500000e-01	1.72924358e-02	2.49591425e-04
2.59000000e-01	1.74741393e-02	2.51966127e-04
2.59500000e-01	1.74318309e-02	2.51181111e-04
2.60000000e-01	1.74065105e-02	2.50471781e-04
2.60500000e-01	1.73730825e-02	2.50145392e-04
2.61000000e-01	1.74849627e-02	2.51790750e-04
2.61500000e-01	1.73959167e-02	2.49667606e-04
2.62000000e-01	1.72864136e-02	2.48227417e-04
2.62500000e-01	1.74903622e-02	2.50701183e-04
2.63000000e-01	1.72075070e-02	2.46377860e-04
2.63500000e-01	1.72746101e-02	2.45797317e-04
2.64000000e-01	1.75342862e-02	2.50685670e-04
2.64500000e-01	1.72275553e-02	2.45507880e-04
2.65000000e-01	1.72395896e-02	2.46062915e-04
2.65500000e-01	1.73363669e-02	2.46280856e-04
2.66000000e-01	1.73783875e-02	2.47202012e-04
2.66500000e-01	1.72462452e-02	2.44456072e-04
2.67000000e-01	1.72703816e-02	2.45908761e-04
2.67500000e-01	1.72927322e-02	2.44679487e-04
2.68000000e-01	1.72761780e-02	2.44087379e-04
2.68500000e-01	1.73166567e-02	2.44273156e-04
2.69000000e-01	1.71808938e-02	2.42773134e-04
2.69500000e-01	1.69461000e-02	2.39571616e-04
2.70000000e-01	1.73037297e-02	2.44030249e-04
2.70500000e-01	1.71622457e-02	2.40506545e-04
2.71000000e-01	1.72731119e-02	2.42972262e-04
2.71500000e-01	1.71143905e-02	2.41389126e-04
2.72000000e-01	1.71837924e-02	2.40518096e-04
2.72500000e-01	1.72807391e-02	2.42270974e-04
2.73000000e-01	1.72789373e-02	2.41930655e-04
2.73500000e-01	1.70506813e-02	2.38925601e-04
2.74000000e-01	1.72268200e-02	2.40914445e-04
2.74500000e-01	1.72509824e-02	2.40392557e-04
2.75000000e-01	1.72217448e-02	2.41433269e-04
2.75500000e-01	1.71342802e-02	2.39714486e-04
2.76000000e-01	1.71783100e-02	2.39344847e-04
2.76500000e-01	1.72479647e-02	2.41034575e-04
2.77000000e-01	1.69533866e-02	2.35995798e-04
2.77500000e-01	1.72227205e-02	2.39375884e-04
2.78000000e-01	1.70331327e-02	2.36519834e-04
2.78500000e-01	1.70851625e-02	2.37286645e-04
2.79000000e-01	1.71349165e-02	2.37521439e-04
2.79500000e-01	1.71817431e-02	2.38215058e-04
2.80000000e-01	1.69623430e-02	2.35205576e-04
2.80500000e-01	1.71791774e-02	2.37726814e-04
2.81000000e-01	1.71684604e-02	2.36302932e-04
2.81500000e-01	1.70286247e-02	2.34752088e-04
2.82000000e-01	1.70106484e-02	2.35340184e-04
2.82500000e-01	1.71417617e-02	2.36415948e-04
2.83000000e-01	1.71486017e-02	2.35477720e-04
2.83500000e-01	1.70758909e-02	2.35027045e-04
2.84000000e-01	1.69538725e-02	2.33606591e-04
2.84500000e-01	1.69515146e-02	2.32871417e-04
2.85000000e-01	1.68177809e-02	2.31645007e-04
2.85500000e-01	1.71064288e-02	2.33962448e-04
2.86000000e-01	1.68749315e-02	2.31468124e-04
2.86500000e-01	1.70152945e-02	2.31813399e-04
2.87000000e-01	1.69903617e-02	2.32649229e-04
2.87500000e-01	1.70237553e-02	2.31217583e-04
2.88000000e-01	1.67796046e-02	2.28728298e-04
2.88500000e-01	1.69131011e-02	2.30936161e-04
2.89000000e-01	1.67396250e-02	2.27947483e-04
2.89500000e-01	1.69806461e-02	2.30694448e-04
2.90000000e-01	1.68905991e-02	2.29859381e-04
2.90500000e-01	1.67130949e-02	2.28260366e-04
2.91000000e-01	1.69058511e-02	2.29099692e-04
2.91500000e-01	1.71043857e-02	2.31291851e-04
2.92000000e-01	1.69379020e-02	2.29908039e-04
2.92500000e-01	1.69139648e-02	2.28183351e-04
2.93000000e-01	1.66972754e-02	2.25183723e-04
2.93500000e-01	1.66826383e-02	2.26234494e-04
2.94000000e-01	1.69290385e-02	2.27236495e-04
2.94500000e-01	1.68547265e-02	2.27152842e-04
2.95000000e-01	1.69183661e-02	2.27131965e-04
2.95500000e-01	1.71366862e-02	2.29736800e-04
2.96000000e-01	1.68622499e-02	2.26956669e-04
2.96500000e-01	1.66967418e-02	2.24527283e-04
2.97000000e-01	1.69579255e-02	2.28156183e-04
2.97500000e-01	1.68591105e-02	2.25455859e-04
2.98000000e-01	1.67121882e-02	2.24840873e-04
2.98500000e-01	1.68161020e-02	2.24965351e-04
2.99000000e-01	1.67144747e-02	2.23351986e-04
2.99500000e-01	1.68270858e-02	2.25102515e-04
3.00000000e-01	1.67832425e-02	2.24960051e-04
3.00500000e-01	1.67269777e-02	2.23045908e-04
3.01000000e-01	1.67422772e-02	2.23431721e-04
3.01500000e-01	1.70125998e-02	2.26269971e-04
3.02000000e-01	1.67167732e-02	2.22298545e-04
3.02500000e-01	1.68201333e-02	2.23339599e-04
3.03000000e-01	1.66542516e-02	2.21813902e-04
3.03500000e-01	1.68212523e-02	2.22863095e-04
3.04000000e-01	1.68678960e-02	2.24254888e-04
3.04500000e-01	1.67528064e-02	2.21889758e-04
3.05000000e-01	1.67829328e-02	2.21845380e-04
3.05500000e-01	1.68505553e-02	2.23398736e-04
3.06000000e-01	1.67266667e-02	2.20744473e-04
3.06500000e-01	1.66879231e-02	2.21265238e-04
3.07000000e-01	1.67142155e-02	2.20465907e-04
3.07500000e-01	1.66167627e-02	2.18961093e-04
3.08000000e-01	1.65896479e-02	2.18595115e-04
3.08500000e-01	1.68072509e-02	2.21472753e-04
3.09000000e-01	1.65542301e-02	2.17991531e-04
3.09500000e-01	1.64241851e-02	2.16866465e-04
3.10000000e-01	1.65225776e-02	2.17295280e-04
3.10500000e-01	1.65848222e-02	2.17751913e-04
3.11000000e-01	1.66601299e-02	2.18602246e-04
3.11500000e-01	1.66728268e-02	2.18529515e-04
3.12000000e-01	1.65988732e-02	2.17301545e-04
3.12500000e-01	1.65038654e-02	2.16672470e-04
3.13000000e-01	1.64123479e-02	2.14081831e-04
3.13500000e-01	1.64446793e-02	2.14837891e-04
3.14000000e-01	1.63194481e-02	2.13567529e-04
3.14500000e-01	1.67049963e-02	2.18153037e-04
3.15000000e-01	1.66634569e-02	2.17463968e-04
3.15500000e-01	1.65785408e-02	2.15735902e-04
3.16000000e-01	1.64877434e-02	2.15458358e-04
3.16500000e-01	1.64237151e-02	2.14752666e-04
3.17000000e-01	1.64619552e-02	2.14222593e-04
3.17500000e-01	1.65657478e-02	2.15079773e-04
3.18000000e-01	1.65602264e-02	2.14956090e-04
3.18500000e-01	1.66360569e-02	2.15998317e-04
3.19000000e-01	1.65136754e-02	2.13752932e-04
3.19500000e-01	1.65794823e-02	2.14603525e-04
3.20000000e-01	1.64622073e-02	2.13058912e-04
3.20500000e-01	1.64714931e-02	2.12509279e-04
3.21000000e-01	1.64845361e-02	2.13271963e-04
3.21500000e-01	1.63552313e-02	2.11049352e-04
3.22000000e-01	1.60513656e-02	2.07875637e-04
3.22500000e-01	1.64271666e-02	2.11571594e-04
3.23000000e-01	1.63379522e-02	2.10382908e-04
3.23500000e-01	1.63503458e-02	2.11464226e-04
3.24000000e-01	1.64195416e-02	2.11128726e-04
3.24500000e-01	1.63225037e-02	2.10861073e-04
3.25000000e-01	1.64493906e-02	2.10772152e-04
3.25500000e-01	1.63716066e-02	2.10677078e-04
3.26000000e-01	1.61693248e-02	2.08084064e-04
3.26500000e-01	1.64427876e-02	2.09765883e-04
3.27000000e-01	1.63330001e-02	2.09494442e-04
3.27500000e-01	1.61077904e-02	2.06996495e-04
3.28000000e-01	1.62348281e-02	2.07741595e-04
3.28500000e-01	1.63419405e-02	2.08506963e-04
3.29000000e-01	1.62064573e-02	2.07294893e-04
3.29500000e-01	1.62530976e-02	2.07503574e-04
3.30000000e-01	1.62010234e-02	2.06502688e-04
3.30500000e-01	1.62166049e-02	2.06838095e-04
3.31000000e-01	1.62455564e-02	2.06588354e-04
3.31500000e-01	1.63437387e-02	2.08116887e-04
3.32000000e-01	1.62936040e-02	2.08097145e-04
3.32500000e-01	1.59995432e-02	2.03641244e-04
3.33000000e-01	1.61956980e-02	2.05432294e-04
3.33500000e-01	1.63803657e-02	2.07986425e-04
3.34000000e-01	1.62328996e-02	2.05655281e-04
3.34500000e-01	1.61616212e-02	2.05147708e-04
3.35000000e-01	1.61645424e-02	2.04133579e-04
3.35500000e-01	1.63229502e-02	2.06609075e-04
3.36000000e-01	1.61365566e-02	2.04676025e-04
3.36500000e-01	1.60149912e-02	2.02382123e-04
3.37000000e-01	1.60891009e-02	2.02759655e-04
3.37500000e-01	1.61540359e-02	2.04120052e-04
3.38000000e-01	1.61433752e-02	2.03265977e-04
3.38500000e-01	1.58774922e-02	2.00351582e-04
3.39000000e-01	1.60339625e-02	2.03079215e-04
3.39500000e-01	1.61229785e-02	2.02525470e-04
3.40000000e-01	1.62577093e-02	2.04730332e-04
3.40500000e-01	1.60744718e-02	2.02200026e-04
3.41000000e-01	1.58747791e-02	1.99680101e-04
3.41500000e-01	1.59480023e-02	2.01340523e-04
3.42000000e-01	1.60289400e-02	2.01022618e-04
3.42500000e-01	1.60322035e-02	2.01116646e-04
3.43000000e-01	1.60628792e-02	2.01228816e-04
3.43500000e-01	1.59899220e-02	2.00289614e-04
3.44000000e-01	1.60706947e-02	2.01409292e-04
3.44500000e-01	1.59214913e-02	1.99641542e-04
3.45000000e-01	1.61077363e-02	2.01555136e-04
3.45500000e-01	1.60504516e-02	1.99719801e-04
3.46000000e-01	1.60590277e-02	2.00876447e-04
3.46500000e-01	1.59354360e-02	1.99091839e-04
3.47000000e-01	1.59181421e-02	1.97303639e-04
3.47500000e-01	1.61575697e-02	2.00737820e-04
3.48000000e-01	1.59285652e-02	1.98323610e-04
3.48500000e-01	1.58499387e-02	1.97883621e-04
3.49000000e-01	1.59380874e-02	1.97860609e-04
3.49500000e-01	1.59360680e-02	1.98458244e-04
3.50000000e-01	1.58886034e-02	1.60640406e-04
3.51000000e-01	1.59057738e-02	1.39770005e-04
3.52000000e-01	1.58741181e-02	1.38955568e-04
3.53000000e-01	1.58165732e-02	1.37834833e-04
3.54000000e-01	1.59011370e-02	1.38900005e-04
3.55000000e-01	1.57866655e-02	1.37756821e-04
3.56000000e-01	1.58268104e-02	1.38540322e-04
3.57000000e-01	1.57858247e-02	1.40638832e-04
3.58000000e-01	1.56934070e-02	1.41079910e-04
3.59000000e-01	1.57175405e-02	1.42442869e-04
3.60000000e-01	1.57457451e-02	1.43387370e-04
3.61000000e-01	1.57902789e-02	1.44874306e-04
3.62000000e-01	1.56350463e-02	1.43792359e-04
3.63000000e-01	1.55911978e-02	1.43872719e-04
3.64000000e-01	1.54766299e-02	1.43455426e-04
3.65000000e-01	1.56471019e-02	1.45294392e-04
3.66000000e-01	1.56400555e-02	1.43181157e-04
3.67000000e-01	1.56568535e-02	1.41617277e-04
3.68000000e-01	1.53486592e-02	1.38201080e-04
3.69000000e-01	1.55438418e-02	1.39379459e-04
3.70000000e-01	1.55692289e-02	1.38690283e-04
3.71000000e-01	1.56230865e-02	1.40825928e-04
3.72000000e-01	1.56757090e-02	1.42214061e-04
3.73000000e-01	1.56384437e-02	1.42313156e-04
3.74000000e-01	1.55483822e-02	1.41182008e-04
3.75000000e-01	1.55773845e-02	1.41567938e-04
3.76000000e-01	1.54936553e-02	1.41337238e-04
3.77000000e-01	1.54194935e-02	1.40612490e-04
3.78000000e-01	1.55357337e-02	1.41525376e-04
3.79000000e-01	1.54966936e-02	1.41393082e-04
3.80000000e-01	1.54766301e-02	1.40551896e-04
3.81000000e-01	1.54978134e-02	1.40531825e-04
3.82000000e-01	1.55185234e-02	1.40896688e-04
3.83000000e-01	1.54603150e-02	1.40520136e-04
3.84000000e-01	1.54000244e-02	1.39918203e-04
3.85000000e-01	1.53835254e-02	1.40160405e-04
3.86000000e-01	1.55346334e-02	1.40717190e-04
3.87000000e-01	1.55609227e-02	1.41189217e-04
3.88000000e-01	1.52997620e-02	1.38678001e-04
3.89000000e-01	1.53287479e-02	1.39402384e-04
3.90000000e-01	1.53771407e-02	1.39753327e-04
3.91000000e-01	1.51681158e-02	1.38231481e-04
3.92000000e-01	1.54359392e-02	1.39666642e-04
3.93000000e-01	1.52066153e-02	1.38151283e-04
3.94000000e-01	1.51087423e-02	1.37132082e-04
3.95000000e-01	1.53919760e-02	1.39271557e-04
3.96000000e-01	1.51934847e-02	1.37650508e-04
3.97000000e-01	1.52145993e-02	1.37951585e-04
3.98000000e-01	1.52582280e-02	1.38170475e-04
3.99000000e-01	1.51704534e-02	1.37864932e-04
4.00000000e-01	1.51441111e-02	1.37190384e-04
4.01000000e-01	1.52040331e-02	1.37896986e-04
4.02000000e-01	1.51814465e-02	1.37653027e-04
4.03000000e-01	1.51702736e-02	1.37444745e-04
4.04000000e-01	1.50221062e-02	1.35879826e-04
4.05000000e-01	1.51515142e-02	1.37231695e-04
4.06000000e-01	1.51162493e-02	1.37076048e-04
4.07000000e-01	1.50438678e-02	1.36678998e-04
4.08000000e-01	1.50202203e-02	1.35817794e-04
4.09000000e-01	1.49899507e-02	1.35292750e-04
4.10000000e-01	1.50378543e-02	1.36328627e-04
4.11000000e-01	1.49697629e-02	1.35938916e-04
4.12000000e-01	1.49186592e-02	1.35410551e-04
4.13000000e-01	1.51408214e-02	1.36690193e-04
4.14000000e-01	1.50990524e-02	1.36652415e-04
4.15000000e-01	1.49580199e-02	1.34981347e-04
4.16000000e-01	1.50283506e-02	1.35897103e-04
4.17000000e-01	1.51356081e-02	1.36214314e-04
4.18000000e-01	1.50464036e-02	1.36960567e-04
4.19000000e-01	1.49778309e-02	1.38282077e-04
4.20000000e-01	1.51110505e-02	1.40345683e-04
4.21000000e-01	1.49547658e-02	1.39459560e-04
4.22000000e-01	1.48905882e-02	1.39317051e-04
4.23000000e-01	1.49302260e-02	1.40123473e-04
4.24000000e-01	1.49627691e-02	1.40846423e-04
4.25000000e-01	1.50656720e-02	1.41580365e-04
4.26000000e-01	1.50520544e-02	1.41870360e-04
4.27000000e-01	1.49337760e-02	1.40501006e-04
4.28000000e-01	1.50079525e-02	1.41941289e-04
4.29000000e-01	1.49143917e-02	1.40994469e-04
4.30000000e-01	1.49423391e-02	1.41167230e-04
4.31000000e-01	1.50560858e-02	1.41962574e-04
4.32000000e-01	1.49749987e-02	1.41669055e-04
4.33000000e-01	1.50480402e-02	1.42093313e-04
4.34000000e-01	1.50270884e-02	1.42441899e-04
4.35000000e-01	1.49151153e-02	1.41143694e-04
4.36000000e-01	1.48885913e-02	1.41399006e-04
4.37000000e-01	1.47413456e-02	1.40612230e-04
4.38000000e-01	1.49055048e-02	1.42034811e-04
4.39000000e-01	1.47637235e-02	1.41186390e-04
4.40000000e-01	1.47821567e-02	1.41327099e-04
4.41000000e-01	1.48431417e-02	1.42140234e-04
4.42000000e-01	1.48363007e-02	1.41916109e-04
4.43000000e-01	1.48642687e-02	1.42718588e-04
4.44000000e-01	1.48795311e-02	1.42526991e-04
4.45000000e-01	1.48160402e-02	1.42239354e-04
4.46000000e-01	1.46982973e-02	1.41121358e-04
4.47000000e-01	1.48937963e-02	1.42688039e-04
4.48000000e-01	1.46990807e-02	1.41603030e-04
4.49000000e-01	1.48133939e-02	1.42551198e-04
4.50000000e-01	1.48034210e-02	1.42599578e-04
4.51000000e-01	1.47689651e-02	1.42722659e-04
4.52000000e-01	1.47529222e-02	1.42938728e-04
4.53000000e-01	1.46339995e-02	1.41726138e-04
4.54000000e-01	1.44767760e-02	1.40734325e-04
4.55000000e-01	1.46490588e-02	1.42313731e-04
4.56000000e-01	1.45973454e-02	1.42136454e-04
4.57000000e-01	1.46461794e-02	1.42559578e-04
4.58000000e-01	1.47182414e-02	1.43092333e-04
4.59000000e-01	1.47461926e-02	1.43414631e-04
4.60000000e-01	1.46733492e-02	1.43149504e-04
4.61000000e-01	1.45892271e-02	1.42506154e-04
4.62000000e-01	1.46398996e-02	1.42684216e-04
4.63000000e-01	1.45660165e-02	1.42261846e-04
4.64000000e-01	1.47009408e-02	1.43358526e-04
4.65000000e-01	1.45504053e-02	1.41837843e-04
4.66000000e-01	1.45623098e-02	1.42263036e-04
4.67000000e-01	1.46081287e-02	1.42616021e-04
4.68000000e-01	1.45467675e-02	1.42400780e-04
4.69000000e-01	1.45914663e-02	1.43656674e-04
4.70000000e-01	1.45518371e-02	1.42752964e-04
4.71000000e-01	1.45790469e-02	1.42533008e-04
4.72000000e-01	1.44679634e-02	1.42003399e-04
4.73000000e-01	1.45673241e-02	1.43139665e-04
4.74000000e-01	1.46262477e-02	1.42864839e-04
4.75000000e-01	1.44803462e-02	1.41770932e-04
4.76000000e-01	1.45387749e-02	1.42460123e-04
4.77000000e-01	1.43818308e-02	1.40946560e-04
4.78000000e-01	1.46007286e-02	1.43309331e-04
4.79000000e-01	1.44605555e-02	1.42189567e-04
4.80000000e-01	1.44881774e-02	1.42711103e-04
4.81000000e-01	1.44305337e-02	1.42242159e-04
4.82000000e-01	1.44940607e-02	1.42757949e-04
4.83000000e-01	1.42535098e-02	1.40764895e-04
4.84000000e-01	1.44702527e-02	1.42316418e-04
4.85000000e-01	1.43479942e-02	1.41259854e-04
4.86000000e-01	1.44654798e-02	1.42306376e-04
4.87000000e-01	1.45013659e-02	1.42652471e-04
4.88000000e-01	1.42812432e-02	1.41217969e-04
4.89000000e-01	1.42007925e-02	1.40506782e-04
4.90000000e-01	1.44305813e-02	1.42583428e-04
4.91000000e-01	1.42376504e-02	1.40968611e-04
4.92000000e-01	1.43991243e-02	1.42866493e-04
4.93000000e-01	1.43244310e-02	1.41823421e-04
4.94000000e-01	1.43886697e-02	1.42209959e-04
4.95000000e-01	1.43867530e-02	1.43715399e-04
4.96000000e-01	1.43416379e-02	1.47005830e-04
4.97000000e-01	1.42733347e-02	1.49313972e-04
4.98000000e-01	1.43782529e-02	1.52083771e-04
4.99000000e-01	1.42697810e-02	1.53314419e-04
5.00000000e-01	1.43445961e-02	1.55385977e-04
5.01000000e-01	1.43046436e-02	1.56299294e-04
5.02000000e-01	1.43324125e-02	1.58365464e-04
5.03000000e-01	1.43121247e-02	1.59849603e-04
5.04000000e-01	1.43938222e-02	1.61691875e-04
5.05000000e-01	1.44149345e-02	1.59368463e-04
5.06000000e-01	1.42906346e-02	1.54726973e-04
5.07000000e-01	1.43784255e-02	1.54234800e-04
5.08000000e-01	1.43357507e-02	1.52904338e-04
5.09000000e-01	1.42430250e-02	1.50735643e-04
5.10000000e-01	1.41106536e-02	1.49653126e-04
5.11000000e-01	1.42585470e-02	1.49705098e-04
5.12000000e-01	1.42295611e-02	1.49787391e-04
5.13000000e-01	1.42754123e-02	1.49962947e-04
5.14000000e-01	1.41517112e-02	1.48934749e-04
5.15000000e-01	1.42655133e-02	1.49470080e-04
5.16000000e-01	1.41762448e-02	1.47931257e-04
5.17000000e-01	1.41967712e-02	1.47456739e-04
5.18000000e-01	1.42786167e-02	1.48359860e-04
5.19000000e-01	1.40689204e-02	1.45987014e-04
5.20000000e-01	1.41983748e-02	1.46809513e-04
5.21000000e-01	1.41705142e-02	1.46481379e-04
5.22000000e-01	1.41363015e-02	1.46234884e-04
5.23000000e-01	1.41276502e-02	1.45741749e-04
5.24000000e-01	1.41110692e-02	1.45797597e-04
5.25000000e-01	1.42406511e-02	1.47029223e-04
5.26000000e-01	1.40661966e-02	1.44920459e-04
5.27000000e-01	1.39693459e-02	1.44227707e-04
5.28000000e-01	1.40628861e-02	1.45005582e-04
5.29000000e-01	1.40271298e-02	1.45406254e-04
5.30000000e-01	1.40732387e-02	1.45407271e-04
5.31000000e-01	1.39575980e-02	1.44639687e-04
5.32000000e-01	1.39238940e-02	1.44203211e-04
5.33000000e-01	1.38424325e-02	1.43580146e-04
5.34000000e-01	1.39823958e-02	1.44566075e-04
5.35000000e-01	1.40118220e-02	1.44740036e-04
5.36000000e-01	1.39425165e-02	1.43677027e-04
5.37000000e-01	1.40100795e-02	1.44844210e-04
5.38000000e-01	1.38379244e-02	1.42861628e-04
5.39000000e-01	1.38948505e-02	1.43870585e-04
5.40000000e-01	1.38819667e-02	1.43871504e-04
5.41000000e-01	1.40342950e-02	1.44901378e-04
5.42000000e-01	1.39318433e-02	1.44288385e-04
5.43000000e-01	1.38164858e-02	1.42938101e-04
5.44000000e-01	1.38943703e-02	1.43972282e-04
5.45000000e-01	1.39185661e-02	1.43759376e-04
5.46000000e-01	1.37877830e-02	1.42404776e-04
5.47000000e-01	1.39025223e-02	1.43589054e-04
5.48000000e-01	1.40087550e-02	1.44518234e-04
5.49000000e-01	1.37465638e-02	1.41810501e-04
5.50000000e-01	1.37497190e-02	1.42371704e-04
5.51000000e-01	1.37428356e-02	1.41364267e-04
5.52000000e-01	1.37593600e-02	1.41649762e-04
5.53000000e-01	1.36606729e-02	1.40785764e-04
5.54000000e-01	1.37229769e-02	1.41226871e-04
5.55000000e-01	1.38043515e-02	1.41626342e-04
5.56000000e-01	1.38257175e-02	1.41936399e-04
5.57000000e-01	1.37098104e-02	1.40471181e-04
5.58000000e-01	1.37865913e-02	1.41652279e-04
5.59000000e-01	1.37155169e-02	1.40733874e-04
5.60000000e-01	1.37541041e-02	1.41529191e-04
5.61000000e-01	1.37459201e-02	1.41493495e-04
5.62000000e-01	1.37211094e-02	1.40888942e-04
5.63000000e-01	1.36611925e-02	1.40181594e-04
5.64000000e-01	1.36615826e-02	1.40499615e-04
5.65000000e-01	1.36386352e-02	1.40046315e-04
5.66000000e-01	1.36730957e-02	1.40194277e-04
5.67000000e-01	1.35755648e-02	1.39881562e-04
5.68000000e-01	1.36134272e-02	1.39685683e-04
5.69000000e-01	1.36540230e-02	1.40046701e-04
5.70000000e-01	1.35605161e-02	1.39420519e-04
5.71000000e-01	1.36415159e-02	1.40037088e-04
5.72000000e-01	1.36853038e-02	1.40718568e-04
5.73000000e-01	1.36278242e-02	1.40378304e-04
5.74000000e-01	1.37230779e-02	1.41020599e-04
5.75000000e-01	1.34360138e-02	1.38680723e-04
5.76000000e-01	1.34662659e-02	1.38097336e-04
5.77000000e-01	1.33893631e-02	1.37812481e-04
5.78000000e-01	1.34648937e-02	1.39007833e-04
5.79000000e-01	1.33610058e-02	1.38157255e-04
5.80000000e-01	1.33866720e-02	1.38333732e-04
5.81000000e-01	1.34315501e-02	1.38354181e-04
5.82000000e-01	1.34672541e-02	1.38648673e-04
5.83000000e-01	1.33841036e-02	1.38488916e-04
5.84000000e-01	1.34044382e-02	1.38427450e-04
5.85000000e-01	1.34074842e-02	1.38364013e-04
5.86000000e-01	1.34644150e-02	1.39039409e-04
5.87000000e-01	1.34603132e-02	1.38946462e-04
5.88000000e-01	1.32602479e-02	1.36950530e-04
5.89000000e-01	1.33733311e-02	1.37798331e-04
5.90000000e-01	1.33924342e-02	1.38445158e-04
5.91000000e-01	1.32973031e-02	1.37276440e-04
5.92000000e-01	1.34688991e-02	1.39269871e-04
5.93000000e-01	1.33515458e-02	1.38694917e-04
5.94000000e-01	1.33812078e-02	1.38087669e-04
5.95000000e-01	1.34228203e-02	1.38865371e-04
5.96000000e-01	1.34660647e-02	1.39247557e-04
5.97000000e-01	1.33800078e-02	1.38222446e-04
5.98000000e-01	1.32602880e-02	1.37257996e-04
5.99000000e-01	1.32251943e-02	1.36548633e-04
6.00000000e-01	1.32004834e-02	1.36260238e-04
6.01000000e-01	1.32186649e-02	1.36990925e-04
6.02000000e-01	1.32599038e-02	1.37504453e-04
6.03000000e-01	1.33428933e-02	1.38423852e-04
6.04000000e-01	1.31112930e-02	1.36048191e-04
6.05000000e-01	1.32331418e-02	1.37398666e-04
6.06000000e-01	1.31504970e-02	1.36890204e-04
6.07000000e-01	1.31893247e-02	1.37215286e-04
6.08000000e-01	1.32384058e-02	1.37657293e-04
6.09000000e-01	1.32026333e-02	1.37054075e-04
6.10000000e-01	1.33406512e-02	1.38129117e-04
6.11000000e-01	1.31792933e-02	1.36767070e-04
6.12000000e-01	1.31132941e-02	1.36344687e-04
6.13000000e-01	1.32940832e-02	1.38380514e-04
6.14000000e-01	1.31516519e-02	1.36181682e-04
6.15000000e-01	1.32683953e-02	1.37559235e-04
6.16000000e-01	1.32639355e-02	1.38143878e-04
6.17000000e-01	1.32532103e-02	1.37534672e-04
6.18000000e-01	1.32235657e-02	1.37177963e-04
6.19000000e-01	1.31963262e-02	1.36754007e-04
6.20000000e-01	1.31427014e-02	1.36345267e-04
6.21000000e-01	1.29387824e-02	1.34307929e-04
6.22000000e-01	1.31516848e-02	1.36208650e-04
6.23000000e-01	1.31265574e-02	1.35743520e-04
6.24000000e-01	1.29975351e-02	1.33877343e-04
6.25000000e-01	1.31049534e-02	1.34839609e-04
6.26000000e-01	1.30491080e-02	1.34507479e-04
6.27000000e-01	1.30523631e-02	1.34823108e-04
6.28000000e-01	1.30913804e-02	1.34912485e-04
6.29000000e-01	1.31142603e-02	1.35479613e-04
6.30000000e-01	1.30318361e-02	1.34377430e-04
6.31000000e-01	1.29948918e-02	1.34170126e-04
6.32000000e-01	1.30849835e-02	1.34485436e-04
6.33000000e-01	1.31140135e-02	1.35237636e-04
6.34000000e-01	1.29492628e-02	1.37177820e-04
6.35000000e-01	1.30925811e-02	1.42250766e-04
6.36000000e-01	1.30930772e-02	1.45685976e-04
6.37000000e-01	1.30381300e-02	1.46684874e-04
6.38000000e-01	1.29291408e-02	1.47451723e-04
6.39000000e-01	1.28744546e-02	1.48732055e-04
6.40000000e-01	1.31891338e-02	1.53717067e-04
6.41000000e-01	1.29272585e-02	1.53536349e-04
6.42000000e-01	1.30263707e-02	1.55950024e-04
6.43000000e-01	1.29955258e-02	1.55284311e-04
6.44000000e-01	1.31453578e-02	1.51318811e-04
6.45000000e-01	1.32776628e-02	1.50469784e-04
6.46000000e-01	1.32126094e-02	1.47443982e-04
6.47000000e-01	1.30695899e-02	1.45025367e-04
6.48000000e-01	1.30471938e-02	1.44994921e-04
6.49000000e-01	1.30313693e-02	1.43586166e-04
6.50000000e-01	1.32270659e-02	1.44480850e-04
6.51000000e-01	1.30750370e-02	1.43307357e-04
6.52000000e-01	1.29218305e-02	1.41197537e-04
6.53000000e-01	1.29545511e-02	1.40669977e-04
6.54000000e-01	1.30732408e-02	1.41109272e-04
6.55000000e-01	1.29151059e-02	1.39797969e-04
6.56000000e-01	1.29899141e-02	1.40377859e-04
6.57000000e-01	1.30152916e-02	1.40129340e-04
6.58000000e-01	1.30828464e-02	1.40472005e-04
6.59000000e-01	1.28424273e-02	1.38693272e-04
6.60000000e-01	1.29189751e-02	1.38834732e-04
6.61000000e-01	1.31120542e-02	1.40914883e-04
6.62000000e-01	1.29944163e-02	1.39831054e-04
6.63000000e-01	1.30307235e-02	1.39749561e-04
6.64000000e-01	1.29080137e-02	1.38703519e-04
6.65000000e-01	1.29505422e-02	1.38562134e-04
6.66000000e-01	1.29955036e-02	1.39227758e-04
6.67000000e-01	1.27948240e-02	1.37368893e-04
6.68000000e-01	1.27984108e-02	1.36646720e-04
6.69000000e-01	1.28460029e-02	1.37813138e-04
6.70000000e-01	1.30384402e-02	1.38951994e-04
6.71000000e-01	1.29397409e-02	1.38350242e-04
6.72000000e-01	1.29346087e-02	1.38557600e-04
6.73000000e-01	1.28778888e-02	1.37539018e-04
6.74000000e-01	1.28617694e-02	1.37284156e-04
6.75000000e-01	1.28192410e-02	1.37306736e-04
6.76000000e-01	1.28371320e-02	1.37619272e-04
6.77000000e-01	1.28168726e-02	1.37016144e-04
6.78000000e-01	1.28447963e-02	1.37199676e-04
6.79000000e-01	1.28420504e-02	1.36984175e-04
6.80000000e-01	1.28329031e-02	1.36717542e-04
6.81000000e-01	1.29106103e-02	1.37747899e-04
6.82000000e-01	1.28280751e-02	1.36932168e-04
6.83000000e-01	1.27962938e-02	1.36657364e-04
6.84000000e-01	1.28865940e-02	1.37393951e-04
6.85000000e-01	1.27533149e-02	1.35861118e-04
6.86000000e-01	1.28076693e-02	1.36740738e-04
6.87000000e-01	1.26946162e-02	1.35409595e-04
6.88000000e-01	1.28234387e-02	1.36571114e-04
6.89000000e-01	1.25968828e-02	1.34845880e-04
6.90000000e-01	1.26036654e-02	1.34433561e-04
6.91000000e-01	1.27073006e-02	1.35327573e-04
6.92000000e-01	1.27029240e-02	1.35304816e-04
6.93000000e-01	1.27686068e-02	1.36386547e-04
6.94000000e-01	1.25704403e-02	1.34498534e-04
6.95000000e-01	1.27502862e-02	1.35672052e-04
6.96000000e-01	1.28104069e-02	1.36538793e-04
6.97000000e-01	1.26992795e-02	1.35245472e-04
6.98000000e-01	1.26018378e-02	1.34585635e-04
6.99000000e-01	1.26078557e-02	1.34654303e-04
7.00000000e-01	1.25703467e-02	1.34146791e-04
7.01000000e-01	1.26142253e-02	1.34361332e-04
7.02000000e-01	1.25827167e-02	1.33857010e-04
7.03000000e-01	1.26523529e-02	1.34909142e-04
7.04000000e-01	1.25840642e-02	1.34096735e-04
7.05000000e-01	1.24180031e-02	1.32803746e-04
7.06000000e-01	1.25545052e-02	1.34007927e-04
7.07000000e-01	1.25907716e-02	1.33812495e-04
7.08000000e-01	1.24915072e-02	1.32699368e-04
7.09000000e-01	1.24840017e-02	1.33124436e-04
7.10000000e-01	1.25071120e-02	1.33293426e-04
7.11000000e-01	1.26284514e-02	1.34344825e-04
7.12000000e-01	1.24317333e-02	1.32534099e-04
7.13000000e-01	1.27160236e-02	1.35278569e-04
7.14000000e-01	1.25129239e-02	1.33538164e-04
7.15000000e-01	1.23619514e-02	1.32059084e-04
7.16000000e-01	1.24372008e-02	1.32512828e-04
7.17000000e-01	1.23320120e-02	1.31415757e-04
7.18000000e-01	1.23730566e-02	1.31524380e-04
7.19000000e-01	1.24193512e-02	1.32453916e-04
7.20000000e-01	1.23448158e-02	1.31771621e-04
7.21000000e-01	1.25152641e-02	1.33174278e-04
7.22000000e-01	1.23310060e-02	1.31201907e-04
7.23000000e-01	1.22632689e-02	1.30957639e-04
7.24000000e-01	1.22956561e-02	1.31542179e-04
7.25000000e-01	1.23288674e-02	1.31568366e-04
7.26000000e-01	1.23834212e-02	1.32073860e-04
7.27000000e-01	1.23106314e-02	1.31476644e-04
7.28000000e-01	1.23176639e-02	1.31871382e-04
7.29000000e-01	1.23630266e-02	1.31504796e-04
7.30000000e-01	1.22322559e-02	1.30605084e-04
7.31000000e-01	1.22694137e-02	1.31205290e-04
7.32000000e-01	1.22538506e-02	1.30766526e-04
7.33000000e-01	1.23234826e-02	1.31543183e-04
7.34000000e-01	1.22674477e-02	1.30859496e-04
7.35000000e-01	1.23291022e-02	1.30946427e-04
7.36000000e-01	1.22337057e-02	1.29757475e-04
7.37000000e-01	1.23061485e-02	1.30598819e-04
7.38000000e-01	1.22363231e-02	1.29856625e-04
7.39000000e-01	1.22077661e-02	1.29452898e-04
7.40000000e-01	1.20980054e-02	1.28016601e-04
7.41000000e-01	1.22064993e-02	1.29003382e-04
7.42000000e-01	1.21946203e-02	1.28762495e-04
7.43000000e-01	1.22175712e-02	1.28981816e-04
7.44000000e-01	1.20902050e-02	1.28028936e-04
7.45000000e-01	1.21500122e-02	1.28582311e-04
7.46000000e-01	1.21897760e-02	1.28616008e-04
7.47000000e-01	1.21367953e-02	1.28063015e-04
7.48000000e-01	1.22170684e-02	1.29176494e-04
7.49000000e-01	1.21167731e-02	1.27699940e-04
7.50000000e-01	1.22776109e-02	1.29592205e-04
7.51000000e-01	1.20435761e-02	1.27134929e-04
7.52000000e-01	1.22881551e-02	1.29665730e-04
7.53000000e-01	1.21460125e-02	1.28355780e-04
7.54000000e-01	1.20325302e-02	1.27465718e-04
7.55000000e-01	1.19991554e-02	1.26991733e-04
7.56000000e-01	1.21042769e-02	1.28077688e-04
7.57000000e-01	1.20636049e-02	1.27585556e-04
7.58000000e-01	1.19916351e-02	1.27003619e-04
7.59000000e-01	1.20700957e-02	1.27574118e-04
7.60000000e-01	1.19601597e-02	1.26505562e-04
7.61000000e-01	1.20194783e-02	1.26602700e-04
7.62000000e-01	1.19230359e-02	1.25463488e-04
7.63000000e-01	1.19982837e-02	1.26095085e-04
7.64000000e-01	1.20523784e-02	1.26692439e-04
7.65000000e-01	1.18661888e-02	1.24600528e-04
7.66000000e-01	1.19156993e-02	1.25364901e-04
7.67000000e-01	1.19159270e-02	1.25665162e-04
7.68000000e-01	1.18579117e-02	1.24439304e-04
7.69000000e-01	1.17705563e-02	1.23646360e-04
7.70000000e-01	1.19291900e-02	1.25261075e-04
7.71000000e-01	1.17952107e-02	1.23844361e-04
7.72000000e-01	1.19530065e-02	1.29387294e-04
7.73000000e-01	1.18861937e-02	1.32781677e-04
7.74000000e-01	1.18838431e-02	1.35538645e-04
7.75000000e-01	1.18572632e-02	1.37474924e-04
7.76000000e-01	1.17830448e-02	1.38853125e-04
7.77000000e-01	1.18733634e-02	1.41653316e-04
7.78000000e-01	1.18708633e-02	1.43820922e-04
7.79000000e-01	1.18436035e-02	1.44961454e-04
7.80000000e-01	1.17967221e-02	1.46371634e-04
7.81000000e-01	1.17906204e-02	1.47660061e-04
7.82000000e-01	1.16119460e-02	1.46668588e-04
7.83000000e-01	1.18800682e-02	1.51764368e-04
7.84000000e-01	1.18557083e-02	1.53407100e-04
7.85000000e-01	1.17373554e-02	1.53843048e-04
7.86000000e-01	1.16951113e-02	1.54829757e-04
7.87000000e-01	1.15919538e-02	1.55321152e-04
7.88000000e-01	1.17203719e-02	1.57342370e-04
7.89000000e-01	1.16685679e-02	1.58883704e-04
7.90000000e-01	1.16339718e-02	1.59751693e-04
7.91000000e-01	1.16900079e-02	1.61568465e-04
7.92000000e-01	1.17275411e-02	1.63698079e-04
7.93000000e-01	1.15891146e-02	1.64542300e-04
7.94000000e-01	1.15789702e-02	1.67038417e-04
7.95000000e-01	1.15566320e-02	1.67559741e-04
7.96000000e-01	1.14486479e-02	1.67813065e-04
7.97000000e-01	1.17105149e-02	1.73572254e-04
7.98000000e-01	1.18013807e-02	1.76079872e-04
7.99000000e-01	1.14165765e-02	1.73365428e-04
8.00000000e-01	1.14823764e-02	1.74209778e-04
8.01000000e-01	1.13149238e-02	1.74809416e-04
8.02000000e-01	1.15000244e-02	1.78716586e-04
8.03000000e-01	1.14485680e-02	1.79367430e-04
8.04000000e-01	1.15381410e-02	1.83331206e-04
8.05000000e-01	1.16145097e-02	1.86499387e-04
8.06000000e-01	1.14697425e-02	1.86077387e-04
8.07000000e-01	1.16117016e-02	1.90135910e-04
8.08000000e-01	1.13356701e-02	1.88950538e-04
8.09000000e-01	1.13814865e-02	1.90109175e-04
8.10000000e-01	1.12708038e-02	1.91927050e-04
8.11000000e-01	1.13151696e-02	1.94350703e-04
8.12000000e-01	1.13451954e-02	1.97246171e-04
8.13000000e-01	1.12315939e-02	1.99026149e-04
8.14000000e-01	1.14337579e-02	2.01029524e-04
8.15000000e-01	1.13928480e-02	2.04885079e-04
8.16000000e-01	1.12609208e-02	2.04994595e-04
8.17000000e-01	1.14229379e-02	2.10054655e-04
8.18000000e-01	1.13287082e-02	2.11962206e-04
8.19000000e-01	1.13127173e-02	2.13060652e-04
8.20000000e-01	1.11412156e-02	2.13185464e-04
8.21000000e-01	1.11782490e-02	2.17020818e-04
8.22000000e-01	1.10813364e-02	2.17744867e-04
8.23000000e-01	1.11495612e-02	2.22300833e-04
8.24000000e-01	1.12369586e-02	2.27607570e-04
8.25000000e-01	1.10218634e-02	2.26844098e-04
8.26000000e-01	1.12750215e-02	2.34884658e-04
8.27000000e-01	1.10844506e-02	2.32439335e-04
8.28000000e-01	1.09715381e-02	2.35795523e-04
8.29000000e-01	1.09576759e-02	2.38219161e-04
8.30000000e-01	1.11328133e-02	2.45665141e-04
8.31000000e-01	1.12626657e-02	2.53010356e-04
8.32000000e-01	1.08577918e-02	2.48713457e-04
8.33000000e-01	1.08255539e-02	2.51652122e-04
8.34000000e-01	1.06198672e-02	2.52288377e-04
8.35000000e-01	1.10670294e-02	2.65346299e-04
8.36000000e-01	1.10127161e-02	2.70349902e-04
8.37000000e-01	1.10338155e-02	2.77674542e-04
8.38000000e-01	1.10502864e-02	2.80914753e-04
8.39000000e-01	1.11324660e-02	2.90186518e-04
8.40000000e-01	1.12291735e-02	2.98278278e-04
8.41000000e-01	1.07967866e-02	2.93529062e-04
8.42000000e-01	1.09254597e-02	3.05546509e-04
8.43000000e-01	1.06700893e-02	3.05447973e-04
8.44000000e-01	1.12335223e-02	3.24648089e-04
8.45000000e-01	1.09101472e-02	3.27821717e-04
8.46000000e-01	1.05463800e-02	3.22777829e-04
8.47000000e-01	1.07718589e-02	3.41356971e-04
8.48000000e-01	1.07496120e-02	3.50373636e-04
8.49000000e-01	1.07617183e-02	3.61749757e-04
8.50000000e-01	1.09601218e-02	3.79886479e-04
8.51000000e-01	1.07187704e-02	3.81930095e-04
8.52000000e-01	1.07849696e-02	4.11124791e-04
8.53000000e-01	1.12908833e-02	4.47442283e-04
8.54000000e-01	1.09831499e-02	4.49879491e-04
8.55000000e-01	1.09647307e-02	4.65641018e-04
8.56000000e-01	1.05587923e-02	4.59499583e-04
8.57000000e-01	1.07097479e-02	4.78805504e-04
8.58000000e-01	1.02778951e-02	4.78573666e-04
8.59000000e-01	1.06585767e-02	5.07564825e-04
8.60000000e-01	1.04589107e-02	5.13889636e-04
8.61000000e-01	1.03563697e-02	5.30407652e-04
8.62000000e-01	1.06667348e-02	5.65653449e-04
8.63000000e-01	1.08681982e-02	5.86726193e-04
8.64000000e-01	1.01902993e-02	5.96287912e-04
8.65000000e-01	9.79566954e-03	5.96657685e-04
8.66000000e-01	1.01769193e-02	6.56829021e-04
8.67000000e-01	1.05737679e-02	7.00914269e-04
8.68000000e-01	1.04035541e-02	7.40983727e-04
8.69000000e-01	1.04665362e-02	8.35894420e-04
8.70000000e-01	1.02140666e-02	8.31133292e-04
8.71000000e-01	1.13499946e-02	1.03252462e-03
8.72000000e-01	1.08812753e-02	1.10628387e-03
8.73000000e-01	1.14529919e-02	1.33865163e-03
8.74000000e-01	1.08353584e-02	1.70555957e-03
8.75000000e-01	1.49705710e-02	5.22112284e-03
