% Filename : SDL3_p7_00007_00011.h5
% Date & Time : 30-Oct-2025 14:34:09
% X-ray Energy (keV) : 13.30001
% Exposure Time (s) : 0.500
% Beam Center : 1461.24000, 208.98300
% Sample to Detector Distance (SDD) (mm) : 1990.750
% Detector Pixel Size (mm) : 0.075
% Photodiode Value : 122651.000
% I0 of Sample : 0
% I0 of Standard : 1
% 
% q(A^-1)   I(q)    I(q)_SE
0.00000000e+00	1.17841412e-02	7.51094213e-03
2.50000000e-04	0.00000000e+00	0.00000000e+00
5.00000000e-04	0.00000000e+00	0.00000000e+00
7.50000000e-04	0.00000000e+00	0.00000000e+00
1.00000000e-03	0.00000000e+00	0.00000000e+00
1.25000000e-03	0.00000000e+00	0.00000000e+00
1.50000000e-03	0.00000000e+00	0.00000000e+00
1.75000000e-03	0.00000000e+00	0.00000000e+00
2.00000000e-03	0.00000000e+00	0.00000000e+00
2.25000000e-03	0.00000000e+00	0.00000000e+00
2.50000000e-03	0.00000000e+00	0.00000000e+00
2.75000000e-03	0.00000000e+00	0.00000000e+00
3.00000000e-03	0.00000000e+00	0.00000000e+00
3.25000000e-03	7.99230435e+03	4.62334738e+03
3.50000000e-03	9.18270009e+03	3.76214013e+03
3.75000000e-03	8.73114341e+03	1.57390732e+03
4.00000000e-03	7.41758689e+03	1.11142421e+03
4.25000000e-03	5.86200143e+03	7.26243335e+02
4.50000000e-03	4.78282865e+03	5.27991073e+02
4.75000000e-03	4.07180001e+03	4.09236655e+02
5.00000000e-03	3.36306523e+03	3.22140616e+02
5.25000000e-03	2.84383574e+03	2.69815830e+02
5.50000000e-03	2.43403232e+03	2.22914752e+02
5.75000000e-03	2.06900337e+03	1.86470074e+02
6.00000000e-03	1.78891038e+03	1.55157251e+02
6.25000000e-03	1.54730485e+03	1.33137482e+02
6.50000000e-03	1.34854025e+03	1.13160438e+02
6.75000000e-03	1.18088558e+03	9.77409463e+01
7.00000000e-03	1.03938462e+03	8.40409602e+01
7.25000000e-03	9.17701167e+02	7.23683413e+01
7.50000000e-03	8.18679203e+02	6.45254305e+01
7.75000000e-03	7.27496410e+02	5.59817668e+01
8.00000000e-03	6.46864494e+02	4.92054196e+01
8.25000000e-03	5.79155536e+02	4.24908571e+01
8.50000000e-03	5.19435729e+02	3.75068114e+01
8.75000000e-03	4.65175847e+02	3.34327766e+01
9.00000000e-03	4.22484311e+02	2.99700103e+01
9.25000000e-03	3.81616350e+02	2.64224366e+01
9.50000000e-03	3.45558434e+02	2.34986311e+01
9.75000000e-03	3.10960601e+02	2.10279583e+01
1.00000000e-02	2.85406729e+02	1.89989837e+01
1.02500000e-02	2.59357666e+02	1.73451374e+01
1.05000000e-02	2.39199958e+02	1.53959023e+01
1.07500000e-02	2.18385370e+02	1.40246208e+01
1.10000000e-02	2.00909447e+02	1.26204164e+01
1.12500000e-02	1.84915870e+02	1.18534842e+01
1.15000000e-02	1.70837139e+02	1.06735961e+01
1.17500000e-02	1.56223395e+02	9.51595087e+00
1.20000000e-02	1.46114534e+02	8.90473548e+00
1.22500000e-02	1.34523643e+02	8.03342008e+00
1.25000000e-02	1.24535889e+02	7.44129771e+00
1.27500000e-02	1.16737536e+02	6.87777292e+00
1.30000000e-02	1.08142833e+02	6.29321501e+00
1.32500000e-02	1.00387156e+02	5.71062885e+00
1.35000000e-02	9.39199387e+01	5.35039596e+00
1.37500000e-02	8.74746654e+01	4.97516905e+00
1.40000000e-02	8.15024398e+01	4.57047047e+00
1.42500000e-02	7.62131320e+01	4.20083619e+00
1.45000000e-02	7.16220814e+01	3.92974675e+00
1.47500000e-02	6.73122710e+01	3.67765439e+00
1.50000000e-02	6.35320378e+01	3.44539306e+00
1.52500000e-02	5.99022471e+01	3.21102217e+00
1.55000000e-02	5.61620199e+01	2.96932336e+00
1.57500000e-02	5.29191918e+01	2.79062919e+00
1.60000000e-02	4.98424770e+01	2.58218928e+00
1.62500000e-02	4.71965974e+01	2.47442615e+00
1.65000000e-02	4.46426353e+01	2.28748423e+00
1.67500000e-02	4.23135504e+01	2.14090083e+00
1.70000000e-02	4.00568001e+01	2.02174120e+00
1.72500000e-02	3.77668460e+01	1.89676043e+00
1.75000000e-02	3.59375306e+01	1.79990465e+00
1.77500000e-02	3.40237258e+01	1.66903677e+00
1.80000000e-02	3.22714278e+01	1.59069508e+00
1.82500000e-02	3.07173303e+01	1.47069074e+00
1.85000000e-02	2.90606478e+01	1.42882364e+00
1.87500000e-02	2.77088242e+01	1.33093922e+00
1.90000000e-02	2.64739362e+01	1.26599862e+00
1.92500000e-02	2.52493730e+01	1.18861452e+00
1.95000000e-02	2.40635888e+01	1.12753426e+00
1.97500000e-02	2.29029623e+01	1.07939421e+00
2.00000000e-02	2.18807980e+01	1.01762614e+00
2.02500000e-02	2.09194154e+01	9.68643021e-01
2.05000000e-02	1.99689514e+01	9.05634925e-01
2.07500000e-02	1.90670611e+01	8.64774775e-01
2.10000000e-02	1.81987740e+01	8.31279909e-01
2.12500000e-02	1.73582148e+01	7.95268721e-01
2.15000000e-02	1.67080511e+01	7.59037457e-01
2.17500000e-02	1.59245913e+01	7.29613226e-01
2.20000000e-02	1.52869159e+01	7.04155393e-01
2.22500000e-02	1.46239181e+01	6.69523269e-01
2.25000000e-02	1.39192708e+01	6.43117497e-01
2.27500000e-02	1.34455454e+01	6.11415523e-01
2.30000000e-02	1.28542426e+01	5.91969213e-01
2.32500000e-02	1.23529401e+01	5.63096763e-01
2.35000000e-02	1.18841767e+01	5.48417917e-01
2.37500000e-02	1.14087029e+01	5.22139215e-01
2.40000000e-02	1.10248936e+01	5.06718261e-01
2.42500000e-02	1.05258020e+01	4.80318604e-01
2.45000000e-02	1.01588559e+01	4.64972412e-01
2.47500000e-02	9.70918865e+00	4.39391765e-01
2.50000000e-02	9.38773078e+00	4.25632937e-01
2.52500000e-02	9.05038574e+00	4.13784761e-01
2.55000000e-02	8.69253168e+00	3.88737893e-01
2.57500000e-02	8.38737639e+00	3.77299256e-01
2.60000000e-02	8.12108802e+00	3.62773681e-01
2.62500000e-02	7.79219312e+00	3.52929503e-01
2.65000000e-02	7.57287435e+00	3.38266096e-01
2.67500000e-02	7.29783309e+00	3.24049835e-01
2.70000000e-02	7.04749910e+00	3.15023752e-01
2.72500000e-02	6.78211595e+00	2.99043753e-01
2.75000000e-02	6.55490082e+00	2.94556337e-01
2.77500000e-02	6.35348873e+00	2.84661925e-01
2.80000000e-02	6.13281607e+00	2.68154887e-01
2.82500000e-02	5.94803905e+00	2.60371347e-01
2.85000000e-02	5.75816889e+00	2.52696798e-01
2.87500000e-02	5.54303542e+00	2.44401148e-01
2.90000000e-02	5.39147002e+00	2.37795828e-01
2.92500000e-02	5.21226883e+00	2.23090147e-01
2.95000000e-02	5.05460283e+00	2.21250715e-01
2.97500000e-02	4.88540629e+00	2.11426198e-01
3.00000000e-02	4.71944819e+00	2.05638719e-01
3.02500000e-02	4.59998073e+00	1.99995191e-01
3.05000000e-02	4.46292918e+00	1.89672696e-01
3.07500000e-02	4.32721749e+00	1.86246466e-01
3.10000000e-02	4.19747205e+00	1.80342002e-01
3.12500000e-02	4.08086488e+00	1.77025875e-01
3.15000000e-02	3.97740803e+00	1.70275271e-01
3.17500000e-02	3.83881811e+00	1.61453601e-01
3.20000000e-02	3.73927363e+00	1.59472638e-01
3.22500000e-02	3.64325541e+00	1.55164460e-01
3.25000000e-02	3.52179546e+00	1.50216654e-01
3.27500000e-02	3.43247390e+00	1.44694621e-01
3.30000000e-02	3.33075189e+00	1.39530492e-01
3.32500000e-02	3.24894946e+00	1.35811579e-01
3.35000000e-02	3.17259859e+00	1.34371944e-01
3.37500000e-02	3.06962528e+00	1.28283746e-01
3.40000000e-02	2.97834706e+00	1.24617945e-01
3.42500000e-02	2.91113314e+00	1.20435124e-01
3.45000000e-02	2.82951468e+00	1.18125654e-01
3.47500000e-02	2.75525048e+00	1.14279672e-01
3.50000000e-02	2.68927861e+00	1.11287314e-01
3.52500000e-02	2.59682085e+00	1.07631149e-01
3.55000000e-02	2.54319728e+00	1.03665649e-01
3.57500000e-02	2.46747624e+00	1.01843532e-01
3.60000000e-02	2.41626169e+00	9.93065336e-02
3.62500000e-02	2.33306559e+00	9.60129651e-02
3.65000000e-02	2.27653656e+00	9.31340690e-02
3.67500000e-02	2.21130006e+00	8.98943557e-02
3.70000000e-02	2.16610741e+00	8.79405420e-02
3.72500000e-02	2.10823980e+00	8.53895034e-02
3.75000000e-02	2.06121051e+00	8.37614144e-02
3.77500000e-02	2.00387455e+00	8.08333309e-02
3.80000000e-02	1.95113873e+00	7.84430732e-02
3.82500000e-02	1.90556905e+00	7.59904261e-02
3.85000000e-02	1.85588194e+00	7.47964789e-02
3.87500000e-02	1.81815440e+00	7.23216286e-02
3.90000000e-02	1.78241449e+00	7.15538768e-02
3.92500000e-02	1.74251938e+00	6.88643148e-02
3.95000000e-02	1.70687599e+00	6.78460599e-02
3.97500000e-02	1.66844356e+00	6.62666700e-02
4.00000000e-02	1.63919359e+00	6.48568752e-02
4.02500000e-02	1.60345905e+00	6.33908258e-02
4.05000000e-02	1.56292929e+00	6.12632051e-02
4.07500000e-02	1.52876164e+00	5.96354289e-02
4.10000000e-02	1.50509954e+00	5.92392286e-02
4.12500000e-02	1.47088579e+00	5.75850356e-02
4.15000000e-02	1.43660357e+00	5.57683697e-02
4.17500000e-02	1.40424318e+00	5.46467894e-02
4.20000000e-02	1.36948355e+00	5.28848655e-02
4.22500000e-02	1.34561151e+00	5.19308127e-02
4.25000000e-02	1.31737241e+00	5.09438066e-02
4.27500000e-02	1.29196395e+00	4.96833001e-02
4.30000000e-02	1.26057602e+00	4.84326491e-02
4.32500000e-02	1.23905225e+00	4.74233950e-02
4.35000000e-02	1.22100184e+00	4.71192052e-02
4.37500000e-02	1.18629263e+00	4.50092928e-02
4.40000000e-02	1.16700851e+00	4.46689779e-02
4.42500000e-02	1.14923902e+00	4.38010178e-02
4.45000000e-02	1.11930740e+00	4.23454568e-02
4.47500000e-02	1.10291229e+00	4.16855842e-02
4.50000000e-02	1.08325615e+00	4.10731049e-02
4.52500000e-02	1.07067298e+00	4.03377389e-02
4.55000000e-02	1.04364709e+00	3.92098388e-02
4.57500000e-02	1.01906151e+00	3.81042950e-02
4.60000000e-02	1.00669720e+00	3.77642390e-02
4.62500000e-02	9.81439970e-01	3.68024309e-02
4.65000000e-02	9.57914728e-01	3.56746292e-02
4.67500000e-02	9.43151026e-01	3.48919504e-02
4.70000000e-02	9.33705858e-01	3.45827485e-02
4.72500000e-02	9.13322830e-01	3.38941417e-02
4.75000000e-02	8.99386979e-01	3.35111582e-02
4.77500000e-02	8.89136955e-01	3.26563530e-02
4.80000000e-02	8.69938105e-01	3.19598410e-02
4.82500000e-02	8.48590087e-01	3.11362331e-02
4.85000000e-02	8.36638536e-01	3.10107781e-02
4.87500000e-02	8.31571260e-01	3.05317933e-02
4.90000000e-02	8.06035528e-01	2.93170856e-02
4.92500000e-02	7.95830727e-01	2.89505511e-02
4.95000000e-02	7.79179958e-01	2.83542105e-02
4.97500000e-02	7.67929468e-01	2.80877726e-02
5.00000000e-02	7.53852584e-01	2.74052938e-02
5.02500000e-02	7.39677977e-01	2.66055653e-02
5.05000000e-02	7.27073223e-01	2.61755110e-02
5.07500000e-02	7.22476544e-01	2.61113968e-02
5.10000000e-02	7.08285900e-01	2.55139411e-02
5.12500000e-02	6.98074982e-01	2.52061174e-02
5.15000000e-02	6.85889147e-01	2.44299499e-02
5.17500000e-02	6.75169187e-01	2.42466705e-02
5.20000000e-02	6.64492322e-01	2.36775379e-02
5.22500000e-02	6.52942414e-01	2.34229250e-02
5.25000000e-02	6.47484828e-01	2.29810272e-02
5.27500000e-02	6.35552148e-01	2.24761446e-02
5.30000000e-02	6.23555829e-01	2.22313415e-02
5.32500000e-02	6.14012676e-01	2.17290218e-02
5.35000000e-02	6.08039963e-01	2.15497721e-02
5.37500000e-02	5.98546842e-01	2.10493595e-02
5.40000000e-02	5.88097062e-01	2.06897608e-02
5.42500000e-02	5.79421549e-01	2.02907346e-02
5.45000000e-02	5.73498710e-01	2.01195171e-02
5.47500000e-02	5.63511605e-01	1.96747371e-02
5.50000000e-02	5.56055916e-01	1.94781396e-02
5.52500000e-02	5.46165012e-01	1.90238137e-02
5.55000000e-02	5.37984858e-01	1.86758913e-02
5.57500000e-02	5.30245571e-01	1.85219124e-02
5.60000000e-02	5.29150125e-01	1.83047244e-02
5.62500000e-02	5.16948382e-01	1.79922647e-02
5.65000000e-02	5.12343708e-01	1.76776538e-02
5.67500000e-02	5.05928805e-01	1.75293720e-02
5.70000000e-02	4.96724594e-01	1.70704650e-02
5.72500000e-02	4.88240951e-01	1.68150642e-02
5.75000000e-02	4.84075286e-01	1.66879877e-02
5.77500000e-02	4.75039534e-01	1.61602741e-02
5.80000000e-02	4.70130370e-01	1.61270030e-02
5.82500000e-02	4.63207048e-01	1.58115815e-02
5.85000000e-02	4.59572418e-01	1.57048080e-02
5.87500000e-02	4.55827874e-01	1.54811951e-02
5.90000000e-02	4.48809035e-01	1.52637562e-02
5.92500000e-02	4.42319800e-01	1.49757640e-02
5.95000000e-02	4.34754886e-01	1.46748012e-02
5.97500000e-02	4.31515041e-01	1.46686417e-02
6.00000000e-02	4.25137821e-01	1.43517635e-02
6.02500000e-02	4.18061009e-01	1.40939791e-02
6.05000000e-02	4.13909976e-01	1.39071668e-02
6.07500000e-02	4.10047141e-01	1.38193870e-02
6.10000000e-02	4.02781382e-01	1.35135180e-02
6.12500000e-02	4.00713906e-01	1.34143390e-02
6.15000000e-02	3.94061577e-01	1.31717571e-02
6.17500000e-02	3.91528602e-01	1.30572459e-02
6.20000000e-02	3.83208995e-01	1.27770201e-02
6.22500000e-02	3.83333614e-01	1.27686766e-02
6.25000000e-02	3.77486442e-01	1.25599915e-02
6.27500000e-02	3.73528589e-01	1.23320414e-02
6.30000000e-02	3.66540360e-01	1.21135920e-02
6.32500000e-02	3.64939752e-01	1.20652577e-02
6.35000000e-02	3.56902867e-01	1.17864363e-02
6.37500000e-02	3.55094400e-01	1.17452158e-02
6.40000000e-02	3.53654479e-01	1.16581242e-02
6.42500000e-02	3.45883776e-01	1.13046135e-02
6.45000000e-02	3.43153794e-01	1.12230949e-02
6.47500000e-02	3.35938671e-01	1.10212730e-02
6.50000000e-02	3.34708567e-01	1.09677405e-02
6.52500000e-02	3.31291347e-01	1.07866349e-02
6.55000000e-02	3.28768135e-01	1.07175340e-02
6.57500000e-02	3.23913680e-01	1.05450588e-02
6.60000000e-02	3.21213798e-01	1.04278575e-02
6.62500000e-02	3.17819861e-01	1.03598797e-02
6.65000000e-02	3.13753307e-01	1.01284543e-02
6.67500000e-02	3.11338556e-01	1.00470180e-02
6.70000000e-02	3.11320668e-01	1.00972059e-02
6.72500000e-02	3.05985854e-01	9.90095773e-03
6.75000000e-02	3.03715328e-01	9.74378491e-03
6.77500000e-02	2.99286659e-01	9.58800239e-03
6.80000000e-02	2.92656616e-01	9.43436473e-03
6.82500000e-02	2.93762603e-01	9.42995699e-03
6.85000000e-02	2.89112346e-01	9.31747727e-03
6.87500000e-02	2.84858241e-01	9.10100492e-03
6.90000000e-02	2.83291480e-01	9.03353474e-03
6.92500000e-02	2.82784285e-01	8.99568235e-03
6.95000000e-02	2.76941797e-01	8.86600709e-03
6.97500000e-02	2.77178841e-01	8.83190917e-03
7.00000000e-02	2.73043595e-01	8.66213392e-03
7.02500000e-02	2.68823854e-01	8.51177382e-03
7.05000000e-02	2.68863442e-01	8.47927094e-03
7.07500000e-02	2.66286904e-01	8.47277735e-03
7.10000000e-02	2.61255213e-01	8.23179771e-03
7.12500000e-02	2.60551807e-01	8.21414072e-03
7.15000000e-02	2.57558253e-01	8.08315676e-03
7.17500000e-02	2.55602815e-01	8.03951876e-03
7.20000000e-02	2.52710783e-01	7.96732612e-03
7.22500000e-02	2.47434246e-01	7.75898864e-03
7.25000000e-02	2.49276319e-01	7.79014608e-03
7.27500000e-02	2.45293635e-01	7.69500377e-03
7.30000000e-02	2.43212389e-01	7.60928599e-03
7.32500000e-02	2.42954084e-01	7.54971075e-03
7.35000000e-02	2.40004824e-01	7.49211206e-03
7.37500000e-02	2.37364227e-01	7.36950863e-03
7.40000000e-02	2.33889567e-01	7.25792549e-03
7.42500000e-02	2.30349344e-01	7.16190067e-03
7.45000000e-02	2.30249264e-01	7.13681803e-03
7.47500000e-02	2.27448516e-01	7.03142373e-03
7.50000000e-02	2.28583061e-01	7.05513598e-03
7.52500000e-02	2.26595570e-01	6.99538545e-03
7.55000000e-02	2.22422953e-01	6.84209682e-03
7.57500000e-02	2.20116291e-01	6.78431669e-03
7.60000000e-02	2.19814198e-01	6.76365552e-03
7.62500000e-02	2.18996096e-01	6.72678866e-03
7.65000000e-02	2.15937389e-01	6.63342905e-03
7.67500000e-02	2.15198563e-01	6.58980740e-03
7.70000000e-02	2.12307707e-01	6.47340228e-03
7.72500000e-02	2.10604276e-01	6.55202565e-03
7.75000000e-02	2.07583416e-01	6.51845434e-03
7.77500000e-02	2.05005481e-01	6.47596330e-03
7.80000000e-02	2.04821972e-01	6.48924541e-03
7.82500000e-02	2.01942335e-01	6.43889972e-03
7.85000000e-02	1.99309779e-01	6.41070564e-03
7.87500000e-02	1.97750397e-01	6.32165374e-03
7.90000000e-02	1.96169288e-01	6.33409541e-03
7.92500000e-02	1.94448376e-01	6.28128656e-03
7.95000000e-02	1.92930856e-01	6.24935488e-03
7.97500000e-02	1.92381093e-01	6.27039186e-03
8.00000000e-02	1.89908326e-01	6.16885138e-03
8.02500000e-02	1.88928149e-01	6.17099728e-03
8.05000000e-02	1.86285957e-01	6.06651508e-03
8.07500000e-02	1.85112351e-01	6.10764511e-03
8.10000000e-02	1.82934966e-01	6.01624714e-03
8.12500000e-02	1.81491929e-01	5.99069984e-03
8.15000000e-02	1.79099971e-01	5.87619516e-03
8.17500000e-02	1.78095457e-01	5.90349678e-03
8.20000000e-02	1.79274011e-01	5.93603073e-03
8.22500000e-02	1.76229488e-01	5.83980535e-03
8.25000000e-02	1.75079475e-01	5.80871115e-03
8.27500000e-02	1.72429849e-01	5.72288143e-03
8.30000000e-02	1.72122690e-01	5.74001760e-03
8.32500000e-02	1.70396580e-01	5.69933459e-03
8.35000000e-02	1.68576993e-01	5.67682119e-03
8.37500000e-02	1.68007431e-01	5.57372148e-03
8.40000000e-02	1.66643115e-01	5.57599653e-03
8.42500000e-02	1.64051725e-01	5.51299682e-03
8.45000000e-02	1.65608864e-01	5.56470820e-03
8.47500000e-02	1.62629068e-01	5.49462972e-03
8.50000000e-02	1.61488515e-01	5.41650010e-03
8.52500000e-02	1.60366884e-01	5.42672415e-03
8.55000000e-02	1.61024034e-01	5.41789171e-03
8.57500000e-02	1.57621594e-01	5.33293091e-03
8.60000000e-02	1.56479428e-01	5.30010811e-03
8.62500000e-02	1.57888603e-01	5.32838454e-03
8.65000000e-02	1.55254964e-01	5.23773981e-03
8.67500000e-02	1.53174712e-01	5.14408425e-03
8.70000000e-02	1.54288900e-01	5.13074003e-03
8.72500000e-02	1.53191424e-01	5.00580537e-03
8.75000000e-02	1.53973309e-01	4.98359004e-03
8.77500000e-02	1.51362812e-01	4.86924496e-03
8.80000000e-02	1.51289098e-01	4.86568041e-03
8.82500000e-02	1.50224035e-01	4.79987940e-03
8.85000000e-02	1.50201743e-01	4.80765270e-03
8.87500000e-02	1.48405033e-01	4.65829998e-03
8.90000000e-02	1.44827144e-01	4.59552128e-03
8.92500000e-02	1.45234057e-01	4.57919469e-03
8.95000000e-02	1.46336862e-01	4.60833335e-03
8.97500000e-02	1.45256936e-01	4.53637081e-03
9.00000000e-02	1.44281130e-01	4.47367583e-03
9.02500000e-02	1.42569010e-01	4.43120296e-03
9.05000000e-02	1.41323417e-01	4.39539750e-03
9.07500000e-02	1.40995097e-01	4.36572177e-03
9.10000000e-02	1.39246109e-01	4.28305432e-03
9.12500000e-02	1.39503801e-01	4.28191430e-03
9.15000000e-02	1.39002794e-01	4.27229795e-03
9.17500000e-02	1.38873020e-01	4.27181815e-03
9.20000000e-02	1.36837395e-01	4.18696094e-03
9.22500000e-02	1.37119731e-01	4.17224370e-03
9.25000000e-02	1.35403677e-01	4.11200830e-03
9.27500000e-02	1.33598811e-01	4.05649353e-03
9.30000000e-02	1.32847384e-01	4.02681628e-03
9.32500000e-02	1.33314949e-01	4.05171873e-03
9.35000000e-02	1.32799074e-01	4.00137511e-03
9.37500000e-02	1.31297657e-01	3.95048470e-03
9.40000000e-02	1.31460585e-01	3.97408773e-03
9.42500000e-02	1.30473967e-01	3.92009327e-03
9.45000000e-02	1.30728307e-01	3.91773118e-03
9.47500000e-02	1.30048908e-01	3.89872266e-03
9.50000000e-02	1.28330028e-01	3.82887598e-03
9.52500000e-02	1.29191569e-01	3.86700138e-03
9.55000000e-02	1.28314336e-01	3.82183515e-03
9.57500000e-02	1.26268429e-01	3.76090464e-03
9.60000000e-02	1.26087427e-01	3.73301142e-03
9.62500000e-02	1.25987887e-01	3.73222480e-03
9.65000000e-02	1.25049318e-01	3.70261928e-03
9.67500000e-02	1.24480124e-01	3.66700982e-03
9.70000000e-02	1.22903407e-01	3.62513953e-03
9.72500000e-02	1.22774547e-01	3.61179683e-03
9.75000000e-02	1.22155161e-01	3.59743424e-03
9.77500000e-02	1.21829493e-01	3.55728577e-03
9.80000000e-02	1.21568473e-01	3.56063415e-03
9.82500000e-02	1.19980536e-01	3.52560350e-03
9.85000000e-02	1.18251489e-01	3.46349507e-03
9.87500000e-02	1.18123248e-01	3.44384101e-03
9.90000000e-02	1.17838578e-01	3.43199355e-03
9.92500000e-02	1.16909063e-01	3.41255880e-03
9.95000000e-02	1.16632990e-01	3.39512062e-03
9.97500000e-02	1.15895923e-01	3.35902792e-03
1.00000000e-01	1.16251230e-01	2.74667744e-03
1.00500000e-01	1.14970809e-01	2.35799541e-03
1.01000000e-01	1.12599926e-01	2.29096336e-03
1.01500000e-01	1.12108954e-01	2.28220856e-03
1.02000000e-01	1.11960643e-01	2.26678751e-03
1.02500000e-01	1.09908194e-01	2.21678440e-03
1.03000000e-01	1.08795912e-01	2.20093368e-03
1.03500000e-01	1.07961538e-01	2.17395245e-03
1.04000000e-01	1.06359424e-01	2.13372784e-03
1.04500000e-01	1.06011988e-01	2.12589574e-03
1.05000000e-01	1.05584434e-01	2.10568884e-03
1.05500000e-01	1.04156776e-01	2.07598945e-03
1.06000000e-01	1.03208264e-01	2.05090789e-03
1.06500000e-01	1.01638617e-01	2.01286380e-03
1.07000000e-01	1.01806200e-01	2.04795411e-03
1.07500000e-01	9.97394508e-02	2.03916035e-03
1.08000000e-01	9.97822366e-02	2.06319808e-03
1.08500000e-01	9.81247680e-02	2.03977793e-03
1.09000000e-01	9.78874282e-02	2.04653625e-03
1.09500000e-01	9.62640621e-02	2.02342088e-03
1.10000000e-01	9.51621755e-02	1.97989698e-03
1.10500000e-01	9.45193675e-02	1.92623929e-03
1.11000000e-01	9.41620231e-02	1.88815963e-03
1.11500000e-01	9.25557383e-02	1.84590434e-03
1.12000000e-01	9.18616188e-02	1.81276819e-03
1.12500000e-01	9.16194677e-02	1.79651130e-03
1.13000000e-01	9.05881999e-02	1.77813414e-03
1.13500000e-01	8.92796001e-02	1.74475123e-03
1.14000000e-01	8.95683238e-02	1.74140403e-03
1.14500000e-01	8.82317076e-02	1.71056865e-03
1.15000000e-01	8.78417821e-02	1.69489113e-03
1.15500000e-01	8.63487726e-02	1.66827543e-03
1.16000000e-01	8.66810849e-02	1.67022359e-03
1.16500000e-01	8.50053222e-02	1.63305547e-03
1.17000000e-01	8.53445122e-02	1.63812755e-03
1.17500000e-01	8.44265784e-02	1.61217239e-03
1.18000000e-01	8.39191568e-02	1.60667075e-03
1.18500000e-01	8.32573774e-02	1.58090369e-03
1.19000000e-01	8.29273799e-02	1.57713923e-03
1.19500000e-01	8.26419758e-02	1.56792642e-03
1.20000000e-01	8.17717544e-02	1.54491338e-03
1.20500000e-01	8.06032815e-02	1.52171018e-03
1.21000000e-01	7.97555970e-02	1.50320101e-03
1.21500000e-01	7.94653276e-02	1.49423963e-03
1.22000000e-01	7.95173172e-02	1.49122182e-03
1.22500000e-01	7.87618991e-02	1.47394883e-03
1.23000000e-01	7.94810639e-02	1.48678650e-03
1.23500000e-01	7.97499553e-02	1.48510393e-03
1.24000000e-01	8.01015362e-02	1.49500083e-03
1.24500000e-01	8.01116783e-02	1.48743367e-03
1.25000000e-01	7.92795312e-02	1.47107556e-03
1.25500000e-01	7.87893387e-02	1.45802316e-03
1.26000000e-01	7.87618336e-02	1.45299177e-03
1.26500000e-01	7.76111170e-02	1.43097728e-03
1.27000000e-01	7.74466126e-02	1.42325166e-03
1.27500000e-01	7.67887489e-02	1.41058853e-03
1.28000000e-01	7.58833664e-02	1.39426208e-03
1.28500000e-01	7.54249114e-02	1.38192646e-03
1.29000000e-01	7.48638349e-02	1.36767774e-03
1.29500000e-01	7.52622703e-02	1.37395040e-03
1.30000000e-01	7.48055873e-02	1.36320503e-03
1.30500000e-01	7.48906438e-02	1.36016570e-03
1.31000000e-01	7.37645162e-02	1.34131387e-03
1.31500000e-01	7.36089204e-02	1.33271360e-03
1.32000000e-01	7.35219919e-02	1.32860612e-03
1.32500000e-01	7.29205360e-02	1.31449423e-03
1.33000000e-01	7.25820759e-02	1.30534129e-03
1.33500000e-01	7.21519843e-02	1.29050097e-03
1.34000000e-01	7.15636132e-02	1.28235963e-03
1.34500000e-01	7.10586201e-02	1.26675704e-03
1.35000000e-01	7.08578866e-02	1.26102199e-03
1.35500000e-01	7.03648379e-02	1.25011987e-03
1.36000000e-01	7.01775661e-02	1.24338773e-03
1.36500000e-01	6.97146748e-02	1.24114360e-03
1.37000000e-01	6.92422631e-02	1.22472103e-03
1.37500000e-01	6.90469906e-02	1.22001726e-03
1.38000000e-01	6.83428925e-02	1.20636140e-03
1.38500000e-01	6.74768749e-02	1.19149336e-03
1.39000000e-01	6.66031617e-02	1.17609828e-03
1.39500000e-01	6.56695685e-02	1.15584012e-03
1.40000000e-01	6.49989871e-02	1.14465307e-03
1.40500000e-01	6.43788376e-02	1.13246322e-03
1.41000000e-01	6.27228583e-02	1.10037831e-03
1.41500000e-01	6.20853403e-02	1.09343493e-03
1.42000000e-01	6.10957073e-02	1.06814239e-03
1.42500000e-01	6.10411331e-02	1.07004333e-03
1.43000000e-01	6.05626453e-02	1.06148905e-03
1.43500000e-01	5.96119399e-02	1.03891795e-03
1.44000000e-01	5.92583268e-02	1.03265484e-03
1.44500000e-01	5.91708997e-02	1.02508229e-03
1.45000000e-01	5.82667625e-02	1.01288179e-03
1.45500000e-01	5.82009071e-02	1.00728644e-03
1.46000000e-01	5.77137441e-02	1.00003432e-03
1.46500000e-01	5.72153093e-02	9.90129069e-04
1.47000000e-01	5.72431059e-02	9.88879602e-04
1.47500000e-01	5.72908234e-02	9.87392907e-04
1.48000000e-01	5.67279775e-02	9.77579202e-04
1.48500000e-01	5.60090685e-02	9.64369112e-04
1.49000000e-01	5.61061397e-02	9.61254512e-04
1.49500000e-01	5.54363988e-02	9.50507877e-04
1.50000000e-01	5.55346114e-02	9.48984666e-04
1.50500000e-01	5.48392045e-02	9.42081312e-04
1.51000000e-01	5.45603900e-02	9.33137831e-04
1.51500000e-01	5.45248771e-02	9.29870130e-04
1.52000000e-01	5.38485280e-02	9.12199257e-04
1.52500000e-01	5.35101163e-02	9.10473671e-04
1.53000000e-01	5.33949021e-02	9.06729016e-04
1.53500000e-01	5.31679717e-02	9.00997875e-04
1.54000000e-01	5.30887306e-02	8.96107913e-04
1.54500000e-01	5.25662970e-02	9.04638294e-04
1.55000000e-01	5.24357539e-02	9.14143213e-04
1.55500000e-01	5.25041004e-02	9.19796556e-04
1.56000000e-01	5.25047628e-02	9.25976275e-04
1.56500000e-01	5.22047416e-02	9.20803581e-04
1.57000000e-01	5.22302646e-02	9.22900711e-04
1.57500000e-01	5.09205440e-02	8.85148559e-04
1.58000000e-01	5.08598469e-02	8.68726211e-04
1.58500000e-01	5.05831748e-02	8.59656413e-04
1.59000000e-01	5.02563737e-02	8.50914976e-04
1.59500000e-01	5.00656980e-02	8.47124816e-04
1.60000000e-01	4.98747737e-02	8.42872752e-04
1.60500000e-01	4.90108032e-02	8.22828719e-04
1.61000000e-01	4.90139995e-02	8.25113626e-04
1.61500000e-01	4.84090722e-02	8.11576574e-04
1.62000000e-01	4.83927034e-02	8.11444634e-04
1.62500000e-01	4.82578038e-02	8.10232832e-04
1.63000000e-01	4.81501588e-02	8.00158363e-04
1.63500000e-01	4.77389947e-02	8.00945724e-04
1.64000000e-01	4.76661186e-02	7.91972591e-04
1.64500000e-01	4.78939432e-02	7.95625199e-04
1.65000000e-01	4.72615298e-02	7.83892835e-04
1.65500000e-01	4.73216930e-02	7.81890660e-04
1.66000000e-01	4.72048272e-02	7.80809444e-04
1.66500000e-01	4.67734508e-02	7.69794603e-04
1.67000000e-01	4.61080547e-02	7.61454919e-04
1.67500000e-01	4.58689322e-02	7.57736744e-04
1.68000000e-01	4.56876766e-02	7.52741291e-04
1.68500000e-01	4.56132029e-02	7.47863821e-04
1.69000000e-01	4.59378587e-02	7.54520574e-04
1.69500000e-01	4.50133280e-02	7.35676248e-04
1.70000000e-01	4.53728198e-02	7.42181278e-04
1.70500000e-01	4.53534904e-02	7.39901436e-04
1.71000000e-01	4.46142047e-02	7.28568213e-04
1.71500000e-01	4.44458969e-02	7.25291658e-04
1.72000000e-01	4.47888797e-02	7.29070237e-04
1.72500000e-01	4.43623674e-02	7.21204550e-04
1.73000000e-01	4.43220996e-02	7.18458761e-04
1.73500000e-01	4.39540576e-02	7.08962157e-04
1.74000000e-01	4.37900010e-02	7.06845821e-04
1.74500000e-01	4.36423704e-02	7.01189066e-04
1.75000000e-01	4.35174892e-02	6.96904777e-04
1.75500000e-01	4.28798530e-02	6.85250998e-04
1.76000000e-01	4.28510968e-02	6.86737825e-04
1.76500000e-01	4.30432743e-02	6.89129438e-04
1.77000000e-01	4.24913420e-02	6.78441568e-04
1.77500000e-01	4.24375884e-02	6.79516939e-04
1.78000000e-01	4.23056854e-02	6.74742116e-04
1.78500000e-01	4.23120817e-02	6.75448490e-04
1.79000000e-01	4.15525602e-02	6.63483430e-04
1.79500000e-01	4.20379166e-02	6.70548324e-04
1.80000000e-01	4.15241541e-02	6.63699472e-04
1.80500000e-01	4.14267452e-02	6.60521283e-04
1.81000000e-01	4.14205653e-02	6.60175935e-04
1.81500000e-01	4.09674099e-02	6.53245115e-04
1.82000000e-01	4.11166379e-02	6.53780942e-04
1.82500000e-01	4.07423102e-02	6.44612194e-04
1.83000000e-01	4.03885253e-02	6.41594925e-04
1.83500000e-01	4.04432295e-02	6.41276589e-04
1.84000000e-01	4.00752330e-02	6.34816066e-04
1.84500000e-01	4.00305494e-02	6.31541729e-04
1.85000000e-01	3.97992525e-02	6.27869901e-04
1.85500000e-01	3.96772674e-02	6.24843918e-04
1.86000000e-01	3.98268881e-02	6.25787670e-04
1.86500000e-01	3.97257866e-02	6.25804566e-04
1.87000000e-01	4.00191412e-02	6.28611808e-04
1.87500000e-01	3.97521818e-02	6.22070740e-04
1.88000000e-01	3.96971640e-02	6.22644069e-04
1.88500000e-01	3.97576827e-02	6.21219565e-04
1.89000000e-01	3.91805456e-02	6.12321276e-04
1.89500000e-01	3.91221882e-02	6.10775163e-04
1.90000000e-01	3.90867817e-02	6.09090215e-04
1.90500000e-01	3.88407271e-02	6.06117796e-04
1.91000000e-01	3.85066113e-02	5.99002295e-04
1.91500000e-01	3.84219952e-02	6.00089879e-04
1.92000000e-01	3.87701509e-02	6.00069552e-04
1.92500000e-01	3.84504808e-02	5.96376997e-04
1.93000000e-01	3.81003798e-02	5.91483243e-04
1.93500000e-01	3.84325318e-02	5.94078637e-04
1.94000000e-01	3.74807567e-02	5.78326597e-04
1.94500000e-01	3.79462887e-02	5.87152751e-04
1.95000000e-01	3.75105988e-02	5.79251401e-04
1.95500000e-01	3.75884923e-02	5.78553442e-04
1.96000000e-01	3.72594792e-02	5.72950145e-04
1.96500000e-01	3.73552712e-02	5.76028806e-04
1.97000000e-01	3.67936050e-02	5.64892256e-04
1.97500000e-01	3.74346620e-02	5.75863058e-04
1.98000000e-01	3.70126052e-02	5.67535106e-04
1.98500000e-01	3.68185646e-02	5.63550271e-04
1.99000000e-01	3.67527807e-02	5.62550347e-04
1.99500000e-01	3.65790825e-02	5.58310143e-04
2.00000000e-01	3.64292704e-02	5.55776699e-04
2.00500000e-01	3.63888470e-02	5.54875069e-04
2.01000000e-01	3.64961147e-02	5.54250223e-04
2.01500000e-01	3.63666522e-02	5.53788752e-04
2.02000000e-01	3.62472468e-02	5.51395932e-04
2.02500000e-01	3.59917759e-02	5.45080064e-04
2.03000000e-01	3.58340906e-02	5.42876974e-04
2.03500000e-01	3.54979197e-02	5.38782861e-04
2.04000000e-01	3.58595197e-02	5.44523967e-04
2.04500000e-01	3.57466049e-02	5.39679562e-04
2.05000000e-01	3.54066015e-02	5.33138606e-04
2.05500000e-01	3.51575116e-02	5.31159596e-04
2.06000000e-01	3.52037499e-02	5.29914532e-04
2.06500000e-01	3.51491560e-02	5.30079978e-04
2.07000000e-01	3.47024665e-02	5.22312680e-04
2.07500000e-01	3.48450423e-02	5.22221645e-04
2.08000000e-01	3.50550525e-02	5.26415402e-04
2.08500000e-01	3.44110435e-02	5.15649716e-04
2.09000000e-01	3.45710457e-02	5.19518940e-04
2.09500000e-01	3.46937602e-02	5.20144361e-04
2.10000000e-01	3.42364078e-02	5.12721266e-04
2.10500000e-01	3.46020744e-02	5.18384907e-04
2.11000000e-01	3.41721944e-02	5.09789426e-04
2.11500000e-01	3.42097605e-02	5.11657584e-04
2.12000000e-01	3.38017628e-02	5.03723106e-04
2.12500000e-01	3.38884849e-02	5.04166195e-04
2.13000000e-01	3.41050762e-02	5.06060835e-04
2.13500000e-01	3.36092339e-02	4.98766942e-04
2.14000000e-01	3.34347024e-02	4.97243530e-04
2.14500000e-01	3.28473554e-02	4.86942643e-04
2.15000000e-01	3.30857984e-02	4.92471331e-04
2.15500000e-01	3.29595347e-02	4.85457011e-04
2.16000000e-01	3.29218249e-02	4.84992493e-04
2.16500000e-01	3.28750207e-02	4.86197142e-04
2.17000000e-01	3.23109884e-02	4.84689334e-04
2.17500000e-01	3.21605840e-02	4.88628903e-04
2.18000000e-01	3.26246246e-02	4.96888929e-04
2.18500000e-01	3.21034247e-02	4.93347416e-04
2.19000000e-01	3.19187345e-02	4.92862810e-04
2.19500000e-01	3.18778202e-02	4.93466777e-04
2.20000000e-01	3.21409546e-02	5.01665177e-04
2.20500000e-01	3.19544289e-02	4.98523445e-04
2.21000000e-01	3.18880464e-02	4.98679876e-04
2.21500000e-01	3.15317854e-02	4.95442795e-04
2.22000000e-01	3.16014815e-02	4.96259189e-04
2.22500000e-01	3.16709430e-02	4.99248020e-04
2.23000000e-01	3.20003828e-02	5.05832301e-04
2.23500000e-01	3.13947878e-02	4.97020230e-04
2.24000000e-01	3.12764704e-02	4.96477295e-04
2.24500000e-01	3.11600121e-02	4.97760961e-04
2.25000000e-01	3.08209378e-02	4.91781228e-04
2.25500000e-01	3.13714834e-02	5.02136821e-04
2.26000000e-01	3.12126763e-02	5.00563324e-04
2.26500000e-01	3.10790052e-02	4.90582082e-04
2.27000000e-01	3.11776256e-02	4.88649189e-04
2.27500000e-01	3.11694537e-02	4.82801565e-04
2.28000000e-01	3.10948727e-02	4.80415291e-04
2.28500000e-01	3.07193713e-02	4.71676998e-04
2.29000000e-01	3.11342349e-02	4.74870557e-04
2.29500000e-01	3.09201677e-02	4.71751816e-04
2.30000000e-01	3.06394876e-02	4.66352486e-04
2.30500000e-01	3.07190119e-02	4.65327963e-04
2.31000000e-01	3.07434763e-02	4.63677921e-04
2.31500000e-01	3.01889751e-02	4.55931057e-04
2.32000000e-01	3.02646668e-02	4.54415951e-04
2.32500000e-01	3.05677771e-02	4.59059747e-04
2.33000000e-01	3.06003718e-02	4.58297814e-04
2.33500000e-01	3.01857465e-02	4.51884999e-04
2.34000000e-01	3.02072679e-02	4.50324350e-04
2.34500000e-01	3.00056137e-02	4.47545262e-04
2.35000000e-01	2.98419551e-02	4.43372941e-04
2.35500000e-01	2.99725211e-02	4.44377114e-04
2.36000000e-01	3.00010381e-02	4.46472128e-04
2.36500000e-01	2.99006895e-02	4.42329411e-04
2.37000000e-01	2.99785987e-02	4.42453549e-04
2.37500000e-01	2.99023867e-02	4.40862558e-04
2.38000000e-01	2.97360304e-02	4.36550993e-04
2.38500000e-01	2.95679602e-02	4.35865683e-04
2.39000000e-01	2.95354329e-02	4.32224341e-04
2.39500000e-01	2.96199856e-02	4.33820462e-04
2.40000000e-01	2.94596405e-02	4.30849762e-04
2.40500000e-01	2.92930146e-02	4.27426015e-04
2.41000000e-01	2.91906366e-02	4.25865546e-04
2.41500000e-01	2.96662570e-02	4.30961267e-04
2.42000000e-01	2.91416384e-02	4.24526249e-04
2.42500000e-01	2.92499962e-02	4.24340985e-04
2.43000000e-01	2.88793798e-02	4.18760803e-04
2.43500000e-01	2.92330075e-02	4.22608595e-04
2.44000000e-01	2.94463616e-02	4.25399913e-04
2.44500000e-01	2.90071969e-02	4.19072415e-04
2.45000000e-01	2.87638032e-02	4.14918093e-04
2.45500000e-01	2.86746247e-02	4.14545813e-04
2.46000000e-01	2.85776929e-02	4.12849794e-04
2.46500000e-01	2.88404880e-02	4.13745788e-04
2.47000000e-01	2.87430351e-02	4.13048886e-04
2.47500000e-01	2.90993009e-02	4.15424624e-04
2.48000000e-01	2.89241829e-02	4.14779365e-04
2.48500000e-01	2.91352023e-02	4.16347548e-04
2.49000000e-01	2.87669281e-02	4.10256180e-04
2.49500000e-01	2.91159556e-02	4.15750706e-04
2.50000000e-01	2.90858758e-02	4.13235902e-04
2.50500000e-01	2.87851637e-02	4.11217958e-04
2.51000000e-01	2.90628680e-02	4.13001684e-04
2.51500000e-01	2.91751051e-02	4.14950581e-04
2.52000000e-01	2.87819875e-02	4.09192482e-04
2.52500000e-01	2.90486765e-02	4.11231645e-04
2.53000000e-01	2.89275582e-02	4.09737603e-04
2.53500000e-01	2.87435682e-02	4.06087887e-04
2.54000000e-01	2.86939449e-02	4.05484235e-04
2.54500000e-01	2.87364439e-02	4.06056433e-04
2.55000000e-01	2.88773557e-02	4.06581245e-04
2.55500000e-01	2.88017233e-02	4.07161713e-04
2.56000000e-01	2.86623782e-02	4.04059163e-04
2.56500000e-01	2.83329068e-02	4.00669979e-04
2.57000000e-01	2.84613996e-02	3.99317959e-04
2.57500000e-01	2.86130984e-02	4.01072163e-04
2.58000000e-01	2.80779508e-02	3.95381842e-04
2.58500000e-01	2.82796178e-02	3.95874615e-04
2.59000000e-01	2.84061311e-02	3.97512853e-04
2.59500000e-01	2.82691031e-02	3.94581392e-04
2.60000000e-01	2.82146257e-02	3.95327295e-04
2.60500000e-01	2.80428453e-02	3.91301254e-04
2.61000000e-01	2.81672890e-02	3.92206834e-04
2.61500000e-01	2.79533191e-02	3.90593759e-04
2.62000000e-01	2.81826744e-02	3.91257170e-04
2.62500000e-01	2.80734346e-02	3.90299125e-04
2.63000000e-01	2.77132957e-02	3.85949400e-04
2.63500000e-01	2.79018539e-02	3.86124339e-04
2.64000000e-01	2.80343459e-02	3.89133121e-04
2.64500000e-01	2.79387183e-02	3.86124040e-04
2.65000000e-01	2.78289195e-02	3.86057780e-04
2.65500000e-01	2.79575567e-02	3.85387695e-04
2.66000000e-01	2.76098433e-02	3.82186353e-04
2.66500000e-01	2.77461920e-02	3.81800481e-04
2.67000000e-01	2.78739589e-02	3.83788873e-04
2.67500000e-01	2.74785062e-02	3.77818629e-04
2.68000000e-01	2.78491667e-02	3.82271687e-04
2.68500000e-01	2.72942281e-02	3.73515272e-04
2.69000000e-01	2.77041671e-02	3.78598903e-04
2.69500000e-01	2.75742743e-02	3.77267575e-04
2.70000000e-01	2.75241245e-02	3.76666556e-04
2.70500000e-01	2.74471531e-02	3.73635613e-04
2.71000000e-01	2.74016611e-02	3.74602359e-04
2.71500000e-01	2.74766910e-02	3.75871694e-04
2.72000000e-01	2.72969307e-02	3.71814619e-04
2.72500000e-01	2.75146134e-02	3.74268103e-04
2.73000000e-01	2.72904492e-02	3.71395867e-04
2.73500000e-01	2.71971612e-02	3.69378430e-04
2.74000000e-01	2.72456228e-02	3.69955657e-04
2.74500000e-01	2.72111040e-02	3.69159602e-04
2.75000000e-01	2.73884058e-02	3.71606586e-04
2.75500000e-01	2.74339654e-02	3.71386555e-04
2.76000000e-01	2.73097163e-02	3.69612934e-04
2.76500000e-01	2.72572222e-02	3.69824990e-04
2.77000000e-01	2.71762763e-02	3.67109364e-04
2.77500000e-01	2.70725010e-02	3.65783433e-04
2.78000000e-01	2.70992955e-02	3.65399710e-04
2.78500000e-01	2.68392234e-02	3.63663511e-04
2.79000000e-01	2.69316245e-02	3.63186376e-04
2.79500000e-01	2.71228266e-02	3.64728822e-04
2.80000000e-01	2.67797442e-02	3.60273558e-04
2.80500000e-01	2.72289624e-02	3.65672524e-04
2.81000000e-01	2.68010097e-02	3.59928595e-04
2.81500000e-01	2.70722011e-02	3.63511661e-04
2.82000000e-01	2.66218533e-02	3.56907969e-04
2.82500000e-01	2.67830327e-02	3.59665276e-04
2.83000000e-01	2.64243004e-02	3.53433471e-04
2.83500000e-01	2.66792689e-02	3.56324568e-04
2.84000000e-01	2.66259132e-02	3.55095990e-04
2.84500000e-01	2.66298678e-02	3.55352899e-04
2.85000000e-01	2.63339716e-02	3.51692619e-04
2.85500000e-01	2.63744568e-02	3.50400339e-04
2.86000000e-01	2.60527213e-02	3.48053017e-04
2.86500000e-01	2.62460762e-02	3.48653027e-04
2.87000000e-01	2.58573700e-02	3.45024979e-04
2.87500000e-01	2.58298242e-02	3.41925902e-04
2.88000000e-01	2.60505021e-02	3.44719399e-04
2.88500000e-01	2.56687421e-02	3.42078904e-04
2.89000000e-01	2.59254678e-02	3.42942975e-04
2.89500000e-01	2.57323569e-02	3.41556179e-04
2.90000000e-01	2.56492009e-02	3.39254136e-04
2.90500000e-01	2.54875722e-02	3.37114200e-04
2.91000000e-01	2.56650103e-02	3.39540610e-04
2.91500000e-01	2.57409045e-02	3.39208782e-04
2.92000000e-01	2.55648906e-02	3.36589794e-04
2.92500000e-01	2.55569916e-02	3.35985214e-04
2.93000000e-01	2.56139113e-02	3.37040243e-04
2.93500000e-01	2.56179291e-02	3.37072361e-04
2.94000000e-01	2.52131352e-02	3.31598979e-04
2.94500000e-01	2.52937927e-02	3.33054647e-04
2.95000000e-01	2.51164117e-02	3.29875522e-04
2.95500000e-01	2.54839564e-02	3.34707263e-04
2.96000000e-01	2.53584690e-02	3.31847283e-04
2.96500000e-01	2.54879821e-02	3.32834388e-04
2.97000000e-01	2.52119475e-02	3.30073845e-04
2.97500000e-01	2.51210313e-02	3.27478627e-04
2.98000000e-01	2.53339790e-02	3.32092486e-04
2.98500000e-01	2.50366272e-02	3.27481372e-04
2.99000000e-01	2.50688021e-02	3.26162055e-04
2.99500000e-01	2.52989124e-02	3.29621517e-04
3.00000000e-01	2.54624882e-02	3.31235724e-04
3.00500000e-01	2.48895101e-02	3.24242436e-04
3.01000000e-01	2.48405939e-02	3.22315604e-04
3.01500000e-01	2.49076610e-02	3.23911499e-04
3.02000000e-01	2.49195156e-02	3.23127701e-04
3.02500000e-01	2.46718902e-02	3.20003559e-04
3.03000000e-01	2.48258073e-02	3.22413820e-04
3.03500000e-01	2.46055744e-02	3.18303614e-04
3.04000000e-01	2.50248384e-02	3.24066616e-04
3.04500000e-01	2.48617826e-02	3.21790944e-04
3.05000000e-01	2.51138989e-02	3.24802447e-04
3.05500000e-01	2.48298988e-02	3.20038200e-04
3.06000000e-01	2.47888441e-02	3.17908466e-04
3.06500000e-01	2.48389890e-02	3.20383339e-04
3.07000000e-01	2.47160000e-02	3.17862171e-04
3.07500000e-01	2.46598337e-02	3.16550154e-04
3.08000000e-01	2.47323759e-02	3.18107817e-04
3.08500000e-01	2.47157678e-02	3.17538529e-04
3.09000000e-01	2.48768395e-02	3.18972862e-04
3.09500000e-01	2.48099894e-02	3.18857380e-04
3.10000000e-01	2.46591467e-02	3.15975625e-04
3.10500000e-01	2.45110286e-02	3.13778020e-04
3.11000000e-01	2.47212681e-02	3.16900616e-04
3.11500000e-01	2.46812875e-02	3.15170320e-04
3.12000000e-01	2.46478743e-02	3.15161754e-04
3.12500000e-01	2.44521866e-02	3.12791065e-04
3.13000000e-01	2.43770240e-02	3.10942088e-04
3.13500000e-01	2.46111990e-02	3.13468190e-04
3.14000000e-01	2.43064350e-02	3.09627167e-04
3.14500000e-01	2.45666256e-02	3.12483637e-04
3.15000000e-01	2.44541385e-02	3.11900662e-04
3.15500000e-01	2.45194114e-02	3.11349611e-04
3.16000000e-01	2.44211171e-02	3.09345387e-04
3.16500000e-01	2.40933610e-02	3.06239895e-04
3.17000000e-01	2.41414623e-02	3.06894102e-04
3.17500000e-01	2.44817463e-02	3.10960042e-04
3.18000000e-01	2.44198383e-02	3.08722956e-04
3.18500000e-01	2.44759830e-02	3.09935648e-04
3.19000000e-01	2.44939700e-02	3.09946655e-04
3.19500000e-01	2.45777992e-02	3.10146830e-04
3.20000000e-01	2.41737588e-02	3.04967276e-04
3.20500000e-01	2.42956931e-02	3.06806702e-04
3.21000000e-01	2.40824531e-02	3.05033538e-04
3.21500000e-01	2.42599706e-02	3.05884046e-04
3.22000000e-01	2.40501655e-02	3.03134838e-04
3.22500000e-01	2.40857367e-02	3.02524047e-04
3.23000000e-01	2.40249538e-02	3.02697694e-04
3.23500000e-01	2.42777235e-02	3.06096031e-04
3.24000000e-01	2.38734517e-02	2.99605534e-04
3.24500000e-01	2.39221449e-02	3.00019598e-04
3.25000000e-01	2.41093161e-02	3.02763780e-04
3.25500000e-01	2.41140914e-02	3.00967276e-04
3.26000000e-01	2.39733297e-02	3.00678440e-04
3.26500000e-01	2.40546821e-02	3.00191090e-04
3.27000000e-01	2.40713427e-02	3.00990825e-04
3.27500000e-01	2.38714851e-02	2.98179028e-04
3.28000000e-01	2.42602478e-02	3.03180161e-04
3.28500000e-01	2.38919259e-02	2.97714148e-04
3.29000000e-01	2.39940834e-02	2.98711979e-04
3.29500000e-01	2.39494426e-02	2.98407921e-04
3.30000000e-01	2.33978903e-02	2.91401767e-04
3.30500000e-01	2.38701443e-02	2.96135972e-04
3.31000000e-01	2.38949763e-02	2.96720143e-04
3.31500000e-01	2.38771783e-02	2.95607106e-04
3.32000000e-01	2.41552319e-02	2.99912320e-04
3.32500000e-01	2.40430809e-02	2.98250772e-04
3.33000000e-01	2.37237409e-02	2.94121466e-04
3.33500000e-01	2.38394217e-02	2.95474350e-04
3.34000000e-01	2.33177090e-02	2.89828681e-04
3.34500000e-01	2.35579970e-02	2.91982217e-04
3.35000000e-01	2.36058308e-02	2.92028973e-04
3.35500000e-01	2.37981628e-02	2.94129639e-04
3.36000000e-01	2.36824841e-02	2.92264281e-04
3.36500000e-01	2.37113330e-02	2.91714271e-04
3.37000000e-01	2.36446667e-02	2.91403884e-04
3.37500000e-01	2.35451235e-02	2.90391739e-04
3.38000000e-01	2.35358977e-02	2.90059409e-04
3.38500000e-01	2.33925134e-02	2.87006119e-04
3.39000000e-01	2.35999850e-02	2.90487568e-04
3.39500000e-01	2.34255325e-02	2.88074746e-04
3.40000000e-01	2.35867524e-02	2.90165910e-04
3.40500000e-01	2.35020293e-02	2.87597741e-04
3.41000000e-01	2.34731282e-02	2.86947240e-04
3.41500000e-01	2.35641244e-02	2.89702251e-04
3.42000000e-01	2.33839526e-02	2.86269222e-04
3.42500000e-01	2.36620215e-02	2.90179891e-04
3.43000000e-01	2.34774106e-02	2.87160838e-04
3.43500000e-01	2.36294722e-02	2.88369526e-04
3.44000000e-01	2.35135107e-02	2.87360790e-04
3.44500000e-01	2.36306463e-02	2.87557738e-04
3.45000000e-01	2.35545926e-02	2.87058837e-04
3.45500000e-01	2.35036647e-02	2.85996399e-04
3.46000000e-01	2.35021087e-02	2.86400154e-04
3.46500000e-01	2.31656462e-02	2.82323284e-04
3.47000000e-01	2.32350593e-02	2.82616994e-04
3.47500000e-01	2.33991530e-02	2.84564785e-04
3.48000000e-01	2.32863482e-02	2.83048748e-04
3.48500000e-01	2.34744900e-02	2.84706065e-04
3.49000000e-01	2.32405681e-02	2.82263238e-04
3.49500000e-01	2.32120478e-02	2.82271137e-04
3.50000000e-01	2.32263235e-02	2.28856162e-04
3.51000000e-01	2.32063010e-02	1.98427608e-04
3.52000000e-01	2.29922188e-02	1.96534367e-04
3.53000000e-01	2.31927350e-02	1.97375085e-04
3.54000000e-01	2.29546175e-02	1.95661464e-04
3.55000000e-01	2.29056155e-02	1.94596261e-04
3.56000000e-01	2.29335618e-02	1.96326238e-04
3.57000000e-01	2.29365125e-02	1.99513996e-04
3.58000000e-01	2.29633859e-02	2.01016403e-04
3.59000000e-01	2.26755948e-02	2.00467520e-04
3.60000000e-01	2.28945671e-02	2.03563194e-04
3.61000000e-01	2.28314179e-02	2.03345192e-04
3.62000000e-01	2.28438269e-02	2.04669572e-04
3.63000000e-01	2.27266353e-02	2.04517583e-04
3.64000000e-01	2.25699978e-02	2.03971798e-04
3.65000000e-01	2.26929395e-02	2.05895238e-04
3.66000000e-01	2.25497827e-02	2.02337412e-04
3.67000000e-01	2.25350794e-02	1.99526203e-04
3.68000000e-01	2.24650737e-02	1.97052069e-04
3.69000000e-01	2.24805103e-02	1.96594586e-04
3.70000000e-01	2.24437165e-02	1.94897454e-04
3.71000000e-01	2.22966664e-02	1.96126899e-04
3.72000000e-01	2.23124396e-02	1.97928933e-04
3.73000000e-01	2.22148534e-02	1.97604564e-04
3.74000000e-01	2.22007417e-02	1.97175826e-04
3.75000000e-01	2.22651498e-02	1.98173139e-04
3.76000000e-01	2.22283444e-02	1.97852983e-04
3.77000000e-01	2.20279592e-02	1.96625728e-04
3.78000000e-01	2.20473319e-02	1.96347787e-04
3.79000000e-01	2.19503449e-02	1.95392624e-04
3.80000000e-01	2.18238755e-02	1.94030526e-04
3.81000000e-01	2.19885965e-02	1.95118048e-04
3.82000000e-01	2.18919842e-02	1.94528638e-04
3.83000000e-01	2.17359626e-02	1.93067155e-04
3.84000000e-01	2.20152954e-02	1.95356226e-04
3.85000000e-01	2.17887033e-02	1.93452216e-04
3.86000000e-01	2.18016964e-02	1.93984069e-04
3.87000000e-01	2.16826535e-02	1.92912640e-04
3.88000000e-01	2.18684867e-02	1.94230757e-04
3.89000000e-01	2.16489793e-02	1.92305066e-04
3.90000000e-01	2.17856841e-02	1.92560858e-04
3.91000000e-01	2.17063082e-02	1.92176616e-04
3.92000000e-01	2.16385795e-02	1.91833229e-04
3.93000000e-01	2.18032209e-02	1.92863592e-04
3.94000000e-01	2.14554378e-02	1.89996401e-04
3.95000000e-01	2.17227319e-02	1.92058008e-04
3.96000000e-01	2.17015579e-02	1.92384417e-04
3.97000000e-01	2.15358748e-02	1.90385898e-04
3.98000000e-01	2.16400244e-02	1.91625729e-04
3.99000000e-01	2.15213107e-02	1.90501020e-04
4.00000000e-01	2.16017828e-02	1.91027003e-04
4.01000000e-01	2.15567471e-02	1.90830223e-04
4.02000000e-01	2.16319247e-02	1.91648619e-04
4.03000000e-01	2.14589186e-02	1.90256827e-04
4.04000000e-01	2.13140027e-02	1.88957938e-04
4.05000000e-01	2.15949828e-02	1.91110547e-04
4.06000000e-01	2.12892490e-02	1.88710847e-04
4.07000000e-01	2.14032711e-02	1.89726018e-04
4.08000000e-01	2.12690341e-02	1.88302435e-04
4.09000000e-01	2.13450641e-02	1.89017789e-04
4.10000000e-01	2.13912593e-02	1.89148212e-04
4.11000000e-01	2.12176724e-02	1.87655321e-04
4.12000000e-01	2.12921521e-02	1.87996099e-04
4.13000000e-01	2.11690278e-02	1.86976689e-04
4.14000000e-01	2.13497090e-02	1.88521612e-04
4.15000000e-01	2.10787791e-02	1.85993608e-04
4.16000000e-01	2.13245736e-02	1.88512548e-04
4.17000000e-01	2.11940662e-02	1.86822911e-04
4.18000000e-01	2.12857370e-02	1.89452786e-04
4.19000000e-01	2.11758916e-02	1.91219195e-04
4.20000000e-01	2.11202877e-02	1.91916212e-04
4.21000000e-01	2.13818076e-02	1.94390544e-04
4.22000000e-01	2.13849941e-02	1.95663913e-04
4.23000000e-01	2.12304451e-02	1.94474046e-04
4.24000000e-01	2.16788339e-02	1.99157907e-04
4.25000000e-01	2.13572172e-02	1.96425856e-04
4.26000000e-01	2.13817570e-02	1.96794740e-04
4.27000000e-01	2.10480066e-02	1.93114831e-04
4.28000000e-01	2.13029711e-02	1.96528178e-04
4.29000000e-01	2.11719583e-02	1.95710500e-04
4.30000000e-01	2.14243636e-02	1.97618236e-04
4.31000000e-01	2.12706323e-02	1.95792093e-04
4.32000000e-01	2.12130601e-02	1.95760698e-04
4.33000000e-01	2.12201479e-02	1.96361717e-04
4.34000000e-01	2.10599199e-02	1.95076160e-04
4.35000000e-01	2.11134786e-02	1.95469839e-04
4.36000000e-01	2.12160049e-02	1.96940708e-04
4.37000000e-01	2.11432193e-02	1.96644177e-04
4.38000000e-01	2.11964181e-02	1.97484818e-04
4.39000000e-01	2.12312910e-02	1.97697768e-04
4.40000000e-01	2.10263920e-02	1.95709138e-04
4.41000000e-01	2.12193264e-02	1.97957590e-04
4.42000000e-01	2.10185256e-02	1.96650324e-04
4.43000000e-01	2.11889170e-02	1.98288289e-04
4.44000000e-01	2.11010730e-02	1.97796880e-04
4.45000000e-01	2.11357188e-02	1.98689473e-04
4.46000000e-01	2.09540015e-02	1.97055288e-04
4.47000000e-01	2.11207707e-02	1.97779269e-04
4.48000000e-01	2.08077232e-02	1.95690171e-04
4.49000000e-01	2.08910700e-02	1.96306799e-04
4.50000000e-01	2.10162573e-02	1.98306817e-04
4.51000000e-01	2.09510963e-02	1.98032043e-04
4.52000000e-01	2.09749864e-02	1.97524204e-04
4.53000000e-01	2.07831168e-02	1.96733959e-04
4.54000000e-01	2.09448685e-02	1.98212995e-04
4.55000000e-01	2.09099718e-02	1.98395415e-04
4.56000000e-01	2.07954159e-02	1.97197397e-04
4.57000000e-01	2.08493388e-02	1.97975910e-04
4.58000000e-01	2.07205429e-02	1.96572013e-04
4.59000000e-01	2.09502764e-02	1.98743785e-04
4.60000000e-01	2.08464593e-02	1.98337112e-04
4.61000000e-01	2.08981970e-02	1.99315811e-04
4.62000000e-01	2.07446790e-02	1.97494050e-04
4.63000000e-01	2.06746592e-02	1.97231765e-04
4.64000000e-01	2.07367605e-02	1.97969013e-04
4.65000000e-01	2.07096720e-02	1.97988759e-04
4.66000000e-01	2.05303271e-02	1.96734096e-04
4.67000000e-01	2.06796362e-02	1.97531630e-04
4.68000000e-01	2.06076897e-02	1.97088409e-04
4.69000000e-01	2.04561906e-02	1.96143997e-04
4.70000000e-01	2.05753411e-02	1.97078785e-04
4.71000000e-01	2.06018391e-02	1.97128959e-04
4.72000000e-01	2.06170256e-02	1.97282928e-04
4.73000000e-01	2.03943429e-02	1.95088223e-04
4.74000000e-01	2.06068363e-02	1.96990991e-04
4.75000000e-01	2.06892586e-02	1.97778190e-04
4.76000000e-01	2.05571474e-02	1.96737661e-04
4.77000000e-01	2.04346273e-02	1.95622196e-04
4.78000000e-01	2.02982035e-02	1.94974213e-04
4.79000000e-01	2.05279021e-02	1.96370293e-04
4.80000000e-01	2.03563158e-02	1.95383392e-04
4.81000000e-01	2.04909946e-02	1.96184821e-04
4.82000000e-01	2.05486733e-02	1.96876577e-04
4.83000000e-01	2.04076428e-02	1.95518843e-04
4.84000000e-01	2.03554273e-02	1.96011671e-04
4.85000000e-01	2.03490848e-02	1.96260805e-04
4.86000000e-01	2.03778781e-02	1.95897803e-04
4.87000000e-01	2.04157808e-02	1.96298692e-04
4.88000000e-01	2.04416865e-02	1.97048947e-04
4.89000000e-01	2.04046663e-02	1.96956497e-04
4.90000000e-01	2.05445518e-02	1.97688667e-04
4.91000000e-01	2.03517587e-02	1.95864443e-04
4.92000000e-01	2.04318577e-02	1.97054439e-04
4.93000000e-01	2.04133235e-02	1.97105775e-04
4.94000000e-01	2.03841741e-02	1.96696487e-04
4.95000000e-01	2.02473254e-02	1.97338994e-04
4.96000000e-01	2.03662622e-02	2.04439060e-04
4.97000000e-01	2.03757828e-02	2.07860720e-04
4.98000000e-01	2.02630147e-02	2.09334765e-04
4.99000000e-01	2.03079085e-02	2.12265191e-04
5.00000000e-01	2.02697841e-02	2.14938986e-04
5.01000000e-01	2.03915487e-02	2.17500728e-04
5.02000000e-01	2.03890795e-02	2.19814049e-04
5.03000000e-01	2.03229539e-02	2.21341604e-04
5.04000000e-01	2.01229361e-02	2.21323521e-04
5.05000000e-01	2.03370364e-02	2.19736456e-04
5.06000000e-01	2.05794051e-02	2.16968817e-04
5.07000000e-01	2.01373685e-02	2.11133117e-04
5.08000000e-01	2.03001314e-02	2.11043946e-04
5.09000000e-01	2.02926343e-02	2.10289243e-04
5.10000000e-01	2.02536367e-02	2.09287530e-04
5.11000000e-01	2.02676028e-02	2.08450527e-04
5.12000000e-01	2.02932527e-02	2.07696276e-04
5.13000000e-01	2.01651212e-02	2.07878086e-04
5.14000000e-01	2.02057861e-02	2.06644105e-04
5.15000000e-01	2.02920987e-02	2.06881533e-04
5.16000000e-01	2.02253711e-02	2.05885760e-04
5.17000000e-01	2.01519097e-02	2.04367458e-04
5.18000000e-01	2.00279241e-02	2.03148137e-04
5.19000000e-01	2.03906619e-02	2.05511280e-04
5.20000000e-01	2.03315663e-02	2.04469374e-04
5.21000000e-01	2.01886856e-02	2.03895389e-04
5.22000000e-01	2.01960086e-02	2.03767300e-04
5.23000000e-01	2.01997818e-02	2.03447220e-04
5.24000000e-01	2.00466882e-02	2.02064618e-04
5.25000000e-01	2.00129364e-02	2.01401198e-04
5.26000000e-01	2.02845086e-02	2.03959881e-04
5.27000000e-01	2.01182144e-02	2.02570645e-04
5.28000000e-01	2.01411024e-02	2.02618586e-04
5.29000000e-01	2.00627183e-02	2.02145062e-04
5.30000000e-01	2.01913021e-02	2.03267589e-04
5.31000000e-01	2.00446766e-02	2.02005774e-04
5.32000000e-01	1.99771263e-02	2.01885971e-04
5.33000000e-01	2.01506943e-02	2.02591441e-04
5.34000000e-01	2.01321201e-02	2.02626902e-04
5.35000000e-01	2.01641689e-02	2.02377681e-04
5.36000000e-01	1.99892899e-02	2.01136975e-04
5.37000000e-01	1.98930368e-02	2.00030693e-04
5.38000000e-01	1.99587766e-02	2.00736110e-04
5.39000000e-01	2.00055296e-02	2.01600411e-04
5.40000000e-01	2.00274318e-02	2.01416830e-04
5.41000000e-01	1.99157477e-02	2.00412427e-04
5.42000000e-01	1.99160240e-02	2.00352377e-04
5.43000000e-01	1.99978264e-02	2.00787572e-04
5.44000000e-01	2.00775722e-02	2.01603943e-04
5.45000000e-01	1.99380710e-02	2.00338226e-04
5.46000000e-01	1.99816406e-02	2.01363113e-04
5.47000000e-01	2.00352451e-02	2.01566319e-04
5.48000000e-01	1.99580838e-02	2.00268996e-04
5.49000000e-01	1.99195161e-02	2.00311220e-04
5.50000000e-01	2.00392739e-02	2.01240438e-04
5.51000000e-01	1.99834160e-02	2.00047606e-04
5.52000000e-01	2.00154269e-02	2.00104266e-04
5.53000000e-01	2.00074807e-02	1.99926271e-04
5.54000000e-01	1.98115822e-02	1.97955393e-04
5.55000000e-01	1.98083220e-02	1.97531602e-04
5.56000000e-01	1.99696218e-02	1.99801042e-04
5.57000000e-01	1.98316818e-02	1.98109597e-04
5.58000000e-01	2.00537271e-02	1.99905276e-04
5.59000000e-01	1.98000080e-02	1.98035418e-04
5.60000000e-01	1.98807553e-02	1.98283124e-04
5.61000000e-01	1.99603935e-02	1.98931105e-04
5.62000000e-01	1.99452935e-02	1.99749062e-04
5.63000000e-01	1.97623431e-02	1.97651188e-04
5.64000000e-01	1.98462190e-02	1.98290611e-04
5.65000000e-01	1.97725319e-02	1.97434452e-04
5.66000000e-01	1.97708593e-02	1.97652456e-04
5.67000000e-01	1.96229551e-02	1.96686623e-04
5.68000000e-01	1.98017751e-02	1.98293215e-04
5.69000000e-01	2.00461436e-02	1.99263450e-04
5.70000000e-01	1.96469429e-02	1.96138473e-04
5.71000000e-01	1.97972252e-02	1.97535027e-04
5.72000000e-01	1.98555402e-02	1.98201539e-04
5.73000000e-01	1.98309634e-02	1.98570322e-04
5.74000000e-01	1.96748849e-02	1.96507881e-04
5.75000000e-01	1.95514996e-02	1.95627879e-04
5.76000000e-01	1.95831374e-02	1.95916798e-04
5.77000000e-01	1.97792207e-02	1.97612789e-04
5.78000000e-01	1.97265937e-02	1.97146784e-04
5.79000000e-01	1.97146296e-02	1.97510736e-04
5.80000000e-01	1.94994553e-02	1.95350088e-04
5.81000000e-01	1.96722277e-02	1.97385756e-04
5.82000000e-01	1.97055134e-02	1.97563567e-04
5.83000000e-01	1.98494928e-02	1.98631293e-04
5.84000000e-01	1.96272704e-02	1.97105212e-04
5.85000000e-01	1.96920401e-02	1.97413804e-04
5.86000000e-01	1.96301356e-02	1.96855903e-04
5.87000000e-01	1.97203176e-02	1.97031464e-04
5.88000000e-01	1.95520463e-02	1.96300334e-04
5.89000000e-01	1.96307818e-02	1.96971619e-04
5.90000000e-01	1.97905137e-02	1.98077009e-04
5.91000000e-01	1.97218434e-02	1.97805292e-04
5.92000000e-01	1.97441474e-02	1.98097696e-04
5.93000000e-01	1.98426194e-02	1.99358730e-04
5.94000000e-01	1.95554996e-02	1.97094893e-04
5.95000000e-01	1.96433308e-02	1.97281048e-04
5.96000000e-01	1.97675023e-02	1.98250093e-04
5.97000000e-01	1.96463290e-02	1.97149028e-04
5.98000000e-01	1.96908042e-02	1.97556401e-04
5.99000000e-01	1.97917411e-02	1.98104113e-04
6.00000000e-01	1.95066980e-02	1.96153028e-04
6.01000000e-01	1.97568394e-02	1.98430511e-04
6.02000000e-01	1.96746229e-02	1.97252877e-04
6.03000000e-01	1.96210905e-02	1.97512365e-04
6.04000000e-01	1.96927683e-02	1.97467466e-04
6.05000000e-01	1.96293964e-02	1.97187366e-04
6.06000000e-01	1.96685370e-02	1.97363761e-04
6.07000000e-01	1.98637633e-02	1.99487421e-04
6.08000000e-01	1.97444400e-02	1.98298303e-04
6.09000000e-01	1.96994366e-02	1.97695498e-04
6.10000000e-01	1.96570986e-02	1.97293651e-04
6.11000000e-01	1.96859298e-02	1.98098589e-04
6.12000000e-01	1.97504298e-02	1.98134108e-04
6.13000000e-01	1.96114022e-02	1.97114272e-04
6.14000000e-01	1.97386887e-02	1.98110763e-04
6.15000000e-01	1.98089109e-02	1.99124675e-04
6.16000000e-01	1.96279938e-02	1.96553717e-04
6.17000000e-01	2.00233769e-02	2.01273300e-04
6.18000000e-01	1.98874706e-02	1.99750484e-04
6.19000000e-01	1.98615663e-02	1.98850074e-04
6.20000000e-01	1.99272250e-02	1.99516970e-04
6.21000000e-01	1.98457163e-02	1.98585849e-04
6.22000000e-01	1.97389060e-02	1.97637472e-04
6.23000000e-01	1.97703748e-02	1.97527315e-04
6.24000000e-01	1.98047616e-02	1.97178714e-04
6.25000000e-01	1.98331646e-02	1.97926806e-04
6.26000000e-01	1.96810973e-02	1.96272871e-04
6.27000000e-01	1.96936724e-02	1.96576796e-04
6.28000000e-01	1.99482220e-02	1.98382590e-04
6.29000000e-01	1.98823308e-02	1.97759583e-04
6.30000000e-01	1.99958613e-02	1.99001810e-04
6.31000000e-01	1.98734493e-02	1.97844331e-04
6.32000000e-01	1.98859037e-02	1.98647243e-04
6.33000000e-01	1.98929619e-02	1.98542467e-04
6.34000000e-01	1.98247444e-02	2.02415532e-04
6.35000000e-01	1.97504476e-02	2.07749807e-04
6.36000000e-01	1.99266694e-02	2.12942205e-04
6.37000000e-01	2.00602761e-02	2.18101736e-04
6.38000000e-01	2.00170833e-02	2.20273610e-04
6.39000000e-01	2.00288506e-02	2.22597127e-04
6.40000000e-01	1.98453546e-02	2.24418498e-04
6.41000000e-01	2.01202741e-02	2.28975835e-04
6.42000000e-01	2.00469621e-02	2.31059172e-04
6.43000000e-01	1.99697201e-02	2.30018566e-04
6.44000000e-01	1.99561846e-02	2.21697475e-04
6.45000000e-01	2.01141940e-02	2.20031863e-04
6.46000000e-01	2.03519933e-02	2.20390570e-04
6.47000000e-01	2.01219025e-02	2.16716160e-04
6.48000000e-01	2.02431309e-02	2.16682363e-04
6.49000000e-01	2.01058128e-02	2.13814021e-04
6.50000000e-01	2.00903654e-02	2.12291011e-04
6.51000000e-01	1.99534827e-02	2.10737353e-04
6.52000000e-01	2.00509171e-02	2.10736984e-04
6.53000000e-01	2.00773260e-02	2.09973384e-04
6.54000000e-01	2.03762851e-02	2.12310370e-04
6.55000000e-01	2.02870284e-02	2.11076748e-04
6.56000000e-01	2.01833323e-02	2.10063837e-04
6.57000000e-01	2.00762219e-02	2.08368095e-04
6.58000000e-01	2.03705619e-02	2.10906246e-04
6.59000000e-01	2.02876901e-02	2.09938086e-04
6.60000000e-01	2.02434237e-02	2.09196265e-04
6.61000000e-01	2.02593215e-02	2.09153539e-04
6.62000000e-01	2.01477653e-02	2.08379155e-04
6.63000000e-01	2.02234142e-02	2.08602696e-04
6.64000000e-01	2.03199429e-02	2.09793305e-04
6.65000000e-01	2.03175124e-02	2.09477812e-04
6.66000000e-01	2.01106310e-02	2.07410758e-04
6.67000000e-01	2.02813701e-02	2.08217988e-04
6.68000000e-01	2.01090467e-02	2.07483001e-04
6.69000000e-01	2.03598242e-02	2.09293515e-04
6.70000000e-01	2.03023170e-02	2.08360687e-04
6.71000000e-01	2.01913306e-02	2.08132915e-04
6.72000000e-01	2.05572971e-02	2.11648284e-04
6.73000000e-01	2.02766905e-02	2.08015258e-04
6.74000000e-01	2.02480189e-02	2.08303109e-04
6.75000000e-01	2.02902458e-02	2.08273068e-04
6.76000000e-01	2.03095335e-02	2.08470740e-04
6.77000000e-01	2.02292666e-02	2.06921994e-04
6.78000000e-01	2.01339449e-02	2.06454525e-04
6.79000000e-01	2.02230960e-02	2.07400064e-04
6.80000000e-01	1.99527148e-02	2.04897748e-04
6.81000000e-01	2.01466524e-02	2.06796768e-04
6.82000000e-01	2.00799777e-02	2.06289042e-04
6.83000000e-01	2.05245962e-02	2.10195026e-04
6.84000000e-01	2.02070814e-02	2.07064456e-04
6.85000000e-01	2.02698869e-02	2.07875137e-04
6.86000000e-01	2.00628113e-02	2.05468895e-04
6.87000000e-01	2.01655053e-02	2.06742372e-04
6.88000000e-01	2.00933050e-02	2.05864016e-04
6.89000000e-01	2.01886990e-02	2.06686155e-04
6.90000000e-01	2.03172144e-02	2.08124620e-04
6.91000000e-01	1.99989704e-02	2.04937693e-04
6.92000000e-01	2.01992104e-02	2.06417925e-04
6.93000000e-01	2.00845887e-02	2.05721626e-04
6.94000000e-01	2.01757879e-02	2.06491428e-04
6.95000000e-01	2.01936218e-02	2.06727731e-04
6.96000000e-01	2.01245761e-02	2.05713623e-04
6.97000000e-01	2.02594400e-02	2.07003248e-04
6.98000000e-01	2.03608067e-02	2.07599679e-04
6.99000000e-01	2.02155050e-02	2.06557009e-04
7.00000000e-01	2.01997309e-02	2.06596735e-04
7.01000000e-01	2.02276494e-02	2.06784638e-04
7.02000000e-01	2.03214171e-02	2.07264128e-04
7.03000000e-01	2.01778931e-02	2.05815666e-04
7.04000000e-01	2.02530070e-02	2.07500649e-04
7.05000000e-01	2.02126358e-02	2.06789851e-04
7.06000000e-01	2.02380954e-02	2.06260807e-04
7.07000000e-01	2.01968277e-02	2.06219456e-04
7.08000000e-01	2.01233176e-02	2.04850972e-04
7.09000000e-01	2.01825794e-02	2.05388061e-04
7.10000000e-01	2.00540108e-02	2.04242733e-04
7.11000000e-01	1.98752652e-02	2.02878826e-04
7.12000000e-01	2.00535292e-02	2.04073921e-04
7.13000000e-01	2.01082643e-02	2.05444950e-04
7.14000000e-01	2.01543147e-02	2.05018903e-04
7.15000000e-01	2.01873101e-02	2.06121362e-04
7.16000000e-01	2.00868661e-02	2.05160988e-04
7.17000000e-01	2.00821535e-02	2.04802983e-04
7.18000000e-01	2.00760942e-02	2.05000741e-04
7.19000000e-01	2.05175123e-02	2.08926094e-04
7.20000000e-01	2.03645802e-02	2.07830075e-04
7.21000000e-01	2.03918859e-02	2.08064699e-04
7.22000000e-01	2.00431117e-02	2.04291886e-04
7.23000000e-01	2.01555531e-02	2.05743530e-04
7.24000000e-01	2.00181960e-02	2.04461663e-04
7.25000000e-01	2.01797526e-02	2.05941363e-04
7.26000000e-01	2.03014510e-02	2.06412696e-04
7.27000000e-01	2.01576493e-02	2.05564875e-04
7.28000000e-01	2.02182926e-02	2.06357472e-04
7.29000000e-01	2.01602162e-02	2.05645598e-04
7.30000000e-01	2.01582606e-02	2.05739340e-04
7.31000000e-01	2.02084336e-02	2.06089683e-04
7.32000000e-01	2.00268181e-02	2.04482787e-04
7.33000000e-01	2.02265972e-02	2.05741388e-04
7.34000000e-01	2.03876435e-02	2.07035135e-04
7.35000000e-01	2.00874310e-02	2.04115590e-04
7.36000000e-01	2.00551151e-02	2.03477648e-04
7.37000000e-01	2.00844477e-02	2.03497573e-04
7.38000000e-01	2.01920331e-02	2.03994942e-04
7.39000000e-01	2.00450589e-02	2.02471232e-04
7.40000000e-01	2.00235956e-02	2.02482382e-04
7.41000000e-01	1.99690939e-02	2.01309743e-04
7.42000000e-01	1.99932120e-02	2.02050341e-04
7.43000000e-01	2.01116587e-02	2.02359173e-04
7.44000000e-01	2.01576677e-02	2.03031151e-04
7.45000000e-01	2.00825200e-02	2.01939069e-04
7.46000000e-01	2.00655944e-02	2.02454228e-04
7.47000000e-01	2.03910036e-02	2.04990568e-04
7.48000000e-01	2.00312843e-02	2.02023518e-04
7.49000000e-01	1.99483495e-02	2.02036829e-04
7.50000000e-01	2.00598997e-02	2.02330597e-04
7.51000000e-01	2.00463488e-02	2.01943600e-04
7.52000000e-01	1.99097011e-02	2.01064294e-04
7.53000000e-01	2.00895968e-02	2.01912060e-04
7.54000000e-01	2.00936215e-02	2.02059184e-04
7.55000000e-01	2.00831202e-02	2.02345562e-04
7.56000000e-01	2.00684308e-02	2.02304067e-04
7.57000000e-01	2.01954169e-02	2.03811580e-04
7.58000000e-01	2.00412175e-02	2.02173714e-04
7.59000000e-01	2.01084412e-02	2.02372947e-04
7.60000000e-01	1.99774375e-02	2.00698669e-04
7.61000000e-01	2.00572632e-02	2.01769090e-04
7.62000000e-01	1.99614627e-02	2.00020886e-04
7.63000000e-01	1.99786752e-02	1.99970980e-04
7.64000000e-01	2.02891174e-02	2.02266780e-04
7.65000000e-01	2.00569083e-02	2.00349374e-04
7.66000000e-01	2.00961404e-02	2.00650504e-04
7.67000000e-01	1.99141808e-02	1.99130898e-04
7.68000000e-01	2.00617329e-02	1.99867677e-04
7.69000000e-01	1.99227360e-02	1.99078648e-04
7.70000000e-01	2.00802157e-02	2.00779838e-04
7.71000000e-01	2.02592475e-02	2.01837877e-04
7.72000000e-01	2.00430607e-02	2.05590828e-04
7.73000000e-01	1.99462084e-02	2.12308153e-04
7.74000000e-01	1.99562315e-02	2.16072017e-04
7.75000000e-01	1.98602530e-02	2.18969944e-04
7.76000000e-01	2.00558776e-02	2.24951933e-04
7.77000000e-01	2.00509957e-02	2.27570153e-04
7.78000000e-01	2.01857413e-02	2.31646342e-04
7.79000000e-01	1.98071885e-02	2.30410693e-04
7.80000000e-01	1.99273943e-02	2.34599353e-04
7.81000000e-01	1.98443053e-02	2.36796005e-04
7.82000000e-01	2.01068738e-02	2.41406795e-04
7.83000000e-01	1.99609767e-02	2.42897140e-04
7.84000000e-01	1.98246760e-02	2.43611603e-04
7.85000000e-01	2.00167970e-02	2.48348204e-04
7.86000000e-01	1.99382137e-02	2.51124021e-04
7.87000000e-01	1.99568185e-02	2.52212656e-04
7.88000000e-01	1.99037925e-02	2.54326203e-04
7.89000000e-01	2.00795255e-02	2.59107984e-04
7.90000000e-01	2.00340230e-02	2.61813337e-04
7.91000000e-01	2.02356093e-02	2.65896279e-04
7.92000000e-01	1.99761700e-02	2.65454626e-04
7.93000000e-01	2.00053543e-02	2.68028233e-04
7.94000000e-01	2.01090331e-02	2.73592883e-04
7.95000000e-01	1.99524517e-02	2.73156852e-04
7.96000000e-01	2.00291286e-02	2.78398939e-04
7.97000000e-01	2.01326526e-02	2.80976996e-04
7.98000000e-01	2.03144299e-02	2.87085094e-04
7.99000000e-01	1.97998679e-02	2.82802901e-04
8.00000000e-01	2.01758244e-02	2.90513862e-04
8.01000000e-01	2.01256668e-02	2.93822637e-04
8.02000000e-01	1.98821723e-02	2.91972441e-04
8.03000000e-01	1.98257364e-02	2.95822929e-04
8.04000000e-01	2.01320091e-02	3.03567073e-04
8.05000000e-01	2.01645234e-02	3.06294270e-04
8.06000000e-01	1.98961449e-02	3.06681636e-04
8.07000000e-01	1.99942883e-02	3.09836471e-04
8.08000000e-01	1.98873593e-02	3.12908591e-04
8.09000000e-01	1.98066225e-02	3.15135343e-04
8.10000000e-01	1.99135727e-02	3.20314947e-04
8.11000000e-01	1.98636965e-02	3.22564680e-04
8.12000000e-01	2.00785047e-02	3.29173983e-04
8.13000000e-01	1.96959558e-02	3.26929592e-04
8.14000000e-01	1.97834355e-02	3.33092043e-04
8.15000000e-01	1.98523210e-02	3.37524622e-04
8.16000000e-01	1.97398849e-02	3.39067072e-04
8.17000000e-01	2.03438542e-02	3.53436630e-04
8.18000000e-01	1.99474760e-02	3.50869901e-04
8.19000000e-01	1.97694927e-02	3.53756313e-04
8.20000000e-01	1.97607690e-02	3.57997126e-04
8.21000000e-01	1.98226133e-02	3.64210827e-04
8.22000000e-01	2.00418684e-02	3.71691988e-04
8.23000000e-01	1.99134919e-02	3.72533823e-04
8.24000000e-01	2.01199115e-02	3.83613635e-04
8.25000000e-01	1.98319793e-02	3.82162665e-04
8.26000000e-01	1.96487728e-02	3.86075808e-04
8.27000000e-01	1.96364829e-02	3.91727191e-04
8.28000000e-01	1.95217404e-02	3.95403276e-04
8.29000000e-01	1.97395268e-02	4.06195523e-04
8.30000000e-01	1.99357651e-02	4.15138162e-04
8.31000000e-01	1.97640270e-02	4.19245645e-04
8.32000000e-01	1.94723606e-02	4.20007162e-04
8.33000000e-01	1.97464448e-02	4.36725417e-04
8.34000000e-01	2.00748437e-02	4.45047838e-04
8.35000000e-01	1.98307512e-02	4.48250513e-04
8.36000000e-01	2.00005427e-02	4.61161365e-04
8.37000000e-01	1.94069401e-02	4.57672641e-04
8.38000000e-01	1.95551476e-02	4.69196571e-04
8.39000000e-01	1.93420570e-02	4.76356086e-04
8.40000000e-01	1.96898320e-02	4.93594550e-04
8.41000000e-01	1.96199038e-02	5.04160238e-04
8.42000000e-01	1.96540281e-02	5.19786601e-04
8.43000000e-01	2.02453491e-02	5.40393784e-04
8.44000000e-01	1.95084038e-02	5.36473550e-04
8.45000000e-01	1.98753408e-02	5.58237981e-04
8.46000000e-01	1.92606679e-02	5.58496389e-04
8.47000000e-01	1.93307822e-02	5.78164525e-04
8.48000000e-01	1.98751620e-02	6.08980509e-04
8.49000000e-01	1.97973799e-02	6.28553125e-04
8.50000000e-01	2.01855158e-02	6.60263493e-04
8.51000000e-01	1.96235601e-02	6.63324120e-04
8.52000000e-01	1.95669585e-02	6.87977696e-04
8.53000000e-01	1.96790712e-02	7.23927219e-04
8.54000000e-01	1.95465636e-02	7.56879178e-04
8.55000000e-01	1.97282331e-02	7.84552674e-04
8.56000000e-01	1.93730676e-02	7.92832087e-04
8.57000000e-01	1.95688809e-02	8.31589594e-04
8.58000000e-01	1.97202387e-02	8.63227332e-04
8.59000000e-01	1.95978308e-02	8.78507748e-04
8.60000000e-01	1.93524361e-02	8.96647468e-04
8.61000000e-01	1.99237564e-02	9.58219281e-04
8.62000000e-01	1.93385883e-02	9.62666767e-04
8.63000000e-01	1.89065736e-02	9.81464044e-04
8.64000000e-01	1.99042324e-02	1.06862861e-03
8.65000000e-01	1.92063960e-02	1.06230424e-03
8.66000000e-01	2.02522652e-02	1.18087480e-03
8.67000000e-01	2.02534439e-02	1.27317363e-03
8.68000000e-01	1.98902585e-02	1.31663908e-03
8.69000000e-01	1.82331307e-02	1.31095325e-03
8.70000000e-01	2.05184208e-02	1.57992073e-03
8.71000000e-01	1.86768318e-02	1.61005310e-03
8.72000000e-01	1.93118396e-02	1.87187995e-03
8.73000000e-01	1.98445078e-02	2.34180102e-03
8.74000000e-01	1.86569655e-02	2.87631876e-03
8.75000000e-01	1.91487987e-02	6.03344407e-03
