% Filename : SDL3_p7_00019_00005.h5
% Date & Time : 30-Oct-2025 16:38:46
% X-ray Energy (keV) : 13.30001
% Exposure Time (s) : 0.500
% Beam Center : 1461.24000, 208.98300
% Sample to Detector Distance (SDD) (mm) : 1990.750
% Detector Pixel Size (mm) : 0.075
% Photodiode Value : 140821.000
% I0 of Sample : 0
% I0 of Standard : 1
% 
% q(A^-1)   I(q)    I(q)_SE
0.00000000e+00	7.69773824e-03	4.05706587e-03
2.50000000e-04	0.00000000e+00	0.00000000e+00
5.00000000e-04	0.00000000e+00	0.00000000e+00
7.50000000e-04	0.00000000e+00	0.00000000e+00
1.00000000e-03	0.00000000e+00	0.00000000e+00
1.25000000e-03	0.00000000e+00	0.00000000e+00
1.50000000e-03	0.00000000e+00	0.00000000e+00
1.75000000e-03	0.00000000e+00	0.00000000e+00
2.00000000e-03	0.00000000e+00	0.00000000e+00
2.25000000e-03	0.00000000e+00	0.00000000e+00
2.50000000e-03	0.00000000e+00	0.00000000e+00
2.75000000e-03	0.00000000e+00	0.00000000e+00
3.00000000e-03	0.00000000e+00	0.00000000e+00
3.25000000e-03	3.40047536e+01	1.96460593e+01
3.50000000e-03	1.54747484e+01	5.31518855e+00
3.75000000e-03	9.56116244e+00	2.95161492e+00
4.00000000e-03	8.01260399e+00	2.35493404e+00
4.25000000e-03	4.51504201e+00	1.25580549e+00
4.50000000e-03	7.41388921e+00	1.99225737e+00
4.75000000e-03	8.79594400e+00	2.19651375e+00
5.00000000e-03	6.63936709e+00	1.60364459e+00
5.25000000e-03	5.50775812e+00	1.30062521e+00
5.50000000e-03	4.43467126e+00	1.02357394e+00
5.75000000e-03	3.76628645e+00	8.44648075e-01
6.00000000e-03	3.02787994e+00	6.61720300e-01
6.25000000e-03	2.62897463e+00	5.60453243e-01
6.50000000e-03	2.20128399e+00	4.62478006e-01
6.75000000e-03	1.89017239e+00	3.86220994e-01
7.00000000e-03	1.65227663e+00	3.30250373e-01
7.25000000e-03	1.41206426e+00	2.77187155e-01
7.50000000e-03	1.19575501e+00	2.36578174e-01
7.75000000e-03	1.09186601e+00	2.11938197e-01
8.00000000e-03	9.76565129e-01	1.83793756e-01
8.25000000e-03	8.36437545e-01	1.53000846e-01
8.50000000e-03	7.49204015e-01	1.34607837e-01
8.75000000e-03	6.80943228e-01	1.20772478e-01
9.00000000e-03	6.09710473e-01	1.07721661e-01
9.25000000e-03	5.37935415e-01	9.22314133e-02
9.50000000e-03	4.75048190e-01	8.01343357e-02
9.75000000e-03	4.30181263e-01	7.09087044e-02
1.00000000e-02	3.65517662e-01	5.93292890e-02
1.02500000e-02	3.58315707e-01	5.90724238e-02
1.05000000e-02	3.20655709e-01	5.03572335e-02
1.07500000e-02	2.97339964e-01	4.63212652e-02
1.10000000e-02	2.62911664e-01	3.96785771e-02
1.12500000e-02	2.37027761e-01	3.53603379e-02
1.15000000e-02	2.29699871e-01	3.38938784e-02
1.17500000e-02	1.97265305e-01	2.88323962e-02
1.20000000e-02	1.89843660e-01	2.71793254e-02
1.22500000e-02	1.76938504e-01	2.46008002e-02
1.25000000e-02	1.67464442e-01	2.24185819e-02
1.27500000e-02	1.55288246e-01	2.07005917e-02
1.30000000e-02	1.47181017e-01	1.91739245e-02
1.32500000e-02	1.33766657e-01	1.67559191e-02
1.35000000e-02	1.25047215e-01	1.53911627e-02
1.37500000e-02	1.20880711e-01	1.46735237e-02
1.40000000e-02	1.12555961e-01	1.36543910e-02
1.42500000e-02	1.04462233e-01	1.23565338e-02
1.45000000e-02	9.99438515e-02	1.13367719e-02
1.47500000e-02	9.60403794e-02	1.05731451e-02
1.50000000e-02	8.97940379e-02	9.81121095e-03
1.52500000e-02	8.41679190e-02	9.10951549e-03
1.55000000e-02	7.91754722e-02	8.14696149e-03
1.57500000e-02	7.53795635e-02	7.59097122e-03
1.60000000e-02	7.43674458e-02	7.39780956e-03
1.62500000e-02	7.28743818e-02	7.31683410e-03
1.65000000e-02	6.67658695e-02	6.35132150e-03
1.67500000e-02	6.40230866e-02	5.88716969e-03
1.70000000e-02	6.11403400e-02	5.71335406e-03
1.72500000e-02	6.00760049e-02	5.34748330e-03
1.75000000e-02	5.74307509e-02	5.09247949e-03
1.77500000e-02	5.59808008e-02	4.74578085e-03
1.80000000e-02	5.36696274e-02	4.50570775e-03
1.82500000e-02	5.17643648e-02	4.01811922e-03
1.85000000e-02	5.16677266e-02	4.27908932e-03
1.87500000e-02	5.01812564e-02	3.92518883e-03
1.90000000e-02	4.74622634e-02	3.65967352e-03
1.92500000e-02	4.67150027e-02	3.45582262e-03
1.95000000e-02	4.54986470e-02	3.36405605e-03
1.97500000e-02	4.44877410e-02	3.25016064e-03
2.00000000e-02	4.28124636e-02	3.02291258e-03
2.02500000e-02	4.25326818e-02	2.96110902e-03
2.05000000e-02	4.16423348e-02	2.81532640e-03
2.07500000e-02	4.09363731e-02	2.67943184e-03
2.10000000e-02	3.99012186e-02	2.69099731e-03
2.12500000e-02	4.02451421e-02	2.69721463e-03
2.15000000e-02	4.03031946e-02	2.59453789e-03
2.17500000e-02	3.81665859e-02	2.47049379e-03
2.20000000e-02	3.71653410e-02	2.35123535e-03
2.22500000e-02	3.73783087e-02	2.33120896e-03
2.25000000e-02	3.76464097e-02	2.37366449e-03
2.27500000e-02	3.51667726e-02	2.14777622e-03
2.30000000e-02	3.58881986e-02	2.15758223e-03
2.32500000e-02	3.61597730e-02	2.18104164e-03
2.35000000e-02	3.55102908e-02	2.15257466e-03
2.37500000e-02	3.38448536e-02	2.00901842e-03
2.40000000e-02	3.36457707e-02	1.97822288e-03
2.42500000e-02	3.42976197e-02	2.00678051e-03
2.45000000e-02	3.38657406e-02	1.93019392e-03
2.47500000e-02	3.34127488e-02	1.89145895e-03
2.50000000e-02	3.22704700e-02	1.86175786e-03
2.52500000e-02	3.24951533e-02	1.87837788e-03
2.55000000e-02	3.21083777e-02	1.75622884e-03
2.57500000e-02	3.15899953e-02	1.74084966e-03
2.60000000e-02	3.06449762e-02	1.69834769e-03
2.62500000e-02	3.20413084e-02	1.73534558e-03
2.65000000e-02	2.98210520e-02	1.62350061e-03
2.67500000e-02	2.95683325e-02	1.59670456e-03
2.70000000e-02	2.97212153e-02	1.57982932e-03
2.72500000e-02	2.98551167e-02	1.55861992e-03
2.75000000e-02	2.97182458e-02	1.57762552e-03
2.77500000e-02	2.83618889e-02	1.49605511e-03
2.80000000e-02	2.94394466e-02	1.52413771e-03
2.82500000e-02	2.91524534e-02	1.51348032e-03
2.85000000e-02	2.98471760e-02	1.50826444e-03
2.87500000e-02	2.94874527e-02	1.50954053e-03
2.90000000e-02	3.02519923e-02	1.55522625e-03
2.92500000e-02	2.95823000e-02	1.42537587e-03
2.95000000e-02	2.85616581e-02	1.44860392e-03
2.97500000e-02	2.87619635e-02	1.41819367e-03
3.00000000e-02	2.84527194e-02	1.43136375e-03
3.02500000e-02	2.86279095e-02	1.43013313e-03
3.05000000e-02	2.89329266e-02	1.39629463e-03
3.07500000e-02	2.75872892e-02	1.34065694e-03
3.10000000e-02	2.84775468e-02	1.37852546e-03
3.12500000e-02	2.77379825e-02	1.34746470e-03
3.15000000e-02	2.72858306e-02	1.33499611e-03
3.17500000e-02	2.66872844e-02	1.26300720e-03
3.20000000e-02	2.75861109e-02	1.32512493e-03
3.22500000e-02	2.72252812e-02	1.31043408e-03
3.25000000e-02	2.61747141e-02	1.25794216e-03
3.27500000e-02	2.59713328e-02	1.22558019e-03
3.30000000e-02	2.61081250e-02	1.22706072e-03
3.32500000e-02	2.61198272e-02	1.22532840e-03
3.35000000e-02	2.53377453e-02	1.21086227e-03
3.37500000e-02	2.62240922e-02	1.22452898e-03
3.40000000e-02	2.59042526e-02	1.21549802e-03
3.42500000e-02	2.63271171e-02	1.21706727e-03
3.45000000e-02	2.55187977e-02	1.19124142e-03
3.47500000e-02	2.54956990e-02	1.18228975e-03
3.50000000e-02	2.44466508e-02	1.13898077e-03
3.52500000e-02	2.51277708e-02	1.15889443e-03
3.55000000e-02	2.53718134e-02	1.13509272e-03
3.57500000e-02	2.38569730e-02	1.10686894e-03
3.60000000e-02	2.47146026e-02	1.14565092e-03
3.62500000e-02	2.48062546e-02	1.14173663e-03
3.65000000e-02	2.41857242e-02	1.10311237e-03
3.67500000e-02	2.39488203e-02	1.08643367e-03
3.70000000e-02	2.39031981e-02	1.07448574e-03
3.72500000e-02	2.40634820e-02	1.09349224e-03
3.75000000e-02	2.37291543e-02	1.07643603e-03
3.77500000e-02	2.49765104e-02	1.11779625e-03
3.80000000e-02	2.40692691e-02	1.08924621e-03
3.82500000e-02	2.34677238e-02	1.04027282e-03
3.85000000e-02	2.36854244e-02	1.06771200e-03
3.87500000e-02	2.39628139e-02	1.07435383e-03
3.90000000e-02	2.35119819e-02	1.05011744e-03
3.92500000e-02	2.39077392e-02	1.04079753e-03
3.95000000e-02	2.40916423e-02	1.06320730e-03
3.97500000e-02	2.29264266e-02	1.01730579e-03
4.00000000e-02	2.32922907e-02	1.02389513e-03
4.02500000e-02	2.35432117e-02	1.03758653e-03
4.05000000e-02	2.32323464e-02	1.00377672e-03
4.07500000e-02	2.27078476e-02	9.93036094e-04
4.10000000e-02	2.36337009e-02	1.03655184e-03
4.12500000e-02	2.35495822e-02	1.02856548e-03
4.15000000e-02	2.30128058e-02	9.96725991e-04
4.17500000e-02	2.28310015e-02	9.85592328e-04
4.20000000e-02	2.29743804e-02	9.82427245e-04
4.22500000e-02	2.33247729e-02	9.91885177e-04
4.25000000e-02	2.25006695e-02	9.64571252e-04
4.27500000e-02	2.35939890e-02	1.00318934e-03
4.30000000e-02	2.27609595e-02	9.78001944e-04
4.32500000e-02	2.29766959e-02	9.67988889e-04
4.35000000e-02	2.24344033e-02	9.72502744e-04
4.37500000e-02	2.32115139e-02	9.77462005e-04
4.40000000e-02	2.26862681e-02	9.56206149e-04
4.42500000e-02	2.28647925e-02	9.59850929e-04
4.45000000e-02	2.20691597e-02	9.25725346e-04
4.47500000e-02	2.29438245e-02	9.64818822e-04
4.50000000e-02	2.30074744e-02	9.67289902e-04
4.52500000e-02	2.30005841e-02	9.52642966e-04
4.55000000e-02	2.29349998e-02	9.57856476e-04
4.57500000e-02	2.27236311e-02	9.54662995e-04
4.60000000e-02	2.22509376e-02	9.27722334e-04
4.62500000e-02	2.24078996e-02	9.34007482e-04
4.65000000e-02	2.24986221e-02	9.27464627e-04
4.67500000e-02	2.21700275e-02	9.07484064e-04
4.70000000e-02	2.26821472e-02	9.16720094e-04
4.72500000e-02	2.31088938e-02	9.38341982e-04
4.75000000e-02	2.24471212e-02	9.25990880e-04
4.77500000e-02	2.26959956e-02	9.34134533e-04
4.80000000e-02	2.23388593e-02	9.16392349e-04
4.82500000e-02	2.24059733e-02	9.09009588e-04
4.85000000e-02	2.18836819e-02	8.96111028e-04
4.87500000e-02	2.18130460e-02	8.90336243e-04
4.90000000e-02	2.13877080e-02	8.69922194e-04
4.92500000e-02	2.20875684e-02	8.96347067e-04
4.95000000e-02	2.26666262e-02	9.16484015e-04
4.97500000e-02	2.25854161e-02	9.04566319e-04
5.00000000e-02	2.24115193e-02	9.11100322e-04
5.02500000e-02	2.17994277e-02	8.61509130e-04
5.05000000e-02	2.21440094e-02	8.77684424e-04
5.07500000e-02	2.18414134e-02	8.71064332e-04
5.10000000e-02	2.22081952e-02	8.86502874e-04
5.12500000e-02	2.25837424e-02	8.94550875e-04
5.15000000e-02	2.16445932e-02	8.63098432e-04
5.17500000e-02	2.23153838e-02	8.88824923e-04
5.20000000e-02	2.14960029e-02	8.41772330e-04
5.22500000e-02	2.25257401e-02	8.88207523e-04
5.25000000e-02	2.20904502e-02	8.63417385e-04
5.27500000e-02	2.20467678e-02	8.58155085e-04
5.30000000e-02	2.18829726e-02	8.66920758e-04
5.32500000e-02	2.18266606e-02	8.66797064e-04
5.35000000e-02	2.16679149e-02	8.42899365e-04
5.37500000e-02	2.12959247e-02	8.31035587e-04
5.40000000e-02	2.22505808e-02	8.65645351e-04
5.42500000e-02	2.18296473e-02	8.49637451e-04
5.45000000e-02	2.11575560e-02	8.20474475e-04
5.47500000e-02	2.09708052e-02	8.11131834e-04
5.50000000e-02	2.17852130e-02	8.45660715e-04
5.52500000e-02	2.14971801e-02	8.25451586e-04
5.55000000e-02	2.15578745e-02	8.25872066e-04
5.57500000e-02	2.11031900e-02	8.21942714e-04
5.60000000e-02	2.16314223e-02	8.28644196e-04
5.62500000e-02	2.15951106e-02	8.33255023e-04
5.65000000e-02	2.13580167e-02	8.13765364e-04
5.67500000e-02	2.15051854e-02	8.31657707e-04
5.70000000e-02	2.12249397e-02	8.15840919e-04
5.72500000e-02	2.20174089e-02	8.38140957e-04
5.75000000e-02	2.07638749e-02	8.02380964e-04
5.77500000e-02	2.11659956e-02	7.96471352e-04
5.80000000e-02	2.08024420e-02	7.91146810e-04
5.82500000e-02	2.14919087e-02	8.10860569e-04
5.85000000e-02	2.16061680e-02	8.16144911e-04
5.87500000e-02	2.15352844e-02	8.05267884e-04
5.90000000e-02	2.19503559e-02	8.16474825e-04
5.92500000e-02	2.17185560e-02	8.10172920e-04
5.95000000e-02	2.12756777e-02	7.88949857e-04
5.97500000e-02	2.11735991e-02	7.98586776e-04
6.00000000e-02	2.06537535e-02	7.71873254e-04
6.02500000e-02	2.12645404e-02	7.91059485e-04
6.05000000e-02	2.11979252e-02	7.85214765e-04
6.07500000e-02	2.09845854e-02	7.84026482e-04
6.10000000e-02	2.18396347e-02	8.06820454e-04
6.12500000e-02	2.17306561e-02	8.03517839e-04
6.15000000e-02	2.12975551e-02	7.82976008e-04
6.17500000e-02	2.08609046e-02	7.66018213e-04
6.20000000e-02	2.11446736e-02	7.83239363e-04
6.22500000e-02	2.13368130e-02	7.81330047e-04
6.25000000e-02	2.07641212e-02	7.64355928e-04
6.27500000e-02	2.08758971e-02	7.67268161e-04
6.30000000e-02	2.08304184e-02	7.64693608e-04
6.32500000e-02	2.09323398e-02	7.74208015e-04
6.35000000e-02	2.07163331e-02	7.53218525e-04
6.37500000e-02	2.09109311e-02	7.63999833e-04
6.40000000e-02	2.11065656e-02	7.67596452e-04
6.42500000e-02	2.10767458e-02	7.62184316e-04
6.45000000e-02	2.07863799e-02	7.51846182e-04
6.47500000e-02	2.13296701e-02	7.68733594e-04
6.50000000e-02	2.13241706e-02	7.72652965e-04
6.52500000e-02	2.04882586e-02	7.40021551e-04
6.55000000e-02	2.08312242e-02	7.52432591e-04
6.57500000e-02	2.14051300e-02	7.63356971e-04
6.60000000e-02	2.13464038e-02	7.66850526e-04
6.62500000e-02	2.06591516e-02	7.40840864e-04
6.65000000e-02	2.15508608e-02	7.67479049e-04
6.67500000e-02	2.10488994e-02	7.46003199e-04
6.70000000e-02	2.06738371e-02	7.39411643e-04
6.72500000e-02	2.05931569e-02	7.31727909e-04
6.75000000e-02	2.06499077e-02	7.38694129e-04
6.77500000e-02	2.08337239e-02	7.42314949e-04
6.80000000e-02	2.07355695e-02	7.35840519e-04
6.82500000e-02	2.10667519e-02	7.43842699e-04
6.85000000e-02	2.07356162e-02	7.38805296e-04
6.87500000e-02	2.06486896e-02	7.33257241e-04
6.90000000e-02	2.08381745e-02	7.36390066e-04
6.92500000e-02	2.13867788e-02	7.51590604e-04
6.95000000e-02	2.07349213e-02	7.32666842e-04
6.97500000e-02	2.13647487e-02	7.50317351e-04
7.00000000e-02	2.06578728e-02	7.25403213e-04
7.02500000e-02	2.08108371e-02	7.23087130e-04
7.05000000e-02	2.04818207e-02	7.16382323e-04
7.07500000e-02	2.11153026e-02	7.38862755e-04
7.10000000e-02	2.08192774e-02	7.23103899e-04
7.12500000e-02	2.08539886e-02	7.25407770e-04
7.15000000e-02	2.09131462e-02	7.15725197e-04
7.17500000e-02	2.11670659e-02	7.28038578e-04
7.20000000e-02	2.04753298e-02	7.10911237e-04
7.22500000e-02	2.04234635e-02	7.06281417e-04
7.25000000e-02	2.01828730e-02	6.93557221e-04
7.27500000e-02	2.06565351e-02	7.13971523e-04
7.30000000e-02	2.05874655e-02	7.08828661e-04
7.32500000e-02	2.03447397e-02	6.95821784e-04
7.35000000e-02	2.02910122e-02	6.99400382e-04
7.37500000e-02	2.08954093e-02	7.10455374e-04
7.40000000e-02	2.13681575e-02	7.36351768e-04
7.42500000e-02	2.10029584e-02	7.13885368e-04
7.45000000e-02	2.05619104e-02	6.98718943e-04
7.47500000e-02	2.02016276e-02	6.87181929e-04
7.50000000e-02	2.04329371e-02	6.95324080e-04
7.52500000e-02	2.01598439e-02	6.88309170e-04
7.55000000e-02	2.05621835e-02	6.98640636e-04
7.57500000e-02	2.07982811e-02	7.06835643e-04
7.60000000e-02	2.06275693e-02	6.97628954e-04
7.62500000e-02	2.02138510e-02	6.86201525e-04
7.65000000e-02	2.06705694e-02	6.95706531e-04
7.67500000e-02	2.06488307e-02	6.92719741e-04
7.70000000e-02	2.03906997e-02	6.80741909e-04
7.72500000e-02	2.02747295e-02	6.86156709e-04
7.75000000e-02	2.04706211e-02	7.11440241e-04
7.77500000e-02	2.08288614e-02	7.20971618e-04
7.80000000e-02	2.06196470e-02	7.20038065e-04
7.82500000e-02	2.08802828e-02	7.31106987e-04
7.85000000e-02	2.06628550e-02	7.27504279e-04
7.87500000e-02	2.10879574e-02	7.40716650e-04
7.90000000e-02	2.04047614e-02	7.27551699e-04
7.92500000e-02	2.03503622e-02	7.19194804e-04
7.95000000e-02	2.05253316e-02	7.35316804e-04
7.97500000e-02	2.04132250e-02	7.32279883e-04
8.00000000e-02	2.13253851e-02	7.57096252e-04
8.02500000e-02	2.04140965e-02	7.29863942e-04
8.05000000e-02	2.04480144e-02	7.27046549e-04
8.07500000e-02	2.08308174e-02	7.53352876e-04
8.10000000e-02	2.07012301e-02	7.47672255e-04
8.12500000e-02	2.07093723e-02	7.48587649e-04
8.15000000e-02	2.06679054e-02	7.40302594e-04
8.17500000e-02	2.05842353e-02	7.43499311e-04
8.20000000e-02	2.05619040e-02	7.44601495e-04
8.22500000e-02	2.00701937e-02	7.29636416e-04
8.25000000e-02	2.00917083e-02	7.35220710e-04
8.27500000e-02	2.03083790e-02	7.37107358e-04
8.30000000e-02	1.99473495e-02	7.35412861e-04
8.32500000e-02	2.01572348e-02	7.40713001e-04
8.35000000e-02	2.05914705e-02	7.63279170e-04
8.37500000e-02	2.01976653e-02	7.34142995e-04
8.40000000e-02	2.01788655e-02	7.38676177e-04
8.42500000e-02	2.03980537e-02	7.48872531e-04
8.45000000e-02	2.04871567e-02	7.61176835e-04
8.47500000e-02	2.05819094e-02	7.57140161e-04
8.50000000e-02	2.06990462e-02	7.56331331e-04
8.52500000e-02	2.06463941e-02	7.66710773e-04
8.55000000e-02	2.04149469e-02	7.45508095e-04
8.57500000e-02	2.06843396e-02	7.62669091e-04
8.60000000e-02	2.00727222e-02	7.45827689e-04
8.62500000e-02	2.02200994e-02	7.45619744e-04
8.65000000e-02	2.08123259e-02	7.66925348e-04
8.67500000e-02	2.06248230e-02	7.54557097e-04
8.70000000e-02	2.08613974e-02	7.55799241e-04
8.72500000e-02	2.00892674e-02	7.24084451e-04
8.75000000e-02	2.04539153e-02	7.24565405e-04
8.77500000e-02	2.02948863e-02	7.09039256e-04
8.80000000e-02	2.06134822e-02	7.27529300e-04
8.82500000e-02	2.01304806e-02	7.05459220e-04
8.85000000e-02	2.02285401e-02	7.07772232e-04
8.87500000e-02	2.05749036e-02	7.06506922e-04
8.90000000e-02	2.03880005e-02	7.05077190e-04
8.92500000e-02	2.05644099e-02	7.06569632e-04
8.95000000e-02	2.01744305e-02	6.92675862e-04
8.97500000e-02	2.03720565e-02	6.84574445e-04
9.00000000e-02	2.04921583e-02	6.92843979e-04
9.02500000e-02	1.98745998e-02	6.68805240e-04
9.05000000e-02	2.04107934e-02	6.92296743e-04
9.07500000e-02	2.01324044e-02	6.75805005e-04
9.10000000e-02	2.01220500e-02	6.84463601e-04
9.12500000e-02	1.96895675e-02	6.59975546e-04
9.15000000e-02	2.06887039e-02	6.93409829e-04
9.17500000e-02	2.03165361e-02	6.79025595e-04
9.20000000e-02	1.96702828e-02	6.56691785e-04
9.22500000e-02	1.99872213e-02	6.64749537e-04
9.25000000e-02	1.98555394e-02	6.58845735e-04
9.27500000e-02	1.98464726e-02	6.55403378e-04
9.30000000e-02	2.01586712e-02	6.69284359e-04
9.32500000e-02	1.98246766e-02	6.53006872e-04
9.35000000e-02	2.03214230e-02	6.66364566e-04
9.37500000e-02	2.03543446e-02	6.67053130e-04
9.40000000e-02	2.06174290e-02	6.76145235e-04
9.42500000e-02	2.00484119e-02	6.55734743e-04
9.45000000e-02	1.99587696e-02	6.53515755e-04
9.47500000e-02	2.02535917e-02	6.65713840e-04
9.50000000e-02	2.02685837e-02	6.54724098e-04
9.52500000e-02	2.02005051e-02	6.56705022e-04
9.55000000e-02	1.94513481e-02	6.31610700e-04
9.57500000e-02	2.00987668e-02	6.49422562e-04
9.60000000e-02	2.02611888e-02	6.51755420e-04
9.62500000e-02	1.95808124e-02	6.31823711e-04
9.65000000e-02	1.97568805e-02	6.38174674e-04
9.67500000e-02	1.99981392e-02	6.43493513e-04
9.70000000e-02	1.96882014e-02	6.37616084e-04
9.72500000e-02	1.98954797e-02	6.40072847e-04
9.75000000e-02	1.98416143e-02	6.34236301e-04
9.77500000e-02	2.00714680e-02	6.37615527e-04
9.80000000e-02	1.96885605e-02	6.23769186e-04
9.82500000e-02	1.98801853e-02	6.35220839e-04
9.85000000e-02	1.98128385e-02	6.34561227e-04
9.87500000e-02	2.02408510e-02	6.41653462e-04
9.90000000e-02	2.00995395e-02	6.37941511e-04
9.92500000e-02	1.99948735e-02	6.37657510e-04
9.95000000e-02	2.06912479e-02	6.50172820e-04
9.97500000e-02	2.01229428e-02	6.36646575e-04
1.00000000e-01	1.97204616e-02	5.05832431e-04
1.00500000e-01	1.96046978e-02	4.38730161e-04
1.01000000e-01	1.98645927e-02	4.40582182e-04
1.01500000e-01	1.94192965e-02	4.32538941e-04
1.02000000e-01	1.98837370e-02	4.37726027e-04
1.02500000e-01	2.02059052e-02	4.41066535e-04
1.03000000e-01	1.97134241e-02	4.31800038e-04
1.03500000e-01	2.01419369e-02	4.41219714e-04
1.04000000e-01	1.97937183e-02	4.31767383e-04
1.04500000e-01	1.97832876e-02	4.31690289e-04
1.05000000e-01	1.97113986e-02	4.26744493e-04
1.05500000e-01	1.98200551e-02	4.29144331e-04
1.06000000e-01	1.95705967e-02	4.22058486e-04
1.06500000e-01	1.98668055e-02	4.27960609e-04
1.07000000e-01	1.95599762e-02	4.27164773e-04
1.07500000e-01	1.96924549e-02	4.37248229e-04
1.08000000e-01	1.96660908e-02	4.39929433e-04
1.08500000e-01	1.97141526e-02	4.45647293e-04
1.09000000e-01	1.96985337e-02	4.45152330e-04
1.09500000e-01	1.95001068e-02	4.44597896e-04
1.10000000e-01	2.00064300e-02	4.49396412e-04
1.10500000e-01	1.97872381e-02	4.35730737e-04
1.11000000e-01	2.00546253e-02	4.34706159e-04
1.11500000e-01	1.92359052e-02	4.16012116e-04
1.12000000e-01	1.97455574e-02	4.22245179e-04
1.12500000e-01	1.95533531e-02	4.16065532e-04
1.13000000e-01	1.98200389e-02	4.19823770e-04
1.13500000e-01	1.97895526e-02	4.18086544e-04
1.14000000e-01	1.96597638e-02	4.13993882e-04
1.14500000e-01	1.98225290e-02	4.15820986e-04
1.15000000e-01	1.98441911e-02	4.13924374e-04
1.15500000e-01	1.98422815e-02	4.16303410e-04
1.16000000e-01	1.98367485e-02	4.12314419e-04
1.16500000e-01	1.98650975e-02	4.13135903e-04
1.17000000e-01	1.99634048e-02	4.12653831e-04
1.17500000e-01	1.97038924e-02	4.07001863e-04
1.18000000e-01	1.96474989e-02	4.05192077e-04
1.18500000e-01	1.96697368e-02	4.02317081e-04
1.19000000e-01	1.95875016e-02	4.01659161e-04
1.19500000e-01	1.95874275e-02	4.00649698e-04
1.20000000e-01	1.98814661e-02	4.05892503e-04
1.20500000e-01	1.98472588e-02	4.03701731e-04
1.21000000e-01	1.98546025e-02	4.02132544e-04
1.21500000e-01	1.97779017e-02	4.00742628e-04
1.22000000e-01	1.97232066e-02	3.99138490e-04
1.22500000e-01	1.95104499e-02	3.93650638e-04
1.23000000e-01	1.94682121e-02	3.92485651e-04
1.23500000e-01	1.95556562e-02	3.93291182e-04
1.24000000e-01	1.97268919e-02	3.97015423e-04
1.24500000e-01	1.97988508e-02	3.95608633e-04
1.25000000e-01	1.94840444e-02	3.88249645e-04
1.25500000e-01	1.96895045e-02	3.92660026e-04
1.26000000e-01	1.95203097e-02	3.88408530e-04
1.26500000e-01	1.97144285e-02	3.90704267e-04
1.27000000e-01	2.00419745e-02	3.96951268e-04
1.27500000e-01	1.94901141e-02	3.85169492e-04
1.28000000e-01	1.97302446e-02	3.88805074e-04
1.28500000e-01	1.97106462e-02	3.88004674e-04
1.29000000e-01	1.96901798e-02	3.86112900e-04
1.29500000e-01	1.96595615e-02	3.84976565e-04
1.30000000e-01	1.98209709e-02	3.88239439e-04
1.30500000e-01	1.98435020e-02	3.87991689e-04
1.31000000e-01	1.98369157e-02	3.84585107e-04
1.31500000e-01	1.95797537e-02	3.81159706e-04
1.32000000e-01	2.01769500e-02	3.89262943e-04
1.32500000e-01	1.97756876e-02	3.82910966e-04
1.33000000e-01	1.92883667e-02	3.73066469e-04
1.33500000e-01	1.97846023e-02	3.77557124e-04
1.34000000e-01	1.95693671e-02	3.74625347e-04
1.34500000e-01	1.93116766e-02	3.71903824e-04
1.35000000e-01	1.96816401e-02	3.75009053e-04
1.35500000e-01	1.96252217e-02	3.73953491e-04
1.36000000e-01	1.93799246e-02	3.66401429e-04
1.36500000e-01	1.95749177e-02	3.73486505e-04
1.37000000e-01	1.99525548e-02	3.76741957e-04
1.37500000e-01	1.96592702e-02	3.70941925e-04
1.38000000e-01	1.97057283e-02	3.70225576e-04
1.38500000e-01	1.98155019e-02	3.72481668e-04
1.39000000e-01	1.96705132e-02	3.71533910e-04
1.39500000e-01	1.95294769e-02	3.65898308e-04
1.40000000e-01	1.95389215e-02	3.67183983e-04
1.40500000e-01	1.95620921e-02	3.66763031e-04
1.41000000e-01	1.95945392e-02	3.68210605e-04
1.41500000e-01	1.96286310e-02	3.69021263e-04
1.42000000e-01	1.94271475e-02	3.62143599e-04
1.42500000e-01	1.94021252e-02	3.63409810e-04
1.43000000e-01	1.96721763e-02	3.68286840e-04
1.43500000e-01	1.94933362e-02	3.62867390e-04
1.44000000e-01	1.96757640e-02	3.65770231e-04
1.44500000e-01	1.96888176e-02	3.63853248e-04
1.45000000e-01	1.94972537e-02	3.61668932e-04
1.45500000e-01	1.92971941e-02	3.55505714e-04
1.46000000e-01	1.94421281e-02	3.57862755e-04
1.46500000e-01	1.94719913e-02	3.59890035e-04
1.47000000e-01	1.94045801e-02	3.56951986e-04
1.47500000e-01	1.94401596e-02	3.55770624e-04
1.48000000e-01	1.92461090e-02	3.54981267e-04
1.48500000e-01	1.91811651e-02	3.50704543e-04
1.49000000e-01	1.92987709e-02	3.53057976e-04
1.49500000e-01	1.92295085e-02	3.51191636e-04
1.50000000e-01	1.90474118e-02	3.46980670e-04
1.50500000e-01	1.91514000e-02	3.50031574e-04
1.51000000e-01	1.90291723e-02	3.48070012e-04
1.51500000e-01	1.91086364e-02	3.46658504e-04
1.52000000e-01	1.91873348e-02	3.45901266e-04
1.52500000e-01	1.95024284e-02	3.51765417e-04
1.53000000e-01	1.93477738e-02	3.50672289e-04
1.53500000e-01	1.91338311e-02	3.44059616e-04
1.54000000e-01	1.92726636e-02	3.46027427e-04
1.54500000e-01	1.92646089e-02	3.52855777e-04
1.55000000e-01	1.92888103e-02	3.57246552e-04
1.55500000e-01	1.91452968e-02	3.57852933e-04
1.56000000e-01	1.91114299e-02	3.58047631e-04
1.56500000e-01	1.94032405e-02	3.61765516e-04
1.57000000e-01	1.90619258e-02	3.60632741e-04
1.57500000e-01	1.93356883e-02	3.56138591e-04
1.58000000e-01	1.92231249e-02	3.49293378e-04
1.58500000e-01	1.91808217e-02	3.45306562e-04
1.59000000e-01	1.93028154e-02	3.45759306e-04
1.59500000e-01	1.88960886e-02	3.38738405e-04
1.60000000e-01	1.87310309e-02	3.37486232e-04
1.60500000e-01	1.90941260e-02	3.39793853e-04
1.61000000e-01	1.89766063e-02	3.38316843e-04
1.61500000e-01	1.91250763e-02	3.39056849e-04
1.62000000e-01	1.89519323e-02	3.36931718e-04
1.62500000e-01	1.91257328e-02	3.40430108e-04
1.63000000e-01	1.88667101e-02	3.32521359e-04
1.63500000e-01	1.91798849e-02	3.39721419e-04
1.64000000e-01	1.90195619e-02	3.33525889e-04
1.64500000e-01	1.89995094e-02	3.34017444e-04
1.65000000e-01	1.91593322e-02	3.36193933e-04
1.65500000e-01	1.91229830e-02	3.35465768e-04
1.66000000e-01	1.92412168e-02	3.35005827e-04
1.66500000e-01	1.89903139e-02	3.31597963e-04
1.67000000e-01	1.89093393e-02	3.29315694e-04
1.67500000e-01	1.86752243e-02	3.25738655e-04
1.68000000e-01	1.89373376e-02	3.29801559e-04
1.68500000e-01	1.88452718e-02	3.28124037e-04
1.69000000e-01	1.91247524e-02	3.31191751e-04
1.69500000e-01	1.88511113e-02	3.26407179e-04
1.70000000e-01	1.87738152e-02	3.25746789e-04
1.70500000e-01	1.92199427e-02	3.30954821e-04
1.71000000e-01	1.90723832e-02	3.27966089e-04
1.71500000e-01	1.91523565e-02	3.28005809e-04
1.72000000e-01	1.89147313e-02	3.22895657e-04
1.72500000e-01	1.89742653e-02	3.25350098e-04
1.73000000e-01	1.86821383e-02	3.20669941e-04
1.73500000e-01	1.88370302e-02	3.20869516e-04
1.74000000e-01	1.88775968e-02	3.21374605e-04
1.74500000e-01	1.86439098e-02	3.17213417e-04
1.75000000e-01	1.88145441e-02	3.17888910e-04
1.75500000e-01	1.87515249e-02	3.15803240e-04
1.76000000e-01	1.87908956e-02	3.17986624e-04
1.76500000e-01	1.87475426e-02	3.17574433e-04
1.77000000e-01	1.88305539e-02	3.16958554e-04
1.77500000e-01	1.86061622e-02	3.13886176e-04
1.78000000e-01	1.86397853e-02	3.13123966e-04
1.78500000e-01	1.86450516e-02	3.13171886e-04
1.79000000e-01	1.86988698e-02	3.15117833e-04
1.79500000e-01	1.86815606e-02	3.13980264e-04
1.80000000e-01	1.86566853e-02	3.12572135e-04
1.80500000e-01	1.85961369e-02	3.12079184e-04
1.81000000e-01	1.88426454e-02	3.16088579e-04
1.81500000e-01	1.87786536e-02	3.13980521e-04
1.82000000e-01	1.89455268e-02	3.17460085e-04
1.82500000e-01	1.85128679e-02	3.09017415e-04
1.83000000e-01	1.85782713e-02	3.10591760e-04
1.83500000e-01	1.85611997e-02	3.09519547e-04
1.84000000e-01	1.85360674e-02	3.09270455e-04
1.84500000e-01	1.86990724e-02	3.11310573e-04
1.85000000e-01	1.88389844e-02	3.11676690e-04
1.85500000e-01	1.87043414e-02	3.08977796e-04
1.86000000e-01	1.86859810e-02	3.08033727e-04
1.86500000e-01	1.85541098e-02	3.05063859e-04
1.87000000e-01	1.86789148e-02	3.07728453e-04
1.87500000e-01	1.86782088e-02	3.06104986e-04
1.88000000e-01	1.81741466e-02	2.99579559e-04
1.88500000e-01	1.84899573e-02	3.03278646e-04
1.89000000e-01	1.86785876e-02	3.05274112e-04
1.89500000e-01	1.86286340e-02	3.04182772e-04
1.90000000e-01	1.85417486e-02	3.02761956e-04
1.90500000e-01	1.84613612e-02	3.01274237e-04
1.91000000e-01	1.85126927e-02	3.00536567e-04
1.91500000e-01	1.85071919e-02	3.01418614e-04
1.92000000e-01	1.82281997e-02	2.95419449e-04
1.92500000e-01	1.85738973e-02	3.01459253e-04
1.93000000e-01	1.84834103e-02	3.00363645e-04
1.93500000e-01	1.83109664e-02	2.96788740e-04
1.94000000e-01	1.83049865e-02	2.96893407e-04
1.94500000e-01	1.84516324e-02	2.98919309e-04
1.95000000e-01	1.83476545e-02	2.96513680e-04
1.95500000e-01	1.84863514e-02	2.97260356e-04
1.96000000e-01	1.85994213e-02	2.99934049e-04
1.96500000e-01	1.81086359e-02	2.91645453e-04
1.97000000e-01	1.84678138e-02	2.96687320e-04
1.97500000e-01	1.82768677e-02	2.94337938e-04
1.98000000e-01	1.82474186e-02	2.92231654e-04
1.98500000e-01	1.85246708e-02	2.96507448e-04
1.99000000e-01	1.81186578e-02	2.90345623e-04
1.99500000e-01	1.82510214e-02	2.91686012e-04
2.00000000e-01	1.82434033e-02	2.91803016e-04
2.00500000e-01	1.82128855e-02	2.90757038e-04
2.01000000e-01	1.82933030e-02	2.90688479e-04
2.01500000e-01	1.82747840e-02	2.90771928e-04
2.02000000e-01	1.80584896e-02	2.87703443e-04
2.02500000e-01	1.82774233e-02	2.89686472e-04
2.03000000e-01	1.84384058e-02	2.91663674e-04
2.03500000e-01	1.83285848e-02	2.90032319e-04
2.04000000e-01	1.81365477e-02	2.86747567e-04
2.04500000e-01	1.83767989e-02	2.90308807e-04
2.05000000e-01	1.83693868e-02	2.89804310e-04
2.05500000e-01	1.82743188e-02	2.88694567e-04
2.06000000e-01	1.82781353e-02	2.86353883e-04
2.06500000e-01	1.80674709e-02	2.84867507e-04
2.07000000e-01	1.81387725e-02	2.84528465e-04
2.07500000e-01	1.83812752e-02	2.87712240e-04
2.08000000e-01	1.82325040e-02	2.86489600e-04
2.08500000e-01	1.80046454e-02	2.80427295e-04
2.09000000e-01	1.82295152e-02	2.85077675e-04
2.09500000e-01	1.82488537e-02	2.84038237e-04
2.10000000e-01	1.81387180e-02	2.83812855e-04
2.10500000e-01	1.84087001e-02	2.86814650e-04
2.11000000e-01	1.80276185e-02	2.79943268e-04
2.11500000e-01	1.80558699e-02	2.81004608e-04
2.12000000e-01	1.80879447e-02	2.80822664e-04
2.12500000e-01	1.78682092e-02	2.77572998e-04
2.13000000e-01	1.81412699e-02	2.80849311e-04
2.13500000e-01	1.81115172e-02	2.80039591e-04
2.14000000e-01	1.79891623e-02	2.79340260e-04
2.14500000e-01	1.82095109e-02	2.81462726e-04
2.15000000e-01	1.79067165e-02	2.77171215e-04
2.15500000e-01	1.80791387e-02	2.76303639e-04
2.16000000e-01	1.79951216e-02	2.76547139e-04
2.16500000e-01	1.82315055e-02	2.81541190e-04
2.17000000e-01	1.79445709e-02	2.79822416e-04
2.17500000e-01	1.80410743e-02	2.84979995e-04
2.18000000e-01	1.80155820e-02	2.85271705e-04
2.18500000e-01	1.79050260e-02	2.85666288e-04
2.19000000e-01	1.80689765e-02	2.88786552e-04
2.19500000e-01	1.79098974e-02	2.88193876e-04
2.20000000e-01	1.79859118e-02	2.90090856e-04
2.20500000e-01	1.79981394e-02	2.91319805e-04
2.21000000e-01	1.77924383e-02	2.89016273e-04
2.21500000e-01	1.79043806e-02	2.92626923e-04
2.22000000e-01	1.80860762e-02	2.95128253e-04
2.22500000e-01	1.80483966e-02	2.94140082e-04
2.23000000e-01	1.76466360e-02	2.89817018e-04
2.23500000e-01	1.78904602e-02	2.93819779e-04
2.24000000e-01	1.78344518e-02	2.94396970e-04
2.24500000e-01	1.78351796e-02	2.95450217e-04
2.25000000e-01	1.75752416e-02	2.91773688e-04
2.25500000e-01	1.78395604e-02	2.96202006e-04
2.26000000e-01	1.78701708e-02	2.98290760e-04
2.26500000e-01	1.78983958e-02	2.92993852e-04
2.27000000e-01	1.77914360e-02	2.88205645e-04
2.27500000e-01	1.76336431e-02	2.83817245e-04
2.28000000e-01	1.82661956e-02	2.92642547e-04
2.28500000e-01	1.77245330e-02	2.82657918e-04
2.29000000e-01	1.78712346e-02	2.82494178e-04
2.29500000e-01	1.76240831e-02	2.78080973e-04
2.30000000e-01	1.77858795e-02	2.80126093e-04
2.30500000e-01	1.79938649e-02	2.81342257e-04
2.31000000e-01	1.78994999e-02	2.79437215e-04
2.31500000e-01	1.76791734e-02	2.76931778e-04
2.32000000e-01	1.78375393e-02	2.78072873e-04
2.32500000e-01	1.78079073e-02	2.77207743e-04
2.33000000e-01	1.76322722e-02	2.74732203e-04
2.33500000e-01	1.78801055e-02	2.75680937e-04
2.34000000e-01	1.75683657e-02	2.71830772e-04
2.34500000e-01	1.78430731e-02	2.75050046e-04
2.35000000e-01	1.75773370e-02	2.71937470e-04
2.35500000e-01	1.77648444e-02	2.73247068e-04
2.36000000e-01	1.77398750e-02	2.72082910e-04
2.36500000e-01	1.76283357e-02	2.70049430e-04
2.37000000e-01	1.79139537e-02	2.72953739e-04
2.37500000e-01	1.78567869e-02	2.72721398e-04
2.38000000e-01	1.76766277e-02	2.68565285e-04
2.38500000e-01	1.78440910e-02	2.71865648e-04
2.39000000e-01	1.75885833e-02	2.66552420e-04
2.39500000e-01	1.77162909e-02	2.68614908e-04
2.40000000e-01	1.76416125e-02	2.66986639e-04
2.40500000e-01	1.75645892e-02	2.65055930e-04
2.41000000e-01	1.78787434e-02	2.69113764e-04
2.41500000e-01	1.78665982e-02	2.67762888e-04
2.42000000e-01	1.75931043e-02	2.64759542e-04
2.42500000e-01	1.76334391e-02	2.64003229e-04
2.43000000e-01	1.77108473e-02	2.65133370e-04
2.43500000e-01	1.78174339e-02	2.65275047e-04
2.44000000e-01	1.75189624e-02	2.61476236e-04
2.44500000e-01	1.75508546e-02	2.61617763e-04
2.45000000e-01	1.75177005e-02	2.61179648e-04
2.45500000e-01	1.74555181e-02	2.59750720e-04
2.46000000e-01	1.76065642e-02	2.61138802e-04
2.46500000e-01	1.74311741e-02	2.58769155e-04
2.47000000e-01	1.73913508e-02	2.58929241e-04
2.47500000e-01	1.75124548e-02	2.58821729e-04
2.48000000e-01	1.74783318e-02	2.58977444e-04
2.48500000e-01	1.73786466e-02	2.56880713e-04
2.49000000e-01	1.74850173e-02	2.57881409e-04
2.49500000e-01	1.73629226e-02	2.56395233e-04
2.50000000e-01	1.76163273e-02	2.59417395e-04
2.50500000e-01	1.75384527e-02	2.57969607e-04
2.51000000e-01	1.74476325e-02	2.56319091e-04
2.51500000e-01	1.75165013e-02	2.58158907e-04
2.52000000e-01	1.75175696e-02	2.56304708e-04
2.52500000e-01	1.74694697e-02	2.55553562e-04
2.53000000e-01	1.75635680e-02	2.56528838e-04
2.53500000e-01	1.73520048e-02	2.52695229e-04
2.54000000e-01	1.75562983e-02	2.56303728e-04
2.54500000e-01	1.75335693e-02	2.55770244e-04
2.55000000e-01	1.75214071e-02	2.54620986e-04
2.55500000e-01	1.75111826e-02	2.54084977e-04
2.56000000e-01	1.74767566e-02	2.53800059e-04
2.56500000e-01	1.72465345e-02	2.50471022e-04
2.57000000e-01	1.74147370e-02	2.52486423e-04
2.57500000e-01	1.74804242e-02	2.53179170e-04
2.58000000e-01	1.73410526e-02	2.50779349e-04
2.58500000e-01	1.74036292e-02	2.51676934e-04
2.59000000e-01	1.72980564e-02	2.49644191e-04
2.59500000e-01	1.72542737e-02	2.48875850e-04
2.60000000e-01	1.75744392e-02	2.52735679e-04
2.60500000e-01	1.71983763e-02	2.47693224e-04
2.61000000e-01	1.71639422e-02	2.46438518e-04
2.61500000e-01	1.73141972e-02	2.49419845e-04
2.62000000e-01	1.73340384e-02	2.47500128e-04
2.62500000e-01	1.72461391e-02	2.48629198e-04
2.63000000e-01	1.74148682e-02	2.48945574e-04
2.63500000e-01	1.72559726e-02	2.46370126e-04
2.64000000e-01	1.71834068e-02	2.46169842e-04
2.64500000e-01	1.74560900e-02	2.48317526e-04
2.65000000e-01	1.70997988e-02	2.44718360e-04
2.65500000e-01	1.71520333e-02	2.44157783e-04
2.66000000e-01	1.73448835e-02	2.45840296e-04
2.66500000e-01	1.71265961e-02	2.43947054e-04
2.67000000e-01	1.74641959e-02	2.48066316e-04
2.67500000e-01	1.72751503e-02	2.44177252e-04
2.68000000e-01	1.71612440e-02	2.43298974e-04
2.68500000e-01	1.71274046e-02	2.42345884e-04
2.69000000e-01	1.72191291e-02	2.42696026e-04
2.69500000e-01	1.72918942e-02	2.43647687e-04
2.70000000e-01	1.71790299e-02	2.42743420e-04
2.70500000e-01	1.72440282e-02	2.42184151e-04
2.71000000e-01	1.71697716e-02	2.41049959e-04
2.71500000e-01	1.70647762e-02	2.39973683e-04
2.72000000e-01	1.70131003e-02	2.38438330e-04
2.72500000e-01	1.71423934e-02	2.41070623e-04
2.73000000e-01	1.68573589e-02	2.36568571e-04
2.73500000e-01	1.69879038e-02	2.37297824e-04
2.74000000e-01	1.71419836e-02	2.39662544e-04
2.74500000e-01	1.71354334e-02	2.39232565e-04
2.75000000e-01	1.70902131e-02	2.39076159e-04
2.75500000e-01	1.70898067e-02	2.39523538e-04
2.76000000e-01	1.72057149e-02	2.40085666e-04
2.76500000e-01	1.72572561e-02	2.40390881e-04
2.77000000e-01	1.71985842e-02	2.38943851e-04
2.77500000e-01	1.70317549e-02	2.37350094e-04
2.78000000e-01	1.69547269e-02	2.35686975e-04
2.78500000e-01	1.71078905e-02	2.38152155e-04
2.79000000e-01	1.69171612e-02	2.34608105e-04
2.79500000e-01	1.70829433e-02	2.36391946e-04
2.80000000e-01	1.69439475e-02	2.34779077e-04
2.80500000e-01	1.73942815e-02	2.39155881e-04
2.81000000e-01	1.71262981e-02	2.36911955e-04
2.81500000e-01	1.70842895e-02	2.35522805e-04
2.82000000e-01	1.69369716e-02	2.34682200e-04
2.82500000e-01	1.70545764e-02	2.36266384e-04
2.83000000e-01	1.68586705e-02	2.32097985e-04
2.83500000e-01	1.68169275e-02	2.31539113e-04
2.84000000e-01	1.68602114e-02	2.31416801e-04
2.84500000e-01	1.69480232e-02	2.32572959e-04
2.85000000e-01	1.66915161e-02	2.29588385e-04
2.85500000e-01	1.70847499e-02	2.34201528e-04
2.86000000e-01	1.70554202e-02	2.33935302e-04
2.86500000e-01	1.70139653e-02	2.33543391e-04
2.87000000e-01	1.69890425e-02	2.32793054e-04
2.87500000e-01	1.68390143e-02	2.29168743e-04
2.88000000e-01	1.68329708e-02	2.28992045e-04
2.88500000e-01	1.67498338e-02	2.29126120e-04
2.89000000e-01	1.69517765e-02	2.30619662e-04
2.89500000e-01	1.69060523e-02	2.30133193e-04
2.90000000e-01	1.68907019e-02	2.30384019e-04
2.90500000e-01	1.67883470e-02	2.28623384e-04
2.91000000e-01	1.69123779e-02	2.30092161e-04
2.91500000e-01	1.69034254e-02	2.29228473e-04
2.92000000e-01	1.67529128e-02	2.26513779e-04
2.92500000e-01	1.68778877e-02	2.27792794e-04
2.93000000e-01	1.69870591e-02	2.29574445e-04
2.93500000e-01	1.66926368e-02	2.24974470e-04
2.94000000e-01	1.66713335e-02	2.25252939e-04
2.94500000e-01	1.69326630e-02	2.29047202e-04
2.95000000e-01	1.68321785e-02	2.26305101e-04
2.95500000e-01	1.68046072e-02	2.26540055e-04
2.96000000e-01	1.66949297e-02	2.24662475e-04
2.96500000e-01	1.69405906e-02	2.27641237e-04
2.97000000e-01	1.69229104e-02	2.27800291e-04
2.97500000e-01	1.68056348e-02	2.25156807e-04
2.98000000e-01	1.68013994e-02	2.25524173e-04
2.98500000e-01	1.66093888e-02	2.23293246e-04
2.99000000e-01	1.69228542e-02	2.26510339e-04
2.99500000e-01	1.67305923e-02	2.23715835e-04
3.00000000e-01	1.64350717e-02	2.20617442e-04
3.00500000e-01	1.66502667e-02	2.22410054e-04
3.01000000e-01	1.69468881e-02	2.26309975e-04
3.01500000e-01	1.65309764e-02	2.21077056e-04
3.02000000e-01	1.68503479e-02	2.25398135e-04
3.02500000e-01	1.66050922e-02	2.21339744e-04
3.03000000e-01	1.67077168e-02	2.22082650e-04
3.03500000e-01	1.66776509e-02	2.21519486e-04
3.04000000e-01	1.67267895e-02	2.22751616e-04
3.04500000e-01	1.66320004e-02	2.20813858e-04
3.05000000e-01	1.67081033e-02	2.21481773e-04
3.05500000e-01	1.66238546e-02	2.20743151e-04
3.06000000e-01	1.67023474e-02	2.19684826e-04
3.06500000e-01	1.67400759e-02	2.21589142e-04
3.07000000e-01	1.66690407e-02	2.20081085e-04
3.07500000e-01	1.65924737e-02	2.17908847e-04
3.08000000e-01	1.68035076e-02	2.22024657e-04
3.08500000e-01	1.66028989e-02	2.18858597e-04
3.09000000e-01	1.66037933e-02	2.18761024e-04
3.09500000e-01	1.66017947e-02	2.18106838e-04
3.10000000e-01	1.66929828e-02	2.19796562e-04
3.10500000e-01	1.66901260e-02	2.19397597e-04
3.11000000e-01	1.65103482e-02	2.16512759e-04
3.11500000e-01	1.66122816e-02	2.18387603e-04
3.12000000e-01	1.65198981e-02	2.16523620e-04
3.12500000e-01	1.66820229e-02	2.18158737e-04
3.13000000e-01	1.67164914e-02	2.18360493e-04
3.13500000e-01	1.67355823e-02	2.18627003e-04
3.14000000e-01	1.65018719e-02	2.16007297e-04
3.14500000e-01	1.65046348e-02	2.15532692e-04
3.15000000e-01	1.65140348e-02	2.15918235e-04
3.15500000e-01	1.65980502e-02	2.16270441e-04
3.16000000e-01	1.65518452e-02	2.16520545e-04
3.16500000e-01	1.64901518e-02	2.14465403e-04
3.17000000e-01	1.64122718e-02	2.13593118e-04
3.17500000e-01	1.63703205e-02	2.13406667e-04
3.18000000e-01	1.63198447e-02	2.11928562e-04
3.18500000e-01	1.64876995e-02	2.14612795e-04
3.19000000e-01	1.65186873e-02	2.14085821e-04
3.19500000e-01	1.65171915e-02	2.13360996e-04
3.20000000e-01	1.65080456e-02	2.13830899e-04
3.20500000e-01	1.62689455e-02	2.10488463e-04
3.21000000e-01	1.64436913e-02	2.12960003e-04
3.21500000e-01	1.64618102e-02	2.12692878e-04
3.22000000e-01	1.63948645e-02	2.12103423e-04
3.22500000e-01	1.62829065e-02	2.10324660e-04
3.23000000e-01	1.63013645e-02	2.11137579e-04
3.23500000e-01	1.61157474e-02	2.08993633e-04
3.24000000e-01	1.61385118e-02	2.08110646e-04
3.24500000e-01	1.64125659e-02	2.11821340e-04
3.25000000e-01	1.63375338e-02	2.09928139e-04
3.25500000e-01	1.64101637e-02	2.10557027e-04
3.26000000e-01	1.61742325e-02	2.07503095e-04
3.26500000e-01	1.62866828e-02	2.08373911e-04
3.27000000e-01	1.63897021e-02	2.10375898e-04
3.27500000e-01	1.61737971e-02	2.07270288e-04
3.28000000e-01	1.62864105e-02	2.08603581e-04
3.28500000e-01	1.62179351e-02	2.07086425e-04
3.29000000e-01	1.61579758e-02	2.07221855e-04
3.29500000e-01	1.60848544e-02	2.05694831e-04
3.30000000e-01	1.64631093e-02	2.09634984e-04
3.30500000e-01	1.62989977e-02	2.08245701e-04
3.31000000e-01	1.63293112e-02	2.07663440e-04
3.31500000e-01	1.62346336e-02	2.06168796e-04
3.32000000e-01	1.62740343e-02	2.07333377e-04
3.32500000e-01	1.61351302e-02	2.05016093e-04
3.33000000e-01	1.62333295e-02	2.06439645e-04
3.33500000e-01	1.61778607e-02	2.05415917e-04
3.34000000e-01	1.60632617e-02	2.04426463e-04
3.34500000e-01	1.62498110e-02	2.06358161e-04
3.35000000e-01	1.60180691e-02	2.02912890e-04
3.35500000e-01	1.62530905e-02	2.05748184e-04
3.36000000e-01	1.59712390e-02	2.02061958e-04
3.36500000e-01	1.61930224e-02	2.05393749e-04
3.37000000e-01	1.60833432e-02	2.02811819e-04
3.37500000e-01	1.60412029e-02	2.02829892e-04
3.38000000e-01	1.61167865e-02	2.03811621e-04
3.38500000e-01	1.60182852e-02	2.01759556e-04
3.39000000e-01	1.60178295e-02	2.02386423e-04
3.39500000e-01	1.60838945e-02	2.01966828e-04
3.40000000e-01	1.59789250e-02	2.01430146e-04
3.40500000e-01	1.60287175e-02	2.02218399e-04
3.41000000e-01	1.59620145e-02	2.00167103e-04
3.41500000e-01	1.60381538e-02	2.02178569e-04
3.42000000e-01	1.57910830e-02	1.98562218e-04
3.42500000e-01	1.59196244e-02	1.99564026e-04
3.43000000e-01	1.59958645e-02	1.99901351e-04
3.43500000e-01	1.59836351e-02	2.00174048e-04
3.44000000e-01	1.60006155e-02	2.00547661e-04
3.44500000e-01	1.58829299e-02	1.98964260e-04
3.45000000e-01	1.60134093e-02	2.00268017e-04
3.45500000e-01	1.59173307e-02	1.98788759e-04
3.46000000e-01	1.58871720e-02	1.98421050e-04
3.46500000e-01	1.59963929e-02	1.99182337e-04
3.47000000e-01	1.60281225e-02	1.99779004e-04
3.47500000e-01	1.59612723e-02	1.98725554e-04
3.48000000e-01	1.58506739e-02	1.97071252e-04
3.48500000e-01	1.58502358e-02	1.98337191e-04
3.49000000e-01	1.57520532e-02	1.95838777e-04
3.49500000e-01	1.58270242e-02	1.97138542e-04
3.50000000e-01	1.59735306e-02	1.62009077e-04
3.51000000e-01	1.58666641e-02	1.39023838e-04
3.52000000e-01	1.58444821e-02	1.38860834e-04
3.53000000e-01	1.58885905e-02	1.38601619e-04
3.54000000e-01	1.58830472e-02	1.38553550e-04
3.55000000e-01	1.59012441e-02	1.39019502e-04
3.56000000e-01	1.58665986e-02	1.38559155e-04
3.57000000e-01	1.58741014e-02	1.41335062e-04
3.58000000e-01	1.57561314e-02	1.41572492e-04
3.59000000e-01	1.55873939e-02	1.41892520e-04
3.60000000e-01	1.55408336e-02	1.41707060e-04
3.61000000e-01	1.57353356e-02	1.43752285e-04
3.62000000e-01	1.57106974e-02	1.44624840e-04
3.63000000e-01	1.55029663e-02	1.43357634e-04
3.64000000e-01	1.57074871e-02	1.45557807e-04
3.65000000e-01	1.54698033e-02	1.43671720e-04
3.66000000e-01	1.56448687e-02	1.43500793e-04
3.67000000e-01	1.55664823e-02	1.40944086e-04
3.68000000e-01	1.55708277e-02	1.40230448e-04
3.69000000e-01	1.54195790e-02	1.38075384e-04
3.70000000e-01	1.56366307e-02	1.38950990e-04
3.71000000e-01	1.56607278e-02	1.41201252e-04
3.72000000e-01	1.54439506e-02	1.40560664e-04
3.73000000e-01	1.53958208e-02	1.40301310e-04
3.74000000e-01	1.54625941e-02	1.40844264e-04
3.75000000e-01	1.55716519e-02	1.41837497e-04
3.76000000e-01	1.55021372e-02	1.40928390e-04
3.77000000e-01	1.54959459e-02	1.41697019e-04
3.78000000e-01	1.53693286e-02	1.40343201e-04
3.79000000e-01	1.53404160e-02	1.39911337e-04
3.80000000e-01	1.52773416e-02	1.39216261e-04
3.81000000e-01	1.53086621e-02	1.39380296e-04
3.82000000e-01	1.52357514e-02	1.38945424e-04
3.83000000e-01	1.53214572e-02	1.39328787e-04
3.84000000e-01	1.54288587e-02	1.40536108e-04
3.85000000e-01	1.52735375e-02	1.39318430e-04
3.86000000e-01	1.53283275e-02	1.39296609e-04
3.87000000e-01	1.53770296e-02	1.39747346e-04
3.88000000e-01	1.52759741e-02	1.38733318e-04
3.89000000e-01	1.52840346e-02	1.38597863e-04
3.90000000e-01	1.52477594e-02	1.38363547e-04
3.91000000e-01	1.53810999e-02	1.39595208e-04
3.92000000e-01	1.52688163e-02	1.38146005e-04
3.93000000e-01	1.52737589e-02	1.38180220e-04
3.94000000e-01	1.52217120e-02	1.38205302e-04
3.95000000e-01	1.51414268e-02	1.37227863e-04
3.96000000e-01	1.52211401e-02	1.37978253e-04
3.97000000e-01	1.52304149e-02	1.38173774e-04
3.98000000e-01	1.52295595e-02	1.38111163e-04
3.99000000e-01	1.53132259e-02	1.38975856e-04
4.00000000e-01	1.50364347e-02	1.36402500e-04
4.01000000e-01	1.51915853e-02	1.37583623e-04
4.02000000e-01	1.51149764e-02	1.37197373e-04
4.03000000e-01	1.50889872e-02	1.36796864e-04
4.04000000e-01	1.51024100e-02	1.36983058e-04
4.05000000e-01	1.50417347e-02	1.36338180e-04
4.06000000e-01	1.49491629e-02	1.35686935e-04
4.07000000e-01	1.49906252e-02	1.36123277e-04
4.08000000e-01	1.49750832e-02	1.35808126e-04
4.09000000e-01	1.50565712e-02	1.36681679e-04
4.10000000e-01	1.50831954e-02	1.36290432e-04
4.11000000e-01	1.49136163e-02	1.34817564e-04
4.12000000e-01	1.50331189e-02	1.35986185e-04
4.13000000e-01	1.49342300e-02	1.35166933e-04
4.14000000e-01	1.49480091e-02	1.35415998e-04
4.15000000e-01	1.49819350e-02	1.35551887e-04
4.16000000e-01	1.49614143e-02	1.35219273e-04
4.17000000e-01	1.49525907e-02	1.35059096e-04
4.18000000e-01	1.48994849e-02	1.36207440e-04
4.19000000e-01	1.50546073e-02	1.39403148e-04
4.20000000e-01	1.48703278e-02	1.37883496e-04
4.21000000e-01	1.50639271e-02	1.40265068e-04
4.22000000e-01	1.49870224e-02	1.40194118e-04
4.23000000e-01	1.50715830e-02	1.41207208e-04
4.24000000e-01	1.50141044e-02	1.41448777e-04
4.25000000e-01	1.51260514e-02	1.42146173e-04
4.26000000e-01	1.49343350e-02	1.40451484e-04
4.27000000e-01	1.48912583e-02	1.40542066e-04
4.28000000e-01	1.49269263e-02	1.40993819e-04
4.29000000e-01	1.49832220e-02	1.41746968e-04
4.30000000e-01	1.50414351e-02	1.42098856e-04
4.31000000e-01	1.50202713e-02	1.41809475e-04
4.32000000e-01	1.49550226e-02	1.41170114e-04
4.33000000e-01	1.48664388e-02	1.40700282e-04
4.34000000e-01	1.48002952e-02	1.40201088e-04
4.35000000e-01	1.47431852e-02	1.40031760e-04
4.36000000e-01	1.48386250e-02	1.40849302e-04
4.37000000e-01	1.46827345e-02	1.39729390e-04
4.38000000e-01	1.48689140e-02	1.41650832e-04
4.39000000e-01	1.46869462e-02	1.40589130e-04
4.40000000e-01	1.47444528e-02	1.40533745e-04
4.41000000e-01	1.48098238e-02	1.41318250e-04
4.42000000e-01	1.49706579e-02	1.43049060e-04
4.43000000e-01	1.48114000e-02	1.42309719e-04
4.44000000e-01	1.46505562e-02	1.40924419e-04
4.45000000e-01	1.47174248e-02	1.41727333e-04
4.46000000e-01	1.47189027e-02	1.41674006e-04
4.47000000e-01	1.47830326e-02	1.42166919e-04
4.48000000e-01	1.47086198e-02	1.41951211e-04
4.49000000e-01	1.47770687e-02	1.42844673e-04
4.50000000e-01	1.44985603e-02	1.40008291e-04
4.51000000e-01	1.48010358e-02	1.43098758e-04
4.52000000e-01	1.46762911e-02	1.41742375e-04
4.53000000e-01	1.47039790e-02	1.42401176e-04
4.54000000e-01	1.47733465e-02	1.43185103e-04
4.55000000e-01	1.47539089e-02	1.42757897e-04
4.56000000e-01	1.46477960e-02	1.42062642e-04
4.57000000e-01	1.47257971e-02	1.43126840e-04
4.58000000e-01	1.46207779e-02	1.42182729e-04
4.59000000e-01	1.46361357e-02	1.42507373e-04
4.60000000e-01	1.47237932e-02	1.43217636e-04
4.61000000e-01	1.46743967e-02	1.43197238e-04
4.62000000e-01	1.45380471e-02	1.41777061e-04
4.63000000e-01	1.45483370e-02	1.41994849e-04
4.64000000e-01	1.46627803e-02	1.43294046e-04
4.65000000e-01	1.46415230e-02	1.43212969e-04
4.66000000e-01	1.46408096e-02	1.43093433e-04
4.67000000e-01	1.46591124e-02	1.43636837e-04
4.68000000e-01	1.45131625e-02	1.42326378e-04
4.69000000e-01	1.45743863e-02	1.43320697e-04
4.70000000e-01	1.45383593e-02	1.42654453e-04
4.71000000e-01	1.46272597e-02	1.43205724e-04
4.72000000e-01	1.44959702e-02	1.42152340e-04
4.73000000e-01	1.44181665e-02	1.41627325e-04
4.74000000e-01	1.44755263e-02	1.41627175e-04
4.75000000e-01	1.44050776e-02	1.41420633e-04
4.76000000e-01	1.44685749e-02	1.41658346e-04
4.77000000e-01	1.44123725e-02	1.41239057e-04
4.78000000e-01	1.45926716e-02	1.43165356e-04
4.79000000e-01	1.44154005e-02	1.41565332e-04
4.80000000e-01	1.43505303e-02	1.40658106e-04
4.81000000e-01	1.42836506e-02	1.40711910e-04
4.82000000e-01	1.45467506e-02	1.42718488e-04
4.83000000e-01	1.42324652e-02	1.40240061e-04
4.84000000e-01	1.43294030e-02	1.41277905e-04
4.85000000e-01	1.43690106e-02	1.41848667e-04
4.86000000e-01	1.43510059e-02	1.41305452e-04
4.87000000e-01	1.43020860e-02	1.40946509e-04
4.88000000e-01	1.41159868e-02	1.39390337e-04
4.89000000e-01	1.42825126e-02	1.41033918e-04
4.90000000e-01	1.43119748e-02	1.41524035e-04
4.91000000e-01	1.41474944e-02	1.40421217e-04
4.92000000e-01	1.43833680e-02	1.42047947e-04
4.93000000e-01	1.43134343e-02	1.41730993e-04
4.94000000e-01	1.43516271e-02	1.41751718e-04
4.95000000e-01	1.43789467e-02	1.43796380e-04
4.96000000e-01	1.42101386e-02	1.45962836e-04
4.97000000e-01	1.42830553e-02	1.49640876e-04
4.98000000e-01	1.40898799e-02	1.50207375e-04
4.99000000e-01	1.43949531e-02	1.54310298e-04
5.00000000e-01	1.44035749e-02	1.55856746e-04
5.01000000e-01	1.44393863e-02	1.57412616e-04
5.02000000e-01	1.42636624e-02	1.58138899e-04
5.03000000e-01	1.44008402e-02	1.60323226e-04
5.04000000e-01	1.43360811e-02	1.61080975e-04
5.05000000e-01	1.43564755e-02	1.58827325e-04
5.06000000e-01	1.43056990e-02	1.55216044e-04
5.07000000e-01	1.43032501e-02	1.53466781e-04
5.08000000e-01	1.42903492e-02	1.52361607e-04
5.09000000e-01	1.43851454e-02	1.52105097e-04
5.10000000e-01	1.41186172e-02	1.49472730e-04
5.11000000e-01	1.41102858e-02	1.49076421e-04
5.12000000e-01	1.42464628e-02	1.49755425e-04
5.13000000e-01	1.41305978e-02	1.48802403e-04
5.14000000e-01	1.41504371e-02	1.48096732e-04
5.15000000e-01	1.43379376e-02	1.49671760e-04
5.16000000e-01	1.41087348e-02	1.47209063e-04
5.17000000e-01	1.39610965e-02	1.45684049e-04
5.18000000e-01	1.41601654e-02	1.47643691e-04
5.19000000e-01	1.40463840e-02	1.45800030e-04
5.20000000e-01	1.40450285e-02	1.45413347e-04
5.21000000e-01	1.39203074e-02	1.44159754e-04
5.22000000e-01	1.41246351e-02	1.46276214e-04
5.23000000e-01	1.40790310e-02	1.45678640e-04
5.24000000e-01	1.40309079e-02	1.45920925e-04
5.25000000e-01	1.40818956e-02	1.45531269e-04
5.26000000e-01	1.40636934e-02	1.44803247e-04
5.27000000e-01	1.39613106e-02	1.44115526e-04
5.28000000e-01	1.40091419e-02	1.44745858e-04
5.29000000e-01	1.39164960e-02	1.44456221e-04
5.30000000e-01	1.40826577e-02	1.45477741e-04
5.31000000e-01	1.40080635e-02	1.45310546e-04
5.32000000e-01	1.39214236e-02	1.43731930e-04
5.33000000e-01	1.39275731e-02	1.43565902e-04
5.34000000e-01	1.40697099e-02	1.45205935e-04
5.35000000e-01	1.39677068e-02	1.44375322e-04
5.36000000e-01	1.39186397e-02	1.43928693e-04
5.37000000e-01	1.38649764e-02	1.43805016e-04
5.38000000e-01	1.38334915e-02	1.43430107e-04
5.39000000e-01	1.38479247e-02	1.43132010e-04
5.40000000e-01	1.38220370e-02	1.42812789e-04
5.41000000e-01	1.39346967e-02	1.43762353e-04
5.42000000e-01	1.38817823e-02	1.43295528e-04
5.43000000e-01	1.39206271e-02	1.43711748e-04
5.44000000e-01	1.38190221e-02	1.42947822e-04
5.45000000e-01	1.39069748e-02	1.43640006e-04
5.46000000e-01	1.39101431e-02	1.43697866e-04
5.47000000e-01	1.37178084e-02	1.42283225e-04
5.48000000e-01	1.37393979e-02	1.42112822e-04
5.49000000e-01	1.38175979e-02	1.42737136e-04
5.50000000e-01	1.38136509e-02	1.42507300e-04
5.51000000e-01	1.37899505e-02	1.41723630e-04
5.52000000e-01	1.36604311e-02	1.41043133e-04
5.53000000e-01	1.38000870e-02	1.41372179e-04
5.54000000e-01	1.37924502e-02	1.41964243e-04
5.55000000e-01	1.38347103e-02	1.42063505e-04
5.56000000e-01	1.37935944e-02	1.41660532e-04
5.57000000e-01	1.38175526e-02	1.42011045e-04
5.58000000e-01	1.36521667e-02	1.39967970e-04
5.59000000e-01	1.36373272e-02	1.40287600e-04
5.60000000e-01	1.37281707e-02	1.41332568e-04
5.61000000e-01	1.36650735e-02	1.40364018e-04
5.62000000e-01	1.35526980e-02	1.40023591e-04
5.63000000e-01	1.37349969e-02	1.40842279e-04
5.64000000e-01	1.35263412e-02	1.39240436e-04
5.65000000e-01	1.35486431e-02	1.40257992e-04
5.66000000e-01	1.37672717e-02	1.41344453e-04
5.67000000e-01	1.36088097e-02	1.39926264e-04
5.68000000e-01	1.36207889e-02	1.40040534e-04
5.69000000e-01	1.36625446e-02	1.40281047e-04
5.70000000e-01	1.35365656e-02	1.39218786e-04
5.71000000e-01	1.35772866e-02	1.39194260e-04
5.72000000e-01	1.35397166e-02	1.39006421e-04
5.73000000e-01	1.35339851e-02	1.38986885e-04
5.74000000e-01	1.34678808e-02	1.38578627e-04
5.75000000e-01	1.35705991e-02	1.39500376e-04
5.76000000e-01	1.35187427e-02	1.39126332e-04
5.77000000e-01	1.34950928e-02	1.39407141e-04
5.78000000e-01	1.33981237e-02	1.37829271e-04
5.79000000e-01	1.33418038e-02	1.37643694e-04
5.80000000e-01	1.34718047e-02	1.38974837e-04
5.81000000e-01	1.34668356e-02	1.38487467e-04
5.82000000e-01	1.32805217e-02	1.37111927e-04
5.83000000e-01	1.33228489e-02	1.37873037e-04
5.84000000e-01	1.35197976e-02	1.38815027e-04
5.85000000e-01	1.33167278e-02	1.37694829e-04
5.86000000e-01	1.34156219e-02	1.38891092e-04
5.87000000e-01	1.34175211e-02	1.38386025e-04
5.88000000e-01	1.34316597e-02	1.38741344e-04
5.89000000e-01	1.33556372e-02	1.38083786e-04
5.90000000e-01	1.32631905e-02	1.37457993e-04
5.91000000e-01	1.33374773e-02	1.37898804e-04
5.92000000e-01	1.33583841e-02	1.37930241e-04
5.93000000e-01	1.33495833e-02	1.37765044e-04
5.94000000e-01	1.33150736e-02	1.37935126e-04
5.95000000e-01	1.34054922e-02	1.38685482e-04
5.96000000e-01	1.34266111e-02	1.39001376e-04
5.97000000e-01	1.33619119e-02	1.38505470e-04
5.98000000e-01	1.32583454e-02	1.37030506e-04
5.99000000e-01	1.33032475e-02	1.37916194e-04
6.00000000e-01	1.30689614e-02	1.35480141e-04
6.01000000e-01	1.31847717e-02	1.36506720e-04
6.02000000e-01	1.31299663e-02	1.36185606e-04
6.03000000e-01	1.32261365e-02	1.37428832e-04
6.04000000e-01	1.31693013e-02	1.36928893e-04
6.05000000e-01	1.32106949e-02	1.36859774e-04
6.06000000e-01	1.31450256e-02	1.36259208e-04
6.07000000e-01	1.32181964e-02	1.37143870e-04
6.08000000e-01	1.31168765e-02	1.36064253e-04
6.09000000e-01	1.31414731e-02	1.36549361e-04
6.10000000e-01	1.31811720e-02	1.36800635e-04
6.11000000e-01	1.31212634e-02	1.36458892e-04
6.12000000e-01	1.31184925e-02	1.35812033e-04
6.13000000e-01	1.30009919e-02	1.35430247e-04
6.14000000e-01	1.32433868e-02	1.37525837e-04
6.15000000e-01	1.31455276e-02	1.36229133e-04
6.16000000e-01	1.31139625e-02	1.36050277e-04
6.17000000e-01	1.31297912e-02	1.36448383e-04
6.18000000e-01	1.31888082e-02	1.36932287e-04
6.19000000e-01	1.31235338e-02	1.35854793e-04
6.20000000e-01	1.29062504e-02	1.34161145e-04
6.21000000e-01	1.30848365e-02	1.35740654e-04
6.22000000e-01	1.30192402e-02	1.34426939e-04
6.23000000e-01	1.30289715e-02	1.34770300e-04
6.24000000e-01	1.30396418e-02	1.34694042e-04
6.25000000e-01	1.29077288e-02	1.33177298e-04
6.26000000e-01	1.32068740e-02	1.35871610e-04
6.27000000e-01	1.31459362e-02	1.35466912e-04
6.28000000e-01	1.30890754e-02	1.34667595e-04
6.29000000e-01	1.31562814e-02	1.35390850e-04
6.30000000e-01	1.30443391e-02	1.34819034e-04
6.31000000e-01	1.29299258e-02	1.33373127e-04
6.32000000e-01	1.30109780e-02	1.34404100e-04
6.33000000e-01	1.28472032e-02	1.33048969e-04
6.34000000e-01	1.28301465e-02	1.35812983e-04
6.35000000e-01	1.30660201e-02	1.42158626e-04
6.36000000e-01	1.29688289e-02	1.43776489e-04
6.37000000e-01	1.29639334e-02	1.46345569e-04
6.38000000e-01	1.29978888e-02	1.48088615e-04
6.39000000e-01	1.29539042e-02	1.49988728e-04
6.40000000e-01	1.30016095e-02	1.52221750e-04
6.41000000e-01	1.29460550e-02	1.53106359e-04
6.42000000e-01	1.31733364e-02	1.57258970e-04
6.43000000e-01	1.30158715e-02	1.55454986e-04
6.44000000e-01	1.31368016e-02	1.50809806e-04
6.45000000e-01	1.30234773e-02	1.48346754e-04
6.46000000e-01	1.29995897e-02	1.46555129e-04
6.47000000e-01	1.30819689e-02	1.45753751e-04
6.48000000e-01	1.29876958e-02	1.43752603e-04
6.49000000e-01	1.29296024e-02	1.42848556e-04
6.50000000e-01	1.29236376e-02	1.42033930e-04
6.51000000e-01	1.32096531e-02	1.44966318e-04
6.52000000e-01	1.30156727e-02	1.41442639e-04
6.53000000e-01	1.30368202e-02	1.41637385e-04
6.54000000e-01	1.29641042e-02	1.40268286e-04
6.55000000e-01	1.31725222e-02	1.42007944e-04
6.56000000e-01	1.28734025e-02	1.38962065e-04
6.57000000e-01	1.29624862e-02	1.39484752e-04
6.58000000e-01	1.28798296e-02	1.38592445e-04
6.59000000e-01	1.30212829e-02	1.40213466e-04
6.60000000e-01	1.30206360e-02	1.39568044e-04
6.61000000e-01	1.29380215e-02	1.38713828e-04
6.62000000e-01	1.29279701e-02	1.38968629e-04
6.63000000e-01	1.29001375e-02	1.38957987e-04
6.64000000e-01	1.29780293e-02	1.39316742e-04
6.65000000e-01	1.29457716e-02	1.38796356e-04
6.66000000e-01	1.28153653e-02	1.37065456e-04
6.67000000e-01	1.29758754e-02	1.39187581e-04
6.68000000e-01	1.28552547e-02	1.37796303e-04
6.69000000e-01	1.29170272e-02	1.38563338e-04
6.70000000e-01	1.29664160e-02	1.38736120e-04
6.71000000e-01	1.28116745e-02	1.37400334e-04
6.72000000e-01	1.29457257e-02	1.38474346e-04
6.73000000e-01	1.28560803e-02	1.37595083e-04
6.74000000e-01	1.28762108e-02	1.37772057e-04
6.75000000e-01	1.27362513e-02	1.36557531e-04
6.76000000e-01	1.27953420e-02	1.36838885e-04
6.77000000e-01	1.28961212e-02	1.37382776e-04
6.78000000e-01	1.27561583e-02	1.36698189e-04
6.79000000e-01	1.28315127e-02	1.37244900e-04
6.80000000e-01	1.27750766e-02	1.36044910e-04
6.81000000e-01	1.26677787e-02	1.35287381e-04
6.82000000e-01	1.28383007e-02	1.37021584e-04
6.83000000e-01	1.28135424e-02	1.36621717e-04
6.84000000e-01	1.27008251e-02	1.35014002e-04
6.85000000e-01	1.28285527e-02	1.36546049e-04
6.86000000e-01	1.27822693e-02	1.36684363e-04
6.87000000e-01	1.28845603e-02	1.37503851e-04
6.88000000e-01	1.28096147e-02	1.36273133e-04
6.89000000e-01	1.27582386e-02	1.36028979e-04
6.90000000e-01	1.27562314e-02	1.36064890e-04
6.91000000e-01	1.26658372e-02	1.35239085e-04
6.92000000e-01	1.26482443e-02	1.34947125e-04
6.93000000e-01	1.27432466e-02	1.35725140e-04
6.94000000e-01	1.25744614e-02	1.34309616e-04
6.95000000e-01	1.27427073e-02	1.35551189e-04
6.96000000e-01	1.26751852e-02	1.35555695e-04
6.97000000e-01	1.25281498e-02	1.33499933e-04
6.98000000e-01	1.25022793e-02	1.33491526e-04
6.99000000e-01	1.26242286e-02	1.34823491e-04
7.00000000e-01	1.25929042e-02	1.34274288e-04
7.01000000e-01	1.24636373e-02	1.33250885e-04
7.02000000e-01	1.26477010e-02	1.34418072e-04
7.03000000e-01	1.25175087e-02	1.33243909e-04
7.04000000e-01	1.24471014e-02	1.33022110e-04
7.05000000e-01	1.26589608e-02	1.34799803e-04
7.06000000e-01	1.24790389e-02	1.32977524e-04
7.07000000e-01	1.24556431e-02	1.32919782e-04
7.08000000e-01	1.25494487e-02	1.32781181e-04
7.09000000e-01	1.25172872e-02	1.32853656e-04
7.10000000e-01	1.23729333e-02	1.31799644e-04
7.11000000e-01	1.24341985e-02	1.32760781e-04
7.12000000e-01	1.24345184e-02	1.32571204e-04
7.13000000e-01	1.25170291e-02	1.33486688e-04
7.14000000e-01	1.24083104e-02	1.32296815e-04
7.15000000e-01	1.23293591e-02	1.31536330e-04
7.16000000e-01	1.24227173e-02	1.32141284e-04
7.17000000e-01	1.22813066e-02	1.30940994e-04
7.18000000e-01	1.23454315e-02	1.31650752e-04
7.19000000e-01	1.24254375e-02	1.32538525e-04
7.20000000e-01	1.23817214e-02	1.31772647e-04
7.21000000e-01	1.22455906e-02	1.30714694e-04
7.22000000e-01	1.22865287e-02	1.31007255e-04
7.23000000e-01	1.23862284e-02	1.31362422e-04
7.24000000e-01	1.22869577e-02	1.31420601e-04
7.25000000e-01	1.23250943e-02	1.31378686e-04
7.26000000e-01	1.24137268e-02	1.32165427e-04
7.27000000e-01	1.24002443e-02	1.32136553e-04
7.28000000e-01	1.21868602e-02	1.29942211e-04
7.29000000e-01	1.22395860e-02	1.30444800e-04
7.30000000e-01	1.21729686e-02	1.30430348e-04
7.31000000e-01	1.23654984e-02	1.31945646e-04
7.32000000e-01	1.22537952e-02	1.31166037e-04
7.33000000e-01	1.22104776e-02	1.30279947e-04
7.34000000e-01	1.22256044e-02	1.30521921e-04
7.35000000e-01	1.21448576e-02	1.29381547e-04
7.36000000e-01	1.20907010e-02	1.28590101e-04
7.37000000e-01	1.20357033e-02	1.28120927e-04
7.38000000e-01	1.21378694e-02	1.28526579e-04
7.39000000e-01	1.20737323e-02	1.28192996e-04
7.40000000e-01	1.22127310e-02	1.29419217e-04
7.41000000e-01	1.21794913e-02	1.28499029e-04
7.42000000e-01	1.22367176e-02	1.29359849e-04
7.43000000e-01	1.21133870e-02	1.27600092e-04
7.44000000e-01	1.22376005e-02	1.29074737e-04
7.45000000e-01	1.20977100e-02	1.28190213e-04
7.46000000e-01	1.21194344e-02	1.27831222e-04
7.47000000e-01	1.21648117e-02	1.28818696e-04
7.48000000e-01	1.22089293e-02	1.29146168e-04
7.49000000e-01	1.22083217e-02	1.29207891e-04
7.50000000e-01	1.22147981e-02	1.28940686e-04
7.51000000e-01	1.20969035e-02	1.27884427e-04
7.52000000e-01	1.20477169e-02	1.27266535e-04
7.53000000e-01	1.20077032e-02	1.26860363e-04
7.54000000e-01	1.21123717e-02	1.28100135e-04
7.55000000e-01	1.20546092e-02	1.27717819e-04
7.56000000e-01	1.20632117e-02	1.27803973e-04
7.57000000e-01	1.19227868e-02	1.26796352e-04
7.58000000e-01	1.19634790e-02	1.26778155e-04
7.59000000e-01	1.20559980e-02	1.27085130e-04
7.60000000e-01	1.20407704e-02	1.27119834e-04
7.61000000e-01	1.19091441e-02	1.25425675e-04
7.62000000e-01	1.19511606e-02	1.25811152e-04
7.63000000e-01	1.19438788e-02	1.25375923e-04
7.64000000e-01	1.17533086e-02	1.23632413e-04
7.65000000e-01	1.18049669e-02	1.23675326e-04
7.66000000e-01	1.20014317e-02	1.25878317e-04
7.67000000e-01	1.18342286e-02	1.24510267e-04
7.68000000e-01	1.18267691e-02	1.24404384e-04
7.69000000e-01	1.17523625e-02	1.23361571e-04
7.70000000e-01	1.17832042e-02	1.23942395e-04
7.71000000e-01	1.18223484e-02	1.24305527e-04
7.72000000e-01	1.17286785e-02	1.26601454e-04
7.73000000e-01	1.17891196e-02	1.31655730e-04
7.74000000e-01	1.18038683e-02	1.34178563e-04
7.75000000e-01	1.18245517e-02	1.36659215e-04
7.76000000e-01	1.18261881e-02	1.38698976e-04
7.77000000e-01	1.16684020e-02	1.39954230e-04
7.78000000e-01	1.19071548e-02	1.43747439e-04
7.79000000e-01	1.17780151e-02	1.44119124e-04
7.80000000e-01	1.16776105e-02	1.44846131e-04
7.81000000e-01	1.17293050e-02	1.47035092e-04
7.82000000e-01	1.18173461e-02	1.49081657e-04
7.83000000e-01	1.17621801e-02	1.50641752e-04
7.84000000e-01	1.16100072e-02	1.50678801e-04
7.85000000e-01	1.17636612e-02	1.53396882e-04
7.86000000e-01	1.16520771e-02	1.54498558e-04
7.87000000e-01	1.17445529e-02	1.55986550e-04
7.88000000e-01	1.15778411e-02	1.55802062e-04
7.89000000e-01	1.17216294e-02	1.59604007e-04
7.90000000e-01	1.18051368e-02	1.62421538e-04
7.91000000e-01	1.16194836e-02	1.61372464e-04
7.92000000e-01	1.16002811e-02	1.62769232e-04
7.93000000e-01	1.16317895e-02	1.64895144e-04
7.94000000e-01	1.16628521e-02	1.67330114e-04
7.95000000e-01	1.15788734e-02	1.67994764e-04
7.96000000e-01	1.14843188e-02	1.67971430e-04
7.97000000e-01	1.15790979e-02	1.71241831e-04
7.98000000e-01	1.14102840e-02	1.70897030e-04
7.99000000e-01	1.15687331e-02	1.74486772e-04
8.00000000e-01	1.15204202e-02	1.75819691e-04
8.01000000e-01	1.15580095e-02	1.77617256e-04
8.02000000e-01	1.14384974e-02	1.77435095e-04
8.03000000e-01	1.15691163e-02	1.82335237e-04
8.04000000e-01	1.14183745e-02	1.81007598e-04
8.05000000e-01	1.16322447e-02	1.85308587e-04
8.06000000e-01	1.14617554e-02	1.86768953e-04
8.07000000e-01	1.13316008e-02	1.84867402e-04
8.08000000e-01	1.14604893e-02	1.90811286e-04
8.09000000e-01	1.13990636e-02	1.91686567e-04
8.10000000e-01	1.13584006e-02	1.93280813e-04
8.11000000e-01	1.16223928e-02	1.98943240e-04
8.12000000e-01	1.14324378e-02	2.00108078e-04
8.13000000e-01	1.13537768e-02	1.99368545e-04
8.14000000e-01	1.13242760e-02	2.01365701e-04
8.15000000e-01	1.14157057e-02	2.05022292e-04
8.16000000e-01	1.14857157e-02	2.08472937e-04
8.17000000e-01	1.13256834e-02	2.09443716e-04
8.18000000e-01	1.13842402e-02	2.12486426e-04
8.19000000e-01	1.14088406e-02	2.14158075e-04
8.20000000e-01	1.13017405e-02	2.14562651e-04
8.21000000e-01	1.12940646e-02	2.18758783e-04
8.22000000e-01	1.11826128e-02	2.19619100e-04
8.23000000e-01	1.10396754e-02	2.21229323e-04
8.24000000e-01	1.11841817e-02	2.25749271e-04
8.25000000e-01	1.12542081e-02	2.29569266e-04
8.26000000e-01	1.11689403e-02	2.32934953e-04
8.27000000e-01	1.07880177e-02	2.29230698e-04
8.28000000e-01	1.11953185e-02	2.37772873e-04
8.29000000e-01	1.09337408e-02	2.38933111e-04
8.30000000e-01	1.10670896e-02	2.43807064e-04
8.31000000e-01	1.11274573e-02	2.50595334e-04
8.32000000e-01	1.10368217e-02	2.52840192e-04
8.33000000e-01	1.10338754e-02	2.57403733e-04
8.34000000e-01	1.09584843e-02	2.58738166e-04
8.35000000e-01	1.11889400e-02	2.69361603e-04
8.36000000e-01	1.09095113e-02	2.68719071e-04
8.37000000e-01	1.10688605e-02	2.75850609e-04
8.38000000e-01	1.10912689e-02	2.82999135e-04
8.39000000e-01	1.06922962e-02	2.79326331e-04
8.40000000e-01	1.10044007e-02	2.91377501e-04
8.41000000e-01	1.09894597e-02	2.97456848e-04
8.42000000e-01	1.07548149e-02	2.99262835e-04
8.43000000e-01	1.09120883e-02	3.11760510e-04
8.44000000e-01	1.08738092e-02	3.18038365e-04
8.45000000e-01	1.07196744e-02	3.25252583e-04
8.46000000e-01	1.09014154e-02	3.33906891e-04
8.47000000e-01	1.08397788e-02	3.41718730e-04
8.48000000e-01	1.09599636e-02	3.57356599e-04
8.49000000e-01	1.07991341e-02	3.66720893e-04
8.50000000e-01	1.06139785e-02	3.70462890e-04
8.51000000e-01	1.10692075e-02	3.99802940e-04
8.52000000e-01	1.08271248e-02	4.12014606e-04
8.53000000e-01	1.07561275e-02	4.17068521e-04
8.54000000e-01	1.07043010e-02	4.42450829e-04
8.55000000e-01	1.09624700e-02	4.66393801e-04
8.56000000e-01	1.07748840e-02	4.71854054e-04
8.57000000e-01	1.06236090e-02	4.86208762e-04
8.58000000e-01	1.03128856e-02	4.83796026e-04
8.59000000e-01	1.10349982e-02	5.21369418e-04
8.60000000e-01	1.05662020e-02	5.20567867e-04
8.61000000e-01	1.04621837e-02	5.27237299e-04
8.62000000e-01	1.05477766e-02	5.53694290e-04
8.63000000e-01	1.03510386e-02	5.79503793e-04
8.64000000e-01	1.06241935e-02	6.15075608e-04
8.65000000e-01	1.12984484e-02	6.75876180e-04
8.66000000e-01	1.01053238e-02	6.28582733e-04
8.67000000e-01	1.06497805e-02	7.19878630e-04
8.68000000e-01	1.07031543e-02	7.59104060e-04
8.69000000e-01	1.05870007e-02	8.09312092e-04
8.70000000e-01	1.06496072e-02	8.80024402e-04
8.71000000e-01	1.04724437e-02	9.60557667e-04
8.72000000e-01	1.04546599e-02	1.09998208e-03
8.73000000e-01	1.05864218e-02	1.28499336e-03
8.74000000e-01	1.09281292e-02	1.77525534e-03
8.75000000e-01	1.41121955e-02	4.54590216e-03
