% Filename : SDL3_p7_00019_00012.h5
% Date & Time : 30-Oct-2025 16:39:12
% X-ray Energy (keV) : 13.30001
% Exposure Time (s) : 0.500
% Beam Center : 1461.24000, 208.98300
% Sample to Detector Distance (SDD) (mm) : 1990.750
% Detector Pixel Size (mm) : 0.075
% Photodiode Value : 140739.000
% I0 of Sample : 0
% I0 of Standard : 1
% 
% q(A^-1)   I(q)    I(q)_SE
0.00000000e+00	8.98594607e-03	4.97178492e-03
2.50000000e-04	0.00000000e+00	0.00000000e+00
5.00000000e-04	0.00000000e+00	0.00000000e+00
7.50000000e-04	0.00000000e+00	0.00000000e+00
1.00000000e-03	0.00000000e+00	0.00000000e+00
1.25000000e-03	0.00000000e+00	0.00000000e+00
1.50000000e-03	0.00000000e+00	0.00000000e+00
1.75000000e-03	0.00000000e+00	0.00000000e+00
2.00000000e-03	0.00000000e+00	0.00000000e+00
2.25000000e-03	0.00000000e+00	0.00000000e+00
2.50000000e-03	0.00000000e+00	0.00000000e+00
2.75000000e-03	0.00000000e+00	0.00000000e+00
3.00000000e-03	0.00000000e+00	0.00000000e+00
3.25000000e-03	4.36612443e+01	2.53677525e+01
3.50000000e-03	1.63061248e+01	5.77593304e+00
3.75000000e-03	1.06864234e+01	3.51061854e+00
4.00000000e-03	8.59185771e+00	2.63250883e+00
4.25000000e-03	4.65033343e+00	1.34495689e+00
4.50000000e-03	6.70885499e+00	1.67051628e+00
4.75000000e-03	7.48972921e+00	1.73240686e+00
5.00000000e-03	5.77072313e+00	1.29177973e+00
5.25000000e-03	4.83800839e+00	1.06536501e+00
5.50000000e-03	3.91979432e+00	8.41100954e-01
5.75000000e-03	3.34320709e+00	7.01371946e-01
6.00000000e-03	2.71235635e+00	5.52617034e-01
6.25000000e-03	2.35992086e+00	4.72184310e-01
6.50000000e-03	1.98937090e+00	3.93706503e-01
6.75000000e-03	1.72426838e+00	3.36986148e-01
7.00000000e-03	1.48218765e+00	2.79090880e-01
7.25000000e-03	1.29394638e+00	2.39596492e-01
7.50000000e-03	1.09571218e+00	2.03516858e-01
7.75000000e-03	9.81691240e-01	1.78275696e-01
8.00000000e-03	8.91397880e-01	1.58204910e-01
8.25000000e-03	7.64136004e-01	1.32853882e-01
8.50000000e-03	6.86870034e-01	1.15545500e-01
8.75000000e-03	6.31561591e-01	1.04931745e-01
9.00000000e-03	5.63183791e-01	9.22876313e-02
9.25000000e-03	4.96841412e-01	7.97191620e-02
9.50000000e-03	4.42831380e-01	6.92870921e-02
9.75000000e-03	3.98438497e-01	6.14987253e-02
1.00000000e-02	3.46566377e-01	5.34024168e-02
1.02500000e-02	3.30067680e-01	5.09032535e-02
1.05000000e-02	2.98407867e-01	4.41181474e-02
1.07500000e-02	2.75047377e-01	4.03618816e-02
1.10000000e-02	2.42785295e-01	3.43687575e-02
1.12500000e-02	2.20942058e-01	3.11474635e-02
1.15000000e-02	2.15766211e-01	2.96560431e-02
1.17500000e-02	1.82694485e-01	2.44939920e-02
1.20000000e-02	1.77263560e-01	2.37965458e-02
1.22500000e-02	1.69550213e-01	2.18641545e-02
1.25000000e-02	1.62041113e-01	2.03227283e-02
1.27500000e-02	1.46143348e-01	1.79365726e-02
1.30000000e-02	1.41114502e-01	1.72234986e-02
1.32500000e-02	1.26472277e-01	1.46568175e-02
1.35000000e-02	1.21308981e-01	1.40463739e-02
1.37500000e-02	1.14882658e-01	1.29534610e-02
1.40000000e-02	1.07662376e-01	1.18750421e-02
1.42500000e-02	9.90179016e-02	1.07048422e-02
1.45000000e-02	9.64048857e-02	1.00816715e-02
1.47500000e-02	9.06148789e-02	9.49817118e-03
1.50000000e-02	8.75921459e-02	8.89287264e-03
1.52500000e-02	8.36591357e-02	8.36296620e-03
1.55000000e-02	7.72608787e-02	7.50042181e-03
1.57500000e-02	7.44692800e-02	7.14853400e-03
1.60000000e-02	7.16340545e-02	6.79486418e-03
1.62500000e-02	6.94016231e-02	6.58158214e-03
1.65000000e-02	6.60597355e-02	5.87321918e-03
1.67500000e-02	6.17420374e-02	5.40524467e-03
1.70000000e-02	6.07070357e-02	5.22427183e-03
1.72500000e-02	5.88437957e-02	4.93582788e-03
1.75000000e-02	5.63656135e-02	4.55788556e-03
1.77500000e-02	5.27079432e-02	4.29026112e-03
1.80000000e-02	5.19475467e-02	4.18923595e-03
1.82500000e-02	5.08252303e-02	3.85816386e-03
1.85000000e-02	5.03500283e-02	3.92590765e-03
1.87500000e-02	4.95445417e-02	3.72133338e-03
1.90000000e-02	4.68413962e-02	3.46679554e-03
1.92500000e-02	4.54300424e-02	3.38561285e-03
1.95000000e-02	4.40058292e-02	3.15497144e-03
1.97500000e-02	4.40053125e-02	3.08714423e-03
2.00000000e-02	4.15132054e-02	2.80301649e-03
2.02500000e-02	4.03159111e-02	2.67889045e-03
2.05000000e-02	3.95064860e-02	2.52372371e-03
2.07500000e-02	4.07964241e-02	2.61725758e-03
2.10000000e-02	3.92182065e-02	2.52108280e-03
2.12500000e-02	3.76871367e-02	2.42653172e-03
2.15000000e-02	3.72016935e-02	2.32960561e-03
2.17500000e-02	3.76558100e-02	2.36883709e-03
2.20000000e-02	3.72398023e-02	2.33941102e-03
2.22500000e-02	3.60025374e-02	2.20883315e-03
2.25000000e-02	3.55957346e-02	2.18924181e-03
2.27500000e-02	3.48370376e-02	2.16951862e-03
2.30000000e-02	3.41875836e-02	2.01048958e-03
2.32500000e-02	3.40190927e-02	1.98803915e-03
2.35000000e-02	3.45445979e-02	2.03117549e-03
2.37500000e-02	3.41983168e-02	2.01078408e-03
2.40000000e-02	3.32972740e-02	1.95986047e-03
2.42500000e-02	3.23897641e-02	1.86815355e-03
2.45000000e-02	3.25504950e-02	1.83425963e-03
2.47500000e-02	3.24636101e-02	1.78872656e-03
2.50000000e-02	3.15931178e-02	1.73978333e-03
2.52500000e-02	3.05990441e-02	1.70472638e-03
2.55000000e-02	3.15199750e-02	1.72324241e-03
2.57500000e-02	3.00471190e-02	1.64316124e-03
2.60000000e-02	3.00966564e-02	1.64112265e-03
2.62500000e-02	3.01085888e-02	1.63348886e-03
2.65000000e-02	3.02556088e-02	1.61738581e-03
2.67500000e-02	3.02530512e-02	1.60185105e-03
2.70000000e-02	2.83451604e-02	1.48598168e-03
2.72500000e-02	2.95529677e-02	1.54135521e-03
2.75000000e-02	2.86197233e-02	1.49736353e-03
2.77500000e-02	2.97373797e-02	1.54878962e-03
2.80000000e-02	2.83525715e-02	1.43940668e-03
2.82500000e-02	2.83303050e-02	1.42547041e-03
2.85000000e-02	2.79177111e-02	1.42355554e-03
2.87500000e-02	2.80521572e-02	1.44765890e-03
2.90000000e-02	2.81102695e-02	1.40572952e-03
2.92500000e-02	2.88700337e-02	1.42153444e-03
2.95000000e-02	2.87499408e-02	1.46796144e-03
2.97500000e-02	2.80702075e-02	1.39368271e-03
3.00000000e-02	2.80064586e-02	1.37599362e-03
3.02500000e-02	2.80611579e-02	1.38697249e-03
3.05000000e-02	2.74937566e-02	1.33010700e-03
3.07500000e-02	2.82856101e-02	1.36243762e-03
3.10000000e-02	2.75755658e-02	1.33107556e-03
3.12500000e-02	2.77073564e-02	1.34626751e-03
3.15000000e-02	2.61709954e-02	1.27200097e-03
3.17500000e-02	2.68963960e-02	1.27174212e-03
3.20000000e-02	2.72038576e-02	1.30565406e-03
3.22500000e-02	2.60504714e-02	1.24538213e-03
3.25000000e-02	2.75478957e-02	1.31715428e-03
3.27500000e-02	2.62695031e-02	1.24836067e-03
3.30000000e-02	2.59835460e-02	1.21483785e-03
3.32500000e-02	2.65609243e-02	1.23203497e-03
3.35000000e-02	2.56023744e-02	1.20219813e-03
3.37500000e-02	2.59786290e-02	1.20710534e-03
3.40000000e-02	2.59802912e-02	1.22102708e-03
3.42500000e-02	2.51504898e-02	1.15928661e-03
3.45000000e-02	2.54557138e-02	1.19573723e-03
3.47500000e-02	2.51511299e-02	1.15883622e-03
3.50000000e-02	2.49632238e-02	1.14835702e-03
3.52500000e-02	2.52022131e-02	1.17981737e-03
3.55000000e-02	2.46926572e-02	1.12269969e-03
3.57500000e-02	2.49466717e-02	1.14337734e-03
3.60000000e-02	2.48969982e-02	1.12532203e-03
3.62500000e-02	2.45594369e-02	1.12413076e-03
3.65000000e-02	2.47154132e-02	1.12023600e-03
3.67500000e-02	2.39298920e-02	1.07876716e-03
3.70000000e-02	2.39089315e-02	1.08694241e-03
3.72500000e-02	2.38002808e-02	1.07116358e-03
3.75000000e-02	2.38250502e-02	1.07781337e-03
3.77500000e-02	2.41499395e-02	1.08971370e-03
3.80000000e-02	2.35690014e-02	1.04912593e-03
3.82500000e-02	2.42169206e-02	1.07269296e-03
3.85000000e-02	2.37799716e-02	1.05957084e-03
3.87500000e-02	2.36225553e-02	1.04425093e-03
3.90000000e-02	2.33895090e-02	1.04567936e-03
3.92500000e-02	2.36344846e-02	1.03923233e-03
3.95000000e-02	2.37290277e-02	1.04496443e-03
3.97500000e-02	2.34098619e-02	1.03054370e-03
4.00000000e-02	2.35313019e-02	1.04397863e-03
4.02500000e-02	2.32464586e-02	1.01548567e-03
4.05000000e-02	2.26429854e-02	9.84536793e-04
4.07500000e-02	2.32194465e-02	1.01501813e-03
4.10000000e-02	2.36705415e-02	1.03461523e-03
4.12500000e-02	2.32589661e-02	1.00997412e-03
4.15000000e-02	2.31534307e-02	1.00075410e-03
4.17500000e-02	2.31299515e-02	9.93928641e-04
4.20000000e-02	2.30173897e-02	9.85562892e-04
4.22500000e-02	2.31165152e-02	9.90587907e-04
4.25000000e-02	2.31080065e-02	9.84209668e-04
4.27500000e-02	2.33508106e-02	9.91702993e-04
4.30000000e-02	2.26202914e-02	9.60701736e-04
4.32500000e-02	2.31572042e-02	9.84582758e-04
4.35000000e-02	2.31268060e-02	9.87088699e-04
4.37500000e-02	2.27608225e-02	9.55904034e-04
4.40000000e-02	2.32153835e-02	9.81523578e-04
4.42500000e-02	2.26764180e-02	9.62892265e-04
4.45000000e-02	2.25429465e-02	9.43237132e-04
4.47500000e-02	2.26597826e-02	9.44800586e-04
4.50000000e-02	2.23505068e-02	9.42400211e-04
4.52500000e-02	2.31405517e-02	9.63669927e-04
4.55000000e-02	2.31930889e-02	9.68588462e-04
4.57500000e-02	2.21613416e-02	9.21320720e-04
4.60000000e-02	2.25288653e-02	9.37798724e-04
4.62500000e-02	2.28108851e-02	9.40601962e-04
4.65000000e-02	2.22919702e-02	9.15675066e-04
4.67500000e-02	2.23525390e-02	9.19520637e-04
4.70000000e-02	2.25866749e-02	9.28106715e-04
4.72500000e-02	2.30677917e-02	9.48011258e-04
4.75000000e-02	2.22607678e-02	9.14741076e-04
4.77500000e-02	2.26090906e-02	9.15581329e-04
4.80000000e-02	2.18305093e-02	8.90927810e-04
4.82500000e-02	2.20657101e-02	8.92249263e-04
4.85000000e-02	2.28215377e-02	9.34089905e-04
4.87500000e-02	2.29323757e-02	9.23192491e-04
4.90000000e-02	2.23883730e-02	8.89628515e-04
4.92500000e-02	2.21855148e-02	8.92585097e-04
4.95000000e-02	2.21687008e-02	8.92383767e-04
4.97500000e-02	2.24596902e-02	9.05793806e-04
5.00000000e-02	2.13134790e-02	8.61074808e-04
5.02500000e-02	2.20233999e-02	8.76790905e-04
5.05000000e-02	2.18231456e-02	8.63721391e-04
5.07500000e-02	2.17572390e-02	8.68574131e-04
5.10000000e-02	2.25035521e-02	8.91328364e-04
5.12500000e-02	2.16948287e-02	8.62858507e-04
5.15000000e-02	2.25167167e-02	8.89178888e-04
5.17500000e-02	2.20158776e-02	8.77718402e-04
5.20000000e-02	2.19608092e-02	8.60248387e-04
5.22500000e-02	2.19663275e-02	8.75235061e-04
5.25000000e-02	2.19354004e-02	8.57426478e-04
5.27500000e-02	2.17938348e-02	8.50900682e-04
5.30000000e-02	2.16573162e-02	8.53796436e-04
5.32500000e-02	2.19693371e-02	8.55005310e-04
5.35000000e-02	2.20213310e-02	8.60581989e-04
5.37500000e-02	2.10946386e-02	8.21938048e-04
5.40000000e-02	2.18172959e-02	8.53305572e-04
5.42500000e-02	2.19271203e-02	8.42902335e-04
5.45000000e-02	2.11698832e-02	8.23203303e-04
5.47500000e-02	2.12417760e-02	8.25034176e-04
5.50000000e-02	2.18765113e-02	8.43145074e-04
5.52500000e-02	2.12584796e-02	8.21109975e-04
5.55000000e-02	2.13388140e-02	8.16671393e-04
5.57500000e-02	2.20060789e-02	8.51155074e-04
5.60000000e-02	2.20809210e-02	8.46064571e-04
5.62500000e-02	2.10467639e-02	8.17915779e-04
5.65000000e-02	2.18869672e-02	8.30866457e-04
5.67500000e-02	2.19083007e-02	8.40392487e-04
5.70000000e-02	2.11208734e-02	8.02836328e-04
5.72500000e-02	2.12474070e-02	8.02612864e-04
5.75000000e-02	2.13673970e-02	8.18603078e-04
5.77500000e-02	2.17200459e-02	8.14271113e-04
5.80000000e-02	2.14751582e-02	8.15180638e-04
5.82500000e-02	2.09086766e-02	7.90810342e-04
5.85000000e-02	2.10554388e-02	7.99570271e-04
5.87500000e-02	2.12299501e-02	7.96000435e-04
5.90000000e-02	2.11030736e-02	7.97193288e-04
5.92500000e-02	2.05910271e-02	7.72158562e-04
5.95000000e-02	2.13273197e-02	7.98731842e-04
5.97500000e-02	2.19644962e-02	8.18676254e-04
6.00000000e-02	2.13834273e-02	7.95499828e-04
6.02500000e-02	2.08359862e-02	7.80122458e-04
6.05000000e-02	2.12213894e-02	7.87909242e-04
6.07500000e-02	2.11194699e-02	7.88120307e-04
6.10000000e-02	2.10501839e-02	7.83725709e-04
6.12500000e-02	2.13471839e-02	7.83893181e-04
6.15000000e-02	2.03996567e-02	7.46680456e-04
6.17500000e-02	2.08075407e-02	7.64322419e-04
6.20000000e-02	2.13535487e-02	7.88889702e-04
6.22500000e-02	2.16376744e-02	7.95399226e-04
6.25000000e-02	2.06241718e-02	7.53693544e-04
6.27500000e-02	2.05885132e-02	7.43133731e-04
6.30000000e-02	2.12503908e-02	7.71958506e-04
6.32500000e-02	2.08908730e-02	7.61461587e-04
6.35000000e-02	2.12638825e-02	7.73188335e-04
6.37500000e-02	2.16582945e-02	7.86740890e-04
6.40000000e-02	2.07992837e-02	7.58117186e-04
6.42500000e-02	2.12145869e-02	7.65637228e-04
6.45000000e-02	2.10136657e-02	7.60893903e-04
6.47500000e-02	2.08086772e-02	7.55552653e-04
6.50000000e-02	2.12208923e-02	7.72673696e-04
6.52500000e-02	2.12956636e-02	7.68487971e-04
6.55000000e-02	2.08485605e-02	7.47990173e-04
6.57500000e-02	2.04162457e-02	7.34974673e-04
6.60000000e-02	2.11833455e-02	7.57582979e-04
6.62500000e-02	2.09256826e-02	7.53704717e-04
6.65000000e-02	2.01802961e-02	7.23115758e-04
6.67500000e-02	2.03939294e-02	7.29404604e-04
6.70000000e-02	2.09791897e-02	7.55162822e-04
6.72500000e-02	2.03852444e-02	7.27585246e-04
6.75000000e-02	2.12512727e-02	7.56881293e-04
6.77500000e-02	2.06399649e-02	7.35359620e-04
6.80000000e-02	2.11179636e-02	7.46835884e-04
6.82500000e-02	2.10085783e-02	7.41105390e-04
6.85000000e-02	2.12854127e-02	7.55623875e-04
6.87500000e-02	2.04762053e-02	7.20498985e-04
6.90000000e-02	2.05727077e-02	7.25492306e-04
6.92500000e-02	2.02255252e-02	7.13899114e-04
6.95000000e-02	2.13965952e-02	7.60148515e-04
6.97500000e-02	2.08710512e-02	7.34675114e-04
7.00000000e-02	2.05227920e-02	7.20972335e-04
7.02500000e-02	2.08132021e-02	7.24922383e-04
7.05000000e-02	2.09745317e-02	7.25287478e-04
7.07500000e-02	2.09796184e-02	7.35762975e-04
7.10000000e-02	2.07151930e-02	7.22811882e-04
7.12500000e-02	2.08031285e-02	7.24550795e-04
7.15000000e-02	2.06421019e-02	7.13611672e-04
7.17500000e-02	2.07697855e-02	7.19691078e-04
7.20000000e-02	2.06033621e-02	7.11884522e-04
7.22500000e-02	2.03969957e-02	6.99988987e-04
7.25000000e-02	2.09289827e-02	7.18527332e-04
7.27500000e-02	2.11180950e-02	7.30906949e-04
7.30000000e-02	2.05756406e-02	7.07206744e-04
7.32500000e-02	2.06055320e-02	7.05809959e-04
7.35000000e-02	2.04355948e-02	7.06394599e-04
7.37500000e-02	2.09730954e-02	7.17522407e-04
7.40000000e-02	2.04506072e-02	6.97274638e-04
7.42500000e-02	2.10198969e-02	7.17774014e-04
7.45000000e-02	2.02985766e-02	6.94266004e-04
7.47500000e-02	2.01809449e-02	6.84307882e-04
7.50000000e-02	2.11766693e-02	7.15851848e-04
7.52500000e-02	2.06116131e-02	7.01503342e-04
7.55000000e-02	2.00234389e-02	6.78932702e-04
7.57500000e-02	2.08242053e-02	7.03027588e-04
7.60000000e-02	2.02487734e-02	6.89580156e-04
7.62500000e-02	2.02348157e-02	6.89606583e-04
7.65000000e-02	2.04446183e-02	6.87421279e-04
7.67500000e-02	2.03604391e-02	6.82003714e-04
7.70000000e-02	2.04116020e-02	6.78144649e-04
7.72500000e-02	2.06857916e-02	7.06807929e-04
7.75000000e-02	2.02529982e-02	6.99147250e-04
7.77500000e-02	2.05555701e-02	7.14136737e-04
7.80000000e-02	2.05927330e-02	7.17592664e-04
7.82500000e-02	2.07048063e-02	7.21126066e-04
7.85000000e-02	2.06347973e-02	7.31851773e-04
7.87500000e-02	2.11002442e-02	7.39285205e-04
7.90000000e-02	2.03309293e-02	7.15629122e-04
7.92500000e-02	2.03116421e-02	7.18475418e-04
7.95000000e-02	2.04864057e-02	7.26751266e-04
7.97500000e-02	2.10844919e-02	7.47692011e-04
8.00000000e-02	2.08007846e-02	7.42593507e-04
8.02500000e-02	2.10144575e-02	7.50124229e-04
8.05000000e-02	2.01209836e-02	7.25655192e-04
8.07500000e-02	2.06432989e-02	7.44802413e-04
8.10000000e-02	2.01801713e-02	7.27596721e-04
8.12500000e-02	2.08369074e-02	7.60412022e-04
8.15000000e-02	2.03933772e-02	7.38623542e-04
8.17500000e-02	2.02143256e-02	7.36940985e-04
8.20000000e-02	2.02351323e-02	7.42813425e-04
8.22500000e-02	2.04220780e-02	7.42837280e-04
8.25000000e-02	2.08979526e-02	7.54935491e-04
8.27500000e-02	2.07123093e-02	7.55402000e-04
8.30000000e-02	2.03511667e-02	7.43858610e-04
8.32500000e-02	1.99587733e-02	7.33164125e-04
8.35000000e-02	2.05979961e-02	7.63390548e-04
8.37500000e-02	2.04908573e-02	7.43782434e-04
8.40000000e-02	2.00720443e-02	7.40598667e-04
8.42500000e-02	1.99745265e-02	7.41400050e-04
8.45000000e-02	2.04280299e-02	7.58297771e-04
8.47500000e-02	1.98699613e-02	7.41773238e-04
8.50000000e-02	1.97475475e-02	7.25618269e-04
8.52500000e-02	2.11221615e-02	7.78632664e-04
8.55000000e-02	2.04159445e-02	7.51137977e-04
8.57500000e-02	1.99077995e-02	7.37105617e-04
8.60000000e-02	1.99794082e-02	7.43042183e-04
8.62500000e-02	2.03962337e-02	7.53061410e-04
8.65000000e-02	2.04295718e-02	7.60125619e-04
8.67500000e-02	2.00292357e-02	7.39796808e-04
8.70000000e-02	2.04222032e-02	7.40205089e-04
8.72500000e-02	2.00292928e-02	7.12429476e-04
8.75000000e-02	2.02450687e-02	7.18429938e-04
8.77500000e-02	2.06385524e-02	7.21775796e-04
8.80000000e-02	1.97462267e-02	6.95020914e-04
8.82500000e-02	2.03383838e-02	7.08149611e-04
8.85000000e-02	1.98774026e-02	6.97300383e-04
8.87500000e-02	2.07097132e-02	7.07738809e-04
8.90000000e-02	2.00150666e-02	6.89398149e-04
8.92500000e-02	2.01721868e-02	6.90492272e-04
8.95000000e-02	2.02858584e-02	6.95205207e-04
8.97500000e-02	2.06217078e-02	7.02999750e-04
9.00000000e-02	2.03198329e-02	6.91807448e-04
9.02500000e-02	2.02888087e-02	6.91034101e-04
9.05000000e-02	2.04041912e-02	6.96884728e-04
9.07500000e-02	1.94850216e-02	6.62868715e-04
9.10000000e-02	2.04142263e-02	6.80035239e-04
9.12500000e-02	1.97550765e-02	6.62322419e-04
9.15000000e-02	2.06242051e-02	6.88400375e-04
9.17500000e-02	2.02514746e-02	6.82441179e-04
9.20000000e-02	1.97040585e-02	6.57028934e-04
9.22500000e-02	2.03533780e-02	6.75100243e-04
9.25000000e-02	2.05227446e-02	6.81342160e-04
9.27500000e-02	2.01886357e-02	6.69435600e-04
9.30000000e-02	2.00036461e-02	6.62677552e-04
9.32500000e-02	2.01357085e-02	6.69283741e-04
9.35000000e-02	2.03505900e-02	6.70149406e-04
9.37500000e-02	1.98921705e-02	6.49790572e-04
9.40000000e-02	2.00040437e-02	6.55468235e-04
9.42500000e-02	2.01542514e-02	6.60679589e-04
9.45000000e-02	2.03546085e-02	6.63249824e-04
9.47500000e-02	1.98206571e-02	6.46231076e-04
9.50000000e-02	1.96401383e-02	6.40802272e-04
9.52500000e-02	1.93148925e-02	6.32976286e-04
9.55000000e-02	2.04717638e-02	6.63607168e-04
9.57500000e-02	2.00092284e-02	6.49389963e-04
9.60000000e-02	1.93484513e-02	6.27224427e-04
9.62500000e-02	1.98634657e-02	6.42668632e-04
9.65000000e-02	2.01967826e-02	6.50423492e-04
9.67500000e-02	2.03816435e-02	6.50908924e-04
9.70000000e-02	1.98981579e-02	6.36699796e-04
9.72500000e-02	1.98371213e-02	6.40009449e-04
9.75000000e-02	2.02202913e-02	6.49276521e-04
9.77500000e-02	2.01559715e-02	6.39677401e-04
9.80000000e-02	2.02101839e-02	6.44703033e-04
9.82500000e-02	1.96181034e-02	6.30279604e-04
9.85000000e-02	1.98891017e-02	6.31572048e-04
9.87500000e-02	1.92761268e-02	6.14450380e-04
9.90000000e-02	1.99945116e-02	6.29738503e-04
9.92500000e-02	1.99863146e-02	6.35630632e-04
9.95000000e-02	1.99907769e-02	6.34566848e-04
9.97500000e-02	1.98910709e-02	6.30538305e-04
1.00000000e-01	1.99488735e-02	5.12133787e-04
1.00500000e-01	1.97796543e-02	4.41848528e-04
1.01000000e-01	1.99898454e-02	4.42734492e-04
1.01500000e-01	1.96915954e-02	4.35535896e-04
1.02000000e-01	1.97071176e-02	4.34377706e-04
1.02500000e-01	1.99177865e-02	4.36998194e-04
1.03000000e-01	1.99426412e-02	4.39062557e-04
1.03500000e-01	2.00332544e-02	4.35934692e-04
1.04000000e-01	1.97463350e-02	4.31387261e-04
1.04500000e-01	1.98307875e-02	4.29056546e-04
1.05000000e-01	1.97752630e-02	4.30332157e-04
1.05500000e-01	1.97643076e-02	4.29361819e-04
1.06000000e-01	1.98458673e-02	4.26332574e-04
1.06500000e-01	1.99097957e-02	4.30250639e-04
1.07000000e-01	1.97045629e-02	4.31384737e-04
1.07500000e-01	1.96135887e-02	4.36549844e-04
1.08000000e-01	2.00139513e-02	4.48925467e-04
1.08500000e-01	1.98636227e-02	4.44445552e-04
1.09000000e-01	1.96853910e-02	4.47071810e-04
1.09500000e-01	1.96981811e-02	4.50156191e-04
1.10000000e-01	1.98581036e-02	4.45060906e-04
1.10500000e-01	1.99291753e-02	4.41154584e-04
1.11000000e-01	1.95992132e-02	4.25743730e-04
1.11500000e-01	1.99208170e-02	4.33351984e-04
1.12000000e-01	1.97515888e-02	4.21359104e-04
1.12500000e-01	1.96133335e-02	4.18244261e-04
1.13000000e-01	1.96089217e-02	4.17264918e-04
1.13500000e-01	1.94464100e-02	4.11172972e-04
1.14000000e-01	1.98176369e-02	4.17561087e-04
1.14500000e-01	1.97232146e-02	4.15545658e-04
1.15000000e-01	1.99374285e-02	4.15719338e-04
1.15500000e-01	1.98207787e-02	4.12473062e-04
1.16000000e-01	1.99485064e-02	4.12872836e-04
1.16500000e-01	1.96770963e-02	4.09520526e-04
1.17000000e-01	1.94059860e-02	4.03909642e-04
1.17500000e-01	2.02765797e-02	4.17859740e-04
1.18000000e-01	1.98393978e-02	4.08766908e-04
1.18500000e-01	1.97449554e-02	4.04087095e-04
1.19000000e-01	1.95754159e-02	4.01956254e-04
1.19500000e-01	1.96488245e-02	4.03099880e-04
1.20000000e-01	1.98748373e-02	4.04841113e-04
1.20500000e-01	1.96441503e-02	4.02733519e-04
1.21000000e-01	1.98743948e-02	4.02934604e-04
1.21500000e-01	1.97089868e-02	4.00542391e-04
1.22000000e-01	1.96175398e-02	3.96583394e-04
1.22500000e-01	1.98039438e-02	3.98933619e-04
1.23000000e-01	1.96849434e-02	3.96653875e-04
1.23500000e-01	1.97822314e-02	3.97075593e-04
1.24000000e-01	1.95903635e-02	3.94362479e-04
1.24500000e-01	1.97563423e-02	3.95181143e-04
1.25000000e-01	1.95749241e-02	3.92170278e-04
1.25500000e-01	1.94843084e-02	3.89631740e-04
1.26000000e-01	1.96326138e-02	3.90880967e-04
1.26500000e-01	1.95314632e-02	3.85924113e-04
1.27000000e-01	1.96229943e-02	3.87872408e-04
1.27500000e-01	1.96865762e-02	3.89810514e-04
1.28000000e-01	1.95818689e-02	3.86693020e-04
1.28500000e-01	1.95124023e-02	3.82777459e-04
1.29000000e-01	1.95356139e-02	3.84147572e-04
1.29500000e-01	1.94811945e-02	3.82649479e-04
1.30000000e-01	1.93503997e-02	3.80657284e-04
1.30500000e-01	1.96260777e-02	3.81058178e-04
1.31000000e-01	1.99028034e-02	3.87839462e-04
1.31500000e-01	1.93395102e-02	3.78035867e-04
1.32000000e-01	1.96549778e-02	3.82807415e-04
1.32500000e-01	1.96189537e-02	3.78965190e-04
1.33000000e-01	1.94391557e-02	3.75902077e-04
1.33500000e-01	1.97449275e-02	3.77388849e-04
1.34000000e-01	1.97335367e-02	3.79432134e-04
1.34500000e-01	1.95350281e-02	3.75704596e-04
1.35000000e-01	1.97264138e-02	3.76145770e-04
1.35500000e-01	1.97044830e-02	3.74869239e-04
1.36000000e-01	1.93912161e-02	3.67874684e-04
1.36500000e-01	1.95574601e-02	3.71176567e-04
1.37000000e-01	1.98206141e-02	3.74490451e-04
1.37500000e-01	1.96536333e-02	3.70561837e-04
1.38000000e-01	1.96390735e-02	3.71151588e-04
1.38500000e-01	1.97816637e-02	3.73081685e-04
1.39000000e-01	1.92644172e-02	3.65330167e-04
1.39500000e-01	1.96212179e-02	3.70158406e-04
1.40000000e-01	1.95106738e-02	3.66464256e-04
1.40500000e-01	1.95313235e-02	3.67369480e-04
1.41000000e-01	1.93019765e-02	3.63802264e-04
1.41500000e-01	1.92510578e-02	3.61923559e-04
1.42000000e-01	1.94939413e-02	3.64556090e-04
1.42500000e-01	1.92155609e-02	3.59718533e-04
1.43000000e-01	1.92544952e-02	3.60149879e-04
1.43500000e-01	1.93958522e-02	3.60921078e-04
1.44000000e-01	1.94341400e-02	3.62106387e-04
1.44500000e-01	1.92317534e-02	3.56100431e-04
1.45000000e-01	1.92130497e-02	3.57700763e-04
1.45500000e-01	1.94457044e-02	3.60245713e-04
1.46000000e-01	1.93424325e-02	3.57030479e-04
1.46500000e-01	1.92991991e-02	3.56209722e-04
1.47000000e-01	1.92716756e-02	3.55592632e-04
1.47500000e-01	1.93147492e-02	3.53866493e-04
1.48000000e-01	1.89803444e-02	3.50614446e-04
1.48500000e-01	1.91603467e-02	3.50442645e-04
1.49000000e-01	1.95777312e-02	3.57101252e-04
1.49500000e-01	1.92473316e-02	3.51777621e-04
1.50000000e-01	1.92822776e-02	3.50075222e-04
1.50500000e-01	1.91691796e-02	3.51467662e-04
1.51000000e-01	1.91884167e-02	3.49000084e-04
1.51500000e-01	1.95247393e-02	3.53502853e-04
1.52000000e-01	1.93501320e-02	3.48161220e-04
1.52500000e-01	1.92912154e-02	3.47828075e-04
1.53000000e-01	1.92177208e-02	3.47334875e-04
1.53500000e-01	1.94076454e-02	3.48177057e-04
1.54000000e-01	1.91516793e-02	3.44719532e-04
1.54500000e-01	1.94569018e-02	3.55512956e-04
1.55000000e-01	1.91634981e-02	3.54610909e-04
1.55500000e-01	1.90404516e-02	3.55779974e-04
1.56000000e-01	1.92372892e-02	3.59565147e-04
1.56500000e-01	1.91928957e-02	3.60952121e-04
1.57000000e-01	1.90407808e-02	3.58374200e-04
1.57500000e-01	1.93929313e-02	3.57166212e-04
1.58000000e-01	1.94974686e-02	3.53507417e-04
1.58500000e-01	1.91958909e-02	3.48355885e-04
1.59000000e-01	1.92050879e-02	3.44763817e-04
1.59500000e-01	1.91308279e-02	3.42172946e-04
1.60000000e-01	1.90859385e-02	3.42517595e-04
1.60500000e-01	1.91266677e-02	3.40530573e-04
1.61000000e-01	1.88242816e-02	3.37600551e-04
1.61500000e-01	1.92912700e-02	3.42396802e-04
1.62000000e-01	1.90303120e-02	3.37197209e-04
1.62500000e-01	1.89494069e-02	3.36763791e-04
1.63000000e-01	1.90121207e-02	3.34290569e-04
1.63500000e-01	1.89240661e-02	3.36717069e-04
1.64000000e-01	1.91628859e-02	3.36195523e-04
1.64500000e-01	1.91849655e-02	3.38164283e-04
1.65000000e-01	1.87853488e-02	3.30885148e-04
1.65500000e-01	1.91256147e-02	3.35518089e-04
1.66000000e-01	1.89590462e-02	3.32589058e-04
1.66500000e-01	1.89277810e-02	3.29751373e-04
1.67000000e-01	1.87147532e-02	3.26425720e-04
1.67500000e-01	1.92105089e-02	3.34181639e-04
1.68000000e-01	1.93072236e-02	3.34595072e-04
1.68500000e-01	1.89230464e-02	3.27151853e-04
1.69000000e-01	1.92205410e-02	3.33895025e-04
1.69500000e-01	1.86599123e-02	3.22819477e-04
1.70000000e-01	1.89373499e-02	3.27454963e-04
1.70500000e-01	1.88998342e-02	3.25681012e-04
1.71000000e-01	1.90059348e-02	3.28258163e-04
1.71500000e-01	1.88626708e-02	3.24566411e-04
1.72000000e-01	1.89175911e-02	3.24864850e-04
1.72500000e-01	1.86285578e-02	3.19321357e-04
1.73000000e-01	1.87927564e-02	3.21267281e-04
1.73500000e-01	1.88399618e-02	3.21124308e-04
1.74000000e-01	1.90792969e-02	3.24848913e-04
1.74500000e-01	1.88846709e-02	3.18916816e-04
1.75000000e-01	1.89049571e-02	3.18850804e-04
1.75500000e-01	1.89365745e-02	3.19735723e-04
1.76000000e-01	1.88210522e-02	3.16887244e-04
1.76500000e-01	1.85913120e-02	3.14462680e-04
1.77000000e-01	1.89525622e-02	3.19019788e-04
1.77500000e-01	1.87507124e-02	3.15830826e-04
1.78000000e-01	1.88575390e-02	3.17200273e-04
1.78500000e-01	1.87029380e-02	3.14133436e-04
1.79000000e-01	1.87532829e-02	3.15465265e-04
1.79500000e-01	1.90153645e-02	3.19301400e-04
1.80000000e-01	1.87447396e-02	3.15516693e-04
1.80500000e-01	1.87417239e-02	3.14743420e-04
1.81000000e-01	1.84080350e-02	3.09658401e-04
1.81500000e-01	1.89670421e-02	3.15708243e-04
1.82000000e-01	1.86548782e-02	3.11803357e-04
1.82500000e-01	1.88424230e-02	3.13515823e-04
1.83000000e-01	1.85286487e-02	3.09688390e-04
1.83500000e-01	1.87512742e-02	3.11108629e-04
1.84000000e-01	1.89011061e-02	3.13165748e-04
1.84500000e-01	1.88995397e-02	3.13433173e-04
1.85000000e-01	1.85118596e-02	3.06203823e-04
1.85500000e-01	1.88297319e-02	3.12270513e-04
1.86000000e-01	1.87044183e-02	3.09668391e-04
1.86500000e-01	1.87047650e-02	3.07865118e-04
1.87000000e-01	1.85170122e-02	3.05355424e-04
1.87500000e-01	1.86527811e-02	3.06074738e-04
1.88000000e-01	1.83759406e-02	3.03673926e-04
1.88500000e-01	1.84433537e-02	3.04087148e-04
1.89000000e-01	1.83652293e-02	2.99842672e-04
1.89500000e-01	1.86363082e-02	3.04811763e-04
1.90000000e-01	1.85441138e-02	3.04184320e-04
1.90500000e-01	1.86270978e-02	3.04164272e-04
1.91000000e-01	1.82780652e-02	2.98604730e-04
1.91500000e-01	1.82825068e-02	2.98574715e-04
1.92000000e-01	1.85822618e-02	3.02634642e-04
1.92500000e-01	1.85419955e-02	3.00413866e-04
1.93000000e-01	1.84472875e-02	3.00359750e-04
1.93500000e-01	1.84138595e-02	2.97674932e-04
1.94000000e-01	1.82556610e-02	2.96781745e-04
1.94500000e-01	1.84850685e-02	2.99647533e-04
1.95000000e-01	1.81581801e-02	2.95716046e-04
1.95500000e-01	1.83047319e-02	2.94098103e-04
1.96000000e-01	1.84845133e-02	2.97490731e-04
1.96500000e-01	1.83291485e-02	2.95801651e-04
1.97000000e-01	1.86710483e-02	2.99189994e-04
1.97500000e-01	1.83920914e-02	2.96061142e-04
1.98000000e-01	1.84445639e-02	2.96186630e-04
1.98500000e-01	1.81905333e-02	2.90925990e-04
1.99000000e-01	1.81938281e-02	2.91446546e-04
1.99500000e-01	1.84472719e-02	2.93940479e-04
2.00000000e-01	1.82881601e-02	2.92490180e-04
2.00500000e-01	1.85825524e-02	2.95751270e-04
2.01000000e-01	1.84595193e-02	2.93982784e-04
2.01500000e-01	1.83572568e-02	2.92279085e-04
2.02000000e-01	1.84748100e-02	2.92895891e-04
2.02500000e-01	1.83225887e-02	2.89611868e-04
2.03000000e-01	1.79407390e-02	2.85056673e-04
2.03500000e-01	1.81626963e-02	2.87721325e-04
2.04000000e-01	1.84116271e-02	2.90699506e-04
2.04500000e-01	1.82752309e-02	2.87939075e-04
2.05000000e-01	1.82455512e-02	2.86915283e-04
2.05500000e-01	1.83769487e-02	2.88902549e-04
2.06000000e-01	1.83557553e-02	2.88047153e-04
2.06500000e-01	1.80215284e-02	2.84284232e-04
2.07000000e-01	1.82267487e-02	2.84967055e-04
2.07500000e-01	1.82481996e-02	2.85820032e-04
2.08000000e-01	1.81480806e-02	2.84779982e-04
2.08500000e-01	1.81081155e-02	2.83306940e-04
2.09000000e-01	1.79992976e-02	2.82234638e-04
2.09500000e-01	1.79707151e-02	2.80955195e-04
2.10000000e-01	1.81540682e-02	2.84131171e-04
2.10500000e-01	1.80914465e-02	2.82533037e-04
2.11000000e-01	1.81792520e-02	2.82791937e-04
2.11500000e-01	1.83064870e-02	2.85452258e-04
2.12000000e-01	1.81447742e-02	2.81318009e-04
2.12500000e-01	1.80836975e-02	2.81499006e-04
2.13000000e-01	1.82855099e-02	2.83608738e-04
2.13500000e-01	1.80534934e-02	2.79276868e-04
2.14000000e-01	1.81849152e-02	2.81377988e-04
2.14500000e-01	1.79266231e-02	2.75800498e-04
2.15000000e-01	1.82966634e-02	2.82614647e-04
2.15500000e-01	1.80618997e-02	2.77896084e-04
2.16000000e-01	1.82507699e-02	2.80761336e-04
2.16500000e-01	1.81659214e-02	2.78848635e-04
2.17000000e-01	1.80943530e-02	2.83444352e-04
2.17500000e-01	1.81597497e-02	2.87408948e-04
2.18000000e-01	1.80931410e-02	2.87498805e-04
2.18500000e-01	1.80797188e-02	2.87379821e-04
2.19000000e-01	1.79410686e-02	2.87795217e-04
2.19500000e-01	1.81376719e-02	2.91350928e-04
2.20000000e-01	1.78627646e-02	2.89757098e-04
2.20500000e-01	1.81145644e-02	2.92751583e-04
2.21000000e-01	1.79041215e-02	2.90563686e-04
2.21500000e-01	1.76598720e-02	2.89260102e-04
2.22000000e-01	1.79239261e-02	2.92634175e-04
2.22500000e-01	1.78987258e-02	2.92824668e-04
2.23000000e-01	1.78558805e-02	2.93189378e-04
2.23500000e-01	1.80847498e-02	2.97400335e-04
2.24000000e-01	1.78789325e-02	2.93329195e-04
2.24500000e-01	1.78949427e-02	2.95649642e-04
2.25000000e-01	1.78348603e-02	2.95534979e-04
2.25500000e-01	1.79005499e-02	2.96521144e-04
2.26000000e-01	1.79490368e-02	2.98387421e-04
2.26500000e-01	1.80431604e-02	2.94936328e-04
2.27000000e-01	1.81123766e-02	2.92826618e-04
2.27500000e-01	1.78597423e-02	2.86854952e-04
2.28000000e-01	1.80133848e-02	2.89405693e-04
2.28500000e-01	1.78938993e-02	2.85219440e-04
2.29000000e-01	1.78294310e-02	2.82052028e-04
2.29500000e-01	1.78905171e-02	2.81898616e-04
2.30000000e-01	1.79954366e-02	2.82318241e-04
2.30500000e-01	1.76449746e-02	2.76990267e-04
2.31000000e-01	1.79108906e-02	2.79737299e-04
2.31500000e-01	1.80690593e-02	2.81685536e-04
2.32000000e-01	1.77632233e-02	2.76164589e-04
2.32500000e-01	1.78344173e-02	2.77789488e-04
2.33000000e-01	1.80095689e-02	2.79429745e-04
2.33500000e-01	1.79721379e-02	2.76887609e-04
2.34000000e-01	1.77512145e-02	2.74944986e-04
2.34500000e-01	1.77893973e-02	2.74084797e-04
2.35000000e-01	1.78206930e-02	2.74624981e-04
2.35500000e-01	1.78056360e-02	2.72803442e-04
2.36000000e-01	1.75668487e-02	2.69453161e-04
2.36500000e-01	1.76900554e-02	2.71095579e-04
2.37000000e-01	1.78650540e-02	2.71682544e-04
2.37500000e-01	1.76738345e-02	2.69447535e-04
2.38000000e-01	1.77465913e-02	2.69671967e-04
2.38500000e-01	1.77528719e-02	2.70269323e-04
2.39000000e-01	1.78947081e-02	2.70132125e-04
2.39500000e-01	1.76537936e-02	2.68559337e-04
2.40000000e-01	1.76285757e-02	2.66967547e-04
2.40500000e-01	1.78087725e-02	2.68449555e-04
2.41000000e-01	1.77017087e-02	2.66812215e-04
2.41500000e-01	1.76434723e-02	2.64485452e-04
2.42000000e-01	1.75078331e-02	2.63560865e-04
2.42500000e-01	1.75830069e-02	2.63692202e-04
2.43000000e-01	1.76273381e-02	2.64552032e-04
2.43500000e-01	1.77560334e-02	2.65542141e-04
2.44000000e-01	1.74647625e-02	2.61205504e-04
2.44500000e-01	1.75706561e-02	2.61687672e-04
2.45000000e-01	1.75797699e-02	2.63087087e-04
2.45500000e-01	1.77357498e-02	2.63350020e-04
2.46000000e-01	1.73859099e-02	2.57674891e-04
2.46500000e-01	1.75478374e-02	2.59796056e-04
2.47000000e-01	1.74798880e-02	2.59528130e-04
2.47500000e-01	1.75856591e-02	2.59408780e-04
2.48000000e-01	1.75944443e-02	2.58962124e-04
2.48500000e-01	1.74355024e-02	2.57040214e-04
2.49000000e-01	1.74544763e-02	2.57453437e-04
2.49500000e-01	1.76489905e-02	2.60048883e-04
2.50000000e-01	1.75844222e-02	2.59623335e-04
2.50500000e-01	1.74307472e-02	2.56997929e-04
2.51000000e-01	1.72277141e-02	2.53818059e-04
2.51500000e-01	1.74003668e-02	2.56255095e-04
2.52000000e-01	1.76688983e-02	2.58749492e-04
2.52500000e-01	1.75615045e-02	2.56144090e-04
2.53000000e-01	1.73585981e-02	2.54311253e-04
2.53500000e-01	1.75459777e-02	2.56126648e-04
2.54000000e-01	1.73321624e-02	2.54215000e-04
2.54500000e-01	1.74922376e-02	2.54364134e-04
2.55000000e-01	1.73637818e-02	2.53422943e-04
2.55500000e-01	1.75487007e-02	2.55819419e-04
2.56000000e-01	1.73054759e-02	2.51382280e-04
2.56500000e-01	1.72985413e-02	2.51817274e-04
2.57000000e-01	1.72595864e-02	2.50303551e-04
2.57500000e-01	1.71858772e-02	2.49446299e-04
2.58000000e-01	1.74018845e-02	2.51961129e-04
2.58500000e-01	1.72818458e-02	2.49769045e-04
2.59000000e-01	1.73765179e-02	2.50959608e-04
2.59500000e-01	1.73282873e-02	2.49159021e-04
2.60000000e-01	1.73523537e-02	2.49259020e-04
2.60500000e-01	1.74482774e-02	2.51507228e-04
2.61000000e-01	1.75735612e-02	2.52060033e-04
2.61500000e-01	1.74822622e-02	2.51819689e-04
2.62000000e-01	1.73497392e-02	2.48425305e-04
2.62500000e-01	1.73918163e-02	2.50521938e-04
2.63000000e-01	1.71732199e-02	2.46694780e-04
2.63500000e-01	1.73899165e-02	2.47990605e-04
2.64000000e-01	1.72699259e-02	2.46717773e-04
2.64500000e-01	1.73473780e-02	2.48416699e-04
2.65000000e-01	1.73253383e-02	2.46981003e-04
2.65500000e-01	1.71517583e-02	2.44426391e-04
2.66000000e-01	1.73021955e-02	2.45701932e-04
2.66500000e-01	1.72095700e-02	2.44516617e-04
2.67000000e-01	1.71906804e-02	2.43756726e-04
2.67500000e-01	1.71846693e-02	2.42926826e-04
2.68000000e-01	1.72218975e-02	2.43992682e-04
2.68500000e-01	1.73612696e-02	2.45107165e-04
2.69000000e-01	1.70070147e-02	2.40607960e-04
2.69500000e-01	1.71434628e-02	2.43083593e-04
2.70000000e-01	1.73218266e-02	2.42840680e-04
2.70500000e-01	1.70825726e-02	2.40874737e-04
2.71000000e-01	1.72773125e-02	2.42389404e-04
2.71500000e-01	1.71892418e-02	2.41106656e-04
2.72000000e-01	1.72658708e-02	2.42267072e-04
2.72500000e-01	1.73845638e-02	2.43518728e-04
2.73000000e-01	1.69595344e-02	2.37834589e-04
2.73500000e-01	1.69529463e-02	2.37429994e-04
2.74000000e-01	1.70029825e-02	2.37450952e-04
2.74500000e-01	1.69848971e-02	2.37274286e-04
2.75000000e-01	1.71100212e-02	2.38560479e-04
2.75500000e-01	1.71050740e-02	2.38817407e-04
2.76000000e-01	1.71069993e-02	2.38220847e-04
2.76500000e-01	1.72559712e-02	2.40489349e-04
2.77000000e-01	1.71740236e-02	2.39319328e-04
2.77500000e-01	1.71109660e-02	2.37834441e-04
2.78000000e-01	1.71032471e-02	2.37838813e-04
2.78500000e-01	1.70915967e-02	2.37802526e-04
2.79000000e-01	1.68344070e-02	2.34554640e-04
2.79500000e-01	1.69908785e-02	2.35393448e-04
2.80000000e-01	1.73131749e-02	2.39640867e-04
2.80500000e-01	1.70892396e-02	2.37390450e-04
2.81000000e-01	1.70292494e-02	2.35253460e-04
2.81500000e-01	1.69913730e-02	2.34012248e-04
2.82000000e-01	1.69061889e-02	2.33623632e-04
2.82500000e-01	1.71119206e-02	2.36712534e-04
2.83000000e-01	1.71469767e-02	2.36368363e-04
2.83500000e-01	1.68076299e-02	2.31711286e-04
2.84000000e-01	1.70424108e-02	2.34687066e-04
2.84500000e-01	1.70039956e-02	2.33554733e-04
2.85000000e-01	1.68672667e-02	2.31453921e-04
2.85500000e-01	1.69973361e-02	2.32710093e-04
2.86000000e-01	1.69492170e-02	2.32641464e-04
2.86500000e-01	1.69172162e-02	2.32157088e-04
2.87000000e-01	1.68179001e-02	2.30470318e-04
2.87500000e-01	1.68105343e-02	2.29034640e-04
2.88000000e-01	1.68413385e-02	2.28548292e-04
2.88500000e-01	1.69664926e-02	2.30976674e-04
2.89000000e-01	1.69256992e-02	2.31443170e-04
2.89500000e-01	1.70114722e-02	2.32017521e-04
2.90000000e-01	1.68632725e-02	2.30163634e-04
2.90500000e-01	1.69334188e-02	2.29946268e-04
2.91000000e-01	1.70545657e-02	2.31152265e-04
2.91500000e-01	1.69111343e-02	2.29201191e-04
2.92000000e-01	1.69506903e-02	2.29465844e-04
2.92500000e-01	1.68239137e-02	2.27793154e-04
2.93000000e-01	1.67574233e-02	2.26737413e-04
2.93500000e-01	1.67943357e-02	2.27051651e-04
2.94000000e-01	1.68839760e-02	2.27641784e-04
2.94500000e-01	1.67760780e-02	2.26592805e-04
2.95000000e-01	1.69415681e-02	2.27262959e-04
2.95500000e-01	1.67552661e-02	2.25629022e-04
2.96000000e-01	1.66983517e-02	2.24142821e-04
2.96500000e-01	1.66813621e-02	2.24345243e-04
2.97000000e-01	1.67827736e-02	2.25625835e-04
2.97500000e-01	1.67730361e-02	2.24333172e-04
2.98000000e-01	1.69471110e-02	2.27145989e-04
2.98500000e-01	1.70627155e-02	2.27776261e-04
2.99000000e-01	1.65967891e-02	2.21621977e-04
2.99500000e-01	1.66528144e-02	2.23114218e-04
3.00000000e-01	1.66395692e-02	2.22706840e-04
3.00500000e-01	1.67720066e-02	2.24395358e-04
3.01000000e-01	1.66764401e-02	2.22373534e-04
3.01500000e-01	1.68177208e-02	2.24809028e-04
3.02000000e-01	1.67223831e-02	2.22505837e-04
3.02500000e-01	1.67113685e-02	2.22796779e-04
3.03000000e-01	1.67325398e-02	2.22945413e-04
3.03500000e-01	1.66832840e-02	2.21769759e-04
3.04000000e-01	1.66015634e-02	2.21871342e-04
3.04500000e-01	1.65378418e-02	2.19789526e-04
3.05000000e-01	1.67123979e-02	2.22002928e-04
3.05500000e-01	1.64530819e-02	2.18234760e-04
3.06000000e-01	1.65045592e-02	2.18245940e-04
3.06500000e-01	1.66819969e-02	2.21429597e-04
3.07000000e-01	1.67124278e-02	2.20161926e-04
3.07500000e-01	1.63623699e-02	2.15756147e-04
3.08000000e-01	1.67446446e-02	2.20409737e-04
3.08500000e-01	1.67077166e-02	2.19526675e-04
3.09000000e-01	1.66342663e-02	2.19189559e-04
3.09500000e-01	1.64965280e-02	2.17315263e-04
3.10000000e-01	1.66592313e-02	2.19030736e-04
3.10500000e-01	1.66771596e-02	2.19614687e-04
3.11000000e-01	1.65712200e-02	2.17109784e-04
3.11500000e-01	1.65781051e-02	2.17804458e-04
3.12000000e-01	1.65500812e-02	2.17216410e-04
3.12500000e-01	1.66234536e-02	2.17982579e-04
3.13000000e-01	1.66575593e-02	2.17441538e-04
3.13500000e-01	1.64475701e-02	2.14765596e-04
3.14000000e-01	1.63901949e-02	2.14376883e-04
3.14500000e-01	1.65378948e-02	2.16249521e-04
3.15000000e-01	1.63946889e-02	2.14374233e-04
3.15500000e-01	1.67073328e-02	2.17842399e-04
3.16000000e-01	1.64329730e-02	2.14530828e-04
3.16500000e-01	1.64671145e-02	2.14939664e-04
3.17000000e-01	1.66103741e-02	2.16162032e-04
3.17500000e-01	1.63661353e-02	2.14143127e-04
3.18000000e-01	1.64228975e-02	2.12723615e-04
3.18500000e-01	1.64784481e-02	2.14478732e-04
3.19000000e-01	1.63780829e-02	2.12575723e-04
3.19500000e-01	1.65533573e-02	2.14559368e-04
3.20000000e-01	1.63977597e-02	2.13230767e-04
3.20500000e-01	1.63313047e-02	2.11489945e-04
3.21000000e-01	1.62284424e-02	2.09779364e-04
3.21500000e-01	1.62996299e-02	2.10492723e-04
3.22000000e-01	1.65335807e-02	2.13510244e-04
3.22500000e-01	1.64359167e-02	2.12263330e-04
3.23000000e-01	1.65083964e-02	2.12582511e-04
3.23500000e-01	1.63629116e-02	2.11108453e-04
3.24000000e-01	1.64600535e-02	2.11876882e-04
3.24500000e-01	1.64246900e-02	2.11820941e-04
3.25000000e-01	1.62867578e-02	2.09177016e-04
3.25500000e-01	1.61800816e-02	2.08418844e-04
3.26000000e-01	1.62990408e-02	2.09255332e-04
3.26500000e-01	1.62305016e-02	2.08592799e-04
3.27000000e-01	1.62936012e-02	2.09447261e-04
3.27500000e-01	1.63749170e-02	2.09504658e-04
3.28000000e-01	1.64121313e-02	2.10197737e-04
3.28500000e-01	1.61607418e-02	2.06677997e-04
3.29000000e-01	1.62389101e-02	2.07809038e-04
3.29500000e-01	1.62686640e-02	2.08505261e-04
3.30000000e-01	1.62439920e-02	2.06883592e-04
3.30500000e-01	1.59609854e-02	2.04777153e-04
3.31000000e-01	1.62635016e-02	2.07968024e-04
3.31500000e-01	1.60760562e-02	2.04419753e-04
3.32000000e-01	1.62105103e-02	2.07271122e-04
3.32500000e-01	1.60781517e-02	2.04309327e-04
3.33000000e-01	1.60310037e-02	2.03950594e-04
3.33500000e-01	1.61186023e-02	2.04720843e-04
3.34000000e-01	1.62111785e-02	2.05847092e-04
3.34500000e-01	1.61380092e-02	2.05286513e-04
3.35000000e-01	1.60298609e-02	2.02934318e-04
3.35500000e-01	1.58990753e-02	2.02256004e-04
3.36000000e-01	1.62408698e-02	2.05284488e-04
3.36500000e-01	1.60099511e-02	2.02641349e-04
3.37000000e-01	1.60431875e-02	2.02617492e-04
3.37500000e-01	1.61790957e-02	2.04236381e-04
3.38000000e-01	1.60894217e-02	2.03775738e-04
3.38500000e-01	1.61875782e-02	2.03522329e-04
3.39000000e-01	1.61641000e-02	2.04240899e-04
3.39500000e-01	1.59786299e-02	2.01937901e-04
3.40000000e-01	1.60685409e-02	2.02064705e-04
3.40500000e-01	1.60059014e-02	2.02331669e-04
3.41000000e-01	1.60178019e-02	2.01740655e-04
3.41500000e-01	1.60681390e-02	2.02203438e-04
3.42000000e-01	1.59200372e-02	1.99364797e-04
3.42500000e-01	1.60038076e-02	2.01022720e-04
3.43000000e-01	1.60917801e-02	2.01247107e-04
3.43500000e-01	1.60217070e-02	2.00109584e-04
3.44000000e-01	1.58733117e-02	1.98788161e-04
3.44500000e-01	1.58927819e-02	1.99021716e-04
3.45000000e-01	1.57968815e-02	1.98526765e-04
3.45500000e-01	1.58223342e-02	1.97698831e-04
3.46000000e-01	1.56966849e-02	1.96475959e-04
3.46500000e-01	1.59390565e-02	1.98580867e-04
3.47000000e-01	1.59721957e-02	1.99528759e-04
3.47500000e-01	1.59182905e-02	1.98208396e-04
3.48000000e-01	1.60524701e-02	2.00123944e-04
3.48500000e-01	1.58939128e-02	1.98011580e-04
3.49000000e-01	1.60632424e-02	1.99462092e-04
3.49500000e-01	1.60260183e-02	1.99079729e-04
3.50000000e-01	1.57933926e-02	1.60131250e-04
3.51000000e-01	1.58911914e-02	1.39375923e-04
3.52000000e-01	1.58079820e-02	1.38416874e-04
3.53000000e-01	1.57877896e-02	1.37708311e-04
3.54000000e-01	1.56949476e-02	1.36972003e-04
3.55000000e-01	1.57658950e-02	1.37068752e-04
3.56000000e-01	1.59326844e-02	1.39672629e-04
3.57000000e-01	1.57223276e-02	1.40484797e-04
3.58000000e-01	1.57477334e-02	1.41354895e-04
3.59000000e-01	1.57444152e-02	1.42858869e-04
3.60000000e-01	1.56389029e-02	1.42496646e-04
3.61000000e-01	1.57263071e-02	1.43939830e-04
3.62000000e-01	1.56077566e-02	1.43683762e-04
3.63000000e-01	1.54879721e-02	1.43102672e-04
3.64000000e-01	1.56662708e-02	1.45132722e-04
3.65000000e-01	1.55557178e-02	1.44589204e-04
3.66000000e-01	1.57115443e-02	1.44047088e-04
3.67000000e-01	1.56068070e-02	1.41421854e-04
3.68000000e-01	1.54197366e-02	1.38932163e-04
3.69000000e-01	1.54371069e-02	1.38422430e-04
3.70000000e-01	1.56403067e-02	1.39017527e-04
3.71000000e-01	1.54261042e-02	1.39403544e-04
3.72000000e-01	1.56263300e-02	1.42210026e-04
3.73000000e-01	1.56367693e-02	1.42312325e-04
3.74000000e-01	1.54069470e-02	1.40464995e-04
3.75000000e-01	1.54345299e-02	1.41226829e-04
3.76000000e-01	1.54792870e-02	1.41022123e-04
3.77000000e-01	1.54325711e-02	1.40828426e-04
3.78000000e-01	1.54992580e-02	1.41621636e-04
3.79000000e-01	1.53455719e-02	1.40053149e-04
3.80000000e-01	1.53841943e-02	1.40299225e-04
3.81000000e-01	1.54164197e-02	1.40002966e-04
3.82000000e-01	1.55196575e-02	1.40742933e-04
3.83000000e-01	1.53078102e-02	1.38913412e-04
3.84000000e-01	1.55040919e-02	1.41087886e-04
3.85000000e-01	1.54710516e-02	1.40625585e-04
3.86000000e-01	1.53291034e-02	1.39489209e-04
3.87000000e-01	1.54148158e-02	1.40145071e-04
3.88000000e-01	1.53002045e-02	1.38942775e-04
3.89000000e-01	1.52391684e-02	1.38363943e-04
3.90000000e-01	1.51736988e-02	1.37694154e-04
3.91000000e-01	1.53878773e-02	1.39699195e-04
3.92000000e-01	1.52225142e-02	1.38545922e-04
3.93000000e-01	1.53122153e-02	1.38563907e-04
3.94000000e-01	1.51128747e-02	1.37124687e-04
3.95000000e-01	1.51822776e-02	1.37862683e-04
3.96000000e-01	1.51718280e-02	1.37796513e-04
3.97000000e-01	1.51786792e-02	1.37498579e-04
3.98000000e-01	1.50998217e-02	1.36942941e-04
3.99000000e-01	1.52574056e-02	1.38314933e-04
4.00000000e-01	1.52681336e-02	1.38667945e-04
4.01000000e-01	1.51171691e-02	1.37633642e-04
4.02000000e-01	1.51396276e-02	1.37808222e-04
4.03000000e-01	1.52312303e-02	1.37823970e-04
4.04000000e-01	1.51580524e-02	1.37365509e-04
4.05000000e-01	1.50926905e-02	1.36888095e-04
4.06000000e-01	1.50205226e-02	1.35771659e-04
4.07000000e-01	1.51133360e-02	1.36803425e-04
4.08000000e-01	1.50017498e-02	1.36048418e-04
4.09000000e-01	1.49946712e-02	1.35425671e-04
4.10000000e-01	1.50780915e-02	1.36585248e-04
4.11000000e-01	1.49994783e-02	1.35863935e-04
4.12000000e-01	1.49409442e-02	1.35293340e-04
4.13000000e-01	1.49906719e-02	1.35441600e-04
4.14000000e-01	1.49696441e-02	1.35489313e-04
4.15000000e-01	1.49691778e-02	1.35110301e-04
4.16000000e-01	1.51221502e-02	1.36065815e-04
4.17000000e-01	1.50436246e-02	1.35979994e-04
4.18000000e-01	1.49443004e-02	1.36380599e-04
4.19000000e-01	1.49364286e-02	1.37864292e-04
4.20000000e-01	1.50383596e-02	1.39586656e-04
4.21000000e-01	1.50396348e-02	1.40140027e-04
4.22000000e-01	1.50280604e-02	1.40460045e-04
4.23000000e-01	1.50105972e-02	1.40751787e-04
4.24000000e-01	1.49490294e-02	1.40776658e-04
4.25000000e-01	1.49881025e-02	1.41052107e-04
4.26000000e-01	1.49667754e-02	1.41248653e-04
4.27000000e-01	1.49256866e-02	1.40927084e-04
4.28000000e-01	1.49477247e-02	1.41196061e-04
4.29000000e-01	1.48926515e-02	1.41075493e-04
4.30000000e-01	1.50056617e-02	1.41863421e-04
4.31000000e-01	1.49389209e-02	1.40570942e-04
4.32000000e-01	1.48701007e-02	1.40669122e-04
4.33000000e-01	1.49305770e-02	1.41626652e-04
4.34000000e-01	1.48671619e-02	1.40815519e-04
4.35000000e-01	1.48057198e-02	1.40312435e-04
4.36000000e-01	1.47432127e-02	1.40557523e-04
4.37000000e-01	1.48857448e-02	1.41353122e-04
4.38000000e-01	1.48789457e-02	1.41690372e-04
4.39000000e-01	1.47699699e-02	1.40829572e-04
4.40000000e-01	1.47187062e-02	1.40282354e-04
4.41000000e-01	1.48098499e-02	1.41367494e-04
4.42000000e-01	1.50108164e-02	1.43222002e-04
4.43000000e-01	1.48823258e-02	1.42401047e-04
4.44000000e-01	1.47617125e-02	1.41564605e-04
4.45000000e-01	1.46915778e-02	1.41166925e-04
4.46000000e-01	1.47358232e-02	1.42053899e-04
4.47000000e-01	1.46939993e-02	1.41443806e-04
4.48000000e-01	1.47154440e-02	1.41826351e-04
4.49000000e-01	1.47471286e-02	1.42550172e-04
4.50000000e-01	1.46351765e-02	1.41404411e-04
4.51000000e-01	1.46508691e-02	1.41743195e-04
4.52000000e-01	1.46732154e-02	1.42432399e-04
4.53000000e-01	1.46783228e-02	1.42467991e-04
4.54000000e-01	1.46347377e-02	1.41614364e-04
4.55000000e-01	1.47614421e-02	1.43346411e-04
4.56000000e-01	1.45865478e-02	1.42098169e-04
4.57000000e-01	1.45243017e-02	1.41283940e-04
4.58000000e-01	1.45891577e-02	1.42559300e-04
4.59000000e-01	1.45105423e-02	1.41581618e-04
4.60000000e-01	1.46514126e-02	1.42827632e-04
4.61000000e-01	1.46082937e-02	1.42826255e-04
4.62000000e-01	1.46739740e-02	1.42878970e-04
4.63000000e-01	1.46352696e-02	1.43236784e-04
4.64000000e-01	1.46419081e-02	1.43240147e-04
4.65000000e-01	1.46101581e-02	1.42945745e-04
4.66000000e-01	1.46716112e-02	1.43367735e-04
4.67000000e-01	1.46428033e-02	1.43282580e-04
4.68000000e-01	1.45176539e-02	1.42184371e-04
4.69000000e-01	1.45009048e-02	1.41980837e-04
4.70000000e-01	1.45142869e-02	1.42990162e-04
4.71000000e-01	1.45037011e-02	1.42331637e-04
4.72000000e-01	1.45858965e-02	1.42633977e-04
4.73000000e-01	1.44416949e-02	1.41378015e-04
4.74000000e-01	1.45803329e-02	1.42822245e-04
4.75000000e-01	1.45012723e-02	1.42145788e-04
4.76000000e-01	1.44191100e-02	1.41368636e-04
4.77000000e-01	1.44517688e-02	1.41783040e-04
4.78000000e-01	1.43958177e-02	1.41362777e-04
4.79000000e-01	1.43942233e-02	1.41238524e-04
4.80000000e-01	1.44401695e-02	1.41682165e-04
4.81000000e-01	1.42926975e-02	1.40873851e-04
4.82000000e-01	1.43443380e-02	1.41302506e-04
4.83000000e-01	1.44284895e-02	1.42074313e-04
4.84000000e-01	1.43624388e-02	1.41520508e-04
4.85000000e-01	1.42923443e-02	1.41172781e-04
4.86000000e-01	1.44542117e-02	1.42560191e-04
4.87000000e-01	1.43660677e-02	1.41956571e-04
4.88000000e-01	1.42502077e-02	1.40576734e-04
4.89000000e-01	1.44397755e-02	1.42604109e-04
4.90000000e-01	1.42984148e-02	1.41265546e-04
4.91000000e-01	1.43828661e-02	1.42310685e-04
4.92000000e-01	1.43178779e-02	1.41562205e-04
4.93000000e-01	1.43049387e-02	1.41740817e-04
4.94000000e-01	1.44047206e-02	1.42750730e-04
4.95000000e-01	1.43925441e-02	1.43262613e-04
4.96000000e-01	1.43426970e-02	1.46992858e-04
4.97000000e-01	1.42566417e-02	1.49060175e-04
4.98000000e-01	1.43262145e-02	1.51779360e-04
4.99000000e-01	1.44708767e-02	1.55537539e-04
5.00000000e-01	1.42401223e-02	1.54901743e-04
5.01000000e-01	1.42939296e-02	1.55853210e-04
5.02000000e-01	1.43080915e-02	1.58199976e-04
5.03000000e-01	1.43277576e-02	1.59667017e-04
5.04000000e-01	1.43581378e-02	1.61242019e-04
5.05000000e-01	1.41725729e-02	1.57408160e-04
5.06000000e-01	1.42327378e-02	1.54619218e-04
5.07000000e-01	1.42466424e-02	1.52655550e-04
5.08000000e-01	1.40442510e-02	1.49815231e-04
5.09000000e-01	1.42500702e-02	1.51268161e-04
5.10000000e-01	1.42452223e-02	1.50832559e-04
5.11000000e-01	1.42132297e-02	1.50143611e-04
5.12000000e-01	1.42440150e-02	1.49922482e-04
5.13000000e-01	1.42283797e-02	1.49855312e-04
5.14000000e-01	1.42559226e-02	1.48947326e-04
5.15000000e-01	1.41392309e-02	1.47868883e-04
5.16000000e-01	1.41945923e-02	1.48244660e-04
5.17000000e-01	1.40625472e-02	1.46776148e-04
5.18000000e-01	1.41300257e-02	1.47093264e-04
5.19000000e-01	1.39110024e-02	1.44227529e-04
5.20000000e-01	1.40891421e-02	1.45927933e-04
5.21000000e-01	1.41163876e-02	1.46387023e-04
5.22000000e-01	1.40600044e-02	1.45223562e-04
5.23000000e-01	1.40542248e-02	1.45089760e-04
5.24000000e-01	1.41638012e-02	1.46627178e-04
5.25000000e-01	1.40543961e-02	1.44840113e-04
5.26000000e-01	1.42229999e-02	1.46774779e-04
5.27000000e-01	1.41076337e-02	1.45967805e-04
5.28000000e-01	1.39735805e-02	1.44458813e-04
5.29000000e-01	1.39468820e-02	1.44495501e-04
5.30000000e-01	1.39588688e-02	1.44557870e-04
5.31000000e-01	1.40038779e-02	1.44952115e-04
5.32000000e-01	1.38305251e-02	1.43230157e-04
5.33000000e-01	1.38595429e-02	1.43424918e-04
5.34000000e-01	1.39121237e-02	1.43723717e-04
5.35000000e-01	1.39794146e-02	1.44153619e-04
5.36000000e-01	1.38946311e-02	1.43501213e-04
5.37000000e-01	1.39966747e-02	1.44804437e-04
5.38000000e-01	1.39061201e-02	1.43737088e-04
5.39000000e-01	1.38837958e-02	1.43754171e-04
5.40000000e-01	1.37265876e-02	1.42075411e-04
5.41000000e-01	1.39717649e-02	1.43964686e-04
5.42000000e-01	1.38172533e-02	1.43329015e-04
5.43000000e-01	1.38403235e-02	1.43158381e-04
5.44000000e-01	1.37688107e-02	1.42878897e-04
5.45000000e-01	1.38147001e-02	1.43155817e-04
5.46000000e-01	1.38104196e-02	1.42936391e-04
5.47000000e-01	1.37778467e-02	1.42392212e-04
5.48000000e-01	1.37699852e-02	1.42512603e-04
5.49000000e-01	1.38481785e-02	1.43271887e-04
5.50000000e-01	1.37647804e-02	1.42312862e-04
5.51000000e-01	1.37381741e-02	1.41717766e-04
5.52000000e-01	1.37751379e-02	1.41819900e-04
5.53000000e-01	1.37908777e-02	1.41796400e-04
5.54000000e-01	1.37136771e-02	1.41035803e-04
5.55000000e-01	1.37184874e-02	1.41242910e-04
5.56000000e-01	1.38090525e-02	1.41962994e-04
5.57000000e-01	1.37485913e-02	1.41218330e-04
5.58000000e-01	1.36065967e-02	1.39839566e-04
5.59000000e-01	1.37046627e-02	1.40659405e-04
5.60000000e-01	1.36648662e-02	1.40900594e-04
5.61000000e-01	1.37799791e-02	1.41382016e-04
5.62000000e-01	1.34787315e-02	1.39344797e-04
5.63000000e-01	1.37250060e-02	1.40740733e-04
5.64000000e-01	1.36585177e-02	1.40600885e-04
5.65000000e-01	1.36101304e-02	1.39917643e-04
5.66000000e-01	1.35322810e-02	1.39496561e-04
5.67000000e-01	1.36085051e-02	1.39960010e-04
5.68000000e-01	1.35414955e-02	1.39436337e-04
5.69000000e-01	1.35101829e-02	1.38711414e-04
5.70000000e-01	1.36334461e-02	1.40071773e-04
5.71000000e-01	1.35992889e-02	1.39923995e-04
5.72000000e-01	1.35217722e-02	1.39442663e-04
5.73000000e-01	1.34657033e-02	1.38778247e-04
5.74000000e-01	1.35034802e-02	1.38815185e-04
5.75000000e-01	1.33919888e-02	1.37920880e-04
5.76000000e-01	1.35564186e-02	1.39441307e-04
5.77000000e-01	1.35162785e-02	1.39429978e-04
5.78000000e-01	1.34369649e-02	1.38520885e-04
5.79000000e-01	1.34087566e-02	1.38016352e-04
5.80000000e-01	1.34184092e-02	1.38710659e-04
5.81000000e-01	1.34719359e-02	1.38805359e-04
5.82000000e-01	1.32894376e-02	1.37499684e-04
5.83000000e-01	1.34810710e-02	1.39261066e-04
5.84000000e-01	1.35637982e-02	1.39402253e-04
5.85000000e-01	1.34754245e-02	1.38874138e-04
5.86000000e-01	1.34797194e-02	1.39275420e-04
5.87000000e-01	1.33110995e-02	1.37168917e-04
5.88000000e-01	1.32825486e-02	1.37263849e-04
5.89000000e-01	1.32914256e-02	1.37317588e-04
5.90000000e-01	1.32563737e-02	1.37004036e-04
5.91000000e-01	1.33369773e-02	1.38071928e-04
5.92000000e-01	1.32379035e-02	1.37084383e-04
5.93000000e-01	1.32124215e-02	1.36685828e-04
5.94000000e-01	1.33472526e-02	1.37986285e-04
5.95000000e-01	1.33053847e-02	1.37659631e-04
5.96000000e-01	1.33156465e-02	1.38152642e-04
5.97000000e-01	1.33145957e-02	1.37849831e-04
5.98000000e-01	1.34146885e-02	1.39015435e-04
5.99000000e-01	1.32719651e-02	1.37728739e-04
6.00000000e-01	1.31676194e-02	1.36722319e-04
6.01000000e-01	1.32378531e-02	1.37382091e-04
6.02000000e-01	1.32239166e-02	1.37248873e-04
6.03000000e-01	1.32721321e-02	1.37560467e-04
6.04000000e-01	1.32491624e-02	1.37263430e-04
6.05000000e-01	1.31469584e-02	1.36263934e-04
6.06000000e-01	1.31890151e-02	1.36787377e-04
6.07000000e-01	1.31998231e-02	1.37309035e-04
6.08000000e-01	1.32275950e-02	1.36781851e-04
6.09000000e-01	1.32352601e-02	1.37198979e-04
6.10000000e-01	1.32619320e-02	1.36993744e-04
6.11000000e-01	1.30787012e-02	1.35823974e-04
6.12000000e-01	1.31755403e-02	1.36999957e-04
6.13000000e-01	1.32377395e-02	1.37775257e-04
6.14000000e-01	1.32040512e-02	1.36965412e-04
6.15000000e-01	1.31749357e-02	1.36927078e-04
6.16000000e-01	1.31006134e-02	1.36248765e-04
6.17000000e-01	1.30911178e-02	1.36059211e-04
6.18000000e-01	1.31074506e-02	1.36172206e-04
6.19000000e-01	1.30000092e-02	1.34827360e-04
6.20000000e-01	1.31326884e-02	1.36048365e-04
6.21000000e-01	1.30857857e-02	1.35909956e-04
6.22000000e-01	1.32299781e-02	1.36671928e-04
6.23000000e-01	1.30389054e-02	1.35018484e-04
6.24000000e-01	1.29798276e-02	1.34277581e-04
6.25000000e-01	1.31756786e-02	1.36168994e-04
6.26000000e-01	1.30738469e-02	1.34464315e-04
6.27000000e-01	1.30611784e-02	1.34997837e-04
6.28000000e-01	1.30807473e-02	1.34994729e-04
6.29000000e-01	1.30429341e-02	1.34090836e-04
6.30000000e-01	1.29444006e-02	1.33946639e-04
6.31000000e-01	1.30702900e-02	1.34694046e-04
6.32000000e-01	1.30056913e-02	1.34609503e-04
6.33000000e-01	1.30250167e-02	1.34413762e-04
6.34000000e-01	1.29828603e-02	1.37736386e-04
6.35000000e-01	1.29833158e-02	1.41301198e-04
6.36000000e-01	1.29862966e-02	1.44284235e-04
6.37000000e-01	1.31271371e-02	1.48303707e-04
6.38000000e-01	1.29644954e-02	1.47711694e-04
6.39000000e-01	1.30905425e-02	1.51536354e-04
6.40000000e-01	1.28137455e-02	1.50001128e-04
6.41000000e-01	1.28641381e-02	1.52741992e-04
6.42000000e-01	1.30281356e-02	1.56177358e-04
6.43000000e-01	1.29679585e-02	1.55418655e-04
6.44000000e-01	1.32682907e-02	1.52427314e-04
6.45000000e-01	1.30216074e-02	1.47574846e-04
6.46000000e-01	1.31869285e-02	1.48179631e-04
6.47000000e-01	1.30735973e-02	1.45896636e-04
6.48000000e-01	1.30304503e-02	1.44045586e-04
6.49000000e-01	1.31921344e-02	1.44814922e-04
6.50000000e-01	1.29571953e-02	1.42172129e-04
6.51000000e-01	1.30198272e-02	1.42343738e-04
6.52000000e-01	1.30289084e-02	1.42159164e-04
6.53000000e-01	1.29050730e-02	1.39998993e-04
6.54000000e-01	1.29969972e-02	1.40990497e-04
6.55000000e-01	1.29994466e-02	1.40812108e-04
6.56000000e-01	1.30788474e-02	1.41160398e-04
6.57000000e-01	1.29351839e-02	1.39575079e-04
6.58000000e-01	1.29835270e-02	1.39757334e-04
6.59000000e-01	1.30275988e-02	1.39696736e-04
6.60000000e-01	1.30290679e-02	1.40019762e-04
6.61000000e-01	1.30571805e-02	1.40233563e-04
6.62000000e-01	1.29312770e-02	1.38896716e-04
6.63000000e-01	1.29634061e-02	1.39323489e-04
6.64000000e-01	1.28817703e-02	1.38341319e-04
6.65000000e-01	1.29364626e-02	1.38861878e-04
6.66000000e-01	1.29449884e-02	1.39168831e-04
6.67000000e-01	1.28290157e-02	1.37965384e-04
6.68000000e-01	1.28740616e-02	1.37888709e-04
6.69000000e-01	1.27959744e-02	1.37137239e-04
6.70000000e-01	1.28887086e-02	1.37447377e-04
6.71000000e-01	1.27823354e-02	1.36846587e-04
6.72000000e-01	1.28007779e-02	1.37362596e-04
6.73000000e-01	1.27123343e-02	1.35860995e-04
6.74000000e-01	1.28178111e-02	1.36884759e-04
6.75000000e-01	1.28723910e-02	1.37480939e-04
6.76000000e-01	1.28265488e-02	1.36613287e-04
6.77000000e-01	1.27543188e-02	1.36712616e-04
6.78000000e-01	1.27216068e-02	1.36075555e-04
6.79000000e-01	1.27579287e-02	1.36455752e-04
6.80000000e-01	1.28298461e-02	1.36757047e-04
6.81000000e-01	1.27826561e-02	1.36875337e-04
6.82000000e-01	1.28935405e-02	1.37169956e-04
6.83000000e-01	1.27758313e-02	1.36198358e-04
6.84000000e-01	1.25652133e-02	1.34260166e-04
6.85000000e-01	1.28380993e-02	1.37210738e-04
6.86000000e-01	1.28746056e-02	1.37210240e-04
6.87000000e-01	1.26861355e-02	1.35312187e-04
6.88000000e-01	1.27188316e-02	1.36109694e-04
6.89000000e-01	1.27045161e-02	1.35482066e-04
6.90000000e-01	1.27301290e-02	1.36080570e-04
6.91000000e-01	1.26058203e-02	1.34565947e-04
6.92000000e-01	1.26791804e-02	1.35130179e-04
6.93000000e-01	1.25782476e-02	1.34630202e-04
6.94000000e-01	1.26875934e-02	1.35345406e-04
6.95000000e-01	1.27063789e-02	1.34969032e-04
6.96000000e-01	1.26482669e-02	1.35121794e-04
6.97000000e-01	1.26179016e-02	1.34126270e-04
6.98000000e-01	1.25578659e-02	1.33736996e-04
6.99000000e-01	1.26427237e-02	1.34362746e-04
7.00000000e-01	1.26794282e-02	1.34955089e-04
7.01000000e-01	1.27270402e-02	1.35283695e-04
7.02000000e-01	1.26402256e-02	1.34578466e-04
7.03000000e-01	1.25804479e-02	1.34358074e-04
7.04000000e-01	1.25174548e-02	1.33362000e-04
7.05000000e-01	1.25236885e-02	1.33164937e-04
7.06000000e-01	1.24920780e-02	1.32586014e-04
7.07000000e-01	1.24344827e-02	1.32209927e-04
7.08000000e-01	1.24562553e-02	1.32281345e-04
7.09000000e-01	1.24449903e-02	1.32497314e-04
7.10000000e-01	1.25361020e-02	1.33485157e-04
7.11000000e-01	1.24241216e-02	1.32407231e-04
7.12000000e-01	1.23808894e-02	1.31366884e-04
7.13000000e-01	1.25127895e-02	1.33331801e-04
7.14000000e-01	1.24435349e-02	1.32326522e-04
7.15000000e-01	1.23995548e-02	1.32185848e-04
7.16000000e-01	1.24324220e-02	1.32683292e-04
7.17000000e-01	1.24103883e-02	1.32159714e-04
7.18000000e-01	1.24669738e-02	1.32901319e-04
7.19000000e-01	1.24087911e-02	1.32099368e-04
7.20000000e-01	1.22733978e-02	1.30964947e-04
7.21000000e-01	1.23173787e-02	1.31025992e-04
7.22000000e-01	1.24002389e-02	1.32157920e-04
7.23000000e-01	1.22567741e-02	1.30783654e-04
7.24000000e-01	1.24216427e-02	1.32254282e-04
7.25000000e-01	1.22619488e-02	1.30751471e-04
7.26000000e-01	1.23075462e-02	1.31309597e-04
7.27000000e-01	1.23045662e-02	1.31113323e-04
7.28000000e-01	1.22531952e-02	1.30534865e-04
7.29000000e-01	1.22372531e-02	1.31283141e-04
7.30000000e-01	1.22652614e-02	1.31234504e-04
7.31000000e-01	1.22107210e-02	1.30440889e-04
7.32000000e-01	1.22284194e-02	1.30606474e-04
7.33000000e-01	1.21999241e-02	1.30191920e-04
7.34000000e-01	1.22183857e-02	1.30035498e-04
7.35000000e-01	1.23104578e-02	1.30848498e-04
7.36000000e-01	1.21030427e-02	1.28730167e-04
7.37000000e-01	1.20512434e-02	1.28463572e-04
7.38000000e-01	1.21583065e-02	1.29204034e-04
7.39000000e-01	1.20896486e-02	1.27912791e-04
7.40000000e-01	1.21150552e-02	1.28151675e-04
7.41000000e-01	1.21922128e-02	1.28211840e-04
7.42000000e-01	1.20058034e-02	1.27338372e-04
7.43000000e-01	1.20951143e-02	1.27700402e-04
7.44000000e-01	1.21434078e-02	1.28346323e-04
7.45000000e-01	1.20255887e-02	1.27279605e-04
7.46000000e-01	1.21445667e-02	1.28390875e-04
7.47000000e-01	1.19372713e-02	1.25792139e-04
7.48000000e-01	1.21605716e-02	1.28465225e-04
7.49000000e-01	1.21474728e-02	1.28348503e-04
7.50000000e-01	1.20908221e-02	1.27966249e-04
7.51000000e-01	1.20866766e-02	1.27528736e-04
7.52000000e-01	1.20828844e-02	1.27809637e-04
7.53000000e-01	1.20440471e-02	1.27384879e-04
7.54000000e-01	1.19201383e-02	1.25928232e-04
7.55000000e-01	1.20221898e-02	1.27173405e-04
7.56000000e-01	1.19331370e-02	1.26786003e-04
7.57000000e-01	1.19204796e-02	1.26277398e-04
7.58000000e-01	1.20475638e-02	1.27229153e-04
7.59000000e-01	1.19728865e-02	1.26106654e-04
7.60000000e-01	1.20837519e-02	1.27387106e-04
7.61000000e-01	1.19037340e-02	1.25529651e-04
7.62000000e-01	1.17757346e-02	1.24129387e-04
7.63000000e-01	1.20075627e-02	1.26307112e-04
7.64000000e-01	1.18380016e-02	1.24779610e-04
7.65000000e-01	1.19760464e-02	1.25797702e-04
7.66000000e-01	1.19528820e-02	1.25373155e-04
7.67000000e-01	1.19768249e-02	1.25336239e-04
7.68000000e-01	1.19485349e-02	1.24933602e-04
7.69000000e-01	1.17872214e-02	1.24035401e-04
7.70000000e-01	1.18587202e-02	1.24474422e-04
7.71000000e-01	1.18355467e-02	1.23961936e-04
7.72000000e-01	1.20120641e-02	1.29584250e-04
7.73000000e-01	1.18491338e-02	1.32575378e-04
7.74000000e-01	1.17396763e-02	1.33956701e-04
7.75000000e-01	1.17251993e-02	1.35766097e-04
7.76000000e-01	1.18380385e-02	1.39096324e-04
7.77000000e-01	1.17553339e-02	1.40701109e-04
7.78000000e-01	1.17464796e-02	1.42558987e-04
7.79000000e-01	1.17415068e-02	1.44291571e-04
7.80000000e-01	1.16427560e-02	1.44430041e-04
7.81000000e-01	1.16177339e-02	1.46349239e-04
7.82000000e-01	1.16340728e-02	1.47042064e-04
7.83000000e-01	1.17502688e-02	1.50171914e-04
7.84000000e-01	1.16857159e-02	1.51281858e-04
7.85000000e-01	1.17283239e-02	1.53621380e-04
7.86000000e-01	1.16388514e-02	1.54157800e-04
7.87000000e-01	1.17583869e-02	1.57007612e-04
7.88000000e-01	1.16728617e-02	1.57637021e-04
7.89000000e-01	1.16134988e-02	1.58194765e-04
7.90000000e-01	1.17282258e-02	1.60764755e-04
7.91000000e-01	1.16283198e-02	1.61843228e-04
7.92000000e-01	1.14828185e-02	1.61550756e-04
7.93000000e-01	1.17745496e-02	1.66840476e-04
7.94000000e-01	1.17362150e-02	1.68537747e-04
7.95000000e-01	1.16326467e-02	1.68871496e-04
7.96000000e-01	1.16127894e-02	1.69233755e-04
7.97000000e-01	1.15041973e-02	1.70302729e-04
7.98000000e-01	1.14709007e-02	1.71537210e-04
7.99000000e-01	1.15147691e-02	1.73736461e-04
8.00000000e-01	1.15032034e-02	1.75896977e-04
8.01000000e-01	1.14803590e-02	1.77427989e-04
8.02000000e-01	1.14262876e-02	1.78851822e-04
8.03000000e-01	1.14379443e-02	1.80402050e-04
8.04000000e-01	1.14196474e-02	1.81197378e-04
8.05000000e-01	1.14513846e-02	1.84190271e-04
8.06000000e-01	1.13615635e-02	1.84635201e-04
8.07000000e-01	1.11061690e-02	1.82875656e-04
8.08000000e-01	1.14289977e-02	1.88882268e-04
8.09000000e-01	1.13020524e-02	1.90081435e-04
8.10000000e-01	1.14304518e-02	1.93663506e-04
8.11000000e-01	1.13986912e-02	1.94026355e-04
8.12000000e-01	1.14124308e-02	1.97680957e-04
8.13000000e-01	1.12784369e-02	1.99086119e-04
8.14000000e-01	1.11879561e-02	2.00086071e-04
8.15000000e-01	1.10487185e-02	1.99979615e-04
8.16000000e-01	1.12745352e-02	2.06053116e-04
8.17000000e-01	1.14993554e-02	2.10057995e-04
8.18000000e-01	1.14167395e-02	2.13326274e-04
8.19000000e-01	1.12588871e-02	2.11782219e-04
8.20000000e-01	1.12294533e-02	2.14504602e-04
8.21000000e-01	1.10988038e-02	2.16431540e-04
8.22000000e-01	1.11659525e-02	2.20089356e-04
8.23000000e-01	1.12348473e-02	2.23182960e-04
8.24000000e-01	1.12729263e-02	2.26979092e-04
8.25000000e-01	1.11869404e-02	2.29465553e-04
8.26000000e-01	1.09098055e-02	2.28883009e-04
8.27000000e-01	1.09399025e-02	2.29711484e-04
8.28000000e-01	1.10209085e-02	2.36171959e-04
8.29000000e-01	1.11069341e-02	2.41976530e-04
8.30000000e-01	1.11764559e-02	2.47659633e-04
8.31000000e-01	1.11374808e-02	2.50327165e-04
8.32000000e-01	1.11916470e-02	2.54370235e-04
8.33000000e-01	1.09871649e-02	2.55038031e-04
8.34000000e-01	1.11667220e-02	2.64778133e-04
8.35000000e-01	1.05965749e-02	2.55935881e-04
8.36000000e-01	1.07138757e-02	2.64509773e-04
8.37000000e-01	1.09984396e-02	2.75670175e-04
8.38000000e-01	1.09838152e-02	2.82135613e-04
8.39000000e-01	1.08866364e-02	2.82465430e-04
8.40000000e-01	1.09885560e-02	2.94293464e-04
8.41000000e-01	1.08996614e-02	2.97232467e-04
8.42000000e-01	1.07529363e-02	3.00852173e-04
8.43000000e-01	1.07593385e-02	3.08428899e-04
8.44000000e-01	1.06774999e-02	3.13670050e-04
8.45000000e-01	1.09142521e-02	3.25623451e-04
8.46000000e-01	1.11228781e-02	3.38740456e-04
8.47000000e-01	1.07583741e-02	3.37222542e-04
8.48000000e-01	1.07611182e-02	3.49630376e-04
8.49000000e-01	1.05476711e-02	3.55684368e-04
8.50000000e-01	1.08368172e-02	3.78602748e-04
8.51000000e-01	1.08969389e-02	3.91036978e-04
8.52000000e-01	1.08285089e-02	4.06932844e-04
8.53000000e-01	1.09668892e-02	4.29823099e-04
8.54000000e-01	1.06398867e-02	4.40117295e-04
8.55000000e-01	1.02388552e-02	4.36678323e-04
8.56000000e-01	1.05164390e-02	4.60101212e-04
8.57000000e-01	1.06227986e-02	4.72033723e-04
8.58000000e-01	1.05415862e-02	4.88496538e-04
8.59000000e-01	1.07257332e-02	5.15789530e-04
8.60000000e-01	1.09851395e-02	5.36905324e-04
8.61000000e-01	1.06933114e-02	5.37660614e-04
8.62000000e-01	1.10309870e-02	5.71948375e-04
8.63000000e-01	1.06304428e-02	5.84398375e-04
8.64000000e-01	1.02974616e-02	6.02776408e-04
8.65000000e-01	9.89973877e-03	6.04743642e-04
8.66000000e-01	1.03198275e-02	6.51161371e-04
8.67000000e-01	1.04995064e-02	7.02747146e-04
8.68000000e-01	1.04074523e-02	7.61411623e-04
8.69000000e-01	9.69336915e-03	7.45238837e-04
8.70000000e-01	1.10937273e-02	9.13528366e-04
8.71000000e-01	1.12636789e-02	1.01375494e-03
8.72000000e-01	1.12327583e-02	1.13527504e-03
8.73000000e-01	1.11330658e-02	1.35002081e-03
8.74000000e-01	8.36729512e-03	1.46686845e-03
8.75000000e-01	9.41361598e-03	3.20204693e-03
