% Filename : SDL5_p7_00023_00001.h5
% Date & Time : 30-Oct-2025 16:51:51
% X-ray Energy (keV) : 13.30001
% Exposure Time (s) : 0.500
% Beam Center : 1461.24000, 208.98300
% Sample to Detector Distance (SDD) (mm) : 1990.750
% Detector Pixel Size (mm) : 0.075
% Photodiode Value : 141018.000
% I0 of Sample : 0
% I0 of Standard : 1
% 
% q(A^-1)   I(q)    I(q)_SE
0.00000000e+00	8.96814243e-03	4.96192431e-03
2.50000000e-04	0.00000000e+00	0.00000000e+00
5.00000000e-04	0.00000000e+00	0.00000000e+00
7.50000000e-04	0.00000000e+00	0.00000000e+00
1.00000000e-03	0.00000000e+00	0.00000000e+00
1.25000000e-03	0.00000000e+00	0.00000000e+00
1.50000000e-03	0.00000000e+00	0.00000000e+00
1.75000000e-03	0.00000000e+00	0.00000000e+00
2.00000000e-03	0.00000000e+00	0.00000000e+00
2.25000000e-03	0.00000000e+00	0.00000000e+00
2.50000000e-03	0.00000000e+00	0.00000000e+00
2.75000000e-03	0.00000000e+00	0.00000000e+00
3.00000000e-03	0.00000000e+00	0.00000000e+00
3.25000000e-03	4.53101955e+01	2.61635578e+01
3.50000000e-03	2.96058960e+01	7.83092241e+00
3.75000000e-03	2.21860155e+01	4.85705039e+00
4.00000000e-03	1.87654771e+01	3.77659832e+00
4.25000000e-03	1.28831370e+01	2.13391228e+00
4.50000000e-03	1.97697598e+01	4.47482443e+00
4.75000000e-03	2.29802066e+01	5.10693558e+00
5.00000000e-03	1.74158574e+01	3.66406401e+00
5.25000000e-03	1.43360938e+01	2.95456151e+00
5.50000000e-03	1.14920547e+01	2.28663243e+00
5.75000000e-03	9.62986793e+00	1.85964034e+00
6.00000000e-03	7.69942789e+00	1.43245214e+00
6.25000000e-03	6.54806444e+00	1.18806925e+00
6.50000000e-03	5.45703761e+00	9.70312710e-01
6.75000000e-03	4.60303408e+00	7.94911693e-01
7.00000000e-03	4.02421906e+00	6.71256446e-01
7.25000000e-03	3.38545968e+00	5.47540642e-01
7.50000000e-03	2.83039180e+00	4.55702379e-01
7.75000000e-03	2.55213194e+00	4.02141145e-01
8.00000000e-03	2.30185654e+00	3.55760284e-01
8.25000000e-03	1.95061760e+00	2.88547735e-01
8.50000000e-03	1.71684530e+00	2.44630937e-01
8.75000000e-03	1.55714059e+00	2.22426670e-01
9.00000000e-03	1.37397276e+00	1.92187659e-01
9.25000000e-03	1.22204049e+00	1.67149639e-01
9.50000000e-03	1.07009824e+00	1.40996191e-01
9.75000000e-03	9.72710064e-01	1.27433855e-01
1.00000000e-02	8.38741447e-01	1.05570648e-01
1.02500000e-02	8.09469606e-01	1.06412948e-01
1.05000000e-02	7.23417868e-01	9.10706081e-02
1.07500000e-02	6.48336185e-01	8.07744205e-02
1.10000000e-02	5.95818996e-01	7.13334435e-02
1.12500000e-02	5.44216688e-01	6.59204679e-02
1.15000000e-02	5.03897890e-01	5.95449742e-02
1.17500000e-02	4.53067158e-01	5.22967353e-02
1.20000000e-02	4.28233814e-01	4.97821762e-02
1.22500000e-02	3.95123828e-01	4.36276587e-02
1.25000000e-02	3.69576035e-01	4.04650513e-02
1.27500000e-02	3.45632781e-01	3.78697999e-02
1.30000000e-02	3.15247701e-01	3.30849862e-02
1.32500000e-02	2.91449731e-01	2.97331543e-02
1.35000000e-02	2.72018393e-01	2.75018703e-02
1.37500000e-02	2.56862079e-01	2.56156971e-02
1.40000000e-02	2.40082672e-01	2.35464887e-02
1.42500000e-02	2.17779713e-01	2.07376307e-02
1.45000000e-02	2.07372013e-01	1.94127606e-02
1.47500000e-02	1.99284481e-01	1.85187392e-02
1.50000000e-02	1.84026608e-01	1.67751306e-02
1.52500000e-02	1.76993910e-01	1.59011938e-02
1.55000000e-02	1.62820608e-01	1.44827309e-02
1.57500000e-02	1.53819513e-01	1.35192677e-02
1.60000000e-02	1.46302136e-01	1.26643443e-02
1.62500000e-02	1.40644506e-01	1.22349752e-02
1.65000000e-02	1.29940472e-01	1.10495268e-02
1.67500000e-02	1.25477252e-01	9.94749354e-03
1.70000000e-02	1.19871048e-01	9.64707312e-03
1.72500000e-02	1.16490569e-01	9.29167765e-03
1.75000000e-02	1.08807756e-01	8.50939103e-03
1.77500000e-02	1.05195371e-01	7.97156488e-03
1.80000000e-02	9.91157113e-02	7.58735419e-03
1.82500000e-02	9.56564697e-02	6.91116852e-03
1.85000000e-02	9.21657895e-02	6.85262249e-03
1.87500000e-02	8.95996139e-02	6.39909783e-03
1.90000000e-02	8.47086383e-02	5.91941035e-03
1.92500000e-02	8.40993944e-02	5.77263045e-03
1.95000000e-02	7.80959857e-02	5.40363739e-03
1.97500000e-02	7.62227574e-02	5.19198631e-03
2.00000000e-02	7.36110683e-02	4.96742182e-03
2.02500000e-02	7.05224506e-02	4.76149398e-03
2.05000000e-02	6.81898505e-02	4.27686335e-03
2.07500000e-02	6.80774842e-02	4.45648649e-03
2.10000000e-02	6.63089278e-02	4.29233421e-03
2.12500000e-02	6.44608171e-02	4.07609141e-03
2.15000000e-02	6.33506390e-02	4.03596705e-03
2.17500000e-02	6.15715980e-02	3.90104353e-03
2.20000000e-02	6.03238035e-02	3.73090776e-03
2.22500000e-02	5.92054683e-02	3.61050151e-03
2.25000000e-02	5.77697330e-02	3.60469554e-03
2.27500000e-02	5.79194416e-02	3.60299188e-03
2.30000000e-02	5.51273739e-02	3.30131401e-03
2.32500000e-02	5.24606204e-02	3.11834897e-03
2.35000000e-02	5.30322456e-02	3.16420164e-03
2.37500000e-02	5.26063851e-02	3.07183115e-03
2.40000000e-02	5.05188597e-02	2.96218025e-03
2.42500000e-02	5.05315057e-02	2.89710137e-03
2.45000000e-02	4.79432722e-02	2.76594151e-03
2.47500000e-02	4.72762335e-02	2.69377122e-03
2.50000000e-02	4.74287426e-02	2.69403882e-03
2.52500000e-02	4.63478935e-02	2.66796578e-03
2.55000000e-02	4.44300300e-02	2.42422699e-03
2.57500000e-02	4.43733095e-02	2.48327943e-03
2.60000000e-02	4.33307632e-02	2.42501792e-03
2.62500000e-02	4.30189394e-02	2.40630392e-03
2.65000000e-02	4.24187816e-02	2.34793310e-03
2.67500000e-02	4.13613481e-02	2.21347351e-03
2.70000000e-02	4.20363016e-02	2.30080539e-03
2.72500000e-02	4.09849822e-02	2.19853120e-03
2.75000000e-02	3.92479267e-02	2.12977018e-03
2.77500000e-02	3.96412021e-02	2.12898705e-03
2.80000000e-02	3.92199238e-02	2.04807711e-03
2.82500000e-02	3.79718192e-02	1.95434219e-03
2.85000000e-02	3.85920667e-02	2.00607990e-03
2.87500000e-02	3.82405146e-02	1.97479637e-03
2.90000000e-02	3.74674110e-02	1.96132023e-03
2.92500000e-02	3.79500495e-02	1.86380666e-03
2.95000000e-02	3.58211204e-02	1.83132916e-03
2.97500000e-02	3.68349664e-02	1.83762625e-03
3.00000000e-02	3.59545696e-02	1.83034333e-03
3.02500000e-02	3.58757692e-02	1.78321020e-03
3.05000000e-02	3.70193668e-02	1.79649604e-03
3.07500000e-02	3.54526836e-02	1.74798431e-03
3.10000000e-02	3.35532613e-02	1.66536957e-03
3.12500000e-02	3.46473884e-02	1.73799260e-03
3.15000000e-02	3.40368888e-02	1.65544026e-03
3.17500000e-02	3.29459012e-02	1.58888024e-03
3.20000000e-02	3.32666991e-02	1.60568182e-03
3.22500000e-02	3.31108270e-02	1.60873668e-03
3.25000000e-02	3.21283289e-02	1.53716563e-03
3.27500000e-02	3.28381180e-02	1.58082865e-03
3.30000000e-02	3.20707481e-02	1.51314863e-03
3.32500000e-02	3.15480882e-02	1.50419340e-03
3.35000000e-02	3.16613341e-02	1.50091613e-03
3.37500000e-02	3.11317606e-02	1.45512395e-03
3.40000000e-02	3.02474749e-02	1.43104721e-03
3.42500000e-02	3.09468043e-02	1.43509641e-03
3.45000000e-02	2.99694963e-02	1.38854738e-03
3.47500000e-02	2.99866985e-02	1.39450396e-03
3.50000000e-02	2.97317558e-02	1.38316811e-03
3.52500000e-02	2.99526135e-02	1.38032641e-03
3.55000000e-02	2.90300542e-02	1.31734256e-03
3.57500000e-02	2.98006917e-02	1.37946928e-03
3.60000000e-02	2.89051985e-02	1.31303160e-03
3.62500000e-02	2.90361851e-02	1.33574663e-03
3.65000000e-02	2.79946680e-02	1.26783542e-03
3.67500000e-02	2.90348112e-02	1.32179983e-03
3.70000000e-02	2.75005676e-02	1.25349036e-03
3.72500000e-02	2.74882784e-02	1.24537426e-03
3.75000000e-02	2.78896982e-02	1.25421023e-03
3.77500000e-02	2.66689669e-02	1.20892720e-03
3.80000000e-02	2.59764605e-02	1.15900755e-03
3.82500000e-02	2.75867680e-02	1.21936679e-03
3.85000000e-02	2.63197718e-02	1.17850308e-03
3.87500000e-02	2.64196863e-02	1.16250038e-03
3.90000000e-02	2.74123111e-02	1.21746541e-03
3.92500000e-02	2.63376890e-02	1.15194674e-03
3.95000000e-02	2.58435402e-02	1.14026553e-03
3.97500000e-02	2.59204001e-02	1.14001129e-03
4.00000000e-02	2.64717388e-02	1.16039658e-03
4.02500000e-02	2.63764899e-02	1.16090075e-03
4.05000000e-02	2.53248977e-02	1.10218567e-03
4.07500000e-02	2.58563592e-02	1.11689477e-03
4.10000000e-02	2.48900882e-02	1.08652364e-03
4.12500000e-02	2.55668952e-02	1.11767161e-03
4.15000000e-02	2.56095787e-02	1.09124865e-03
4.17500000e-02	2.61225701e-02	1.11986126e-03
4.20000000e-02	2.51596459e-02	1.07551490e-03
4.22500000e-02	2.57572047e-02	1.09322967e-03
4.25000000e-02	2.42335645e-02	1.03245151e-03
4.27500000e-02	2.56929499e-02	1.08603206e-03
4.30000000e-02	2.50335355e-02	1.05307189e-03
4.32500000e-02	2.50041003e-02	1.05143152e-03
4.35000000e-02	2.40095981e-02	1.02586045e-03
4.37500000e-02	2.53102522e-02	1.05847265e-03
4.40000000e-02	2.43297383e-02	1.02563417e-03
4.42500000e-02	2.42994443e-02	1.01639919e-03
4.45000000e-02	2.43454891e-02	1.01744111e-03
4.47500000e-02	2.46644310e-02	1.02948107e-03
4.50000000e-02	2.41283706e-02	1.01198928e-03
4.52500000e-02	2.45474024e-02	1.01553480e-03
4.55000000e-02	2.39427346e-02	1.00442258e-03
4.57500000e-02	2.45742266e-02	1.01285915e-03
4.60000000e-02	2.40778870e-02	1.00077983e-03
4.62500000e-02	2.41417065e-02	9.94496191e-04
4.65000000e-02	2.42697763e-02	9.94481802e-04
4.67500000e-02	2.41363107e-02	9.87056266e-04
4.70000000e-02	2.45216150e-02	1.00045967e-03
4.72500000e-02	2.28723930e-02	9.39352523e-04
4.75000000e-02	2.36168527e-02	9.78385225e-04
4.77500000e-02	2.37102315e-02	9.55324785e-04
4.80000000e-02	2.39086797e-02	9.66528133e-04
4.82500000e-02	2.41909932e-02	9.69997458e-04
4.85000000e-02	2.35435191e-02	9.64485956e-04
4.87500000e-02	2.37519206e-02	9.66387184e-04
4.90000000e-02	2.29449711e-02	9.25047433e-04
4.92500000e-02	2.28274237e-02	9.18336970e-04
4.95000000e-02	2.34655420e-02	9.43938374e-04
4.97500000e-02	2.36627465e-02	9.53878878e-04
5.00000000e-02	2.31238258e-02	9.21629464e-04
5.02500000e-02	2.24398699e-02	8.94664740e-04
5.05000000e-02	2.29586500e-02	9.05564850e-04
5.07500000e-02	2.30423176e-02	9.15684983e-04
5.10000000e-02	2.39516002e-02	9.51333078e-04
5.12500000e-02	2.25972077e-02	8.99000112e-04
5.15000000e-02	2.30043872e-02	9.05849676e-04
5.17500000e-02	2.29589100e-02	9.10120052e-04
5.20000000e-02	2.29267128e-02	8.99394170e-04
5.22500000e-02	2.22720593e-02	8.78083001e-04
5.25000000e-02	2.23513179e-02	8.75535604e-04
5.27500000e-02	2.31263289e-02	9.04777405e-04
5.30000000e-02	2.31422575e-02	9.08620052e-04
5.32500000e-02	2.29079036e-02	8.97265961e-04
5.35000000e-02	2.29919305e-02	8.93061896e-04
5.37500000e-02	2.19425485e-02	8.56797642e-04
5.40000000e-02	2.25733495e-02	8.66715138e-04
5.42500000e-02	2.19562408e-02	8.45821915e-04
5.45000000e-02	2.25972452e-02	8.70628594e-04
5.47500000e-02	2.24068743e-02	8.57791534e-04
5.50000000e-02	2.15435677e-02	8.35090987e-04
5.52500000e-02	2.20342732e-02	8.38380506e-04
5.55000000e-02	2.18952473e-02	8.40875489e-04
5.57500000e-02	2.24369842e-02	8.56216468e-04
5.60000000e-02	2.25498652e-02	8.58762297e-04
5.62500000e-02	2.20711620e-02	8.38312351e-04
5.65000000e-02	2.29917896e-02	8.65822806e-04
5.67500000e-02	2.25323626e-02	8.54531206e-04
5.70000000e-02	2.14683641e-02	8.16914982e-04
5.72500000e-02	2.20041423e-02	8.25210423e-04
5.75000000e-02	2.18452470e-02	8.30067998e-04
5.77500000e-02	2.18990232e-02	8.25962067e-04
5.80000000e-02	2.17565314e-02	8.23131367e-04
5.82500000e-02	2.17706066e-02	8.15679995e-04
5.85000000e-02	2.17251407e-02	8.13509323e-04
5.87500000e-02	2.22813359e-02	8.27181276e-04
5.90000000e-02	2.20333829e-02	8.16878457e-04
5.92500000e-02	2.18741145e-02	8.05404703e-04
5.95000000e-02	2.16712107e-02	8.08015979e-04
5.97500000e-02	2.18529798e-02	8.22667236e-04
6.00000000e-02	2.17831628e-02	8.11150103e-04
6.02500000e-02	2.15579243e-02	7.93129812e-04
6.05000000e-02	2.19225405e-02	8.09097559e-04
6.07500000e-02	2.13559024e-02	7.96107800e-04
6.10000000e-02	2.14281556e-02	7.87148052e-04
6.12500000e-02	2.11457110e-02	7.75743533e-04
6.15000000e-02	2.14812470e-02	7.86294424e-04
6.17500000e-02	2.13821176e-02	7.88552832e-04
6.20000000e-02	2.12132185e-02	7.80777368e-04
6.22500000e-02	2.10191466e-02	7.72811778e-04
6.25000000e-02	2.11795156e-02	7.76109725e-04
6.27500000e-02	2.14873506e-02	7.81042382e-04
6.30000000e-02	2.13101048e-02	7.76716010e-04
6.32500000e-02	2.16582442e-02	7.87262169e-04
6.35000000e-02	2.07568675e-02	7.56727965e-04
6.37500000e-02	2.09031414e-02	7.59276984e-04
6.40000000e-02	2.13269220e-02	7.76031521e-04
6.42500000e-02	2.11517289e-02	7.66580274e-04
6.45000000e-02	2.18153741e-02	7.84636955e-04
6.47500000e-02	2.16688387e-02	7.88477115e-04
6.50000000e-02	2.14885868e-02	7.72982698e-04
6.52500000e-02	2.07657787e-02	7.48382597e-04
6.55000000e-02	2.17153621e-02	7.80211396e-04
6.57500000e-02	2.10800752e-02	7.58287814e-04
6.60000000e-02	2.04923557e-02	7.35337260e-04
6.62500000e-02	2.07028597e-02	7.44728825e-04
6.65000000e-02	2.08432966e-02	7.41334599e-04
6.67500000e-02	2.11160774e-02	7.54730591e-04
6.70000000e-02	2.15796281e-02	7.68071208e-04
6.72500000e-02	2.11513592e-02	7.49936927e-04
6.75000000e-02	2.06461952e-02	7.27294521e-04
6.77500000e-02	2.13709703e-02	7.53495184e-04
6.80000000e-02	2.11673114e-02	7.48857635e-04
6.82500000e-02	2.11879831e-02	7.53188678e-04
6.85000000e-02	2.06610838e-02	7.38033693e-04
6.87500000e-02	2.10180066e-02	7.40407769e-04
6.90000000e-02	2.01856824e-02	7.12160938e-04
6.92500000e-02	2.10554043e-02	7.30131794e-04
6.95000000e-02	2.06510982e-02	7.30367516e-04
6.97500000e-02	2.11863306e-02	7.44837039e-04
7.00000000e-02	2.08492526e-02	7.31055150e-04
7.02500000e-02	2.06113025e-02	7.10336183e-04
7.05000000e-02	2.06664641e-02	7.17512758e-04
7.07500000e-02	2.06624149e-02	7.24672024e-04
7.10000000e-02	2.06113839e-02	7.15220438e-04
7.12500000e-02	2.07619701e-02	7.21854149e-04
7.15000000e-02	2.07018731e-02	7.15880555e-04
7.17500000e-02	2.07815969e-02	7.20630261e-04
7.20000000e-02	2.08571090e-02	7.22626295e-04
7.22500000e-02	2.02800580e-02	6.97455350e-04
7.25000000e-02	2.10493837e-02	7.24458604e-04
7.27500000e-02	2.10285864e-02	7.24101389e-04
7.30000000e-02	2.04778775e-02	7.01148069e-04
7.32500000e-02	2.11225961e-02	7.18145839e-04
7.35000000e-02	2.01964173e-02	6.94758732e-04
7.37500000e-02	2.09829724e-02	7.16118042e-04
7.40000000e-02	2.09117277e-02	7.16509568e-04
7.42500000e-02	2.09266968e-02	7.16645828e-04
7.45000000e-02	2.12783230e-02	7.15301964e-04
7.47500000e-02	2.11080455e-02	7.17397685e-04
7.50000000e-02	2.03766568e-02	6.91515605e-04
7.52500000e-02	2.05615882e-02	6.93676186e-04
7.55000000e-02	2.03960496e-02	6.92109565e-04
7.57500000e-02	2.06268457e-02	6.99347963e-04
7.60000000e-02	2.03463734e-02	6.84749820e-04
7.62500000e-02	2.09512262e-02	7.06758906e-04
7.65000000e-02	2.09568680e-02	7.04116408e-04
7.67500000e-02	2.07335558e-02	6.95337678e-04
7.70000000e-02	2.05873105e-02	6.88971301e-04
7.72500000e-02	2.07479961e-02	7.10592900e-04
7.75000000e-02	2.03465672e-02	7.09933141e-04
7.77500000e-02	2.03072900e-02	7.04085837e-04
7.80000000e-02	2.06345488e-02	7.12988073e-04
7.82500000e-02	2.02400195e-02	7.08852667e-04
7.85000000e-02	2.04088910e-02	7.18052314e-04
7.87500000e-02	2.04988528e-02	7.24893615e-04
7.90000000e-02	2.06580718e-02	7.33715357e-04
7.92500000e-02	2.06601270e-02	7.36458827e-04
7.95000000e-02	2.05779138e-02	7.33727411e-04
7.97500000e-02	2.08731186e-02	7.41967858e-04
8.00000000e-02	2.05860808e-02	7.32104620e-04
8.02500000e-02	2.11995590e-02	7.50516725e-04
8.05000000e-02	2.03066910e-02	7.27332276e-04
8.07500000e-02	1.98159033e-02	7.17657894e-04
8.10000000e-02	2.06514453e-02	7.45497141e-04
8.12500000e-02	1.99470926e-02	7.16888397e-04
8.15000000e-02	2.04934309e-02	7.40730049e-04
8.17500000e-02	2.05713602e-02	7.47219978e-04
8.20000000e-02	2.03060308e-02	7.39062994e-04
8.22500000e-02	2.04081987e-02	7.47360123e-04
8.25000000e-02	2.04681063e-02	7.44764697e-04
8.27500000e-02	1.98093643e-02	7.21205849e-04
8.30000000e-02	1.99784646e-02	7.33700094e-04
8.32500000e-02	2.07046530e-02	7.56637866e-04
8.35000000e-02	2.05681663e-02	7.60155585e-04
8.37500000e-02	2.04397178e-02	7.40796028e-04
8.40000000e-02	2.08499786e-02	7.58646104e-04
8.42500000e-02	2.01414190e-02	7.42083375e-04
8.45000000e-02	2.07258611e-02	7.61033100e-04
8.47500000e-02	2.00112760e-02	7.42911337e-04
8.50000000e-02	2.05458718e-02	7.50020112e-04
8.52500000e-02	2.04026707e-02	7.58248979e-04
8.55000000e-02	1.96088177e-02	7.27084939e-04
8.57500000e-02	2.01435984e-02	7.48586232e-04
8.60000000e-02	2.06790066e-02	7.67737352e-04
8.62500000e-02	2.03176070e-02	7.56033068e-04
8.65000000e-02	2.03234690e-02	7.50082650e-04
8.67500000e-02	2.06393249e-02	7.62629197e-04
8.70000000e-02	2.01009260e-02	7.37732479e-04
8.72500000e-02	2.04904289e-02	7.32044827e-04
8.75000000e-02	2.03952970e-02	7.19312923e-04
8.77500000e-02	2.01034139e-02	7.09548282e-04
8.80000000e-02	2.07879543e-02	7.29871501e-04
8.82500000e-02	2.03911432e-02	7.11529001e-04
8.85000000e-02	2.03177529e-02	7.08543922e-04
8.87500000e-02	2.04848713e-02	7.03168913e-04
8.90000000e-02	2.00666795e-02	6.93887781e-04
8.92500000e-02	2.06922976e-02	7.09799681e-04
8.95000000e-02	2.03262513e-02	6.93101701e-04
8.97500000e-02	2.01295523e-02	6.88195304e-04
9.00000000e-02	1.97601118e-02	6.66433293e-04
9.02500000e-02	1.97960290e-02	6.72851261e-04
9.05000000e-02	2.05114861e-02	6.98804667e-04
9.07500000e-02	2.02687317e-02	6.86935937e-04
9.10000000e-02	2.01842293e-02	6.73474724e-04
9.12500000e-02	2.08485264e-02	6.98278415e-04
9.15000000e-02	2.02283595e-02	6.76924426e-04
9.17500000e-02	2.01436904e-02	6.78737935e-04
9.20000000e-02	2.03242887e-02	6.74785421e-04
9.22500000e-02	1.99416092e-02	6.64262733e-04
9.25000000e-02	1.95291769e-02	6.49844007e-04
9.27500000e-02	2.02982688e-02	6.70482303e-04
9.30000000e-02	2.01567900e-02	6.64203115e-04
9.32500000e-02	2.01310339e-02	6.59430538e-04
9.35000000e-02	2.02325096e-02	6.64478014e-04
9.37500000e-02	1.99302301e-02	6.48875677e-04
9.40000000e-02	2.05886271e-02	6.77339828e-04
9.42500000e-02	2.02596071e-02	6.60008584e-04
9.45000000e-02	1.99820142e-02	6.54408300e-04
9.47500000e-02	2.02551729e-02	6.56360081e-04
9.50000000e-02	1.98170978e-02	6.43094617e-04
9.52500000e-02	2.01131418e-02	6.50678624e-04
9.55000000e-02	2.00074460e-02	6.49204016e-04
9.57500000e-02	2.00833201e-02	6.49948813e-04
9.60000000e-02	2.04040660e-02	6.60509053e-04
9.62500000e-02	2.06612793e-02	6.63711274e-04
9.65000000e-02	2.01568241e-02	6.52340464e-04
9.67500000e-02	2.00485489e-02	6.47037792e-04
9.70000000e-02	2.02632292e-02	6.55935346e-04
9.72500000e-02	1.96171841e-02	6.31066896e-04
9.75000000e-02	1.96039419e-02	6.27719320e-04
9.77500000e-02	2.00636133e-02	6.34789439e-04
9.80000000e-02	2.06874880e-02	6.54712432e-04
9.82500000e-02	1.98850250e-02	6.30760607e-04
9.85000000e-02	1.98618627e-02	6.35305780e-04
9.87500000e-02	1.99789965e-02	6.32861912e-04
9.90000000e-02	1.97621128e-02	6.23361099e-04
9.92500000e-02	1.97491197e-02	6.28588517e-04
9.95000000e-02	1.97674535e-02	6.23098036e-04
9.97500000e-02	1.98118620e-02	6.28785766e-04
1.00000000e-01	1.97562763e-02	5.09713948e-04
1.00500000e-01	2.03316614e-02	4.51165386e-04
1.01000000e-01	1.97762026e-02	4.38533707e-04
1.01500000e-01	1.97329308e-02	4.37519305e-04
1.02000000e-01	2.00147451e-02	4.41076875e-04
1.02500000e-01	2.00069243e-02	4.34937712e-04
1.03000000e-01	1.96955000e-02	4.32074987e-04
1.03500000e-01	2.02110865e-02	4.39474515e-04
1.04000000e-01	1.98760785e-02	4.32322480e-04
1.04500000e-01	1.99143759e-02	4.32880824e-04
1.05000000e-01	1.98294892e-02	4.28920405e-04
1.05500000e-01	2.02401153e-02	4.36559145e-04
1.06000000e-01	1.99086029e-02	4.27396511e-04
1.06500000e-01	2.00511454e-02	4.29518205e-04
1.07000000e-01	2.02561529e-02	4.38979094e-04
1.07500000e-01	1.96629849e-02	4.36448204e-04
1.08000000e-01	2.01262350e-02	4.51986525e-04
1.08500000e-01	1.98466000e-02	4.46850335e-04
1.09000000e-01	2.00150072e-02	4.53068770e-04
1.09500000e-01	1.99325118e-02	4.52393977e-04
1.10000000e-01	2.00007132e-02	4.48035279e-04
1.10500000e-01	2.00975985e-02	4.42184621e-04
1.11000000e-01	2.01638291e-02	4.37766532e-04
1.11500000e-01	2.01953023e-02	4.34726338e-04
1.12000000e-01	1.96651687e-02	4.18193158e-04
1.12500000e-01	1.97451483e-02	4.19255732e-04
1.13000000e-01	1.96704858e-02	4.16871054e-04
1.13500000e-01	1.97476766e-02	4.17661580e-04
1.14000000e-01	1.99315989e-02	4.18075332e-04
1.14500000e-01	2.00442263e-02	4.19467452e-04
1.15000000e-01	1.95996775e-02	4.11234040e-04
1.15500000e-01	2.01428075e-02	4.20005944e-04
1.16000000e-01	1.97711050e-02	4.12603919e-04
1.16500000e-01	1.98047221e-02	4.10297861e-04
1.17000000e-01	1.97490589e-02	4.08622385e-04
1.17500000e-01	1.95677415e-02	4.03837965e-04
1.18000000e-01	1.97389823e-02	4.08954636e-04
1.18500000e-01	1.97594755e-02	4.03384947e-04
1.19000000e-01	1.98264787e-02	4.05809942e-04
1.19500000e-01	1.95417734e-02	3.99996710e-04
1.20000000e-01	1.97958575e-02	4.04647888e-04
1.20500000e-01	1.96695593e-02	4.01148703e-04
1.21000000e-01	1.96561428e-02	4.00058052e-04
1.21500000e-01	1.98321899e-02	4.01468556e-04
1.22000000e-01	1.99652349e-02	4.02052822e-04
1.22500000e-01	1.96336875e-02	3.96427331e-04
1.23000000e-01	2.01285932e-02	4.07500739e-04
1.23500000e-01	1.97847615e-02	3.95394541e-04
1.24000000e-01	2.00477811e-02	4.02172108e-04
1.24500000e-01	1.98885851e-02	3.96461319e-04
1.25000000e-01	1.96600133e-02	3.93948421e-04
1.25500000e-01	2.01844455e-02	4.01841984e-04
1.26000000e-01	1.96268234e-02	3.89182569e-04
1.26500000e-01	1.96915834e-02	3.90349907e-04
1.27000000e-01	1.99080811e-02	3.93473846e-04
1.27500000e-01	1.97252484e-02	3.89249842e-04
1.28000000e-01	1.96469154e-02	3.87971344e-04
1.28500000e-01	1.95107355e-02	3.81765851e-04
1.29000000e-01	1.99265807e-02	3.91926132e-04
1.29500000e-01	1.99544614e-02	3.89879846e-04
1.30000000e-01	1.99699119e-02	3.87834590e-04
1.30500000e-01	1.97991326e-02	3.86280297e-04
1.31000000e-01	1.99236729e-02	3.87944407e-04
1.31500000e-01	1.98501768e-02	3.83457097e-04
1.32000000e-01	1.98554943e-02	3.84858398e-04
1.32500000e-01	1.98045304e-02	3.83212530e-04
1.33000000e-01	1.98244468e-02	3.81264555e-04
1.33500000e-01	1.98007641e-02	3.79840458e-04
1.34000000e-01	1.98015141e-02	3.79862944e-04
1.34500000e-01	1.94934787e-02	3.71078479e-04
1.35000000e-01	1.97047287e-02	3.74097294e-04
1.35500000e-01	1.96525360e-02	3.72747199e-04
1.36000000e-01	1.96869885e-02	3.74215254e-04
1.36500000e-01	1.98154657e-02	3.77388131e-04
1.37000000e-01	1.98296331e-02	3.73426317e-04
1.37500000e-01	1.97796390e-02	3.72403966e-04
1.38000000e-01	1.97334950e-02	3.71820219e-04
1.38500000e-01	1.97736654e-02	3.72972543e-04
1.39000000e-01	1.97465078e-02	3.73085884e-04
1.39500000e-01	1.94839025e-02	3.66504392e-04
1.40000000e-01	1.98958692e-02	3.76000510e-04
1.40500000e-01	1.97998854e-02	3.71666531e-04
1.41000000e-01	2.00285236e-02	3.76795691e-04
1.41500000e-01	1.95507532e-02	3.67250869e-04
1.42000000e-01	1.94885924e-02	3.64292653e-04
1.42500000e-01	1.95905769e-02	3.65527953e-04
1.43000000e-01	1.93577794e-02	3.63386931e-04
1.43500000e-01	1.94331040e-02	3.62334376e-04
1.44000000e-01	1.97979083e-02	3.67350521e-04
1.44500000e-01	1.96993740e-02	3.65691940e-04
1.45000000e-01	1.96434540e-02	3.64543118e-04
1.45500000e-01	1.93977368e-02	3.59376862e-04
1.46000000e-01	1.95041511e-02	3.61609070e-04
1.46500000e-01	1.93650648e-02	3.55697561e-04
1.47000000e-01	1.93008021e-02	3.57094857e-04
1.47500000e-01	1.95534825e-02	3.58700811e-04
1.48000000e-01	1.93634473e-02	3.54751907e-04
1.48500000e-01	1.93752229e-02	3.53774939e-04
1.49000000e-01	1.95046064e-02	3.56242512e-04
1.49500000e-01	1.94735148e-02	3.55838280e-04
1.50000000e-01	1.95449620e-02	3.54976250e-04
1.50500000e-01	1.95198270e-02	3.55240737e-04
1.51000000e-01	1.93807559e-02	3.50793134e-04
1.51500000e-01	1.93792011e-02	3.50434674e-04
1.52000000e-01	1.97399377e-02	3.55220545e-04
1.52500000e-01	1.93712609e-02	3.50745181e-04
1.53000000e-01	1.92405169e-02	3.48519227e-04
1.53500000e-01	1.96069784e-02	3.50645883e-04
1.54000000e-01	1.96146925e-02	3.52577774e-04
1.54500000e-01	1.93519698e-02	3.53153659e-04
1.55000000e-01	1.91174069e-02	3.54967794e-04
1.55500000e-01	1.94948027e-02	3.62694920e-04
1.56000000e-01	1.93416520e-02	3.63989279e-04
1.56500000e-01	1.93886561e-02	3.63031963e-04
1.57000000e-01	1.93613676e-02	3.62694782e-04
1.57500000e-01	1.91845138e-02	3.54137303e-04
1.58000000e-01	1.92197893e-02	3.48922875e-04
1.58500000e-01	1.94545634e-02	3.51151051e-04
1.59000000e-01	1.91977996e-02	3.45126893e-04
1.59500000e-01	1.95216899e-02	3.49995062e-04
1.60000000e-01	1.95331562e-02	3.48605868e-04
1.60500000e-01	1.90209301e-02	3.39787059e-04
1.61000000e-01	1.91194739e-02	3.39683591e-04
1.61500000e-01	1.91682434e-02	3.38882044e-04
1.62000000e-01	1.92353431e-02	3.40226196e-04
1.62500000e-01	1.91514019e-02	3.38854380e-04
1.63000000e-01	1.90052745e-02	3.35379389e-04
1.63500000e-01	1.93809554e-02	3.44352183e-04
1.64000000e-01	1.89599968e-02	3.33142900e-04
1.64500000e-01	1.89607107e-02	3.32508846e-04
1.65000000e-01	1.90495882e-02	3.33584038e-04
1.65500000e-01	1.94008487e-02	3.39895339e-04
1.66000000e-01	1.89737788e-02	3.32417627e-04
1.66500000e-01	1.90649312e-02	3.32942544e-04
1.67000000e-01	1.92317577e-02	3.36815887e-04
1.67500000e-01	1.89540321e-02	3.28742534e-04
1.68000000e-01	1.88977061e-02	3.29434465e-04
1.68500000e-01	1.91213061e-02	3.31000309e-04
1.69000000e-01	1.89707232e-02	3.30200007e-04
1.69500000e-01	1.88153363e-02	3.25091401e-04
1.70000000e-01	1.91584297e-02	3.31151772e-04
1.70500000e-01	1.92283935e-02	3.30593016e-04
1.71000000e-01	1.88569121e-02	3.24628724e-04
1.71500000e-01	1.91560947e-02	3.29394391e-04
1.72000000e-01	1.90465539e-02	3.26657916e-04
1.72500000e-01	1.89698658e-02	3.26141262e-04
1.73000000e-01	1.89048789e-02	3.23665063e-04
1.73500000e-01	1.88932836e-02	3.21842316e-04
1.74000000e-01	1.91309792e-02	3.25480937e-04
1.74500000e-01	1.89995134e-02	3.20873632e-04
1.75000000e-01	1.89853636e-02	3.19584026e-04
1.75500000e-01	1.87614395e-02	3.16398095e-04
1.76000000e-01	1.87984751e-02	3.17414214e-04
1.76500000e-01	1.89479160e-02	3.20389237e-04
1.77000000e-01	1.87001470e-02	3.14806955e-04
1.77500000e-01	1.90421789e-02	3.20689617e-04
1.78000000e-01	1.87052682e-02	3.14541564e-04
1.78500000e-01	1.91207112e-02	3.19845799e-04
1.79000000e-01	1.88342282e-02	3.15317417e-04
1.79500000e-01	1.85997050e-02	3.12838827e-04
1.80000000e-01	1.87489608e-02	3.14331884e-04
1.80500000e-01	1.84901338e-02	3.10674508e-04
1.81000000e-01	1.86710445e-02	3.12740604e-04
1.81500000e-01	1.87359197e-02	3.12802005e-04
1.82000000e-01	1.89157518e-02	3.16592347e-04
1.82500000e-01	1.85088706e-02	3.08267948e-04
1.83000000e-01	1.86159354e-02	3.10181137e-04
1.83500000e-01	1.85123613e-02	3.07332270e-04
1.84000000e-01	1.85199627e-02	3.07353931e-04
1.84500000e-01	1.88262650e-02	3.11432331e-04
1.85000000e-01	1.85522685e-02	3.07573539e-04
1.85500000e-01	1.84238076e-02	3.03625923e-04
1.86000000e-01	1.86781760e-02	3.09183156e-04
1.86500000e-01	1.87321739e-02	3.08125092e-04
1.87000000e-01	1.88991688e-02	3.10961407e-04
1.87500000e-01	1.84954382e-02	3.05471046e-04
1.88000000e-01	1.88182489e-02	3.09611813e-04
1.88500000e-01	1.87027230e-02	3.06741683e-04
1.89000000e-01	1.86630688e-02	3.04954006e-04
1.89500000e-01	1.85973215e-02	3.04219738e-04
1.90000000e-01	1.86390041e-02	3.04324342e-04
1.90500000e-01	1.87470218e-02	3.06601707e-04
1.91000000e-01	1.84617097e-02	3.00288234e-04
1.91500000e-01	1.84551097e-02	3.01408634e-04
1.92000000e-01	1.85610771e-02	3.01365405e-04
1.92500000e-01	1.82515567e-02	2.94814032e-04
1.93000000e-01	1.84825491e-02	2.99467694e-04
1.93500000e-01	1.84425820e-02	2.98635396e-04
1.94000000e-01	1.85859987e-02	3.00659679e-04
1.94500000e-01	1.84124777e-02	2.97469313e-04
1.95000000e-01	1.81696226e-02	2.94465564e-04
1.95500000e-01	1.83410309e-02	2.95780197e-04
1.96000000e-01	1.83469322e-02	2.95117366e-04
1.96500000e-01	1.84329224e-02	2.97706381e-04
1.97000000e-01	1.85334873e-02	2.96791898e-04
1.97500000e-01	1.83161856e-02	2.93328805e-04
1.98000000e-01	1.83008364e-02	2.93749450e-04
1.98500000e-01	1.82692933e-02	2.90932577e-04
1.99000000e-01	1.84520494e-02	2.94422381e-04
1.99500000e-01	1.83667152e-02	2.92958746e-04
2.00000000e-01	1.85615202e-02	2.97197290e-04
2.00500000e-01	1.83796273e-02	2.92759833e-04
2.01000000e-01	1.83742334e-02	2.92841963e-04
2.01500000e-01	1.84334398e-02	2.93950134e-04
2.02000000e-01	1.80680047e-02	2.86589002e-04
2.02500000e-01	1.84074010e-02	2.91520154e-04
2.03000000e-01	1.82941874e-02	2.89800490e-04
2.03500000e-01	1.82645860e-02	2.88663507e-04
2.04000000e-01	1.82103297e-02	2.87590409e-04
2.04500000e-01	1.82066371e-02	2.87431574e-04
2.05000000e-01	1.82775622e-02	2.87900611e-04
2.05500000e-01	1.83474270e-02	2.89998263e-04
2.06000000e-01	1.81547653e-02	2.85807785e-04
2.06500000e-01	1.83356797e-02	2.87730090e-04
2.07000000e-01	1.82669767e-02	2.85576347e-04
2.07500000e-01	1.82043909e-02	2.84658855e-04
2.08000000e-01	1.81392775e-02	2.85545235e-04
2.08500000e-01	1.82397054e-02	2.84052717e-04
2.09000000e-01	1.81636685e-02	2.85386423e-04
2.09500000e-01	1.85411429e-02	2.88027083e-04
2.10000000e-01	1.81391496e-02	2.83527247e-04
2.10500000e-01	1.83896632e-02	2.86631691e-04
2.11000000e-01	1.81224882e-02	2.81528670e-04
2.11500000e-01	1.80553690e-02	2.81033832e-04
2.12000000e-01	1.81852433e-02	2.81906786e-04
2.12500000e-01	1.80714990e-02	2.80458764e-04
2.13000000e-01	1.82126928e-02	2.83052298e-04
2.13500000e-01	1.82184100e-02	2.82386860e-04
2.14000000e-01	1.79828033e-02	2.78371455e-04
2.14500000e-01	1.79599681e-02	2.76921053e-04
2.15000000e-01	1.82228692e-02	2.81648066e-04
2.15500000e-01	1.81629022e-02	2.78311013e-04
2.16000000e-01	1.77438404e-02	2.73871366e-04
2.16500000e-01	1.80789683e-02	2.78471553e-04
2.17000000e-01	1.82442727e-02	2.84509412e-04
2.17500000e-01	1.79854488e-02	2.84681690e-04
2.18000000e-01	1.79943512e-02	2.85338696e-04
2.18500000e-01	1.81239176e-02	2.90112404e-04
2.19000000e-01	1.80971843e-02	2.91038840e-04
2.19500000e-01	1.80571889e-02	2.89847309e-04
2.20000000e-01	1.80602943e-02	2.91241740e-04
2.20500000e-01	1.79637575e-02	2.90142117e-04
2.21000000e-01	1.80141825e-02	2.91842363e-04
2.21500000e-01	1.79659186e-02	2.93304533e-04
2.22000000e-01	1.78853310e-02	2.91709460e-04
2.22500000e-01	1.78233467e-02	2.91077140e-04
2.23000000e-01	1.77709110e-02	2.93471608e-04
2.23500000e-01	1.78898635e-02	2.93821237e-04
2.24000000e-01	1.79222351e-02	2.94757523e-04
2.24500000e-01	1.77813428e-02	2.93534448e-04
2.25000000e-01	1.78575045e-02	2.95016590e-04
2.25500000e-01	1.78855491e-02	2.97104349e-04
2.26000000e-01	1.79796747e-02	2.98110840e-04
2.26500000e-01	1.79498542e-02	2.93297986e-04
2.27000000e-01	1.79056005e-02	2.89520432e-04
2.27500000e-01	1.79902530e-02	2.89622165e-04
2.28000000e-01	1.78201867e-02	2.84049576e-04
2.28500000e-01	1.81928101e-02	2.89249034e-04
2.29000000e-01	1.76761649e-02	2.80140978e-04
2.29500000e-01	1.78277988e-02	2.81658834e-04
2.30000000e-01	1.78492816e-02	2.80525386e-04
2.30500000e-01	1.78523783e-02	2.79422981e-04
2.31000000e-01	1.80952738e-02	2.83645040e-04
2.31500000e-01	1.78978080e-02	2.79712460e-04
2.32000000e-01	1.77252295e-02	2.76090868e-04
2.32500000e-01	1.76324229e-02	2.74589690e-04
2.33000000e-01	1.79880262e-02	2.78134158e-04
2.33500000e-01	1.80770172e-02	2.80311173e-04
2.34000000e-01	1.79591383e-02	2.76796989e-04
2.34500000e-01	1.79858832e-02	2.76185884e-04
2.35000000e-01	1.78141688e-02	2.74393349e-04
2.35500000e-01	1.78762768e-02	2.74710274e-04
2.36000000e-01	1.79357958e-02	2.74979127e-04
2.36500000e-01	1.75560302e-02	2.69076068e-04
2.37000000e-01	1.79217265e-02	2.72481045e-04
2.37500000e-01	1.76743677e-02	2.70151761e-04
2.38000000e-01	1.78143332e-02	2.71100208e-04
2.38500000e-01	1.76779065e-02	2.69317833e-04
2.39000000e-01	1.76959502e-02	2.68363732e-04
2.39500000e-01	1.75937438e-02	2.65838524e-04
2.40000000e-01	1.77333163e-02	2.68183338e-04
2.40500000e-01	1.78920644e-02	2.68979037e-04
2.41000000e-01	1.79473081e-02	2.69770936e-04
2.41500000e-01	1.76377001e-02	2.64123073e-04
2.42000000e-01	1.77892038e-02	2.67355468e-04
2.42500000e-01	1.78572996e-02	2.67517389e-04
2.43000000e-01	1.77228619e-02	2.65205199e-04
2.43500000e-01	1.77322613e-02	2.65133397e-04
2.44000000e-01	1.77324971e-02	2.63713204e-04
2.44500000e-01	1.75984465e-02	2.62421248e-04
2.45000000e-01	1.74984039e-02	2.61273757e-04
2.45500000e-01	1.75235668e-02	2.60445881e-04
2.46000000e-01	1.75215495e-02	2.61062380e-04
2.46500000e-01	1.77325691e-02	2.62156916e-04
2.47000000e-01	1.75828856e-02	2.60486333e-04
2.47500000e-01	1.74854414e-02	2.58224030e-04
2.48000000e-01	1.78682664e-02	2.63386336e-04
2.48500000e-01	1.78071800e-02	2.61823652e-04
2.49000000e-01	1.74174035e-02	2.56067650e-04
2.49500000e-01	1.76411894e-02	2.59365561e-04
2.50000000e-01	1.74056996e-02	2.54584607e-04
2.50500000e-01	1.75528999e-02	2.58758778e-04
2.51000000e-01	1.75715951e-02	2.58025743e-04
2.51500000e-01	1.75592786e-02	2.57713269e-04
2.52000000e-01	1.76943027e-02	2.59930347e-04
2.52500000e-01	1.75100867e-02	2.55705249e-04
2.53000000e-01	1.74504465e-02	2.55271925e-04
2.53500000e-01	1.75162454e-02	2.56172208e-04
2.54000000e-01	1.73211780e-02	2.52801005e-04
2.54500000e-01	1.73547378e-02	2.52550213e-04
2.55000000e-01	1.74358701e-02	2.52648171e-04
2.55500000e-01	1.75478501e-02	2.55987287e-04
2.56000000e-01	1.77194900e-02	2.57149116e-04
2.56500000e-01	1.73587430e-02	2.51719815e-04
2.57000000e-01	1.75643619e-02	2.53958960e-04
2.57500000e-01	1.73190238e-02	2.50649390e-04
2.58000000e-01	1.73699042e-02	2.51699814e-04
2.58500000e-01	1.73809415e-02	2.51278019e-04
2.59000000e-01	1.74323226e-02	2.52697277e-04
2.59500000e-01	1.74418710e-02	2.51461046e-04
2.60000000e-01	1.71564434e-02	2.47086253e-04
2.60500000e-01	1.74371329e-02	2.51724366e-04
2.61000000e-01	1.74007672e-02	2.50028432e-04
2.61500000e-01	1.73696460e-02	2.50063154e-04
2.62000000e-01	1.72954467e-02	2.48300117e-04
2.62500000e-01	1.72364629e-02	2.46750067e-04
2.63000000e-01	1.73051788e-02	2.47739975e-04
2.63500000e-01	1.74006884e-02	2.48910985e-04
2.64000000e-01	1.73455195e-02	2.48533741e-04
2.64500000e-01	1.72300038e-02	2.46168906e-04
2.65000000e-01	1.70680008e-02	2.44240761e-04
2.65500000e-01	1.71895564e-02	2.44587661e-04
2.66000000e-01	1.72986342e-02	2.46833422e-04
2.66500000e-01	1.72569889e-02	2.46148440e-04
2.67000000e-01	1.72583458e-02	2.44783533e-04
2.67500000e-01	1.73404734e-02	2.44870011e-04
2.68000000e-01	1.73426002e-02	2.44453352e-04
2.68500000e-01	1.74332117e-02	2.45475830e-04
2.69000000e-01	1.74476813e-02	2.45302451e-04
2.69500000e-01	1.72600215e-02	2.42966895e-04
2.70000000e-01	1.71427031e-02	2.41122520e-04
2.70500000e-01	1.72636891e-02	2.42911660e-04
2.71000000e-01	1.73665353e-02	2.42752324e-04
2.71500000e-01	1.71782464e-02	2.41352379e-04
2.72000000e-01	1.72553387e-02	2.41678401e-04
2.72500000e-01	1.71046804e-02	2.39747900e-04
2.73000000e-01	1.72329635e-02	2.41016256e-04
2.73500000e-01	1.70529462e-02	2.38847782e-04
2.74000000e-01	1.71711419e-02	2.40613281e-04
2.74500000e-01	1.70140134e-02	2.36740919e-04
2.75000000e-01	1.70701197e-02	2.38846363e-04
2.75500000e-01	1.71280210e-02	2.39143388e-04
2.76000000e-01	1.72917113e-02	2.40938959e-04
2.76500000e-01	1.70686775e-02	2.39223719e-04
2.77000000e-01	1.69802367e-02	2.36999211e-04
2.77500000e-01	1.71695633e-02	2.38864574e-04
2.78000000e-01	1.72713525e-02	2.40130759e-04
2.78500000e-01	1.70997163e-02	2.36842447e-04
2.79000000e-01	1.71767768e-02	2.38049276e-04
2.79500000e-01	1.71445454e-02	2.37597449e-04
2.80000000e-01	1.70006374e-02	2.35699357e-04
2.80500000e-01	1.71161191e-02	2.37022486e-04
2.81000000e-01	1.69873979e-02	2.35014059e-04
2.81500000e-01	1.69887779e-02	2.35859710e-04
2.82000000e-01	1.70062533e-02	2.33626511e-04
2.82500000e-01	1.70995048e-02	2.36527440e-04
2.83000000e-01	1.67830522e-02	2.31505595e-04
2.83500000e-01	1.68726003e-02	2.32087788e-04
2.84000000e-01	1.69508601e-02	2.33224175e-04
2.84500000e-01	1.70024846e-02	2.33602275e-04
2.85000000e-01	1.68003180e-02	2.31049043e-04
2.85500000e-01	1.70144710e-02	2.32731497e-04
2.86000000e-01	1.70301362e-02	2.33885880e-04
2.86500000e-01	1.71306835e-02	2.34613801e-04
2.87000000e-01	1.69928836e-02	2.32356847e-04
2.87500000e-01	1.68818264e-02	2.30331838e-04
2.88000000e-01	1.70163145e-02	2.31200745e-04
2.88500000e-01	1.69979039e-02	2.32038794e-04
2.89000000e-01	1.70099074e-02	2.31437443e-04
2.89500000e-01	1.70667421e-02	2.32502729e-04
2.90000000e-01	1.68492235e-02	2.29223296e-04
2.90500000e-01	1.70577992e-02	2.31817977e-04
2.91000000e-01	1.69787033e-02	2.29888254e-04
2.91500000e-01	1.68292748e-02	2.27610920e-04
2.92000000e-01	1.68062725e-02	2.27360212e-04
2.92500000e-01	1.69675210e-02	2.29318087e-04
2.93000000e-01	1.70835658e-02	2.30000965e-04
2.93500000e-01	1.68853803e-02	2.27123281e-04
2.94000000e-01	1.67907976e-02	2.26686943e-04
2.94500000e-01	1.68786109e-02	2.27802297e-04
2.95000000e-01	1.68534580e-02	2.25691813e-04
2.95500000e-01	1.69420149e-02	2.27915779e-04
2.96000000e-01	1.66618185e-02	2.24457568e-04
2.96500000e-01	1.68255426e-02	2.25816590e-04
2.97000000e-01	1.67670578e-02	2.25593045e-04
2.97500000e-01	1.68709299e-02	2.25894446e-04
2.98000000e-01	1.69427985e-02	2.27161464e-04
2.98500000e-01	1.69483275e-02	2.26593321e-04
2.99000000e-01	1.69144208e-02	2.26580165e-04
2.99500000e-01	1.69637310e-02	2.27090487e-04
3.00000000e-01	1.68073932e-02	2.25284962e-04
3.00500000e-01	1.66332182e-02	2.21393554e-04
3.01000000e-01	1.69430992e-02	2.24937559e-04
3.01500000e-01	1.67583044e-02	2.23755875e-04
3.02000000e-01	1.67303457e-02	2.22688593e-04
3.02500000e-01	1.69757411e-02	2.25161035e-04
3.03000000e-01	1.68589275e-02	2.24826550e-04
3.03500000e-01	1.67582897e-02	2.21679971e-04
3.04000000e-01	1.67950492e-02	2.23063840e-04
3.04500000e-01	1.67442479e-02	2.21775332e-04
3.05000000e-01	1.68660006e-02	2.23714968e-04
3.05500000e-01	1.65190763e-02	2.18735163e-04
3.06000000e-01	1.65700801e-02	2.18230999e-04
3.06500000e-01	1.70206549e-02	2.24472021e-04
3.07000000e-01	1.66101284e-02	2.19692403e-04
3.07500000e-01	1.68018694e-02	2.21091785e-04
3.08000000e-01	1.64421489e-02	2.16771876e-04
3.08500000e-01	1.64987926e-02	2.17044874e-04
3.09000000e-01	1.65611798e-02	2.18378437e-04
3.09500000e-01	1.66559664e-02	2.18643956e-04
3.10000000e-01	1.67557789e-02	2.20460913e-04
3.10500000e-01	1.67141002e-02	2.19258081e-04
3.11000000e-01	1.66918885e-02	2.19497921e-04
3.11500000e-01	1.64776629e-02	2.17009058e-04
3.12000000e-01	1.65941130e-02	2.17639725e-04
3.12500000e-01	1.65872557e-02	2.18185334e-04
3.13000000e-01	1.66680969e-02	2.17395231e-04
3.13500000e-01	1.65909618e-02	2.15990314e-04
3.14000000e-01	1.67544747e-02	2.19091067e-04
3.14500000e-01	1.66074313e-02	2.16543144e-04
3.15000000e-01	1.66505428e-02	2.16625300e-04
3.15500000e-01	1.64440537e-02	2.14475619e-04
3.16000000e-01	1.64927305e-02	2.15512829e-04
3.16500000e-01	1.64625538e-02	2.14358992e-04
3.17000000e-01	1.66315516e-02	2.15892487e-04
3.17500000e-01	1.65339818e-02	2.15642405e-04
3.18000000e-01	1.66147272e-02	2.15860458e-04
3.18500000e-01	1.66029059e-02	2.15839595e-04
3.19000000e-01	1.66028884e-02	2.15039194e-04
3.19500000e-01	1.64314465e-02	2.12703125e-04
3.20000000e-01	1.64875722e-02	2.13387150e-04
3.20500000e-01	1.65017342e-02	2.13443721e-04
3.21000000e-01	1.65574146e-02	2.13989701e-04
3.21500000e-01	1.65447544e-02	2.13455779e-04
3.22000000e-01	1.63168070e-02	2.10828092e-04
3.22500000e-01	1.64833306e-02	2.12037262e-04
3.23000000e-01	1.64400070e-02	2.12071728e-04
3.23500000e-01	1.62864033e-02	2.09464810e-04
3.24000000e-01	1.62885403e-02	2.09402218e-04
3.24500000e-01	1.63397963e-02	2.11388330e-04
3.25000000e-01	1.64939726e-02	2.12776116e-04
3.25500000e-01	1.64208634e-02	2.10447534e-04
3.26000000e-01	1.64357316e-02	2.11217315e-04
3.26500000e-01	1.63723227e-02	2.09477104e-04
3.27000000e-01	1.62626277e-02	2.08674035e-04
3.27500000e-01	1.63116820e-02	2.08911063e-04
3.28000000e-01	1.62516795e-02	2.09061611e-04
3.28500000e-01	1.62950445e-02	2.07912610e-04
3.29000000e-01	1.62888049e-02	2.07595334e-04
3.29500000e-01	1.63860586e-02	2.09784768e-04
3.30000000e-01	1.62561336e-02	2.07272393e-04
3.30500000e-01	1.62262357e-02	2.07516782e-04
3.31000000e-01	1.63071202e-02	2.08154515e-04
3.31500000e-01	1.63989126e-02	2.08466425e-04
3.32000000e-01	1.63229166e-02	2.07596520e-04
3.32500000e-01	1.61615016e-02	2.05709418e-04
3.33000000e-01	1.62280066e-02	2.05582027e-04
3.33500000e-01	1.62312209e-02	2.05964840e-04
3.34000000e-01	1.62581232e-02	2.05762342e-04
3.34500000e-01	1.61153433e-02	2.05277319e-04
3.35000000e-01	1.62558151e-02	2.05259268e-04
3.35500000e-01	1.61000359e-02	2.03792468e-04
3.36000000e-01	1.61119214e-02	2.03801555e-04
3.36500000e-01	1.60408858e-02	2.03623637e-04
3.37000000e-01	1.61774305e-02	2.03911087e-04
3.37500000e-01	1.61904610e-02	2.04830505e-04
3.38000000e-01	1.60355799e-02	2.02466324e-04
3.38500000e-01	1.61063835e-02	2.02888248e-04
3.39000000e-01	1.61138154e-02	2.03225942e-04
3.39500000e-01	1.61346714e-02	2.02733013e-04
3.40000000e-01	1.60658948e-02	2.02495015e-04
3.40500000e-01	1.61068385e-02	2.02418271e-04
3.41000000e-01	1.60029812e-02	2.01600981e-04
3.41500000e-01	1.59709137e-02	2.01098174e-04
3.42000000e-01	1.59041550e-02	1.98378482e-04
3.42500000e-01	1.60372581e-02	2.02283197e-04
3.43000000e-01	1.61259625e-02	2.01725817e-04
3.43500000e-01	1.60258859e-02	2.00526614e-04
3.44000000e-01	1.60016895e-02	2.01068555e-04
3.44500000e-01	1.59521112e-02	2.00096626e-04
3.45000000e-01	1.60968695e-02	2.01099728e-04
3.45500000e-01	1.59105553e-02	1.98571603e-04
3.46000000e-01	1.58804965e-02	1.97985596e-04
3.46500000e-01	1.59306866e-02	1.98437938e-04
3.47000000e-01	1.58452595e-02	1.97644946e-04
3.47500000e-01	1.60717888e-02	2.00092190e-04
3.48000000e-01	1.59781356e-02	1.98695927e-04
3.48500000e-01	1.59839624e-02	1.99340823e-04
3.49000000e-01	1.58789888e-02	1.97381174e-04
3.49500000e-01	1.59063974e-02	1.97255321e-04
3.50000000e-01	1.59770518e-02	1.61450907e-04
3.51000000e-01	1.59820623e-02	1.40050943e-04
3.52000000e-01	1.59659979e-02	1.39681335e-04
3.53000000e-01	1.59272869e-02	1.38443870e-04
3.54000000e-01	1.58260494e-02	1.37846961e-04
3.55000000e-01	1.58558446e-02	1.38242630e-04
3.56000000e-01	1.59473655e-02	1.39602872e-04
3.57000000e-01	1.57644603e-02	1.40559161e-04
3.58000000e-01	1.56913387e-02	1.41129595e-04
3.59000000e-01	1.57379242e-02	1.42389862e-04
3.60000000e-01	1.57154514e-02	1.43079345e-04
3.61000000e-01	1.57318358e-02	1.43660365e-04
3.62000000e-01	1.55759120e-02	1.43111286e-04
3.63000000e-01	1.56929161e-02	1.44671083e-04
3.64000000e-01	1.57090479e-02	1.45588150e-04
3.65000000e-01	1.57017259e-02	1.45781681e-04
3.66000000e-01	1.57106261e-02	1.44074820e-04
3.67000000e-01	1.56953926e-02	1.42100733e-04
3.68000000e-01	1.56154733e-02	1.39952200e-04
3.69000000e-01	1.54915250e-02	1.38871936e-04
3.70000000e-01	1.56629979e-02	1.39007266e-04
3.71000000e-01	1.57040700e-02	1.41492697e-04
3.72000000e-01	1.56013711e-02	1.41469260e-04
3.73000000e-01	1.54818944e-02	1.40631903e-04
3.74000000e-01	1.56688852e-02	1.42331622e-04
3.75000000e-01	1.55669158e-02	1.41799822e-04
3.76000000e-01	1.54231459e-02	1.40519787e-04
3.77000000e-01	1.54522100e-02	1.40881305e-04
3.78000000e-01	1.55587500e-02	1.41783683e-04
3.79000000e-01	1.55243883e-02	1.41350345e-04
3.80000000e-01	1.54772061e-02	1.40420711e-04
3.81000000e-01	1.54939578e-02	1.40499032e-04
3.82000000e-01	1.54569911e-02	1.40450491e-04
3.83000000e-01	1.54937362e-02	1.40755444e-04
3.84000000e-01	1.55398442e-02	1.41204226e-04
3.85000000e-01	1.54373042e-02	1.40413258e-04
3.86000000e-01	1.54255407e-02	1.40047132e-04
3.87000000e-01	1.54412323e-02	1.40472676e-04
3.88000000e-01	1.53214528e-02	1.39189626e-04
3.89000000e-01	1.53048051e-02	1.38691284e-04
3.90000000e-01	1.54334109e-02	1.39713175e-04
3.91000000e-01	1.53524507e-02	1.39378976e-04
3.92000000e-01	1.53361909e-02	1.39020814e-04
3.93000000e-01	1.53747670e-02	1.39073707e-04
3.94000000e-01	1.52489297e-02	1.38068222e-04
3.95000000e-01	1.51541013e-02	1.37794863e-04
3.96000000e-01	1.52796751e-02	1.38506075e-04
3.97000000e-01	1.52147227e-02	1.38090210e-04
3.98000000e-01	1.53189531e-02	1.38679183e-04
3.99000000e-01	1.52505182e-02	1.38077984e-04
4.00000000e-01	1.52118220e-02	1.37755055e-04
4.01000000e-01	1.52134649e-02	1.37625323e-04
4.02000000e-01	1.52160309e-02	1.37742702e-04
4.03000000e-01	1.52069806e-02	1.37963921e-04
4.04000000e-01	1.51992678e-02	1.37737511e-04
4.05000000e-01	1.51312567e-02	1.37072272e-04
4.06000000e-01	1.50991425e-02	1.36457780e-04
4.07000000e-01	1.51838924e-02	1.37415488e-04
4.08000000e-01	1.51523595e-02	1.37283538e-04
4.09000000e-01	1.50783505e-02	1.36099225e-04
4.10000000e-01	1.49992740e-02	1.35838251e-04
4.11000000e-01	1.51663552e-02	1.37120859e-04
4.12000000e-01	1.51846244e-02	1.37350511e-04
4.13000000e-01	1.50483144e-02	1.35804101e-04
4.14000000e-01	1.50806890e-02	1.36127133e-04
4.15000000e-01	1.50063410e-02	1.35388855e-04
4.16000000e-01	1.50879406e-02	1.36393020e-04
4.17000000e-01	1.50337893e-02	1.35404191e-04
4.18000000e-01	1.50160182e-02	1.36961658e-04
4.19000000e-01	1.51040015e-02	1.39401796e-04
4.20000000e-01	1.51027382e-02	1.39936801e-04
4.21000000e-01	1.50258906e-02	1.39849380e-04
4.22000000e-01	1.49953677e-02	1.40361594e-04
4.23000000e-01	1.50160450e-02	1.40720399e-04
4.24000000e-01	1.50124643e-02	1.41534122e-04
4.25000000e-01	1.50001553e-02	1.41251846e-04
4.26000000e-01	1.49691992e-02	1.40885441e-04
4.27000000e-01	1.51595261e-02	1.42779406e-04
4.28000000e-01	1.50177816e-02	1.41703092e-04
4.29000000e-01	1.51102715e-02	1.43094219e-04
4.30000000e-01	1.50641972e-02	1.41928297e-04
4.31000000e-01	1.50609208e-02	1.41692647e-04
4.32000000e-01	1.49378412e-02	1.41288623e-04
4.33000000e-01	1.49476257e-02	1.41482645e-04
4.34000000e-01	1.48982399e-02	1.40840105e-04
4.35000000e-01	1.49795860e-02	1.41982925e-04
4.36000000e-01	1.49281952e-02	1.41751719e-04
4.37000000e-01	1.49359653e-02	1.41891986e-04
4.38000000e-01	1.49775986e-02	1.42571510e-04
4.39000000e-01	1.49095950e-02	1.41815051e-04
4.40000000e-01	1.48948560e-02	1.42123911e-04
4.41000000e-01	1.48907809e-02	1.41817682e-04
4.42000000e-01	1.48521715e-02	1.41929649e-04
4.43000000e-01	1.49855164e-02	1.43216452e-04
4.44000000e-01	1.48975506e-02	1.43114404e-04
4.45000000e-01	1.48911948e-02	1.42697004e-04
4.46000000e-01	1.46889708e-02	1.41195333e-04
4.47000000e-01	1.47923125e-02	1.42224908e-04
4.48000000e-01	1.47539553e-02	1.41273341e-04
4.49000000e-01	1.46623392e-02	1.41417318e-04
4.50000000e-01	1.47958170e-02	1.42864491e-04
4.51000000e-01	1.47260144e-02	1.42356296e-04
4.52000000e-01	1.48256246e-02	1.43460562e-04
4.53000000e-01	1.47524550e-02	1.42685360e-04
4.54000000e-01	1.47805426e-02	1.43087053e-04
4.55000000e-01	1.47724984e-02	1.43255366e-04
4.56000000e-01	1.46545540e-02	1.42381673e-04
4.57000000e-01	1.46928307e-02	1.42688458e-04
4.58000000e-01	1.46950079e-02	1.43079707e-04
4.59000000e-01	1.47623255e-02	1.43227910e-04
4.60000000e-01	1.45992890e-02	1.42352492e-04
4.61000000e-01	1.47594169e-02	1.43747955e-04
4.62000000e-01	1.47432851e-02	1.43303251e-04
4.63000000e-01	1.45351638e-02	1.41796479e-04
4.64000000e-01	1.46501720e-02	1.43231731e-04
4.65000000e-01	1.46056444e-02	1.43022346e-04
4.66000000e-01	1.46332633e-02	1.42638745e-04
4.67000000e-01	1.45351125e-02	1.42327545e-04
4.68000000e-01	1.46381709e-02	1.43243243e-04
4.69000000e-01	1.44956412e-02	1.42335115e-04
4.70000000e-01	1.46032167e-02	1.43219215e-04
4.71000000e-01	1.45744091e-02	1.42794128e-04
4.72000000e-01	1.46390769e-02	1.43308975e-04
4.73000000e-01	1.47204891e-02	1.44038460e-04
4.74000000e-01	1.45023189e-02	1.42343917e-04
4.75000000e-01	1.45128034e-02	1.42301166e-04
4.76000000e-01	1.46798455e-02	1.43353024e-04
4.77000000e-01	1.46390221e-02	1.43768987e-04
4.78000000e-01	1.44800768e-02	1.41845670e-04
4.79000000e-01	1.45252133e-02	1.42449186e-04
4.80000000e-01	1.44404422e-02	1.41968792e-04
4.81000000e-01	1.43319412e-02	1.40589095e-04
4.82000000e-01	1.43610840e-02	1.41311434e-04
4.83000000e-01	1.44531116e-02	1.41920931e-04
4.84000000e-01	1.44521346e-02	1.42567925e-04
4.85000000e-01	1.45709010e-02	1.43264562e-04
4.86000000e-01	1.44234379e-02	1.42028310e-04
4.87000000e-01	1.44236749e-02	1.42207176e-04
4.88000000e-01	1.43317682e-02	1.41568475e-04
4.89000000e-01	1.43244958e-02	1.41629188e-04
4.90000000e-01	1.44019898e-02	1.42018477e-04
4.91000000e-01	1.43576910e-02	1.42110016e-04
4.92000000e-01	1.44129106e-02	1.42225572e-04
4.93000000e-01	1.44618202e-02	1.43077501e-04
4.94000000e-01	1.42755910e-02	1.41775346e-04
4.95000000e-01	1.43305846e-02	1.43129150e-04
4.96000000e-01	1.43036897e-02	1.46515394e-04
4.97000000e-01	1.43915679e-02	1.50415294e-04
4.98000000e-01	1.43740424e-02	1.52534615e-04
4.99000000e-01	1.44134818e-02	1.54431658e-04
5.00000000e-01	1.44238062e-02	1.56145005e-04
5.01000000e-01	1.43473421e-02	1.57056371e-04
5.02000000e-01	1.44513515e-02	1.59747281e-04
5.03000000e-01	1.43384414e-02	1.60232050e-04
5.04000000e-01	1.43212401e-02	1.60679558e-04
5.05000000e-01	1.43469527e-02	1.59076147e-04
5.06000000e-01	1.42409800e-02	1.54699849e-04
5.07000000e-01	1.41296043e-02	1.51410374e-04
5.08000000e-01	1.42852222e-02	1.52176495e-04
5.09000000e-01	1.43944388e-02	1.52542271e-04
5.10000000e-01	1.43978055e-02	1.51884435e-04
5.11000000e-01	1.43318919e-02	1.51076066e-04
5.12000000e-01	1.43008249e-02	1.50296715e-04
5.13000000e-01	1.42183517e-02	1.49319340e-04
5.14000000e-01	1.42686685e-02	1.49409885e-04
5.15000000e-01	1.43606211e-02	1.49793898e-04
5.16000000e-01	1.43490542e-02	1.49516894e-04
5.17000000e-01	1.42039841e-02	1.47917108e-04
5.18000000e-01	1.42238701e-02	1.48109450e-04
5.19000000e-01	1.41400248e-02	1.46485312e-04
5.20000000e-01	1.42222367e-02	1.47071056e-04
5.21000000e-01	1.42521565e-02	1.47110755e-04
5.22000000e-01	1.41370899e-02	1.45617695e-04
5.23000000e-01	1.41994724e-02	1.46473947e-04
5.24000000e-01	1.41747503e-02	1.46471018e-04
5.25000000e-01	1.40891480e-02	1.45375437e-04
5.26000000e-01	1.41711095e-02	1.46395572e-04
5.27000000e-01	1.42651951e-02	1.46968135e-04
5.28000000e-01	1.41355571e-02	1.46122422e-04
5.29000000e-01	1.41233588e-02	1.46051660e-04
5.30000000e-01	1.41145682e-02	1.45593889e-04
5.31000000e-01	1.39555013e-02	1.44553872e-04
5.32000000e-01	1.39829323e-02	1.44546874e-04
5.33000000e-01	1.39940054e-02	1.44396986e-04
5.34000000e-01	1.40829894e-02	1.45235821e-04
5.35000000e-01	1.39537360e-02	1.44250791e-04
5.36000000e-01	1.39170044e-02	1.43619150e-04
5.37000000e-01	1.40019077e-02	1.44773046e-04
5.38000000e-01	1.39968180e-02	1.44482485e-04
5.39000000e-01	1.40148959e-02	1.44988633e-04
5.40000000e-01	1.39285853e-02	1.43751039e-04
5.41000000e-01	1.38823796e-02	1.43654792e-04
5.42000000e-01	1.39229808e-02	1.44300811e-04
5.43000000e-01	1.38651720e-02	1.43404556e-04
5.44000000e-01	1.38554900e-02	1.43289116e-04
5.45000000e-01	1.38756697e-02	1.43748392e-04
5.46000000e-01	1.39524297e-02	1.44243482e-04
5.47000000e-01	1.38905511e-02	1.43417056e-04
5.48000000e-01	1.39123657e-02	1.43528900e-04
5.49000000e-01	1.38113137e-02	1.42552501e-04
5.50000000e-01	1.38412997e-02	1.42816411e-04
5.51000000e-01	1.38633707e-02	1.42561547e-04
5.52000000e-01	1.38215189e-02	1.41746171e-04
5.53000000e-01	1.38825379e-02	1.42707300e-04
5.54000000e-01	1.36346431e-02	1.40342330e-04
5.55000000e-01	1.36698928e-02	1.40547857e-04
5.56000000e-01	1.36659617e-02	1.40387701e-04
5.57000000e-01	1.37553358e-02	1.41356862e-04
5.58000000e-01	1.36225668e-02	1.39681566e-04
5.59000000e-01	1.37824482e-02	1.41195001e-04
5.60000000e-01	1.36796679e-02	1.40951420e-04
5.61000000e-01	1.36635112e-02	1.40573818e-04
5.62000000e-01	1.35517463e-02	1.40235011e-04
5.63000000e-01	1.38407212e-02	1.41880585e-04
5.64000000e-01	1.37169260e-02	1.40825537e-04
5.65000000e-01	1.36995469e-02	1.40573169e-04
5.66000000e-01	1.35937726e-02	1.40073623e-04
5.67000000e-01	1.37537098e-02	1.41474984e-04
5.68000000e-01	1.36536843e-02	1.40616022e-04
5.69000000e-01	1.35650188e-02	1.39416522e-04
5.70000000e-01	1.36193858e-02	1.39810543e-04
5.71000000e-01	1.35716034e-02	1.39760791e-04
5.72000000e-01	1.37266509e-02	1.40923549e-04
5.73000000e-01	1.36095106e-02	1.40098002e-04
5.74000000e-01	1.37849618e-02	1.41703468e-04
5.75000000e-01	1.35481159e-02	1.39888067e-04
5.76000000e-01	1.34611206e-02	1.38487698e-04
5.77000000e-01	1.35920071e-02	1.39503252e-04
5.78000000e-01	1.35958238e-02	1.40249773e-04
5.79000000e-01	1.36446773e-02	1.40441830e-04
5.80000000e-01	1.35431033e-02	1.39378981e-04
5.81000000e-01	1.34954225e-02	1.39280849e-04
5.82000000e-01	1.35385041e-02	1.39561766e-04
5.83000000e-01	1.35222282e-02	1.39467493e-04
5.84000000e-01	1.34973846e-02	1.39329971e-04
5.85000000e-01	1.34122808e-02	1.38637681e-04
5.86000000e-01	1.34279125e-02	1.38637565e-04
5.87000000e-01	1.34497126e-02	1.38640764e-04
5.88000000e-01	1.33528357e-02	1.37989733e-04
5.89000000e-01	1.34096123e-02	1.38741740e-04
5.90000000e-01	1.34643336e-02	1.39012577e-04
5.91000000e-01	1.34399342e-02	1.38917538e-04
5.92000000e-01	1.34559502e-02	1.38945697e-04
5.93000000e-01	1.35345503e-02	1.39845019e-04
5.94000000e-01	1.33935669e-02	1.38407739e-04
5.95000000e-01	1.33297678e-02	1.37793237e-04
5.96000000e-01	1.34535421e-02	1.39483925e-04
5.97000000e-01	1.35255059e-02	1.39498290e-04
5.98000000e-01	1.34569974e-02	1.39256521e-04
5.99000000e-01	1.34491361e-02	1.38455657e-04
6.00000000e-01	1.33327314e-02	1.38269765e-04
6.01000000e-01	1.34090567e-02	1.38969779e-04
6.02000000e-01	1.32241027e-02	1.36914631e-04
6.03000000e-01	1.33865096e-02	1.38536787e-04
6.04000000e-01	1.31662589e-02	1.36826567e-04
6.05000000e-01	1.32363563e-02	1.37279114e-04
6.06000000e-01	1.34041167e-02	1.39043090e-04
6.07000000e-01	1.32699113e-02	1.37153028e-04
6.08000000e-01	1.32191589e-02	1.37088650e-04
6.09000000e-01	1.33088338e-02	1.38029627e-04
6.10000000e-01	1.32565872e-02	1.37628530e-04
6.11000000e-01	1.31940774e-02	1.36887773e-04
6.12000000e-01	1.32394088e-02	1.37173140e-04
6.13000000e-01	1.33889151e-02	1.38343856e-04
6.14000000e-01	1.32375143e-02	1.37553519e-04
6.15000000e-01	1.31433442e-02	1.36611716e-04
6.16000000e-01	1.32845756e-02	1.37784215e-04
6.17000000e-01	1.32892654e-02	1.37662316e-04
6.18000000e-01	1.30400488e-02	1.35773621e-04
6.19000000e-01	1.32172410e-02	1.37114831e-04
6.20000000e-01	1.32910028e-02	1.37604165e-04
6.21000000e-01	1.32859922e-02	1.37078418e-04
6.22000000e-01	1.32699508e-02	1.37119031e-04
6.23000000e-01	1.30431317e-02	1.34810569e-04
6.24000000e-01	1.31089246e-02	1.35447594e-04
6.25000000e-01	1.31395097e-02	1.35560415e-04
6.26000000e-01	1.31352725e-02	1.35177772e-04
6.27000000e-01	1.31766056e-02	1.35978930e-04
6.28000000e-01	1.30960316e-02	1.35412082e-04
6.29000000e-01	1.31507171e-02	1.35863216e-04
6.30000000e-01	1.30280610e-02	1.34279247e-04
6.31000000e-01	1.30778643e-02	1.35460181e-04
6.32000000e-01	1.30749080e-02	1.34802263e-04
6.33000000e-01	1.29502338e-02	1.33416012e-04
6.34000000e-01	1.31090854e-02	1.38256207e-04
6.35000000e-01	1.32661748e-02	1.44165279e-04
6.36000000e-01	1.31251434e-02	1.45553909e-04
6.37000000e-01	1.31132216e-02	1.47244149e-04
6.38000000e-01	1.30719558e-02	1.48826200e-04
6.39000000e-01	1.31095426e-02	1.51496194e-04
6.40000000e-01	1.31029782e-02	1.53198272e-04
6.41000000e-01	1.33269299e-02	1.56558034e-04
6.42000000e-01	1.30561787e-02	1.56550866e-04
6.43000000e-01	1.31131719e-02	1.56127937e-04
6.44000000e-01	1.31700285e-02	1.51767404e-04
6.45000000e-01	1.31563215e-02	1.48852126e-04
6.46000000e-01	1.31367315e-02	1.47236871e-04
6.47000000e-01	1.30618703e-02	1.46100687e-04
6.48000000e-01	1.31622528e-02	1.45661508e-04
6.49000000e-01	1.32279881e-02	1.45158635e-04
6.50000000e-01	1.30614507e-02	1.43516354e-04
6.51000000e-01	1.30860623e-02	1.43541702e-04
6.52000000e-01	1.30617311e-02	1.42049789e-04
6.53000000e-01	1.31766219e-02	1.42901865e-04
6.54000000e-01	1.30154275e-02	1.40642961e-04
6.55000000e-01	1.30939892e-02	1.41620263e-04
6.56000000e-01	1.30474379e-02	1.40539108e-04
6.57000000e-01	1.30856393e-02	1.40511230e-04
6.58000000e-01	1.29722215e-02	1.39603927e-04
6.59000000e-01	1.31387067e-02	1.41365501e-04
6.60000000e-01	1.29788277e-02	1.39106088e-04
6.61000000e-01	1.28711829e-02	1.38393672e-04
6.62000000e-01	1.30309450e-02	1.39894568e-04
6.63000000e-01	1.30241742e-02	1.39999835e-04
6.64000000e-01	1.29997531e-02	1.39379322e-04
6.65000000e-01	1.30651745e-02	1.40420177e-04
6.66000000e-01	1.29403247e-02	1.38537949e-04
6.67000000e-01	1.29657040e-02	1.39018976e-04
6.68000000e-01	1.29845337e-02	1.38544051e-04
6.69000000e-01	1.31109075e-02	1.40115825e-04
6.70000000e-01	1.29270267e-02	1.38322934e-04
6.71000000e-01	1.29970600e-02	1.38775999e-04
6.72000000e-01	1.28513353e-02	1.37092059e-04
6.73000000e-01	1.30327229e-02	1.39358294e-04
6.74000000e-01	1.29506373e-02	1.38479756e-04
6.75000000e-01	1.28419374e-02	1.37070339e-04
6.76000000e-01	1.28074101e-02	1.37238770e-04
6.77000000e-01	1.28096137e-02	1.37036901e-04
6.78000000e-01	1.28619622e-02	1.37360582e-04
6.79000000e-01	1.27530160e-02	1.36791693e-04
6.80000000e-01	1.29677135e-02	1.38242452e-04
6.81000000e-01	1.29263713e-02	1.37049717e-04
6.82000000e-01	1.28468920e-02	1.37149949e-04
6.83000000e-01	1.29524195e-02	1.38062231e-04
6.84000000e-01	1.29536486e-02	1.37840913e-04
6.85000000e-01	1.27659657e-02	1.35918065e-04
6.86000000e-01	1.27838374e-02	1.36531589e-04
6.87000000e-01	1.28822762e-02	1.36736454e-04
6.88000000e-01	1.27218008e-02	1.35516204e-04
6.89000000e-01	1.27367021e-02	1.35750616e-04
6.90000000e-01	1.27256033e-02	1.35418596e-04
6.91000000e-01	1.27112806e-02	1.35566774e-04
6.92000000e-01	1.27943847e-02	1.36229409e-04
6.93000000e-01	1.26585953e-02	1.35467715e-04
6.94000000e-01	1.26505319e-02	1.34838776e-04
6.95000000e-01	1.26441611e-02	1.34603665e-04
6.96000000e-01	1.27622436e-02	1.35895671e-04
6.97000000e-01	1.27007334e-02	1.34891376e-04
6.98000000e-01	1.28465749e-02	1.36804602e-04
6.99000000e-01	1.27675976e-02	1.35490710e-04
7.00000000e-01	1.27189715e-02	1.35448951e-04
7.01000000e-01	1.26491706e-02	1.34244513e-04
7.02000000e-01	1.27472998e-02	1.36012662e-04
7.03000000e-01	1.26016338e-02	1.34189407e-04
7.04000000e-01	1.26939638e-02	1.34994591e-04
7.05000000e-01	1.25523984e-02	1.34048067e-04
7.06000000e-01	1.25903042e-02	1.34025449e-04
7.07000000e-01	1.27140444e-02	1.35243913e-04
7.08000000e-01	1.26408551e-02	1.34012370e-04
7.09000000e-01	1.26586682e-02	1.34891502e-04
7.10000000e-01	1.24739274e-02	1.32837535e-04
7.11000000e-01	1.25481217e-02	1.33771622e-04
7.12000000e-01	1.25686216e-02	1.33526042e-04
7.13000000e-01	1.26027332e-02	1.33987562e-04
7.14000000e-01	1.23671464e-02	1.31544713e-04
7.15000000e-01	1.26421864e-02	1.34033195e-04
7.16000000e-01	1.23495292e-02	1.31594710e-04
7.17000000e-01	1.25260170e-02	1.32823268e-04
7.18000000e-01	1.24714558e-02	1.32768573e-04
7.19000000e-01	1.23739676e-02	1.31815630e-04
7.20000000e-01	1.25339002e-02	1.33328302e-04
7.21000000e-01	1.25247977e-02	1.33264122e-04
7.22000000e-01	1.25715621e-02	1.33615344e-04
7.23000000e-01	1.24330162e-02	1.32219608e-04
7.24000000e-01	1.23638125e-02	1.31956234e-04
7.25000000e-01	1.23563096e-02	1.32048902e-04
7.26000000e-01	1.23479906e-02	1.31698819e-04
7.27000000e-01	1.23155510e-02	1.31152788e-04
7.28000000e-01	1.22991571e-02	1.31387752e-04
7.29000000e-01	1.23407488e-02	1.31514739e-04
7.30000000e-01	1.23358879e-02	1.31525808e-04
7.31000000e-01	1.24126427e-02	1.32362390e-04
7.32000000e-01	1.23410182e-02	1.31416264e-04
7.33000000e-01	1.22496003e-02	1.30760012e-04
7.34000000e-01	1.22870511e-02	1.30773913e-04
7.35000000e-01	1.23191292e-02	1.30920842e-04
7.36000000e-01	1.22576084e-02	1.29982090e-04
7.37000000e-01	1.21640073e-02	1.28846728e-04
7.38000000e-01	1.23452544e-02	1.30533968e-04
7.39000000e-01	1.23489412e-02	1.30276622e-04
7.40000000e-01	1.22592272e-02	1.29537344e-04
7.41000000e-01	1.21564622e-02	1.28372753e-04
7.42000000e-01	1.21353472e-02	1.28177884e-04
7.43000000e-01	1.20362707e-02	1.27225777e-04
7.44000000e-01	1.22501993e-02	1.29353344e-04
7.45000000e-01	1.21947142e-02	1.28792847e-04
7.46000000e-01	1.22924893e-02	1.29524171e-04
7.47000000e-01	1.21875098e-02	1.28491777e-04
7.48000000e-01	1.21333045e-02	1.28120678e-04
7.49000000e-01	1.20764813e-02	1.27338464e-04
7.50000000e-01	1.21034217e-02	1.27927906e-04
7.51000000e-01	1.21445576e-02	1.28145000e-04
7.52000000e-01	1.22074652e-02	1.28813191e-04
7.53000000e-01	1.22160215e-02	1.29172953e-04
7.54000000e-01	1.18372059e-02	1.25551069e-04
7.55000000e-01	1.20405821e-02	1.27252544e-04
7.56000000e-01	1.21274154e-02	1.27835964e-04
7.57000000e-01	1.21350251e-02	1.28142160e-04
7.58000000e-01	1.21752408e-02	1.28800291e-04
7.59000000e-01	1.21411079e-02	1.28235158e-04
7.60000000e-01	1.20064019e-02	1.26688892e-04
7.61000000e-01	1.20550630e-02	1.26719325e-04
7.62000000e-01	1.20110029e-02	1.26521676e-04
7.63000000e-01	1.21279055e-02	1.27360864e-04
7.64000000e-01	1.20385829e-02	1.25760590e-04
7.65000000e-01	1.19622012e-02	1.25774216e-04
7.66000000e-01	1.20027494e-02	1.25280028e-04
7.67000000e-01	1.18550974e-02	1.24456564e-04
7.68000000e-01	1.20874420e-02	1.26334693e-04
7.69000000e-01	1.18840009e-02	1.24638224e-04
7.70000000e-01	1.18860527e-02	1.24791623e-04
7.71000000e-01	1.19227483e-02	1.24819684e-04
7.72000000e-01	1.19384582e-02	1.28587221e-04
7.73000000e-01	1.19861532e-02	1.33672497e-04
7.74000000e-01	1.20423550e-02	1.36569576e-04
7.75000000e-01	1.19476444e-02	1.38924719e-04
7.76000000e-01	1.18304442e-02	1.39426089e-04
7.77000000e-01	1.17932051e-02	1.41040448e-04
7.78000000e-01	1.19809597e-02	1.44375248e-04
7.79000000e-01	1.18695123e-02	1.44922388e-04
7.80000000e-01	1.18905070e-02	1.46856087e-04
7.81000000e-01	1.18904568e-02	1.49372199e-04
7.82000000e-01	1.19323136e-02	1.51004773e-04
7.83000000e-01	1.17662284e-02	1.50943725e-04
7.84000000e-01	1.17188379e-02	1.51164970e-04
7.85000000e-01	1.19681370e-02	1.55702369e-04
7.86000000e-01	1.16813631e-02	1.55009465e-04
7.87000000e-01	1.16970636e-02	1.55888612e-04
7.88000000e-01	1.16750317e-02	1.57433125e-04
7.89000000e-01	1.16432777e-02	1.58102053e-04
7.90000000e-01	1.16605129e-02	1.60197085e-04
7.91000000e-01	1.17289865e-02	1.62409087e-04
7.92000000e-01	1.17094486e-02	1.64176999e-04
7.93000000e-01	1.16233986e-02	1.64774814e-04
7.94000000e-01	1.18582760e-02	1.69748268e-04
7.95000000e-01	1.15910073e-02	1.67627625e-04
7.96000000e-01	1.15563934e-02	1.68769123e-04
7.97000000e-01	1.16017249e-02	1.71037878e-04
7.98000000e-01	1.15725663e-02	1.72732072e-04
7.99000000e-01	1.17343319e-02	1.77248839e-04
8.00000000e-01	1.16418516e-02	1.76984023e-04
8.01000000e-01	1.16176565e-02	1.78608339e-04
8.02000000e-01	1.15903325e-02	1.79623841e-04
8.03000000e-01	1.13916457e-02	1.78972632e-04
8.04000000e-01	1.16664064e-02	1.84943639e-04
8.05000000e-01	1.16534477e-02	1.86699557e-04
8.06000000e-01	1.14176766e-02	1.86136931e-04
8.07000000e-01	1.15854668e-02	1.89845471e-04
8.08000000e-01	1.15304331e-02	1.92130335e-04
8.09000000e-01	1.15283658e-02	1.92418977e-04
8.10000000e-01	1.13853885e-02	1.93484934e-04
8.11000000e-01	1.14146496e-02	1.95360742e-04
8.12000000e-01	1.13259493e-02	1.96627532e-04
8.13000000e-01	1.15821834e-02	2.03175372e-04
8.14000000e-01	1.13853481e-02	2.02846018e-04
8.15000000e-01	1.14695309e-02	2.06171824e-04
8.16000000e-01	1.15819001e-02	2.09249085e-04
8.17000000e-01	1.15257901e-02	2.12346752e-04
8.18000000e-01	1.13080943e-02	2.11636837e-04
8.19000000e-01	1.11446004e-02	2.10772356e-04
8.20000000e-01	1.13491849e-02	2.17154035e-04
8.21000000e-01	1.11364811e-02	2.14825058e-04
8.22000000e-01	1.11901210e-02	2.20847488e-04
8.23000000e-01	1.12572687e-02	2.23674651e-04
8.24000000e-01	1.11959114e-02	2.26301182e-04
8.25000000e-01	1.11928079e-02	2.28037839e-04
8.26000000e-01	1.12295248e-02	2.32609681e-04
8.27000000e-01	1.12010546e-02	2.35388118e-04
8.28000000e-01	1.13376841e-02	2.43451733e-04
8.29000000e-01	1.12797536e-02	2.44866007e-04
8.30000000e-01	1.13512085e-02	2.48747587e-04
8.31000000e-01	1.12428478e-02	2.51642559e-04
8.32000000e-01	1.11073306e-02	2.54156141e-04
8.33000000e-01	1.11093861e-02	2.56513271e-04
8.34000000e-01	1.13460875e-02	2.65287532e-04
8.35000000e-01	1.09293499e-02	2.63050288e-04
8.36000000e-01	1.08669744e-02	2.66670576e-04
8.37000000e-01	1.10818830e-02	2.76691718e-04
8.38000000e-01	1.07938258e-02	2.78568623e-04
8.39000000e-01	1.11360111e-02	2.91169942e-04
8.40000000e-01	1.07792246e-02	2.85762600e-04
8.41000000e-01	1.10493648e-02	2.99805549e-04
8.42000000e-01	1.10354134e-02	3.07852829e-04
8.43000000e-01	1.11123418e-02	3.14562152e-04
8.44000000e-01	1.06385346e-02	3.11008554e-04
8.45000000e-01	1.10774996e-02	3.28657942e-04
8.46000000e-01	1.08994007e-02	3.34094294e-04
8.47000000e-01	1.08351523e-02	3.46148277e-04
8.48000000e-01	1.10861663e-02	3.60184113e-04
8.49000000e-01	1.10531443e-02	3.68552529e-04
8.50000000e-01	1.08323308e-02	3.74220700e-04
8.51000000e-01	1.10080045e-02	3.98089777e-04
8.52000000e-01	1.09056012e-02	4.08510501e-04
8.53000000e-01	1.07142637e-02	4.21751449e-04
8.54000000e-01	1.04542909e-02	4.30431200e-04
8.55000000e-01	1.05075164e-02	4.40227884e-04
8.56000000e-01	1.06409402e-02	4.67102981e-04
8.57000000e-01	1.07624081e-02	4.76196835e-04
8.58000000e-01	1.06763330e-02	4.91623687e-04
8.59000000e-01	1.02319091e-02	4.86385889e-04
8.60000000e-01	1.06859690e-02	5.27132787e-04
8.61000000e-01	1.05643652e-02	5.48791544e-04
8.62000000e-01	1.04261630e-02	5.54541480e-04
8.63000000e-01	1.06409021e-02	5.81825461e-04
8.64000000e-01	1.05406008e-02	6.05606809e-04
8.65000000e-01	1.07567133e-02	6.48387131e-04
8.66000000e-01	1.03965746e-02	6.65545335e-04
8.67000000e-01	1.12439502e-02	7.33481998e-04
8.68000000e-01	1.01032688e-02	7.35534972e-04
8.69000000e-01	1.09191919e-02	8.48169548e-04
8.70000000e-01	1.03433814e-02	8.61178450e-04
8.71000000e-01	1.01564277e-02	9.51608948e-04
8.72000000e-01	9.43842803e-03	1.07936499e-03
8.73000000e-01	1.01940927e-02	1.25685863e-03
8.74000000e-01	9.77414464e-03	1.59072307e-03
8.75000000e-01	8.54088828e-03	2.70086602e-03
