% Filename : SDL5_p7_00025_00038.h5
% Date & Time : 30-Oct-2025 16:57:38
% X-ray Energy (keV) : 13.30001
% Exposure Time (s) : 0.500
% Beam Center : 1461.24000, 208.98300
% Sample to Detector Distance (SDD) (mm) : 1990.750
% Detector Pixel Size (mm) : 0.075
% Photodiode Value : 144419.000
% I0 of Sample : 0
% I0 of Standard : 1
% 
% q(A^-1)   I(q)    I(q)_SE
0.00000000e+00	1.37608978e-02	8.39188411e-03
2.50000000e-04	0.00000000e+00	0.00000000e+00
5.00000000e-04	0.00000000e+00	0.00000000e+00
7.50000000e-04	0.00000000e+00	0.00000000e+00
1.00000000e-03	0.00000000e+00	0.00000000e+00
1.25000000e-03	0.00000000e+00	0.00000000e+00
1.50000000e-03	0.00000000e+00	0.00000000e+00
1.75000000e-03	0.00000000e+00	0.00000000e+00
2.00000000e-03	0.00000000e+00	0.00000000e+00
2.25000000e-03	0.00000000e+00	0.00000000e+00
2.50000000e-03	0.00000000e+00	0.00000000e+00
2.75000000e-03	0.00000000e+00	0.00000000e+00
3.00000000e-03	0.00000000e+00	0.00000000e+00
3.25000000e-03	3.66375723e+00	2.20841860e+00
3.50000000e-03	1.95783281e+00	4.89017090e-01
3.75000000e-03	1.41151423e+00	2.80260987e-01
4.00000000e-03	1.16726380e+00	2.04500811e-01
4.25000000e-03	8.44425044e-01	1.13352258e-01
4.50000000e-03	1.01866741e+00	1.44682297e-01
4.75000000e-03	9.74091449e-01	1.29072319e-01
5.00000000e-03	7.80428098e-01	9.83698347e-02
5.25000000e-03	6.78199671e-01	8.50509647e-02
5.50000000e-03	5.69972354e-01	6.91088252e-02
5.75000000e-03	4.99220919e-01	5.98863101e-02
6.00000000e-03	4.34369330e-01	4.98688552e-02
6.25000000e-03	3.80380252e-01	4.33264364e-02
6.50000000e-03	3.30339944e-01	3.67581477e-02
6.75000000e-03	2.84646153e-01	3.13837599e-02
7.00000000e-03	2.58592764e-01	2.81441705e-02
7.25000000e-03	2.28296276e-01	2.42368241e-02
7.50000000e-03	2.04867399e-01	2.10446203e-02
7.75000000e-03	1.75655158e-01	1.71162709e-02
8.00000000e-03	1.67607777e-01	1.65466471e-02
8.25000000e-03	1.45129272e-01	1.40149600e-02
8.50000000e-03	1.38317268e-01	1.30272923e-02
8.75000000e-03	1.24439671e-01	1.12939149e-02
9.00000000e-03	1.11571665e-01	9.85973347e-03
9.25000000e-03	1.01937773e-01	8.53094647e-03
9.50000000e-03	9.31394063e-02	7.67808344e-03
9.75000000e-03	8.51079722e-02	6.78811161e-03
1.00000000e-02	7.62725324e-02	6.16200223e-03
1.02500000e-02	7.25923785e-02	5.61977740e-03
1.05000000e-02	6.79379205e-02	5.12089180e-03
1.07500000e-02	6.43405041e-02	4.73885943e-03
1.10000000e-02	5.66099941e-02	4.04172214e-03
1.12500000e-02	5.51571844e-02	4.04931052e-03
1.15000000e-02	5.08841442e-02	3.57069994e-03
1.17500000e-02	5.02254086e-02	3.42178922e-03
1.20000000e-02	4.89292785e-02	3.31137881e-03
1.22500000e-02	4.49447300e-02	2.97565620e-03
1.25000000e-02	4.47025428e-02	2.96437085e-03
1.27500000e-02	4.16020790e-02	2.75996924e-03
1.30000000e-02	4.11964783e-02	2.64841367e-03
1.32500000e-02	3.92164903e-02	2.52451871e-03
1.35000000e-02	3.81627138e-02	2.42694996e-03
1.37500000e-02	3.59536944e-02	2.27450336e-03
1.40000000e-02	3.49272594e-02	2.17721478e-03
1.42500000e-02	3.30148649e-02	1.99469649e-03
1.45000000e-02	3.41205463e-02	2.07708941e-03
1.47500000e-02	3.18045946e-02	1.91269010e-03
1.50000000e-02	3.04266799e-02	1.84103524e-03
1.52500000e-02	3.02748290e-02	1.76455194e-03
1.55000000e-02	2.87020878e-02	1.64269733e-03
1.57500000e-02	2.78562116e-02	1.60779177e-03
1.60000000e-02	2.71507257e-02	1.52743373e-03
1.62500000e-02	2.76850803e-02	1.57968380e-03
1.65000000e-02	2.76535914e-02	1.53704761e-03
1.67500000e-02	2.70616676e-02	1.46942737e-03
1.70000000e-02	2.67023404e-02	1.45393140e-03
1.72500000e-02	2.73516762e-02	1.49504093e-03
1.75000000e-02	2.55485292e-02	1.40641938e-03
1.77500000e-02	2.49063015e-02	1.33694901e-03
1.80000000e-02	2.57125791e-02	1.39349882e-03
1.82500000e-02	2.49706541e-02	1.31606785e-03
1.85000000e-02	2.48501563e-02	1.32414708e-03
1.87500000e-02	2.49075093e-02	1.29564834e-03
1.90000000e-02	2.45702087e-02	1.27609047e-03
1.92500000e-02	2.38555276e-02	1.22962369e-03
1.95000000e-02	2.45632522e-02	1.26403394e-03
1.97500000e-02	2.40482071e-02	1.24735283e-03
2.00000000e-02	2.38472776e-02	1.21543521e-03
2.02500000e-02	2.35606806e-02	1.19061637e-03
2.05000000e-02	2.42132748e-02	1.20188344e-03
2.07500000e-02	2.29163211e-02	1.14348903e-03
2.10000000e-02	2.28645207e-02	1.15051937e-03
2.12500000e-02	2.32114288e-02	1.15718781e-03
2.15000000e-02	2.32308448e-02	1.16139525e-03
2.17500000e-02	2.25901649e-02	1.14949869e-03
2.20000000e-02	2.35592240e-02	1.19022649e-03
2.22500000e-02	2.25431184e-02	1.13533739e-03
2.25000000e-02	2.37093001e-02	1.20245700e-03
2.27500000e-02	2.23250544e-02	1.13258797e-03
2.30000000e-02	2.30755171e-02	1.15678298e-03
2.32500000e-02	2.39192036e-02	1.21028158e-03
2.35000000e-02	2.26565125e-02	1.14454578e-03
2.37500000e-02	2.14658136e-02	1.09277905e-03
2.40000000e-02	2.29478493e-02	1.15433837e-03
2.42500000e-02	2.26051801e-02	1.13451105e-03
2.45000000e-02	2.23195941e-02	1.13552329e-03
2.47500000e-02	2.27336882e-02	1.11955990e-03
2.50000000e-02	2.20584726e-02	1.09720968e-03
2.52500000e-02	2.10256753e-02	1.06787028e-03
2.55000000e-02	2.27054096e-02	1.12278482e-03
2.57500000e-02	2.25181715e-02	1.11351285e-03
2.60000000e-02	2.19924734e-02	1.07441262e-03
2.62500000e-02	2.28100102e-02	1.11755377e-03
2.65000000e-02	2.21183296e-02	1.08909514e-03
2.67500000e-02	2.23746833e-02	1.09248485e-03
2.70000000e-02	2.15027870e-02	1.05014301e-03
2.72500000e-02	2.18641565e-02	1.07686736e-03
2.75000000e-02	2.26493593e-02	1.11962589e-03
2.77500000e-02	2.11212421e-02	1.04212433e-03
2.80000000e-02	2.22970057e-02	1.06528890e-03
2.82500000e-02	2.14288089e-02	1.03160770e-03
2.85000000e-02	2.27576124e-02	1.09795112e-03
2.87500000e-02	2.30437713e-02	1.12345093e-03
2.90000000e-02	2.28644898e-02	1.10575570e-03
2.92500000e-02	2.21716013e-02	1.04493792e-03
2.95000000e-02	2.22280283e-02	1.07385452e-03
2.97500000e-02	2.12679881e-02	1.02346482e-03
3.00000000e-02	2.22576813e-02	1.07749584e-03
3.02500000e-02	2.27609221e-02	1.09393250e-03
3.05000000e-02	2.28429569e-02	1.06295926e-03
3.07500000e-02	2.25334586e-02	1.06064340e-03
3.10000000e-02	2.24955367e-02	1.06442047e-03
3.12500000e-02	2.24600762e-02	1.07275159e-03
3.15000000e-02	2.22783388e-02	1.04984336e-03
3.17500000e-02	2.26184881e-02	1.05402220e-03
3.20000000e-02	2.26377258e-02	1.06416173e-03
3.22500000e-02	2.20638982e-02	1.03084046e-03
3.25000000e-02	2.28053716e-02	1.06639126e-03
3.27500000e-02	2.17644111e-02	1.01889720e-03
3.30000000e-02	2.12856831e-02	9.89342428e-04
3.32500000e-02	2.14204599e-02	9.81379783e-04
3.35000000e-02	2.18279797e-02	1.02270625e-03
3.37500000e-02	2.26062753e-02	1.03863042e-03
3.40000000e-02	2.22977315e-02	1.03115884e-03
3.42500000e-02	2.21366506e-02	1.01163338e-03
3.45000000e-02	2.13548411e-02	9.78751361e-04
3.47500000e-02	2.19916681e-02	1.01322509e-03
3.50000000e-02	2.14563256e-02	9.77440369e-04
3.52500000e-02	2.19791412e-02	1.01084599e-03
3.55000000e-02	2.17529109e-02	9.81389571e-04
3.57500000e-02	2.12153677e-02	9.71849592e-04
3.60000000e-02	2.19542037e-02	9.95100046e-04
3.62500000e-02	2.13135775e-02	9.66628411e-04
3.65000000e-02	2.15490207e-02	9.76511928e-04
3.67500000e-02	2.16698512e-02	9.73892864e-04
3.70000000e-02	2.17346740e-02	9.77479987e-04
3.72500000e-02	2.09213147e-02	9.41871663e-04
3.75000000e-02	2.16743561e-02	9.69300065e-04
3.77500000e-02	2.12094826e-02	9.52243862e-04
3.80000000e-02	2.15823365e-02	9.54423131e-04
3.82500000e-02	2.11180797e-02	9.30705778e-04
3.85000000e-02	2.06087500e-02	9.17296847e-04
3.87500000e-02	2.11258865e-02	9.29044373e-04
3.90000000e-02	2.14196557e-02	9.52587529e-04
3.92500000e-02	2.11261278e-02	9.29812911e-04
3.95000000e-02	2.08149996e-02	9.21766867e-04
3.97500000e-02	2.13932379e-02	9.41180741e-04
4.00000000e-02	2.18332122e-02	9.56762187e-04
4.02500000e-02	2.10807992e-02	9.17176840e-04
4.05000000e-02	2.12702356e-02	9.24123290e-04
4.07500000e-02	2.07881252e-02	8.96394509e-04
4.10000000e-02	2.12762506e-02	9.33300723e-04
4.12500000e-02	2.13835768e-02	9.25721378e-04
4.15000000e-02	2.06381898e-02	8.80026366e-04
4.17500000e-02	2.14344171e-02	9.20684691e-04
4.20000000e-02	2.13988230e-02	9.12875620e-04
4.22500000e-02	2.13960555e-02	9.09017525e-04
4.25000000e-02	2.10063212e-02	8.97173578e-04
4.27500000e-02	2.11390715e-02	8.95294460e-04
4.30000000e-02	2.10224177e-02	8.89865285e-04
4.32500000e-02	2.05278001e-02	8.65533793e-04
4.35000000e-02	2.12494394e-02	9.09048110e-04
4.37500000e-02	2.12203939e-02	8.91423609e-04
4.40000000e-02	2.18873978e-02	9.21864665e-04
4.42500000e-02	2.10315688e-02	8.94532512e-04
4.45000000e-02	2.05933285e-02	8.55732477e-04
4.47500000e-02	2.12059849e-02	8.84022684e-04
4.50000000e-02	2.04535538e-02	8.65450855e-04
4.52500000e-02	2.02553796e-02	8.40069949e-04
4.55000000e-02	2.09871741e-02	8.77977631e-04
4.57500000e-02	2.05762724e-02	8.48019610e-04
4.60000000e-02	2.10170814e-02	8.68623952e-04
4.62500000e-02	2.11982201e-02	8.79514518e-04
4.65000000e-02	2.10145316e-02	8.69873914e-04
4.67500000e-02	2.06789418e-02	8.39924475e-04
4.70000000e-02	2.07599753e-02	8.44029492e-04
4.72500000e-02	2.03396733e-02	8.39044413e-04
4.75000000e-02	2.07686918e-02	8.53702754e-04
4.77500000e-02	2.05823282e-02	8.31745269e-04
4.80000000e-02	2.07270736e-02	8.42379701e-04
4.82500000e-02	2.09382482e-02	8.47066034e-04
4.85000000e-02	2.09540033e-02	8.54410442e-04
4.87500000e-02	2.12696042e-02	8.68106135e-04
4.90000000e-02	2.01278125e-02	8.03784309e-04
4.92500000e-02	2.09632998e-02	8.44670092e-04
4.95000000e-02	2.00584009e-02	8.14933646e-04
4.97500000e-02	1.99409807e-02	8.08487627e-04
5.00000000e-02	2.11079557e-02	8.47048895e-04
5.02500000e-02	2.06386624e-02	8.09775149e-04
5.05000000e-02	2.04539088e-02	8.12959851e-04
5.07500000e-02	2.08565880e-02	8.23299730e-04
5.10000000e-02	2.06040637e-02	8.24145992e-04
5.12500000e-02	2.07527044e-02	8.26828158e-04
5.15000000e-02	2.02310536e-02	7.95165875e-04
5.17500000e-02	2.10011719e-02	8.30445123e-04
5.20000000e-02	2.07829323e-02	8.17025438e-04
5.22500000e-02	1.99621299e-02	7.92701870e-04
5.25000000e-02	2.07521924e-02	8.20920166e-04
5.27500000e-02	1.99013030e-02	7.80628505e-04
5.30000000e-02	2.03412098e-02	8.01677712e-04
5.32500000e-02	2.02093877e-02	7.92248405e-04
5.35000000e-02	2.02766853e-02	8.02211016e-04
5.37500000e-02	2.06701667e-02	8.02076019e-04
5.40000000e-02	2.07430812e-02	8.02127493e-04
5.42500000e-02	2.07489274e-02	8.06737926e-04
5.45000000e-02	2.10098553e-02	8.15565351e-04
5.47500000e-02	2.03017423e-02	7.82948505e-04
5.50000000e-02	2.09065918e-02	8.07595082e-04
5.52500000e-02	2.07750749e-02	7.99124625e-04
5.55000000e-02	2.08413722e-02	7.94597777e-04
5.57500000e-02	1.96919410e-02	7.59044238e-04
5.60000000e-02	2.07415388e-02	7.99287657e-04
5.62500000e-02	2.04813864e-02	7.88006846e-04
5.65000000e-02	2.09460277e-02	7.93099738e-04
5.67500000e-02	2.12750730e-02	8.07794394e-04
5.70000000e-02	2.00891078e-02	7.61552880e-04
5.72500000e-02	2.06092096e-02	7.78901409e-04
5.75000000e-02	2.06688507e-02	7.88402689e-04
5.77500000e-02	2.01441016e-02	7.60577652e-04
5.80000000e-02	2.05834712e-02	7.87372754e-04
5.82500000e-02	1.98623099e-02	7.47171155e-04
5.85000000e-02	1.99307411e-02	7.54543052e-04
5.87500000e-02	2.06834491e-02	7.83977171e-04
5.90000000e-02	2.03100053e-02	7.65654402e-04
5.92500000e-02	2.00773399e-02	7.52643695e-04
5.95000000e-02	2.02757465e-02	7.53969160e-04
5.97500000e-02	2.00812006e-02	7.57851973e-04
6.00000000e-02	2.03304233e-02	7.63648423e-04
6.02500000e-02	2.03703279e-02	7.65440947e-04
6.05000000e-02	2.00795515e-02	7.46904714e-04
6.07500000e-02	2.08312476e-02	7.77701530e-04
6.10000000e-02	2.01417979e-02	7.48824412e-04
6.12500000e-02	2.02188068e-02	7.50842521e-04
6.15000000e-02	2.00722302e-02	7.43686688e-04
6.17500000e-02	2.03252219e-02	7.50431675e-04
6.20000000e-02	1.96388665e-02	7.31578131e-04
6.22500000e-02	2.05984031e-02	7.58886617e-04
6.25000000e-02	2.01833091e-02	7.41810476e-04
6.27500000e-02	2.04027179e-02	7.41494743e-04
6.30000000e-02	1.99663087e-02	7.25754929e-04
6.32500000e-02	2.08396608e-02	7.59902488e-04
6.35000000e-02	2.01584673e-02	7.34712600e-04
6.37500000e-02	2.05991457e-02	7.46799110e-04
6.40000000e-02	1.99267094e-02	7.19473943e-04
6.42500000e-02	2.02100549e-02	7.23721327e-04
6.45000000e-02	2.02020281e-02	7.32168835e-04
6.47500000e-02	2.04946088e-02	7.40354315e-04
6.50000000e-02	2.01625097e-02	7.36388778e-04
6.52500000e-02	1.98511554e-02	7.09295551e-04
6.55000000e-02	2.03021099e-02	7.30179488e-04
6.57500000e-02	2.00274711e-02	7.20765200e-04
6.60000000e-02	1.97331144e-02	7.18143734e-04
6.62500000e-02	1.98508947e-02	7.09285570e-04
6.65000000e-02	1.99346544e-02	7.09273543e-04
6.67500000e-02	1.98891541e-02	7.10419631e-04
6.70000000e-02	2.03944641e-02	7.28364008e-04
6.72500000e-02	2.07230293e-02	7.39869032e-04
6.75000000e-02	2.04545083e-02	7.26270398e-04
6.77500000e-02	2.00797718e-02	7.08943687e-04
6.80000000e-02	2.00311179e-02	7.18767183e-04
6.82500000e-02	2.04928651e-02	7.27297402e-04
6.85000000e-02	1.99026314e-02	7.10114607e-04
6.87500000e-02	2.03869669e-02	7.23363397e-04
6.90000000e-02	1.98794026e-02	6.97116144e-04
6.92500000e-02	2.01493335e-02	7.06092859e-04
6.95000000e-02	2.06419895e-02	7.25953866e-04
6.97500000e-02	2.02860340e-02	7.14597789e-04
7.00000000e-02	2.00619685e-02	7.01218112e-04
7.02500000e-02	1.99975134e-02	6.97428859e-04
7.05000000e-02	2.00945918e-02	6.98983382e-04
7.07500000e-02	2.04931000e-02	7.21128292e-04
7.10000000e-02	2.03100316e-02	7.03286320e-04
7.12500000e-02	2.04336325e-02	7.08328111e-04
7.15000000e-02	2.01675717e-02	6.92099759e-04
7.17500000e-02	2.03814275e-02	7.05553400e-04
7.20000000e-02	2.00359300e-02	6.95328664e-04
7.22500000e-02	1.96342189e-02	6.80517221e-04
7.25000000e-02	2.01865674e-02	7.01773911e-04
7.27500000e-02	1.99974361e-02	6.90058019e-04
7.30000000e-02	2.02416905e-02	6.92726640e-04
7.32500000e-02	1.99294244e-02	6.79566299e-04
7.35000000e-02	1.98779023e-02	6.91489164e-04
7.37500000e-02	1.97181647e-02	6.75305238e-04
7.40000000e-02	2.00805474e-02	6.84529810e-04
7.42500000e-02	1.98245316e-02	6.75329813e-04
7.45000000e-02	2.00632812e-02	6.80293779e-04
7.47500000e-02	2.04031344e-02	6.90051829e-04
7.50000000e-02	2.00547786e-02	6.79486910e-04
7.52500000e-02	2.01089691e-02	6.79337812e-04
7.55000000e-02	2.01840781e-02	6.78970316e-04
7.57500000e-02	2.05850852e-02	6.95847567e-04
7.60000000e-02	2.02122364e-02	6.85188761e-04
7.62500000e-02	1.94864234e-02	6.62120983e-04
7.65000000e-02	2.01154489e-02	6.79560578e-04
7.67500000e-02	1.98061396e-02	6.66842063e-04
7.70000000e-02	1.98958810e-02	6.61551338e-04
7.72500000e-02	1.98336959e-02	6.79348528e-04
7.75000000e-02	2.04732711e-02	6.98302951e-04
7.77500000e-02	2.00317851e-02	6.93988626e-04
7.80000000e-02	1.97787412e-02	6.88238859e-04
7.82500000e-02	1.99318005e-02	6.98006237e-04
7.85000000e-02	2.01627217e-02	7.09698941e-04
7.87500000e-02	2.03594691e-02	7.13990904e-04
7.90000000e-02	1.97882991e-02	7.02207299e-04
7.92500000e-02	2.03214546e-02	7.25103808e-04
7.95000000e-02	2.02470382e-02	7.21425118e-04
7.97500000e-02	2.02108836e-02	7.26232028e-04
8.00000000e-02	2.03704352e-02	7.25864848e-04
8.02500000e-02	2.03029134e-02	7.29606649e-04
8.05000000e-02	1.99335760e-02	7.11982699e-04
8.07500000e-02	2.00199947e-02	7.25010663e-04
8.10000000e-02	1.96353909e-02	7.09056522e-04
8.12500000e-02	2.01115894e-02	7.26416726e-04
8.15000000e-02	1.97975611e-02	7.18206686e-04
8.17500000e-02	1.99215051e-02	7.21929093e-04
8.20000000e-02	2.02920646e-02	7.35824244e-04
8.22500000e-02	1.95339125e-02	7.12005212e-04
8.25000000e-02	2.01264002e-02	7.30652647e-04
8.27500000e-02	2.01742032e-02	7.34957088e-04
8.30000000e-02	2.02514410e-02	7.41503623e-04
8.32500000e-02	1.97758538e-02	7.27530429e-04
8.35000000e-02	2.05637590e-02	7.55470531e-04
8.37500000e-02	1.96375478e-02	7.14898373e-04
8.40000000e-02	1.96131059e-02	7.17586764e-04
8.42500000e-02	1.98845604e-02	7.31850917e-04
8.45000000e-02	1.98222606e-02	7.29116919e-04
8.47500000e-02	2.00477608e-02	7.44902312e-04
8.50000000e-02	1.97982603e-02	7.24641008e-04
8.52500000e-02	1.90829147e-02	7.12826661e-04
8.55000000e-02	1.98691685e-02	7.29779889e-04
8.57500000e-02	1.99648018e-02	7.43085474e-04
8.60000000e-02	1.95187785e-02	7.24408819e-04
8.62500000e-02	1.97537155e-02	7.34551718e-04
8.65000000e-02	1.93103913e-02	7.18121299e-04
8.67500000e-02	1.89320282e-02	7.00595674e-04
8.70000000e-02	1.94464449e-02	7.01660572e-04
8.72500000e-02	2.03322068e-02	7.23201974e-04
8.75000000e-02	1.97438640e-02	6.93794526e-04
8.77500000e-02	1.96879076e-02	6.89163900e-04
8.80000000e-02	1.92479059e-02	6.76254645e-04
8.82500000e-02	1.94043261e-02	6.82365781e-04
8.85000000e-02	1.99635435e-02	6.97972061e-04
8.87500000e-02	2.00761192e-02	6.89412696e-04
8.90000000e-02	1.95050542e-02	6.70030010e-04
8.92500000e-02	2.04274442e-02	6.99653031e-04
8.95000000e-02	2.01065998e-02	6.87816874e-04
8.97500000e-02	1.95464647e-02	6.61679482e-04
9.00000000e-02	2.01387480e-02	6.80264888e-04
9.02500000e-02	2.03671407e-02	6.87741081e-04
9.05000000e-02	1.94111505e-02	6.58715927e-04
9.07500000e-02	1.97958731e-02	6.68456121e-04
9.10000000e-02	2.02290632e-02	6.76922293e-04
9.12500000e-02	1.99231067e-02	6.63120124e-04
9.15000000e-02	1.97388260e-02	6.60939467e-04
9.17500000e-02	1.96781320e-02	6.63281508e-04
9.20000000e-02	1.97586761e-02	6.57658909e-04
9.22500000e-02	1.95670000e-02	6.48015579e-04
9.25000000e-02	1.98968813e-02	6.61400099e-04
9.27500000e-02	1.96441312e-02	6.49755769e-04
9.30000000e-02	1.94426029e-02	6.42639930e-04
9.32500000e-02	1.96870009e-02	6.49668483e-04
9.35000000e-02	1.96167379e-02	6.45484261e-04
9.37500000e-02	1.93432938e-02	6.37784270e-04
9.40000000e-02	1.96001219e-02	6.43056203e-04
9.42500000e-02	1.99993888e-02	6.56712278e-04
9.45000000e-02	1.97069777e-02	6.45263909e-04
9.47500000e-02	2.01782371e-02	6.59071668e-04
9.50000000e-02	1.96355264e-02	6.39254449e-04
9.52500000e-02	1.99736177e-02	6.44383863e-04
9.55000000e-02	1.90404975e-02	6.16202024e-04
9.57500000e-02	1.98488161e-02	6.44001568e-04
9.60000000e-02	1.92182652e-02	6.19841923e-04
9.62500000e-02	1.98778494e-02	6.44254941e-04
9.65000000e-02	1.96902467e-02	6.32214862e-04
9.67500000e-02	1.99790563e-02	6.36835326e-04
9.70000000e-02	1.96006714e-02	6.31089198e-04
9.72500000e-02	1.98769872e-02	6.34563095e-04
9.75000000e-02	1.97211290e-02	6.32118826e-04
9.77500000e-02	1.92757744e-02	6.11359444e-04
9.80000000e-02	1.94645215e-02	6.22355728e-04
9.82500000e-02	1.96555701e-02	6.24084170e-04
9.85000000e-02	1.98316755e-02	6.26761361e-04
9.87500000e-02	2.02241922e-02	6.36983678e-04
9.90000000e-02	1.95556355e-02	6.18438020e-04
9.92500000e-02	1.98000112e-02	6.29150196e-04
9.95000000e-02	1.95359971e-02	6.15140371e-04
9.97500000e-02	1.95243168e-02	6.19185408e-04
1.00000000e-01	1.98014652e-02	5.11500102e-04
1.00500000e-01	1.98858999e-02	4.44301450e-04
1.01000000e-01	2.00000058e-02	4.42580936e-04
1.01500000e-01	1.95091781e-02	4.32388925e-04
1.02000000e-01	1.98194655e-02	4.35723927e-04
1.02500000e-01	2.01614851e-02	4.40666334e-04
1.03000000e-01	1.97968755e-02	4.38090243e-04
1.03500000e-01	1.97500263e-02	4.29577638e-04
1.04000000e-01	1.94654207e-02	4.25883067e-04
1.04500000e-01	1.93734435e-02	4.21803849e-04
1.05000000e-01	1.97763438e-02	4.27011980e-04
1.05500000e-01	1.99201353e-02	4.31216563e-04
1.06000000e-01	1.95447955e-02	4.21234279e-04
1.06500000e-01	1.96761968e-02	4.21178007e-04
1.07000000e-01	1.97383368e-02	4.29786829e-04
1.07500000e-01	1.91884474e-02	4.25679841e-04
1.08000000e-01	1.95976334e-02	4.36728316e-04
1.08500000e-01	1.98201978e-02	4.46124777e-04
1.09000000e-01	1.94996769e-02	4.41693846e-04
1.09500000e-01	1.93458508e-02	4.42184228e-04
1.10000000e-01	2.02362170e-02	4.52434206e-04
1.10500000e-01	1.94687720e-02	4.29658017e-04
1.11000000e-01	1.96045492e-02	4.25474537e-04
1.11500000e-01	1.97958852e-02	4.26066561e-04
1.12000000e-01	1.96981165e-02	4.19212474e-04
1.12500000e-01	1.96168693e-02	4.14296144e-04
1.13000000e-01	1.97917321e-02	4.19910779e-04
1.13500000e-01	1.94632620e-02	4.13263392e-04
1.14000000e-01	1.96220975e-02	4.13084055e-04
1.14500000e-01	1.97333952e-02	4.13967203e-04
1.15000000e-01	1.96444674e-02	4.09565230e-04
1.15500000e-01	2.00924155e-02	4.17357976e-04
1.16000000e-01	1.96455861e-02	4.09350092e-04
1.16500000e-01	1.96300648e-02	4.07798628e-04
1.17000000e-01	1.95696048e-02	4.04716897e-04
1.17500000e-01	1.95162818e-02	4.02520945e-04
1.18000000e-01	1.97038166e-02	4.06966696e-04
1.18500000e-01	1.96211688e-02	4.00982428e-04
1.19000000e-01	1.95820235e-02	4.01585008e-04
1.19500000e-01	1.95703033e-02	3.98683839e-04
1.20000000e-01	1.94055086e-02	3.92954858e-04
1.20500000e-01	1.97245272e-02	3.99725149e-04
1.21000000e-01	1.95843601e-02	3.96661242e-04
1.21500000e-01	1.99570640e-02	4.02387720e-04
1.22000000e-01	1.97027944e-02	3.97716869e-04
1.22500000e-01	1.96327118e-02	3.95501285e-04
1.23000000e-01	1.96262055e-02	3.94355291e-04
1.23500000e-01	1.94534227e-02	3.90930584e-04
1.24000000e-01	1.96305427e-02	3.93392290e-04
1.24500000e-01	1.98477512e-02	3.95822467e-04
1.25000000e-01	1.96976864e-02	3.91717404e-04
1.25500000e-01	1.94424800e-02	3.87961939e-04
1.26000000e-01	1.98454491e-02	3.94266271e-04
1.26500000e-01	1.98406649e-02	3.92385380e-04
1.27000000e-01	1.95973974e-02	3.87378247e-04
1.27500000e-01	1.97700626e-02	3.89459348e-04
1.28000000e-01	1.93354987e-02	3.81002773e-04
1.28500000e-01	1.98267225e-02	3.89793163e-04
1.29000000e-01	1.97195067e-02	3.87687579e-04
1.29500000e-01	1.94949859e-02	3.80508322e-04
1.30000000e-01	1.98163221e-02	3.86778726e-04
1.30500000e-01	1.93018380e-02	3.75689648e-04
1.31000000e-01	1.96780272e-02	3.82258721e-04
1.31500000e-01	1.96720082e-02	3.82486816e-04
1.32000000e-01	1.96041390e-02	3.81433113e-04
1.32500000e-01	1.93802239e-02	3.73903800e-04
1.33000000e-01	1.96266875e-02	3.78220790e-04
1.33500000e-01	1.94128747e-02	3.70739167e-04
1.34000000e-01	1.96601468e-02	3.77312212e-04
1.34500000e-01	1.96290207e-02	3.72513150e-04
1.35000000e-01	1.95412837e-02	3.71587536e-04
1.35500000e-01	1.96903912e-02	3.72169226e-04
1.36000000e-01	1.97866711e-02	3.73667613e-04
1.36500000e-01	1.94078879e-02	3.67571075e-04
1.37000000e-01	1.95011774e-02	3.67927489e-04
1.37500000e-01	1.94692923e-02	3.66636159e-04
1.38000000e-01	1.96259690e-02	3.69935926e-04
1.38500000e-01	1.92997128e-02	3.63942637e-04
1.39000000e-01	1.96828673e-02	3.71954643e-04
1.39500000e-01	1.95609057e-02	3.66375694e-04
1.40000000e-01	1.92852539e-02	3.62522527e-04
1.40500000e-01	1.96267273e-02	3.66540422e-04
1.41000000e-01	1.95773379e-02	3.66961213e-04
1.41500000e-01	1.95406051e-02	3.66912557e-04
1.42000000e-01	1.95918847e-02	3.64303863e-04
1.42500000e-01	1.94103202e-02	3.62108030e-04
1.43000000e-01	1.94676438e-02	3.61923770e-04
1.43500000e-01	1.91969987e-02	3.56499369e-04
1.44000000e-01	1.95675924e-02	3.62476574e-04
1.44500000e-01	1.94544700e-02	3.59697723e-04
1.45000000e-01	1.91888607e-02	3.54627007e-04
1.45500000e-01	1.94852773e-02	3.59137907e-04
1.46000000e-01	1.94578233e-02	3.57505708e-04
1.46500000e-01	1.93813893e-02	3.56366114e-04
1.47000000e-01	1.92166618e-02	3.53993139e-04
1.47500000e-01	1.91740035e-02	3.51794814e-04
1.48000000e-01	1.92999392e-02	3.52983700e-04
1.48500000e-01	1.94892553e-02	3.56122183e-04
1.49000000e-01	1.93862529e-02	3.52980101e-04
1.49500000e-01	1.90175026e-02	3.47764920e-04
1.50000000e-01	1.94169186e-02	3.50959264e-04
1.50500000e-01	1.95208709e-02	3.55546154e-04
1.51000000e-01	1.90981183e-02	3.46545575e-04
1.51500000e-01	1.90666861e-02	3.44680875e-04
1.52000000e-01	1.91854081e-02	3.45959812e-04
1.52500000e-01	1.94148447e-02	3.49189338e-04
1.53000000e-01	1.90868686e-02	3.44046670e-04
1.53500000e-01	1.94790112e-02	3.48644776e-04
1.54000000e-01	1.94579994e-02	3.46964072e-04
1.54500000e-01	1.93646234e-02	3.54050309e-04
1.55000000e-01	1.93631624e-02	3.59106858e-04
1.55500000e-01	1.90074486e-02	3.52839503e-04
1.56000000e-01	1.95310656e-02	3.66589015e-04
1.56500000e-01	1.94836130e-02	3.62905271e-04
1.57000000e-01	1.91746158e-02	3.59867690e-04
1.57500000e-01	1.91886911e-02	3.53368358e-04
1.58000000e-01	1.90325409e-02	3.43877672e-04
1.58500000e-01	1.93948636e-02	3.48608346e-04
1.59000000e-01	1.90605439e-02	3.43795280e-04
1.59500000e-01	1.88663600e-02	3.37573697e-04
1.60000000e-01	1.92438899e-02	3.43581996e-04
1.60500000e-01	1.89793724e-02	3.36814838e-04
1.61000000e-01	1.90308536e-02	3.38717027e-04
1.61500000e-01	1.90665621e-02	3.38959068e-04
1.62000000e-01	1.89427685e-02	3.35381679e-04
1.62500000e-01	1.89135363e-02	3.36006164e-04
1.63000000e-01	1.89518899e-02	3.32826981e-04
1.63500000e-01	1.89634497e-02	3.35009584e-04
1.64000000e-01	1.89896100e-02	3.32828802e-04
1.64500000e-01	1.91077976e-02	3.34966012e-04
1.65000000e-01	1.88929046e-02	3.31339709e-04
1.65500000e-01	1.88953873e-02	3.29771215e-04
1.66000000e-01	1.91248663e-02	3.32843971e-04
1.66500000e-01	1.90133716e-02	3.29758866e-04
1.67000000e-01	1.88413252e-02	3.29763503e-04
1.67500000e-01	1.89718303e-02	3.27957284e-04
1.68000000e-01	1.89076460e-02	3.28341323e-04
1.68500000e-01	1.90662107e-02	3.29625226e-04
1.69000000e-01	1.87633053e-02	3.24443869e-04
1.69500000e-01	1.88677015e-02	3.24692722e-04
1.70000000e-01	1.90185075e-02	3.27039274e-04
1.70500000e-01	1.88812806e-02	3.23787733e-04
1.71000000e-01	1.88480244e-02	3.24172005e-04
1.71500000e-01	1.88996663e-02	3.24665036e-04
1.72000000e-01	1.87366296e-02	3.20910058e-04
1.72500000e-01	1.85015476e-02	3.18450678e-04
1.73000000e-01	1.86574525e-02	3.20276079e-04
1.73500000e-01	1.87249410e-02	3.18757577e-04
1.74000000e-01	1.90790048e-02	3.24126219e-04
1.74500000e-01	1.93805890e-02	3.26903489e-04
1.75000000e-01	1.88811590e-02	3.17765188e-04
1.75500000e-01	1.87306115e-02	3.15177831e-04
1.76000000e-01	1.88402755e-02	3.16374183e-04
1.76500000e-01	1.88087797e-02	3.15660218e-04
1.77000000e-01	1.89964530e-02	3.17450177e-04
1.77500000e-01	1.87930294e-02	3.16727578e-04
1.78000000e-01	1.87464814e-02	3.13851727e-04
1.78500000e-01	1.86235118e-02	3.14257216e-04
1.79000000e-01	1.88256649e-02	3.15457217e-04
1.79500000e-01	1.87562278e-02	3.14302524e-04
1.80000000e-01	1.85799610e-02	3.12055511e-04
1.80500000e-01	1.85615246e-02	3.09745895e-04
1.81000000e-01	1.86493409e-02	3.11217970e-04
1.81500000e-01	1.85514017e-02	3.08485495e-04
1.82000000e-01	1.88504483e-02	3.14047986e-04
1.82500000e-01	1.85341611e-02	3.09033499e-04
1.83000000e-01	1.85545419e-02	3.08148119e-04
1.83500000e-01	1.85046131e-02	3.06366089e-04
1.84000000e-01	1.85830569e-02	3.08260991e-04
1.84500000e-01	1.88171662e-02	3.10991110e-04
1.85000000e-01	1.84226091e-02	3.05572802e-04
1.85500000e-01	1.86267573e-02	3.07862601e-04
1.86000000e-01	1.85651803e-02	3.06929625e-04
1.86500000e-01	1.85332012e-02	3.04324534e-04
1.87000000e-01	1.85283579e-02	3.04269969e-04
1.87500000e-01	1.85916951e-02	3.05409265e-04
1.88000000e-01	1.84104813e-02	3.02076791e-04
1.88500000e-01	1.86236552e-02	3.04366777e-04
1.89000000e-01	1.84176938e-02	3.00832749e-04
1.89500000e-01	1.85187909e-02	3.03952931e-04
1.90000000e-01	1.86780130e-02	3.03929665e-04
1.90500000e-01	1.85438992e-02	3.02538048e-04
1.91000000e-01	1.84235013e-02	2.99846311e-04
1.91500000e-01	1.84179751e-02	2.99646504e-04
1.92000000e-01	1.83085595e-02	2.97418497e-04
1.92500000e-01	1.86463141e-02	3.02546019e-04
1.93000000e-01	1.86535410e-02	3.02675736e-04
1.93500000e-01	1.83829139e-02	2.97496847e-04
1.94000000e-01	1.83085717e-02	2.94855207e-04
1.94500000e-01	1.85677179e-02	2.99001473e-04
1.95000000e-01	1.82696148e-02	2.95166881e-04
1.95500000e-01	1.83429239e-02	2.94875564e-04
1.96000000e-01	1.81838630e-02	2.92675327e-04
1.96500000e-01	1.81844839e-02	2.91957375e-04
1.97000000e-01	1.85227872e-02	2.96626539e-04
1.97500000e-01	1.85942660e-02	2.97359698e-04
1.98000000e-01	1.84062525e-02	2.94915081e-04
1.98500000e-01	1.81565268e-02	2.90262507e-04
1.99000000e-01	1.81119630e-02	2.89244474e-04
1.99500000e-01	1.82529393e-02	2.90763400e-04
2.00000000e-01	1.82672171e-02	2.90623450e-04
2.00500000e-01	1.82155768e-02	2.90149223e-04
2.01000000e-01	1.82826149e-02	2.91027500e-04
2.01500000e-01	1.82015476e-02	2.89829259e-04
2.02000000e-01	1.85051550e-02	2.93368004e-04
2.02500000e-01	1.81584400e-02	2.86398593e-04
2.03000000e-01	1.84638898e-02	2.91561528e-04
2.03500000e-01	1.82487717e-02	2.88461448e-04
2.04000000e-01	1.82567823e-02	2.87324836e-04
2.04500000e-01	1.81272368e-02	2.87722336e-04
2.05000000e-01	1.82015113e-02	2.87261809e-04
2.05500000e-01	1.84236244e-02	2.89179452e-04
2.06000000e-01	1.82275876e-02	2.85618706e-04
2.06500000e-01	1.83317924e-02	2.87565106e-04
2.07000000e-01	1.79999279e-02	2.82054852e-04
2.07500000e-01	1.83878952e-02	2.86097376e-04
2.08000000e-01	1.82461157e-02	2.85101721e-04
2.08500000e-01	1.81464565e-02	2.83182364e-04
2.09000000e-01	1.79321329e-02	2.80624481e-04
2.09500000e-01	1.81585538e-02	2.83142677e-04
2.10000000e-01	1.80242053e-02	2.80542193e-04
2.10500000e-01	1.82724894e-02	2.85230412e-04
2.11000000e-01	1.80557000e-02	2.80470792e-04
2.11500000e-01	1.81993379e-02	2.82030349e-04
2.12000000e-01	1.79392730e-02	2.78287341e-04
2.12500000e-01	1.81404884e-02	2.79417565e-04
2.13000000e-01	1.79461639e-02	2.77745746e-04
2.13500000e-01	1.81006341e-02	2.78840802e-04
2.14000000e-01	1.80368161e-02	2.77983653e-04
2.14500000e-01	1.80091756e-02	2.77181029e-04
2.15000000e-01	1.80929063e-02	2.79538135e-04
2.15500000e-01	1.82024828e-02	2.78808028e-04
2.16000000e-01	1.80047219e-02	2.76459913e-04
2.16500000e-01	1.82455212e-02	2.79473513e-04
2.17000000e-01	1.80052738e-02	2.80247132e-04
2.17500000e-01	1.80496508e-02	2.84828474e-04
2.18000000e-01	1.81184125e-02	2.86084471e-04
2.18500000e-01	1.78747523e-02	2.85454727e-04
2.19000000e-01	1.79122628e-02	2.85952138e-04
2.19500000e-01	1.80555532e-02	2.89891449e-04
2.20000000e-01	1.80907581e-02	2.92843583e-04
2.20500000e-01	1.80118130e-02	2.90425817e-04
2.21000000e-01	1.78680274e-02	2.89853989e-04
2.21500000e-01	1.77424000e-02	2.89447263e-04
2.22000000e-01	1.77772555e-02	2.90110235e-04
2.22500000e-01	1.79366300e-02	2.92140758e-04
2.23000000e-01	1.79794729e-02	2.93904951e-04
2.23500000e-01	1.81635381e-02	2.97736730e-04
2.24000000e-01	1.78583390e-02	2.93201097e-04
2.24500000e-01	1.77495979e-02	2.93094637e-04
2.25000000e-01	1.77334161e-02	2.93568406e-04
2.25500000e-01	1.77581001e-02	2.93025601e-04
2.26000000e-01	1.80264048e-02	2.98788613e-04
2.26500000e-01	1.79669335e-02	2.92076318e-04
2.27000000e-01	1.79706015e-02	2.90282870e-04
2.27500000e-01	1.79625550e-02	2.88030209e-04
2.28000000e-01	1.78228784e-02	2.84502500e-04
2.28500000e-01	1.79610172e-02	2.84299949e-04
2.29000000e-01	1.77831579e-02	2.80361985e-04
2.29500000e-01	1.79396341e-02	2.82361907e-04
2.30000000e-01	1.77414217e-02	2.78506069e-04
2.30500000e-01	1.77934471e-02	2.79260038e-04
2.31000000e-01	1.78509758e-02	2.78682424e-04
2.31500000e-01	1.77036753e-02	2.76386376e-04
2.32000000e-01	1.76936634e-02	2.76134600e-04
2.32500000e-01	1.78646234e-02	2.77526739e-04
2.33000000e-01	1.77414176e-02	2.75078328e-04
2.33500000e-01	1.77390742e-02	2.74432667e-04
2.34000000e-01	1.79108282e-02	2.75405685e-04
2.34500000e-01	1.78301746e-02	2.73145309e-04
2.35000000e-01	1.76869932e-02	2.72435365e-04
2.35500000e-01	1.76602535e-02	2.69659112e-04
2.36000000e-01	1.80396086e-02	2.75815153e-04
2.36500000e-01	1.77720005e-02	2.72278785e-04
2.37000000e-01	1.75254776e-02	2.67190708e-04
2.37500000e-01	1.76510010e-02	2.68941447e-04
2.38000000e-01	1.77612993e-02	2.69861213e-04
2.38500000e-01	1.75118197e-02	2.67466123e-04
2.39000000e-01	1.79049731e-02	2.69981388e-04
2.39500000e-01	1.79118379e-02	2.71142287e-04
2.40000000e-01	1.76521610e-02	2.65688119e-04
2.40500000e-01	1.76343097e-02	2.65990821e-04
2.41000000e-01	1.76699274e-02	2.65704676e-04
2.41500000e-01	1.75292352e-02	2.62257770e-04
2.42000000e-01	1.76219567e-02	2.63464318e-04
2.42500000e-01	1.71924114e-02	2.58138872e-04
2.43000000e-01	1.76447535e-02	2.63243098e-04
2.43500000e-01	1.76763750e-02	2.62382551e-04
2.44000000e-01	1.74429810e-02	2.59652144e-04
2.44500000e-01	1.75835808e-02	2.62310528e-04
2.45000000e-01	1.77703170e-02	2.63467250e-04
2.45500000e-01	1.75841124e-02	2.60680476e-04
2.46000000e-01	1.77014161e-02	2.61794840e-04
2.46500000e-01	1.75769687e-02	2.60300096e-04
2.47000000e-01	1.76784746e-02	2.61654512e-04
2.47500000e-01	1.73607317e-02	2.55637692e-04
2.48000000e-01	1.75290624e-02	2.58058045e-04
2.48500000e-01	1.74391644e-02	2.56487767e-04
2.49000000e-01	1.75504908e-02	2.58151601e-04
2.49500000e-01	1.74963217e-02	2.57154365e-04
2.50000000e-01	1.74149665e-02	2.55173125e-04
2.50500000e-01	1.72428814e-02	2.53490226e-04
2.51000000e-01	1.75284919e-02	2.55539804e-04
2.51500000e-01	1.75627343e-02	2.56738385e-04
2.52000000e-01	1.72563263e-02	2.53047570e-04
2.52500000e-01	1.73443698e-02	2.53876878e-04
2.53000000e-01	1.74564876e-02	2.54334057e-04
2.53500000e-01	1.74766945e-02	2.54164481e-04
2.54000000e-01	1.73546153e-02	2.53519007e-04
2.54500000e-01	1.72401570e-02	2.51668621e-04
2.55000000e-01	1.74071657e-02	2.53391301e-04
2.55500000e-01	1.73798246e-02	2.52146348e-04
2.56000000e-01	1.75414568e-02	2.53434801e-04
2.56500000e-01	1.73147515e-02	2.51248279e-04
2.57000000e-01	1.72049559e-02	2.49560676e-04
2.57500000e-01	1.73689592e-02	2.50555525e-04
2.58000000e-01	1.73084878e-02	2.50507012e-04
2.58500000e-01	1.72525582e-02	2.48885047e-04
2.59000000e-01	1.73319941e-02	2.49472072e-04
2.59500000e-01	1.71029202e-02	2.46325170e-04
2.60000000e-01	1.73085696e-02	2.49318725e-04
2.60500000e-01	1.72956838e-02	2.48787608e-04
2.61000000e-01	1.73655348e-02	2.48546933e-04
2.61500000e-01	1.72449385e-02	2.47469630e-04
2.62000000e-01	1.72523313e-02	2.46422289e-04
2.62500000e-01	1.71433882e-02	2.45993997e-04
2.63000000e-01	1.71352385e-02	2.45895217e-04
2.63500000e-01	1.71511149e-02	2.43909052e-04
2.64000000e-01	1.74014733e-02	2.48705435e-04
2.64500000e-01	1.72660324e-02	2.45761150e-04
2.65000000e-01	1.70197999e-02	2.42418772e-04
2.65500000e-01	1.71311128e-02	2.44577933e-04
2.66000000e-01	1.71684672e-02	2.43741637e-04
2.66500000e-01	1.71412545e-02	2.42956832e-04
2.67000000e-01	1.71085251e-02	2.41719656e-04
2.67500000e-01	1.70908611e-02	2.41381212e-04
2.68000000e-01	1.70572209e-02	2.40684187e-04
2.68500000e-01	1.71703938e-02	2.42123723e-04
2.69000000e-01	1.70933699e-02	2.41601159e-04
2.69500000e-01	1.71444074e-02	2.40473078e-04
2.70000000e-01	1.71324790e-02	2.40002701e-04
2.70500000e-01	1.69957895e-02	2.38757302e-04
2.71000000e-01	1.72823882e-02	2.41841026e-04
2.71500000e-01	1.71669456e-02	2.41178490e-04
2.72000000e-01	1.71563573e-02	2.39628700e-04
2.72500000e-01	1.70267101e-02	2.39113685e-04
2.73000000e-01	1.71566415e-02	2.39524184e-04
2.73500000e-01	1.70255030e-02	2.37688549e-04
2.74000000e-01	1.71867903e-02	2.40054363e-04
2.74500000e-01	1.69210369e-02	2.36075096e-04
2.75000000e-01	1.72433729e-02	2.40032464e-04
2.75500000e-01	1.71749230e-02	2.39300348e-04
2.76000000e-01	1.71707651e-02	2.38446512e-04
2.76500000e-01	1.69908586e-02	2.36402965e-04
2.77000000e-01	1.70865913e-02	2.37842391e-04
2.77500000e-01	1.71975148e-02	2.38766305e-04
2.78000000e-01	1.71604010e-02	2.37718755e-04
2.78500000e-01	1.69968194e-02	2.35600679e-04
2.79000000e-01	1.70342926e-02	2.35139722e-04
2.79500000e-01	1.70513916e-02	2.35773527e-04
2.80000000e-01	1.68872686e-02	2.33612460e-04
2.80500000e-01	1.71032986e-02	2.36096818e-04
2.81000000e-01	1.70117967e-02	2.34551338e-04
2.81500000e-01	1.70041210e-02	2.34342095e-04
2.82000000e-01	1.69983101e-02	2.34429059e-04
2.82500000e-01	1.71061180e-02	2.36161347e-04
2.83000000e-01	1.69928922e-02	2.33992706e-04
2.83500000e-01	1.69455103e-02	2.31914715e-04
2.84000000e-01	1.69426817e-02	2.33106106e-04
2.84500000e-01	1.70099520e-02	2.33278330e-04
2.85000000e-01	1.68316163e-02	2.30436946e-04
2.85500000e-01	1.69473106e-02	2.31618486e-04
2.86000000e-01	1.69842885e-02	2.31882167e-04
2.86500000e-01	1.69224247e-02	2.31528938e-04
2.87000000e-01	1.68832131e-02	2.31465546e-04
2.87500000e-01	1.68792476e-02	2.29935074e-04
2.88000000e-01	1.69417139e-02	2.30112032e-04
2.88500000e-01	1.68767884e-02	2.29942856e-04
2.89000000e-01	1.69484983e-02	2.30694762e-04
2.89500000e-01	1.69638399e-02	2.30307335e-04
2.90000000e-01	1.68896731e-02	2.28919876e-04
2.90500000e-01	1.67663136e-02	2.27926970e-04
2.91000000e-01	1.69936301e-02	2.29696829e-04
2.91500000e-01	1.68812385e-02	2.27599363e-04
2.92000000e-01	1.68171984e-02	2.26267609e-04
2.92500000e-01	1.65948890e-02	2.23421552e-04
2.93000000e-01	1.67427208e-02	2.25818225e-04
2.93500000e-01	1.67290479e-02	2.25999768e-04
2.94000000e-01	1.69797298e-02	2.28365825e-04
2.94500000e-01	1.68876857e-02	2.27925075e-04
2.95000000e-01	1.69028351e-02	2.26930949e-04
2.95500000e-01	1.68057792e-02	2.26065837e-04
2.96000000e-01	1.69474188e-02	2.26784616e-04
2.96500000e-01	1.68393603e-02	2.25490087e-04
2.97000000e-01	1.66652328e-02	2.24017814e-04
2.97500000e-01	1.66903321e-02	2.22987872e-04
2.98000000e-01	1.67659277e-02	2.24511233e-04
2.98500000e-01	1.66530456e-02	2.22230418e-04
2.99000000e-01	1.68893579e-02	2.25762502e-04
2.99500000e-01	1.66813550e-02	2.22877383e-04
3.00000000e-01	1.67180749e-02	2.22690731e-04
3.00500000e-01	1.67052102e-02	2.22447341e-04
3.01000000e-01	1.66304701e-02	2.20779429e-04
3.01500000e-01	1.70085541e-02	2.25963632e-04
3.02000000e-01	1.66716986e-02	2.21236677e-04
3.02500000e-01	1.66861339e-02	2.21596412e-04
3.03000000e-01	1.65868972e-02	2.19850232e-04
3.03500000e-01	1.66515237e-02	2.20798580e-04
3.04000000e-01	1.66539193e-02	2.21269892e-04
3.04500000e-01	1.66806583e-02	2.20962752e-04
3.05000000e-01	1.65715495e-02	2.20052567e-04
3.05500000e-01	1.67950113e-02	2.22198318e-04
3.06000000e-01	1.65298290e-02	2.17240345e-04
3.06500000e-01	1.67394742e-02	2.20207146e-04
3.07000000e-01	1.66147449e-02	2.18633207e-04
3.07500000e-01	1.66017870e-02	2.19431994e-04
3.08000000e-01	1.65619690e-02	2.17873924e-04
3.08500000e-01	1.66822382e-02	2.18615663e-04
3.09000000e-01	1.64810864e-02	2.16697953e-04
3.09500000e-01	1.65632901e-02	2.17433530e-04
3.10000000e-01	1.65815102e-02	2.18065630e-04
3.10500000e-01	1.65656819e-02	2.17159749e-04
3.11000000e-01	1.65777245e-02	2.17216789e-04
3.11500000e-01	1.65869383e-02	2.17042549e-04
3.12000000e-01	1.64476207e-02	2.15463623e-04
3.12500000e-01	1.66928446e-02	2.18348162e-04
3.13000000e-01	1.64203539e-02	2.14117835e-04
3.13500000e-01	1.65296746e-02	2.15517063e-04
3.14000000e-01	1.65301491e-02	2.15372497e-04
3.14500000e-01	1.65037169e-02	2.15020007e-04
3.15000000e-01	1.63456368e-02	2.12905326e-04
3.15500000e-01	1.63857063e-02	2.13134207e-04
3.16000000e-01	1.63171160e-02	2.12702291e-04
3.16500000e-01	1.64158987e-02	2.12358078e-04
3.17000000e-01	1.65253430e-02	2.13792632e-04
3.17500000e-01	1.63789719e-02	2.12506300e-04
3.18000000e-01	1.62481476e-02	2.10393568e-04
3.18500000e-01	1.64077357e-02	2.12813194e-04
3.19000000e-01	1.64005780e-02	2.11950470e-04
3.19500000e-01	1.63719193e-02	2.12000410e-04
3.20000000e-01	1.66241718e-02	2.14499010e-04
3.20500000e-01	1.63004076e-02	2.09703793e-04
3.21000000e-01	1.64092614e-02	2.11107569e-04
3.21500000e-01	1.65087300e-02	2.12139323e-04
3.22000000e-01	1.64567083e-02	2.12133169e-04
3.22500000e-01	1.62887193e-02	2.09479406e-04
3.23000000e-01	1.61543972e-02	2.07976121e-04
3.23500000e-01	1.62213986e-02	2.09176800e-04
3.24000000e-01	1.64315452e-02	2.10402730e-04
3.24500000e-01	1.62382745e-02	2.10011468e-04
3.25000000e-01	1.61030736e-02	2.07175293e-04
3.25500000e-01	1.62460148e-02	2.08233286e-04
3.26000000e-01	1.62043703e-02	2.07962854e-04
3.26500000e-01	1.61621365e-02	2.07074703e-04
3.27000000e-01	1.63044308e-02	2.07891787e-04
3.27500000e-01	1.62735204e-02	2.07679779e-04
3.28000000e-01	1.63528224e-02	2.09168465e-04
3.28500000e-01	1.62084540e-02	2.06673110e-04
3.29000000e-01	1.62384166e-02	2.06780527e-04
3.29500000e-01	1.62524020e-02	2.07940148e-04
3.30000000e-01	1.61430813e-02	2.05562810e-04
3.30500000e-01	1.61644637e-02	2.05962291e-04
3.31000000e-01	1.60814282e-02	2.04390981e-04
3.31500000e-01	1.63487248e-02	2.07365111e-04
3.32000000e-01	1.61391877e-02	2.05299665e-04
3.32500000e-01	1.61188568e-02	2.04442401e-04
3.33000000e-01	1.62804087e-02	2.06355620e-04
3.33500000e-01	1.60582281e-02	2.03260901e-04
3.34000000e-01	1.58945417e-02	2.02006138e-04
3.34500000e-01	1.62851236e-02	2.06321410e-04
3.35000000e-01	1.62515970e-02	2.05027927e-04
3.35500000e-01	1.61219401e-02	2.03906664e-04
3.36000000e-01	1.60143071e-02	2.02294894e-04
3.36500000e-01	1.60425268e-02	2.01911218e-04
3.37000000e-01	1.61760281e-02	2.03839986e-04
3.37500000e-01	1.60388462e-02	2.02004644e-04
3.38000000e-01	1.62041781e-02	2.04521572e-04
3.38500000e-01	1.59926221e-02	2.00377819e-04
3.39000000e-01	1.60048139e-02	2.01573899e-04
3.39500000e-01	1.60567500e-02	2.00592978e-04
3.40000000e-01	1.59762818e-02	2.01080042e-04
3.40500000e-01	1.61136080e-02	2.02443645e-04
3.41000000e-01	1.59991213e-02	2.00100615e-04
3.41500000e-01	1.61047736e-02	2.02838129e-04
3.42000000e-01	1.59489271e-02	1.99465070e-04
3.42500000e-01	1.60204657e-02	2.00785120e-04
3.43000000e-01	1.60380496e-02	2.00221188e-04
3.43500000e-01	1.60396810e-02	1.99679905e-04
3.44000000e-01	1.60260511e-02	2.00357523e-04
3.44500000e-01	1.58755895e-02	1.97779263e-04
3.45000000e-01	1.60400685e-02	1.99685980e-04
3.45500000e-01	1.58807757e-02	1.97531961e-04
3.46000000e-01	1.57984999e-02	1.97263277e-04
3.46500000e-01	1.59557091e-02	1.98352504e-04
3.47000000e-01	1.60162000e-02	1.99259249e-04
3.47500000e-01	1.58449939e-02	1.96911304e-04
3.48000000e-01	1.58131855e-02	1.96765513e-04
3.48500000e-01	1.59125225e-02	1.97765703e-04
3.49000000e-01	1.59907819e-02	1.98062419e-04
3.49500000e-01	1.58273622e-02	1.96412850e-04
3.50000000e-01	1.57510167e-02	1.59333448e-04
3.51000000e-01	1.58150565e-02	1.38262960e-04
3.52000000e-01	1.58174056e-02	1.38281019e-04
3.53000000e-01	1.57718317e-02	1.37289554e-04
3.54000000e-01	1.58484811e-02	1.37506383e-04
3.55000000e-01	1.58064718e-02	1.37714973e-04
3.56000000e-01	1.57605542e-02	1.37691496e-04
3.57000000e-01	1.56769127e-02	1.39596650e-04
3.58000000e-01	1.57010814e-02	1.40571594e-04
3.59000000e-01	1.57266606e-02	1.41799863e-04
3.60000000e-01	1.55821361e-02	1.41901736e-04
3.61000000e-01	1.56547468e-02	1.42876347e-04
3.62000000e-01	1.55766855e-02	1.42560275e-04
3.63000000e-01	1.54708067e-02	1.42519443e-04
3.64000000e-01	1.56575221e-02	1.44466641e-04
3.65000000e-01	1.56602276e-02	1.45280912e-04
3.66000000e-01	1.54713219e-02	1.42085960e-04
3.67000000e-01	1.55575531e-02	1.40608199e-04
3.68000000e-01	1.56271361e-02	1.40070354e-04
3.69000000e-01	1.55626108e-02	1.38974799e-04
3.70000000e-01	1.54480221e-02	1.37270685e-04
3.71000000e-01	1.55856686e-02	1.39944906e-04
3.72000000e-01	1.54616998e-02	1.40128315e-04
3.73000000e-01	1.55445565e-02	1.41475977e-04
3.74000000e-01	1.54575643e-02	1.40446026e-04
3.75000000e-01	1.54926475e-02	1.41055327e-04
3.76000000e-01	1.54659742e-02	1.41183766e-04
3.77000000e-01	1.55221425e-02	1.40918746e-04
3.78000000e-01	1.54118181e-02	1.40264507e-04
3.79000000e-01	1.55153897e-02	1.40699198e-04
3.80000000e-01	1.52941502e-02	1.38929663e-04
3.81000000e-01	1.54165151e-02	1.39685952e-04
3.82000000e-01	1.53435680e-02	1.39319160e-04
3.83000000e-01	1.53610687e-02	1.39476800e-04
3.84000000e-01	1.54088623e-02	1.39706025e-04
3.85000000e-01	1.53461046e-02	1.39366294e-04
3.86000000e-01	1.51719978e-02	1.37885436e-04
3.87000000e-01	1.52989767e-02	1.38477383e-04
3.88000000e-01	1.53661347e-02	1.38928610e-04
3.89000000e-01	1.52405177e-02	1.38123435e-04
3.90000000e-01	1.52039726e-02	1.37534999e-04
3.91000000e-01	1.53071454e-02	1.38422030e-04
3.92000000e-01	1.52360927e-02	1.38017195e-04
3.93000000e-01	1.50527212e-02	1.36495447e-04
3.94000000e-01	1.52476020e-02	1.37859264e-04
3.95000000e-01	1.51923872e-02	1.37449946e-04
3.96000000e-01	1.51793801e-02	1.37535246e-04
3.97000000e-01	1.52447428e-02	1.37426968e-04
3.98000000e-01	1.51752351e-02	1.37037696e-04
3.99000000e-01	1.50633633e-02	1.36329173e-04
4.00000000e-01	1.50951232e-02	1.36538227e-04
4.01000000e-01	1.51470786e-02	1.36918692e-04
4.02000000e-01	1.50557146e-02	1.36520967e-04
4.03000000e-01	1.50384968e-02	1.35870083e-04
4.04000000e-01	1.50565737e-02	1.35794925e-04
4.05000000e-01	1.50216254e-02	1.36128273e-04
4.06000000e-01	1.49720627e-02	1.35466284e-04
4.07000000e-01	1.50303541e-02	1.35625243e-04
4.08000000e-01	1.50315598e-02	1.35475015e-04
4.09000000e-01	1.49888256e-02	1.35002005e-04
4.10000000e-01	1.50049423e-02	1.35246381e-04
4.11000000e-01	1.49211013e-02	1.35296278e-04
4.12000000e-01	1.49491557e-02	1.34816415e-04
4.13000000e-01	1.50142014e-02	1.35125432e-04
4.14000000e-01	1.49633603e-02	1.34941611e-04
4.15000000e-01	1.49682132e-02	1.35041486e-04
4.16000000e-01	1.48732905e-02	1.33863934e-04
4.17000000e-01	1.49347951e-02	1.34372129e-04
4.18000000e-01	1.49796149e-02	1.36399651e-04
4.19000000e-01	1.49508401e-02	1.37773068e-04
4.20000000e-01	1.52095064e-02	1.40889069e-04
4.21000000e-01	1.49512352e-02	1.39038225e-04
4.22000000e-01	1.49458279e-02	1.39400293e-04
4.23000000e-01	1.49505632e-02	1.39961051e-04
4.24000000e-01	1.48835384e-02	1.40241638e-04
4.25000000e-01	1.50561016e-02	1.41032473e-04
4.26000000e-01	1.49252553e-02	1.40436967e-04
4.27000000e-01	1.49123675e-02	1.40184905e-04
4.28000000e-01	1.49353386e-02	1.40271378e-04
4.29000000e-01	1.50315744e-02	1.41514914e-04
4.30000000e-01	1.48932458e-02	1.40588488e-04
4.31000000e-01	1.49048735e-02	1.40422766e-04
4.32000000e-01	1.49141654e-02	1.40881692e-04
4.33000000e-01	1.48501073e-02	1.40151593e-04
4.34000000e-01	1.48529679e-02	1.40397806e-04
4.35000000e-01	1.49809229e-02	1.41574827e-04
4.36000000e-01	1.48828504e-02	1.40723758e-04
4.37000000e-01	1.49033881e-02	1.41182755e-04
4.38000000e-01	1.48239994e-02	1.40905357e-04
4.39000000e-01	1.48012723e-02	1.40985397e-04
4.40000000e-01	1.47980621e-02	1.41207995e-04
4.41000000e-01	1.48204289e-02	1.41304606e-04
4.42000000e-01	1.47757755e-02	1.41003290e-04
4.43000000e-01	1.47095094e-02	1.40750983e-04
4.44000000e-01	1.47920044e-02	1.41746541e-04
4.45000000e-01	1.49423845e-02	1.42625154e-04
4.46000000e-01	1.47161315e-02	1.40932300e-04
4.47000000e-01	1.46760779e-02	1.40739715e-04
4.48000000e-01	1.46284335e-02	1.40900536e-04
4.49000000e-01	1.46742827e-02	1.41025630e-04
4.50000000e-01	1.47365422e-02	1.41490060e-04
4.51000000e-01	1.47099363e-02	1.42044841e-04
4.52000000e-01	1.46533111e-02	1.41413453e-04
4.53000000e-01	1.47433763e-02	1.42230848e-04
4.54000000e-01	1.47864847e-02	1.42774840e-04
4.55000000e-01	1.46546275e-02	1.41827416e-04
4.56000000e-01	1.47247178e-02	1.42425395e-04
4.57000000e-01	1.46068743e-02	1.41653725e-04
4.58000000e-01	1.45341473e-02	1.40869789e-04
4.59000000e-01	1.45027377e-02	1.41215664e-04
4.60000000e-01	1.45637673e-02	1.41704827e-04
4.61000000e-01	1.45998056e-02	1.42160552e-04
4.62000000e-01	1.45836199e-02	1.41624666e-04
4.63000000e-01	1.46722129e-02	1.42784616e-04
4.64000000e-01	1.45065260e-02	1.41653294e-04
4.65000000e-01	1.44550332e-02	1.40954491e-04
4.66000000e-01	1.46317298e-02	1.42605577e-04
4.67000000e-01	1.44915064e-02	1.41694885e-04
4.68000000e-01	1.46934064e-02	1.43781835e-04
4.69000000e-01	1.45353974e-02	1.41861372e-04
4.70000000e-01	1.46071137e-02	1.43182902e-04
4.71000000e-01	1.44534521e-02	1.41114584e-04
4.72000000e-01	1.43786552e-02	1.40531810e-04
4.73000000e-01	1.44917743e-02	1.41464091e-04
4.74000000e-01	1.45084289e-02	1.41958004e-04
4.75000000e-01	1.45564231e-02	1.42250402e-04
4.76000000e-01	1.43639278e-02	1.40305277e-04
4.77000000e-01	1.43164097e-02	1.40228945e-04
4.78000000e-01	1.44003975e-02	1.41114890e-04
4.79000000e-01	1.42826227e-02	1.39725971e-04
4.80000000e-01	1.44161523e-02	1.41354335e-04
4.81000000e-01	1.44841580e-02	1.42495070e-04
4.82000000e-01	1.45488336e-02	1.42865699e-04
4.83000000e-01	1.43949400e-02	1.41425838e-04
4.84000000e-01	1.42228789e-02	1.39949363e-04
4.85000000e-01	1.43736713e-02	1.40909111e-04
4.86000000e-01	1.42608372e-02	1.40554588e-04
4.87000000e-01	1.42403156e-02	1.39976122e-04
4.88000000e-01	1.43246450e-02	1.41182595e-04
4.89000000e-01	1.43510960e-02	1.41842618e-04
4.90000000e-01	1.42559691e-02	1.40378255e-04
4.91000000e-01	1.42636887e-02	1.40570364e-04
4.92000000e-01	1.43087041e-02	1.41371514e-04
4.93000000e-01	1.43623474e-02	1.41555071e-04
4.94000000e-01	1.43578185e-02	1.41575803e-04
4.95000000e-01	1.43654753e-02	1.42589737e-04
4.96000000e-01	1.42555938e-02	1.46315572e-04
4.97000000e-01	1.42541571e-02	1.48801815e-04
4.98000000e-01	1.42149426e-02	1.50047877e-04
4.99000000e-01	1.43800645e-02	1.53199577e-04
5.00000000e-01	1.41106872e-02	1.52918380e-04
5.01000000e-01	1.41847034e-02	1.54708556e-04
5.02000000e-01	1.43961804e-02	1.58694160e-04
5.03000000e-01	1.43111073e-02	1.59097927e-04
5.04000000e-01	1.43767611e-02	1.61264085e-04
5.05000000e-01	1.43346314e-02	1.58016627e-04
5.06000000e-01	1.43201407e-02	1.54657049e-04
5.07000000e-01	1.42017365e-02	1.52422096e-04
5.08000000e-01	1.42985786e-02	1.51527730e-04
5.09000000e-01	1.43489959e-02	1.51790177e-04
5.10000000e-01	1.41113278e-02	1.49447747e-04
5.11000000e-01	1.41417555e-02	1.48920614e-04
5.12000000e-01	1.39890243e-02	1.46923086e-04
5.13000000e-01	1.41103289e-02	1.47947880e-04
5.14000000e-01	1.41009819e-02	1.47664068e-04
5.15000000e-01	1.42067425e-02	1.47883009e-04
5.16000000e-01	1.42567284e-02	1.48511548e-04
5.17000000e-01	1.40300151e-02	1.45940112e-04
5.18000000e-01	1.41019618e-02	1.46198517e-04
5.19000000e-01	1.40630095e-02	1.45088625e-04
5.20000000e-01	1.41226871e-02	1.45654117e-04
5.21000000e-01	1.42136561e-02	1.46631062e-04
5.22000000e-01	1.41021588e-02	1.45375774e-04
5.23000000e-01	1.41119601e-02	1.45024361e-04
5.24000000e-01	1.41931383e-02	1.46275606e-04
5.25000000e-01	1.40299193e-02	1.44336345e-04
5.26000000e-01	1.40086099e-02	1.44349368e-04
5.27000000e-01	1.40383852e-02	1.44502323e-04
5.28000000e-01	1.41423830e-02	1.45653224e-04
5.29000000e-01	1.40035943e-02	1.44224453e-04
5.30000000e-01	1.39724121e-02	1.44301635e-04
5.31000000e-01	1.39959684e-02	1.44338451e-04
5.32000000e-01	1.39620922e-02	1.44569493e-04
5.33000000e-01	1.38213644e-02	1.42619646e-04
5.34000000e-01	1.40659422e-02	1.44740694e-04
5.35000000e-01	1.37928907e-02	1.42217659e-04
5.36000000e-01	1.39049821e-02	1.43340220e-04
5.37000000e-01	1.39661747e-02	1.44148516e-04
5.38000000e-01	1.39621295e-02	1.43467091e-04
5.39000000e-01	1.39252279e-02	1.43693512e-04
5.40000000e-01	1.39143759e-02	1.43226426e-04
5.41000000e-01	1.39156472e-02	1.43400398e-04
5.42000000e-01	1.38882157e-02	1.43377971e-04
5.43000000e-01	1.37094319e-02	1.41326370e-04
5.44000000e-01	1.39023071e-02	1.43413004e-04
5.45000000e-01	1.37468677e-02	1.41912826e-04
5.46000000e-01	1.38668584e-02	1.42473879e-04
5.47000000e-01	1.38518713e-02	1.42965976e-04
5.48000000e-01	1.38997807e-02	1.43483953e-04
5.49000000e-01	1.38677578e-02	1.42714335e-04
5.50000000e-01	1.37965426e-02	1.41939961e-04
5.51000000e-01	1.38425309e-02	1.42168233e-04
5.52000000e-01	1.36987304e-02	1.40936192e-04
5.53000000e-01	1.38753891e-02	1.42129757e-04
5.54000000e-01	1.37475828e-02	1.40752339e-04
5.55000000e-01	1.37052296e-02	1.40649921e-04
5.56000000e-01	1.37997370e-02	1.41328249e-04
5.57000000e-01	1.36976908e-02	1.40449713e-04
5.58000000e-01	1.37186658e-02	1.40733171e-04
5.59000000e-01	1.35961016e-02	1.39371433e-04
5.60000000e-01	1.36912069e-02	1.40386781e-04
5.61000000e-01	1.36182682e-02	1.39287448e-04
5.62000000e-01	1.36818765e-02	1.40489652e-04
5.63000000e-01	1.37225119e-02	1.40767199e-04
5.64000000e-01	1.36129198e-02	1.40025315e-04
5.65000000e-01	1.36075641e-02	1.39582420e-04
5.66000000e-01	1.35749106e-02	1.39342008e-04
5.67000000e-01	1.35642740e-02	1.39493956e-04
5.68000000e-01	1.35479060e-02	1.39039859e-04
5.69000000e-01	1.35698579e-02	1.38876432e-04
5.70000000e-01	1.35026735e-02	1.38691576e-04
5.71000000e-01	1.35701269e-02	1.39151280e-04
5.72000000e-01	1.36482571e-02	1.39395664e-04
5.73000000e-01	1.35415306e-02	1.39053014e-04
5.74000000e-01	1.34584278e-02	1.37510614e-04
5.75000000e-01	1.34112119e-02	1.38250717e-04
5.76000000e-01	1.34524598e-02	1.38502634e-04
5.77000000e-01	1.34116946e-02	1.37375841e-04
5.78000000e-01	1.35229540e-02	1.38806057e-04
5.79000000e-01	1.33898058e-02	1.37627136e-04
5.80000000e-01	1.33060425e-02	1.36971463e-04
5.81000000e-01	1.35475043e-02	1.38765163e-04
5.82000000e-01	1.34327157e-02	1.38213437e-04
5.83000000e-01	1.34675633e-02	1.38566043e-04
5.84000000e-01	1.33735277e-02	1.37670126e-04
5.85000000e-01	1.34097613e-02	1.37897449e-04
5.86000000e-01	1.33598392e-02	1.38086547e-04
5.87000000e-01	1.32848591e-02	1.36570108e-04
5.88000000e-01	1.33569060e-02	1.37904917e-04
5.89000000e-01	1.33679365e-02	1.37675737e-04
5.90000000e-01	1.34241877e-02	1.38127663e-04
5.91000000e-01	1.33073103e-02	1.37315944e-04
5.92000000e-01	1.33476510e-02	1.37443450e-04
5.93000000e-01	1.32787659e-02	1.36800742e-04
5.94000000e-01	1.32543375e-02	1.37070226e-04
5.95000000e-01	1.33275236e-02	1.37200334e-04
5.96000000e-01	1.32240199e-02	1.36661541e-04
5.97000000e-01	1.32576179e-02	1.37181801e-04
5.98000000e-01	1.31612212e-02	1.35933149e-04
5.99000000e-01	1.31547019e-02	1.35753037e-04
6.00000000e-01	1.32111749e-02	1.36485479e-04
6.01000000e-01	1.32594825e-02	1.36427076e-04
6.02000000e-01	1.33281909e-02	1.37775530e-04
6.03000000e-01	1.32986001e-02	1.37377246e-04
6.04000000e-01	1.33140323e-02	1.37574126e-04
6.05000000e-01	1.32265609e-02	1.37054312e-04
6.06000000e-01	1.30903796e-02	1.35574916e-04
6.07000000e-01	1.31445196e-02	1.36212291e-04
6.08000000e-01	1.31141414e-02	1.35660675e-04
6.09000000e-01	1.31417288e-02	1.35788362e-04
6.10000000e-01	1.31041574e-02	1.36177894e-04
6.11000000e-01	1.31199157e-02	1.35581474e-04
6.12000000e-01	1.31232896e-02	1.36440309e-04
6.13000000e-01	1.30936697e-02	1.35834997e-04
6.14000000e-01	1.31692952e-02	1.36150919e-04
6.15000000e-01	1.32264759e-02	1.36232251e-04
6.16000000e-01	1.32183506e-02	1.36593593e-04
6.17000000e-01	1.32240229e-02	1.36802713e-04
6.18000000e-01	1.31448353e-02	1.35954702e-04
6.19000000e-01	1.30902367e-02	1.35451631e-04
6.20000000e-01	1.30704801e-02	1.34912080e-04
6.21000000e-01	1.31089418e-02	1.35497703e-04
6.22000000e-01	1.31229381e-02	1.35061418e-04
6.23000000e-01	1.30630239e-02	1.34474450e-04
6.24000000e-01	1.30432406e-02	1.34530031e-04
6.25000000e-01	1.28869853e-02	1.32780543e-04
6.26000000e-01	1.31290053e-02	1.34702150e-04
6.27000000e-01	1.29362250e-02	1.33826413e-04
6.28000000e-01	1.30580006e-02	1.34329829e-04
6.29000000e-01	1.29786711e-02	1.33796357e-04
6.30000000e-01	1.28769363e-02	1.32601891e-04
6.31000000e-01	1.30135922e-02	1.33884645e-04
6.32000000e-01	1.29581264e-02	1.33393393e-04
6.33000000e-01	1.29635670e-02	1.33334727e-04
6.34000000e-01	1.29802950e-02	1.36534575e-04
6.35000000e-01	1.30823993e-02	1.41452901e-04
6.36000000e-01	1.29095567e-02	1.43005467e-04
6.37000000e-01	1.30027326e-02	1.46089430e-04
6.38000000e-01	1.28968786e-02	1.46812860e-04
6.39000000e-01	1.29695083e-02	1.49254978e-04
6.40000000e-01	1.29838915e-02	1.51195346e-04
6.41000000e-01	1.30828292e-02	1.53520755e-04
6.42000000e-01	1.29380019e-02	1.54108228e-04
6.43000000e-01	1.28064025e-02	1.52555294e-04
6.44000000e-01	1.30589533e-02	1.50001814e-04
6.45000000e-01	1.30916822e-02	1.48128878e-04
6.46000000e-01	1.29323883e-02	1.45389497e-04
6.47000000e-01	1.29711376e-02	1.44268340e-04
6.48000000e-01	1.29767046e-02	1.43057101e-04
6.49000000e-01	1.29891543e-02	1.43160907e-04
6.50000000e-01	1.30535207e-02	1.42836296e-04
6.51000000e-01	1.30790307e-02	1.42396751e-04
6.52000000e-01	1.30622733e-02	1.41908814e-04
6.53000000e-01	1.28726248e-02	1.39944497e-04
6.54000000e-01	1.29642117e-02	1.40119906e-04
6.55000000e-01	1.29642744e-02	1.39866758e-04
6.56000000e-01	1.29775592e-02	1.39901815e-04
6.57000000e-01	1.30421673e-02	1.39799490e-04
6.58000000e-01	1.29471312e-02	1.38668601e-04
6.59000000e-01	1.28849894e-02	1.38173840e-04
6.60000000e-01	1.29355170e-02	1.38330067e-04
6.61000000e-01	1.28660804e-02	1.38082397e-04
6.62000000e-01	1.29435593e-02	1.39296521e-04
6.63000000e-01	1.28759291e-02	1.38148377e-04
6.64000000e-01	1.30340077e-02	1.39213098e-04
6.65000000e-01	1.29479916e-02	1.38471129e-04
6.66000000e-01	1.27836704e-02	1.37248986e-04
6.67000000e-01	1.27989933e-02	1.36967203e-04
6.68000000e-01	1.29062552e-02	1.38170061e-04
6.69000000e-01	1.28723537e-02	1.37389673e-04
6.70000000e-01	1.27293146e-02	1.36403806e-04
6.71000000e-01	1.27859491e-02	1.36449148e-04
6.72000000e-01	1.27775024e-02	1.36442843e-04
6.73000000e-01	1.27623503e-02	1.36276229e-04
6.74000000e-01	1.27911692e-02	1.36436164e-04
6.75000000e-01	1.28184035e-02	1.36890198e-04
6.76000000e-01	1.28095415e-02	1.36870368e-04
6.77000000e-01	1.27985725e-02	1.36416119e-04
6.78000000e-01	1.27190760e-02	1.35476379e-04
6.79000000e-01	1.26896709e-02	1.35282465e-04
6.80000000e-01	1.27226173e-02	1.35570810e-04
6.81000000e-01	1.26717100e-02	1.34775441e-04
6.82000000e-01	1.27268842e-02	1.35396265e-04
6.83000000e-01	1.26276028e-02	1.34880481e-04
6.84000000e-01	1.27043435e-02	1.35098284e-04
6.85000000e-01	1.26515083e-02	1.34574020e-04
6.86000000e-01	1.28830994e-02	1.36649698e-04
6.87000000e-01	1.27650533e-02	1.35373698e-04
6.88000000e-01	1.26443943e-02	1.35357311e-04
6.89000000e-01	1.28120581e-02	1.35821286e-04
6.90000000e-01	1.26324862e-02	1.34271948e-04
6.91000000e-01	1.26379889e-02	1.34100415e-04
6.92000000e-01	1.27626200e-02	1.35538695e-04
6.93000000e-01	1.25128060e-02	1.33364286e-04
6.94000000e-01	1.27578051e-02	1.34698824e-04
6.95000000e-01	1.27921112e-02	1.35990260e-04
6.96000000e-01	1.26006438e-02	1.33781867e-04
6.97000000e-01	1.26009068e-02	1.34108289e-04
6.98000000e-01	1.26426121e-02	1.34715288e-04
6.99000000e-01	1.26285631e-02	1.34032402e-04
7.00000000e-01	1.26915552e-02	1.34946619e-04
7.01000000e-01	1.25663333e-02	1.33451021e-04
7.02000000e-01	1.25929518e-02	1.33640217e-04
7.03000000e-01	1.25013027e-02	1.33173668e-04
7.04000000e-01	1.25871423e-02	1.33614490e-04
7.05000000e-01	1.25187510e-02	1.33295031e-04
7.06000000e-01	1.26282569e-02	1.33895800e-04
7.07000000e-01	1.27878918e-02	1.34883078e-04
7.08000000e-01	1.24290664e-02	1.31787653e-04
7.09000000e-01	1.24650509e-02	1.32186123e-04
7.10000000e-01	1.24636940e-02	1.31891009e-04
7.11000000e-01	1.25114342e-02	1.32592313e-04
7.12000000e-01	1.24586218e-02	1.32086965e-04
7.13000000e-01	1.23954648e-02	1.31441134e-04
7.14000000e-01	1.23976619e-02	1.32093016e-04
7.15000000e-01	1.23854033e-02	1.31802684e-04
7.16000000e-01	1.24575731e-02	1.31848061e-04
7.17000000e-01	1.23699224e-02	1.31938310e-04
7.18000000e-01	1.24198676e-02	1.31555036e-04
7.19000000e-01	1.23526550e-02	1.31358871e-04
7.20000000e-01	1.24290617e-02	1.31460526e-04
7.21000000e-01	1.22402772e-02	1.30363192e-04
7.22000000e-01	1.23035722e-02	1.30666957e-04
7.23000000e-01	1.22513476e-02	1.30416217e-04
7.24000000e-01	1.22943463e-02	1.30931791e-04
7.25000000e-01	1.21755424e-02	1.29574875e-04
7.26000000e-01	1.23503335e-02	1.31094609e-04
7.27000000e-01	1.22329025e-02	1.29769669e-04
7.28000000e-01	1.22500458e-02	1.30621215e-04
7.29000000e-01	1.22622403e-02	1.30185120e-04
7.30000000e-01	1.22595749e-02	1.30382860e-04
7.31000000e-01	1.21852368e-02	1.29451342e-04
7.32000000e-01	1.21683193e-02	1.29600246e-04
7.33000000e-01	1.21841646e-02	1.29443568e-04
7.34000000e-01	1.22768422e-02	1.30290001e-04
7.35000000e-01	1.21034740e-02	1.27891643e-04
7.36000000e-01	1.22151256e-02	1.29469279e-04
7.37000000e-01	1.23679634e-02	1.30620049e-04
7.38000000e-01	1.21267601e-02	1.28155353e-04
7.39000000e-01	1.21238241e-02	1.28141347e-04
7.40000000e-01	1.21429544e-02	1.27768845e-04
7.41000000e-01	1.20428443e-02	1.27044704e-04
7.42000000e-01	1.21038779e-02	1.27727130e-04
7.43000000e-01	1.21732684e-02	1.28277541e-04
7.44000000e-01	1.20498730e-02	1.27130380e-04
7.45000000e-01	1.22400278e-02	1.29060006e-04
7.46000000e-01	1.20812807e-02	1.26864505e-04
7.47000000e-01	1.23311667e-02	1.29080164e-04
7.48000000e-01	1.21084565e-02	1.28021750e-04
7.49000000e-01	1.20879671e-02	1.27419773e-04
7.50000000e-01	1.20664533e-02	1.27122828e-04
7.51000000e-01	1.20946328e-02	1.28063852e-04
7.52000000e-01	1.19094040e-02	1.25371887e-04
7.53000000e-01	1.20909319e-02	1.27610088e-04
7.54000000e-01	1.21312989e-02	1.27716877e-04
7.55000000e-01	1.19221581e-02	1.26126712e-04
7.56000000e-01	1.19480001e-02	1.26256797e-04
7.57000000e-01	1.18672896e-02	1.25307458e-04
7.58000000e-01	1.20118085e-02	1.26987136e-04
7.59000000e-01	1.18950139e-02	1.25022863e-04
7.60000000e-01	1.19094196e-02	1.25591964e-04
7.61000000e-01	1.18922571e-02	1.24909093e-04
7.62000000e-01	1.19945662e-02	1.25663784e-04
7.63000000e-01	1.19474433e-02	1.24954922e-04
7.64000000e-01	1.18632891e-02	1.24406045e-04
7.65000000e-01	1.19643745e-02	1.25007057e-04
7.66000000e-01	1.17435075e-02	1.22686391e-04
7.67000000e-01	1.18365578e-02	1.23680916e-04
7.68000000e-01	1.19109020e-02	1.23974042e-04
7.69000000e-01	1.17717812e-02	1.23556053e-04
7.70000000e-01	1.18829739e-02	1.24581119e-04
7.71000000e-01	1.19118131e-02	1.24693007e-04
7.72000000e-01	1.17669136e-02	1.27186877e-04
7.73000000e-01	1.18832032e-02	1.32095618e-04
7.74000000e-01	1.18746499e-02	1.34774950e-04
7.75000000e-01	1.18161932e-02	1.35947245e-04
7.76000000e-01	1.17329677e-02	1.38059487e-04
7.77000000e-01	1.17348380e-02	1.39474691e-04
7.78000000e-01	1.17151473e-02	1.41912891e-04
7.79000000e-01	1.16959177e-02	1.42990105e-04
7.80000000e-01	1.17354824e-02	1.44935452e-04
7.81000000e-01	1.17055947e-02	1.45825799e-04
7.82000000e-01	1.16490803e-02	1.46575548e-04
7.83000000e-01	1.16062775e-02	1.48708986e-04
7.84000000e-01	1.15141397e-02	1.49333920e-04
7.85000000e-01	1.16451758e-02	1.52337758e-04
7.86000000e-01	1.14641730e-02	1.51377511e-04
7.87000000e-01	1.16458121e-02	1.55353026e-04
7.88000000e-01	1.17112930e-02	1.56858531e-04
7.89000000e-01	1.15390568e-02	1.56596928e-04
7.90000000e-01	1.16644663e-02	1.60154471e-04
7.91000000e-01	1.14903431e-02	1.59368628e-04
7.92000000e-01	1.16005700e-02	1.61895889e-04
7.93000000e-01	1.14682402e-02	1.61600328e-04
7.94000000e-01	1.16652754e-02	1.66578055e-04
7.95000000e-01	1.15530193e-02	1.67396571e-04
7.96000000e-01	1.13999477e-02	1.67276236e-04
7.97000000e-01	1.15967559e-02	1.71220156e-04
7.98000000e-01	1.15521823e-02	1.71562004e-04
7.99000000e-01	1.15352935e-02	1.73537798e-04
8.00000000e-01	1.14585566e-02	1.74793464e-04
8.01000000e-01	1.14328782e-02	1.76445286e-04
8.02000000e-01	1.15765552e-02	1.79751103e-04
8.03000000e-01	1.15608138e-02	1.81417783e-04
8.04000000e-01	1.15105049e-02	1.81932058e-04
8.05000000e-01	1.13700938e-02	1.82608112e-04
8.06000000e-01	1.12428990e-02	1.82585151e-04
8.07000000e-01	1.13656757e-02	1.85857554e-04
8.08000000e-01	1.14267518e-02	1.89131560e-04
8.09000000e-01	1.13238919e-02	1.89340439e-04
8.10000000e-01	1.13942531e-02	1.93743217e-04
8.11000000e-01	1.12027516e-02	1.92785153e-04
8.12000000e-01	1.14148704e-02	1.98193806e-04
8.13000000e-01	1.14404025e-02	1.99100999e-04
8.14000000e-01	1.13283197e-02	1.99966735e-04
8.15000000e-01	1.11178968e-02	2.00848313e-04
8.16000000e-01	1.13548181e-02	2.05263221e-04
8.17000000e-01	1.12157086e-02	2.07024878e-04
8.18000000e-01	1.12494668e-02	2.08323059e-04
8.19000000e-01	1.12193755e-02	2.10976807e-04
8.20000000e-01	1.10667957e-02	2.10959114e-04
8.21000000e-01	1.12171557e-02	2.17044522e-04
8.22000000e-01	1.12414870e-02	2.20347419e-04
8.23000000e-01	1.09213213e-02	2.16237758e-04
8.24000000e-01	1.11754759e-02	2.24666553e-04
8.25000000e-01	1.13176967e-02	2.30101989e-04
8.26000000e-01	1.13161971e-02	2.34128684e-04
8.27000000e-01	1.09464263e-02	2.30451586e-04
8.28000000e-01	1.11730188e-02	2.37734240e-04
8.29000000e-01	1.10401350e-02	2.40521388e-04
8.30000000e-01	1.08314877e-02	2.37238930e-04
8.31000000e-01	1.08605979e-02	2.44009788e-04
8.32000000e-01	1.13135189e-02	2.57586481e-04
8.33000000e-01	1.08588606e-02	2.51263446e-04
8.34000000e-01	1.07446737e-02	2.53683389e-04
8.35000000e-01	1.07553399e-02	2.60798655e-04
8.36000000e-01	1.07914983e-02	2.62481134e-04
8.37000000e-01	1.10349347e-02	2.72791032e-04
8.38000000e-01	1.10325418e-02	2.80625509e-04
8.39000000e-01	1.06556424e-02	2.78650905e-04
8.40000000e-01	1.07760376e-02	2.86551241e-04
8.41000000e-01	1.07511504e-02	2.90599120e-04
8.42000000e-01	1.07993674e-02	2.98131613e-04
8.43000000e-01	1.06042387e-02	3.00888692e-04
8.44000000e-01	1.09513945e-02	3.17425851e-04
8.45000000e-01	1.05627299e-02	3.13767579e-04
8.46000000e-01	1.08975105e-02	3.33026710e-04
8.47000000e-01	1.10347767e-02	3.44964556e-04
8.48000000e-01	1.09341765e-02	3.56295911e-04
8.49000000e-01	1.08933201e-02	3.63013358e-04
8.50000000e-01	1.08297537e-02	3.78741908e-04
8.51000000e-01	1.04853027e-02	3.79762506e-04
8.52000000e-01	1.08748311e-02	4.05874966e-04
8.53000000e-01	1.07031746e-02	4.16599596e-04
8.54000000e-01	1.07647000e-02	4.40229726e-04
8.55000000e-01	1.04808426e-02	4.46596099e-04
8.56000000e-01	1.07192915e-02	4.60325142e-04
8.57000000e-01	1.03180187e-02	4.61872049e-04
8.58000000e-01	1.01716948e-02	4.73292822e-04
8.59000000e-01	1.05216469e-02	5.04232804e-04
8.60000000e-01	1.07052314e-02	5.19994587e-04
8.61000000e-01	1.07015229e-02	5.41863233e-04
8.62000000e-01	1.04557853e-02	5.53728845e-04
8.63000000e-01	1.03185815e-02	5.66920410e-04
8.64000000e-01	1.05385012e-02	6.00168542e-04
8.65000000e-01	1.07601886e-02	6.36769678e-04
8.66000000e-01	1.02059508e-02	6.53255093e-04
8.67000000e-01	1.07656781e-02	7.16533179e-04
8.68000000e-01	1.09903364e-02	7.76531555e-04
8.69000000e-01	1.04229029e-02	8.15632479e-04
8.70000000e-01	1.00998048e-02	8.38220840e-04
8.71000000e-01	9.65242575e-03	9.38938577e-04
8.72000000e-01	9.78043897e-03	1.09413530e-03
8.73000000e-01	1.00593654e-02	1.25850623e-03
8.74000000e-01	1.00999040e-02	1.60223510e-03
8.75000000e-01	1.08416889e-02	3.48877485e-03
