% Filename : SDL5_00008_00003.h5
% Date & Time : 30-Oct-2025 14:36:52
% X-ray Energy (keV) : 13.30001
% Exposure Time (s) : 0.500
% Beam Center : 1461.24000, 208.98300
% Sample to Detector Distance (SDD) (mm) : 1990.750
% Detector Pixel Size (mm) : 0.075
% Photodiode Value : 135341.000
% I0 of Sample : 0
% I0 of Standard : 1
% 
% q(A^-1)   I(q)    I(q)_SE
0.00000000e+00	8.00942211e-03	4.22133776e-03
2.50000000e-04	0.00000000e+00	0.00000000e+00
5.00000000e-04	0.00000000e+00	0.00000000e+00
7.50000000e-04	0.00000000e+00	0.00000000e+00
1.00000000e-03	0.00000000e+00	0.00000000e+00
1.25000000e-03	0.00000000e+00	0.00000000e+00
1.50000000e-03	0.00000000e+00	0.00000000e+00
1.75000000e-03	0.00000000e+00	0.00000000e+00
2.00000000e-03	0.00000000e+00	0.00000000e+00
2.25000000e-03	0.00000000e+00	0.00000000e+00
2.50000000e-03	0.00000000e+00	0.00000000e+00
2.75000000e-03	0.00000000e+00	0.00000000e+00
3.00000000e-03	0.00000000e+00	0.00000000e+00
3.25000000e-03	4.18835745e+01	2.42810294e+01
3.50000000e-03	2.98392499e+01	7.78831528e+00
3.75000000e-03	2.37650306e+01	5.05258891e+00
4.00000000e-03	2.10497804e+01	4.07458359e+00
4.25000000e-03	1.50927576e+01	2.37623459e+00
4.50000000e-03	2.68097725e+01	6.10415918e+00
4.75000000e-03	3.14355979e+01	6.98833370e+00
5.00000000e-03	2.37464723e+01	5.05138628e+00
5.25000000e-03	1.94699549e+01	4.02657259e+00
5.50000000e-03	1.53629020e+01	3.04817344e+00
5.75000000e-03	1.27410353e+01	2.42545933e+00
6.00000000e-03	1.01520380e+01	1.83502374e+00
6.25000000e-03	8.63551148e+00	1.55263526e+00
6.50000000e-03	7.19159703e+00	1.24997111e+00
6.75000000e-03	6.00465790e+00	1.01315104e+00
7.00000000e-03	5.22108406e+00	8.50465132e-01
7.25000000e-03	4.42667672e+00	6.96887067e-01
7.50000000e-03	3.63794360e+00	5.69141839e-01
7.75000000e-03	3.28769986e+00	5.04131554e-01
8.00000000e-03	2.93831102e+00	4.37678477e-01
8.25000000e-03	2.49277023e+00	3.59997714e-01
8.50000000e-03	2.24842168e+00	3.09443873e-01
8.75000000e-03	1.98189271e+00	2.70803572e-01
9.00000000e-03	1.73741664e+00	2.32271547e-01
9.25000000e-03	1.54446974e+00	2.01148020e-01
9.50000000e-03	1.37056742e+00	1.74927478e-01
9.75000000e-03	1.24213813e+00	1.55400230e-01
1.00000000e-02	1.05926612e+00	1.27615727e-01
1.02500000e-02	1.02844735e+00	1.29060119e-01
1.05000000e-02	9.26987287e-01	1.10564130e-01
1.07500000e-02	8.29996888e-01	9.68979501e-02
1.10000000e-02	7.57834657e-01	8.52332648e-02
1.12500000e-02	6.72434237e-01	7.66829730e-02
1.15000000e-02	6.45472832e-01	7.16272913e-02
1.17500000e-02	5.68675633e-01	6.19657010e-02
1.20000000e-02	5.34943998e-01	5.82155599e-02
1.22500000e-02	4.98792509e-01	5.23301645e-02
1.25000000e-02	4.64124495e-01	4.79607642e-02
1.27500000e-02	4.27697790e-01	4.32819025e-02
1.30000000e-02	3.96636678e-01	3.87672347e-02
1.32500000e-02	3.67583494e-01	3.58866754e-02
1.35000000e-02	3.45041139e-01	3.28362209e-02
1.37500000e-02	3.23845221e-01	3.09649688e-02
1.40000000e-02	2.94678692e-01	2.69475113e-02
1.42500000e-02	2.78437585e-01	2.48470646e-02
1.45000000e-02	2.60038869e-01	2.31322317e-02
1.47500000e-02	2.49907673e-01	2.22019926e-02
1.50000000e-02	2.33711562e-01	1.98634419e-02
1.52500000e-02	2.18136586e-01	1.82840112e-02
1.55000000e-02	2.06755837e-01	1.71473403e-02
1.57500000e-02	1.92987439e-01	1.61406795e-02
1.60000000e-02	1.81521828e-01	1.47262953e-02
1.62500000e-02	1.77849729e-01	1.43647316e-02
1.65000000e-02	1.65375123e-01	1.30690248e-02
1.67500000e-02	1.58623868e-01	1.19539701e-02
1.70000000e-02	1.50862143e-01	1.15369379e-02
1.72500000e-02	1.43269850e-01	1.07085751e-02
1.75000000e-02	1.41205200e-01	1.05122532e-02
1.77500000e-02	1.31800961e-01	9.51499844e-03
1.80000000e-02	1.27944101e-01	9.25473669e-03
1.82500000e-02	1.19543348e-01	8.40220220e-03
1.85000000e-02	1.15278164e-01	8.15834181e-03
1.87500000e-02	1.10658842e-01	7.62157492e-03
1.90000000e-02	1.10646719e-01	7.55708923e-03
1.92500000e-02	1.02659605e-01	6.86713380e-03
1.95000000e-02	9.65004213e-02	6.24641372e-03
1.97500000e-02	9.52097548e-02	6.32116089e-03
2.00000000e-02	9.13645463e-02	5.79537396e-03
2.02500000e-02	8.59678368e-02	5.62708761e-03
2.05000000e-02	8.46767717e-02	5.28602788e-03
2.07500000e-02	8.26434504e-02	5.13451682e-03
2.10000000e-02	8.02363534e-02	4.98527052e-03
2.12500000e-02	7.94130010e-02	4.94819626e-03
2.15000000e-02	7.75312677e-02	4.76412037e-03
2.17500000e-02	7.70981569e-02	4.64452443e-03
2.20000000e-02	7.44518983e-02	4.49891117e-03
2.22500000e-02	7.23499679e-02	4.31870767e-03
2.25000000e-02	7.03282511e-02	4.32281619e-03
2.27500000e-02	6.92823652e-02	4.15401397e-03
2.30000000e-02	6.68739166e-02	3.96257883e-03
2.32500000e-02	6.62559132e-02	3.89346194e-03
2.35000000e-02	6.47088306e-02	3.86051854e-03
2.37500000e-02	6.17757996e-02	3.65320139e-03
2.40000000e-02	6.12559701e-02	3.54125104e-03
2.42500000e-02	6.00448827e-02	3.49638155e-03
2.45000000e-02	6.04093422e-02	3.52519923e-03
2.47500000e-02	5.79003258e-02	3.22778195e-03
2.50000000e-02	5.76580964e-02	3.19234480e-03
2.52500000e-02	5.70802324e-02	3.18845618e-03
2.55000000e-02	5.57946054e-02	3.09383314e-03
2.57500000e-02	5.40171656e-02	3.01573784e-03
2.60000000e-02	5.38970228e-02	2.92310507e-03
2.62500000e-02	5.25365609e-02	2.87679909e-03
2.65000000e-02	5.02405796e-02	2.75873103e-03
2.67500000e-02	5.09050649e-02	2.72965683e-03
2.70000000e-02	4.87673652e-02	2.63571887e-03
2.72500000e-02	4.82624179e-02	2.55291409e-03
2.75000000e-02	4.75008483e-02	2.54289544e-03
2.77500000e-02	4.74865975e-02	2.56034961e-03
2.80000000e-02	4.73476255e-02	2.44383708e-03
2.82500000e-02	4.56331335e-02	2.35907576e-03
2.85000000e-02	4.59851708e-02	2.38110831e-03
2.87500000e-02	4.49497245e-02	2.32796636e-03
2.90000000e-02	4.39629456e-02	2.27550333e-03
2.92500000e-02	4.38279748e-02	2.15958953e-03
2.95000000e-02	4.38781180e-02	2.23729611e-03
2.97500000e-02	4.28006786e-02	2.15221739e-03
3.00000000e-02	4.30713193e-02	2.17745610e-03
3.02500000e-02	4.16373031e-02	2.07971232e-03
3.05000000e-02	4.20770395e-02	2.07243518e-03
3.07500000e-02	4.10335456e-02	2.04125714e-03
3.10000000e-02	4.09211929e-02	2.02981545e-03
3.12500000e-02	4.08881832e-02	2.02734031e-03
3.15000000e-02	4.04144684e-02	1.96894047e-03
3.17500000e-02	3.95977931e-02	1.88384935e-03
3.20000000e-02	4.00656983e-02	1.96148956e-03
3.22500000e-02	3.76982754e-02	1.83213065e-03
3.25000000e-02	3.87572025e-02	1.87762734e-03
3.27500000e-02	3.65241718e-02	1.74250195e-03
3.30000000e-02	3.62687901e-02	1.72387531e-03
3.32500000e-02	3.60076056e-02	1.68922165e-03
3.35000000e-02	3.67291235e-02	1.73265032e-03
3.37500000e-02	3.61974446e-02	1.71658978e-03
3.40000000e-02	3.55180065e-02	1.67063839e-03
3.42500000e-02	3.46619351e-02	1.61425129e-03
3.45000000e-02	3.44600368e-02	1.63333887e-03
3.47500000e-02	3.41811995e-02	1.60363010e-03
3.50000000e-02	3.37854844e-02	1.57604713e-03
3.52500000e-02	3.46381733e-02	1.61493344e-03
3.55000000e-02	3.38042830e-02	1.55552800e-03
3.57500000e-02	3.35083389e-02	1.53827447e-03
3.60000000e-02	3.31049610e-02	1.52662034e-03
3.62500000e-02	3.28834040e-02	1.51344888e-03
3.65000000e-02	3.28961185e-02	1.49978368e-03
3.67500000e-02	3.31420534e-02	1.52000123e-03
3.70000000e-02	3.27950178e-02	1.47840595e-03
3.72500000e-02	3.18208394e-02	1.44306146e-03
3.75000000e-02	3.13297013e-02	1.44008618e-03
3.77500000e-02	3.15638442e-02	1.42218593e-03
3.80000000e-02	3.17455965e-02	1.42863464e-03
3.82500000e-02	3.05121438e-02	1.36721371e-03
3.85000000e-02	3.19328318e-02	1.43888508e-03
3.87500000e-02	3.13095915e-02	1.40125388e-03
3.90000000e-02	3.09277469e-02	1.37720553e-03
3.92500000e-02	3.07516833e-02	1.34114928e-03
3.95000000e-02	3.10564650e-02	1.36462695e-03
3.97500000e-02	3.01605845e-02	1.32128872e-03
4.00000000e-02	2.93120650e-02	1.29462912e-03
4.02500000e-02	2.95410646e-02	1.28929220e-03
4.05000000e-02	2.98948818e-02	1.28511623e-03
4.07500000e-02	2.95321563e-02	1.27183965e-03
4.10000000e-02	2.84611632e-02	1.25287049e-03
4.12500000e-02	2.89575044e-02	1.25287913e-03
4.15000000e-02	2.94930258e-02	1.25954646e-03
4.17500000e-02	2.78827377e-02	1.20448140e-03
4.20000000e-02	2.87872007e-02	1.22920907e-03
4.22500000e-02	2.89061863e-02	1.22867034e-03
4.25000000e-02	2.74668779e-02	1.17335063e-03
4.27500000e-02	2.84042316e-02	1.20335928e-03
4.30000000e-02	2.75623203e-02	1.17566767e-03
4.32500000e-02	2.90148527e-02	1.21803246e-03
4.35000000e-02	2.80804421e-02	1.19615380e-03
4.37500000e-02	2.83102602e-02	1.17781541e-03
4.40000000e-02	2.73828263e-02	1.15485246e-03
4.42500000e-02	2.81052621e-02	1.18996741e-03
4.45000000e-02	2.74977791e-02	1.14340362e-03
4.47500000e-02	2.70170891e-02	1.11924466e-03
4.50000000e-02	2.77731594e-02	1.15735750e-03
4.52500000e-02	2.74342907e-02	1.14743434e-03
4.55000000e-02	2.79572564e-02	1.16225697e-03
4.57500000e-02	2.66938224e-02	1.10221555e-03
4.60000000e-02	2.64365088e-02	1.08675333e-03
4.62500000e-02	2.65590571e-02	1.10477748e-03
4.65000000e-02	2.62161795e-02	1.07352067e-03
4.67500000e-02	2.68276634e-02	1.09492391e-03
4.70000000e-02	2.65603369e-02	1.08738480e-03
4.72500000e-02	2.72434314e-02	1.11207721e-03
4.75000000e-02	2.64167513e-02	1.07920059e-03
4.77500000e-02	2.59750718e-02	1.05039283e-03
4.80000000e-02	2.58916092e-02	1.04236024e-03
4.82500000e-02	2.57880162e-02	1.03988557e-03
4.85000000e-02	2.54930762e-02	1.04002844e-03
4.87500000e-02	2.58365830e-02	1.04419921e-03
4.90000000e-02	2.58469616e-02	1.03146369e-03
4.92500000e-02	2.53842142e-02	1.01890560e-03
4.95000000e-02	2.58808351e-02	1.03833078e-03
4.97500000e-02	2.59001020e-02	1.04159511e-03
5.00000000e-02	2.58880655e-02	1.03399210e-03
5.02500000e-02	2.53983520e-02	1.00263322e-03
5.05000000e-02	2.55502671e-02	1.01163284e-03
5.07500000e-02	2.51374119e-02	1.00225760e-03
5.10000000e-02	2.53300487e-02	1.01447100e-03
5.12500000e-02	2.50593492e-02	9.95990080e-04
5.15000000e-02	2.49740291e-02	9.81645985e-04
5.17500000e-02	2.60176819e-02	1.03070844e-03
5.20000000e-02	2.45742792e-02	9.66064775e-04
5.22500000e-02	2.51908544e-02	9.95281200e-04
5.25000000e-02	2.47504813e-02	9.60415206e-04
5.27500000e-02	2.50412136e-02	9.77305487e-04
5.30000000e-02	2.44587563e-02	9.63820262e-04
5.32500000e-02	2.46603469e-02	9.60445642e-04
5.35000000e-02	2.42076380e-02	9.44493802e-04
5.37500000e-02	2.38787974e-02	9.30196210e-04
5.40000000e-02	2.39588291e-02	9.34278549e-04
5.42500000e-02	2.42307102e-02	9.42008833e-04
5.45000000e-02	2.39942479e-02	9.17041508e-04
5.47500000e-02	2.33968109e-02	9.02101323e-04
5.50000000e-02	2.40003040e-02	9.31837990e-04
5.52500000e-02	2.36987168e-02	9.16072043e-04
5.55000000e-02	2.37956266e-02	9.16841102e-04
5.57500000e-02	2.37160302e-02	9.15140707e-04
5.60000000e-02	2.39132233e-02	9.11767669e-04
5.62500000e-02	2.37726231e-02	9.19792506e-04
5.65000000e-02	2.29369180e-02	8.76950773e-04
5.67500000e-02	2.42282905e-02	9.22627790e-04
5.70000000e-02	2.35796382e-02	8.95658883e-04
5.72500000e-02	2.31154512e-02	8.76299259e-04
5.75000000e-02	2.39063419e-02	9.04656430e-04
5.77500000e-02	2.36655486e-02	8.94288857e-04
5.80000000e-02	2.32174782e-02	8.74615934e-04
5.82500000e-02	2.30650347e-02	8.70723719e-04
5.85000000e-02	2.33835963e-02	8.82431351e-04
5.87500000e-02	2.37413010e-02	8.88453896e-04
5.90000000e-02	2.38756597e-02	8.92018127e-04
5.92500000e-02	2.28855575e-02	8.55089645e-04
5.95000000e-02	2.32623585e-02	8.73941545e-04
5.97500000e-02	2.33960387e-02	8.75516228e-04
6.00000000e-02	2.29475749e-02	8.56420986e-04
6.02500000e-02	2.30135885e-02	8.63965956e-04
6.05000000e-02	2.31945849e-02	8.63907871e-04
6.07500000e-02	2.32605002e-02	8.65514187e-04
6.10000000e-02	2.29367855e-02	8.50903279e-04
6.12500000e-02	2.22043254e-02	8.25393947e-04
6.15000000e-02	2.30780020e-02	8.47832897e-04
6.17500000e-02	2.29092264e-02	8.37618427e-04
6.20000000e-02	2.23925852e-02	8.28662185e-04
6.22500000e-02	2.23705210e-02	8.27568429e-04
6.25000000e-02	2.26495355e-02	8.27278720e-04
6.27500000e-02	2.25833408e-02	8.21127693e-04
6.30000000e-02	2.27452645e-02	8.27013380e-04
6.32500000e-02	2.21091343e-02	8.10584871e-04
6.35000000e-02	2.25852917e-02	8.21366995e-04
6.37500000e-02	2.29294859e-02	8.32663496e-04
6.40000000e-02	2.25704404e-02	8.18256651e-04
6.42500000e-02	2.25666736e-02	8.10670570e-04
6.45000000e-02	2.24848526e-02	8.11901157e-04
6.47500000e-02	2.23580762e-02	8.07142385e-04
6.50000000e-02	2.33962343e-02	8.32073934e-04
6.52500000e-02	2.20368991e-02	7.89645374e-04
6.55000000e-02	2.21450532e-02	7.99285843e-04
6.57500000e-02	2.26656882e-02	8.05131075e-04
6.60000000e-02	2.22053589e-02	7.97882489e-04
6.62500000e-02	2.20357386e-02	7.89199371e-04
6.65000000e-02	2.26516770e-02	8.02056540e-04
6.67500000e-02	2.23090094e-02	7.86495465e-04
6.70000000e-02	2.17891779e-02	7.82085131e-04
6.72500000e-02	2.25703909e-02	7.99322102e-04
6.75000000e-02	2.20464883e-02	7.82208744e-04
6.77500000e-02	2.18287314e-02	7.70055337e-04
6.80000000e-02	2.28306332e-02	8.05692755e-04
6.82500000e-02	2.19668456e-02	7.80039934e-04
6.85000000e-02	2.17703870e-02	7.70256669e-04
6.87500000e-02	2.25426644e-02	7.98259252e-04
6.90000000e-02	2.18623434e-02	7.71270971e-04
6.92500000e-02	2.24432830e-02	7.83090325e-04
6.95000000e-02	2.15796810e-02	7.64790332e-04
6.97500000e-02	2.25033008e-02	7.87743254e-04
7.00000000e-02	2.13158349e-02	7.47522145e-04
7.02500000e-02	2.17498923e-02	7.55865359e-04
7.05000000e-02	2.15181874e-02	7.50826188e-04
7.07500000e-02	2.17189155e-02	7.66156699e-04
7.10000000e-02	2.18284246e-02	7.56734159e-04
7.12500000e-02	2.18848633e-02	7.57920246e-04
7.15000000e-02	2.11409237e-02	7.37509413e-04
7.17500000e-02	2.10870367e-02	7.30326540e-04
7.20000000e-02	2.15005737e-02	7.49366338e-04
7.22500000e-02	2.12404415e-02	7.34269498e-04
7.25000000e-02	2.15455406e-02	7.40308785e-04
7.27500000e-02	2.11398482e-02	7.30104076e-04
7.30000000e-02	2.16340801e-02	7.41726824e-04
7.32500000e-02	2.11050090e-02	7.25756567e-04
7.35000000e-02	2.11668377e-02	7.31168684e-04
7.37500000e-02	2.20042372e-02	7.45155962e-04
7.40000000e-02	2.10855486e-02	7.23058756e-04
7.42500000e-02	2.16089299e-02	7.39695300e-04
7.45000000e-02	2.14672556e-02	7.29225491e-04
7.47500000e-02	2.14631304e-02	7.28052114e-04
7.50000000e-02	2.10627943e-02	7.16534367e-04
7.52500000e-02	2.13807133e-02	7.26822044e-04
7.55000000e-02	2.15999666e-02	7.33121784e-04
7.57500000e-02	2.10134989e-02	7.12377208e-04
7.60000000e-02	2.13575999e-02	7.18055335e-04
7.62500000e-02	2.08890117e-02	7.09208229e-04
7.65000000e-02	2.17645324e-02	7.35578365e-04
7.67500000e-02	2.06423630e-02	6.96325000e-04
7.70000000e-02	2.15446790e-02	7.21234519e-04
7.72500000e-02	2.11738099e-02	7.23763043e-04
7.75000000e-02	2.10756968e-02	7.30883008e-04
7.77500000e-02	2.06711207e-02	7.14482504e-04
7.80000000e-02	2.10497402e-02	7.36578239e-04
7.82500000e-02	2.15768201e-02	7.55126118e-04
7.85000000e-02	2.15516205e-02	7.60469931e-04
7.87500000e-02	2.14206199e-02	7.52084747e-04
7.90000000e-02	2.10264600e-02	7.49619690e-04
7.92500000e-02	2.11585763e-02	7.53233844e-04
7.95000000e-02	2.13140775e-02	7.59875555e-04
7.97500000e-02	2.15611721e-02	7.76109585e-04
8.00000000e-02	2.09443234e-02	7.57062568e-04
8.02500000e-02	2.07092505e-02	7.48774868e-04
8.05000000e-02	2.09715609e-02	7.55787120e-04
8.07500000e-02	2.12863451e-02	7.71206027e-04
8.10000000e-02	2.11807104e-02	7.64075991e-04
8.12500000e-02	2.09147817e-02	7.55090149e-04
8.15000000e-02	2.09954464e-02	7.57170018e-04
8.17500000e-02	2.17210642e-02	7.90044828e-04
8.20000000e-02	2.14715196e-02	7.73694142e-04
8.22500000e-02	2.10155019e-02	7.64433535e-04
8.25000000e-02	2.12545725e-02	7.73683024e-04
8.27500000e-02	2.11637314e-02	7.70034489e-04
8.30000000e-02	2.16209809e-02	7.84465473e-04
8.32500000e-02	2.01382831e-02	7.40118248e-04
8.35000000e-02	2.07025158e-02	7.66103520e-04
8.37500000e-02	2.13081235e-02	7.74432633e-04
8.40000000e-02	2.02448590e-02	7.41795989e-04
8.42500000e-02	2.04599142e-02	7.57452537e-04
8.45000000e-02	2.13905862e-02	7.89483990e-04
8.47500000e-02	2.12784022e-02	7.81870684e-04
8.50000000e-02	2.05295381e-02	7.59143613e-04
8.52500000e-02	2.12010701e-02	7.85410304e-04
8.55000000e-02	2.11225701e-02	7.75383501e-04
8.57500000e-02	2.04953664e-02	7.60950054e-04
8.60000000e-02	2.08854736e-02	7.74151447e-04
8.62500000e-02	2.08906971e-02	7.76353771e-04
8.65000000e-02	2.04687593e-02	7.61135908e-04
8.67500000e-02	2.06475651e-02	7.65654021e-04
8.70000000e-02	2.12312094e-02	7.77237073e-04
8.72500000e-02	2.08707432e-02	7.44813022e-04
8.75000000e-02	2.08594851e-02	7.37383335e-04
8.77500000e-02	2.03080203e-02	7.21294849e-04
8.80000000e-02	2.06526059e-02	7.29923937e-04
8.82500000e-02	2.09761698e-02	7.29616376e-04
8.85000000e-02	2.00276048e-02	7.04516932e-04
8.87500000e-02	2.07104356e-02	7.12780718e-04
8.90000000e-02	2.09384065e-02	7.24238283e-04
8.92500000e-02	2.07591626e-02	7.16805104e-04
8.95000000e-02	2.14453790e-02	7.33254861e-04
8.97500000e-02	2.09787527e-02	7.12573555e-04
9.00000000e-02	2.08093239e-02	7.02175933e-04
9.02500000e-02	2.02991410e-02	6.94002425e-04
9.05000000e-02	1.98140454e-02	6.81847689e-04
9.07500000e-02	2.11855581e-02	7.11909865e-04
9.10000000e-02	2.05463793e-02	6.88112678e-04
9.12500000e-02	2.11002378e-02	7.04773291e-04
9.15000000e-02	2.05289798e-02	6.90377514e-04
9.17500000e-02	2.04523952e-02	6.85474026e-04
9.20000000e-02	2.04435339e-02	6.81719295e-04
9.22500000e-02	2.05292386e-02	6.84288559e-04
9.25000000e-02	1.98633166e-02	6.58828087e-04
9.27500000e-02	2.03337798e-02	6.73866805e-04
9.30000000e-02	2.05915490e-02	6.83981160e-04
9.32500000e-02	2.05815862e-02	6.84613838e-04
9.35000000e-02	2.03514470e-02	6.75889029e-04
9.37500000e-02	2.00492178e-02	6.60163238e-04
9.40000000e-02	2.04451092e-02	6.76188346e-04
9.42500000e-02	2.07355603e-02	6.77156708e-04
9.45000000e-02	2.03362976e-02	6.68062256e-04
9.47500000e-02	2.04422121e-02	6.68050878e-04
9.50000000e-02	2.03882002e-02	6.61352526e-04
9.52500000e-02	1.97727306e-02	6.48689423e-04
9.55000000e-02	2.04313166e-02	6.68633037e-04
9.57500000e-02	2.06186467e-02	6.67854012e-04
9.60000000e-02	1.98417343e-02	6.45825967e-04
9.62500000e-02	2.05949569e-02	6.63465363e-04
9.65000000e-02	2.01546152e-02	6.56321615e-04
9.67500000e-02	2.08379457e-02	6.67021307e-04
9.70000000e-02	2.06401843e-02	6.65603719e-04
9.72500000e-02	2.02646118e-02	6.53389637e-04
9.75000000e-02	1.96627288e-02	6.32832088e-04
9.77500000e-02	2.01186255e-02	6.43752877e-04
9.80000000e-02	2.03032652e-02	6.50453457e-04
9.82500000e-02	1.97506986e-02	6.36325951e-04
9.85000000e-02	2.04468151e-02	6.49365797e-04
9.87500000e-02	1.99274525e-02	6.33977777e-04
9.90000000e-02	2.03231471e-02	6.48374472e-04
9.92500000e-02	2.01404103e-02	6.40253041e-04
9.95000000e-02	1.96766794e-02	6.25736655e-04
9.97500000e-02	2.05515296e-02	6.50988710e-04
1.00000000e-01	2.04061628e-02	5.23625360e-04
1.00500000e-01	2.05747761e-02	4.58201300e-04
1.01000000e-01	1.98944177e-02	4.45908699e-04
1.01500000e-01	1.99729661e-02	4.43782309e-04
1.02000000e-01	2.00875797e-02	4.45865500e-04
1.02500000e-01	2.01684537e-02	4.43569273e-04
1.03000000e-01	1.99826567e-02	4.41977411e-04
1.03500000e-01	2.01743666e-02	4.42325241e-04
1.04000000e-01	2.01129513e-02	4.41293786e-04
1.04500000e-01	2.01196708e-02	4.39635716e-04
1.05000000e-01	2.02546821e-02	4.40218868e-04
1.05500000e-01	2.03096109e-02	4.39694142e-04
1.06000000e-01	2.03958657e-02	4.40306837e-04
1.06500000e-01	2.02984177e-02	4.34705707e-04
1.07000000e-01	2.06032488e-02	4.48760414e-04
1.07500000e-01	1.99567831e-02	4.45686142e-04
1.08000000e-01	2.00521711e-02	4.51154357e-04
1.08500000e-01	2.01072432e-02	4.54340651e-04
1.09000000e-01	2.02315845e-02	4.59278606e-04
1.09500000e-01	1.97179800e-02	4.51000285e-04
1.10000000e-01	2.05722160e-02	4.65701464e-04
1.10500000e-01	1.99933645e-02	4.42536382e-04
1.11000000e-01	2.03299942e-02	4.41761482e-04
1.11500000e-01	2.01541138e-02	4.35625219e-04
1.12000000e-01	2.01675135e-02	4.30724646e-04
1.12500000e-01	2.01336144e-02	4.28296983e-04
1.13000000e-01	2.00698351e-02	4.25992034e-04
1.13500000e-01	2.00904305e-02	4.24787690e-04
1.14000000e-01	2.02136482e-02	4.25616784e-04
1.14500000e-01	1.99590550e-02	4.20227181e-04
1.15000000e-01	1.98399241e-02	4.16134711e-04
1.15500000e-01	1.99707219e-02	4.17511528e-04
1.16000000e-01	1.98674511e-02	4.15247180e-04
1.16500000e-01	1.98715043e-02	4.14140290e-04
1.17000000e-01	2.03047488e-02	4.21973768e-04
1.17500000e-01	1.99552569e-02	4.13614593e-04
1.18000000e-01	2.01544790e-02	4.18041487e-04
1.18500000e-01	2.02445847e-02	4.15244639e-04
1.19000000e-01	1.95969374e-02	4.04254140e-04
1.19500000e-01	1.99681711e-02	4.09952178e-04
1.20000000e-01	2.01647915e-02	4.09255554e-04
1.20500000e-01	1.99863294e-02	4.07414850e-04
1.21000000e-01	2.01967068e-02	4.10708793e-04
1.21500000e-01	1.99931908e-02	4.04319548e-04
1.22000000e-01	2.00530938e-02	4.06121968e-04
1.22500000e-01	1.96580370e-02	3.99188736e-04
1.23000000e-01	1.98696875e-02	4.02138442e-04
1.23500000e-01	2.00853002e-02	4.02866657e-04
1.24000000e-01	1.98781485e-02	3.99892853e-04
1.24500000e-01	1.95508999e-02	3.92201851e-04
1.25000000e-01	2.01935680e-02	4.03285445e-04
1.25500000e-01	1.98568584e-02	3.97523174e-04
1.26000000e-01	1.98449494e-02	3.95627526e-04
1.26500000e-01	1.99272484e-02	3.95358359e-04
1.27000000e-01	1.99675478e-02	3.96628617e-04
1.27500000e-01	1.96484295e-02	3.88472382e-04
1.28000000e-01	2.01094749e-02	3.96771298e-04
1.28500000e-01	2.00982094e-02	3.94435894e-04
1.29000000e-01	1.99934402e-02	3.92332150e-04
1.29500000e-01	1.97615261e-02	3.89017049e-04
1.30000000e-01	1.99857361e-02	3.93070088e-04
1.30500000e-01	1.95525702e-02	3.82821627e-04
1.31000000e-01	1.98931074e-02	3.90096874e-04
1.31500000e-01	2.02816585e-02	3.94724964e-04
1.32000000e-01	2.00382346e-02	3.90085191e-04
1.32500000e-01	2.01335748e-02	3.89536635e-04
1.33000000e-01	2.00724459e-02	3.87083760e-04
1.33500000e-01	1.98904714e-02	3.79867430e-04
1.34000000e-01	2.01937106e-02	3.89003099e-04
1.34500000e-01	1.98549231e-02	3.79506605e-04
1.35000000e-01	2.00508836e-02	3.83250422e-04
1.35500000e-01	1.94909278e-02	3.70235122e-04
1.36000000e-01	1.95858561e-02	3.73241948e-04
1.36500000e-01	1.99533190e-02	3.81319798e-04
1.37000000e-01	2.00331967e-02	3.79835310e-04
1.37500000e-01	1.97784242e-02	3.74161170e-04
1.38000000e-01	1.99097400e-02	3.77010032e-04
1.38500000e-01	2.02196390e-02	3.81613914e-04
1.39000000e-01	1.96724021e-02	3.73444351e-04
1.39500000e-01	1.98496118e-02	3.73903079e-04
1.40000000e-01	1.93100242e-02	3.65227222e-04
1.40500000e-01	1.97256822e-02	3.72107205e-04
1.41000000e-01	1.97513519e-02	3.71571913e-04
1.41500000e-01	1.98231849e-02	3.73000360e-04
1.42000000e-01	1.95402550e-02	3.67181546e-04
1.42500000e-01	1.96052178e-02	3.66970863e-04
1.43000000e-01	1.92541333e-02	3.60606014e-04
1.43500000e-01	1.96149929e-02	3.67113293e-04
1.44000000e-01	1.98402324e-02	3.70269988e-04
1.44500000e-01	1.98217583e-02	3.66061667e-04
1.45000000e-01	1.96705759e-02	3.65230252e-04
1.45500000e-01	1.99838533e-02	3.70733569e-04
1.46000000e-01	1.94620161e-02	3.63241479e-04
1.46500000e-01	1.96465516e-02	3.63376914e-04
1.47000000e-01	1.96128519e-02	3.61651560e-04
1.47500000e-01	1.93128177e-02	3.55030473e-04
1.48000000e-01	1.94256858e-02	3.56745222e-04
1.48500000e-01	1.94254977e-02	3.58207752e-04
1.49000000e-01	1.97066956e-02	3.60956093e-04
1.49500000e-01	1.94161205e-02	3.56388765e-04
1.50000000e-01	1.95339400e-02	3.56481293e-04
1.50500000e-01	1.97781181e-02	3.62021374e-04
1.51000000e-01	1.93729170e-02	3.52916648e-04
1.51500000e-01	1.98415974e-02	3.58560141e-04
1.52000000e-01	1.94359891e-02	3.51477952e-04
1.52500000e-01	1.93838714e-02	3.51075475e-04
1.53000000e-01	1.94529862e-02	3.52089625e-04
1.53500000e-01	1.94024504e-02	3.50029982e-04
1.54000000e-01	1.91880557e-02	3.45429979e-04
1.54500000e-01	1.94174651e-02	3.56373619e-04
1.55000000e-01	1.96083312e-02	3.64146232e-04
1.55500000e-01	1.95471295e-02	3.63554671e-04
1.56000000e-01	1.96801198e-02	3.69804984e-04
1.56500000e-01	1.92683745e-02	3.61424212e-04
1.57000000e-01	1.92446564e-02	3.64076293e-04
1.57500000e-01	1.92987782e-02	3.57801507e-04
1.58000000e-01	1.91751149e-02	3.48602432e-04
1.58500000e-01	1.91516562e-02	3.46029595e-04
1.59000000e-01	1.94484648e-02	3.50771409e-04
1.59500000e-01	1.93062346e-02	3.47573582e-04
1.60000000e-01	1.91117950e-02	3.43823047e-04
1.60500000e-01	1.92947511e-02	3.43598884e-04
1.61000000e-01	1.89349991e-02	3.40623313e-04
1.61500000e-01	1.92194116e-02	3.41819860e-04
1.62000000e-01	1.89257060e-02	3.37992891e-04
1.62500000e-01	1.93763832e-02	3.44287770e-04
1.63000000e-01	1.90625363e-02	3.38005518e-04
1.63500000e-01	1.93752528e-02	3.46624693e-04
1.64000000e-01	1.91262791e-02	3.35831003e-04
1.64500000e-01	1.92081782e-02	3.38539919e-04
1.65000000e-01	1.91836710e-02	3.36533967e-04
1.65500000e-01	1.91942931e-02	3.37627506e-04
1.66000000e-01	1.88898462e-02	3.33051134e-04
1.66500000e-01	1.89650542e-02	3.32646157e-04
1.67000000e-01	1.90021316e-02	3.32997597e-04
1.67500000e-01	1.88710617e-02	3.29809580e-04
1.68000000e-01	1.90127003e-02	3.30686883e-04
1.68500000e-01	1.90191682e-02	3.32439923e-04
1.69000000e-01	1.89110446e-02	3.28609162e-04
1.69500000e-01	1.89861188e-02	3.29334741e-04
1.70000000e-01	1.90776057e-02	3.29181930e-04
1.70500000e-01	1.88567081e-02	3.25415107e-04
1.71000000e-01	1.87851259e-02	3.24214956e-04
1.71500000e-01	1.92434979e-02	3.32550439e-04
1.72000000e-01	1.90198468e-02	3.26290682e-04
1.72500000e-01	1.90090435e-02	3.27692780e-04
1.73000000e-01	1.89767078e-02	3.25251376e-04
1.73500000e-01	1.93117796e-02	3.29836703e-04
1.74000000e-01	1.90040296e-02	3.24901755e-04
1.74500000e-01	1.89514438e-02	3.21558184e-04
1.75000000e-01	1.88304050e-02	3.18053556e-04
1.75500000e-01	1.87759215e-02	3.18526034e-04
1.76000000e-01	1.91217002e-02	3.23716266e-04
1.76500000e-01	1.88853460e-02	3.19444971e-04
1.77000000e-01	1.88582275e-02	3.18157466e-04
1.77500000e-01	1.90884586e-02	3.22748081e-04
1.78000000e-01	1.91154078e-02	3.21014200e-04
1.78500000e-01	1.89517574e-02	3.20282543e-04
1.79000000e-01	1.88444756e-02	3.18069529e-04
1.79500000e-01	1.90557070e-02	3.22255889e-04
1.80000000e-01	1.90084566e-02	3.20675996e-04
1.80500000e-01	1.89518803e-02	3.18642945e-04
1.81000000e-01	1.85436734e-02	3.13401886e-04
1.81500000e-01	1.88238299e-02	3.16585715e-04
1.82000000e-01	1.88829460e-02	3.15731776e-04
1.82500000e-01	1.87487180e-02	3.12398408e-04
1.83000000e-01	1.87122178e-02	3.13302869e-04
1.83500000e-01	1.87660221e-02	3.12786257e-04
1.84000000e-01	1.86938104e-02	3.12974945e-04
1.84500000e-01	1.87390441e-02	3.11613594e-04
1.85000000e-01	1.86238961e-02	3.10992959e-04
1.85500000e-01	1.87978745e-02	3.11889785e-04
1.86000000e-01	1.86149049e-02	3.08055474e-04
1.86500000e-01	1.85782598e-02	3.08758967e-04
1.87000000e-01	1.87857152e-02	3.10488210e-04
1.87500000e-01	1.85704925e-02	3.06348740e-04
1.88000000e-01	1.85967821e-02	3.08114544e-04
1.88500000e-01	1.86474968e-02	3.08351895e-04
1.89000000e-01	1.85677134e-02	3.04992848e-04
1.89500000e-01	1.84604422e-02	3.02726999e-04
1.90000000e-01	1.85280478e-02	3.05078770e-04
1.90500000e-01	1.86870130e-02	3.06846244e-04
1.91000000e-01	1.86439043e-02	3.04611071e-04
1.91500000e-01	1.87099904e-02	3.07462729e-04
1.92000000e-01	1.85582611e-02	3.02551577e-04
1.92500000e-01	1.85750277e-02	3.03948614e-04
1.93000000e-01	1.83194145e-02	2.99447536e-04
1.93500000e-01	1.84532588e-02	3.00361743e-04
1.94000000e-01	1.83201526e-02	2.98246733e-04
1.94500000e-01	1.85704033e-02	3.00501571e-04
1.95000000e-01	1.86302720e-02	3.01703805e-04
1.95500000e-01	1.83537375e-02	2.96628640e-04
1.96000000e-01	1.86157958e-02	3.00941298e-04
1.96500000e-01	1.85127581e-02	2.98967143e-04
1.97000000e-01	1.83239020e-02	2.95320928e-04
1.97500000e-01	1.83749830e-02	2.96987026e-04
1.98000000e-01	1.83664575e-02	2.96542219e-04
1.98500000e-01	1.82920200e-02	2.94539432e-04
1.99000000e-01	1.85278816e-02	2.97748853e-04
1.99500000e-01	1.85048536e-02	2.97184446e-04
2.00000000e-01	1.85186488e-02	2.95662852e-04
2.00500000e-01	1.83683674e-02	2.94092316e-04
2.01000000e-01	1.85331646e-02	2.95817807e-04
2.01500000e-01	1.85199171e-02	2.94483071e-04
2.02000000e-01	1.84483730e-02	2.94743131e-04
2.02500000e-01	1.83539618e-02	2.91072534e-04
2.03000000e-01	1.84958374e-02	2.94104138e-04
2.03500000e-01	1.85445058e-02	2.95239192e-04
2.04000000e-01	1.83074846e-02	2.89996686e-04
2.04500000e-01	1.82011947e-02	2.89267551e-04
2.05000000e-01	1.85231377e-02	2.91845856e-04
2.05500000e-01	1.84973282e-02	2.92613698e-04
2.06000000e-01	1.85761497e-02	2.93018483e-04
2.06500000e-01	1.84963082e-02	2.91493723e-04
2.07000000e-01	1.82071156e-02	2.86762322e-04
2.07500000e-01	1.84361404e-02	2.89604153e-04
2.08000000e-01	1.80489332e-02	2.84913704e-04
2.08500000e-01	1.81216307e-02	2.84146166e-04
2.09000000e-01	1.82433501e-02	2.86968292e-04
2.09500000e-01	1.83344795e-02	2.87348055e-04
2.10000000e-01	1.80964338e-02	2.83958239e-04
2.10500000e-01	1.81985082e-02	2.83843360e-04
2.11000000e-01	1.81055193e-02	2.82351901e-04
2.11500000e-01	1.82004227e-02	2.85619926e-04
2.12000000e-01	1.79892432e-02	2.79971591e-04
2.12500000e-01	1.82172699e-02	2.84460382e-04
2.13000000e-01	1.81915759e-02	2.82651735e-04
2.13500000e-01	1.83212548e-02	2.83214025e-04
2.14000000e-01	1.80945757e-02	2.80824886e-04
2.14500000e-01	1.81581358e-02	2.80972352e-04
2.15000000e-01	1.84995628e-02	2.86845227e-04
2.15500000e-01	1.80545247e-02	2.78768586e-04
2.16000000e-01	1.82911211e-02	2.82458755e-04
2.16500000e-01	1.81724153e-02	2.80202887e-04
2.17000000e-01	1.82285624e-02	2.84650150e-04
2.17500000e-01	1.81478210e-02	2.89008353e-04
2.18000000e-01	1.82866167e-02	2.90795971e-04
2.18500000e-01	1.80519522e-02	2.89529083e-04
2.19000000e-01	1.78538407e-02	2.89526257e-04
2.19500000e-01	1.78641144e-02	2.88407212e-04
2.20000000e-01	1.81006231e-02	2.93087088e-04
2.20500000e-01	1.79685727e-02	2.92022602e-04
2.21000000e-01	1.77742809e-02	2.90313135e-04
2.21500000e-01	1.80980305e-02	2.96127847e-04
2.22000000e-01	1.79194230e-02	2.92960091e-04
2.22500000e-01	1.83528799e-02	3.00883342e-04
2.23000000e-01	1.77866795e-02	2.94027559e-04
2.23500000e-01	1.81164066e-02	2.98501703e-04
2.24000000e-01	1.80248356e-02	2.97335619e-04
2.24500000e-01	1.76343207e-02	2.92949223e-04
2.25000000e-01	1.81180841e-02	2.99679519e-04
2.25500000e-01	1.80693235e-02	3.00186395e-04
2.26000000e-01	1.80265272e-02	3.00202339e-04
2.26500000e-01	1.80272193e-02	2.96028449e-04
2.27000000e-01	1.81330610e-02	2.93635073e-04
2.27500000e-01	1.83012734e-02	2.94488375e-04
2.28000000e-01	1.80375247e-02	2.90890983e-04
2.28500000e-01	1.78271892e-02	2.86187653e-04
2.29000000e-01	1.78551513e-02	2.83920405e-04
2.29500000e-01	1.80824895e-02	2.85975141e-04
2.30000000e-01	1.78169224e-02	2.81467948e-04
2.30500000e-01	1.75482200e-02	2.77485595e-04
2.31000000e-01	1.78691244e-02	2.80684075e-04
2.31500000e-01	1.77646410e-02	2.77761333e-04
2.32000000e-01	1.78164852e-02	2.78359085e-04
2.32500000e-01	1.79525778e-02	2.79646001e-04
2.33000000e-01	1.78030735e-02	2.78011056e-04
2.33500000e-01	1.78899983e-02	2.76938481e-04
2.34000000e-01	1.79702009e-02	2.77879386e-04
2.34500000e-01	1.79031436e-02	2.77425755e-04
2.35000000e-01	1.76902632e-02	2.73279292e-04
2.35500000e-01	1.80333166e-02	2.78259495e-04
2.36000000e-01	1.75268281e-02	2.70329362e-04
2.36500000e-01	1.78978668e-02	2.73922553e-04
2.37000000e-01	1.77678475e-02	2.72869062e-04
2.37500000e-01	1.79680747e-02	2.75017942e-04
2.38000000e-01	1.79336085e-02	2.73170801e-04
2.38500000e-01	1.77306870e-02	2.70697828e-04
2.39000000e-01	1.77069044e-02	2.69289514e-04
2.39500000e-01	1.78745813e-02	2.70884533e-04
2.40000000e-01	1.78271821e-02	2.68664232e-04
2.40500000e-01	1.77975799e-02	2.70087709e-04
2.41000000e-01	1.76799990e-02	2.67099731e-04
2.41500000e-01	1.77538437e-02	2.67407581e-04
2.42000000e-01	1.74924098e-02	2.64075621e-04
2.42500000e-01	1.77079063e-02	2.65631814e-04
2.43000000e-01	1.73756680e-02	2.61503047e-04
2.43500000e-01	1.76768268e-02	2.66418230e-04
2.44000000e-01	1.77721498e-02	2.66373496e-04
2.44500000e-01	1.75753193e-02	2.63976153e-04
2.45000000e-01	1.78189174e-02	2.65349786e-04
2.45500000e-01	1.76879422e-02	2.64849354e-04
2.46000000e-01	1.75181523e-02	2.60423963e-04
2.46500000e-01	1.76260681e-02	2.61786362e-04
2.47000000e-01	1.74441751e-02	2.60791139e-04
2.47500000e-01	1.78736111e-02	2.62702756e-04
2.48000000e-01	1.75784125e-02	2.61050183e-04
2.48500000e-01	1.76820742e-02	2.61964609e-04
2.49000000e-01	1.76882919e-02	2.61102905e-04
2.49500000e-01	1.77887080e-02	2.62849554e-04
2.50000000e-01	1.74175224e-02	2.57755953e-04
2.50500000e-01	1.75878125e-02	2.59421837e-04
2.51000000e-01	1.74232133e-02	2.56458578e-04
2.51500000e-01	1.77781855e-02	2.61634192e-04
2.52000000e-01	1.74590379e-02	2.58099567e-04
2.52500000e-01	1.74037757e-02	2.56587677e-04
2.53000000e-01	1.75737572e-02	2.58025430e-04
2.53500000e-01	1.76151026e-02	2.59494224e-04
2.54000000e-01	1.75178078e-02	2.56152942e-04
2.54500000e-01	1.74221581e-02	2.55958125e-04
2.55000000e-01	1.74656826e-02	2.54682856e-04
2.55500000e-01	1.76056453e-02	2.58409439e-04
2.56000000e-01	1.73937327e-02	2.52996977e-04
2.56500000e-01	1.74597637e-02	2.55093014e-04
2.57000000e-01	1.75514387e-02	2.55590265e-04
2.57500000e-01	1.73598918e-02	2.52717791e-04
2.58000000e-01	1.73046924e-02	2.52628536e-04
2.58500000e-01	1.75561843e-02	2.54738172e-04
2.59000000e-01	1.75218535e-02	2.54190085e-04
2.59500000e-01	1.73206303e-02	2.50924724e-04
2.60000000e-01	1.74897079e-02	2.52513605e-04
2.60500000e-01	1.73404148e-02	2.51205012e-04
2.61000000e-01	1.75010521e-02	2.52169321e-04
2.61500000e-01	1.72265526e-02	2.48620732e-04
2.62000000e-01	1.77321668e-02	2.54136711e-04
2.62500000e-01	1.74612373e-02	2.51257014e-04
2.63000000e-01	1.74151182e-02	2.50299895e-04
2.63500000e-01	1.73666709e-02	2.49548375e-04
2.64000000e-01	1.73164559e-02	2.49091596e-04
2.64500000e-01	1.72208752e-02	2.46220530e-04
2.65000000e-01	1.73405303e-02	2.48568816e-04
2.65500000e-01	1.74802141e-02	2.50624618e-04
2.66000000e-01	1.74015000e-02	2.48008939e-04
2.66500000e-01	1.73238089e-02	2.47060137e-04
2.67000000e-01	1.72374154e-02	2.45976823e-04
2.67500000e-01	1.73237893e-02	2.46442300e-04
2.68000000e-01	1.71445870e-02	2.43402835e-04
2.68500000e-01	1.73973032e-02	2.47858716e-04
2.69000000e-01	1.72860981e-02	2.45164019e-04
2.69500000e-01	1.71662970e-02	2.43949568e-04
2.70000000e-01	1.70188168e-02	2.41803801e-04
2.70500000e-01	1.71057129e-02	2.41693273e-04
2.71000000e-01	1.72875569e-02	2.43285325e-04
2.71500000e-01	1.71890540e-02	2.42292880e-04
2.72000000e-01	1.73477676e-02	2.43639541e-04
2.72500000e-01	1.73496244e-02	2.44079376e-04
2.73000000e-01	1.70533817e-02	2.39202003e-04
2.73500000e-01	1.70432869e-02	2.38822699e-04
2.74000000e-01	1.71499438e-02	2.40888503e-04
2.74500000e-01	1.71166808e-02	2.40347173e-04
2.75000000e-01	1.70793288e-02	2.39843184e-04
2.75500000e-01	1.73021062e-02	2.41855486e-04
2.76000000e-01	1.68697616e-02	2.36574774e-04
2.76500000e-01	1.71746284e-02	2.40676403e-04
2.77000000e-01	1.70295667e-02	2.37753788e-04
2.77500000e-01	1.70572554e-02	2.38178937e-04
2.78000000e-01	1.71284434e-02	2.39331771e-04
2.78500000e-01	1.71857579e-02	2.38728049e-04
2.79000000e-01	1.73769125e-02	2.41566392e-04
2.79500000e-01	1.71040423e-02	2.37747136e-04
2.80000000e-01	1.70888632e-02	2.38236319e-04
2.80500000e-01	1.71693224e-02	2.38629371e-04
2.81000000e-01	1.70259895e-02	2.37397978e-04
2.81500000e-01	1.70202986e-02	2.36118080e-04
2.82000000e-01	1.73276210e-02	2.40393387e-04
2.82500000e-01	1.69709820e-02	2.35758417e-04
2.83000000e-01	1.71248521e-02	2.36269115e-04
2.83500000e-01	1.69555774e-02	2.34111027e-04
2.84000000e-01	1.68899581e-02	2.33552592e-04
2.84500000e-01	1.71039181e-02	2.36123126e-04
2.85000000e-01	1.70981232e-02	2.35646852e-04
2.85500000e-01	1.70503748e-02	2.34179860e-04
2.86000000e-01	1.68899570e-02	2.33559779e-04
2.86500000e-01	1.70962215e-02	2.34949682e-04
2.87000000e-01	1.69979827e-02	2.34586712e-04
2.87500000e-01	1.71173890e-02	2.34120547e-04
2.88000000e-01	1.69240645e-02	2.30855810e-04
2.88500000e-01	1.69014449e-02	2.31944731e-04
2.89000000e-01	1.70033109e-02	2.32322376e-04
2.89500000e-01	1.70854551e-02	2.33352969e-04
2.90000000e-01	1.69269307e-02	2.30614397e-04
2.90500000e-01	1.70162803e-02	2.32305217e-04
2.91000000e-01	1.70266355e-02	2.32303958e-04
2.91500000e-01	1.68973885e-02	2.29556978e-04
2.92000000e-01	1.69543040e-02	2.30651562e-04
2.92500000e-01	1.70547886e-02	2.31274299e-04
2.93000000e-01	1.70521531e-02	2.31148059e-04
2.93500000e-01	1.68998822e-02	2.29962868e-04
2.94000000e-01	1.67609200e-02	2.26281717e-04
2.94500000e-01	1.67852338e-02	2.27639177e-04
2.95000000e-01	1.68661436e-02	2.27241340e-04
2.95500000e-01	1.68401207e-02	2.28151977e-04
2.96000000e-01	1.69403373e-02	2.27884881e-04
2.96500000e-01	1.70348757e-02	2.29407727e-04
2.97000000e-01	1.71059308e-02	2.30986202e-04
2.97500000e-01	1.67439632e-02	2.25261144e-04
2.98000000e-01	1.68967471e-02	2.27748631e-04
2.98500000e-01	1.68951634e-02	2.27391856e-04
2.99000000e-01	1.68885315e-02	2.26526678e-04
2.99500000e-01	1.68864794e-02	2.27534766e-04
3.00000000e-01	1.68719603e-02	2.25963943e-04
3.00500000e-01	1.67073806e-02	2.24306100e-04
3.01000000e-01	1.69457553e-02	2.26624964e-04
3.01500000e-01	1.68820485e-02	2.26360367e-04
3.02000000e-01	1.66758089e-02	2.23504202e-04
3.02500000e-01	1.68193368e-02	2.24962602e-04
3.03000000e-01	1.70354491e-02	2.26856949e-04
3.03500000e-01	1.67442087e-02	2.23810211e-04
3.04000000e-01	1.67478835e-02	2.24315197e-04
3.04500000e-01	1.66899556e-02	2.21943762e-04
3.05000000e-01	1.67318127e-02	2.23186129e-04
3.05500000e-01	1.67488621e-02	2.22591764e-04
3.06000000e-01	1.66422596e-02	2.19916705e-04
3.06500000e-01	1.65636749e-02	2.20113959e-04
3.07000000e-01	1.66576124e-02	2.20081336e-04
3.07500000e-01	1.66521794e-02	2.20979985e-04
3.08000000e-01	1.65222032e-02	2.19253460e-04
3.08500000e-01	1.67149707e-02	2.20834856e-04
3.09000000e-01	1.66963092e-02	2.21357664e-04
3.09500000e-01	1.66541494e-02	2.20256033e-04
3.10000000e-01	1.66148983e-02	2.19649079e-04
3.10500000e-01	1.65324224e-02	2.19424152e-04
3.11000000e-01	1.67587125e-02	2.21153121e-04
3.11500000e-01	1.66001545e-02	2.19649723e-04
3.12000000e-01	1.65040000e-02	2.18536835e-04
3.12500000e-01	1.65246333e-02	2.17819005e-04
3.13000000e-01	1.67266171e-02	2.19689192e-04
3.13500000e-01	1.67561736e-02	2.19802032e-04
3.14000000e-01	1.64256005e-02	2.15639358e-04
3.14500000e-01	1.65554959e-02	2.17145472e-04
3.15000000e-01	1.66510369e-02	2.18534828e-04
3.15500000e-01	1.65443323e-02	2.16330467e-04
3.16000000e-01	1.65156430e-02	2.17077349e-04
3.16500000e-01	1.66323529e-02	2.17292692e-04
3.17000000e-01	1.63916210e-02	2.14822057e-04
3.17500000e-01	1.66281429e-02	2.17049880e-04
3.18000000e-01	1.63436210e-02	2.13221658e-04
3.18500000e-01	1.67062749e-02	2.17385761e-04
3.19000000e-01	1.64892581e-02	2.14579264e-04
3.19500000e-01	1.66023182e-02	2.15976850e-04
3.20000000e-01	1.65112407e-02	2.14986914e-04
3.20500000e-01	1.63462558e-02	2.12952935e-04
3.21000000e-01	1.65901772e-02	2.15474316e-04
3.21500000e-01	1.64519972e-02	2.12737132e-04
3.22000000e-01	1.64071689e-02	2.13403479e-04
3.22500000e-01	1.63652063e-02	2.12425754e-04
3.23000000e-01	1.64960789e-02	2.13581238e-04
3.23500000e-01	1.63983905e-02	2.12740430e-04
3.24000000e-01	1.63629280e-02	2.10970975e-04
3.24500000e-01	1.66103899e-02	2.14606815e-04
3.25000000e-01	1.63852439e-02	2.11981332e-04
3.25500000e-01	1.63785711e-02	2.11773844e-04
3.26000000e-01	1.63577554e-02	2.10858571e-04
3.26500000e-01	1.63827521e-02	2.11224603e-04
3.27000000e-01	1.61987523e-02	2.09156355e-04
3.27500000e-01	1.62673732e-02	2.08701760e-04
3.28000000e-01	1.63723849e-02	2.11776221e-04
3.28500000e-01	1.64823395e-02	2.12136881e-04
3.29000000e-01	1.62713815e-02	2.09166601e-04
3.29500000e-01	1.64944943e-02	2.11815057e-04
3.30000000e-01	1.65260301e-02	2.11765091e-04
3.30500000e-01	1.62121188e-02	2.08691312e-04
3.31000000e-01	1.61981570e-02	2.07201456e-04
3.31500000e-01	1.62195621e-02	2.07193856e-04
3.32000000e-01	1.64203660e-02	2.10362804e-04
3.32500000e-01	1.64336345e-02	2.09932831e-04
3.33000000e-01	1.61104483e-02	2.06309852e-04
3.33500000e-01	1.61875182e-02	2.07380820e-04
3.34000000e-01	1.63167964e-02	2.07627592e-04
3.34500000e-01	1.63332196e-02	2.07988744e-04
3.35000000e-01	1.61699644e-02	2.05173940e-04
3.35500000e-01	1.62801454e-02	2.06115468e-04
3.36000000e-01	1.63063494e-02	2.06799000e-04
3.36500000e-01	1.59130006e-02	2.03048340e-04
3.37000000e-01	1.61584955e-02	2.05392681e-04
3.37500000e-01	1.62133110e-02	2.04964896e-04
3.38000000e-01	1.61833081e-02	2.04954822e-04
3.38500000e-01	1.61444501e-02	2.04518026e-04
3.39000000e-01	1.60783657e-02	2.04810977e-04
3.39500000e-01	1.59801533e-02	2.02156313e-04
3.40000000e-01	1.62210233e-02	2.05748822e-04
3.40500000e-01	1.60260102e-02	2.02530264e-04
3.41000000e-01	1.60081504e-02	2.01801752e-04
3.41500000e-01	1.60960246e-02	2.03106026e-04
3.42000000e-01	1.62095686e-02	2.03849567e-04
3.42500000e-01	1.60534926e-02	2.00958202e-04
3.43000000e-01	1.61057464e-02	2.03736608e-04
3.43500000e-01	1.59591809e-02	2.00552262e-04
3.44000000e-01	1.61039669e-02	2.02590854e-04
3.44500000e-01	1.58440611e-02	1.99123159e-04
3.45000000e-01	1.59646748e-02	1.99342332e-04
3.45500000e-01	1.61008485e-02	2.02231765e-04
3.46000000e-01	1.60416439e-02	2.01324231e-04
3.46500000e-01	1.61471329e-02	2.02145706e-04
3.47000000e-01	1.61218200e-02	2.02239390e-04
3.47500000e-01	1.58779345e-02	1.99028593e-04
3.48000000e-01	1.61825613e-02	2.02178685e-04
3.48500000e-01	1.59269889e-02	1.98882541e-04
3.49000000e-01	1.62211756e-02	2.02433603e-04
3.49500000e-01	1.60824045e-02	2.00889950e-04
3.50000000e-01	1.59509897e-02	1.62686557e-04
3.51000000e-01	1.59745864e-02	1.40936702e-04
3.52000000e-01	1.59068346e-02	1.39864904e-04
3.53000000e-01	1.58847081e-02	1.39304153e-04
3.54000000e-01	1.58065107e-02	1.38507739e-04
3.55000000e-01	1.58164302e-02	1.38641700e-04
3.56000000e-01	1.58725433e-02	1.39659932e-04
3.57000000e-01	1.57477357e-02	1.41255521e-04
3.58000000e-01	1.55882172e-02	1.41123256e-04
3.59000000e-01	1.58132804e-02	1.44066550e-04
3.60000000e-01	1.56529128e-02	1.43457278e-04
3.61000000e-01	1.57725578e-02	1.44867931e-04
3.62000000e-01	1.56437557e-02	1.44511406e-04
3.63000000e-01	1.56930973e-02	1.45686199e-04
3.64000000e-01	1.57081555e-02	1.46075211e-04
3.65000000e-01	1.56109033e-02	1.45813349e-04
3.66000000e-01	1.56610547e-02	1.44387033e-04
3.67000000e-01	1.54944460e-02	1.40747406e-04
3.68000000e-01	1.54883273e-02	1.39813308e-04
3.69000000e-01	1.56292289e-02	1.40682598e-04
3.70000000e-01	1.55338384e-02	1.39035724e-04
3.71000000e-01	1.55827374e-02	1.41410963e-04
3.72000000e-01	1.56819047e-02	1.43021341e-04
3.73000000e-01	1.57235654e-02	1.43672364e-04
3.74000000e-01	1.55081693e-02	1.41842239e-04
3.75000000e-01	1.56630017e-02	1.43131688e-04
3.76000000e-01	1.55662429e-02	1.42291535e-04
3.77000000e-01	1.55657713e-02	1.42638351e-04
3.78000000e-01	1.54450835e-02	1.41521218e-04
3.79000000e-01	1.54260165e-02	1.41190784e-04
3.80000000e-01	1.54610747e-02	1.40969183e-04
3.81000000e-01	1.53633784e-02	1.40736298e-04
3.82000000e-01	1.55238859e-02	1.41709303e-04
3.83000000e-01	1.54697487e-02	1.41548421e-04
3.84000000e-01	1.54959528e-02	1.41785470e-04
3.85000000e-01	1.54012997e-02	1.40669431e-04
3.86000000e-01	1.54682636e-02	1.41239524e-04
3.87000000e-01	1.53157302e-02	1.39656532e-04
3.88000000e-01	1.54113835e-02	1.40757503e-04
3.89000000e-01	1.54152406e-02	1.40781571e-04
3.90000000e-01	1.54056669e-02	1.40253523e-04
3.91000000e-01	1.54000445e-02	1.40250327e-04
3.92000000e-01	1.53435319e-02	1.39914756e-04
3.93000000e-01	1.52370196e-02	1.38728681e-04
3.94000000e-01	1.52674853e-02	1.39097810e-04
3.95000000e-01	1.51614619e-02	1.38256332e-04
3.96000000e-01	1.52774171e-02	1.39044588e-04
3.97000000e-01	1.52158534e-02	1.38729828e-04
3.98000000e-01	1.51400907e-02	1.38010504e-04
3.99000000e-01	1.52629301e-02	1.39137283e-04
4.00000000e-01	1.51359513e-02	1.38268084e-04
4.01000000e-01	1.52248054e-02	1.38529074e-04
4.02000000e-01	1.52113486e-02	1.38489564e-04
4.03000000e-01	1.50354388e-02	1.36899251e-04
4.04000000e-01	1.52197174e-02	1.38410765e-04
4.05000000e-01	1.52204180e-02	1.38342539e-04
4.06000000e-01	1.51264756e-02	1.37971543e-04
4.07000000e-01	1.51982307e-02	1.38166407e-04
4.08000000e-01	1.51021493e-02	1.37563397e-04
4.09000000e-01	1.50397742e-02	1.37089706e-04
4.10000000e-01	1.51154562e-02	1.37184526e-04
4.11000000e-01	1.52086712e-02	1.37950576e-04
4.12000000e-01	1.51773702e-02	1.37645462e-04
4.13000000e-01	1.50937168e-02	1.37055759e-04
4.14000000e-01	1.49318078e-02	1.35894154e-04
4.15000000e-01	1.50165952e-02	1.36401382e-04
4.16000000e-01	1.49888444e-02	1.35744928e-04
4.17000000e-01	1.49852923e-02	1.35729539e-04
4.18000000e-01	1.50956619e-02	1.38541214e-04
4.19000000e-01	1.51304198e-02	1.40638103e-04
4.20000000e-01	1.50144959e-02	1.40165923e-04
4.21000000e-01	1.49799621e-02	1.40656838e-04
4.22000000e-01	1.50991725e-02	1.41465267e-04
4.23000000e-01	1.50154267e-02	1.41682366e-04
4.24000000e-01	1.51402450e-02	1.43140968e-04
4.25000000e-01	1.51454327e-02	1.43347174e-04
4.26000000e-01	1.49771489e-02	1.41678415e-04
4.27000000e-01	1.50316332e-02	1.42042327e-04
4.28000000e-01	1.50741378e-02	1.42698184e-04
4.29000000e-01	1.51034484e-02	1.43472549e-04
4.30000000e-01	1.51775074e-02	1.43917668e-04
4.31000000e-01	1.49087149e-02	1.41654511e-04
4.32000000e-01	1.49099010e-02	1.41508639e-04
4.33000000e-01	1.49023995e-02	1.42069629e-04
4.34000000e-01	1.49939145e-02	1.42896284e-04
4.35000000e-01	1.48536287e-02	1.41796164e-04
4.36000000e-01	1.48778951e-02	1.42094484e-04
4.37000000e-01	1.48827534e-02	1.42393177e-04
4.38000000e-01	1.47822950e-02	1.41485694e-04
4.39000000e-01	1.48912250e-02	1.42740880e-04
4.40000000e-01	1.47805188e-02	1.41503661e-04
4.41000000e-01	1.49257296e-02	1.43486823e-04
4.42000000e-01	1.48594302e-02	1.43051650e-04
4.43000000e-01	1.48126254e-02	1.42457888e-04
4.44000000e-01	1.48475525e-02	1.43108643e-04
4.45000000e-01	1.48364253e-02	1.42954932e-04
4.46000000e-01	1.49023081e-02	1.43639296e-04
4.47000000e-01	1.48419866e-02	1.43521919e-04
4.48000000e-01	1.48171141e-02	1.43282646e-04
4.49000000e-01	1.48232821e-02	1.43376654e-04
4.50000000e-01	1.48519117e-02	1.44047143e-04
4.51000000e-01	1.47891576e-02	1.43673947e-04
4.52000000e-01	1.45443825e-02	1.41665692e-04
4.53000000e-01	1.47625727e-02	1.43745065e-04
4.54000000e-01	1.48370022e-02	1.44502558e-04
4.55000000e-01	1.47963899e-02	1.44553024e-04
4.56000000e-01	1.46585261e-02	1.42980438e-04
4.57000000e-01	1.47404899e-02	1.44235409e-04
4.58000000e-01	1.47824438e-02	1.44828853e-04
4.59000000e-01	1.46816096e-02	1.43836513e-04
4.60000000e-01	1.47043175e-02	1.43958395e-04
4.61000000e-01	1.46401019e-02	1.43446461e-04
4.62000000e-01	1.47706578e-02	1.44782186e-04
4.63000000e-01	1.46594360e-02	1.43694100e-04
4.64000000e-01	1.47032793e-02	1.44619523e-04
4.65000000e-01	1.47716503e-02	1.45062277e-04
4.66000000e-01	1.46803847e-02	1.44080879e-04
4.67000000e-01	1.46732700e-02	1.44356252e-04
4.68000000e-01	1.47339732e-02	1.45070576e-04
4.69000000e-01	1.45787010e-02	1.43938707e-04
4.70000000e-01	1.47355929e-02	1.45218633e-04
4.71000000e-01	1.45042527e-02	1.42860784e-04
4.72000000e-01	1.46543988e-02	1.43963649e-04
4.73000000e-01	1.45760737e-02	1.43237218e-04
4.74000000e-01	1.45467268e-02	1.43080194e-04
4.75000000e-01	1.44453883e-02	1.42703909e-04
4.76000000e-01	1.45294024e-02	1.43418677e-04
4.77000000e-01	1.44767898e-02	1.42709411e-04
4.78000000e-01	1.45901854e-02	1.43806268e-04
4.79000000e-01	1.45032411e-02	1.43154295e-04
4.80000000e-01	1.45826120e-02	1.44211219e-04
4.81000000e-01	1.44101560e-02	1.42538998e-04
4.82000000e-01	1.45008002e-02	1.43127092e-04
4.83000000e-01	1.44326254e-02	1.42708003e-04
4.84000000e-01	1.45173769e-02	1.43489096e-04
4.85000000e-01	1.44905352e-02	1.43329357e-04
4.86000000e-01	1.44283609e-02	1.42531840e-04
4.87000000e-01	1.44133208e-02	1.43192248e-04
4.88000000e-01	1.44501208e-02	1.42895354e-04
4.89000000e-01	1.44515889e-02	1.43274117e-04
4.90000000e-01	1.45202768e-02	1.44038943e-04
4.91000000e-01	1.44283242e-02	1.43386938e-04
4.92000000e-01	1.43382842e-02	1.42340619e-04
4.93000000e-01	1.44389650e-02	1.43850792e-04
4.94000000e-01	1.44618508e-02	1.43671259e-04
4.95000000e-01	1.44157242e-02	1.44636850e-04
4.96000000e-01	1.44503159e-02	1.48711740e-04
4.97000000e-01	1.42010273e-02	1.49568177e-04
4.98000000e-01	1.42417525e-02	1.51501165e-04
4.99000000e-01	1.43470988e-02	1.55408719e-04
5.00000000e-01	1.43003274e-02	1.55733736e-04
5.01000000e-01	1.43863334e-02	1.58320762e-04
5.02000000e-01	1.43572093e-02	1.59923194e-04
5.03000000e-01	1.43230926e-02	1.60128235e-04
5.04000000e-01	1.44782645e-02	1.63081003e-04
5.05000000e-01	1.44238618e-02	1.59759684e-04
5.06000000e-01	1.43914252e-02	1.56887609e-04
5.07000000e-01	1.43635958e-02	1.54632928e-04
5.08000000e-01	1.43327616e-02	1.53733940e-04
5.09000000e-01	1.44671381e-02	1.53825365e-04
5.10000000e-01	1.42840095e-02	1.51781409e-04
5.11000000e-01	1.41813286e-02	1.50319163e-04
5.12000000e-01	1.42137286e-02	1.50263231e-04
5.13000000e-01	1.43229717e-02	1.50966722e-04
5.14000000e-01	1.42911792e-02	1.50784643e-04
5.15000000e-01	1.42797345e-02	1.50030936e-04
5.16000000e-01	1.43507356e-02	1.50769601e-04
5.17000000e-01	1.42082641e-02	1.48711387e-04
5.18000000e-01	1.41884679e-02	1.48112599e-04
5.19000000e-01	1.43390632e-02	1.48797269e-04
5.20000000e-01	1.41649384e-02	1.47415295e-04
5.21000000e-01	1.43054946e-02	1.48950620e-04
5.22000000e-01	1.41943230e-02	1.47523356e-04
5.23000000e-01	1.41371084e-02	1.46873500e-04
5.24000000e-01	1.41883941e-02	1.47636546e-04
5.25000000e-01	1.41504166e-02	1.46858015e-04
5.26000000e-01	1.40243859e-02	1.45531140e-04
5.27000000e-01	1.42466393e-02	1.47630163e-04
5.28000000e-01	1.40816100e-02	1.46241169e-04
5.29000000e-01	1.40327942e-02	1.45915300e-04
5.30000000e-01	1.40227993e-02	1.45880126e-04
5.31000000e-01	1.41026916e-02	1.46791130e-04
5.32000000e-01	1.39740282e-02	1.46024265e-04
5.33000000e-01	1.41925109e-02	1.46801163e-04
5.34000000e-01	1.40577094e-02	1.46107780e-04
5.35000000e-01	1.40259315e-02	1.45306010e-04
5.36000000e-01	1.41176916e-02	1.46535843e-04
5.37000000e-01	1.40754502e-02	1.45853810e-04
5.38000000e-01	1.40945545e-02	1.46475286e-04
5.39000000e-01	1.40699355e-02	1.46010954e-04
5.40000000e-01	1.40678750e-02	1.45943487e-04
5.41000000e-01	1.38823890e-02	1.44148343e-04
5.42000000e-01	1.39028951e-02	1.44691228e-04
5.43000000e-01	1.38724337e-02	1.44068639e-04
5.44000000e-01	1.39425058e-02	1.45019955e-04
5.45000000e-01	1.37930274e-02	1.43518637e-04
5.46000000e-01	1.37226780e-02	1.42680645e-04
5.47000000e-01	1.38588784e-02	1.43733819e-04
5.48000000e-01	1.38598354e-02	1.43929139e-04
5.49000000e-01	1.38070248e-02	1.43409001e-04
5.50000000e-01	1.38834175e-02	1.43788992e-04
5.51000000e-01	1.39407440e-02	1.44202290e-04
5.52000000e-01	1.38050300e-02	1.42704982e-04
5.53000000e-01	1.38150136e-02	1.42961644e-04
5.54000000e-01	1.38263670e-02	1.42434398e-04
5.55000000e-01	1.38242736e-02	1.42825944e-04
5.56000000e-01	1.37847115e-02	1.42095422e-04
5.57000000e-01	1.38209241e-02	1.42689552e-04
5.58000000e-01	1.39026805e-02	1.43161716e-04
5.59000000e-01	1.38112208e-02	1.42414403e-04
5.60000000e-01	1.37181440e-02	1.41741852e-04
5.61000000e-01	1.39342588e-02	1.43787454e-04
5.62000000e-01	1.37829344e-02	1.42232568e-04
5.63000000e-01	1.36916166e-02	1.41378669e-04
5.64000000e-01	1.36330188e-02	1.40968391e-04
5.65000000e-01	1.37579712e-02	1.41829016e-04
5.66000000e-01	1.36565352e-02	1.40779769e-04
5.67000000e-01	1.37408145e-02	1.42178642e-04
5.68000000e-01	1.37626815e-02	1.42142958e-04
5.69000000e-01	1.36041768e-02	1.40248648e-04
5.70000000e-01	1.37034812e-02	1.40948442e-04
5.71000000e-01	1.36988342e-02	1.41284110e-04
5.72000000e-01	1.36459548e-02	1.41289902e-04
5.73000000e-01	1.36545233e-02	1.41460591e-04
5.74000000e-01	1.35026538e-02	1.39585217e-04
5.75000000e-01	1.36439665e-02	1.41761996e-04
5.76000000e-01	1.35210078e-02	1.40251713e-04
5.77000000e-01	1.35834714e-02	1.40997233e-04
5.78000000e-01	1.37310570e-02	1.41878102e-04
5.79000000e-01	1.34765173e-02	1.39608331e-04
5.80000000e-01	1.35649398e-02	1.40763563e-04
5.81000000e-01	1.35321019e-02	1.40553816e-04
5.82000000e-01	1.35178753e-02	1.40408816e-04
5.83000000e-01	1.35485512e-02	1.40393507e-04
5.84000000e-01	1.35866323e-02	1.40962793e-04
5.85000000e-01	1.34292007e-02	1.39504245e-04
5.86000000e-01	1.34370113e-02	1.39778467e-04
5.87000000e-01	1.36146189e-02	1.40745601e-04
5.88000000e-01	1.34552483e-02	1.39776003e-04
5.89000000e-01	1.34631819e-02	1.39603728e-04
5.90000000e-01	1.33322283e-02	1.38694230e-04
5.91000000e-01	1.34904152e-02	1.39978569e-04
5.92000000e-01	1.36087809e-02	1.41398820e-04
5.93000000e-01	1.34207475e-02	1.39348502e-04
5.94000000e-01	1.34159477e-02	1.39306375e-04
5.95000000e-01	1.33327022e-02	1.38730306e-04
5.96000000e-01	1.34634347e-02	1.40386363e-04
5.97000000e-01	1.32861493e-02	1.38288039e-04
5.98000000e-01	1.33196530e-02	1.38401945e-04
5.99000000e-01	1.34167453e-02	1.39476118e-04
6.00000000e-01	1.34272237e-02	1.39659124e-04
6.01000000e-01	1.34209942e-02	1.39612236e-04
6.02000000e-01	1.32477265e-02	1.38273956e-04
6.03000000e-01	1.34739317e-02	1.39921094e-04
6.04000000e-01	1.33267933e-02	1.38651040e-04
6.05000000e-01	1.33351991e-02	1.39518048e-04
6.06000000e-01	1.34304761e-02	1.39283514e-04
6.07000000e-01	1.33056101e-02	1.38358849e-04
6.08000000e-01	1.32598946e-02	1.37864737e-04
6.09000000e-01	1.33083272e-02	1.38604036e-04
6.10000000e-01	1.33550468e-02	1.38641770e-04
6.11000000e-01	1.31583960e-02	1.37633463e-04
6.12000000e-01	1.30307036e-02	1.36134807e-04
6.13000000e-01	1.33549502e-02	1.39505664e-04
6.14000000e-01	1.32973262e-02	1.38874131e-04
6.15000000e-01	1.30737758e-02	1.36298737e-04
6.16000000e-01	1.32051098e-02	1.37909115e-04
6.17000000e-01	1.33151611e-02	1.39033608e-04
6.18000000e-01	1.31973211e-02	1.37663056e-04
6.19000000e-01	1.31228217e-02	1.37007964e-04
6.20000000e-01	1.31778426e-02	1.37149118e-04
6.21000000e-01	1.32974098e-02	1.38252906e-04
6.22000000e-01	1.32005536e-02	1.37577479e-04
6.23000000e-01	1.32623741e-02	1.37230074e-04
6.24000000e-01	1.32142898e-02	1.36728685e-04
6.25000000e-01	1.31445697e-02	1.36615259e-04
6.26000000e-01	1.30984821e-02	1.35461518e-04
6.27000000e-01	1.30951147e-02	1.35523318e-04
6.28000000e-01	1.31557390e-02	1.36833824e-04
6.29000000e-01	1.30929668e-02	1.35633238e-04
6.30000000e-01	1.31199305e-02	1.36335406e-04
6.31000000e-01	1.30621688e-02	1.35728595e-04
6.32000000e-01	1.32507342e-02	1.37291904e-04
6.33000000e-01	1.32684918e-02	1.37101796e-04
6.34000000e-01	1.31265089e-02	1.39329312e-04
6.35000000e-01	1.32370048e-02	1.45077691e-04
6.36000000e-01	1.32353699e-02	1.47344288e-04
6.37000000e-01	1.29076080e-02	1.46392575e-04
6.38000000e-01	1.31427670e-02	1.50456013e-04
6.39000000e-01	1.32302713e-02	1.53180617e-04
6.40000000e-01	1.32659321e-02	1.55651892e-04
6.41000000e-01	1.31970099e-02	1.56311706e-04
6.42000000e-01	1.30817166e-02	1.57030007e-04
6.43000000e-01	1.33229297e-02	1.59798714e-04
6.44000000e-01	1.33173765e-02	1.53677963e-04
6.45000000e-01	1.32960559e-02	1.50906888e-04
6.46000000e-01	1.31670513e-02	1.48921330e-04
6.47000000e-01	1.31678387e-02	1.47699847e-04
6.48000000e-01	1.32142696e-02	1.46966736e-04
6.49000000e-01	1.32956946e-02	1.47434258e-04
6.50000000e-01	1.32868108e-02	1.46251025e-04
6.51000000e-01	1.30210471e-02	1.42547998e-04
6.52000000e-01	1.30429082e-02	1.42991234e-04
6.53000000e-01	1.29927045e-02	1.41825285e-04
6.54000000e-01	1.30607524e-02	1.42139568e-04
6.55000000e-01	1.32224344e-02	1.42965874e-04
6.56000000e-01	1.31244858e-02	1.42368717e-04
6.57000000e-01	1.31947356e-02	1.42983016e-04
6.58000000e-01	1.30620316e-02	1.41209211e-04
6.59000000e-01	1.29876998e-02	1.40105775e-04
6.60000000e-01	1.29778782e-02	1.39879521e-04
6.61000000e-01	1.29857669e-02	1.40170284e-04
6.62000000e-01	1.29526890e-02	1.39983732e-04
6.63000000e-01	1.30232194e-02	1.40940718e-04
6.64000000e-01	1.31791916e-02	1.42210066e-04
6.65000000e-01	1.29056904e-02	1.39351851e-04
6.66000000e-01	1.31024752e-02	1.40864323e-04
6.67000000e-01	1.30657889e-02	1.40641195e-04
6.68000000e-01	1.29817720e-02	1.39497046e-04
6.69000000e-01	1.29152278e-02	1.38653446e-04
6.70000000e-01	1.29172986e-02	1.38689635e-04
6.71000000e-01	1.29929253e-02	1.39266784e-04
6.72000000e-01	1.30728180e-02	1.40237560e-04
6.73000000e-01	1.29914708e-02	1.39422100e-04
6.74000000e-01	1.29057201e-02	1.38378444e-04
6.75000000e-01	1.29712434e-02	1.39076830e-04
6.76000000e-01	1.29334172e-02	1.38554682e-04
6.77000000e-01	1.29079256e-02	1.38904794e-04
6.78000000e-01	1.28019381e-02	1.37566135e-04
6.79000000e-01	1.28798894e-02	1.38116546e-04
6.80000000e-01	1.28856575e-02	1.38083432e-04
6.81000000e-01	1.28431873e-02	1.37698692e-04
6.82000000e-01	1.27578315e-02	1.36903714e-04
6.83000000e-01	1.28392935e-02	1.37425297e-04
6.84000000e-01	1.29435181e-02	1.38721177e-04
6.85000000e-01	1.29170433e-02	1.38610529e-04
6.86000000e-01	1.27477852e-02	1.36980081e-04
6.87000000e-01	1.28982595e-02	1.38078644e-04
6.88000000e-01	1.28980688e-02	1.38184246e-04
6.89000000e-01	1.27639248e-02	1.36644637e-04
6.90000000e-01	1.28818300e-02	1.38195565e-04
6.91000000e-01	1.27998728e-02	1.36942920e-04
6.92000000e-01	1.27076682e-02	1.35798562e-04
6.93000000e-01	1.28124799e-02	1.37232329e-04
6.94000000e-01	1.28184263e-02	1.37719383e-04
6.95000000e-01	1.26942014e-02	1.35833636e-04
6.96000000e-01	1.28733939e-02	1.37355170e-04
6.97000000e-01	1.27091803e-02	1.36111416e-04
6.98000000e-01	1.27899857e-02	1.36728155e-04
6.99000000e-01	1.28110234e-02	1.36572274e-04
7.00000000e-01	1.27347991e-02	1.35924368e-04
7.01000000e-01	1.27752833e-02	1.36388094e-04
7.02000000e-01	1.26804920e-02	1.36313313e-04
7.03000000e-01	1.27482978e-02	1.36640607e-04
7.04000000e-01	1.27786795e-02	1.37058072e-04
7.05000000e-01	1.26026142e-02	1.35628311e-04
7.06000000e-01	1.26651421e-02	1.35514194e-04
7.07000000e-01	1.26807407e-02	1.35265849e-04
7.08000000e-01	1.26301078e-02	1.34644289e-04
7.09000000e-01	1.25536874e-02	1.34083192e-04
7.10000000e-01	1.26175919e-02	1.34831523e-04
7.11000000e-01	1.24397810e-02	1.33347756e-04
7.12000000e-01	1.25355149e-02	1.33710502e-04
7.13000000e-01	1.25787825e-02	1.34143618e-04
7.14000000e-01	1.25198682e-02	1.33797733e-04
7.15000000e-01	1.25369340e-02	1.34011036e-04
7.16000000e-01	1.25835069e-02	1.34457180e-04
7.17000000e-01	1.24855984e-02	1.34059932e-04
7.18000000e-01	1.24278317e-02	1.33421007e-04
7.19000000e-01	1.25238606e-02	1.34510114e-04
7.20000000e-01	1.25384426e-02	1.34118189e-04
7.21000000e-01	1.24558037e-02	1.33284430e-04
7.22000000e-01	1.22620782e-02	1.31550646e-04
7.23000000e-01	1.25422902e-02	1.34111803e-04
7.24000000e-01	1.25679976e-02	1.34247199e-04
7.25000000e-01	1.23695275e-02	1.32564901e-04
7.26000000e-01	1.24005977e-02	1.32997769e-04
7.27000000e-01	1.24392118e-02	1.33278226e-04
7.28000000e-01	1.24672804e-02	1.33521679e-04
7.29000000e-01	1.23697798e-02	1.32571534e-04
7.30000000e-01	1.24839470e-02	1.33228565e-04
7.31000000e-01	1.22428590e-02	1.31153558e-04
7.32000000e-01	1.23022420e-02	1.31960315e-04
7.33000000e-01	1.22617875e-02	1.31686178e-04
7.34000000e-01	1.22770148e-02	1.31592958e-04
7.35000000e-01	1.22359623e-02	1.30649730e-04
7.36000000e-01	1.22599475e-02	1.30704660e-04
7.37000000e-01	1.22328697e-02	1.30336144e-04
7.38000000e-01	1.23686293e-02	1.31893513e-04
7.39000000e-01	1.23233384e-02	1.31195242e-04
7.40000000e-01	1.23442726e-02	1.31115509e-04
7.41000000e-01	1.22761654e-02	1.30119425e-04
7.42000000e-01	1.23048510e-02	1.30560996e-04
7.43000000e-01	1.21928483e-02	1.30090983e-04
7.44000000e-01	1.22246835e-02	1.29576141e-04
7.45000000e-01	1.22206358e-02	1.29476729e-04
7.46000000e-01	1.21896067e-02	1.29686847e-04
7.47000000e-01	1.21668965e-02	1.29512640e-04
7.48000000e-01	1.21243505e-02	1.28476056e-04
7.49000000e-01	1.23321334e-02	1.31134000e-04
7.50000000e-01	1.21783079e-02	1.29518060e-04
7.51000000e-01	1.20828923e-02	1.28839055e-04
7.52000000e-01	1.20529938e-02	1.28117904e-04
7.53000000e-01	1.21845287e-02	1.29171511e-04
7.54000000e-01	1.22196620e-02	1.29860403e-04
7.55000000e-01	1.21911337e-02	1.29499031e-04
7.56000000e-01	1.20332161e-02	1.28150984e-04
7.57000000e-01	1.20498949e-02	1.28523863e-04
7.58000000e-01	1.21680642e-02	1.29120991e-04
7.59000000e-01	1.21054894e-02	1.28997590e-04
7.60000000e-01	1.20749309e-02	1.28231799e-04
7.61000000e-01	1.20364437e-02	1.27688503e-04
7.62000000e-01	1.21619382e-02	1.28639038e-04
7.63000000e-01	1.20632610e-02	1.27379189e-04
7.64000000e-01	1.20755235e-02	1.27680521e-04
7.65000000e-01	1.20198517e-02	1.26836173e-04
7.66000000e-01	1.19524056e-02	1.25895796e-04
7.67000000e-01	1.19011345e-02	1.25762607e-04
7.68000000e-01	1.20065888e-02	1.26156528e-04
7.69000000e-01	1.19861487e-02	1.26052555e-04
7.70000000e-01	1.19747587e-02	1.26167399e-04
7.71000000e-01	1.19552631e-02	1.25799618e-04
7.72000000e-01	1.19452369e-02	1.29615927e-04
7.73000000e-01	1.20040621e-02	1.34681630e-04
7.74000000e-01	1.19171141e-02	1.36823553e-04
7.75000000e-01	1.19159155e-02	1.38868219e-04
7.76000000e-01	1.19659045e-02	1.41286605e-04
7.77000000e-01	1.19683574e-02	1.43746860e-04
7.78000000e-01	1.19110509e-02	1.44634708e-04
7.79000000e-01	1.18205964e-02	1.45270736e-04
7.80000000e-01	1.19577854e-02	1.48952486e-04
7.81000000e-01	1.19007879e-02	1.50318855e-04
7.82000000e-01	1.19444214e-02	1.52024857e-04
7.83000000e-01	1.17293119e-02	1.50691331e-04
7.84000000e-01	1.17964403e-02	1.53263569e-04
7.85000000e-01	1.17007763e-02	1.53684604e-04
7.86000000e-01	1.17960954e-02	1.57032895e-04
7.87000000e-01	1.17515098e-02	1.57950178e-04
7.88000000e-01	1.18427943e-02	1.59547039e-04
7.89000000e-01	1.17187532e-02	1.60179337e-04
7.90000000e-01	1.17540037e-02	1.62936199e-04
7.91000000e-01	1.15143864e-02	1.61496458e-04
7.92000000e-01	1.15262863e-02	1.62695498e-04
7.93000000e-01	1.17849750e-02	1.67257808e-04
7.94000000e-01	1.17395327e-02	1.68872066e-04
7.95000000e-01	1.16153228e-02	1.69637575e-04
7.96000000e-01	1.15211502e-02	1.69667931e-04
7.97000000e-01	1.17875769e-02	1.74935297e-04
7.98000000e-01	1.17501396e-02	1.76598137e-04
7.99000000e-01	1.16087318e-02	1.75643309e-04
8.00000000e-01	1.16908581e-02	1.78330892e-04
8.01000000e-01	1.16486750e-02	1.80573203e-04
8.02000000e-01	1.15162523e-02	1.79597978e-04
8.03000000e-01	1.15214507e-02	1.82629984e-04
8.04000000e-01	1.17669552e-02	1.88470505e-04
8.05000000e-01	1.16273313e-02	1.88015937e-04
8.06000000e-01	1.14530271e-02	1.87853310e-04
8.07000000e-01	1.13872811e-02	1.86718995e-04
8.08000000e-01	1.15683298e-02	1.91997203e-04
8.09000000e-01	1.15610943e-02	1.93835382e-04
8.10000000e-01	1.15567634e-02	1.96213553e-04
8.11000000e-01	1.16960695e-02	2.00932552e-04
8.12000000e-01	1.15369306e-02	2.01310262e-04
8.13000000e-01	1.14658000e-02	2.01351928e-04
8.14000000e-01	1.14216980e-02	2.03516571e-04
8.15000000e-01	1.12605553e-02	2.04629789e-04
8.16000000e-01	1.15500241e-02	2.10643268e-04
8.17000000e-01	1.13155432e-02	2.08662094e-04
8.18000000e-01	1.13814746e-02	2.13892341e-04
8.19000000e-01	1.15871173e-02	2.20753085e-04
8.20000000e-01	1.13438899e-02	2.18333734e-04
8.21000000e-01	1.13219080e-02	2.20151102e-04
8.22000000e-01	1.12228370e-02	2.22571736e-04
8.23000000e-01	1.11784671e-02	2.25436826e-04
8.24000000e-01	1.15335211e-02	2.33588074e-04
8.25000000e-01	1.12492984e-02	2.31283817e-04
8.26000000e-01	1.13163576e-02	2.36588474e-04
8.27000000e-01	1.12020373e-02	2.37443225e-04
8.28000000e-01	1.11731998e-02	2.39335122e-04
8.29000000e-01	1.12047156e-02	2.43439748e-04
8.30000000e-01	1.13386153e-02	2.52516040e-04
8.31000000e-01	1.10488870e-02	2.48712696e-04
8.32000000e-01	1.08702778e-02	2.49962652e-04
8.33000000e-01	1.13286706e-02	2.62901349e-04
8.34000000e-01	1.10251832e-02	2.64286977e-04
8.35000000e-01	1.13178839e-02	2.72153660e-04
8.36000000e-01	1.15000255e-02	2.82613925e-04
8.37000000e-01	1.12201493e-02	2.82274055e-04
8.38000000e-01	1.10570442e-02	2.82252839e-04
8.39000000e-01	1.09791416e-02	2.86888851e-04
8.40000000e-01	1.13213832e-02	3.01666586e-04
8.41000000e-01	1.09152884e-02	3.01289857e-04
8.42000000e-01	1.07833684e-02	3.04220158e-04
8.43000000e-01	1.09550671e-02	3.14089061e-04
8.44000000e-01	1.10166015e-02	3.22211633e-04
8.45000000e-01	1.04323326e-02	3.14989604e-04
8.46000000e-01	1.09401726e-02	3.40210410e-04
8.47000000e-01	1.09283912e-02	3.47946805e-04
8.48000000e-01	1.06160615e-02	3.52430974e-04
8.49000000e-01	1.12075206e-02	3.75210692e-04
8.50000000e-01	1.08714599e-02	3.80700213e-04
8.51000000e-01	1.11123573e-02	4.05066718e-04
8.52000000e-01	1.06907034e-02	4.00225429e-04
8.53000000e-01	1.10013946e-02	4.36043700e-04
8.54000000e-01	1.05621581e-02	4.40812722e-04
8.55000000e-01	1.06995816e-02	4.59905458e-04
8.56000000e-01	1.07844681e-02	4.70163126e-04
8.57000000e-01	1.09373289e-02	4.91668997e-04
8.58000000e-01	1.08848441e-02	4.99223612e-04
8.59000000e-01	1.14571788e-02	5.47361460e-04
8.60000000e-01	1.03195000e-02	5.14544477e-04
8.61000000e-01	1.03054786e-02	5.26251219e-04
8.62000000e-01	1.08331209e-02	5.79307007e-04
8.63000000e-01	1.07045375e-02	5.81158409e-04
8.64000000e-01	1.03261689e-02	5.97962221e-04
8.65000000e-01	1.05033409e-02	6.38533890e-04
8.66000000e-01	9.93598491e-03	6.27261563e-04
8.67000000e-01	1.06579211e-02	7.23858756e-04
8.68000000e-01	1.00653601e-02	7.22638020e-04
8.69000000e-01	1.10794653e-02	8.58830714e-04
8.70000000e-01	1.03724647e-02	8.96587960e-04
8.71000000e-01	1.06452585e-02	9.95495768e-04
8.72000000e-01	1.10786816e-02	1.16752005e-03
8.73000000e-01	9.72250259e-03	1.23766435e-03
8.74000000e-01	1.06785251e-02	1.75207678e-03
8.75000000e-01	1.06789985e-02	3.50360647e-03
