% Filename : SDL5_p7_00025_00024.h5
% Date & Time : 30-Oct-2025 16:56:46
% X-ray Energy (keV) : 13.30001
% Exposure Time (s) : 0.500
% Beam Center : 1461.24000, 208.98300
% Sample to Detector Distance (SDD) (mm) : 1990.750
% Detector Pixel Size (mm) : 0.075
% Photodiode Value : 140965.000
% I0 of Sample : 0
% I0 of Standard : 1
% 
% q(A^-1)   I(q)    I(q)_SE
0.00000000e+00	1.15348185e-02	6.90187454e-03
2.50000000e-04	0.00000000e+00	0.00000000e+00
5.00000000e-04	0.00000000e+00	0.00000000e+00
7.50000000e-04	0.00000000e+00	0.00000000e+00
1.00000000e-03	0.00000000e+00	0.00000000e+00
1.25000000e-03	0.00000000e+00	0.00000000e+00
1.50000000e-03	0.00000000e+00	0.00000000e+00
1.75000000e-03	0.00000000e+00	0.00000000e+00
2.00000000e-03	0.00000000e+00	0.00000000e+00
2.25000000e-03	0.00000000e+00	0.00000000e+00
2.50000000e-03	0.00000000e+00	0.00000000e+00
2.75000000e-03	0.00000000e+00	0.00000000e+00
3.00000000e-03	0.00000000e+00	0.00000000e+00
3.25000000e-03	2.57865580e+01	1.49565076e+01
3.50000000e-03	1.31921017e+01	3.70466580e+00
3.75000000e-03	9.66898823e+00	2.32015033e+00
4.00000000e-03	8.06639460e+00	1.80810895e+00
4.25000000e-03	5.21068573e+00	9.97487287e-01
4.50000000e-03	7.93984166e+00	1.60620252e+00
4.75000000e-03	8.17344895e+00	1.60135483e+00
5.00000000e-03	6.31302807e+00	1.18405124e+00
5.25000000e-03	5.24848107e+00	9.56559850e-01
5.50000000e-03	4.22184763e+00	7.41378383e-01
5.75000000e-03	3.61415032e+00	6.08992426e-01
6.00000000e-03	2.87462173e+00	4.79210542e-01
6.25000000e-03	2.50648297e+00	4.05253030e-01
6.50000000e-03	2.07114825e+00	3.21764910e-01
6.75000000e-03	1.77393246e+00	2.74604134e-01
7.00000000e-03	1.56714735e+00	2.30121952e-01
7.25000000e-03	1.31368434e+00	1.89950654e-01
7.50000000e-03	1.09410976e+00	1.55696180e-01
7.75000000e-03	9.96728518e-01	1.41178909e-01
8.00000000e-03	9.12890846e-01	1.25714141e-01
8.25000000e-03	7.68202965e-01	1.02735777e-01
8.50000000e-03	6.90274833e-01	8.91679619e-02
8.75000000e-03	6.25243423e-01	8.11861347e-02
9.00000000e-03	5.46911862e-01	6.88273393e-02
9.25000000e-03	4.89428387e-01	6.13095051e-02
9.50000000e-03	4.35977018e-01	5.13663316e-02
9.75000000e-03	3.93483203e-01	4.64679698e-02
1.00000000e-02	3.44205283e-01	3.91039448e-02
1.02500000e-02	3.27761416e-01	3.88500319e-02
1.05000000e-02	2.99616035e-01	3.36143687e-02
1.07500000e-02	2.72394155e-01	3.03638557e-02
1.10000000e-02	2.49138531e-01	2.65029398e-02
1.12500000e-02	2.26116301e-01	2.43551055e-02
1.15000000e-02	2.15982085e-01	2.27539102e-02
1.17500000e-02	1.91899744e-01	1.97083359e-02
1.20000000e-02	1.81497910e-01	1.85986555e-02
1.22500000e-02	1.68020009e-01	1.64833946e-02
1.25000000e-02	1.57704889e-01	1.51722167e-02
1.27500000e-02	1.46460557e-01	1.39252608e-02
1.30000000e-02	1.36496023e-01	1.27073728e-02
1.32500000e-02	1.25948094e-01	1.13667122e-02
1.35000000e-02	1.20711425e-01	1.07643226e-02
1.37500000e-02	1.14521695e-01	9.94066789e-03
1.40000000e-02	1.08583096e-01	9.29519153e-03
1.42500000e-02	9.91460512e-02	8.37516015e-03
1.45000000e-02	9.67441480e-02	7.87674903e-03
1.47500000e-02	8.91348048e-02	7.04655921e-03
1.50000000e-02	8.72032730e-02	6.91831901e-03
1.52500000e-02	8.05404444e-02	6.43196737e-03
1.55000000e-02	7.60124439e-02	5.75899689e-03
1.57500000e-02	7.42946611e-02	5.52465549e-03
1.60000000e-02	6.93733656e-02	5.10877675e-03
1.62500000e-02	6.58763652e-02	4.85799247e-03
1.65000000e-02	6.44922453e-02	4.56273913e-03
1.67500000e-02	6.33472319e-02	4.38844295e-03
1.70000000e-02	5.91545687e-02	4.08492697e-03
1.72500000e-02	5.64445726e-02	3.83307920e-03
1.75000000e-02	5.47920224e-02	3.75642140e-03
1.77500000e-02	5.34604407e-02	3.46305722e-03
1.80000000e-02	5.14779364e-02	3.28257221e-03
1.82500000e-02	4.96963087e-02	3.06138564e-03
1.85000000e-02	4.79504772e-02	3.12045754e-03
1.87500000e-02	4.76653367e-02	2.91836221e-03
1.90000000e-02	4.68117356e-02	2.80781949e-03
1.92500000e-02	4.55883967e-02	2.81325440e-03
1.95000000e-02	4.28876406e-02	2.54394323e-03
1.97500000e-02	4.25555941e-02	2.47257627e-03
2.00000000e-02	4.24462710e-02	2.46579357e-03
2.02500000e-02	4.05390129e-02	2.34810942e-03
2.05000000e-02	4.05163614e-02	2.24109854e-03
2.07500000e-02	3.91058659e-02	2.18363111e-03
2.10000000e-02	3.94145689e-02	2.17342398e-03
2.12500000e-02	3.89310248e-02	2.15907913e-03
2.15000000e-02	3.77475715e-02	2.09009127e-03
2.17500000e-02	3.90040940e-02	2.11915057e-03
2.20000000e-02	3.67055933e-02	2.01285017e-03
2.22500000e-02	3.64029780e-02	1.95482591e-03
2.25000000e-02	3.64194394e-02	2.00861757e-03
2.27500000e-02	3.56759115e-02	1.89650912e-03
2.30000000e-02	3.59358943e-02	1.92564750e-03
2.32500000e-02	3.46770951e-02	1.80111574e-03
2.35000000e-02	3.41397693e-02	1.81518547e-03
2.37500000e-02	3.36436755e-02	1.79042206e-03
2.40000000e-02	3.31388878e-02	1.75847581e-03
2.42500000e-02	3.28138486e-02	1.72236159e-03
2.45000000e-02	3.23629428e-02	1.68494214e-03
2.47500000e-02	3.26762305e-02	1.70281040e-03
2.50000000e-02	3.09291976e-02	1.60266837e-03
2.52500000e-02	3.20047476e-02	1.64022282e-03
2.55000000e-02	3.01776736e-02	1.54721996e-03
2.57500000e-02	2.99687764e-02	1.52708624e-03
2.60000000e-02	3.05343358e-02	1.54434247e-03
2.62500000e-02	2.99583145e-02	1.52169365e-03
2.65000000e-02	3.00781812e-02	1.49877596e-03
2.67500000e-02	3.01653471e-02	1.52078546e-03
2.70000000e-02	2.84885134e-02	1.41048620e-03
2.72500000e-02	2.91672204e-02	1.44901522e-03
2.75000000e-02	2.93265747e-02	1.47716975e-03
2.77500000e-02	2.81832707e-02	1.43059327e-03
2.80000000e-02	2.81075692e-02	1.35532451e-03
2.82500000e-02	2.81039986e-02	1.37495375e-03
2.85000000e-02	2.79974279e-02	1.35398025e-03
2.87500000e-02	2.82972125e-02	1.37827606e-03
2.90000000e-02	2.82682228e-02	1.38196750e-03
2.92500000e-02	2.86052488e-02	1.34815262e-03
2.95000000e-02	2.82278305e-02	1.36599571e-03
2.97500000e-02	2.74853632e-02	1.30800857e-03
3.00000000e-02	2.79144048e-02	1.33926980e-03
3.02500000e-02	2.77906871e-02	1.33780328e-03
3.05000000e-02	2.66241234e-02	1.24749839e-03
3.07500000e-02	2.79365040e-02	1.32775546e-03
3.10000000e-02	2.86777313e-02	1.35330595e-03
3.12500000e-02	2.68688286e-02	1.28049242e-03
3.15000000e-02	2.69484147e-02	1.27198333e-03
3.17500000e-02	2.65019071e-02	1.23332683e-03
3.20000000e-02	2.68348629e-02	1.25951289e-03
3.22500000e-02	2.73325565e-02	1.28252619e-03
3.25000000e-02	2.57954798e-02	1.20864201e-03
3.27500000e-02	2.48409560e-02	1.16120429e-03
3.30000000e-02	2.58808281e-02	1.19363498e-03
3.32500000e-02	2.51733335e-02	1.15794620e-03
3.35000000e-02	2.67284708e-02	1.23986048e-03
3.37500000e-02	2.52688133e-02	1.15927976e-03
3.40000000e-02	2.48520669e-02	1.15172495e-03
3.42500000e-02	2.60282106e-02	1.18543187e-03
3.45000000e-02	2.51814208e-02	1.16590164e-03
3.47500000e-02	2.54611106e-02	1.15454660e-03
3.50000000e-02	2.50762092e-02	1.14746088e-03
3.52500000e-02	2.50082785e-02	1.12853049e-03
3.55000000e-02	2.51067052e-02	1.13767659e-03
3.57500000e-02	2.46360434e-02	1.12003834e-03
3.60000000e-02	2.40436085e-02	1.09141570e-03
3.62500000e-02	2.50670096e-02	1.12305379e-03
3.65000000e-02	2.42108344e-02	1.09117286e-03
3.67500000e-02	2.45727349e-02	1.10838414e-03
3.70000000e-02	2.32897867e-02	1.04052825e-03
3.72500000e-02	2.34609248e-02	1.04629987e-03
3.75000000e-02	2.41146085e-02	1.07832918e-03
3.77500000e-02	2.37640071e-02	1.05840927e-03
3.80000000e-02	2.34509856e-02	1.03396069e-03
3.82500000e-02	2.37832864e-02	1.04307278e-03
3.85000000e-02	2.35886732e-02	1.05353191e-03
3.87500000e-02	2.37732975e-02	1.05019101e-03
3.90000000e-02	2.33839994e-02	1.03927513e-03
3.92500000e-02	2.43482742e-02	1.05247819e-03
3.95000000e-02	2.29310556e-02	1.01480912e-03
3.97500000e-02	2.26918107e-02	9.96661241e-04
4.00000000e-02	2.25389308e-02	9.81924515e-04
4.02500000e-02	2.32324371e-02	1.01287983e-03
4.05000000e-02	2.29266971e-02	9.89727093e-04
4.07500000e-02	2.30465195e-02	9.84545456e-04
4.10000000e-02	2.29953259e-02	1.00098802e-03
4.12500000e-02	2.30393669e-02	9.96381075e-04
4.15000000e-02	2.28697562e-02	9.77432232e-04
4.17500000e-02	2.38959031e-02	1.01775033e-03
4.20000000e-02	2.26995161e-02	9.58141029e-04
4.22500000e-02	2.32714136e-02	9.80030317e-04
4.25000000e-02	2.22032950e-02	9.41092942e-04
4.27500000e-02	2.25145189e-02	9.48864891e-04
4.30000000e-02	2.26791626e-02	9.64590207e-04
4.32500000e-02	2.25252092e-02	9.46510153e-04
4.35000000e-02	2.21534588e-02	9.38819977e-04
4.37500000e-02	2.25460736e-02	9.40499820e-04
4.40000000e-02	2.23003681e-02	9.38387251e-04
4.42500000e-02	2.20431358e-02	9.32923956e-04
4.45000000e-02	2.29882339e-02	9.51836750e-04
4.47500000e-02	2.25739650e-02	9.39436409e-04
4.50000000e-02	2.27561256e-02	9.45029147e-04
4.52500000e-02	2.26330991e-02	9.45252627e-04
4.55000000e-02	2.28906278e-02	9.44704606e-04
4.57500000e-02	2.27281100e-02	9.30437876e-04
4.60000000e-02	2.19984768e-02	9.07033262e-04
4.62500000e-02	2.19122825e-02	9.11039355e-04
4.65000000e-02	2.26264825e-02	9.23518682e-04
4.67500000e-02	2.14768630e-02	8.81388143e-04
4.70000000e-02	2.21774482e-02	9.09205439e-04
4.72500000e-02	2.22612991e-02	9.03552929e-04
4.75000000e-02	2.19779043e-02	9.02265187e-04
4.77500000e-02	2.14531977e-02	8.78786515e-04
4.80000000e-02	2.19423257e-02	8.91200102e-04
4.82500000e-02	2.22033815e-02	8.99577498e-04
4.85000000e-02	2.15421342e-02	8.78317618e-04
4.87500000e-02	2.23165635e-02	8.99751244e-04
4.90000000e-02	2.06144610e-02	8.26454668e-04
4.92500000e-02	2.20192680e-02	8.85193752e-04
4.95000000e-02	2.14919975e-02	8.64769349e-04
4.97500000e-02	2.16379287e-02	8.76952806e-04
5.00000000e-02	2.24995568e-02	9.00315139e-04
5.02500000e-02	2.17771588e-02	8.55104519e-04
5.05000000e-02	2.20252645e-02	8.75592692e-04
5.07500000e-02	2.19867918e-02	8.82044507e-04
5.10000000e-02	2.14870048e-02	8.52495611e-04
5.12500000e-02	2.16536136e-02	8.58322838e-04
5.15000000e-02	2.14596251e-02	8.39670334e-04
5.17500000e-02	2.12546869e-02	8.39157125e-04
5.20000000e-02	2.13736981e-02	8.40818876e-04
5.22500000e-02	2.18358407e-02	8.67600641e-04
5.25000000e-02	2.19561164e-02	8.56929626e-04
5.27500000e-02	2.19008269e-02	8.52244127e-04
5.30000000e-02	2.15724840e-02	8.46330170e-04
5.32500000e-02	2.17425777e-02	8.57137945e-04
5.35000000e-02	2.15591727e-02	8.46254556e-04
5.37500000e-02	2.15484789e-02	8.34494693e-04
5.40000000e-02	2.16236344e-02	8.38407192e-04
5.42500000e-02	2.15897577e-02	8.36762209e-04
5.45000000e-02	2.12634873e-02	8.23609661e-04
5.47500000e-02	2.13939638e-02	8.19868312e-04
5.50000000e-02	2.08212051e-02	8.13143543e-04
5.52500000e-02	2.17140992e-02	8.34026379e-04
5.55000000e-02	2.07531615e-02	7.95124651e-04
5.57500000e-02	2.07872465e-02	8.02000645e-04
5.60000000e-02	2.07899864e-02	7.94887009e-04
5.62500000e-02	2.09236547e-02	8.03127324e-04
5.65000000e-02	2.10607797e-02	7.98593394e-04
5.67500000e-02	2.11464341e-02	8.03313698e-04
5.70000000e-02	2.11625717e-02	8.04850930e-04
5.72500000e-02	2.15749667e-02	8.21824103e-04
5.75000000e-02	2.11402121e-02	8.06492462e-04
5.77500000e-02	2.15258152e-02	8.10330026e-04
5.80000000e-02	2.03530716e-02	7.75201739e-04
5.82500000e-02	2.07664901e-02	7.81568696e-04
5.85000000e-02	2.12512389e-02	8.04207481e-04
5.87500000e-02	2.10825663e-02	7.85946096e-04
5.90000000e-02	2.11033605e-02	7.88895754e-04
5.92500000e-02	2.07214421e-02	7.88576413e-04
5.95000000e-02	2.02072000e-02	7.62255644e-04
5.97500000e-02	2.11633173e-02	7.94212037e-04
6.00000000e-02	2.09685094e-02	7.85417514e-04
6.02500000e-02	2.12985443e-02	7.93114857e-04
6.05000000e-02	2.09765469e-02	7.75771858e-04
6.07500000e-02	2.08184223e-02	7.76511037e-04
6.10000000e-02	2.05579959e-02	7.64742920e-04
6.12500000e-02	2.04395673e-02	7.51622454e-04
6.15000000e-02	2.09691998e-02	7.70865710e-04
6.17500000e-02	2.07959859e-02	7.63797631e-04
6.20000000e-02	2.10140516e-02	7.79166413e-04
6.22500000e-02	2.03750477e-02	7.50824730e-04
6.25000000e-02	2.08242336e-02	7.71483265e-04
6.27500000e-02	2.04006311e-02	7.41307774e-04
6.30000000e-02	2.07180593e-02	7.52421827e-04
6.32500000e-02	2.06752198e-02	7.51811985e-04
6.35000000e-02	2.04706298e-02	7.46040266e-04
6.37500000e-02	2.15217753e-02	7.79739419e-04
6.40000000e-02	2.08191156e-02	7.54394400e-04
6.42500000e-02	2.03135034e-02	7.35413467e-04
6.45000000e-02	2.04979184e-02	7.38043140e-04
6.47500000e-02	2.05696719e-02	7.42920952e-04
6.50000000e-02	2.05882822e-02	7.49978819e-04
6.52500000e-02	2.10435082e-02	7.58461158e-04
6.55000000e-02	2.02960546e-02	7.30042268e-04
6.57500000e-02	2.07720175e-02	7.44631665e-04
6.60000000e-02	1.99847246e-02	7.14181877e-04
6.62500000e-02	2.04254445e-02	7.30742261e-04
6.65000000e-02	2.04587731e-02	7.32400586e-04
6.67500000e-02	2.03663185e-02	7.19680356e-04
6.70000000e-02	2.03290561e-02	7.22452686e-04
6.72500000e-02	1.99849292e-02	7.16371786e-04
6.75000000e-02	2.07696239e-02	7.33746447e-04
6.77500000e-02	2.00052136e-02	7.08851018e-04
6.80000000e-02	2.00762426e-02	7.19856563e-04
6.82500000e-02	2.06985804e-02	7.37953183e-04
6.85000000e-02	2.04561368e-02	7.30311842e-04
6.87500000e-02	2.05529129e-02	7.21477278e-04
6.90000000e-02	2.04605357e-02	7.23009048e-04
6.92500000e-02	2.08210431e-02	7.32695490e-04
6.95000000e-02	2.10479935e-02	7.40488437e-04
6.97500000e-02	2.04214326e-02	7.15473784e-04
7.00000000e-02	2.03234243e-02	7.13931297e-04
7.02500000e-02	2.02731273e-02	7.15314521e-04
7.05000000e-02	2.04512007e-02	7.10904500e-04
7.07500000e-02	2.08179334e-02	7.25245566e-04
7.10000000e-02	2.05901267e-02	7.11164348e-04
7.12500000e-02	2.01842349e-02	7.03514781e-04
7.15000000e-02	2.05323231e-02	7.07582405e-04
7.17500000e-02	2.06065827e-02	7.11495833e-04
7.20000000e-02	1.99617688e-02	6.93163364e-04
7.22500000e-02	2.02062830e-02	6.97734000e-04
7.25000000e-02	2.03146034e-02	7.04784660e-04
7.27500000e-02	2.02439239e-02	7.03005105e-04
7.30000000e-02	2.05331403e-02	7.09492960e-04
7.32500000e-02	1.96580591e-02	6.75374527e-04
7.35000000e-02	2.04549040e-02	6.98028114e-04
7.37500000e-02	2.03181076e-02	6.93537720e-04
7.40000000e-02	2.02771371e-02	6.92038012e-04
7.42500000e-02	1.97329395e-02	6.73301456e-04
7.45000000e-02	2.01449028e-02	6.89353593e-04
7.47500000e-02	2.02874501e-02	6.92090288e-04
7.50000000e-02	2.04906787e-02	7.00087661e-04
7.52500000e-02	2.09485196e-02	7.08061521e-04
7.55000000e-02	1.97164157e-02	6.71151988e-04
7.57500000e-02	2.01199994e-02	6.81606055e-04
7.60000000e-02	2.03127092e-02	6.86405514e-04
7.62500000e-02	2.08490340e-02	7.03625041e-04
7.65000000e-02	2.02930347e-02	6.92527894e-04
7.67500000e-02	1.98915193e-02	6.69408547e-04
7.70000000e-02	2.00366022e-02	6.69677738e-04
7.72500000e-02	1.98272725e-02	6.74377798e-04
7.75000000e-02	1.99674727e-02	6.87014963e-04
7.77500000e-02	2.05322747e-02	7.14364710e-04
7.80000000e-02	2.02828032e-02	7.06273034e-04
7.82500000e-02	2.04842707e-02	7.16552205e-04
7.85000000e-02	2.00462640e-02	7.10329784e-04
7.87500000e-02	2.02291095e-02	7.13908305e-04
7.90000000e-02	2.00365502e-02	7.09462586e-04
7.92500000e-02	2.04709613e-02	7.25171855e-04
7.95000000e-02	2.01030158e-02	7.15286214e-04
7.97500000e-02	2.05518085e-02	7.31007361e-04
8.00000000e-02	2.03997804e-02	7.31097075e-04
8.02500000e-02	1.97232601e-02	7.10633309e-04
8.05000000e-02	2.04989080e-02	7.34008857e-04
8.07500000e-02	2.05944659e-02	7.38316338e-04
8.10000000e-02	1.97199177e-02	7.10818434e-04
8.12500000e-02	1.99021906e-02	7.22764540e-04
8.15000000e-02	2.00277527e-02	7.22574488e-04
8.17500000e-02	2.03619712e-02	7.31362989e-04
8.20000000e-02	1.99913102e-02	7.22935968e-04
8.22500000e-02	2.05379316e-02	7.48450584e-04
8.25000000e-02	1.98049880e-02	7.29046858e-04
8.27500000e-02	1.98168120e-02	7.19301528e-04
8.30000000e-02	2.05223684e-02	7.48454647e-04
8.32500000e-02	2.06048125e-02	7.56884092e-04
8.35000000e-02	2.06633169e-02	7.58358026e-04
8.37500000e-02	1.99013614e-02	7.29627905e-04
8.40000000e-02	2.00291016e-02	7.27845897e-04
8.42500000e-02	2.09640804e-02	7.68588225e-04
8.45000000e-02	1.96039180e-02	7.22846531e-04
8.47500000e-02	2.05006529e-02	7.60458393e-04
8.50000000e-02	2.03914595e-02	7.45929185e-04
8.52500000e-02	2.08953832e-02	7.74114246e-04
8.55000000e-02	1.99643421e-02	7.39663011e-04
8.57500000e-02	1.97932960e-02	7.34955241e-04
8.60000000e-02	1.99308229e-02	7.42363787e-04
8.62500000e-02	2.01885048e-02	7.45339895e-04
8.65000000e-02	2.02270727e-02	7.49625079e-04
8.67500000e-02	2.02408595e-02	7.50099421e-04
8.70000000e-02	2.04742851e-02	7.44172601e-04
8.72500000e-02	1.99051695e-02	7.11434204e-04
8.75000000e-02	2.01224435e-02	7.14473932e-04
8.77500000e-02	2.02692094e-02	7.10916547e-04
8.80000000e-02	2.05180303e-02	7.16680838e-04
8.82500000e-02	2.00609517e-02	6.99651123e-04
8.85000000e-02	2.04282186e-02	7.13009139e-04
8.87500000e-02	2.08368670e-02	7.11779432e-04
8.90000000e-02	2.02855317e-02	6.98322541e-04
8.92500000e-02	2.03202593e-02	6.92582133e-04
8.95000000e-02	2.01869929e-02	6.93216543e-04
8.97500000e-02	1.95971511e-02	6.68072149e-04
9.00000000e-02	1.99929040e-02	6.74145935e-04
9.02500000e-02	1.93737653e-02	6.60279288e-04
9.05000000e-02	1.99421678e-02	6.79168361e-04
9.07500000e-02	2.02215144e-02	6.83965356e-04
9.10000000e-02	1.93337449e-02	6.53629545e-04
9.12500000e-02	1.98402972e-02	6.65343958e-04
9.15000000e-02	2.01595350e-02	6.74652008e-04
9.17500000e-02	1.97809358e-02	6.68305363e-04
9.20000000e-02	1.94853235e-02	6.50565735e-04
9.22500000e-02	2.03340195e-02	6.75830538e-04
9.25000000e-02	2.01076344e-02	6.64795899e-04
9.27500000e-02	1.97909910e-02	6.53756913e-04
9.30000000e-02	2.01468420e-02	6.65751815e-04
9.32500000e-02	2.04463978e-02	6.75176525e-04
9.35000000e-02	2.02617404e-02	6.64882576e-04
9.37500000e-02	1.97182965e-02	6.50842670e-04
9.40000000e-02	1.96164142e-02	6.47949835e-04
9.42500000e-02	2.03185012e-02	6.68365081e-04
9.45000000e-02	1.98019921e-02	6.42922394e-04
9.47500000e-02	2.01859384e-02	6.55133863e-04
9.50000000e-02	2.02478788e-02	6.54767289e-04
9.52500000e-02	2.03277852e-02	6.58357793e-04
9.55000000e-02	2.00443526e-02	6.49325979e-04
9.57500000e-02	1.97749769e-02	6.47719218e-04
9.60000000e-02	1.98478775e-02	6.40908755e-04
9.62500000e-02	1.96191383e-02	6.33675944e-04
9.65000000e-02	1.99360168e-02	6.43150716e-04
9.67500000e-02	2.01468386e-02	6.45886284e-04
9.70000000e-02	1.99735972e-02	6.50651951e-04
9.72500000e-02	1.96820736e-02	6.34025085e-04
9.75000000e-02	1.97183886e-02	6.32127857e-04
9.77500000e-02	1.98046180e-02	6.32867070e-04
9.80000000e-02	1.95869548e-02	6.27062966e-04
9.82500000e-02	2.03003016e-02	6.46231693e-04
9.85000000e-02	1.97602914e-02	6.32006276e-04
9.87500000e-02	2.01154273e-02	6.38308328e-04
9.90000000e-02	1.98740373e-02	6.30755175e-04
9.92500000e-02	1.94619724e-02	6.18077381e-04
9.95000000e-02	1.98907854e-02	6.28906258e-04
9.97500000e-02	2.02977489e-02	6.41434153e-04
1.00000000e-01	1.96237236e-02	5.03386305e-04
1.00500000e-01	1.95289192e-02	4.38318141e-04
1.01000000e-01	2.01906607e-02	4.45093686e-04
1.01500000e-01	1.99029590e-02	4.40772898e-04
1.02000000e-01	1.97316991e-02	4.36832384e-04
1.02500000e-01	1.98397905e-02	4.33366423e-04
1.03000000e-01	1.98298713e-02	4.35776108e-04
1.03500000e-01	1.99992289e-02	4.38540854e-04
1.04000000e-01	1.98114474e-02	4.32926004e-04
1.04500000e-01	1.97744199e-02	4.31472950e-04
1.05000000e-01	1.97566329e-02	4.26369937e-04
1.05500000e-01	1.98931244e-02	4.30352127e-04
1.06000000e-01	1.99123775e-02	4.30117567e-04
1.06500000e-01	2.02339576e-02	4.36731913e-04
1.07000000e-01	2.01421898e-02	4.39226297e-04
1.07500000e-01	1.97801800e-02	4.37685224e-04
1.08000000e-01	1.96819863e-02	4.39207102e-04
1.08500000e-01	1.95906916e-02	4.43931825e-04
1.09000000e-01	2.02437529e-02	4.57633458e-04
1.09500000e-01	1.95837494e-02	4.45330213e-04
1.10000000e-01	1.95897097e-02	4.43679885e-04
1.10500000e-01	1.94016886e-02	4.30303395e-04
1.11000000e-01	1.98799434e-02	4.31402770e-04
1.11500000e-01	1.97681048e-02	4.27006659e-04
1.12000000e-01	1.94758369e-02	4.15764791e-04
1.12500000e-01	1.99933262e-02	4.24857953e-04
1.13000000e-01	1.96420249e-02	4.17443756e-04
1.13500000e-01	1.96999397e-02	4.18602242e-04
1.14000000e-01	1.95428120e-02	4.10601358e-04
1.14500000e-01	1.97970091e-02	4.14008026e-04
1.15000000e-01	1.96573612e-02	4.09808794e-04
1.15500000e-01	1.98741342e-02	4.14066893e-04
1.16000000e-01	1.96146805e-02	4.08546320e-04
1.16500000e-01	1.97640719e-02	4.09876628e-04
1.17000000e-01	1.97547730e-02	4.10951627e-04
1.17500000e-01	1.97652636e-02	4.08735903e-04
1.18000000e-01	2.02019066e-02	4.17551127e-04
1.18500000e-01	1.96060896e-02	4.03369696e-04
1.19000000e-01	1.98691233e-02	4.07512443e-04
1.19500000e-01	1.97570543e-02	4.04408424e-04
1.20000000e-01	1.93784721e-02	3.95295469e-04
1.20500000e-01	1.98467680e-02	4.02857745e-04
1.21000000e-01	1.97440002e-02	4.03486759e-04
1.21500000e-01	1.96708330e-02	3.96879533e-04
1.22000000e-01	1.96868130e-02	3.97212057e-04
1.22500000e-01	2.00150153e-02	4.03198419e-04
1.23000000e-01	1.97341158e-02	3.98485536e-04
1.23500000e-01	1.96591302e-02	3.94596549e-04
1.24000000e-01	1.98786202e-02	3.98676664e-04
1.24500000e-01	1.97246680e-02	3.94802820e-04
1.25000000e-01	1.98786098e-02	3.96033840e-04
1.25500000e-01	1.97467606e-02	3.90803856e-04
1.26000000e-01	1.96483735e-02	3.89153749e-04
1.26500000e-01	1.98383295e-02	3.94602387e-04
1.27000000e-01	1.98501369e-02	3.91073342e-04
1.27500000e-01	2.01504272e-02	3.97205785e-04
1.28000000e-01	1.96078121e-02	3.87076316e-04
1.28500000e-01	1.98567925e-02	3.89103779e-04
1.29000000e-01	1.97560210e-02	3.87376290e-04
1.29500000e-01	1.95294368e-02	3.82023778e-04
1.30000000e-01	1.96255491e-02	3.83138929e-04
1.30500000e-01	1.96279209e-02	3.81968594e-04
1.31000000e-01	1.94866753e-02	3.79324725e-04
1.31500000e-01	1.97944515e-02	3.85014783e-04
1.32000000e-01	1.96593904e-02	3.80430957e-04
1.32500000e-01	1.96350708e-02	3.79494895e-04
1.33000000e-01	1.93323974e-02	3.72417042e-04
1.33500000e-01	1.97775367e-02	3.79176789e-04
1.34000000e-01	1.97106988e-02	3.77470122e-04
1.34500000e-01	1.94805023e-02	3.70724649e-04
1.35000000e-01	1.96253890e-02	3.73197580e-04
1.35500000e-01	1.98414676e-02	3.77474357e-04
1.36000000e-01	1.97043900e-02	3.71853856e-04
1.36500000e-01	1.95923829e-02	3.70514250e-04
1.37000000e-01	1.99875203e-02	3.77070840e-04
1.37500000e-01	1.99235874e-02	3.75318092e-04
1.38000000e-01	1.97054556e-02	3.72189825e-04
1.38500000e-01	1.92288717e-02	3.65813848e-04
1.39000000e-01	1.95993720e-02	3.69476630e-04
1.39500000e-01	1.95869461e-02	3.66879903e-04
1.40000000e-01	1.97450728e-02	3.72192169e-04
1.40500000e-01	1.96880508e-02	3.70509062e-04
1.41000000e-01	1.95829139e-02	3.69299215e-04
1.41500000e-01	1.95440827e-02	3.67752642e-04
1.42000000e-01	1.94460722e-02	3.61890222e-04
1.42500000e-01	1.94908191e-02	3.64315818e-04
1.43000000e-01	1.97172503e-02	3.68550227e-04
1.43500000e-01	1.93991446e-02	3.60460567e-04
1.44000000e-01	1.97105958e-02	3.65314009e-04
1.44500000e-01	1.95422399e-02	3.60521380e-04
1.45000000e-01	1.95142236e-02	3.63172403e-04
1.45500000e-01	1.93521110e-02	3.58766058e-04
1.46000000e-01	1.96872149e-02	3.63186836e-04
1.46500000e-01	1.97008283e-02	3.63173519e-04
1.47000000e-01	1.92569254e-02	3.54261793e-04
1.47500000e-01	1.93814870e-02	3.56366064e-04
1.48000000e-01	1.90861776e-02	3.51207731e-04
1.48500000e-01	1.93319318e-02	3.54682922e-04
1.49000000e-01	1.93941750e-02	3.53854557e-04
1.49500000e-01	1.93592293e-02	3.53874976e-04
1.50000000e-01	1.93932954e-02	3.51975979e-04
1.50500000e-01	1.94689905e-02	3.54960847e-04
1.51000000e-01	1.94508763e-02	3.51681078e-04
1.51500000e-01	1.92547571e-02	3.50428110e-04
1.52000000e-01	1.94730725e-02	3.50330049e-04
1.52500000e-01	1.94993999e-02	3.50069948e-04
1.53000000e-01	1.90691114e-02	3.45055880e-04
1.53500000e-01	1.91438531e-02	3.44210254e-04
1.54000000e-01	1.91196931e-02	3.42816094e-04
1.54500000e-01	1.93446233e-02	3.52257133e-04
1.55000000e-01	1.90932384e-02	3.52719609e-04
1.55500000e-01	1.93683957e-02	3.61337690e-04
1.56000000e-01	1.94243531e-02	3.65132130e-04
1.56500000e-01	1.93026962e-02	3.61020580e-04
1.57000000e-01	1.94582457e-02	3.65548866e-04
1.57500000e-01	1.91431232e-02	3.53033455e-04
1.58000000e-01	1.86937304e-02	3.39103717e-04
1.58500000e-01	1.91210544e-02	3.44566544e-04
1.59000000e-01	1.91512582e-02	3.44796054e-04
1.59500000e-01	1.87963717e-02	3.38486232e-04
1.60000000e-01	1.89761813e-02	3.40640737e-04
1.60500000e-01	1.91966276e-02	3.40496103e-04
1.61000000e-01	1.92708143e-02	3.42669555e-04
1.61500000e-01	1.92416155e-02	3.40882256e-04
1.62000000e-01	1.90745011e-02	3.38255024e-04
1.62500000e-01	1.87979904e-02	3.33865470e-04
1.63000000e-01	1.92131085e-02	3.36635411e-04
1.63500000e-01	1.90830628e-02	3.37158897e-04
1.64000000e-01	1.93619938e-02	3.39763322e-04
1.64500000e-01	1.92449394e-02	3.39464974e-04
1.65000000e-01	1.91763820e-02	3.35699604e-04
1.65500000e-01	1.86615829e-02	3.27522117e-04
1.66000000e-01	1.92021147e-02	3.36942286e-04
1.66500000e-01	1.92744686e-02	3.35701708e-04
1.67000000e-01	1.89842078e-02	3.31649828e-04
1.67500000e-01	1.89515515e-02	3.30344855e-04
1.68000000e-01	1.90785588e-02	3.31471954e-04
1.68500000e-01	1.90820523e-02	3.29766498e-04
1.69000000e-01	1.88862040e-02	3.27656329e-04
1.69500000e-01	1.89015016e-02	3.26537094e-04
1.70000000e-01	1.87534560e-02	3.22280670e-04
1.70500000e-01	1.88754192e-02	3.25774076e-04
1.71000000e-01	1.89449587e-02	3.27269534e-04
1.71500000e-01	1.88793615e-02	3.25977477e-04
1.72000000e-01	1.89303298e-02	3.24880358e-04
1.72500000e-01	1.89316019e-02	3.25221944e-04
1.73000000e-01	1.90439797e-02	3.24931604e-04
1.73500000e-01	1.88476151e-02	3.20278847e-04
1.74000000e-01	1.86908569e-02	3.18057557e-04
1.74500000e-01	1.87975799e-02	3.19150769e-04
1.75000000e-01	1.88701154e-02	3.18287166e-04
1.75500000e-01	1.84185448e-02	3.12921414e-04
1.76000000e-01	1.90345484e-02	3.20590839e-04
1.76500000e-01	1.89629336e-02	3.18134531e-04
1.77000000e-01	1.86926202e-02	3.14365385e-04
1.77500000e-01	1.87161631e-02	3.15527943e-04
1.78000000e-01	1.88451709e-02	3.17670431e-04
1.78500000e-01	1.90753636e-02	3.21265770e-04
1.79000000e-01	1.86262923e-02	3.13337650e-04
1.79500000e-01	1.86457432e-02	3.12600342e-04
1.80000000e-01	1.83103956e-02	3.08202045e-04
1.80500000e-01	1.87950668e-02	3.13831363e-04
1.81000000e-01	1.86902676e-02	3.13649883e-04
1.81500000e-01	1.87000493e-02	3.10645742e-04
1.82000000e-01	1.86757223e-02	3.12404222e-04
1.82500000e-01	1.85180168e-02	3.08279104e-04
1.83000000e-01	1.85581954e-02	3.10532421e-04
1.83500000e-01	1.87517682e-02	3.11027498e-04
1.84000000e-01	1.85922190e-02	3.07735130e-04
1.84500000e-01	1.85657567e-02	3.09633242e-04
1.85000000e-01	1.88208251e-02	3.10519084e-04
1.85500000e-01	1.86151392e-02	3.08675356e-04
1.86000000e-01	1.88434838e-02	3.10576906e-04
1.86500000e-01	1.87649937e-02	3.10604421e-04
1.87000000e-01	1.86876921e-02	3.06632570e-04
1.87500000e-01	1.84085629e-02	3.02343214e-04
1.88000000e-01	1.87261426e-02	3.08633839e-04
1.88500000e-01	1.84647039e-02	3.02652934e-04
1.89000000e-01	1.84140710e-02	3.01225432e-04
1.89500000e-01	1.85873827e-02	3.04654011e-04
1.90000000e-01	1.85028002e-02	3.02095000e-04
1.90500000e-01	1.84098719e-02	3.02096357e-04
1.91000000e-01	1.85168180e-02	3.00875262e-04
1.91500000e-01	1.86688037e-02	3.04004984e-04
1.92000000e-01	1.86688447e-02	3.03340551e-04
1.92500000e-01	1.84612899e-02	2.99897939e-04
1.93000000e-01	1.84468425e-02	2.98528865e-04
1.93500000e-01	1.81815617e-02	2.94367897e-04
1.94000000e-01	1.83554754e-02	2.99297731e-04
1.94500000e-01	1.85480849e-02	2.99067901e-04
1.95000000e-01	1.84082308e-02	2.98258212e-04
1.95500000e-01	1.84746192e-02	2.98581604e-04
1.96000000e-01	1.84691674e-02	2.98123587e-04
1.96500000e-01	1.84296272e-02	2.96368266e-04
1.97000000e-01	1.83940442e-02	2.95577437e-04
1.97500000e-01	1.84436985e-02	2.95353499e-04
1.98000000e-01	1.84666062e-02	2.95796605e-04
1.98500000e-01	1.81915781e-02	2.91661419e-04
1.99000000e-01	1.83067834e-02	2.93068553e-04
1.99500000e-01	1.83435688e-02	2.92781134e-04
2.00000000e-01	1.81586265e-02	2.90099380e-04
2.00500000e-01	1.83815308e-02	2.92385063e-04
2.01000000e-01	1.82029355e-02	2.89108779e-04
2.01500000e-01	1.81824136e-02	2.88782977e-04
2.02000000e-01	1.79854266e-02	2.86390476e-04
2.02500000e-01	1.83641057e-02	2.91601488e-04
2.03000000e-01	1.84363587e-02	2.91380799e-04
2.03500000e-01	1.79572946e-02	2.84466086e-04
2.04000000e-01	1.83153507e-02	2.90479082e-04
2.04500000e-01	1.84396394e-02	2.91407440e-04
2.05000000e-01	1.82464736e-02	2.87193550e-04
2.05500000e-01	1.81843326e-02	2.87253944e-04
2.06000000e-01	1.80152677e-02	2.83578803e-04
2.06500000e-01	1.82492571e-02	2.87654391e-04
2.07000000e-01	1.82545238e-02	2.87107742e-04
2.07500000e-01	1.81832946e-02	2.85337371e-04
2.08000000e-01	1.79214501e-02	2.81919104e-04
2.08500000e-01	1.83049406e-02	2.84975393e-04
2.09000000e-01	1.80858588e-02	2.83151123e-04
2.09500000e-01	1.80612370e-02	2.81880624e-04
2.10000000e-01	1.82309510e-02	2.83780064e-04
2.10500000e-01	1.82228270e-02	2.84153214e-04
2.11000000e-01	1.82560205e-02	2.84182290e-04
2.11500000e-01	1.81487200e-02	2.82454401e-04
2.12000000e-01	1.81817061e-02	2.82014367e-04
2.12500000e-01	1.82877606e-02	2.82004309e-04
2.13000000e-01	1.80278158e-02	2.78630631e-04
2.13500000e-01	1.83228016e-02	2.83391535e-04
2.14000000e-01	1.82703141e-02	2.82095060e-04
2.14500000e-01	1.79890458e-02	2.77418461e-04
2.15000000e-01	1.79072286e-02	2.78400438e-04
2.15500000e-01	1.81059581e-02	2.77368966e-04
2.16000000e-01	1.81510458e-02	2.79134208e-04
2.16500000e-01	1.81702004e-02	2.79185942e-04
2.17000000e-01	1.80720131e-02	2.82738014e-04
2.17500000e-01	1.81168904e-02	2.87454868e-04
2.18000000e-01	1.81094266e-02	2.86351400e-04
2.18500000e-01	1.82837292e-02	2.91138264e-04
2.19000000e-01	1.81090326e-02	2.90316810e-04
2.19500000e-01	1.78297496e-02	2.86375902e-04
2.20000000e-01	1.79244367e-02	2.90379047e-04
2.20500000e-01	1.78329086e-02	2.88011874e-04
2.21000000e-01	1.79167047e-02	2.90871741e-04
2.21500000e-01	1.81729613e-02	2.96946517e-04
2.22000000e-01	1.77656203e-02	2.89593788e-04
2.22500000e-01	1.80730977e-02	2.95055874e-04
2.23000000e-01	1.78895933e-02	2.93186162e-04
2.23500000e-01	1.81162387e-02	2.98442153e-04
2.24000000e-01	1.77439084e-02	2.91945876e-04
2.24500000e-01	1.80430617e-02	2.97934443e-04
2.25000000e-01	1.79736838e-02	2.97742302e-04
2.25500000e-01	1.80717654e-02	2.98900059e-04
2.26000000e-01	1.79755865e-02	2.99030805e-04
2.26500000e-01	1.77784723e-02	2.91391862e-04
2.27000000e-01	1.81389667e-02	2.93614021e-04
2.27500000e-01	1.80567032e-02	2.89704558e-04
2.28000000e-01	1.80126153e-02	2.89126525e-04
2.28500000e-01	1.82323999e-02	2.89400338e-04
2.29000000e-01	1.79700313e-02	2.85232158e-04
2.29500000e-01	1.80795184e-02	2.85732488e-04
2.30000000e-01	1.79559143e-02	2.82950348e-04
2.30500000e-01	1.79100723e-02	2.80814406e-04
2.31000000e-01	1.78572083e-02	2.80957780e-04
2.31500000e-01	1.78472608e-02	2.78485740e-04
2.32000000e-01	1.78772847e-02	2.78128326e-04
2.32500000e-01	1.77413900e-02	2.74768101e-04
2.33000000e-01	1.78275440e-02	2.77103693e-04
2.33500000e-01	1.79067977e-02	2.77480994e-04
2.34000000e-01	1.77944855e-02	2.73831613e-04
2.34500000e-01	1.80677385e-02	2.78691664e-04
2.35000000e-01	1.76168705e-02	2.70514691e-04
2.35500000e-01	1.76942034e-02	2.71595813e-04
2.36000000e-01	1.76941552e-02	2.71150328e-04
2.36500000e-01	1.79221937e-02	2.73969935e-04
2.37000000e-01	1.78573747e-02	2.72354848e-04
2.37500000e-01	1.74479005e-02	2.65863953e-04
2.38000000e-01	1.77605599e-02	2.70041729e-04
2.38500000e-01	1.77615488e-02	2.70083728e-04
2.39000000e-01	1.77888003e-02	2.69346062e-04
2.39500000e-01	1.76021538e-02	2.67265059e-04
2.40000000e-01	1.76029987e-02	2.66724425e-04
2.40500000e-01	1.78390608e-02	2.67440299e-04
2.41000000e-01	1.76715465e-02	2.66420235e-04
2.41500000e-01	1.77759258e-02	2.66572140e-04
2.42000000e-01	1.73941093e-02	2.62374160e-04
2.42500000e-01	1.76575895e-02	2.64790508e-04
2.43000000e-01	1.76139614e-02	2.62907736e-04
2.43500000e-01	1.77511646e-02	2.65273416e-04
2.44000000e-01	1.76340183e-02	2.62884762e-04
2.44500000e-01	1.76059321e-02	2.63078977e-04
2.45000000e-01	1.77000204e-02	2.64454014e-04
2.45500000e-01	1.74454647e-02	2.59593293e-04
2.46000000e-01	1.75764903e-02	2.61291817e-04
2.46500000e-01	1.74888320e-02	2.58891422e-04
2.47000000e-01	1.75980989e-02	2.61327194e-04
2.47500000e-01	1.78201133e-02	2.62397547e-04
2.48000000e-01	1.74783880e-02	2.58435782e-04
2.48500000e-01	1.76467636e-02	2.60034760e-04
2.49000000e-01	1.75518693e-02	2.57988192e-04
2.49500000e-01	1.72154852e-02	2.54567184e-04
2.50000000e-01	1.74956043e-02	2.56725248e-04
2.50500000e-01	1.75628879e-02	2.58650902e-04
2.51000000e-01	1.75329285e-02	2.57012075e-04
2.51500000e-01	1.74027429e-02	2.56106695e-04
2.52000000e-01	1.77219221e-02	2.59048387e-04
2.52500000e-01	1.74632992e-02	2.55259816e-04
2.53000000e-01	1.74310908e-02	2.55347368e-04
2.53500000e-01	1.72877650e-02	2.52925857e-04
2.54000000e-01	1.74717482e-02	2.55513280e-04
2.54500000e-01	1.74824553e-02	2.55309344e-04
2.55000000e-01	1.72278102e-02	2.51749129e-04
2.55500000e-01	1.74941208e-02	2.55157805e-04
2.56000000e-01	1.72195268e-02	2.50664439e-04
2.56500000e-01	1.72313810e-02	2.50868204e-04
2.57000000e-01	1.74230903e-02	2.52767748e-04
2.57500000e-01	1.75808386e-02	2.54513549e-04
2.58000000e-01	1.74368832e-02	2.52770435e-04
2.58500000e-01	1.72362535e-02	2.49342123e-04
2.59000000e-01	1.75136516e-02	2.53050847e-04
2.59500000e-01	1.70984251e-02	2.46604307e-04
2.60000000e-01	1.72897808e-02	2.49327452e-04
2.60500000e-01	1.74057891e-02	2.50826771e-04
2.61000000e-01	1.72451499e-02	2.47545548e-04
2.61500000e-01	1.73697394e-02	2.50351252e-04
2.62000000e-01	1.73131354e-02	2.47863555e-04
2.62500000e-01	1.72028818e-02	2.46806452e-04
2.63000000e-01	1.73619635e-02	2.48739929e-04
2.63500000e-01	1.70036471e-02	2.43176064e-04
2.64000000e-01	1.70942427e-02	2.44909703e-04
2.64500000e-01	1.75846462e-02	2.50658918e-04
2.65000000e-01	1.74043852e-02	2.47941047e-04
2.65500000e-01	1.72851253e-02	2.47432922e-04
2.66000000e-01	1.73633536e-02	2.47701985e-04
2.66500000e-01	1.69954738e-02	2.41102442e-04
2.67000000e-01	1.72663988e-02	2.45225300e-04
2.67500000e-01	1.74115810e-02	2.45501611e-04
2.68000000e-01	1.73895792e-02	2.46512791e-04
2.68500000e-01	1.72426273e-02	2.43713977e-04
2.69000000e-01	1.71443527e-02	2.42504744e-04
2.69500000e-01	1.73128297e-02	2.43885564e-04
2.70000000e-01	1.72223730e-02	2.43162153e-04
2.70500000e-01	1.71365761e-02	2.40804612e-04
2.71000000e-01	1.72120412e-02	2.41615424e-04
2.71500000e-01	1.73236003e-02	2.43786561e-04
2.72000000e-01	1.72625886e-02	2.41060043e-04
2.72500000e-01	1.69558059e-02	2.38259991e-04
2.73000000e-01	1.70710336e-02	2.39774931e-04
2.73500000e-01	1.70069840e-02	2.38373885e-04
2.74000000e-01	1.70736246e-02	2.39865973e-04
2.74500000e-01	1.72419060e-02	2.40359201e-04
2.75000000e-01	1.71438700e-02	2.39831574e-04
2.75500000e-01	1.69859985e-02	2.37285165e-04
2.76000000e-01	1.70592167e-02	2.37961972e-04
2.76500000e-01	1.71875503e-02	2.40077688e-04
2.77000000e-01	1.70564226e-02	2.36606674e-04
2.77500000e-01	1.72309097e-02	2.39883642e-04
2.78000000e-01	1.73339620e-02	2.39407482e-04
2.78500000e-01	1.70866685e-02	2.37707103e-04
2.79000000e-01	1.72637680e-02	2.40094388e-04
2.79500000e-01	1.70402149e-02	2.35763955e-04
2.80000000e-01	1.72362901e-02	2.38354121e-04
2.80500000e-01	1.69367138e-02	2.35563312e-04
2.81000000e-01	1.71377434e-02	2.36037419e-04
2.81500000e-01	1.71857980e-02	2.37288932e-04
2.82000000e-01	1.68650642e-02	2.32689301e-04
2.82500000e-01	1.72257419e-02	2.38242714e-04
2.83000000e-01	1.68062354e-02	2.30862968e-04
2.83500000e-01	1.68855431e-02	2.32906893e-04
2.84000000e-01	1.71937779e-02	2.36865053e-04
2.84500000e-01	1.69219443e-02	2.32401989e-04
2.85000000e-01	1.69468358e-02	2.32293401e-04
2.85500000e-01	1.70186913e-02	2.32872106e-04
2.86000000e-01	1.70110150e-02	2.33346756e-04
2.86500000e-01	1.71153917e-02	2.34030250e-04
2.87000000e-01	1.68686098e-02	2.30557251e-04
2.87500000e-01	1.69646334e-02	2.31459311e-04
2.88000000e-01	1.70378019e-02	2.31119091e-04
2.88500000e-01	1.71408032e-02	2.34065269e-04
2.89000000e-01	1.68432819e-02	2.30174773e-04
2.89500000e-01	1.71484876e-02	2.33132765e-04
2.90000000e-01	1.68577047e-02	2.29620767e-04
2.90500000e-01	1.68548142e-02	2.29426279e-04
2.91000000e-01	1.69693752e-02	2.28816299e-04
2.91500000e-01	1.69110793e-02	2.29183527e-04
2.92000000e-01	1.70365705e-02	2.30759209e-04
2.92500000e-01	1.69731923e-02	2.29878837e-04
2.93000000e-01	1.69039054e-02	2.27568258e-04
2.93500000e-01	1.68436971e-02	2.27101058e-04
2.94000000e-01	1.68259540e-02	2.26498132e-04
2.94500000e-01	1.69761815e-02	2.29066595e-04
2.95000000e-01	1.68625946e-02	2.26173645e-04
2.95500000e-01	1.67213756e-02	2.25271683e-04
2.96000000e-01	1.68800275e-02	2.26642521e-04
2.96500000e-01	1.70558746e-02	2.29153678e-04
2.97000000e-01	1.69182193e-02	2.27072098e-04
2.97500000e-01	1.67253318e-02	2.24870085e-04
2.98000000e-01	1.66659291e-02	2.23662726e-04
2.98500000e-01	1.69978106e-02	2.28223929e-04
2.99000000e-01	1.68191267e-02	2.24936172e-04
2.99500000e-01	1.67183558e-02	2.23242890e-04
3.00000000e-01	1.68447667e-02	2.25995339e-04
3.00500000e-01	1.67285451e-02	2.23338608e-04
3.01000000e-01	1.66359850e-02	2.21980996e-04
3.01500000e-01	1.68272346e-02	2.24561492e-04
3.02000000e-01	1.66387691e-02	2.21776661e-04
3.02500000e-01	1.67728144e-02	2.22946970e-04
3.03000000e-01	1.66344975e-02	2.21201711e-04
3.03500000e-01	1.66850792e-02	2.21574758e-04
3.04000000e-01	1.67575850e-02	2.23344722e-04
3.04500000e-01	1.66136546e-02	2.20850437e-04
3.05000000e-01	1.66034388e-02	2.19862129e-04
3.05500000e-01	1.64287433e-02	2.18398730e-04
3.06000000e-01	1.64444641e-02	2.15983307e-04
3.06500000e-01	1.64473408e-02	2.17404194e-04
3.07000000e-01	1.65652692e-02	2.18898883e-04
3.07500000e-01	1.64807112e-02	2.17025749e-04
3.08000000e-01	1.65827287e-02	2.18293755e-04
3.08500000e-01	1.68923179e-02	2.21788864e-04
3.09000000e-01	1.66303722e-02	2.19065610e-04
3.09500000e-01	1.65948433e-02	2.18072933e-04
3.10000000e-01	1.64942857e-02	2.16689258e-04
3.10500000e-01	1.66910666e-02	2.19674250e-04
3.11000000e-01	1.64403184e-02	2.16375282e-04
3.11500000e-01	1.65701018e-02	2.17208203e-04
3.12000000e-01	1.66023379e-02	2.17432409e-04
3.12500000e-01	1.64663998e-02	2.16122898e-04
3.13000000e-01	1.65365811e-02	2.16018236e-04
3.13500000e-01	1.67000297e-02	2.17632387e-04
3.14000000e-01	1.63316687e-02	2.14171768e-04
3.14500000e-01	1.66267903e-02	2.17304337e-04
3.15000000e-01	1.64393547e-02	2.14461631e-04
3.15500000e-01	1.65019251e-02	2.15087331e-04
3.16000000e-01	1.65303540e-02	2.15772677e-04
3.16500000e-01	1.64961206e-02	2.14185810e-04
3.17000000e-01	1.64990699e-02	2.15343181e-04
3.17500000e-01	1.64025310e-02	2.13953052e-04
3.18000000e-01	1.65431456e-02	2.14185204e-04
3.18500000e-01	1.64338493e-02	2.14073814e-04
3.19000000e-01	1.63802708e-02	2.11745964e-04
3.19500000e-01	1.64828682e-02	2.13905097e-04
3.20000000e-01	1.65080070e-02	2.13857366e-04
3.20500000e-01	1.65967909e-02	2.14761002e-04
3.21000000e-01	1.64643051e-02	2.13254232e-04
3.21500000e-01	1.62535868e-02	2.09881227e-04
3.22000000e-01	1.64974500e-02	2.13541255e-04
3.22500000e-01	1.63667062e-02	2.10579642e-04
3.23000000e-01	1.62789684e-02	2.09486908e-04
3.23500000e-01	1.62055034e-02	2.08966347e-04
3.24000000e-01	1.63568655e-02	2.10931694e-04
3.24500000e-01	1.64475785e-02	2.12299973e-04
3.25000000e-01	1.62441704e-02	2.08974267e-04
3.25500000e-01	1.62087199e-02	2.08428943e-04
3.26000000e-01	1.62191077e-02	2.08213902e-04
3.26500000e-01	1.64181958e-02	2.09939584e-04
3.27000000e-01	1.60173554e-02	2.05205915e-04
3.27500000e-01	1.62378597e-02	2.07794221e-04
3.28000000e-01	1.61076868e-02	2.06887644e-04
3.28500000e-01	1.61423645e-02	2.06144145e-04
3.29000000e-01	1.62222707e-02	2.07529753e-04
3.29500000e-01	1.64695524e-02	2.10225903e-04
3.30000000e-01	1.61948646e-02	2.06486875e-04
3.30500000e-01	1.62429638e-02	2.07069870e-04
3.31000000e-01	1.61156132e-02	2.05026812e-04
3.31500000e-01	1.61552921e-02	2.06153981e-04
3.32000000e-01	1.63639406e-02	2.08428205e-04
3.32500000e-01	1.61508552e-02	2.05405181e-04
3.33000000e-01	1.61479185e-02	2.05289772e-04
3.33500000e-01	1.64628161e-02	2.08636832e-04
3.34000000e-01	1.62889385e-02	2.06898653e-04
3.34500000e-01	1.61319044e-02	2.05271815e-04
3.35000000e-01	1.60280965e-02	2.02946100e-04
3.35500000e-01	1.60654935e-02	2.03361841e-04
3.36000000e-01	1.60744576e-02	2.03917825e-04
3.36500000e-01	1.60352497e-02	2.03050364e-04
3.37000000e-01	1.62470019e-02	2.04957378e-04
3.37500000e-01	1.61537678e-02	2.04230146e-04
3.38000000e-01	1.60911486e-02	2.03394792e-04
3.38500000e-01	1.60760050e-02	2.02597212e-04
3.39000000e-01	1.60374779e-02	2.03074112e-04
3.39500000e-01	1.60505083e-02	2.01329288e-04
3.40000000e-01	1.59225135e-02	2.00895919e-04
3.40500000e-01	1.61498432e-02	2.02551434e-04
3.41000000e-01	1.59161748e-02	2.00582142e-04
3.41500000e-01	1.60060123e-02	2.02095701e-04
3.42000000e-01	1.59828324e-02	1.99831583e-04
3.42500000e-01	1.59884024e-02	2.01115963e-04
3.43000000e-01	1.59206857e-02	1.99080657e-04
3.43500000e-01	1.59493614e-02	1.99247121e-04
3.44000000e-01	1.58508679e-02	1.98830287e-04
3.44500000e-01	1.61391243e-02	2.01494897e-04
3.45000000e-01	1.61154817e-02	2.01242001e-04
3.45500000e-01	1.58743008e-02	1.98449317e-04
3.46000000e-01	1.57951138e-02	1.97614027e-04
3.46500000e-01	1.58760694e-02	1.97526582e-04
3.47000000e-01	1.59134156e-02	1.98113742e-04
3.47500000e-01	1.59787765e-02	1.99268132e-04
3.48000000e-01	1.59521992e-02	1.98365308e-04
3.48500000e-01	1.59063748e-02	1.98703228e-04
3.49000000e-01	1.58672914e-02	1.97066824e-04
3.49500000e-01	1.57571442e-02	1.95907547e-04
3.50000000e-01	1.59932405e-02	1.62037707e-04
3.51000000e-01	1.58111368e-02	1.38766464e-04
3.52000000e-01	1.59310252e-02	1.39505602e-04
3.53000000e-01	1.57260471e-02	1.37787819e-04
3.54000000e-01	1.57629346e-02	1.37297198e-04
3.55000000e-01	1.57632311e-02	1.37414735e-04
3.56000000e-01	1.58202585e-02	1.38231074e-04
3.57000000e-01	1.57634236e-02	1.40387249e-04
3.58000000e-01	1.56171862e-02	1.40279351e-04
3.59000000e-01	1.57313514e-02	1.42435885e-04
3.60000000e-01	1.56106673e-02	1.42293494e-04
3.61000000e-01	1.56647567e-02	1.43316861e-04
3.62000000e-01	1.55521824e-02	1.43309503e-04
3.63000000e-01	1.56709369e-02	1.44517646e-04
3.64000000e-01	1.55869473e-02	1.44082356e-04
3.65000000e-01	1.54700787e-02	1.43872221e-04
3.66000000e-01	1.56025607e-02	1.42994975e-04
3.67000000e-01	1.56435673e-02	1.41758063e-04
3.68000000e-01	1.55321662e-02	1.39537321e-04
3.69000000e-01	1.54848590e-02	1.38885053e-04
3.70000000e-01	1.55796622e-02	1.38896080e-04
3.71000000e-01	1.55692794e-02	1.40495286e-04
3.72000000e-01	1.55329150e-02	1.41027165e-04
3.73000000e-01	1.55368061e-02	1.41405124e-04
3.74000000e-01	1.55935362e-02	1.41858404e-04
3.75000000e-01	1.54977397e-02	1.41263416e-04
3.76000000e-01	1.54453325e-02	1.40993066e-04
3.77000000e-01	1.55738684e-02	1.41949090e-04
3.78000000e-01	1.54558037e-02	1.40602167e-04
3.79000000e-01	1.54968698e-02	1.41125913e-04
3.80000000e-01	1.53645452e-02	1.39959222e-04
3.81000000e-01	1.54543584e-02	1.40278927e-04
3.82000000e-01	1.53894547e-02	1.39902719e-04
3.83000000e-01	1.52763819e-02	1.38949723e-04
3.84000000e-01	1.54243809e-02	1.40309221e-04
3.85000000e-01	1.53310628e-02	1.39353296e-04
3.86000000e-01	1.54241388e-02	1.40146312e-04
3.87000000e-01	1.54119991e-02	1.39964424e-04
3.88000000e-01	1.54181083e-02	1.39626454e-04
3.89000000e-01	1.52774745e-02	1.39014222e-04
3.90000000e-01	1.51836164e-02	1.37958991e-04
3.91000000e-01	1.53348573e-02	1.39312644e-04
3.92000000e-01	1.52778171e-02	1.38691266e-04
3.93000000e-01	1.52423138e-02	1.38140041e-04
3.94000000e-01	1.53202612e-02	1.38674999e-04
3.95000000e-01	1.52296523e-02	1.38018922e-04
3.96000000e-01	1.52198785e-02	1.37940846e-04
3.97000000e-01	1.53088857e-02	1.38358423e-04
3.98000000e-01	1.51801047e-02	1.37748045e-04
3.99000000e-01	1.51782487e-02	1.37525533e-04
4.00000000e-01	1.51277022e-02	1.37297162e-04
4.01000000e-01	1.51410140e-02	1.37370608e-04
4.02000000e-01	1.51411011e-02	1.37383970e-04
4.03000000e-01	1.51572335e-02	1.37105304e-04
4.04000000e-01	1.50414561e-02	1.36044879e-04
4.05000000e-01	1.50495995e-02	1.36460343e-04
4.06000000e-01	1.49961311e-02	1.35887086e-04
4.07000000e-01	1.51064204e-02	1.36769467e-04
4.08000000e-01	1.51247017e-02	1.36661233e-04
4.09000000e-01	1.50109950e-02	1.35599450e-04
4.10000000e-01	1.52659619e-02	1.37894355e-04
4.11000000e-01	1.50712790e-02	1.36270333e-04
4.12000000e-01	1.49644487e-02	1.35686020e-04
4.13000000e-01	1.49798618e-02	1.35710653e-04
4.14000000e-01	1.48995594e-02	1.34635592e-04
4.15000000e-01	1.51137215e-02	1.36251999e-04
4.16000000e-01	1.49415297e-02	1.35200417e-04
4.17000000e-01	1.49192223e-02	1.34907540e-04
4.18000000e-01	1.49093613e-02	1.36050240e-04
4.19000000e-01	1.49321049e-02	1.38268508e-04
4.20000000e-01	1.48567606e-02	1.37980122e-04
4.21000000e-01	1.50639042e-02	1.39925278e-04
4.22000000e-01	1.50056128e-02	1.40045083e-04
4.23000000e-01	1.50780775e-02	1.41349661e-04
4.24000000e-01	1.50161087e-02	1.41111302e-04
4.25000000e-01	1.50141402e-02	1.41514910e-04
4.26000000e-01	1.49788346e-02	1.41278028e-04
4.27000000e-01	1.48740429e-02	1.40588182e-04
4.28000000e-01	1.48633546e-02	1.40203085e-04
4.29000000e-01	1.49729730e-02	1.41694068e-04
4.30000000e-01	1.50691877e-02	1.42522511e-04
4.31000000e-01	1.50992628e-02	1.42375943e-04
4.32000000e-01	1.49215218e-02	1.41275269e-04
4.33000000e-01	1.50815826e-02	1.42994221e-04
4.34000000e-01	1.48744293e-02	1.40866712e-04
4.35000000e-01	1.48781809e-02	1.41417819e-04
4.36000000e-01	1.48764291e-02	1.40918223e-04
4.37000000e-01	1.48049991e-02	1.40954178e-04
4.38000000e-01	1.48062278e-02	1.40703895e-04
4.39000000e-01	1.48819669e-02	1.41670062e-04
4.40000000e-01	1.49134834e-02	1.42481216e-04
4.41000000e-01	1.48716452e-02	1.42266398e-04
4.42000000e-01	1.47898111e-02	1.41853524e-04
4.43000000e-01	1.47624092e-02	1.41694975e-04
4.44000000e-01	1.47747365e-02	1.41634017e-04
4.45000000e-01	1.47124580e-02	1.41433096e-04
4.46000000e-01	1.48409940e-02	1.42591856e-04
4.47000000e-01	1.48051852e-02	1.42335025e-04
4.48000000e-01	1.48090208e-02	1.42746820e-04
4.49000000e-01	1.46283152e-02	1.41395636e-04
4.50000000e-01	1.46383588e-02	1.41403909e-04
4.51000000e-01	1.45638955e-02	1.41082797e-04
4.52000000e-01	1.46676317e-02	1.41819388e-04
4.53000000e-01	1.46861400e-02	1.42527599e-04
4.54000000e-01	1.45890701e-02	1.41799286e-04
4.55000000e-01	1.47554422e-02	1.42509187e-04
4.56000000e-01	1.47184171e-02	1.43022766e-04
4.57000000e-01	1.47274055e-02	1.42876561e-04
4.58000000e-01	1.45661212e-02	1.41682836e-04
4.59000000e-01	1.46748156e-02	1.42519855e-04
4.60000000e-01	1.46336205e-02	1.42479454e-04
4.61000000e-01	1.46565526e-02	1.42921086e-04
4.62000000e-01	1.46982118e-02	1.43473180e-04
4.63000000e-01	1.46336254e-02	1.42652009e-04
4.64000000e-01	1.45980193e-02	1.42687685e-04
4.65000000e-01	1.47141253e-02	1.44114135e-04
4.66000000e-01	1.46401992e-02	1.43171138e-04
4.67000000e-01	1.45869641e-02	1.42929879e-04
4.68000000e-01	1.45710060e-02	1.42448334e-04
4.69000000e-01	1.44506169e-02	1.42246157e-04
4.70000000e-01	1.44682725e-02	1.42378326e-04
4.71000000e-01	1.45532268e-02	1.43004952e-04
4.72000000e-01	1.45733097e-02	1.42737889e-04
4.73000000e-01	1.44980187e-02	1.42273429e-04
4.74000000e-01	1.44054499e-02	1.41178809e-04
4.75000000e-01	1.45017349e-02	1.42216793e-04
4.76000000e-01	1.44706687e-02	1.41664290e-04
4.77000000e-01	1.43796553e-02	1.40905556e-04
4.78000000e-01	1.44678661e-02	1.42064086e-04
4.79000000e-01	1.44964642e-02	1.41711106e-04
4.80000000e-01	1.44065589e-02	1.41379120e-04
4.81000000e-01	1.44695350e-02	1.42338724e-04
4.82000000e-01	1.43495088e-02	1.41500578e-04
4.83000000e-01	1.45338076e-02	1.43191871e-04
4.84000000e-01	1.43020796e-02	1.40561389e-04
4.85000000e-01	1.44610016e-02	1.42300760e-04
4.86000000e-01	1.43689969e-02	1.41887477e-04
4.87000000e-01	1.43916954e-02	1.41602396e-04
4.88000000e-01	1.43702411e-02	1.41848777e-04
4.89000000e-01	1.44672870e-02	1.42816586e-04
4.90000000e-01	1.43101104e-02	1.41250285e-04
4.91000000e-01	1.43937117e-02	1.42635706e-04
4.92000000e-01	1.42711903e-02	1.41271557e-04
4.93000000e-01	1.42951595e-02	1.41480571e-04
4.94000000e-01	1.43918762e-02	1.42539733e-04
4.95000000e-01	1.43586761e-02	1.42973349e-04
4.96000000e-01	1.43342751e-02	1.47198966e-04
4.97000000e-01	1.44377781e-02	1.50973241e-04
4.98000000e-01	1.41663394e-02	1.50121090e-04
4.99000000e-01	1.42900600e-02	1.53271927e-04
5.00000000e-01	1.42273857e-02	1.54177737e-04
5.01000000e-01	1.42535941e-02	1.56021216e-04
5.02000000e-01	1.41801663e-02	1.57005622e-04
5.03000000e-01	1.42262325e-02	1.58748929e-04
5.04000000e-01	1.42209514e-02	1.59760879e-04
5.05000000e-01	1.43056169e-02	1.58090585e-04
5.06000000e-01	1.43634746e-02	1.55555082e-04
5.07000000e-01	1.43436038e-02	1.53421861e-04
5.08000000e-01	1.43067067e-02	1.52532271e-04
5.09000000e-01	1.43309688e-02	1.51969435e-04
5.10000000e-01	1.42219666e-02	1.50323538e-04
5.11000000e-01	1.43629978e-02	1.51409249e-04
5.12000000e-01	1.41642216e-02	1.49076594e-04
5.13000000e-01	1.41095709e-02	1.48422980e-04
5.14000000e-01	1.41990671e-02	1.49363285e-04
5.15000000e-01	1.41259217e-02	1.47525762e-04
5.16000000e-01	1.41482961e-02	1.47646012e-04
5.17000000e-01	1.41027905e-02	1.47229563e-04
5.18000000e-01	1.41808027e-02	1.47482387e-04
5.19000000e-01	1.40600603e-02	1.46332936e-04
5.20000000e-01	1.42040673e-02	1.46791747e-04
5.21000000e-01	1.42459601e-02	1.47308935e-04
5.22000000e-01	1.41308777e-02	1.45818284e-04
5.23000000e-01	1.41309585e-02	1.46064569e-04
5.24000000e-01	1.40981273e-02	1.45743063e-04
5.25000000e-01	1.40017609e-02	1.44661063e-04
5.26000000e-01	1.39946832e-02	1.44567518e-04
5.27000000e-01	1.40342691e-02	1.45293069e-04
5.28000000e-01	1.40587240e-02	1.45434777e-04
5.29000000e-01	1.40166669e-02	1.45429148e-04
5.30000000e-01	1.40091279e-02	1.44868175e-04
5.31000000e-01	1.40251653e-02	1.45120120e-04
5.32000000e-01	1.38567831e-02	1.43438475e-04
5.33000000e-01	1.39311635e-02	1.43906511e-04
5.34000000e-01	1.39731744e-02	1.44358099e-04
5.35000000e-01	1.39407670e-02	1.43939431e-04
5.36000000e-01	1.39630148e-02	1.44399506e-04
5.37000000e-01	1.39885201e-02	1.44612558e-04
5.38000000e-01	1.39728116e-02	1.44126036e-04
5.39000000e-01	1.38317962e-02	1.43307143e-04
5.40000000e-01	1.38839335e-02	1.43501690e-04
5.41000000e-01	1.39109591e-02	1.43954576e-04
5.42000000e-01	1.39016720e-02	1.43549881e-04
5.43000000e-01	1.39111562e-02	1.43857126e-04
5.44000000e-01	1.37954079e-02	1.42673445e-04
5.45000000e-01	1.38337488e-02	1.42940575e-04
5.46000000e-01	1.37827371e-02	1.42789538e-04
5.47000000e-01	1.38739589e-02	1.43897474e-04
5.48000000e-01	1.38649896e-02	1.43074745e-04
5.49000000e-01	1.38397871e-02	1.42929462e-04
5.50000000e-01	1.36345787e-02	1.40860513e-04
5.51000000e-01	1.37027888e-02	1.41207696e-04
5.52000000e-01	1.37922351e-02	1.42029893e-04
5.53000000e-01	1.37503716e-02	1.41557710e-04
5.54000000e-01	1.37455667e-02	1.41419935e-04
5.55000000e-01	1.37234181e-02	1.41073155e-04
5.56000000e-01	1.37323214e-02	1.40700647e-04
5.57000000e-01	1.37101569e-02	1.41176561e-04
5.58000000e-01	1.37279364e-02	1.41305740e-04
5.59000000e-01	1.36428995e-02	1.40392719e-04
5.60000000e-01	1.37153212e-02	1.40884990e-04
5.61000000e-01	1.35856460e-02	1.39620449e-04
5.62000000e-01	1.36311425e-02	1.40104479e-04
5.63000000e-01	1.37420523e-02	1.41373066e-04
5.64000000e-01	1.36947642e-02	1.40904392e-04
5.65000000e-01	1.36093994e-02	1.40040120e-04
5.66000000e-01	1.36551439e-02	1.40498353e-04
5.67000000e-01	1.36152567e-02	1.40418424e-04
5.68000000e-01	1.37748090e-02	1.41261299e-04
5.69000000e-01	1.35587944e-02	1.38958141e-04
5.70000000e-01	1.36436851e-02	1.39951249e-04
5.71000000e-01	1.35395793e-02	1.39605093e-04
5.72000000e-01	1.35848882e-02	1.39441037e-04
5.73000000e-01	1.35817005e-02	1.39763124e-04
5.74000000e-01	1.34962719e-02	1.38652532e-04
5.75000000e-01	1.35026357e-02	1.39055368e-04
5.76000000e-01	1.34869266e-02	1.38945607e-04
5.77000000e-01	1.34895226e-02	1.38850258e-04
5.78000000e-01	1.35609298e-02	1.39654124e-04
5.79000000e-01	1.35621619e-02	1.39647563e-04
5.80000000e-01	1.34466765e-02	1.38641861e-04
5.81000000e-01	1.35146052e-02	1.39441199e-04
5.82000000e-01	1.35095054e-02	1.39036255e-04
5.83000000e-01	1.35806558e-02	1.39698464e-04
5.84000000e-01	1.33052702e-02	1.37465522e-04
5.85000000e-01	1.32630977e-02	1.36367911e-04
5.86000000e-01	1.34585023e-02	1.39247988e-04
5.87000000e-01	1.34241966e-02	1.38423459e-04
5.88000000e-01	1.34407151e-02	1.38804192e-04
5.89000000e-01	1.34130827e-02	1.38343018e-04
5.90000000e-01	1.33693292e-02	1.37824077e-04
5.91000000e-01	1.34646504e-02	1.39519600e-04
5.92000000e-01	1.34951861e-02	1.39588961e-04
5.93000000e-01	1.33143168e-02	1.37675380e-04
5.94000000e-01	1.33238874e-02	1.38231772e-04
5.95000000e-01	1.33980898e-02	1.38701084e-04
5.96000000e-01	1.33013888e-02	1.38208846e-04
5.97000000e-01	1.33070027e-02	1.37752758e-04
5.98000000e-01	1.33998745e-02	1.38440016e-04
5.99000000e-01	1.33605113e-02	1.38383517e-04
6.00000000e-01	1.33385311e-02	1.38154862e-04
6.01000000e-01	1.32276662e-02	1.37434546e-04
6.02000000e-01	1.33754314e-02	1.37900928e-04
6.03000000e-01	1.30900646e-02	1.36278495e-04
6.04000000e-01	1.31790860e-02	1.36561494e-04
6.05000000e-01	1.32720664e-02	1.37975871e-04
6.06000000e-01	1.33094090e-02	1.38551753e-04
6.07000000e-01	1.33750865e-02	1.38658489e-04
6.08000000e-01	1.31172772e-02	1.36066426e-04
6.09000000e-01	1.31655235e-02	1.36495981e-04
6.10000000e-01	1.33400541e-02	1.38487353e-04
6.11000000e-01	1.32910038e-02	1.38037801e-04
6.12000000e-01	1.31465241e-02	1.36478289e-04
6.13000000e-01	1.31659348e-02	1.36777931e-04
6.14000000e-01	1.33214414e-02	1.37878996e-04
6.15000000e-01	1.31703930e-02	1.36477070e-04
6.16000000e-01	1.31314079e-02	1.36292688e-04
6.17000000e-01	1.31491898e-02	1.36592460e-04
6.18000000e-01	1.31219975e-02	1.36275070e-04
6.19000000e-01	1.31038339e-02	1.35613376e-04
6.20000000e-01	1.30337991e-02	1.35604796e-04
6.21000000e-01	1.32443392e-02	1.36623083e-04
6.22000000e-01	1.30403973e-02	1.34961519e-04
6.23000000e-01	1.31673956e-02	1.35842603e-04
6.24000000e-01	1.30628910e-02	1.34734048e-04
6.25000000e-01	1.29404049e-02	1.33424478e-04
6.26000000e-01	1.30726810e-02	1.34832608e-04
6.27000000e-01	1.30328407e-02	1.34452074e-04
6.28000000e-01	1.31615617e-02	1.35555464e-04
6.29000000e-01	1.31583806e-02	1.35274851e-04
6.30000000e-01	1.29567138e-02	1.33956335e-04
6.31000000e-01	1.30361116e-02	1.34776928e-04
6.32000000e-01	1.30276611e-02	1.34983254e-04
6.33000000e-01	1.31644637e-02	1.35862577e-04
6.34000000e-01	1.31299902e-02	1.38816182e-04
6.35000000e-01	1.30639428e-02	1.41922027e-04
6.36000000e-01	1.30882545e-02	1.44793062e-04
6.37000000e-01	1.30156346e-02	1.47015120e-04
6.38000000e-01	1.30107659e-02	1.48316722e-04
6.39000000e-01	1.31984401e-02	1.52340540e-04
6.40000000e-01	1.30668777e-02	1.52958283e-04
6.41000000e-01	1.28741372e-02	1.52471476e-04
6.42000000e-01	1.31431547e-02	1.56736194e-04
6.43000000e-01	1.29837605e-02	1.55461549e-04
6.44000000e-01	1.31399334e-02	1.51203644e-04
6.45000000e-01	1.31126351e-02	1.48556602e-04
6.46000000e-01	1.29835281e-02	1.46229047e-04
6.47000000e-01	1.30143149e-02	1.45026908e-04
6.48000000e-01	1.31118002e-02	1.45761492e-04
6.49000000e-01	1.29792619e-02	1.43543684e-04
6.50000000e-01	1.29513977e-02	1.41849861e-04
6.51000000e-01	1.30221773e-02	1.43073731e-04
6.52000000e-01	1.30193091e-02	1.42474895e-04
6.53000000e-01	1.29313296e-02	1.40494019e-04
6.54000000e-01	1.29208482e-02	1.40041008e-04
6.55000000e-01	1.28740838e-02	1.39035275e-04
6.56000000e-01	1.30651195e-02	1.40519642e-04
6.57000000e-01	1.30056880e-02	1.40206201e-04
6.58000000e-01	1.30024830e-02	1.40099155e-04
6.59000000e-01	1.30240392e-02	1.40187456e-04
6.60000000e-01	1.30073349e-02	1.39787629e-04
6.61000000e-01	1.30925985e-02	1.40363224e-04
6.62000000e-01	1.30096863e-02	1.39438768e-04
6.63000000e-01	1.27684634e-02	1.37673148e-04
6.64000000e-01	1.29996032e-02	1.39259799e-04
6.65000000e-01	1.28252905e-02	1.37900340e-04
6.66000000e-01	1.28974112e-02	1.38404864e-04
6.67000000e-01	1.29513094e-02	1.38698479e-04
6.68000000e-01	1.28793629e-02	1.38143736e-04
6.69000000e-01	1.29268316e-02	1.38604236e-04
6.70000000e-01	1.29335600e-02	1.38120588e-04
6.71000000e-01	1.28704106e-02	1.37610156e-04
6.72000000e-01	1.27885964e-02	1.36758696e-04
6.73000000e-01	1.29831319e-02	1.38770665e-04
6.74000000e-01	1.28742995e-02	1.37710013e-04
6.75000000e-01	1.27818824e-02	1.36655563e-04
6.76000000e-01	1.27793599e-02	1.36621236e-04
6.77000000e-01	1.28206582e-02	1.36569843e-04
6.78000000e-01	1.27626317e-02	1.36603298e-04
6.79000000e-01	1.27922569e-02	1.36737975e-04
6.80000000e-01	1.28283457e-02	1.37020166e-04
6.81000000e-01	1.27310843e-02	1.35881558e-04
6.82000000e-01	1.28392825e-02	1.37141343e-04
6.83000000e-01	1.26535513e-02	1.35005593e-04
6.84000000e-01	1.27859386e-02	1.36398436e-04
6.85000000e-01	1.28282748e-02	1.36888269e-04
6.86000000e-01	1.27282850e-02	1.35366150e-04
6.87000000e-01	1.28585764e-02	1.36881050e-04
6.88000000e-01	1.28428803e-02	1.37019317e-04
6.89000000e-01	1.27843975e-02	1.36229628e-04
6.90000000e-01	1.27787488e-02	1.36167038e-04
6.91000000e-01	1.26277169e-02	1.34875584e-04
6.92000000e-01	1.25961101e-02	1.34621451e-04
6.93000000e-01	1.27574758e-02	1.35951761e-04
6.94000000e-01	1.28372605e-02	1.36745506e-04
6.95000000e-01	1.26897160e-02	1.34909468e-04
6.96000000e-01	1.26378930e-02	1.34872389e-04
6.97000000e-01	1.27190927e-02	1.35112113e-04
6.98000000e-01	1.26881795e-02	1.35444716e-04
6.99000000e-01	1.25878503e-02	1.33980238e-04
7.00000000e-01	1.25804503e-02	1.33618419e-04
7.01000000e-01	1.26366315e-02	1.34849465e-04
7.02000000e-01	1.27101083e-02	1.35186817e-04
7.03000000e-01	1.25734504e-02	1.34205837e-04
7.04000000e-01	1.26480914e-02	1.34632312e-04
7.05000000e-01	1.25151338e-02	1.33466529e-04
7.06000000e-01	1.26637299e-02	1.34565219e-04
7.07000000e-01	1.26522125e-02	1.34920596e-04
7.08000000e-01	1.26501300e-02	1.34306614e-04
7.09000000e-01	1.25905522e-02	1.33956888e-04
7.10000000e-01	1.25788634e-02	1.33352828e-04
7.11000000e-01	1.24091458e-02	1.32449923e-04
7.12000000e-01	1.26460315e-02	1.34435099e-04
7.13000000e-01	1.24121188e-02	1.31992557e-04
7.14000000e-01	1.24133090e-02	1.32374324e-04
7.15000000e-01	1.24072244e-02	1.32170421e-04
7.16000000e-01	1.25229701e-02	1.33348175e-04
7.17000000e-01	1.25257905e-02	1.33221479e-04
7.18000000e-01	1.23595127e-02	1.31794881e-04
7.19000000e-01	1.23116000e-02	1.31463933e-04
7.20000000e-01	1.25000261e-02	1.32939295e-04
7.21000000e-01	1.23658799e-02	1.31744278e-04
7.22000000e-01	1.25249450e-02	1.33211035e-04
7.23000000e-01	1.24002876e-02	1.31797831e-04
7.24000000e-01	1.22702966e-02	1.30973700e-04
7.25000000e-01	1.23609572e-02	1.31910814e-04
7.26000000e-01	1.23620724e-02	1.31734975e-04
7.27000000e-01	1.23822325e-02	1.32205422e-04
7.28000000e-01	1.24035798e-02	1.31952643e-04
7.29000000e-01	1.22981465e-02	1.31440325e-04
7.30000000e-01	1.22353235e-02	1.30680163e-04
7.31000000e-01	1.22691325e-02	1.30623183e-04
7.32000000e-01	1.22482619e-02	1.30532947e-04
7.33000000e-01	1.22882563e-02	1.30880578e-04
7.34000000e-01	1.23039437e-02	1.31076176e-04
7.35000000e-01	1.21242926e-02	1.29623453e-04
7.36000000e-01	1.21593008e-02	1.29267093e-04
7.37000000e-01	1.21588480e-02	1.29478133e-04
7.38000000e-01	1.23175464e-02	1.30390063e-04
7.39000000e-01	1.20476995e-02	1.27541052e-04
7.40000000e-01	1.21805400e-02	1.28774426e-04
7.41000000e-01	1.22071617e-02	1.28814434e-04
7.42000000e-01	1.21579778e-02	1.28254381e-04
7.43000000e-01	1.22005702e-02	1.28832901e-04
7.44000000e-01	1.22475792e-02	1.29158904e-04
7.45000000e-01	1.21832504e-02	1.28691263e-04
7.46000000e-01	1.21768218e-02	1.28510127e-04
7.47000000e-01	1.20597266e-02	1.27203880e-04
7.48000000e-01	1.22181280e-02	1.28991759e-04
7.49000000e-01	1.21436572e-02	1.28059079e-04
7.50000000e-01	1.19803006e-02	1.26273122e-04
7.51000000e-01	1.21727869e-02	1.28559710e-04
7.52000000e-01	1.19996804e-02	1.27068703e-04
7.53000000e-01	1.21816795e-02	1.28503249e-04
7.54000000e-01	1.22099154e-02	1.29204506e-04
7.55000000e-01	1.19964865e-02	1.27261682e-04
7.56000000e-01	1.19710076e-02	1.26856140e-04
7.57000000e-01	1.20138483e-02	1.27264833e-04
7.58000000e-01	1.20539090e-02	1.27260357e-04
7.59000000e-01	1.20028878e-02	1.26708114e-04
7.60000000e-01	1.20324616e-02	1.27304257e-04
7.61000000e-01	1.21128745e-02	1.27495652e-04
7.62000000e-01	1.19052300e-02	1.25440082e-04
7.63000000e-01	1.19368254e-02	1.25529906e-04
7.64000000e-01	1.18707039e-02	1.24761212e-04
7.65000000e-01	1.20250224e-02	1.26031141e-04
7.66000000e-01	1.19757985e-02	1.25722629e-04
7.67000000e-01	1.18816108e-02	1.24737369e-04
7.68000000e-01	1.19521578e-02	1.25287370e-04
7.69000000e-01	1.19140771e-02	1.24700704e-04
7.70000000e-01	1.19870302e-02	1.25339063e-04
7.71000000e-01	1.19000577e-02	1.24720560e-04
7.72000000e-01	1.18725568e-02	1.28419742e-04
7.73000000e-01	1.18497563e-02	1.31906889e-04
7.74000000e-01	1.18423619e-02	1.34867739e-04
7.75000000e-01	1.20596432e-02	1.39382412e-04
7.76000000e-01	1.17502766e-02	1.38487526e-04
7.77000000e-01	1.16783958e-02	1.39430909e-04
7.78000000e-01	1.18782570e-02	1.43526297e-04
7.79000000e-01	1.18541926e-02	1.44877237e-04
7.80000000e-01	1.17225932e-02	1.44716740e-04
7.81000000e-01	1.19072515e-02	1.49194970e-04
7.82000000e-01	1.17480889e-02	1.48306650e-04
7.83000000e-01	1.16512311e-02	1.49088816e-04
7.84000000e-01	1.18244001e-02	1.52680101e-04
7.85000000e-01	1.17522531e-02	1.53959541e-04
7.86000000e-01	1.16507860e-02	1.54513605e-04
7.87000000e-01	1.15872431e-02	1.55362601e-04
7.88000000e-01	1.16625711e-02	1.56971477e-04
7.89000000e-01	1.16008204e-02	1.58069315e-04
7.90000000e-01	1.16304872e-02	1.60341035e-04
7.91000000e-01	1.17134651e-02	1.62721468e-04
7.92000000e-01	1.16690075e-02	1.63723761e-04
7.93000000e-01	1.16520608e-02	1.64675522e-04
7.94000000e-01	1.16597065e-02	1.67589493e-04
7.95000000e-01	1.14872985e-02	1.66518954e-04
7.96000000e-01	1.13867228e-02	1.66741858e-04
7.97000000e-01	1.15074928e-02	1.70401511e-04
7.98000000e-01	1.14715284e-02	1.70707739e-04
7.99000000e-01	1.13952930e-02	1.71445171e-04
8.00000000e-01	1.16042163e-02	1.76268834e-04
8.01000000e-01	1.15529421e-02	1.77267701e-04
8.02000000e-01	1.14670688e-02	1.77945716e-04
8.03000000e-01	1.13678635e-02	1.78264943e-04
8.04000000e-01	1.13153964e-02	1.79831591e-04
8.05000000e-01	1.13727132e-02	1.82728783e-04
8.06000000e-01	1.14088658e-02	1.85707546e-04
8.07000000e-01	1.14515877e-02	1.87908281e-04
8.08000000e-01	1.14468253e-02	1.89344837e-04
8.09000000e-01	1.13645327e-02	1.90523991e-04
8.10000000e-01	1.13488390e-02	1.92851206e-04
8.11000000e-01	1.15865729e-02	1.97944709e-04
8.12000000e-01	1.12087543e-02	1.95845570e-04
8.13000000e-01	1.15025361e-02	2.00786342e-04
8.14000000e-01	1.12435882e-02	1.98354186e-04
8.15000000e-01	1.14166288e-02	2.04911819e-04
8.16000000e-01	1.12120166e-02	2.03187326e-04
8.17000000e-01	1.15313252e-02	2.13296040e-04
8.18000000e-01	1.11364695e-02	2.07702368e-04
8.19000000e-01	1.12811839e-02	2.13015795e-04
8.20000000e-01	1.13857253e-02	2.17576817e-04
8.21000000e-01	1.13541245e-02	2.21253232e-04
8.22000000e-01	1.12433320e-02	2.20603278e-04
8.23000000e-01	1.13131479e-02	2.25428685e-04
8.24000000e-01	1.12634983e-02	2.27838742e-04
8.25000000e-01	1.11321556e-02	2.28637273e-04
8.26000000e-01	1.13267282e-02	2.34363585e-04
8.27000000e-01	1.13459356e-02	2.38456039e-04
8.28000000e-01	1.10838828e-02	2.38328170e-04
8.29000000e-01	1.11157786e-02	2.43521466e-04
8.30000000e-01	1.11020219e-02	2.47197311e-04
8.31000000e-01	1.11178618e-02	2.51057985e-04
8.32000000e-01	1.10767611e-02	2.52131279e-04
8.33000000e-01	1.12348343e-02	2.60153345e-04
8.34000000e-01	1.11038175e-02	2.61741277e-04
8.35000000e-01	1.11022587e-02	2.66219778e-04
8.36000000e-01	1.09992057e-02	2.68822593e-04
8.37000000e-01	1.09391476e-02	2.72974431e-04
8.38000000e-01	1.08570227e-02	2.75761501e-04
8.39000000e-01	1.10760163e-02	2.88932089e-04
8.40000000e-01	1.09339059e-02	2.90954676e-04
8.41000000e-01	1.05525053e-02	2.89596004e-04
8.42000000e-01	1.08198058e-02	3.02579653e-04
8.43000000e-01	1.08640671e-02	3.12125939e-04
8.44000000e-01	1.08329513e-02	3.18353757e-04
8.45000000e-01	1.11631438e-02	3.30301399e-04
8.46000000e-01	1.08968896e-02	3.31793833e-04
8.47000000e-01	1.10003676e-02	3.48574165e-04
8.48000000e-01	1.10269980e-02	3.58910639e-04
8.49000000e-01	1.10018822e-02	3.70514990e-04
8.50000000e-01	1.07558184e-02	3.73711930e-04
8.51000000e-01	1.03899419e-02	3.82311101e-04
8.52000000e-01	1.04809927e-02	3.94669260e-04
8.53000000e-01	1.13092630e-02	4.43456669e-04
8.54000000e-01	1.11636623e-02	4.52736652e-04
8.55000000e-01	1.05554425e-02	4.52812220e-04
8.56000000e-01	1.08431758e-02	4.70352511e-04
8.57000000e-01	1.08223512e-02	4.86012895e-04
8.58000000e-01	1.03542239e-02	4.77526476e-04
8.59000000e-01	1.05903434e-02	5.00842968e-04
8.60000000e-01	9.88256808e-03	4.98790874e-04
8.61000000e-01	1.04515048e-02	5.26239012e-04
8.62000000e-01	1.06439257e-02	5.55770013e-04
8.63000000e-01	1.07183935e-02	5.85913233e-04
8.64000000e-01	1.06591692e-02	6.22094993e-04
8.65000000e-01	1.06981275e-02	6.36296633e-04
8.66000000e-01	1.05671151e-02	6.65216712e-04
8.67000000e-01	1.04670416e-02	7.19989319e-04
8.68000000e-01	9.87655356e-03	7.29158411e-04
8.69000000e-01	1.08824690e-02	8.31617974e-04
8.70000000e-01	1.13917266e-02	9.20116966e-04
8.71000000e-01	9.82860690e-03	9.22385262e-04
8.72000000e-01	1.03669194e-02	1.08799455e-03
8.73000000e-01	1.03598101e-02	1.27458426e-03
8.74000000e-01	9.68290603e-03	1.54826952e-03
8.75000000e-01	8.54411670e-03	2.83376475e-03
