% Filename : SDL5_p7_00009_00001.h5
% Date & Time : 30-Oct-2025 14:38:16
% X-ray Energy (keV) : 13.30001
% Exposure Time (s) : 0.500
% Beam Center : 1461.24000, 208.98300
% Sample to Detector Distance (SDD) (mm) : 1990.750
% Detector Pixel Size (mm) : 0.075
% Photodiode Value : 134699.000
% I0 of Sample : 0
% I0 of Standard : 1
% 
% q(A^-1)   I(q)    I(q)_SE
0.00000000e+00	1.47539334e-02	7.93504358e-03
2.50000000e-04	0.00000000e+00	0.00000000e+00
5.00000000e-04	0.00000000e+00	0.00000000e+00
7.50000000e-04	0.00000000e+00	0.00000000e+00
1.00000000e-03	0.00000000e+00	0.00000000e+00
1.25000000e-03	0.00000000e+00	0.00000000e+00
1.50000000e-03	0.00000000e+00	0.00000000e+00
1.75000000e-03	0.00000000e+00	0.00000000e+00
2.00000000e-03	0.00000000e+00	0.00000000e+00
2.25000000e-03	0.00000000e+00	0.00000000e+00
2.50000000e-03	0.00000000e+00	0.00000000e+00
2.75000000e-03	0.00000000e+00	0.00000000e+00
3.00000000e-03	0.00000000e+00	0.00000000e+00
3.25000000e-03	3.06250166e+03	1.92792025e+03
3.50000000e-03	7.23839319e+02	3.18085748e+02
3.75000000e-03	3.60286030e+02	1.12687767e+02
4.00000000e-03	3.44336990e+02	1.19382267e+02
4.25000000e-03	2.01188490e+02	6.01902089e+01
4.50000000e-03	1.75214581e+02	4.24058738e+01
4.75000000e-03	1.77960163e+02	4.08820829e+01
5.00000000e-03	1.41714425e+02	3.13616168e+01
5.25000000e-03	1.19117256e+02	2.61516856e+01
5.50000000e-03	9.49648682e+01	1.94824761e+01
5.75000000e-03	8.14598900e+01	1.65459059e+01
6.00000000e-03	6.63812165e+01	1.31091470e+01
6.25000000e-03	5.69510034e+01	1.08441877e+01
6.50000000e-03	4.71490701e+01	8.42759943e+00
6.75000000e-03	4.11895702e+01	7.34704588e+00
7.00000000e-03	3.51338336e+01	5.89153339e+00
7.25000000e-03	3.03607237e+01	5.06526715e+00
7.50000000e-03	2.64566707e+01	4.39163985e+00
7.75000000e-03	2.29010737e+01	3.64424418e+00
8.00000000e-03	2.06190737e+01	3.20443462e+00
8.25000000e-03	1.78810197e+01	2.69967229e+00
8.50000000e-03	1.59348654e+01	2.32916974e+00
8.75000000e-03	1.42673137e+01	2.05756602e+00
9.00000000e-03	1.25717941e+01	1.78712417e+00
9.25000000e-03	1.12396409e+01	1.55526794e+00
9.50000000e-03	9.92421200e+00	1.30461045e+00
9.75000000e-03	8.94237375e+00	1.15987371e+00
1.00000000e-02	7.91809639e+00	1.05284396e+00
1.02500000e-02	7.46602936e+00	9.78650844e-01
1.05000000e-02	6.65225978e+00	8.25086123e-01
1.07500000e-02	6.14920955e+00	7.86196005e-01
1.10000000e-02	5.47410023e+00	6.67065062e-01
1.12500000e-02	4.84017005e+00	5.61743357e-01
1.15000000e-02	4.72106973e+00	5.70962908e-01
1.17500000e-02	4.16121288e+00	5.00013137e-01
1.20000000e-02	3.94039118e+00	4.66600336e-01
1.22500000e-02	3.52938941e+00	3.90759472e-01
1.25000000e-02	3.35733786e+00	3.69250889e-01
1.27500000e-02	3.13130676e+00	3.47811775e-01
1.30000000e-02	2.83725809e+00	2.98254949e-01
1.32500000e-02	2.61671485e+00	2.76103281e-01
1.35000000e-02	2.47348675e+00	2.62336730e-01
1.37500000e-02	2.29948431e+00	2.39687758e-01
1.40000000e-02	2.13923943e+00	2.17266466e-01
1.42500000e-02	1.96773928e+00	1.98035399e-01
1.45000000e-02	1.83970654e+00	1.83469600e-01
1.47500000e-02	1.72644768e+00	1.69204677e-01
1.50000000e-02	1.63057952e+00	1.57465944e-01
1.52500000e-02	1.51613605e+00	1.43169686e-01
1.55000000e-02	1.42597283e+00	1.31374863e-01
1.57500000e-02	1.33053320e+00	1.24373603e-01
1.60000000e-02	1.24694345e+00	1.15035763e-01
1.62500000e-02	1.20842255e+00	1.11853536e-01
1.65000000e-02	1.12036995e+00	1.00485145e-01
1.67500000e-02	1.06861061e+00	9.46712040e-02
1.70000000e-02	1.00629935e+00	9.02473909e-02
1.72500000e-02	9.35056757e-01	8.12850919e-02
1.75000000e-02	8.85809439e-01	7.55301778e-02
1.77500000e-02	8.50021696e-01	7.12669709e-02
1.80000000e-02	8.07520679e-01	6.67581299e-02
1.82500000e-02	7.63190695e-01	6.18424442e-02
1.85000000e-02	7.21156326e-01	6.05193258e-02
1.87500000e-02	6.91986920e-01	5.56044628e-02
1.90000000e-02	6.61778226e-01	5.39206242e-02
1.92500000e-02	6.36094481e-01	5.07570244e-02
1.95000000e-02	5.85839289e-01	4.57294717e-02
1.97500000e-02	5.81197871e-01	4.62096828e-02
2.00000000e-02	5.41857380e-01	4.16246849e-02
2.02500000e-02	5.14718891e-01	3.98685544e-02
2.05000000e-02	5.00245537e-01	3.76697679e-02
2.07500000e-02	4.84585955e-01	3.62684784e-02
2.10000000e-02	4.65351227e-01	3.49470203e-02
2.12500000e-02	4.53458562e-01	3.51183656e-02
2.15000000e-02	4.40349470e-01	3.25053185e-02
2.17500000e-02	4.25962633e-01	3.17668862e-02
2.20000000e-02	4.07580363e-01	3.04673203e-02
2.22500000e-02	3.91773869e-01	2.90164299e-02
2.25000000e-02	3.84367845e-01	2.86147542e-02
2.27500000e-02	3.69028456e-01	2.67096036e-02
2.30000000e-02	3.57978249e-01	2.63624159e-02
2.32500000e-02	3.37062464e-01	2.40313937e-02
2.35000000e-02	3.35558577e-01	2.43693097e-02
2.37500000e-02	3.21411790e-01	2.31512327e-02
2.40000000e-02	3.09190150e-01	2.23819144e-02
2.42500000e-02	3.02445891e-01	2.14519249e-02
2.45000000e-02	2.92948752e-01	2.12039061e-02
2.47500000e-02	2.82763826e-01	1.96657587e-02
2.50000000e-02	2.77534559e-01	1.95398921e-02
2.52500000e-02	2.65958455e-01	1.88706304e-02
2.55000000e-02	2.59421650e-01	1.78590010e-02
2.57500000e-02	2.50071608e-01	1.73437518e-02
2.60000000e-02	2.41471623e-01	1.65964075e-02
2.62500000e-02	2.31462013e-01	1.58169458e-02
2.65000000e-02	2.32141742e-01	1.59188459e-02
2.67500000e-02	2.22149372e-01	1.49872723e-02
2.70000000e-02	2.14717288e-01	1.42384371e-02
2.72500000e-02	2.08528645e-01	1.38493327e-02
2.75000000e-02	2.00750628e-01	1.36284948e-02
2.77500000e-02	1.96792333e-01	1.29561883e-02
2.80000000e-02	1.90869937e-01	1.25650232e-02
2.82500000e-02	1.84637952e-01	1.19441643e-02
2.85000000e-02	1.82783223e-01	1.18406953e-02
2.87500000e-02	1.78359207e-01	1.14860728e-02
2.90000000e-02	1.76305463e-01	1.14242469e-02
2.92500000e-02	1.66724606e-01	1.03951101e-02
2.95000000e-02	1.67342245e-01	1.05167628e-02
2.97500000e-02	1.60125445e-01	9.95003776e-03
3.00000000e-02	1.58736811e-01	9.92022805e-03
3.02500000e-02	1.52181857e-01	9.40520090e-03
3.05000000e-02	1.46863433e-01	8.98855028e-03
3.07500000e-02	1.43059263e-01	8.76661292e-03
3.10000000e-02	1.42467164e-01	8.82792775e-03
3.12500000e-02	1.38775109e-01	8.43973155e-03
3.15000000e-02	1.35226758e-01	8.19106423e-03
3.17500000e-02	1.28662704e-01	7.56484722e-03
3.20000000e-02	1.27599231e-01	7.62665690e-03
3.22500000e-02	1.28232749e-01	7.60525330e-03
3.25000000e-02	1.20902527e-01	7.03205229e-03
3.27500000e-02	1.19188458e-01	6.86138101e-03
3.30000000e-02	1.17184747e-01	6.72706251e-03
3.32500000e-02	1.12469803e-01	6.47013199e-03
3.35000000e-02	1.11989925e-01	6.36111198e-03
3.37500000e-02	1.08773903e-01	6.16414827e-03
3.40000000e-02	1.07816921e-01	6.12382806e-03
3.42500000e-02	1.05575607e-01	5.85297726e-03
3.45000000e-02	1.01420362e-01	5.68600591e-03
3.47500000e-02	1.00841685e-01	5.64217607e-03
3.50000000e-02	9.61550972e-02	5.37928958e-03
3.52500000e-02	9.71974233e-02	5.31128571e-03
3.55000000e-02	9.51117524e-02	5.15129475e-03
3.57500000e-02	9.28437955e-02	5.10294593e-03
3.60000000e-02	8.96338825e-02	4.88236514e-03
3.62500000e-02	8.70385570e-02	4.68262587e-03
3.65000000e-02	8.80541957e-02	4.71434997e-03
3.67500000e-02	8.80212910e-02	4.73187956e-03
3.70000000e-02	8.43345018e-02	4.50394518e-03
3.72500000e-02	8.38287847e-02	4.34655479e-03
3.75000000e-02	8.16859668e-02	4.29434743e-03
3.77500000e-02	7.89603676e-02	4.12851094e-03
3.80000000e-02	7.85961823e-02	4.08052829e-03
3.82500000e-02	7.75611733e-02	3.96713220e-03
3.85000000e-02	7.61840167e-02	3.97263396e-03
3.87500000e-02	7.58630434e-02	3.89549262e-03
3.90000000e-02	7.32647189e-02	3.75498386e-03
3.92500000e-02	7.07902457e-02	3.51942843e-03
3.95000000e-02	7.05913356e-02	3.56475509e-03
3.97500000e-02	6.87536772e-02	3.40063334e-03
4.00000000e-02	6.98037855e-02	3.51264791e-03
4.02500000e-02	6.77411472e-02	3.30803249e-03
4.05000000e-02	6.61986236e-02	3.26231430e-03
4.07500000e-02	6.53182766e-02	3.13758539e-03
4.10000000e-02	6.38948773e-02	3.13293558e-03
4.12500000e-02	6.33105823e-02	3.06427796e-03
4.15000000e-02	6.21132659e-02	2.95665739e-03
4.17500000e-02	6.15998327e-02	2.92859551e-03
4.20000000e-02	5.99844822e-02	2.83690095e-03
4.22500000e-02	5.96795785e-02	2.80726627e-03
4.25000000e-02	5.92933402e-02	2.78740887e-03
4.27500000e-02	5.85364992e-02	2.71678249e-03
4.30000000e-02	5.82976629e-02	2.74184040e-03
4.32500000e-02	5.62640473e-02	2.64922570e-03
4.35000000e-02	5.56801885e-02	2.57354095e-03
4.37500000e-02	5.55397597e-02	2.54511515e-03
4.40000000e-02	5.41991495e-02	2.48341332e-03
4.42500000e-02	5.37388083e-02	2.44439146e-03
4.45000000e-02	5.34572454e-02	2.40065487e-03
4.47500000e-02	5.22644686e-02	2.38075178e-03
4.50000000e-02	5.23834138e-02	2.35874503e-03
4.52500000e-02	5.15081415e-02	2.31905254e-03
4.55000000e-02	5.06505788e-02	2.23118986e-03
4.57500000e-02	5.03456182e-02	2.23253504e-03
4.60000000e-02	4.94750429e-02	2.18302737e-03
4.62500000e-02	4.97554819e-02	2.19130206e-03
4.65000000e-02	4.87716330e-02	2.16894963e-03
4.67500000e-02	4.84887647e-02	2.09428659e-03
4.70000000e-02	4.79796901e-02	2.07766638e-03
4.72500000e-02	4.63086605e-02	2.02367896e-03
4.75000000e-02	4.65825814e-02	2.03882778e-03
4.77500000e-02	4.61647372e-02	1.96352667e-03
4.80000000e-02	4.63660869e-02	1.97984527e-03
4.82500000e-02	4.50237174e-02	1.91194707e-03
4.85000000e-02	4.37096758e-02	1.86635734e-03
4.87500000e-02	4.49053787e-02	1.89670242e-03
4.90000000e-02	4.37143730e-02	1.87797034e-03
4.92500000e-02	4.38238144e-02	1.82481080e-03
4.95000000e-02	4.20805001e-02	1.77420941e-03
4.97500000e-02	4.32366787e-02	1.82865315e-03
5.00000000e-02	4.25579869e-02	1.79350518e-03
5.02500000e-02	4.19548390e-02	1.72595049e-03
5.05000000e-02	4.05669268e-02	1.67736077e-03
5.07500000e-02	4.09096788e-02	1.70515392e-03
5.10000000e-02	4.10498552e-02	1.68143426e-03
5.12500000e-02	4.10737377e-02	1.69831424e-03
5.15000000e-02	3.99863284e-02	1.63042449e-03
5.17500000e-02	4.00421607e-02	1.63621941e-03
5.20000000e-02	3.91505125e-02	1.58905450e-03
5.22500000e-02	4.00534653e-02	1.63605203e-03
5.25000000e-02	3.77023063e-02	1.50437595e-03
5.27500000e-02	3.93941076e-02	1.58831282e-03
5.30000000e-02	3.78692153e-02	1.52428485e-03
5.32500000e-02	3.84018381e-02	1.54104979e-03
5.35000000e-02	3.82163331e-02	1.51864496e-03
5.37500000e-02	3.74657234e-02	1.49127343e-03
5.40000000e-02	3.75115028e-02	1.48559038e-03
5.42500000e-02	3.75661395e-02	1.48073548e-03
5.45000000e-02	3.68080552e-02	1.46094451e-03
5.47500000e-02	3.51021596e-02	1.37531645e-03
5.50000000e-02	3.62446946e-02	1.41379819e-03
5.52500000e-02	3.55987582e-02	1.38025412e-03
5.55000000e-02	3.62203668e-02	1.40781133e-03
5.57500000e-02	3.56807242e-02	1.39691046e-03
5.60000000e-02	3.43721559e-02	1.32887071e-03
5.62500000e-02	3.50339408e-02	1.35217002e-03
5.65000000e-02	3.49434468e-02	1.35389835e-03
5.67500000e-02	3.50223766e-02	1.35568700e-03
5.70000000e-02	3.44887732e-02	1.32769645e-03
5.72500000e-02	3.43714817e-02	1.32602441e-03
5.75000000e-02	3.36871329e-02	1.31247703e-03
5.77500000e-02	3.37698941e-02	1.27768006e-03
5.80000000e-02	3.31607073e-02	1.27068883e-03
5.82500000e-02	3.28830751e-02	1.25170877e-03
5.85000000e-02	3.31825495e-02	1.26499242e-03
5.87500000e-02	3.38659738e-02	1.27531536e-03
5.90000000e-02	3.25235359e-02	1.22507435e-03
5.92500000e-02	3.32976930e-02	1.26028787e-03
5.95000000e-02	3.27928191e-02	1.22407385e-03
5.97500000e-02	3.21172843e-02	1.21573145e-03
6.00000000e-02	3.22305191e-02	1.20708182e-03
6.02500000e-02	3.16785956e-02	1.19411972e-03
6.05000000e-02	3.19966608e-02	1.18772744e-03
6.07500000e-02	3.20628080e-02	1.19424240e-03
6.10000000e-02	3.24102129e-02	1.20548278e-03
6.12500000e-02	3.03696342e-02	1.13214497e-03
6.15000000e-02	3.23440169e-02	1.19167604e-03
6.17500000e-02	3.06684021e-02	1.14529334e-03
6.20000000e-02	3.06570243e-02	1.13117043e-03
6.22500000e-02	3.03239569e-02	1.11683693e-03
6.25000000e-02	3.03376423e-02	1.11940168e-03
6.27500000e-02	3.03030734e-02	1.10440041e-03
6.30000000e-02	3.07874178e-02	1.11833157e-03
6.32500000e-02	3.05968158e-02	1.11914766e-03
6.35000000e-02	2.96921640e-02	1.08438739e-03
6.37500000e-02	2.95315679e-02	1.08390333e-03
6.40000000e-02	2.97847210e-02	1.08496303e-03
6.42500000e-02	2.93485881e-02	1.06306620e-03
6.45000000e-02	3.00002280e-02	1.08072258e-03
6.47500000e-02	2.91030473e-02	1.04444453e-03
6.50000000e-02	2.90742120e-02	1.05314111e-03
6.52500000e-02	2.92419075e-02	1.04402796e-03
6.55000000e-02	2.86389568e-02	1.02975658e-03
6.57500000e-02	2.88994726e-02	1.02869532e-03
6.60000000e-02	2.88476130e-02	1.02764811e-03
6.62500000e-02	2.87775678e-02	1.04342937e-03
6.65000000e-02	2.89614810e-02	1.03038385e-03
6.67500000e-02	2.84662021e-02	1.00792605e-03
6.70000000e-02	2.87050302e-02	1.02411725e-03
6.72500000e-02	2.78665389e-02	9.91409510e-04
6.75000000e-02	2.81512772e-02	1.00532501e-03
6.77500000e-02	2.78147412e-02	9.79967524e-04
6.80000000e-02	2.79481769e-02	9.96995138e-04
6.82500000e-02	2.84227643e-02	1.00245844e-03
6.85000000e-02	2.79005374e-02	9.96137598e-04
6.87500000e-02	2.73760438e-02	9.63846630e-04
6.90000000e-02	2.77417606e-02	9.70059742e-04
6.92500000e-02	2.77919691e-02	9.65183970e-04
6.95000000e-02	2.77910246e-02	9.76230637e-04
6.97500000e-02	2.77589804e-02	9.77453411e-04
7.00000000e-02	2.73610228e-02	9.46611849e-04
7.02500000e-02	2.73755818e-02	9.52607005e-04
7.05000000e-02	2.69789983e-02	9.29502848e-04
7.07500000e-02	2.77496389e-02	9.66746358e-04
7.10000000e-02	2.68552509e-02	9.27208580e-04
7.12500000e-02	2.64812007e-02	9.12908616e-04
7.15000000e-02	2.68242105e-02	9.12976027e-04
7.17500000e-02	2.73605275e-02	9.42807815e-04
7.20000000e-02	2.71074295e-02	9.36234341e-04
7.22500000e-02	2.70190947e-02	9.25088849e-04
7.25000000e-02	2.69394670e-02	9.27102010e-04
7.27500000e-02	2.68168253e-02	9.15689943e-04
7.30000000e-02	2.60876169e-02	8.94681717e-04
7.32500000e-02	2.64665118e-02	8.94860996e-04
7.35000000e-02	2.68856120e-02	9.09293668e-04
7.37500000e-02	2.70130145e-02	9.10198788e-04
7.40000000e-02	2.61427077e-02	8.93894827e-04
7.42500000e-02	2.62900918e-02	8.89989695e-04
7.45000000e-02	2.62257528e-02	8.94253952e-04
7.47500000e-02	2.61526832e-02	8.82337172e-04
7.50000000e-02	2.62737076e-02	8.86714191e-04
7.52500000e-02	2.59349739e-02	8.73864618e-04
7.55000000e-02	2.66515263e-02	8.90920469e-04
7.57500000e-02	2.65279032e-02	8.93028714e-04
7.60000000e-02	2.61096502e-02	8.74338194e-04
7.62500000e-02	2.59417415e-02	8.75460106e-04
7.65000000e-02	2.58469230e-02	8.64253581e-04
7.67500000e-02	2.57725554e-02	8.56904954e-04
7.70000000e-02	2.55686816e-02	8.55051603e-04
7.72500000e-02	2.60646093e-02	8.84809961e-04
7.75000000e-02	2.55432904e-02	8.73956731e-04
7.77500000e-02	2.60062816e-02	8.98950148e-04
7.80000000e-02	2.59240848e-02	8.94767208e-04
7.82500000e-02	2.57349214e-02	8.97818763e-04
7.85000000e-02	2.61056548e-02	9.09809840e-04
7.87500000e-02	2.62876808e-02	9.02061564e-04
7.90000000e-02	2.63846366e-02	9.25067791e-04
7.92500000e-02	2.57565057e-02	9.08682978e-04
7.95000000e-02	2.60571424e-02	9.19174097e-04
7.97500000e-02	2.52270483e-02	9.03320325e-04
8.00000000e-02	2.63238885e-02	9.31091180e-04
8.02500000e-02	2.53708185e-02	9.01465848e-04
8.05000000e-02	2.61153718e-02	9.27756799e-04
8.07500000e-02	2.60375601e-02	9.35906197e-04
8.10000000e-02	2.53610565e-02	9.07617150e-04
8.12500000e-02	2.53906508e-02	9.09541141e-04
8.15000000e-02	2.51894054e-02	8.93530028e-04
8.17500000e-02	2.51996987e-02	9.05289998e-04
8.20000000e-02	2.58875221e-02	9.30363647e-04
8.22500000e-02	2.56864685e-02	9.24725369e-04
8.25000000e-02	2.46096799e-02	8.81455352e-04
8.27500000e-02	2.57766169e-02	9.20944007e-04
8.30000000e-02	2.44690049e-02	8.95040818e-04
8.32500000e-02	2.54716346e-02	9.30268094e-04
8.35000000e-02	2.46263649e-02	9.03423161e-04
8.37500000e-02	2.51434775e-02	9.00552994e-04
8.40000000e-02	2.44805778e-02	8.88598412e-04
8.42500000e-02	2.48224569e-02	9.15417824e-04
8.45000000e-02	2.41712511e-02	8.92354375e-04
8.47500000e-02	2.46747522e-02	9.00116157e-04
8.50000000e-02	2.50333997e-02	9.12666757e-04
8.52500000e-02	2.49649519e-02	9.12403901e-04
8.55000000e-02	2.46674670e-02	8.98491587e-04
8.57500000e-02	2.52083374e-02	9.24583908e-04
8.60000000e-02	2.43631779e-02	8.97263560e-04
8.62500000e-02	2.42243813e-02	8.82551178e-04
8.65000000e-02	2.44285901e-02	8.95314988e-04
8.67500000e-02	2.49461857e-02	9.11750863e-04
8.70000000e-02	2.40953492e-02	8.69245800e-04
8.72500000e-02	2.42387891e-02	8.54069585e-04
8.75000000e-02	2.46862139e-02	8.61293898e-04
8.77500000e-02	2.44671445e-02	8.50708237e-04
8.80000000e-02	2.35745928e-02	8.22372408e-04
8.82500000e-02	2.39764863e-02	8.27328568e-04
8.85000000e-02	2.37254310e-02	8.20717573e-04
8.87500000e-02	2.41407800e-02	8.21250975e-04
8.90000000e-02	2.40587377e-02	8.24867172e-04
8.92500000e-02	2.36554160e-02	8.07314219e-04
8.95000000e-02	2.36949119e-02	8.09515121e-04
8.97500000e-02	2.42987661e-02	8.15526986e-04
9.00000000e-02	2.44365746e-02	8.15193291e-04
9.02500000e-02	2.36211297e-02	7.94205559e-04
9.05000000e-02	2.36041847e-02	7.90718494e-04
9.07500000e-02	2.36012215e-02	7.86165717e-04
9.10000000e-02	2.40897514e-02	7.98821977e-04
9.12500000e-02	2.33745230e-02	7.77737980e-04
9.15000000e-02	2.29934517e-02	7.67294051e-04
9.17500000e-02	2.32674870e-02	7.76075101e-04
9.20000000e-02	2.36046306e-02	7.83512427e-04
9.22500000e-02	2.38311124e-02	7.88137287e-04
9.25000000e-02	2.36820089e-02	7.79973651e-04
9.27500000e-02	2.34381882e-02	7.68454929e-04
9.30000000e-02	2.30833135e-02	7.60499023e-04
9.32500000e-02	2.32795972e-02	7.66152508e-04
9.35000000e-02	2.37026364e-02	7.70071172e-04
9.37500000e-02	2.33866707e-02	7.59224403e-04
9.40000000e-02	2.31971589e-02	7.60238194e-04
9.42500000e-02	2.38618377e-02	7.74780955e-04
9.45000000e-02	2.29043015e-02	7.37536987e-04
9.47500000e-02	2.33679215e-02	7.58648694e-04
9.50000000e-02	2.35333709e-02	7.55168708e-04
9.52500000e-02	2.27638689e-02	7.36954610e-04
9.55000000e-02	2.32304182e-02	7.49371464e-04
9.57500000e-02	2.30618978e-02	7.42824942e-04
9.60000000e-02	2.29872879e-02	7.42085855e-04
9.62500000e-02	2.27031298e-02	7.28165663e-04
9.65000000e-02	2.29623545e-02	7.35581982e-04
9.67500000e-02	2.27978731e-02	7.29898466e-04
9.70000000e-02	2.28296973e-02	7.26877546e-04
9.72500000e-02	2.27773691e-02	7.25056206e-04
9.75000000e-02	2.27043964e-02	7.22028695e-04
9.77500000e-02	2.29658526e-02	7.21477206e-04
9.80000000e-02	2.27155065e-02	7.23071615e-04
9.82500000e-02	2.30882908e-02	7.35235501e-04
9.85000000e-02	2.26870251e-02	7.15788797e-04
9.87500000e-02	2.27334062e-02	7.18650286e-04
9.90000000e-02	2.27501209e-02	7.18828139e-04
9.92500000e-02	2.26223731e-02	7.13029516e-04
9.95000000e-02	2.30746016e-02	7.22306395e-04
9.97500000e-02	2.21181864e-02	7.01059436e-04
1.00000000e-01	2.23718928e-02	5.73983026e-04
1.00500000e-01	2.24836146e-02	4.99029875e-04
1.01000000e-01	2.24077702e-02	4.90240916e-04
1.01500000e-01	2.24587895e-02	4.95574832e-04
1.02000000e-01	2.24092434e-02	4.91390152e-04
1.02500000e-01	2.21104667e-02	4.85295933e-04
1.03000000e-01	2.25440987e-02	4.92825096e-04
1.03500000e-01	2.22776026e-02	4.84471706e-04
1.04000000e-01	2.24546787e-02	4.86046655e-04
1.04500000e-01	2.22630360e-02	4.79630782e-04
1.05000000e-01	2.24563161e-02	4.81294400e-04
1.05500000e-01	2.23966609e-02	4.79928368e-04
1.06000000e-01	2.22851283e-02	4.75707859e-04
1.06500000e-01	2.18529268e-02	4.67575463e-04
1.07000000e-01	2.20990390e-02	4.78403262e-04
1.07500000e-01	2.15436869e-02	4.75717585e-04
1.08000000e-01	2.16185497e-02	4.83421559e-04
1.08500000e-01	2.20264225e-02	4.94008177e-04
1.09000000e-01	2.19014339e-02	4.94416240e-04
1.09500000e-01	2.17216248e-02	4.93887097e-04
1.10000000e-01	2.18128548e-02	4.87976278e-04
1.10500000e-01	2.16484861e-02	4.73637089e-04
1.11000000e-01	2.16036998e-02	4.65733725e-04
1.11500000e-01	2.20585699e-02	4.71736105e-04
1.12000000e-01	2.22823737e-02	4.71750452e-04
1.12500000e-01	2.17638565e-02	4.59384737e-04
1.13000000e-01	2.17340020e-02	4.60141859e-04
1.13500000e-01	2.20223085e-02	4.64340276e-04
1.14000000e-01	2.20075580e-02	4.62002309e-04
1.14500000e-01	2.19057063e-02	4.57798638e-04
1.15000000e-01	2.16848121e-02	4.49489266e-04
1.15500000e-01	2.14750284e-02	4.49351222e-04
1.16000000e-01	2.14838075e-02	4.46116126e-04
1.16500000e-01	2.14798150e-02	4.43976846e-04
1.17000000e-01	2.18897329e-02	4.50867622e-04
1.17500000e-01	2.12888557e-02	4.36799326e-04
1.18000000e-01	2.13960248e-02	4.43553890e-04
1.18500000e-01	2.14910995e-02	4.40966846e-04
1.19000000e-01	2.17842362e-02	4.43386823e-04
1.19500000e-01	2.13707242e-02	4.35213504e-04
1.20000000e-01	2.13040469e-02	4.34569842e-04
1.20500000e-01	2.11237116e-02	4.27568265e-04
1.21000000e-01	2.15750272e-02	4.36762298e-04
1.21500000e-01	2.16012930e-02	4.36943242e-04
1.22000000e-01	2.14799007e-02	4.31574412e-04
1.22500000e-01	2.13662255e-02	4.31105782e-04
1.23000000e-01	2.16372416e-02	4.32466929e-04
1.23500000e-01	2.16306822e-02	4.32315947e-04
1.24000000e-01	2.19716935e-02	4.38629381e-04
1.24500000e-01	2.14360988e-02	4.25935918e-04
1.25000000e-01	2.17805151e-02	4.33108620e-04
1.25500000e-01	2.16171542e-02	4.28328232e-04
1.26000000e-01	2.16614423e-02	4.29202525e-04
1.26500000e-01	2.18245531e-02	4.29288004e-04
1.27000000e-01	2.17892257e-02	4.29653489e-04
1.27500000e-01	2.18256650e-02	4.28499751e-04
1.28000000e-01	2.18416604e-02	4.29091745e-04
1.28500000e-01	2.16892567e-02	4.24595450e-04
1.29000000e-01	2.13513060e-02	4.17601908e-04
1.29500000e-01	2.15575402e-02	4.20989649e-04
1.30000000e-01	2.18775527e-02	4.25946413e-04
1.30500000e-01	2.14536344e-02	4.17174505e-04
1.31000000e-01	2.14496443e-02	4.15485474e-04
1.31500000e-01	2.15906641e-02	4.18805228e-04
1.32000000e-01	2.17033355e-02	4.17223348e-04
1.32500000e-01	2.17417331e-02	4.18476059e-04
1.33000000e-01	2.17890720e-02	4.18199520e-04
1.33500000e-01	2.13273051e-02	4.06419955e-04
1.34000000e-01	2.13581731e-02	4.08785302e-04
1.34500000e-01	2.16268183e-02	4.10598286e-04
1.35000000e-01	2.10104094e-02	4.01940030e-04
1.35500000e-01	2.15274311e-02	4.07995423e-04
1.36000000e-01	2.16270946e-02	4.08853386e-04
1.36500000e-01	2.13964412e-02	4.07014319e-04
1.37000000e-01	2.14683129e-02	4.04288932e-04
1.37500000e-01	2.16034049e-02	4.06067372e-04
1.38000000e-01	2.12203187e-02	3.98039312e-04
1.38500000e-01	2.12228946e-02	3.99107341e-04
1.39000000e-01	2.10942965e-02	3.96352584e-04
1.39500000e-01	2.14128930e-02	4.01163255e-04
1.40000000e-01	2.10850789e-02	3.97369583e-04
1.40500000e-01	2.10841289e-02	3.95539365e-04
1.41000000e-01	2.14350031e-02	4.00216480e-04
1.41500000e-01	2.12191960e-02	3.98622426e-04
1.42000000e-01	2.07216357e-02	3.86593712e-04
1.42500000e-01	2.10599491e-02	3.92357490e-04
1.43000000e-01	2.06809028e-02	3.86599852e-04
1.43500000e-01	2.08572192e-02	3.84950084e-04
1.44000000e-01	2.12124265e-02	3.93014286e-04
1.44500000e-01	2.08298604e-02	3.83901166e-04
1.45000000e-01	2.08165966e-02	3.84818156e-04
1.45500000e-01	2.05888874e-02	3.79459315e-04
1.46000000e-01	2.04318619e-02	3.77214509e-04
1.46500000e-01	2.05847443e-02	3.80764849e-04
1.47000000e-01	2.09863834e-02	3.84907328e-04
1.47500000e-01	2.11444966e-02	3.86985303e-04
1.48000000e-01	2.05332620e-02	3.76399408e-04
1.48500000e-01	2.02618680e-02	3.70523113e-04
1.49000000e-01	2.08959624e-02	3.80346766e-04
1.49500000e-01	2.08684440e-02	3.79568689e-04
1.50000000e-01	2.06255175e-02	3.74299037e-04
1.50500000e-01	2.06929051e-02	3.77708623e-04
1.51000000e-01	2.09488797e-02	3.80178011e-04
1.51500000e-01	2.03879581e-02	3.67870766e-04
1.52000000e-01	2.07282611e-02	3.72071930e-04
1.52500000e-01	2.00868884e-02	3.62096774e-04
1.53000000e-01	2.02935005e-02	3.65996418e-04
1.53500000e-01	2.04191558e-02	3.68355355e-04
1.54000000e-01	2.05335156e-02	3.68456984e-04
1.54500000e-01	2.07856400e-02	3.78738930e-04
1.55000000e-01	2.03509524e-02	3.76230939e-04
1.55500000e-01	2.05420865e-02	3.83376371e-04
1.56000000e-01	2.02490074e-02	3.79322377e-04
1.56500000e-01	2.01015851e-02	3.76819539e-04
1.57000000e-01	2.01934628e-02	3.78922926e-04
1.57500000e-01	2.05323896e-02	3.78073886e-04
1.58000000e-01	2.03635424e-02	3.70158475e-04
1.58500000e-01	2.01814174e-02	3.64985647e-04
1.59000000e-01	2.04158773e-02	3.65516812e-04
1.59500000e-01	2.02144152e-02	3.61509077e-04
1.60000000e-01	2.01528746e-02	3.60406507e-04
1.60500000e-01	2.03410428e-02	3.61728538e-04
1.61000000e-01	2.01990238e-02	3.59419731e-04
1.61500000e-01	1.99603331e-02	3.53608653e-04
1.62000000e-01	2.01585585e-02	3.57760950e-04
1.62500000e-01	2.03070822e-02	3.60418299e-04
1.63000000e-01	1.99548322e-02	3.50973198e-04
1.63500000e-01	2.02849405e-02	3.59146324e-04
1.64000000e-01	2.02281423e-02	3.54607529e-04
1.64500000e-01	2.01286376e-02	3.53208971e-04
1.65000000e-01	2.00824914e-02	3.52528551e-04
1.65500000e-01	2.00632555e-02	3.51544473e-04
1.66000000e-01	2.02429139e-02	3.53779798e-04
1.66500000e-01	2.00109904e-02	3.48741584e-04
1.67000000e-01	1.97245306e-02	3.44062534e-04
1.67500000e-01	2.00945434e-02	3.49614110e-04
1.68000000e-01	1.99033653e-02	3.46610361e-04
1.68500000e-01	2.00270484e-02	3.47917041e-04
1.69000000e-01	1.98880824e-02	3.45151313e-04
1.69500000e-01	1.98338929e-02	3.43097670e-04
1.70000000e-01	1.99768526e-02	3.44713750e-04
1.70500000e-01	1.99887681e-02	3.44464609e-04
1.71000000e-01	2.00755057e-02	3.45257899e-04
1.71500000e-01	2.00461505e-02	3.44284694e-04
1.72000000e-01	1.98645400e-02	3.41169708e-04
1.72500000e-01	2.00010876e-02	3.41918944e-04
1.73000000e-01	2.01722157e-02	3.45291262e-04
1.73500000e-01	1.97099722e-02	3.35117556e-04
1.74000000e-01	1.97655822e-02	3.37254254e-04
1.74500000e-01	1.98979534e-02	3.36448020e-04
1.75000000e-01	1.98807486e-02	3.34899869e-04
1.75500000e-01	1.99239250e-02	3.35405012e-04
1.76000000e-01	1.97854210e-02	3.34693190e-04
1.76500000e-01	1.96137695e-02	3.31058759e-04
1.77000000e-01	1.97942056e-02	3.32852793e-04
1.77500000e-01	2.01374118e-02	3.37494417e-04
1.78000000e-01	1.96189934e-02	3.29829723e-04
1.78500000e-01	1.98773251e-02	3.33929613e-04
1.79000000e-01	1.95347325e-02	3.27735356e-04
1.79500000e-01	1.97816344e-02	3.31537201e-04
1.80000000e-01	1.96507189e-02	3.30893094e-04
1.80500000e-01	1.97019657e-02	3.31911861e-04
1.81000000e-01	1.96885852e-02	3.29807480e-04
1.81500000e-01	1.95791611e-02	3.25968312e-04
1.82000000e-01	1.95548806e-02	3.27232301e-04
1.82500000e-01	1.95042037e-02	3.25101362e-04
1.83000000e-01	1.96913505e-02	3.27530303e-04
1.83500000e-01	1.95578326e-02	3.25119136e-04
1.84000000e-01	1.95755415e-02	3.24377885e-04
1.84500000e-01	1.93793210e-02	3.21096266e-04
1.85000000e-01	1.96247816e-02	3.25446036e-04
1.85500000e-01	1.94212745e-02	3.21780222e-04
1.86000000e-01	1.93155121e-02	3.18423281e-04
1.86500000e-01	1.94254835e-02	3.19263382e-04
1.87000000e-01	1.93809687e-02	3.19402292e-04
1.87500000e-01	1.94635210e-02	3.19984231e-04
1.88000000e-01	1.94421201e-02	3.19483733e-04
1.88500000e-01	1.97000039e-02	3.22907442e-04
1.89000000e-01	1.96116611e-02	3.20049925e-04
1.89500000e-01	1.93401969e-02	3.16019480e-04
1.90000000e-01	1.95982531e-02	3.21414845e-04
1.90500000e-01	1.94887868e-02	3.19106336e-04
1.91000000e-01	1.96510476e-02	3.19972796e-04
1.91500000e-01	1.93494328e-02	3.16891171e-04
1.92000000e-01	1.94111541e-02	3.14472619e-04
1.92500000e-01	1.93734320e-02	3.16018699e-04
1.93000000e-01	1.91906422e-02	3.12235717e-04
1.93500000e-01	1.93359106e-02	3.12798665e-04
1.94000000e-01	1.92633798e-02	3.12324455e-04
1.94500000e-01	1.92396133e-02	3.11170636e-04
1.95000000e-01	1.92462279e-02	3.10578110e-04
1.95500000e-01	1.92206923e-02	3.09301209e-04
1.96000000e-01	1.95718663e-02	3.15135693e-04
1.96500000e-01	1.91435494e-02	3.07078736e-04
1.97000000e-01	1.93029102e-02	3.09813678e-04
1.97500000e-01	1.94491276e-02	3.12188496e-04
1.98000000e-01	1.91297100e-02	3.06978556e-04
1.98500000e-01	1.93550156e-02	3.09619726e-04
1.99000000e-01	1.91910884e-02	3.07033451e-04
1.99500000e-01	1.91371303e-02	3.05292373e-04
2.00000000e-01	1.91921149e-02	3.06572267e-04
2.00500000e-01	1.93728424e-02	3.07975324e-04
2.01000000e-01	1.92653780e-02	3.06845197e-04
2.01500000e-01	1.92929773e-02	3.07420265e-04
2.02000000e-01	1.93541556e-02	3.07070595e-04
2.02500000e-01	1.91833425e-02	3.02910385e-04
2.03000000e-01	1.91999442e-02	3.03363922e-04
2.03500000e-01	1.91492419e-02	3.02996864e-04
2.04000000e-01	1.92074228e-02	3.03465220e-04
2.04500000e-01	1.91842308e-02	3.04334156e-04
2.05000000e-01	1.92816823e-02	3.02746228e-04
2.05500000e-01	1.90782949e-02	3.02068332e-04
2.06000000e-01	1.90875708e-02	2.99301519e-04
2.06500000e-01	1.90473221e-02	2.99695451e-04
2.07000000e-01	1.92047969e-02	3.01556952e-04
2.07500000e-01	1.87639794e-02	2.94543745e-04
2.08000000e-01	1.92162050e-02	3.02432697e-04
2.08500000e-01	1.90192496e-02	2.96486371e-04
2.09000000e-01	1.90540109e-02	2.98693060e-04
2.09500000e-01	1.91621770e-02	2.98392852e-04
2.10000000e-01	1.88352072e-02	2.95115909e-04
2.10500000e-01	1.91874191e-02	2.98689525e-04
2.11000000e-01	1.91735505e-02	2.97772312e-04
2.11500000e-01	1.92537903e-02	2.98476340e-04
2.12000000e-01	1.89662948e-02	2.93975584e-04
2.12500000e-01	1.88787841e-02	2.92809242e-04
2.13000000e-01	1.90179091e-02	2.93335223e-04
2.13500000e-01	1.91594466e-02	2.95516854e-04
2.14000000e-01	1.90416111e-02	2.94559556e-04
2.14500000e-01	1.89115395e-02	2.90917077e-04
2.15000000e-01	1.89822971e-02	2.94392464e-04
2.15500000e-01	1.91136184e-02	2.91960546e-04
2.16000000e-01	1.90720590e-02	2.92513659e-04
2.16500000e-01	1.90037989e-02	2.91766349e-04
2.17000000e-01	1.91161015e-02	2.97097681e-04
2.17500000e-01	1.89421968e-02	3.00256156e-04
2.18000000e-01	1.91826690e-02	3.03282106e-04
2.18500000e-01	1.86539172e-02	2.97448142e-04
2.19000000e-01	1.89018165e-02	3.01965302e-04
2.19500000e-01	1.88554759e-02	3.03322170e-04
2.20000000e-01	1.87754386e-02	3.03674420e-04
2.20500000e-01	1.89762692e-02	3.06836296e-04
2.21000000e-01	1.88992312e-02	3.07229932e-04
2.21500000e-01	1.86155062e-02	3.04466195e-04
2.22000000e-01	1.87462372e-02	3.05257034e-04
2.22500000e-01	1.88565742e-02	3.07226542e-04
2.23000000e-01	1.88157821e-02	3.06886538e-04
2.23500000e-01	1.86891361e-02	3.07625022e-04
2.24000000e-01	1.88342403e-02	3.10709777e-04
2.24500000e-01	1.87399786e-02	3.09333951e-04
2.25000000e-01	1.86963592e-02	3.09087076e-04
2.25500000e-01	1.88663203e-02	3.13501376e-04
2.26000000e-01	1.87924839e-02	3.11796251e-04
2.26500000e-01	1.87666966e-02	3.06722173e-04
2.27000000e-01	1.88156629e-02	3.04611357e-04
2.27500000e-01	1.86912877e-02	3.00556100e-04
2.28000000e-01	1.85668640e-02	2.97769991e-04
2.28500000e-01	1.85311421e-02	2.95732608e-04
2.29000000e-01	1.88800871e-02	2.98394223e-04
2.29500000e-01	1.85875186e-02	2.92813867e-04
2.30000000e-01	1.87719074e-02	2.95985705e-04
2.30500000e-01	1.85590021e-02	2.91542317e-04
2.31000000e-01	1.88105020e-02	2.94771908e-04
2.31500000e-01	1.85646009e-02	2.89631906e-04
2.32000000e-01	1.87287986e-02	2.90848899e-04
2.32500000e-01	1.88741053e-02	2.92217709e-04
2.33000000e-01	1.82704242e-02	2.83733613e-04
2.33500000e-01	1.88613357e-02	2.92364001e-04
2.34000000e-01	1.86788020e-02	2.89273288e-04
2.34500000e-01	1.86171638e-02	2.85876581e-04
2.35000000e-01	1.87022681e-02	2.87491781e-04
2.35500000e-01	1.85973062e-02	2.85571703e-04
2.36000000e-01	1.84585346e-02	2.82869100e-04
2.36500000e-01	1.85044082e-02	2.83173604e-04
2.37000000e-01	1.85125715e-02	2.83314797e-04
2.37500000e-01	1.84044004e-02	2.81769982e-04
2.38000000e-01	1.85036349e-02	2.81185803e-04
2.38500000e-01	1.83147744e-02	2.77721149e-04
2.39000000e-01	1.85411372e-02	2.81100888e-04
2.39500000e-01	1.84519777e-02	2.80165894e-04
2.40000000e-01	1.86870283e-02	2.83369480e-04
2.40500000e-01	1.83563593e-02	2.76418511e-04
2.41000000e-01	1.84189884e-02	2.77035990e-04
2.41500000e-01	1.84309213e-02	2.76521320e-04
2.42000000e-01	1.84204252e-02	2.76323357e-04
2.42500000e-01	1.82418252e-02	2.73566418e-04
2.43000000e-01	1.83490451e-02	2.75122559e-04
2.43500000e-01	1.85403374e-02	2.77019285e-04
2.44000000e-01	1.83852127e-02	2.74794945e-04
2.44500000e-01	1.86113941e-02	2.77461682e-04
2.45000000e-01	1.82768424e-02	2.72731809e-04
2.45500000e-01	1.82479581e-02	2.71404108e-04
2.46000000e-01	1.85992450e-02	2.76273364e-04
2.46500000e-01	1.85267476e-02	2.74020583e-04
2.47000000e-01	1.84599473e-02	2.72946874e-04
2.47500000e-01	1.83688755e-02	2.71894891e-04
2.48000000e-01	1.82655723e-02	2.69302133e-04
2.48500000e-01	1.82412915e-02	2.68728886e-04
2.49000000e-01	1.83098448e-02	2.69797238e-04
2.49500000e-01	1.83862671e-02	2.71258851e-04
2.50000000e-01	1.84954073e-02	2.71629783e-04
2.50500000e-01	1.81600556e-02	2.66664683e-04
2.51000000e-01	1.82388638e-02	2.68034722e-04
2.51500000e-01	1.82950163e-02	2.69237040e-04
2.52000000e-01	1.81855921e-02	2.66766543e-04
2.52500000e-01	1.81918856e-02	2.65469583e-04
2.53000000e-01	1.82393347e-02	2.67106852e-04
2.53500000e-01	1.82510416e-02	2.66584641e-04
2.54000000e-01	1.80579342e-02	2.63762213e-04
2.54500000e-01	1.83877966e-02	2.69211874e-04
2.55000000e-01	1.82607328e-02	2.65477582e-04
2.55500000e-01	1.83269486e-02	2.67444404e-04
2.56000000e-01	1.81672579e-02	2.62954119e-04
2.56500000e-01	1.83957161e-02	2.67553737e-04
2.57000000e-01	1.82429923e-02	2.63694406e-04
2.57500000e-01	1.81664920e-02	2.63628184e-04
2.58000000e-01	1.82830712e-02	2.64737448e-04
2.58500000e-01	1.82797007e-02	2.64471252e-04
2.59000000e-01	1.80519217e-02	2.60787948e-04
2.59500000e-01	1.83167807e-02	2.63239911e-04
2.60000000e-01	1.80830811e-02	2.61214903e-04
2.60500000e-01	1.80036623e-02	2.59519409e-04
2.61000000e-01	1.82565580e-02	2.61672832e-04
2.61500000e-01	1.79234258e-02	2.58165954e-04
2.62000000e-01	1.80859090e-02	2.60207790e-04
2.62500000e-01	1.80182283e-02	2.57998816e-04
2.63000000e-01	1.81504068e-02	2.60435512e-04
2.63500000e-01	1.80112045e-02	2.57964166e-04
2.64000000e-01	1.80018552e-02	2.58136934e-04
2.64500000e-01	1.79720505e-02	2.56661341e-04
2.65000000e-01	1.80591572e-02	2.56993317e-04
2.65500000e-01	1.82897370e-02	2.60538574e-04
2.66000000e-01	1.80352270e-02	2.56806505e-04
2.66500000e-01	1.81214948e-02	2.57323592e-04
2.67000000e-01	1.81228294e-02	2.57038750e-04
2.67500000e-01	1.79658303e-02	2.54228463e-04
2.68000000e-01	1.80690509e-02	2.55302518e-04
2.68500000e-01	1.78969016e-02	2.52999475e-04
2.69000000e-01	1.78545391e-02	2.51886939e-04
2.69500000e-01	1.78863360e-02	2.51828803e-04
2.70000000e-01	1.81138755e-02	2.54440445e-04
2.70500000e-01	1.81547228e-02	2.54554577e-04
2.71000000e-01	1.79613627e-02	2.53114634e-04
2.71500000e-01	1.79921434e-02	2.52820162e-04
2.72000000e-01	1.81494042e-02	2.54158475e-04
2.72500000e-01	1.79383202e-02	2.52653355e-04
2.73000000e-01	1.79161917e-02	2.51207542e-04
2.73500000e-01	1.79641421e-02	2.51152908e-04
2.74000000e-01	1.80473609e-02	2.52657301e-04
2.74500000e-01	1.77441386e-02	2.47899942e-04
2.75000000e-01	1.77830313e-02	2.48081777e-04
2.75500000e-01	1.79323232e-02	2.51177695e-04
2.76000000e-01	1.78054462e-02	2.48461009e-04
2.76500000e-01	1.78946780e-02	2.49522818e-04
2.77000000e-01	1.77438233e-02	2.47402632e-04
2.77500000e-01	1.78105615e-02	2.48282244e-04
2.78000000e-01	1.78451126e-02	2.48819288e-04
2.78500000e-01	1.81574716e-02	2.52555592e-04
2.79000000e-01	1.80067652e-02	2.49076103e-04
2.79500000e-01	1.78344565e-02	2.46382692e-04
2.80000000e-01	1.76813233e-02	2.45152804e-04
2.80500000e-01	1.77966455e-02	2.45487803e-04
2.81000000e-01	1.80165059e-02	2.49610104e-04
2.81500000e-01	1.78236452e-02	2.45765372e-04
2.82000000e-01	1.76820363e-02	2.44666851e-04
2.82500000e-01	1.77298579e-02	2.45695185e-04
2.83000000e-01	1.77569384e-02	2.44350828e-04
2.83500000e-01	1.78137715e-02	2.45664290e-04
2.84000000e-01	1.78119696e-02	2.44304676e-04
2.84500000e-01	1.80027005e-02	2.46779539e-04
2.85000000e-01	1.78696738e-02	2.45461254e-04
2.85500000e-01	1.77944325e-02	2.43694338e-04
2.86000000e-01	1.75016422e-02	2.39760610e-04
2.86500000e-01	1.76371317e-02	2.41896872e-04
2.87000000e-01	1.77984102e-02	2.44481804e-04
2.87500000e-01	1.78662792e-02	2.42838505e-04
2.88000000e-01	1.76378739e-02	2.39419682e-04
2.88500000e-01	1.76358228e-02	2.40067511e-04
2.89000000e-01	1.76065218e-02	2.39076850e-04
2.89500000e-01	1.75467878e-02	2.39507725e-04
2.90000000e-01	1.77886784e-02	2.41475720e-04
2.90500000e-01	1.72387394e-02	2.34289116e-04
2.91000000e-01	1.76354464e-02	2.38894151e-04
2.91500000e-01	1.77685492e-02	2.39567991e-04
2.92000000e-01	1.76497532e-02	2.39496443e-04
2.92500000e-01	1.74271943e-02	2.35865321e-04
2.93000000e-01	1.74244263e-02	2.35332461e-04
2.93500000e-01	1.75215334e-02	2.36832839e-04
2.94000000e-01	1.72987280e-02	2.33828706e-04
2.94500000e-01	1.76282378e-02	2.38352293e-04
2.95000000e-01	1.75590909e-02	2.35706160e-04
2.95500000e-01	1.77632772e-02	2.38843441e-04
2.96000000e-01	1.74859152e-02	2.36197371e-04
2.96500000e-01	1.74118390e-02	2.33931306e-04
2.97000000e-01	1.75345931e-02	2.35700969e-04
2.97500000e-01	1.74757786e-02	2.34722833e-04
2.98000000e-01	1.74768904e-02	2.33635110e-04
2.98500000e-01	1.75942293e-02	2.36125796e-04
2.99000000e-01	1.75233699e-02	2.33994047e-04
2.99500000e-01	1.76013099e-02	2.35680804e-04
3.00000000e-01	1.76182504e-02	2.35615685e-04
3.00500000e-01	1.75414185e-02	2.35517364e-04
3.01000000e-01	1.74019695e-02	2.32286133e-04
3.01500000e-01	1.73636884e-02	2.31876684e-04
3.02000000e-01	1.71749945e-02	2.28771992e-04
3.02500000e-01	1.76024544e-02	2.34427913e-04
3.03000000e-01	1.74441410e-02	2.32858650e-04
3.03500000e-01	1.77443000e-02	2.34620862e-04
3.04000000e-01	1.74390515e-02	2.32321477e-04
3.04500000e-01	1.74425238e-02	2.30966262e-04
3.05000000e-01	1.73573293e-02	2.30618132e-04
3.05500000e-01	1.73879385e-02	2.30081568e-04
3.06000000e-01	1.75220027e-02	2.30857433e-04
3.06500000e-01	1.73676602e-02	2.30071932e-04
3.07000000e-01	1.75096776e-02	2.30509417e-04
3.07500000e-01	1.72987403e-02	2.28881846e-04
3.08000000e-01	1.72838079e-02	2.29064621e-04
3.08500000e-01	1.73140876e-02	2.28363927e-04
3.09000000e-01	1.73724476e-02	2.28841081e-04
3.09500000e-01	1.73242199e-02	2.28053896e-04
3.10000000e-01	1.71448623e-02	2.25859631e-04
3.10500000e-01	1.73252601e-02	2.27310997e-04
3.11000000e-01	1.72711670e-02	2.27235000e-04
3.11500000e-01	1.72617715e-02	2.25936273e-04
3.12000000e-01	1.71425301e-02	2.25451672e-04
3.12500000e-01	1.73847937e-02	2.28166505e-04
3.13000000e-01	1.71678560e-02	2.24937833e-04
3.13500000e-01	1.71402525e-02	2.24239932e-04
3.14000000e-01	1.73200595e-02	2.26884108e-04
3.14500000e-01	1.70118336e-02	2.23458643e-04
3.15000000e-01	1.70576513e-02	2.22792539e-04
3.15500000e-01	1.72914824e-02	2.25762605e-04
3.16000000e-01	1.72335530e-02	2.24847777e-04
3.16500000e-01	1.71004581e-02	2.22723812e-04
3.17000000e-01	1.71493403e-02	2.23889939e-04
3.17500000e-01	1.69771007e-02	2.20667531e-04
3.18000000e-01	1.71070490e-02	2.22281992e-04
3.18500000e-01	1.71140762e-02	2.22180279e-04
3.19000000e-01	1.70955737e-02	2.22458882e-04
3.19500000e-01	1.72029546e-02	2.22643431e-04
3.20000000e-01	1.70944462e-02	2.21608532e-04
3.20500000e-01	1.70925865e-02	2.21187930e-04
3.21000000e-01	1.73260554e-02	2.23651775e-04
3.21500000e-01	1.70170735e-02	2.19289447e-04
3.22000000e-01	1.69023207e-02	2.18588126e-04
3.22500000e-01	1.72237935e-02	2.22215412e-04
3.23000000e-01	1.70068535e-02	2.19327560e-04
3.23500000e-01	1.69640478e-02	2.18386563e-04
3.24000000e-01	1.70892014e-02	2.19833657e-04
3.24500000e-01	1.69524641e-02	2.19289754e-04
3.25000000e-01	1.69991624e-02	2.19367050e-04
3.25500000e-01	1.71566614e-02	2.20183837e-04
3.26000000e-01	1.69603483e-02	2.17559118e-04
3.26500000e-01	1.67491480e-02	2.14888128e-04
3.27000000e-01	1.68146791e-02	2.16287501e-04
3.27500000e-01	1.68199420e-02	2.15898874e-04
3.28000000e-01	1.69289361e-02	2.17320109e-04
3.28500000e-01	1.69228446e-02	2.17086565e-04
3.29000000e-01	1.68412175e-02	2.14989432e-04
3.29500000e-01	1.72291121e-02	2.20166610e-04
3.30000000e-01	1.68470258e-02	2.15486873e-04
3.30500000e-01	1.70620221e-02	2.17857754e-04
3.31000000e-01	1.67976441e-02	2.14007623e-04
3.31500000e-01	1.69074632e-02	2.15440948e-04
3.32000000e-01	1.69817353e-02	2.16612409e-04
3.32500000e-01	1.68801309e-02	2.14944694e-04
3.33000000e-01	1.68478315e-02	2.14281189e-04
3.33500000e-01	1.69655051e-02	2.15919566e-04
3.34000000e-01	1.68592506e-02	2.14359582e-04
3.34500000e-01	1.68086400e-02	2.13229354e-04
3.35000000e-01	1.67781957e-02	2.12381994e-04
3.35500000e-01	1.69795547e-02	2.15198516e-04
3.36000000e-01	1.68594250e-02	2.13149074e-04
3.36500000e-01	1.67664060e-02	2.12030036e-04
3.37000000e-01	1.66680232e-02	2.10537247e-04
3.37500000e-01	1.68310270e-02	2.12513769e-04
3.38000000e-01	1.68473662e-02	2.13096867e-04
3.38500000e-01	1.67532979e-02	2.11022253e-04
3.39000000e-01	1.69234016e-02	2.13746883e-04
3.39500000e-01	1.66963906e-02	2.10297022e-04
3.40000000e-01	1.66543065e-02	2.09409396e-04
3.40500000e-01	1.67103062e-02	2.10343940e-04
3.41000000e-01	1.67177582e-02	2.09598983e-04
3.41500000e-01	1.69117004e-02	2.11867517e-04
3.42000000e-01	1.68080703e-02	2.10825748e-04
3.42500000e-01	1.67252171e-02	2.10156191e-04
3.43000000e-01	1.65752120e-02	2.08420220e-04
3.43500000e-01	1.67720578e-02	2.10305793e-04
3.44000000e-01	1.69039175e-02	2.11997800e-04
3.44500000e-01	1.66235569e-02	2.08147968e-04
3.45000000e-01	1.66742337e-02	2.08021137e-04
3.45500000e-01	1.65031821e-02	2.05608441e-04
3.46000000e-01	1.66579751e-02	2.08119442e-04
3.46500000e-01	1.66885981e-02	2.08067881e-04
3.47000000e-01	1.66660830e-02	2.08199076e-04
3.47500000e-01	1.66891868e-02	2.07172495e-04
3.48000000e-01	1.66007933e-02	2.06139604e-04
3.48500000e-01	1.65203643e-02	2.05886131e-04
3.49000000e-01	1.66910813e-02	2.07038283e-04
3.49500000e-01	1.67711975e-02	2.08487558e-04
3.50000000e-01	1.66655051e-02	1.68635448e-04
3.51000000e-01	1.65306800e-02	1.44920079e-04
3.52000000e-01	1.65520485e-02	1.45066958e-04
3.53000000e-01	1.64466181e-02	1.43748381e-04
3.54000000e-01	1.64943806e-02	1.44143535e-04
3.55000000e-01	1.64324943e-02	1.42988232e-04
3.56000000e-01	1.65362952e-02	1.44744619e-04
3.57000000e-01	1.63300557e-02	1.45887927e-04
3.58000000e-01	1.63459310e-02	1.46835709e-04
3.59000000e-01	1.64108632e-02	1.48406232e-04
3.60000000e-01	1.63358589e-02	1.49045493e-04
3.61000000e-01	1.63517627e-02	1.49790382e-04
3.62000000e-01	1.62860798e-02	1.49971137e-04
3.63000000e-01	1.63799090e-02	1.51038200e-04
3.64000000e-01	1.62286473e-02	1.50311688e-04
3.65000000e-01	1.63772056e-02	1.51731139e-04
3.66000000e-01	1.62077515e-02	1.48811392e-04
3.67000000e-01	1.62018039e-02	1.47158395e-04
3.68000000e-01	1.60538854e-02	1.44932075e-04
3.69000000e-01	1.62966877e-02	1.45930932e-04
3.70000000e-01	1.61835854e-02	1.44382251e-04
3.71000000e-01	1.62679745e-02	1.46623311e-04
3.72000000e-01	1.62548260e-02	1.47878414e-04
3.73000000e-01	1.61591126e-02	1.47361400e-04
3.74000000e-01	1.61788719e-02	1.47171429e-04
3.75000000e-01	1.60883550e-02	1.46954910e-04
3.76000000e-01	1.62466077e-02	1.47892421e-04
3.77000000e-01	1.61738012e-02	1.47024198e-04
3.78000000e-01	1.60662073e-02	1.46147173e-04
3.79000000e-01	1.60764893e-02	1.46584998e-04
3.80000000e-01	1.61206112e-02	1.47287445e-04
3.81000000e-01	1.60955737e-02	1.46717723e-04
3.82000000e-01	1.59797113e-02	1.45197830e-04
3.83000000e-01	1.61550640e-02	1.46847227e-04
3.84000000e-01	1.61123757e-02	1.46509697e-04
3.85000000e-01	1.60419431e-02	1.45996629e-04
3.86000000e-01	1.60990476e-02	1.46633484e-04
3.87000000e-01	1.60601933e-02	1.45860168e-04
3.88000000e-01	1.59486854e-02	1.45044581e-04
3.89000000e-01	1.60459769e-02	1.45988708e-04
3.90000000e-01	1.60316624e-02	1.45563212e-04
3.91000000e-01	1.60873351e-02	1.45771398e-04
3.92000000e-01	1.59086863e-02	1.44606880e-04
3.93000000e-01	1.58171035e-02	1.43562957e-04
3.94000000e-01	1.58494369e-02	1.43676678e-04
3.95000000e-01	1.57740370e-02	1.42983858e-04
3.96000000e-01	1.58726238e-02	1.43737047e-04
3.97000000e-01	1.56995202e-02	1.42720595e-04
3.98000000e-01	1.58410236e-02	1.43775887e-04
3.99000000e-01	1.58888728e-02	1.44339117e-04
4.00000000e-01	1.58369500e-02	1.43785252e-04
4.01000000e-01	1.57340031e-02	1.42631566e-04
4.02000000e-01	1.57886352e-02	1.43057381e-04
4.03000000e-01	1.58662174e-02	1.44203298e-04
4.04000000e-01	1.55885025e-02	1.41279822e-04
4.05000000e-01	1.57483884e-02	1.42644845e-04
4.06000000e-01	1.57543285e-02	1.42932039e-04
4.07000000e-01	1.57706410e-02	1.42781276e-04
4.08000000e-01	1.56130306e-02	1.41373000e-04
4.09000000e-01	1.56235118e-02	1.41358212e-04
4.10000000e-01	1.58574164e-02	1.43386168e-04
4.11000000e-01	1.56910953e-02	1.41820909e-04
4.12000000e-01	1.58127919e-02	1.42697887e-04
4.13000000e-01	1.57426747e-02	1.42303802e-04
4.14000000e-01	1.57965134e-02	1.42567513e-04
4.15000000e-01	1.55159763e-02	1.40197176e-04
4.16000000e-01	1.56080299e-02	1.40567271e-04
4.17000000e-01	1.57085638e-02	1.41728291e-04
4.18000000e-01	1.57476983e-02	1.43783494e-04
4.19000000e-01	1.56822741e-02	1.45083466e-04
4.20000000e-01	1.56977374e-02	1.45856098e-04
4.21000000e-01	1.57927080e-02	1.46930701e-04
4.22000000e-01	1.56209853e-02	1.45892845e-04
4.23000000e-01	1.55476145e-02	1.45935618e-04
4.24000000e-01	1.56204024e-02	1.46723119e-04
4.25000000e-01	1.56947613e-02	1.48069544e-04
4.26000000e-01	1.56721324e-02	1.47464850e-04
4.27000000e-01	1.55684068e-02	1.46762876e-04
4.28000000e-01	1.55874380e-02	1.47225703e-04
4.29000000e-01	1.56927861e-02	1.48561533e-04
4.30000000e-01	1.55678310e-02	1.47537226e-04
4.31000000e-01	1.57001133e-02	1.47912098e-04
4.32000000e-01	1.55792699e-02	1.47589194e-04
4.33000000e-01	1.56499095e-02	1.47917765e-04
4.34000000e-01	1.54651790e-02	1.46298781e-04
4.35000000e-01	1.53987224e-02	1.45965913e-04
4.36000000e-01	1.54608021e-02	1.47042767e-04
4.37000000e-01	1.56095507e-02	1.48287309e-04
4.38000000e-01	1.55264618e-02	1.47999405e-04
4.39000000e-01	1.54656124e-02	1.47505329e-04
4.40000000e-01	1.55824814e-02	1.48577842e-04
4.41000000e-01	1.54491277e-02	1.47885348e-04
4.42000000e-01	1.53731359e-02	1.47675379e-04
4.43000000e-01	1.53735590e-02	1.47496424e-04
4.44000000e-01	1.55232534e-02	1.48740039e-04
4.45000000e-01	1.53205682e-02	1.47667761e-04
4.46000000e-01	1.53835096e-02	1.48084503e-04
4.47000000e-01	1.53295686e-02	1.47390425e-04
4.48000000e-01	1.54490129e-02	1.48580852e-04
4.49000000e-01	1.53776424e-02	1.48693556e-04
4.50000000e-01	1.54220432e-02	1.49070278e-04
4.51000000e-01	1.54065624e-02	1.48914211e-04
4.52000000e-01	1.51791396e-02	1.46897722e-04
4.53000000e-01	1.54515278e-02	1.49825527e-04
4.54000000e-01	1.53665883e-02	1.48968439e-04
4.55000000e-01	1.52074339e-02	1.47830271e-04
4.56000000e-01	1.53683069e-02	1.48844525e-04
4.57000000e-01	1.52619708e-02	1.48390590e-04
4.58000000e-01	1.52218186e-02	1.48203555e-04
4.59000000e-01	1.52481866e-02	1.48328543e-04
4.60000000e-01	1.53087656e-02	1.49545849e-04
4.61000000e-01	1.52032535e-02	1.48703822e-04
4.62000000e-01	1.53394257e-02	1.49622802e-04
4.63000000e-01	1.54056924e-02	1.50519874e-04
4.64000000e-01	1.52666037e-02	1.49519003e-04
4.65000000e-01	1.53569186e-02	1.50404680e-04
4.66000000e-01	1.52822051e-02	1.49289633e-04
4.67000000e-01	1.51375815e-02	1.48809934e-04
4.68000000e-01	1.51739068e-02	1.49095255e-04
4.69000000e-01	1.52145233e-02	1.49109274e-04
4.70000000e-01	1.52418110e-02	1.49936456e-04
4.71000000e-01	1.51434980e-02	1.48687086e-04
4.72000000e-01	1.50847405e-02	1.48183769e-04
4.73000000e-01	1.50817447e-02	1.47798043e-04
4.74000000e-01	1.50428833e-02	1.47707548e-04
4.75000000e-01	1.51530232e-02	1.48804964e-04
4.76000000e-01	1.52302401e-02	1.48912741e-04
4.77000000e-01	1.49785255e-02	1.46999778e-04
4.78000000e-01	1.52132898e-02	1.49409226e-04
4.79000000e-01	1.50656745e-02	1.48168694e-04
4.80000000e-01	1.50586154e-02	1.47940485e-04
4.81000000e-01	1.50133549e-02	1.48363207e-04
4.82000000e-01	1.51081132e-02	1.48053572e-04
4.83000000e-01	1.51470404e-02	1.49080672e-04
4.84000000e-01	1.51691835e-02	1.49506037e-04
4.85000000e-01	1.51280107e-02	1.48927644e-04
4.86000000e-01	1.50264107e-02	1.48139413e-04
4.87000000e-01	1.50930972e-02	1.48687642e-04
4.88000000e-01	1.50604092e-02	1.48617420e-04
4.89000000e-01	1.51383768e-02	1.49406173e-04
4.90000000e-01	1.49925744e-02	1.48188528e-04
4.91000000e-01	1.48534444e-02	1.47168244e-04
4.92000000e-01	1.49224545e-02	1.47629321e-04
4.93000000e-01	1.50461852e-02	1.48701063e-04
4.94000000e-01	1.51448812e-02	1.49975085e-04
4.95000000e-01	1.51060801e-02	1.50924608e-04
4.96000000e-01	1.50505545e-02	1.54515713e-04
4.97000000e-01	1.50701221e-02	1.57867025e-04
4.98000000e-01	1.48910603e-02	1.58147059e-04
4.99000000e-01	1.51723437e-02	1.62773345e-04
5.00000000e-01	1.49066727e-02	1.61823570e-04
5.01000000e-01	1.51484601e-02	1.65186261e-04
5.02000000e-01	1.50031806e-02	1.66008772e-04
5.03000000e-01	1.50830799e-02	1.68646417e-04
5.04000000e-01	1.50345485e-02	1.68538708e-04
5.05000000e-01	1.50688988e-02	1.67165538e-04
5.06000000e-01	1.50596485e-02	1.62675306e-04
5.07000000e-01	1.49636633e-02	1.60536809e-04
5.08000000e-01	1.50512284e-02	1.60348006e-04
5.09000000e-01	1.49607011e-02	1.58736037e-04
5.10000000e-01	1.51121330e-02	1.59786771e-04
5.11000000e-01	1.49790521e-02	1.58060846e-04
5.12000000e-01	1.49004357e-02	1.56943180e-04
5.13000000e-01	1.50026424e-02	1.57946275e-04
5.14000000e-01	1.49183185e-02	1.56480062e-04
5.15000000e-01	1.49048411e-02	1.55845366e-04
5.16000000e-01	1.48395786e-02	1.54706746e-04
5.17000000e-01	1.49224630e-02	1.55386187e-04
5.18000000e-01	1.49405441e-02	1.55492186e-04
5.19000000e-01	1.48628613e-02	1.54219160e-04
5.20000000e-01	1.48439625e-02	1.53229015e-04
5.21000000e-01	1.49257589e-02	1.54074130e-04
5.22000000e-01	1.49442295e-02	1.54180534e-04
5.23000000e-01	1.48622759e-02	1.54045265e-04
5.24000000e-01	1.47223112e-02	1.52455765e-04
5.25000000e-01	1.48255395e-02	1.52912739e-04
5.26000000e-01	1.48429492e-02	1.53178662e-04
5.27000000e-01	1.49120014e-02	1.54382122e-04
5.28000000e-01	1.49311676e-02	1.54161675e-04
5.29000000e-01	1.47958905e-02	1.52820740e-04
5.30000000e-01	1.46346430e-02	1.51433586e-04
5.31000000e-01	1.46705220e-02	1.52034451e-04
5.32000000e-01	1.47797434e-02	1.52627757e-04
5.33000000e-01	1.46898587e-02	1.51998427e-04
5.34000000e-01	1.46713734e-02	1.52169396e-04
5.35000000e-01	1.46253256e-02	1.51565639e-04
5.36000000e-01	1.47409923e-02	1.52175152e-04
5.37000000e-01	1.45362506e-02	1.50148637e-04
5.38000000e-01	1.45338209e-02	1.50136749e-04
5.39000000e-01	1.46814909e-02	1.51818668e-04
5.40000000e-01	1.44817306e-02	1.49606796e-04
5.41000000e-01	1.46119442e-02	1.50829975e-04
5.42000000e-01	1.47705829e-02	1.52519168e-04
5.43000000e-01	1.46639178e-02	1.51469075e-04
5.44000000e-01	1.47299257e-02	1.51531777e-04
5.45000000e-01	1.46439228e-02	1.51609710e-04
5.46000000e-01	1.47001635e-02	1.52042293e-04
5.47000000e-01	1.45737328e-02	1.50548459e-04
5.48000000e-01	1.46668526e-02	1.51077539e-04
5.49000000e-01	1.46363874e-02	1.50395818e-04
5.50000000e-01	1.46475625e-02	1.51126350e-04
5.51000000e-01	1.46230969e-02	1.50442982e-04
5.52000000e-01	1.46409060e-02	1.50817206e-04
5.53000000e-01	1.44531004e-02	1.49022466e-04
5.54000000e-01	1.44225774e-02	1.47866566e-04
5.55000000e-01	1.44536905e-02	1.48234762e-04
5.56000000e-01	1.46657660e-02	1.50124324e-04
5.57000000e-01	1.43728502e-02	1.47589697e-04
5.58000000e-01	1.44853286e-02	1.49014516e-04
5.59000000e-01	1.44824932e-02	1.48760087e-04
5.60000000e-01	1.44761410e-02	1.48924632e-04
5.61000000e-01	1.44590540e-02	1.48409081e-04
5.62000000e-01	1.43425916e-02	1.47211884e-04
5.63000000e-01	1.43249168e-02	1.47700981e-04
5.64000000e-01	1.43065052e-02	1.47210032e-04
5.65000000e-01	1.44836369e-02	1.49110735e-04
5.66000000e-01	1.44391885e-02	1.48069656e-04
5.67000000e-01	1.43272524e-02	1.47563291e-04
5.68000000e-01	1.43465196e-02	1.48092754e-04
5.69000000e-01	1.43423341e-02	1.47263303e-04
5.70000000e-01	1.43234282e-02	1.47146218e-04
5.71000000e-01	1.43829064e-02	1.47254486e-04
5.72000000e-01	1.43346102e-02	1.47066832e-04
5.73000000e-01	1.43837395e-02	1.48172974e-04
5.74000000e-01	1.45174105e-02	1.48580260e-04
5.75000000e-01	1.43399999e-02	1.47421375e-04
5.76000000e-01	1.42744949e-02	1.46823577e-04
5.77000000e-01	1.42840913e-02	1.46868936e-04
5.78000000e-01	1.42832984e-02	1.47692378e-04
5.79000000e-01	1.42417816e-02	1.46752307e-04
5.80000000e-01	1.42699093e-02	1.47106701e-04
5.81000000e-01	1.42581158e-02	1.46992337e-04
5.82000000e-01	1.42445637e-02	1.47076453e-04
5.83000000e-01	1.42875213e-02	1.46812831e-04
5.84000000e-01	1.42823696e-02	1.46929667e-04
5.85000000e-01	1.43223889e-02	1.47266443e-04
5.86000000e-01	1.41639360e-02	1.46053033e-04
5.87000000e-01	1.42389950e-02	1.46907518e-04
5.88000000e-01	1.41481491e-02	1.45777603e-04
5.89000000e-01	1.42022802e-02	1.46711043e-04
5.90000000e-01	1.41793381e-02	1.46079309e-04
5.91000000e-01	1.41358684e-02	1.46133355e-04
5.92000000e-01	1.41558502e-02	1.45979447e-04
5.93000000e-01	1.42723637e-02	1.47342835e-04
5.94000000e-01	1.41737447e-02	1.46182533e-04
5.95000000e-01	1.41921298e-02	1.46084212e-04
5.96000000e-01	1.40545750e-02	1.45565016e-04
5.97000000e-01	1.42151208e-02	1.46295831e-04
5.98000000e-01	1.42052689e-02	1.46471981e-04
5.99000000e-01	1.41875802e-02	1.46296245e-04
6.00000000e-01	1.40063741e-02	1.44947638e-04
6.01000000e-01	1.40715160e-02	1.45793491e-04
6.02000000e-01	1.40948041e-02	1.45488090e-04
6.03000000e-01	1.39324253e-02	1.44268566e-04
6.04000000e-01	1.41622680e-02	1.46624329e-04
6.05000000e-01	1.40894568e-02	1.45518650e-04
6.06000000e-01	1.39409208e-02	1.44256591e-04
6.07000000e-01	1.40104842e-02	1.45128626e-04
6.08000000e-01	1.40831630e-02	1.45885440e-04
6.09000000e-01	1.40264764e-02	1.45446473e-04
6.10000000e-01	1.40724645e-02	1.45264779e-04
6.11000000e-01	1.39720701e-02	1.44714052e-04
6.12000000e-01	1.40149444e-02	1.45193108e-04
6.13000000e-01	1.41075827e-02	1.45976502e-04
6.14000000e-01	1.40712684e-02	1.45598158e-04
6.15000000e-01	1.39640132e-02	1.44523388e-04
6.16000000e-01	1.40108173e-02	1.45290561e-04
6.17000000e-01	1.39271698e-02	1.44426944e-04
6.18000000e-01	1.38845729e-02	1.44330290e-04
6.19000000e-01	1.40035634e-02	1.44976156e-04
6.20000000e-01	1.40000796e-02	1.44720522e-04
6.21000000e-01	1.38612683e-02	1.43089227e-04
6.22000000e-01	1.39986013e-02	1.44582448e-04
6.23000000e-01	1.37591046e-02	1.42052161e-04
6.24000000e-01	1.39848610e-02	1.43986541e-04
6.25000000e-01	1.39088451e-02	1.43031073e-04
6.26000000e-01	1.38477384e-02	1.42141003e-04
6.27000000e-01	1.39137178e-02	1.42784137e-04
6.28000000e-01	1.37917065e-02	1.42124388e-04
6.29000000e-01	1.38981500e-02	1.42757092e-04
6.30000000e-01	1.37226899e-02	1.41453557e-04
6.31000000e-01	1.38733010e-02	1.42800221e-04
6.32000000e-01	1.38300530e-02	1.42397583e-04
6.33000000e-01	1.39149133e-02	1.43323037e-04
6.34000000e-01	1.39203930e-02	1.47118304e-04
6.35000000e-01	1.39080262e-02	1.50909950e-04
6.36000000e-01	1.36867454e-02	1.51658663e-04
6.37000000e-01	1.37968391e-02	1.54489926e-04
6.38000000e-01	1.39449843e-02	1.58893364e-04
6.39000000e-01	1.37485471e-02	1.58493638e-04
6.40000000e-01	1.39281519e-02	1.62252803e-04
6.41000000e-01	1.40840493e-02	1.66555339e-04
6.42000000e-01	1.39017029e-02	1.65966941e-04
6.43000000e-01	1.38629128e-02	1.65986710e-04
6.44000000e-01	1.37537297e-02	1.58106968e-04
6.45000000e-01	1.39721524e-02	1.58064410e-04
6.46000000e-01	1.38787066e-02	1.56210811e-04
6.47000000e-01	1.37892144e-02	1.53797229e-04
6.48000000e-01	1.38980314e-02	1.53814172e-04
6.49000000e-01	1.38853998e-02	1.53264362e-04
6.50000000e-01	1.39249470e-02	1.52256406e-04
6.51000000e-01	1.39265132e-02	1.52059275e-04
6.52000000e-01	1.38249029e-02	1.50571870e-04
6.53000000e-01	1.38673334e-02	1.50021333e-04
6.54000000e-01	1.39266437e-02	1.50498883e-04
6.55000000e-01	1.40386396e-02	1.50887965e-04
6.56000000e-01	1.37192485e-02	1.48047485e-04
6.57000000e-01	1.39042498e-02	1.49614908e-04
6.58000000e-01	1.37915261e-02	1.47598478e-04
6.59000000e-01	1.38059348e-02	1.48492778e-04
6.60000000e-01	1.38782271e-02	1.49116360e-04
6.61000000e-01	1.37685403e-02	1.47441494e-04
6.62000000e-01	1.36621200e-02	1.46905805e-04
6.63000000e-01	1.38130120e-02	1.48143595e-04
6.64000000e-01	1.38010761e-02	1.47346334e-04
6.65000000e-01	1.37731672e-02	1.47808055e-04
6.66000000e-01	1.37201871e-02	1.46850715e-04
6.67000000e-01	1.35849119e-02	1.45557160e-04
6.68000000e-01	1.37644494e-02	1.47241350e-04
6.69000000e-01	1.37806665e-02	1.46586412e-04
6.70000000e-01	1.36531139e-02	1.45430900e-04
6.71000000e-01	1.36434844e-02	1.45555446e-04
6.72000000e-01	1.36720383e-02	1.46069049e-04
6.73000000e-01	1.35879555e-02	1.44663843e-04
6.74000000e-01	1.36104728e-02	1.44850294e-04
6.75000000e-01	1.36624352e-02	1.45794448e-04
6.76000000e-01	1.35876041e-02	1.44697035e-04
6.77000000e-01	1.36256529e-02	1.44956530e-04
6.78000000e-01	1.36551351e-02	1.45365369e-04
6.79000000e-01	1.35471680e-02	1.44409779e-04
6.80000000e-01	1.37877407e-02	1.46591773e-04
6.81000000e-01	1.36195044e-02	1.45158662e-04
6.82000000e-01	1.36804151e-02	1.45302051e-04
6.83000000e-01	1.37068504e-02	1.45776083e-04
6.84000000e-01	1.35704253e-02	1.44729829e-04
6.85000000e-01	1.36965161e-02	1.45263399e-04
6.86000000e-01	1.36574279e-02	1.45012343e-04
6.87000000e-01	1.36706050e-02	1.45157890e-04
6.88000000e-01	1.37777162e-02	1.46575628e-04
6.89000000e-01	1.36351284e-02	1.45271741e-04
6.90000000e-01	1.34847976e-02	1.43810974e-04
6.91000000e-01	1.36173537e-02	1.44389974e-04
6.92000000e-01	1.35423282e-02	1.43657867e-04
6.93000000e-01	1.34204896e-02	1.42877547e-04
6.94000000e-01	1.35436836e-02	1.43861126e-04
6.95000000e-01	1.35349187e-02	1.43680363e-04
6.96000000e-01	1.36649347e-02	1.44418303e-04
6.97000000e-01	1.35317385e-02	1.43394181e-04
6.98000000e-01	1.34759744e-02	1.43059831e-04
6.99000000e-01	1.33406851e-02	1.41661979e-04
7.00000000e-01	1.34867252e-02	1.43312290e-04
7.01000000e-01	1.35015746e-02	1.43374032e-04
7.02000000e-01	1.34008698e-02	1.42693333e-04
7.03000000e-01	1.33904870e-02	1.41995456e-04
7.04000000e-01	1.34682946e-02	1.43058436e-04
7.05000000e-01	1.34811315e-02	1.43086977e-04
7.06000000e-01	1.34000494e-02	1.42275478e-04
7.07000000e-01	1.33844996e-02	1.41802793e-04
7.08000000e-01	1.34339836e-02	1.42224594e-04
7.09000000e-01	1.34136608e-02	1.42350887e-04
7.10000000e-01	1.33605037e-02	1.41429267e-04
7.11000000e-01	1.33388636e-02	1.41417143e-04
7.12000000e-01	1.34281272e-02	1.42295027e-04
7.13000000e-01	1.32425890e-02	1.40533789e-04
7.14000000e-01	1.33094940e-02	1.41115837e-04
7.15000000e-01	1.32442925e-02	1.40680093e-04
7.16000000e-01	1.32344588e-02	1.40564257e-04
7.17000000e-01	1.31954086e-02	1.39998130e-04
7.18000000e-01	1.32344406e-02	1.40229968e-04
7.19000000e-01	1.31708864e-02	1.40153944e-04
7.20000000e-01	1.32868601e-02	1.40951424e-04
7.21000000e-01	1.32547737e-02	1.41363160e-04
7.22000000e-01	1.32077424e-02	1.40317387e-04
7.23000000e-01	1.32210110e-02	1.40429890e-04
7.24000000e-01	1.32309475e-02	1.40387189e-04
7.25000000e-01	1.32161400e-02	1.40223581e-04
7.26000000e-01	1.31101646e-02	1.39347992e-04
7.27000000e-01	1.31091876e-02	1.39523527e-04
7.28000000e-01	1.31447650e-02	1.39567981e-04
7.29000000e-01	1.33151841e-02	1.41536538e-04
7.30000000e-01	1.31162837e-02	1.39285759e-04
7.31000000e-01	1.31332645e-02	1.39413482e-04
7.32000000e-01	1.31337003e-02	1.39161824e-04
7.33000000e-01	1.31582671e-02	1.39935672e-04
7.34000000e-01	1.30989535e-02	1.39178416e-04
7.35000000e-01	1.30118740e-02	1.38352139e-04
7.36000000e-01	1.31067950e-02	1.38807947e-04
7.37000000e-01	1.30762686e-02	1.38458837e-04
7.38000000e-01	1.29916804e-02	1.36846808e-04
7.39000000e-01	1.31117212e-02	1.38057153e-04
7.40000000e-01	1.30747858e-02	1.37483625e-04
7.41000000e-01	1.29525869e-02	1.36449587e-04
7.42000000e-01	1.30352804e-02	1.37247855e-04
7.43000000e-01	1.29773392e-02	1.36740667e-04
7.44000000e-01	1.30744205e-02	1.37773034e-04
7.45000000e-01	1.28990584e-02	1.35658018e-04
7.46000000e-01	1.30705677e-02	1.37406241e-04
7.47000000e-01	1.30249640e-02	1.37087976e-04
7.48000000e-01	1.30023710e-02	1.36973001e-04
7.49000000e-01	1.30619280e-02	1.37205095e-04
7.50000000e-01	1.29283575e-02	1.36346017e-04
7.51000000e-01	1.29115652e-02	1.36400596e-04
7.52000000e-01	1.30070137e-02	1.37194430e-04
7.53000000e-01	1.29919865e-02	1.37042724e-04
7.54000000e-01	1.29878114e-02	1.37103452e-04
7.55000000e-01	1.30104012e-02	1.36886689e-04
7.56000000e-01	1.26568470e-02	1.33620506e-04
7.57000000e-01	1.29842968e-02	1.36742472e-04
7.58000000e-01	1.29952479e-02	1.36757131e-04
7.59000000e-01	1.28169870e-02	1.35043318e-04
7.60000000e-01	1.29132828e-02	1.35384335e-04
7.61000000e-01	1.29505552e-02	1.35712217e-04
7.62000000e-01	1.29323447e-02	1.35998790e-04
7.63000000e-01	1.28419097e-02	1.34424904e-04
7.64000000e-01	1.29195987e-02	1.35076766e-04
7.65000000e-01	1.28190707e-02	1.33702994e-04
7.66000000e-01	1.28699776e-02	1.34643824e-04
7.67000000e-01	1.27405675e-02	1.33404773e-04
7.68000000e-01	1.28933060e-02	1.34284039e-04
7.69000000e-01	1.27750085e-02	1.33213305e-04
7.70000000e-01	1.27647803e-02	1.33533433e-04
7.71000000e-01	1.28517467e-02	1.34276045e-04
7.72000000e-01	1.27611575e-02	1.37159751e-04
7.73000000e-01	1.27579701e-02	1.41756056e-04
7.74000000e-01	1.26927048e-02	1.44546009e-04
7.75000000e-01	1.27673060e-02	1.46905529e-04
7.76000000e-01	1.26298587e-02	1.48610492e-04
7.77000000e-01	1.27128267e-02	1.51098354e-04
7.78000000e-01	1.26929622e-02	1.52678100e-04
7.79000000e-01	1.28067729e-02	1.55152197e-04
7.80000000e-01	1.27003046e-02	1.57359481e-04
7.81000000e-01	1.26751698e-02	1.57988160e-04
7.82000000e-01	1.27159015e-02	1.59971389e-04
7.83000000e-01	1.25552956e-02	1.59834952e-04
7.84000000e-01	1.25423262e-02	1.62105866e-04
7.85000000e-01	1.27576628e-02	1.66009999e-04
7.86000000e-01	1.26789372e-02	1.66255843e-04
7.87000000e-01	1.27199296e-02	1.69098892e-04
7.88000000e-01	1.26933842e-02	1.69688627e-04
7.89000000e-01	1.25304960e-02	1.70121698e-04
7.90000000e-01	1.25626683e-02	1.72822573e-04
7.91000000e-01	1.27374126e-02	1.75639508e-04
7.92000000e-01	1.26657242e-02	1.76942391e-04
7.93000000e-01	1.23630994e-02	1.74752644e-04
7.94000000e-01	1.24665456e-02	1.77428619e-04
7.95000000e-01	1.25871461e-02	1.80986500e-04
7.96000000e-01	1.22225792e-02	1.78764355e-04
7.97000000e-01	1.23645345e-02	1.81992158e-04
7.98000000e-01	1.25864771e-02	1.86717537e-04
7.99000000e-01	1.24548026e-02	1.87017157e-04
8.00000000e-01	1.24561161e-02	1.89108323e-04
8.01000000e-01	1.25514792e-02	1.92010211e-04
8.02000000e-01	1.25661032e-02	1.94097116e-04
8.03000000e-01	1.22537076e-02	1.91831450e-04
8.04000000e-01	1.23242547e-02	1.94767861e-04
8.05000000e-01	1.23713218e-02	1.97952581e-04
8.06000000e-01	1.25253553e-02	2.01910884e-04
8.07000000e-01	1.22965796e-02	2.00779636e-04
8.08000000e-01	1.22850658e-02	2.03008973e-04
8.09000000e-01	1.21462398e-02	2.03320972e-04
8.10000000e-01	1.23200912e-02	2.08253310e-04
8.11000000e-01	1.23293311e-02	2.10120733e-04
8.12000000e-01	1.23667945e-02	2.13833980e-04
8.13000000e-01	1.24052307e-02	2.16890551e-04
8.14000000e-01	1.24269380e-02	2.20224303e-04
8.15000000e-01	1.21129731e-02	2.17722517e-04
8.16000000e-01	1.23063698e-02	2.23439039e-04
8.17000000e-01	1.20966273e-02	2.22159268e-04
8.18000000e-01	1.22079706e-02	2.27711650e-04
8.19000000e-01	1.22915652e-02	2.29892738e-04
8.20000000e-01	1.24206243e-02	2.35925340e-04
8.21000000e-01	1.22569110e-02	2.37812457e-04
8.22000000e-01	1.20313137e-02	2.34709600e-04
8.23000000e-01	1.22776439e-02	2.42850213e-04
8.24000000e-01	1.18929735e-02	2.39559246e-04
8.25000000e-01	1.25015473e-02	2.53884846e-04
8.26000000e-01	1.20131453e-02	2.48461056e-04
8.27000000e-01	1.22041465e-02	2.55408821e-04
8.28000000e-01	1.19775878e-02	2.56399548e-04
8.29000000e-01	1.18123998e-02	2.58124909e-04
8.30000000e-01	1.20306648e-02	2.64127010e-04
8.31000000e-01	1.18906800e-02	2.69302522e-04
8.32000000e-01	1.19174373e-02	2.69805530e-04
8.33000000e-01	1.19240375e-02	2.77009196e-04
8.34000000e-01	1.18558355e-02	2.78358542e-04
8.35000000e-01	1.22146563e-02	2.90932026e-04
8.36000000e-01	1.16119966e-02	2.82801315e-04
8.37000000e-01	1.17555001e-02	2.94637122e-04
8.38000000e-01	1.18905437e-02	3.02284690e-04
8.39000000e-01	1.22107458e-02	3.15486403e-04
8.40000000e-01	1.17319538e-02	3.10955949e-04
8.41000000e-01	1.17605993e-02	3.20259873e-04
8.42000000e-01	1.20471431e-02	3.32997747e-04
8.43000000e-01	1.17553536e-02	3.30427625e-04
8.44000000e-01	1.16825011e-02	3.38918804e-04
8.45000000e-01	1.16102837e-02	3.46443777e-04
8.46000000e-01	1.19190102e-02	3.62342994e-04
8.47000000e-01	1.19740437e-02	3.71869248e-04
8.48000000e-01	1.18401492e-02	3.83356656e-04
8.49000000e-01	1.15841023e-02	3.91034714e-04
8.50000000e-01	1.16822689e-02	4.03347106e-04
8.51000000e-01	1.22617519e-02	4.37114999e-04
8.52000000e-01	1.16853547e-02	4.35865795e-04
8.53000000e-01	1.20321441e-02	4.68728801e-04
8.54000000e-01	1.15660895e-02	4.65618432e-04
8.55000000e-01	1.15659056e-02	4.90243784e-04
8.56000000e-01	1.18592865e-02	5.12785777e-04
8.57000000e-01	1.17206270e-02	5.19232623e-04
8.58000000e-01	1.17977007e-02	5.46327079e-04
8.59000000e-01	1.12149328e-02	5.34292816e-04
8.60000000e-01	1.18034126e-02	5.85247355e-04
8.61000000e-01	1.16336431e-02	5.88453295e-04
8.62000000e-01	1.13018376e-02	5.92901845e-04
8.63000000e-01	1.12938930e-02	6.24964110e-04
8.64000000e-01	1.15988312e-02	6.54231195e-04
8.65000000e-01	1.23101373e-02	7.40329388e-04
8.66000000e-01	1.13202531e-02	7.19432648e-04
8.67000000e-01	1.19676074e-02	7.82031550e-04
8.68000000e-01	1.23030005e-02	8.69390258e-04
8.69000000e-01	1.19228770e-02	8.96403698e-04
8.70000000e-01	1.09048865e-02	9.15449852e-04
8.71000000e-01	9.90720021e-03	9.27423576e-04
8.72000000e-01	1.08895008e-02	1.16473537e-03
8.73000000e-01	1.18016744e-02	1.48004538e-03
8.74000000e-01	1.30143636e-02	2.03841271e-03
8.75000000e-01	9.83572442e-03	3.28534117e-03
