% Filename : SDL5_p7_00009_00009.h5
% Date & Time : 30-Oct-2025 14:38:44
% X-ray Energy (keV) : 13.30001
% Exposure Time (s) : 0.500
% Beam Center : 1461.24000, 208.98300
% Sample to Detector Distance (SDD) (mm) : 1990.750
% Detector Pixel Size (mm) : 0.075
% Photodiode Value : 134984.000
% I0 of Sample : 0
% I0 of Standard : 1
% 
% q(A^-1)   I(q)    I(q)_SE
0.00000000e+00	1.20459221e-02	6.41891994e-03
2.50000000e-04	0.00000000e+00	0.00000000e+00
5.00000000e-04	0.00000000e+00	0.00000000e+00
7.50000000e-04	0.00000000e+00	0.00000000e+00
1.00000000e-03	0.00000000e+00	0.00000000e+00
1.25000000e-03	0.00000000e+00	0.00000000e+00
1.50000000e-03	0.00000000e+00	0.00000000e+00
1.75000000e-03	0.00000000e+00	0.00000000e+00
2.00000000e-03	0.00000000e+00	0.00000000e+00
2.25000000e-03	0.00000000e+00	0.00000000e+00
2.50000000e-03	0.00000000e+00	0.00000000e+00
2.75000000e-03	0.00000000e+00	0.00000000e+00
3.00000000e-03	0.00000000e+00	0.00000000e+00
3.25000000e-03	3.00973692e+01	1.73926868e+01
3.50000000e-03	1.93078752e+01	4.88311302e+00
3.75000000e-03	1.41287491e+01	3.00347405e+00
4.00000000e-03	1.12671594e+01	2.28176835e+00
4.25000000e-03	7.57784378e+00	1.28532636e+00
4.50000000e-03	1.01401055e+01	1.86708543e+00
4.75000000e-03	1.07979985e+01	2.03564105e+00
5.00000000e-03	8.34384690e+00	1.48396145e+00
5.25000000e-03	6.80464543e+00	1.17936860e+00
5.50000000e-03	5.56668580e+00	9.22822032e-01
5.75000000e-03	4.71161116e+00	7.67695983e-01
6.00000000e-03	3.78452914e+00	5.94565036e-01
6.25000000e-03	3.27546869e+00	5.04307486e-01
6.50000000e-03	2.71315659e+00	4.09689912e-01
6.75000000e-03	2.29913851e+00	3.36795597e-01
7.00000000e-03	2.00523899e+00	2.81375188e-01
7.25000000e-03	1.72765642e+00	2.37954915e-01
7.50000000e-03	1.45569456e+00	2.00020433e-01
7.75000000e-03	1.30186787e+00	1.74914216e-01
8.00000000e-03	1.17666902e+00	1.53444311e-01
8.25000000e-03	1.01146816e+00	1.27696326e-01
8.50000000e-03	8.98161235e-01	1.09430773e-01
8.75000000e-03	8.05169629e-01	9.81529034e-02
9.00000000e-03	7.06904429e-01	8.50114293e-02
9.25000000e-03	6.37700028e-01	7.43027125e-02
9.50000000e-03	5.67250849e-01	6.45728195e-02
9.75000000e-03	5.15355746e-01	5.75112085e-02
1.00000000e-02	4.46624842e-01	4.89235747e-02
1.02500000e-02	4.24914901e-01	4.66282134e-02
1.05000000e-02	3.90540060e-01	4.06407246e-02
1.07500000e-02	3.51910935e-01	3.64038995e-02
1.10000000e-02	3.23036966e-01	3.28196890e-02
1.12500000e-02	2.96404740e-01	3.01750428e-02
1.15000000e-02	2.73964080e-01	2.76139877e-02
1.17500000e-02	2.47647949e-01	2.44284628e-02
1.20000000e-02	2.36053340e-01	2.30711468e-02
1.22500000e-02	2.21052331e-01	2.06702987e-02
1.25000000e-02	2.04579412e-01	1.91934050e-02
1.27500000e-02	1.93302397e-01	1.75551291e-02
1.30000000e-02	1.77534174e-01	1.57133834e-02
1.32500000e-02	1.66370323e-01	1.43492873e-02
1.35000000e-02	1.56821564e-01	1.36755487e-02
1.37500000e-02	1.46482481e-01	1.23267606e-02
1.40000000e-02	1.36768010e-01	1.13921208e-02
1.42500000e-02	1.29321388e-01	1.03824201e-02
1.45000000e-02	1.22393359e-01	9.73657532e-03
1.47500000e-02	1.15650629e-01	9.01160923e-03
1.50000000e-02	1.11258520e-01	8.66243940e-03
1.52500000e-02	1.05613599e-01	7.97393182e-03
1.55000000e-02	9.78373425e-02	7.19568860e-03
1.57500000e-02	9.42256642e-02	7.05070389e-03
1.60000000e-02	8.92193514e-02	6.37868798e-03
1.62500000e-02	8.52810451e-02	6.11178513e-03
1.65000000e-02	8.10869050e-02	5.64392218e-03
1.67500000e-02	7.71111419e-02	5.26579094e-03
1.70000000e-02	7.38400662e-02	5.04419984e-03
1.72500000e-02	7.13469046e-02	4.76079443e-03
1.75000000e-02	6.91167282e-02	4.63363176e-03
1.77500000e-02	6.87657117e-02	4.42273042e-03
1.80000000e-02	6.42105829e-02	4.03646534e-03
1.82500000e-02	6.38473936e-02	3.95705534e-03
1.85000000e-02	6.06773354e-02	3.87066587e-03
1.87500000e-02	5.77024456e-02	3.56069996e-03
1.90000000e-02	5.57425171e-02	3.33825146e-03
1.92500000e-02	5.42420415e-02	3.31352109e-03
1.95000000e-02	5.18081444e-02	3.02634615e-03
1.97500000e-02	5.15849620e-02	3.06908670e-03
2.00000000e-02	4.88394196e-02	2.92008533e-03
2.02500000e-02	4.95469378e-02	2.85153709e-03
2.05000000e-02	4.72429712e-02	2.63095385e-03
2.07500000e-02	4.79047734e-02	2.62744470e-03
2.10000000e-02	4.57091626e-02	2.54881829e-03
2.12500000e-02	4.41647922e-02	2.39296147e-03
2.15000000e-02	4.41788374e-02	2.41800199e-03
2.17500000e-02	4.47096651e-02	2.40405255e-03
2.20000000e-02	4.25825241e-02	2.33976197e-03
2.22500000e-02	4.12455723e-02	2.18505068e-03
2.25000000e-02	4.16569344e-02	2.28870475e-03
2.27500000e-02	4.08008372e-02	2.16921825e-03
2.30000000e-02	4.08096894e-02	2.22356348e-03
2.32500000e-02	3.86616317e-02	2.05414285e-03
2.35000000e-02	4.08167664e-02	2.19300671e-03
2.37500000e-02	3.88424781e-02	2.08165506e-03
2.40000000e-02	3.73376562e-02	1.95749439e-03
2.42500000e-02	3.78664008e-02	1.98265426e-03
2.45000000e-02	3.64937043e-02	1.89578868e-03
2.47500000e-02	3.62501909e-02	1.85038841e-03
2.50000000e-02	3.52563463e-02	1.80738281e-03
2.52500000e-02	3.56691203e-02	1.87487422e-03
2.55000000e-02	3.42543311e-02	1.74570500e-03
2.57500000e-02	3.47413947e-02	1.77819934e-03
2.60000000e-02	3.41553263e-02	1.72594519e-03
2.62500000e-02	3.31285800e-02	1.70036494e-03
2.65000000e-02	3.32957760e-02	1.67840540e-03
2.67500000e-02	3.37637774e-02	1.69575699e-03
2.70000000e-02	3.23865636e-02	1.64490728e-03
2.72500000e-02	3.24384027e-02	1.60405487e-03
2.75000000e-02	3.17684531e-02	1.59220802e-03
2.77500000e-02	3.14636342e-02	1.58517582e-03
2.80000000e-02	3.15857185e-02	1.52673064e-03
2.82500000e-02	3.14172268e-02	1.52689056e-03
2.85000000e-02	3.25977309e-02	1.59412866e-03
2.87500000e-02	3.06212100e-02	1.49690217e-03
2.90000000e-02	3.09039129e-02	1.51167441e-03
2.92500000e-02	3.08424873e-02	1.46156720e-03
2.95000000e-02	3.20734863e-02	1.55657905e-03
2.97500000e-02	3.06374943e-02	1.46910593e-03
3.00000000e-02	3.07467038e-02	1.48165238e-03
3.02500000e-02	3.05232046e-02	1.46951423e-03
3.05000000e-02	2.94156256e-02	1.38174065e-03
3.07500000e-02	2.95011706e-02	1.39971952e-03
3.10000000e-02	2.97185548e-02	1.41158103e-03
3.12500000e-02	2.93374444e-02	1.40237616e-03
3.15000000e-02	2.85417895e-02	1.35569053e-03
3.17500000e-02	2.78779940e-02	1.29546614e-03
3.20000000e-02	2.80427653e-02	1.31437198e-03
3.22500000e-02	2.87223251e-02	1.35989946e-03
3.25000000e-02	2.79672841e-02	1.32651812e-03
3.27500000e-02	2.76477126e-02	1.28249539e-03
3.30000000e-02	2.77016760e-02	1.28319687e-03
3.32500000e-02	2.68596407e-02	1.24495592e-03
3.35000000e-02	2.76336538e-02	1.29646783e-03
3.37500000e-02	2.70046619e-02	1.23801197e-03
3.40000000e-02	2.66249883e-02	1.22259899e-03
3.42500000e-02	2.64003139e-02	1.20492521e-03
3.45000000e-02	2.68841739e-02	1.22613823e-03
3.47500000e-02	2.69640138e-02	1.23795667e-03
3.50000000e-02	2.64181131e-02	1.20119368e-03
3.52500000e-02	2.58046116e-02	1.18031716e-03
3.55000000e-02	2.56248334e-02	1.14997619e-03
3.57500000e-02	2.54273525e-02	1.16237420e-03
3.60000000e-02	2.55906413e-02	1.15949036e-03
3.62500000e-02	2.50880634e-02	1.13670542e-03
3.65000000e-02	2.52835911e-02	1.14077442e-03
3.67500000e-02	2.53015457e-02	1.13124005e-03
3.70000000e-02	2.53212561e-02	1.13283298e-03
3.72500000e-02	2.45344585e-02	1.10750746e-03
3.75000000e-02	2.44814319e-02	1.10364744e-03
3.77500000e-02	2.48001004e-02	1.10871068e-03
3.80000000e-02	2.52525092e-02	1.12226836e-03
3.82500000e-02	2.42516294e-02	1.07556422e-03
3.85000000e-02	2.49958777e-02	1.11477266e-03
3.87500000e-02	2.45065880e-02	1.08595371e-03
3.90000000e-02	2.40693519e-02	1.07680778e-03
3.92500000e-02	2.41727596e-02	1.05425272e-03
3.95000000e-02	2.40043767e-02	1.04626650e-03
3.97500000e-02	2.39178148e-02	1.04966391e-03
4.00000000e-02	2.39185536e-02	1.04438106e-03
4.02500000e-02	2.38814862e-02	1.04639893e-03
4.05000000e-02	2.36799747e-02	1.02432028e-03
4.07500000e-02	2.37212758e-02	1.03400080e-03
4.10000000e-02	2.39260256e-02	1.04081057e-03
4.12500000e-02	2.41236796e-02	1.04794211e-03
4.15000000e-02	2.30638410e-02	9.86746856e-04
4.17500000e-02	2.34655744e-02	1.00595586e-03
4.20000000e-02	2.40450584e-02	1.02961084e-03
4.22500000e-02	2.30303630e-02	9.81136017e-04
4.25000000e-02	2.29779976e-02	9.87206382e-04
4.27500000e-02	2.29533949e-02	9.83937419e-04
4.30000000e-02	2.36229128e-02	9.92493373e-04
4.32500000e-02	2.39778337e-02	1.01146532e-03
4.35000000e-02	2.33429246e-02	9.89834293e-04
4.37500000e-02	2.35301740e-02	9.80760032e-04
4.40000000e-02	2.28642206e-02	9.58709598e-04
4.42500000e-02	2.26743587e-02	9.50403992e-04
4.45000000e-02	2.30086907e-02	9.65642499e-04
4.47500000e-02	2.32567209e-02	9.68957960e-04
4.50000000e-02	2.30282936e-02	9.66266232e-04
4.52500000e-02	2.26242357e-02	9.39945090e-04
4.55000000e-02	2.29644392e-02	9.47682675e-04
4.57500000e-02	2.26940891e-02	9.34537355e-04
4.60000000e-02	2.24424960e-02	9.26661495e-04
4.62500000e-02	2.25637573e-02	9.42445262e-04
4.65000000e-02	2.24261055e-02	9.27696068e-04
4.67500000e-02	2.27821304e-02	9.39271922e-04
4.70000000e-02	2.30680338e-02	9.43688576e-04
4.72500000e-02	2.35534709e-02	9.60665564e-04
4.75000000e-02	2.23064066e-02	9.07614697e-04
4.77500000e-02	2.25986426e-02	9.11262459e-04
4.80000000e-02	2.26288324e-02	9.23169181e-04
4.82500000e-02	2.25963894e-02	9.11005546e-04
4.85000000e-02	2.24682745e-02	9.25261149e-04
4.87500000e-02	2.27562892e-02	9.24874911e-04
4.90000000e-02	2.25786719e-02	9.07821630e-04
4.92500000e-02	2.25650435e-02	9.08898752e-04
4.95000000e-02	2.24442856e-02	9.02879599e-04
4.97500000e-02	2.29483554e-02	9.22560311e-04
5.00000000e-02	2.24061644e-02	9.05075894e-04
5.02500000e-02	2.13803606e-02	8.49156235e-04
5.05000000e-02	2.23988807e-02	8.96133811e-04
5.07500000e-02	2.23615525e-02	8.99473253e-04
5.10000000e-02	2.18903081e-02	8.68522459e-04
5.12500000e-02	2.22234142e-02	8.87600719e-04
5.15000000e-02	2.24366439e-02	8.85373482e-04
5.17500000e-02	2.17110369e-02	8.65703993e-04
5.20000000e-02	2.15871986e-02	8.59210390e-04
5.22500000e-02	2.15497759e-02	8.68179957e-04
5.25000000e-02	2.17163794e-02	8.51636439e-04
5.27500000e-02	2.26392305e-02	8.86874221e-04
5.30000000e-02	2.25675865e-02	8.94417671e-04
5.32500000e-02	2.20929914e-02	8.77240651e-04
5.35000000e-02	2.13386473e-02	8.43791406e-04
5.37500000e-02	2.19367091e-02	8.56058514e-04
5.40000000e-02	2.20718649e-02	8.59683710e-04
5.42500000e-02	2.09873193e-02	8.13118707e-04
5.45000000e-02	2.16918947e-02	8.46644039e-04
5.47500000e-02	2.20783979e-02	8.54861519e-04
5.50000000e-02	2.13718133e-02	8.32081272e-04
5.52500000e-02	2.16409549e-02	8.31643599e-04
5.55000000e-02	2.14931387e-02	8.32868652e-04
5.57500000e-02	2.13444113e-02	8.23889333e-04
5.60000000e-02	2.17973487e-02	8.44139871e-04
5.62500000e-02	2.19005337e-02	8.44600111e-04
5.65000000e-02	2.08067519e-02	7.98418639e-04
5.67500000e-02	2.09233990e-02	8.06844427e-04
5.70000000e-02	2.09348550e-02	7.93664068e-04
5.72500000e-02	2.13918975e-02	8.14977430e-04
5.75000000e-02	2.14785895e-02	8.20617791e-04
5.77500000e-02	2.11062117e-02	7.96285758e-04
5.80000000e-02	2.11098927e-02	8.02348728e-04
5.82500000e-02	2.12625745e-02	8.01535394e-04
5.85000000e-02	2.10002104e-02	7.94456543e-04
5.87500000e-02	2.15018058e-02	8.05499363e-04
5.90000000e-02	2.14267449e-02	8.06829916e-04
5.92500000e-02	2.08450961e-02	7.83273915e-04
5.95000000e-02	2.09388833e-02	7.86660169e-04
5.97500000e-02	2.13426147e-02	8.03691218e-04
6.00000000e-02	2.10266085e-02	7.90539853e-04
6.02500000e-02	2.14508037e-02	8.03854456e-04
6.05000000e-02	2.11701954e-02	7.89008081e-04
6.07500000e-02	2.09502878e-02	7.81635767e-04
6.10000000e-02	2.12208702e-02	7.90567575e-04
6.12500000e-02	2.12706499e-02	7.85533718e-04
6.15000000e-02	2.07948306e-02	7.63398347e-04
6.17500000e-02	2.12677153e-02	7.78124156e-04
6.20000000e-02	2.08863294e-02	7.72712889e-04
6.22500000e-02	2.07558284e-02	7.59608138e-04
6.25000000e-02	2.09259740e-02	7.66749293e-04
6.27500000e-02	2.11316712e-02	7.71840634e-04
6.30000000e-02	2.09758391e-02	7.69253120e-04
6.32500000e-02	2.08191996e-02	7.63207346e-04
6.35000000e-02	2.05122830e-02	7.54192984e-04
6.37500000e-02	2.16361227e-02	7.89142443e-04
6.40000000e-02	2.11584811e-02	7.74336946e-04
6.42500000e-02	2.06190042e-02	7.50302604e-04
6.45000000e-02	2.07659451e-02	7.53676604e-04
6.47500000e-02	2.04623789e-02	7.47473756e-04
6.50000000e-02	2.06012451e-02	7.47377582e-04
6.52500000e-02	2.05881992e-02	7.44724053e-04
6.55000000e-02	2.12332972e-02	7.69888058e-04
6.57500000e-02	2.10973504e-02	7.61271838e-04
6.60000000e-02	2.09778610e-02	7.54705283e-04
6.62500000e-02	2.04098904e-02	7.38237014e-04
6.65000000e-02	2.07480017e-02	7.35562008e-04
6.67500000e-02	2.10350647e-02	7.54826159e-04
6.70000000e-02	2.04894277e-02	7.39707133e-04
6.72500000e-02	2.04331955e-02	7.32481635e-04
6.75000000e-02	2.10386822e-02	7.52125685e-04
6.77500000e-02	2.08392638e-02	7.45794061e-04
6.80000000e-02	2.06907694e-02	7.32757956e-04
6.82500000e-02	2.06818304e-02	7.36647516e-04
6.85000000e-02	2.10504719e-02	7.47724663e-04
6.87500000e-02	2.04080898e-02	7.25047851e-04
6.90000000e-02	2.05194651e-02	7.20834112e-04
6.92500000e-02	2.10310355e-02	7.40979266e-04
6.95000000e-02	2.09386263e-02	7.39201534e-04
6.97500000e-02	2.11089866e-02	7.38889881e-04
7.00000000e-02	2.01195325e-02	7.14188596e-04
7.02500000e-02	2.04132879e-02	7.18515916e-04
7.05000000e-02	2.12864846e-02	7.39566754e-04
7.07500000e-02	2.07117118e-02	7.30281666e-04
7.10000000e-02	2.02554222e-02	7.04290438e-04
7.12500000e-02	2.01487146e-02	7.02341726e-04
7.15000000e-02	2.08664962e-02	7.29191312e-04
7.17500000e-02	2.03489466e-02	7.06392869e-04
7.20000000e-02	2.02561228e-02	7.10951042e-04
7.22500000e-02	2.02965412e-02	7.01890167e-04
7.25000000e-02	2.02750496e-02	7.02557683e-04
7.27500000e-02	2.04677926e-02	7.05576506e-04
7.30000000e-02	2.06978781e-02	7.15485614e-04
7.32500000e-02	2.06760035e-02	7.02676529e-04
7.35000000e-02	2.05900396e-02	7.07796660e-04
7.37500000e-02	1.99547437e-02	6.88600788e-04
7.40000000e-02	2.07838175e-02	7.12070466e-04
7.42500000e-02	2.09111988e-02	7.18515039e-04
7.45000000e-02	2.03563624e-02	6.91829497e-04
7.47500000e-02	1.98860848e-02	6.79689096e-04
7.50000000e-02	2.03747892e-02	6.93319053e-04
7.52500000e-02	2.02927162e-02	6.97093941e-04
7.55000000e-02	2.03172822e-02	6.90075188e-04
7.57500000e-02	2.02677682e-02	6.93905890e-04
7.60000000e-02	2.11791876e-02	7.17892641e-04
7.62500000e-02	2.04796817e-02	6.98504567e-04
7.65000000e-02	1.98608257e-02	6.75899831e-04
7.67500000e-02	2.01321926e-02	6.76122890e-04
7.70000000e-02	2.09714346e-02	7.00582895e-04
7.72500000e-02	1.98144889e-02	6.78696260e-04
7.75000000e-02	2.00344769e-02	6.93240617e-04
7.77500000e-02	2.06400423e-02	7.11400527e-04
7.80000000e-02	2.03900603e-02	7.09788903e-04
7.82500000e-02	2.00841951e-02	7.07254859e-04
7.85000000e-02	2.08613321e-02	7.35110212e-04
7.87500000e-02	2.07011725e-02	7.25892043e-04
7.90000000e-02	2.08770325e-02	7.40244996e-04
7.92500000e-02	2.01704200e-02	7.18971244e-04
7.95000000e-02	2.08239842e-02	7.47092829e-04
7.97500000e-02	2.02002574e-02	7.28456241e-04
8.00000000e-02	1.96825677e-02	7.07828967e-04
8.02500000e-02	2.04034230e-02	7.30317195e-04
8.05000000e-02	2.02881082e-02	7.28346479e-04
8.07500000e-02	2.07017056e-02	7.54088612e-04
8.10000000e-02	2.01958727e-02	7.31655929e-04
8.12500000e-02	1.98373169e-02	7.22082429e-04
8.15000000e-02	2.00622577e-02	7.23177015e-04
8.17500000e-02	2.01636495e-02	7.40240769e-04
8.20000000e-02	2.06122084e-02	7.51572282e-04
8.22500000e-02	2.07440984e-02	7.69235358e-04
8.25000000e-02	2.03656165e-02	7.44372335e-04
8.27500000e-02	2.07114478e-02	7.54477124e-04
8.30000000e-02	2.05690477e-02	7.55322361e-04
8.32500000e-02	2.09389622e-02	7.75679983e-04
8.35000000e-02	2.03863996e-02	7.52998642e-04
8.37500000e-02	2.00136279e-02	7.30641269e-04
8.40000000e-02	2.03658384e-02	7.54256711e-04
8.42500000e-02	1.99295321e-02	7.35437090e-04
8.45000000e-02	1.97031167e-02	7.33375463e-04
8.47500000e-02	2.01967528e-02	7.54328368e-04
8.50000000e-02	2.03637160e-02	7.49915034e-04
8.52500000e-02	2.02095383e-02	7.49814247e-04
8.55000000e-02	2.04853632e-02	7.60733093e-04
8.57500000e-02	1.97158591e-02	7.34640411e-04
8.60000000e-02	2.00360070e-02	7.50512298e-04
8.62500000e-02	2.06032274e-02	7.62013242e-04
8.65000000e-02	2.03570642e-02	7.55072365e-04
8.67500000e-02	2.01931035e-02	7.44490128e-04
8.70000000e-02	2.01634767e-02	7.37398559e-04
8.72500000e-02	1.98636296e-02	7.13630442e-04
8.75000000e-02	2.01979679e-02	7.15806430e-04
8.77500000e-02	1.98814760e-02	6.98384744e-04
8.80000000e-02	2.04430778e-02	7.17173434e-04
8.82500000e-02	2.03566707e-02	7.10991162e-04
8.85000000e-02	1.98351267e-02	6.95600276e-04
8.87500000e-02	1.95880548e-02	6.75597186e-04
8.90000000e-02	2.00810104e-02	6.97929345e-04
8.92500000e-02	2.04818734e-02	7.11809879e-04
8.95000000e-02	2.00917177e-02	6.95182123e-04
8.97500000e-02	2.03147848e-02	6.90643982e-04
9.00000000e-02	2.00574505e-02	6.83449302e-04
9.02500000e-02	1.97544986e-02	6.72838727e-04
9.05000000e-02	2.01315913e-02	6.85704529e-04
9.07500000e-02	2.03062144e-02	6.90503505e-04
9.10000000e-02	2.01007937e-02	6.72529243e-04
9.12500000e-02	2.03860495e-02	6.84935192e-04
9.15000000e-02	2.00808991e-02	6.75619997e-04
9.17500000e-02	2.00207073e-02	6.77458832e-04
9.20000000e-02	1.95297244e-02	6.56637213e-04
9.22500000e-02	2.07221433e-02	6.86440519e-04
9.25000000e-02	2.03149932e-02	6.77636254e-04
9.27500000e-02	2.03645778e-02	6.74726123e-04
9.30000000e-02	2.09571629e-02	6.97505594e-04
9.32500000e-02	2.04293838e-02	6.80268633e-04
9.35000000e-02	2.00620225e-02	6.64576793e-04
9.37500000e-02	2.01247085e-02	6.63204169e-04
9.40000000e-02	2.00191921e-02	6.63949672e-04
9.42500000e-02	1.96346347e-02	6.48049881e-04
9.45000000e-02	2.00072951e-02	6.57530507e-04
9.47500000e-02	1.99077391e-02	6.54749554e-04
9.50000000e-02	1.96861526e-02	6.47095779e-04
9.52500000e-02	1.99000526e-02	6.49760851e-04
9.55000000e-02	2.00995807e-02	6.53358078e-04
9.57500000e-02	2.01453520e-02	6.55162276e-04
9.60000000e-02	1.97153766e-02	6.42860213e-04
9.62500000e-02	2.01360178e-02	6.55935059e-04
9.65000000e-02	1.97135627e-02	6.36234704e-04
9.67500000e-02	2.03588838e-02	6.59255391e-04
9.70000000e-02	1.96557225e-02	6.37753725e-04
9.72500000e-02	1.95974598e-02	6.30376492e-04
9.75000000e-02	1.95039944e-02	6.28751475e-04
9.77500000e-02	1.97711814e-02	6.36422623e-04
9.80000000e-02	2.01527120e-02	6.42241947e-04
9.82500000e-02	2.00201280e-02	6.40151506e-04
9.85000000e-02	1.98303213e-02	6.37263585e-04
9.87500000e-02	2.03125272e-02	6.48159912e-04
9.90000000e-02	2.00621146e-02	6.39860880e-04
9.92500000e-02	1.98523400e-02	6.30741919e-04
9.95000000e-02	2.01252141e-02	6.33621534e-04
9.97500000e-02	1.95774631e-02	6.26237816e-04
1.00000000e-01	2.02146546e-02	5.23159451e-04
1.00500000e-01	1.97579456e-02	4.44805109e-04
1.01000000e-01	1.96609376e-02	4.38267556e-04
1.01500000e-01	1.96677482e-02	4.36421532e-04
1.02000000e-01	2.01022702e-02	4.42392974e-04
1.02500000e-01	1.99792694e-02	4.40836534e-04
1.03000000e-01	1.98386264e-02	4.35873465e-04
1.03500000e-01	1.95820303e-02	4.31751638e-04
1.04000000e-01	1.99937514e-02	4.36730979e-04
1.04500000e-01	1.97227977e-02	4.32957880e-04
1.05000000e-01	1.99064551e-02	4.30766038e-04
1.05500000e-01	1.95135541e-02	4.23712799e-04
1.06000000e-01	1.97910744e-02	4.28308424e-04
1.06500000e-01	2.00534582e-02	4.29700785e-04
1.07000000e-01	2.01637629e-02	4.39947841e-04
1.07500000e-01	1.97740855e-02	4.39070173e-04
1.08000000e-01	1.98337945e-02	4.43875347e-04
1.08500000e-01	1.98007549e-02	4.47222319e-04
1.09000000e-01	1.98893589e-02	4.52772406e-04
1.09500000e-01	1.95603147e-02	4.49905824e-04
1.10000000e-01	1.94568884e-02	4.40126925e-04
1.10500000e-01	1.98879503e-02	4.39228926e-04
1.11000000e-01	2.00852717e-02	4.35696700e-04
1.11500000e-01	1.98076925e-02	4.29387516e-04
1.12000000e-01	1.98004559e-02	4.26106867e-04
1.12500000e-01	2.01793576e-02	4.29413324e-04
1.13000000e-01	1.99375623e-02	4.24934158e-04
1.13500000e-01	1.98518176e-02	4.21694573e-04
1.14000000e-01	1.97392329e-02	4.14505374e-04
1.14500000e-01	1.98412081e-02	4.19605235e-04
1.15000000e-01	1.97257049e-02	4.11842280e-04
1.15500000e-01	1.95227691e-02	4.08965470e-04
1.16000000e-01	1.99758345e-02	4.16333719e-04
1.16500000e-01	1.99689051e-02	4.16747836e-04
1.17000000e-01	1.98777246e-02	4.13851551e-04
1.17500000e-01	1.96356750e-02	4.06500162e-04
1.18000000e-01	1.95262030e-02	4.04847702e-04
1.18500000e-01	1.97453209e-02	4.06396361e-04
1.19000000e-01	1.97275156e-02	4.06345774e-04
1.19500000e-01	1.97204504e-02	4.03279922e-04
1.20000000e-01	1.98348899e-02	4.06206648e-04
1.20500000e-01	1.97860945e-02	4.04844046e-04
1.21000000e-01	1.98248151e-02	4.03687583e-04
1.21500000e-01	1.95548430e-02	3.99811424e-04
1.22000000e-01	1.97803864e-02	4.00726214e-04
1.22500000e-01	1.96187385e-02	3.97873980e-04
1.23000000e-01	1.97468752e-02	4.00279104e-04
1.23500000e-01	1.97834704e-02	3.98045823e-04
1.24000000e-01	1.97596137e-02	3.98062463e-04
1.24500000e-01	1.98893209e-02	3.99211097e-04
1.25000000e-01	1.97080062e-02	3.94851027e-04
1.25500000e-01	1.99423538e-02	3.98233279e-04
1.26000000e-01	1.97445159e-02	3.94154212e-04
1.26500000e-01	1.99259951e-02	3.97303256e-04
1.27000000e-01	1.94704725e-02	3.86875491e-04
1.27500000e-01	1.97263438e-02	3.92050867e-04
1.28000000e-01	1.99458044e-02	3.94628127e-04
1.28500000e-01	1.95628858e-02	3.86125205e-04
1.29000000e-01	1.96247463e-02	3.87801225e-04
1.29500000e-01	1.98680581e-02	3.90750666e-04
1.30000000e-01	1.95263743e-02	3.83197490e-04
1.30500000e-01	1.93623713e-02	3.80941177e-04
1.31000000e-01	1.95491971e-02	3.82247808e-04
1.31500000e-01	1.98011104e-02	3.85263265e-04
1.32000000e-01	1.93284115e-02	3.77102844e-04
1.32500000e-01	1.93764314e-02	3.76169992e-04
1.33000000e-01	1.94893541e-02	3.76083815e-04
1.33500000e-01	1.96029383e-02	3.77734745e-04
1.34000000e-01	1.96635968e-02	3.80432725e-04
1.34500000e-01	1.96559981e-02	3.75613075e-04
1.35000000e-01	1.96917189e-02	3.75863524e-04
1.35500000e-01	1.96447934e-02	3.74650375e-04
1.36000000e-01	1.97808661e-02	3.76150847e-04
1.36500000e-01	1.94598955e-02	3.72705848e-04
1.37000000e-01	1.98149649e-02	3.75820873e-04
1.37500000e-01	1.95975877e-02	3.72895513e-04
1.38000000e-01	1.96424530e-02	3.74649017e-04
1.38500000e-01	1.96150893e-02	3.71985969e-04
1.39000000e-01	1.94667696e-02	3.69551156e-04
1.39500000e-01	1.93655651e-02	3.66117426e-04
1.40000000e-01	1.97005292e-02	3.73127904e-04
1.40500000e-01	1.96107890e-02	3.69923501e-04
1.41000000e-01	1.98912225e-02	3.73800796e-04
1.41500000e-01	1.95095520e-02	3.67404975e-04
1.42000000e-01	1.94357658e-02	3.65605096e-04
1.42500000e-01	1.92589882e-02	3.62526274e-04
1.43000000e-01	1.93789053e-02	3.64634767e-04
1.43500000e-01	1.93063125e-02	3.61371479e-04
1.44000000e-01	1.95743303e-02	3.65532345e-04
1.44500000e-01	1.95163190e-02	3.62551919e-04
1.45000000e-01	1.95214357e-02	3.63330746e-04
1.45500000e-01	1.94798160e-02	3.62206729e-04
1.46000000e-01	1.96518320e-02	3.63396935e-04
1.46500000e-01	1.94302940e-02	3.59686354e-04
1.47000000e-01	1.96042988e-02	3.63584244e-04
1.47500000e-01	1.91654202e-02	3.53480108e-04
1.48000000e-01	1.95565828e-02	3.60569210e-04
1.48500000e-01	1.92405876e-02	3.54133763e-04
1.49000000e-01	1.91632455e-02	3.52098810e-04
1.49500000e-01	1.94343421e-02	3.57709718e-04
1.50000000e-01	1.93317076e-02	3.52897800e-04
1.50500000e-01	1.93043580e-02	3.55069288e-04
1.51000000e-01	1.93134239e-02	3.49366876e-04
1.51500000e-01	1.94214432e-02	3.52554767e-04
1.52000000e-01	1.95279266e-02	3.52987241e-04
1.52500000e-01	1.95939183e-02	3.55033431e-04
1.53000000e-01	1.94814531e-02	3.52686752e-04
1.53500000e-01	1.95504230e-02	3.52906810e-04
1.54000000e-01	1.91290590e-02	3.44539110e-04
1.54500000e-01	1.90773608e-02	3.50350747e-04
1.55000000e-01	1.93882592e-02	3.60311624e-04
1.55500000e-01	1.93223815e-02	3.59424696e-04
1.56000000e-01	1.91428446e-02	3.62278045e-04
1.56500000e-01	1.90112018e-02	3.58323288e-04
1.57000000e-01	1.92604660e-02	3.63713459e-04
1.57500000e-01	1.93117508e-02	3.55460673e-04
1.58000000e-01	1.93773419e-02	3.52462554e-04
1.58500000e-01	1.91996011e-02	3.47772554e-04
1.59000000e-01	1.91015620e-02	3.43364956e-04
1.59500000e-01	1.91773448e-02	3.45160316e-04
1.60000000e-01	1.91650070e-02	3.43300943e-04
1.60500000e-01	1.90042612e-02	3.40548381e-04
1.61000000e-01	1.90788347e-02	3.41684986e-04
1.61500000e-01	1.93067461e-02	3.45293103e-04
1.62000000e-01	1.93216020e-02	3.42824497e-04
1.62500000e-01	1.92451979e-02	3.42030744e-04
1.63000000e-01	1.90602355e-02	3.37498981e-04
1.63500000e-01	1.92170630e-02	3.41289537e-04
1.64000000e-01	1.91475003e-02	3.39680661e-04
1.64500000e-01	1.90886820e-02	3.37514715e-04
1.65000000e-01	1.91579181e-02	3.36966155e-04
1.65500000e-01	1.88875646e-02	3.32364115e-04
1.66000000e-01	1.90426144e-02	3.34117643e-04
1.66500000e-01	1.89812473e-02	3.33314722e-04
1.67000000e-01	1.87800124e-02	3.31632338e-04
1.67500000e-01	1.92018766e-02	3.34897063e-04
1.68000000e-01	1.92869749e-02	3.35395382e-04
1.68500000e-01	1.87100675e-02	3.27550616e-04
1.69000000e-01	1.87534746e-02	3.25598245e-04
1.69500000e-01	1.88279952e-02	3.27393272e-04
1.70000000e-01	1.90121265e-02	3.29983416e-04
1.70500000e-01	1.87086626e-02	3.24359591e-04
1.71000000e-01	1.91815585e-02	3.32521814e-04
1.71500000e-01	1.87822271e-02	3.26808425e-04
1.72000000e-01	1.90300353e-02	3.26939028e-04
1.72500000e-01	1.90070474e-02	3.28737057e-04
1.73000000e-01	1.88660824e-02	3.24333673e-04
1.73500000e-01	1.90908977e-02	3.25628964e-04
1.74000000e-01	1.87943719e-02	3.22367627e-04
1.74500000e-01	1.86455749e-02	3.18161683e-04
1.75000000e-01	1.91062391e-02	3.23479581e-04
1.75500000e-01	1.87112281e-02	3.15562072e-04
1.76000000e-01	1.87399128e-02	3.16700899e-04
1.76500000e-01	1.87822096e-02	3.18231077e-04
1.77000000e-01	1.88543098e-02	3.19144621e-04
1.77500000e-01	1.87828039e-02	3.17759803e-04
1.78000000e-01	1.90481951e-02	3.20637975e-04
1.78500000e-01	1.86131575e-02	3.15122093e-04
1.79000000e-01	1.86278860e-02	3.14028331e-04
1.79500000e-01	1.87507780e-02	3.16463867e-04
1.80000000e-01	1.86073658e-02	3.14999667e-04
1.80500000e-01	1.87244928e-02	3.16038334e-04
1.81000000e-01	1.85232033e-02	3.12066141e-04
1.81500000e-01	1.84748595e-02	3.10012470e-04
1.82000000e-01	1.88303413e-02	3.14549543e-04
1.82500000e-01	1.87480507e-02	3.14189351e-04
1.83000000e-01	1.87227474e-02	3.14106412e-04
1.83500000e-01	1.86070977e-02	3.10330817e-04
1.84000000e-01	1.87330220e-02	3.13677106e-04
1.84500000e-01	1.85659585e-02	3.08664885e-04
1.85000000e-01	1.87989694e-02	3.12492531e-04
1.85500000e-01	1.87822729e-02	3.11674706e-04
1.86000000e-01	1.88620456e-02	3.12682583e-04
1.86500000e-01	1.84210219e-02	3.05373808e-04
1.87000000e-01	1.87962352e-02	3.10868657e-04
1.87500000e-01	1.84035927e-02	3.05243766e-04
1.88000000e-01	1.85735743e-02	3.07095118e-04
1.88500000e-01	1.84996218e-02	3.05139788e-04
1.89000000e-01	1.86378115e-02	3.07778779e-04
1.89500000e-01	1.88054131e-02	3.08748825e-04
1.90000000e-01	1.83736074e-02	3.01254629e-04
1.90500000e-01	1.84440393e-02	3.02449067e-04
1.91000000e-01	1.85532460e-02	3.03216336e-04
1.91500000e-01	1.83079132e-02	3.00896828e-04
1.92000000e-01	1.85075136e-02	3.02488835e-04
1.92500000e-01	1.85296320e-02	3.03815643e-04
1.93000000e-01	1.83461360e-02	2.99944502e-04
1.93500000e-01	1.85042239e-02	3.01175505e-04
1.94000000e-01	1.84624273e-02	3.00875250e-04
1.94500000e-01	1.83045152e-02	2.98666649e-04
1.95000000e-01	1.84869829e-02	3.00280436e-04
1.95500000e-01	1.85463216e-02	3.01615171e-04
1.96000000e-01	1.83761702e-02	2.97312474e-04
1.96500000e-01	1.80480745e-02	2.93030665e-04
1.97000000e-01	1.83659941e-02	2.96117220e-04
1.97500000e-01	1.84447516e-02	2.97588014e-04
1.98000000e-01	1.82882071e-02	2.94624374e-04
1.98500000e-01	1.79902261e-02	2.89721785e-04
1.99000000e-01	1.83274099e-02	2.93982784e-04
1.99500000e-01	1.84146619e-02	2.95608724e-04
2.00000000e-01	1.86754191e-02	2.99083912e-04
2.00500000e-01	1.82276748e-02	2.92814057e-04
2.01000000e-01	1.82203721e-02	2.91156493e-04
2.01500000e-01	1.83827206e-02	2.93838730e-04
2.02000000e-01	1.83862038e-02	2.95087465e-04
2.02500000e-01	1.83037922e-02	2.91073306e-04
2.03000000e-01	1.82828055e-02	2.91351455e-04
2.03500000e-01	1.83796314e-02	2.91813082e-04
2.04000000e-01	1.81354769e-02	2.87296058e-04
2.04500000e-01	1.82821920e-02	2.90805951e-04
2.05000000e-01	1.81990786e-02	2.87425212e-04
2.05500000e-01	1.84401419e-02	2.90950657e-04
2.06000000e-01	1.79847031e-02	2.83784532e-04
2.06500000e-01	1.81939953e-02	2.88742310e-04
2.07000000e-01	1.80787179e-02	2.85871700e-04
2.07500000e-01	1.82565044e-02	2.87629088e-04
2.08000000e-01	1.82968885e-02	2.88463470e-04
2.08500000e-01	1.83104769e-02	2.87050976e-04
2.09000000e-01	1.79099177e-02	2.82686563e-04
2.09500000e-01	1.80689270e-02	2.83652579e-04
2.10000000e-01	1.81702206e-02	2.84981523e-04
2.10500000e-01	1.83762458e-02	2.86993799e-04
2.11000000e-01	1.80121827e-02	2.81559724e-04
2.11500000e-01	1.81154441e-02	2.82925880e-04
2.12000000e-01	1.81717610e-02	2.83174068e-04
2.12500000e-01	1.79974351e-02	2.79643573e-04
2.13000000e-01	1.83113359e-02	2.85807478e-04
2.13500000e-01	1.82071206e-02	2.82343577e-04
2.14000000e-01	1.78972906e-02	2.78466938e-04
2.14500000e-01	1.79759233e-02	2.77821001e-04
2.15000000e-01	1.79259847e-02	2.78606990e-04
2.15500000e-01	1.79652164e-02	2.76998155e-04
2.16000000e-01	1.82697833e-02	2.81222602e-04
2.16500000e-01	1.80983862e-02	2.80170888e-04
2.17000000e-01	1.79225599e-02	2.81192107e-04
2.17500000e-01	1.83393505e-02	2.90167841e-04
2.18000000e-01	1.81817696e-02	2.89602027e-04
2.18500000e-01	1.80213730e-02	2.89016598e-04
2.19000000e-01	1.79063270e-02	2.88998587e-04
2.19500000e-01	1.79431277e-02	2.89758768e-04
2.20000000e-01	1.79663026e-02	2.92585254e-04
2.20500000e-01	1.77597948e-02	2.89621822e-04
2.21000000e-01	1.78083539e-02	2.90861298e-04
2.21500000e-01	1.78746391e-02	2.94537326e-04
2.22000000e-01	1.80050082e-02	2.94380775e-04
2.22500000e-01	1.79871757e-02	2.95232969e-04
2.23000000e-01	1.81548206e-02	2.98806923e-04
2.23500000e-01	1.81044816e-02	2.98407770e-04
2.24000000e-01	1.81458139e-02	2.99369124e-04
2.24500000e-01	1.80804591e-02	3.00274182e-04
2.25000000e-01	1.79284068e-02	2.99257386e-04
2.25500000e-01	1.80306853e-02	3.00207035e-04
2.26000000e-01	1.79948997e-02	3.01115660e-04
2.26500000e-01	1.78265022e-02	2.92861879e-04
2.27000000e-01	1.77614565e-02	2.87808140e-04
2.27500000e-01	1.81204239e-02	2.90659367e-04
2.28000000e-01	1.79541774e-02	2.88425799e-04
2.28500000e-01	1.78494645e-02	2.85699114e-04
2.29000000e-01	1.81735589e-02	2.88997438e-04
2.29500000e-01	1.80263322e-02	2.84993767e-04
2.30000000e-01	1.80301922e-02	2.85456003e-04
2.30500000e-01	1.76930758e-02	2.79392146e-04
2.31000000e-01	1.78090820e-02	2.79862281e-04
2.31500000e-01	1.78963603e-02	2.80010208e-04
2.32000000e-01	1.78090255e-02	2.78881732e-04
2.32500000e-01	1.78912067e-02	2.79556681e-04
2.33000000e-01	1.77598868e-02	2.76331932e-04
2.33500000e-01	1.77866867e-02	2.76216628e-04
2.34000000e-01	1.78756946e-02	2.77177147e-04
2.34500000e-01	1.77384683e-02	2.73834539e-04
2.35000000e-01	1.77515741e-02	2.74810185e-04
2.35500000e-01	1.75933991e-02	2.72136109e-04
2.36000000e-01	1.77624398e-02	2.73608171e-04
2.36500000e-01	1.79404130e-02	2.76064906e-04
2.37000000e-01	1.76596963e-02	2.70793364e-04
2.37500000e-01	1.77512334e-02	2.72592114e-04
2.38000000e-01	1.77538844e-02	2.70927174e-04
2.38500000e-01	1.77340657e-02	2.71878234e-04
2.39000000e-01	1.76065211e-02	2.68078505e-04
2.39500000e-01	1.76425287e-02	2.70151080e-04
2.40000000e-01	1.77144466e-02	2.69869257e-04
2.40500000e-01	1.78148574e-02	2.69129242e-04
2.41000000e-01	1.77825994e-02	2.69013066e-04
2.41500000e-01	1.77399253e-02	2.67549452e-04
2.42000000e-01	1.75893923e-02	2.65074171e-04
2.42500000e-01	1.76006306e-02	2.63871225e-04
2.43000000e-01	1.80213904e-02	2.70362914e-04
2.43500000e-01	1.77710380e-02	2.67888891e-04
2.44000000e-01	1.75051669e-02	2.62913770e-04
2.44500000e-01	1.77443327e-02	2.66113048e-04
2.45000000e-01	1.76695749e-02	2.63822794e-04
2.45500000e-01	1.74883450e-02	2.61169104e-04
2.46000000e-01	1.75383339e-02	2.63087279e-04
2.46500000e-01	1.75392483e-02	2.60849670e-04
2.47000000e-01	1.78056214e-02	2.64876780e-04
2.47500000e-01	1.75951132e-02	2.60260324e-04
2.48000000e-01	1.73897617e-02	2.59142301e-04
2.48500000e-01	1.74365032e-02	2.58534839e-04
2.49000000e-01	1.75413299e-02	2.59304780e-04
2.49500000e-01	1.74763306e-02	2.58093926e-04
2.50000000e-01	1.75743834e-02	2.59357530e-04
2.50500000e-01	1.75688711e-02	2.60168089e-04
2.51000000e-01	1.73957499e-02	2.57327573e-04
2.51500000e-01	1.74660315e-02	2.57314400e-04
2.52000000e-01	1.75087158e-02	2.57599727e-04
2.52500000e-01	1.73331072e-02	2.54268369e-04
2.53000000e-01	1.73417278e-02	2.55567134e-04
2.53500000e-01	1.77189405e-02	2.59238933e-04
2.54000000e-01	1.75302243e-02	2.57731283e-04
2.54500000e-01	1.75748608e-02	2.57904218e-04
2.55000000e-01	1.74265355e-02	2.55148294e-04
2.55500000e-01	1.74373159e-02	2.55163607e-04
2.56000000e-01	1.72787869e-02	2.52353847e-04
2.56500000e-01	1.73575417e-02	2.53317773e-04
2.57000000e-01	1.75586116e-02	2.55865423e-04
2.57500000e-01	1.74586172e-02	2.53918238e-04
2.58000000e-01	1.73624020e-02	2.52609101e-04
2.58500000e-01	1.72918614e-02	2.51629992e-04
2.59000000e-01	1.74366325e-02	2.52284013e-04
2.59500000e-01	1.73841665e-02	2.52502952e-04
2.60000000e-01	1.72312775e-02	2.49641115e-04
2.60500000e-01	1.72001694e-02	2.49067808e-04
2.61000000e-01	1.74006277e-02	2.50606788e-04
2.61500000e-01	1.73032063e-02	2.49506225e-04
2.62000000e-01	1.73293514e-02	2.49925054e-04
2.62500000e-01	1.73609865e-02	2.49546576e-04
2.63000000e-01	1.74286729e-02	2.50375799e-04
2.63500000e-01	1.73976971e-02	2.48771102e-04
2.64000000e-01	1.73614230e-02	2.49746242e-04
2.64500000e-01	1.73184795e-02	2.47041765e-04
2.65000000e-01	1.73004517e-02	2.47808408e-04
2.65500000e-01	1.71122273e-02	2.45586609e-04
2.66000000e-01	1.73883705e-02	2.48643156e-04
2.66500000e-01	1.72125016e-02	2.46385242e-04
2.67000000e-01	1.72233573e-02	2.45094501e-04
2.67500000e-01	1.74890664e-02	2.48489289e-04
2.68000000e-01	1.75531318e-02	2.49251435e-04
2.68500000e-01	1.72471678e-02	2.44712873e-04
2.69000000e-01	1.72922718e-02	2.45405375e-04
2.69500000e-01	1.70770681e-02	2.42686185e-04
2.70000000e-01	1.73431396e-02	2.44750691e-04
2.70500000e-01	1.70507211e-02	2.40755288e-04
2.71000000e-01	1.69256910e-02	2.39457083e-04
2.71500000e-01	1.72289051e-02	2.42736654e-04
2.72000000e-01	1.71738784e-02	2.41556371e-04
2.72500000e-01	1.69800561e-02	2.40411866e-04
2.73000000e-01	1.71613515e-02	2.41727027e-04
2.73500000e-01	1.70907405e-02	2.40837112e-04
2.74000000e-01	1.70534332e-02	2.39471362e-04
2.74500000e-01	1.71698448e-02	2.39917532e-04
2.75000000e-01	1.70707758e-02	2.40038449e-04
2.75500000e-01	1.69705497e-02	2.39081880e-04
2.76000000e-01	1.70269681e-02	2.38309883e-04
2.76500000e-01	1.70868484e-02	2.39406807e-04
2.77000000e-01	1.71616094e-02	2.39940588e-04
2.77500000e-01	1.71691130e-02	2.40100225e-04
2.78000000e-01	1.69541789e-02	2.37325802e-04
2.78500000e-01	1.70770952e-02	2.39667349e-04
2.79000000e-01	1.68777732e-02	2.34388011e-04
2.79500000e-01	1.71989691e-02	2.40317748e-04
2.80000000e-01	1.71806995e-02	2.39447521e-04
2.80500000e-01	1.73338056e-02	2.41037995e-04
2.81000000e-01	1.71198408e-02	2.37613002e-04
2.81500000e-01	1.69812053e-02	2.35465246e-04
2.82000000e-01	1.71075864e-02	2.36980418e-04
2.82500000e-01	1.68382315e-02	2.34239967e-04
2.83000000e-01	1.69717205e-02	2.35408982e-04
2.83500000e-01	1.70433044e-02	2.36229371e-04
2.84000000e-01	1.70738185e-02	2.35378565e-04
2.84500000e-01	1.68737474e-02	2.32547107e-04
2.85000000e-01	1.70449723e-02	2.34490073e-04
2.85500000e-01	1.70098585e-02	2.33714991e-04
2.86000000e-01	1.68546600e-02	2.32946993e-04
2.86500000e-01	1.69265829e-02	2.32561049e-04
2.87000000e-01	1.70649225e-02	2.33941795e-04
2.87500000e-01	1.67822555e-02	2.29764268e-04
2.88000000e-01	1.70393587e-02	2.33300528e-04
2.88500000e-01	1.70660726e-02	2.34816177e-04
2.89000000e-01	1.68458513e-02	2.30274390e-04
2.89500000e-01	1.69171173e-02	2.31040503e-04
2.90000000e-01	1.70897696e-02	2.33385425e-04
2.90500000e-01	1.68485783e-02	2.30584593e-04
2.91000000e-01	1.69456249e-02	2.31861608e-04
2.91500000e-01	1.69026678e-02	2.29989872e-04
2.92000000e-01	1.69434537e-02	2.30254460e-04
2.92500000e-01	1.68914404e-02	2.29293579e-04
2.93000000e-01	1.68497220e-02	2.29126020e-04
2.93500000e-01	1.69106471e-02	2.29916455e-04
2.94000000e-01	1.70006672e-02	2.30289662e-04
2.94500000e-01	1.68251955e-02	2.27501681e-04
2.95000000e-01	1.69012447e-02	2.28761462e-04
2.95500000e-01	1.69330999e-02	2.29247032e-04
2.96000000e-01	1.67082886e-02	2.25335289e-04
2.96500000e-01	1.68678593e-02	2.28112093e-04
2.97000000e-01	1.69326616e-02	2.28265108e-04
2.97500000e-01	1.67838997e-02	2.25526620e-04
2.98000000e-01	1.65962263e-02	2.24385617e-04
2.98500000e-01	1.68933715e-02	2.27323839e-04
2.99000000e-01	1.67916543e-02	2.25683823e-04
2.99500000e-01	1.68507464e-02	2.26624318e-04
3.00000000e-01	1.67810944e-02	2.25430861e-04
3.00500000e-01	1.70320707e-02	2.27877130e-04
3.01000000e-01	1.66904185e-02	2.23807623e-04
3.01500000e-01	1.67125166e-02	2.23081686e-04
3.02000000e-01	1.66527301e-02	2.23565873e-04
3.02500000e-01	1.68059597e-02	2.24615650e-04
3.03000000e-01	1.69360501e-02	2.26585158e-04
3.03500000e-01	1.68346227e-02	2.24198906e-04
3.04000000e-01	1.68286098e-02	2.24487199e-04
3.04500000e-01	1.69626808e-02	2.26093069e-04
3.05000000e-01	1.67874103e-02	2.23884242e-04
3.05500000e-01	1.68158792e-02	2.24041664e-04
3.06000000e-01	1.67628465e-02	2.21611218e-04
3.06500000e-01	1.67149821e-02	2.21927858e-04
3.07000000e-01	1.67220321e-02	2.22347518e-04
3.07500000e-01	1.67074552e-02	2.21223617e-04
3.08000000e-01	1.63778269e-02	2.18164753e-04
3.08500000e-01	1.66907158e-02	2.20915813e-04
3.09000000e-01	1.68244111e-02	2.22924295e-04
3.09500000e-01	1.66647523e-02	2.19995035e-04
3.10000000e-01	1.66393127e-02	2.19364779e-04
3.10500000e-01	1.65378752e-02	2.18920093e-04
3.11000000e-01	1.66857508e-02	2.20517232e-04
3.11500000e-01	1.62754837e-02	2.15415895e-04
3.12000000e-01	1.65096203e-02	2.16806178e-04
3.12500000e-01	1.66132697e-02	2.17708063e-04
3.13000000e-01	1.65643177e-02	2.17489777e-04
3.13500000e-01	1.65705725e-02	2.18470004e-04
3.14000000e-01	1.66477392e-02	2.18437624e-04
3.14500000e-01	1.63281053e-02	2.14608935e-04
3.15000000e-01	1.64556433e-02	2.16220696e-04
3.15500000e-01	1.67739414e-02	2.20116128e-04
3.16000000e-01	1.65490679e-02	2.16552454e-04
3.16500000e-01	1.64925463e-02	2.15355917e-04
3.17000000e-01	1.65308817e-02	2.16379279e-04
3.17500000e-01	1.65392555e-02	2.16431357e-04
3.18000000e-01	1.64803148e-02	2.16024830e-04
3.18500000e-01	1.63755147e-02	2.13961995e-04
3.19000000e-01	1.65470472e-02	2.15788844e-04
3.19500000e-01	1.65591557e-02	2.15828386e-04
3.20000000e-01	1.64238107e-02	2.13347286e-04
3.20500000e-01	1.64540372e-02	2.14034288e-04
3.21000000e-01	1.65343604e-02	2.14145629e-04
3.21500000e-01	1.64324569e-02	2.14385457e-04
3.22000000e-01	1.61751912e-02	2.10583275e-04
3.22500000e-01	1.62481583e-02	2.10962228e-04
3.23000000e-01	1.63624123e-02	2.11883306e-04
3.23500000e-01	1.62125571e-02	2.10076801e-04
3.24000000e-01	1.63332931e-02	2.11256678e-04
3.24500000e-01	1.62517819e-02	2.10216133e-04
3.25000000e-01	1.63200507e-02	2.11225427e-04
3.25500000e-01	1.63218114e-02	2.11071386e-04
3.26000000e-01	1.63606962e-02	2.11237403e-04
3.26500000e-01	1.61699793e-02	2.08548451e-04
3.27000000e-01	1.63378973e-02	2.11173313e-04
3.27500000e-01	1.63748278e-02	2.10331322e-04
3.28000000e-01	1.61581631e-02	2.08180143e-04
3.28500000e-01	1.62407864e-02	2.08541201e-04
3.29000000e-01	1.63608578e-02	2.09606530e-04
3.29500000e-01	1.62229561e-02	2.08577811e-04
3.30000000e-01	1.62869729e-02	2.08357543e-04
3.30500000e-01	1.61877547e-02	2.07522193e-04
3.31000000e-01	1.62747473e-02	2.08449860e-04
3.31500000e-01	1.63130720e-02	2.09278557e-04
3.32000000e-01	1.63037496e-02	2.08472784e-04
3.32500000e-01	1.61996112e-02	2.06590958e-04
3.33000000e-01	1.62314104e-02	2.07560751e-04
3.33500000e-01	1.62825879e-02	2.07389093e-04
3.34000000e-01	1.60832752e-02	2.05027029e-04
3.34500000e-01	1.62125620e-02	2.06712879e-04
3.35000000e-01	1.61428692e-02	2.05151694e-04
3.35500000e-01	1.61330687e-02	2.05553540e-04
3.36000000e-01	1.60882941e-02	2.05082485e-04
3.36500000e-01	1.61301495e-02	2.04891026e-04
3.37000000e-01	1.60552396e-02	2.03919900e-04
3.37500000e-01	1.61655633e-02	2.05883220e-04
3.38000000e-01	1.60657960e-02	2.04281373e-04
3.38500000e-01	1.60749051e-02	2.03650938e-04
3.39000000e-01	1.61616818e-02	2.05119064e-04
3.39500000e-01	1.60217847e-02	2.02759023e-04
3.40000000e-01	1.60374723e-02	2.03026485e-04
3.40500000e-01	1.61974382e-02	2.04642086e-04
3.41000000e-01	1.59762115e-02	2.01586027e-04
3.41500000e-01	1.59582002e-02	2.01651319e-04
3.42000000e-01	1.59832689e-02	2.01579413e-04
3.42500000e-01	1.60247775e-02	2.02398285e-04
3.43000000e-01	1.62260902e-02	2.04452427e-04
3.43500000e-01	1.60850959e-02	2.02567593e-04
3.44000000e-01	1.60769019e-02	2.02621007e-04
3.44500000e-01	1.59733081e-02	2.00573683e-04
3.45000000e-01	1.58382455e-02	1.99257579e-04
3.45500000e-01	1.60738531e-02	2.01247776e-04
3.46000000e-01	1.59874222e-02	2.01043198e-04
3.46500000e-01	1.58733762e-02	1.98836836e-04
3.47000000e-01	1.60277438e-02	2.00572145e-04
3.47500000e-01	1.59001051e-02	1.99067909e-04
3.48000000e-01	1.58923898e-02	1.97923074e-04
3.48500000e-01	1.58985290e-02	1.99266227e-04
3.49000000e-01	1.58870720e-02	1.97738617e-04
3.49500000e-01	1.60306295e-02	1.99909342e-04
3.50000000e-01	1.58079211e-02	1.60931146e-04
3.51000000e-01	1.58774131e-02	1.39948380e-04
3.52000000e-01	1.59082541e-02	1.40417573e-04
3.53000000e-01	1.57888381e-02	1.38427669e-04
3.54000000e-01	1.59107426e-02	1.39218835e-04
3.55000000e-01	1.58985291e-02	1.39495189e-04
3.56000000e-01	1.58610604e-02	1.39488735e-04
3.57000000e-01	1.58327000e-02	1.41639332e-04
3.58000000e-01	1.57709195e-02	1.42509926e-04
3.59000000e-01	1.56372657e-02	1.42460128e-04
3.60000000e-01	1.56533562e-02	1.43700876e-04
3.61000000e-01	1.57413756e-02	1.44827487e-04
3.62000000e-01	1.57472606e-02	1.45116456e-04
3.63000000e-01	1.56452284e-02	1.45209040e-04
3.64000000e-01	1.55635069e-02	1.44827918e-04
3.65000000e-01	1.54808662e-02	1.44883265e-04
3.66000000e-01	1.55988757e-02	1.43786844e-04
3.67000000e-01	1.55771360e-02	1.42233410e-04
3.68000000e-01	1.57624363e-02	1.42202682e-04
3.69000000e-01	1.54488319e-02	1.39094910e-04
3.70000000e-01	1.55799585e-02	1.39479481e-04
3.71000000e-01	1.56307307e-02	1.41359582e-04
3.72000000e-01	1.54672829e-02	1.41314230e-04
3.73000000e-01	1.55998508e-02	1.42249661e-04
3.74000000e-01	1.54899921e-02	1.41565758e-04
3.75000000e-01	1.55296104e-02	1.42058471e-04
3.76000000e-01	1.55218445e-02	1.42214662e-04
3.77000000e-01	1.54388166e-02	1.41666573e-04
3.78000000e-01	1.54520114e-02	1.41681714e-04
3.79000000e-01	1.53978067e-02	1.41150165e-04
3.80000000e-01	1.54813439e-02	1.41625619e-04
3.81000000e-01	1.54367281e-02	1.41032672e-04
3.82000000e-01	1.52919364e-02	1.39859224e-04
3.83000000e-01	1.52870730e-02	1.39615973e-04
3.84000000e-01	1.55087844e-02	1.41284916e-04
3.85000000e-01	1.53463272e-02	1.40122203e-04
3.86000000e-01	1.53914570e-02	1.40973622e-04
3.87000000e-01	1.54215733e-02	1.40693483e-04
3.88000000e-01	1.52218495e-02	1.39163385e-04
3.89000000e-01	1.53696312e-02	1.40391220e-04
3.90000000e-01	1.52497145e-02	1.39320684e-04
3.91000000e-01	1.52465511e-02	1.39349905e-04
3.92000000e-01	1.52312893e-02	1.38848534e-04
3.93000000e-01	1.52776430e-02	1.39414879e-04
3.94000000e-01	1.53068900e-02	1.39484201e-04
3.95000000e-01	1.51519548e-02	1.38203912e-04
3.96000000e-01	1.51945564e-02	1.38231384e-04
3.97000000e-01	1.52444278e-02	1.38668712e-04
3.98000000e-01	1.51853276e-02	1.38557545e-04
3.99000000e-01	1.52218403e-02	1.38646895e-04
4.00000000e-01	1.52532473e-02	1.38661151e-04
4.01000000e-01	1.51192964e-02	1.37845080e-04
4.02000000e-01	1.51511589e-02	1.38069187e-04
4.03000000e-01	1.50548181e-02	1.37137301e-04
4.04000000e-01	1.50739954e-02	1.37533908e-04
4.05000000e-01	1.50717689e-02	1.37486323e-04
4.06000000e-01	1.50604156e-02	1.37397447e-04
4.07000000e-01	1.51796547e-02	1.38207769e-04
4.08000000e-01	1.51253205e-02	1.37579130e-04
4.09000000e-01	1.50702189e-02	1.36881244e-04
4.10000000e-01	1.50357012e-02	1.36283016e-04
4.11000000e-01	1.50017149e-02	1.36392323e-04
4.12000000e-01	1.51277236e-02	1.37852948e-04
4.13000000e-01	1.51641446e-02	1.37618857e-04
4.14000000e-01	1.50133303e-02	1.36246384e-04
4.15000000e-01	1.50012670e-02	1.36255726e-04
4.16000000e-01	1.50473788e-02	1.36640386e-04
4.17000000e-01	1.48551798e-02	1.34879413e-04
4.18000000e-01	1.50127390e-02	1.38033798e-04
4.19000000e-01	1.49577811e-02	1.38730968e-04
4.20000000e-01	1.50803174e-02	1.40890078e-04
4.21000000e-01	1.49926118e-02	1.40570704e-04
4.22000000e-01	1.50803307e-02	1.41784018e-04
4.23000000e-01	1.49623100e-02	1.40908033e-04
4.24000000e-01	1.49977905e-02	1.41774672e-04
4.25000000e-01	1.50464099e-02	1.42298588e-04
4.26000000e-01	1.50519708e-02	1.42473875e-04
4.27000000e-01	1.50047829e-02	1.42303960e-04
4.28000000e-01	1.49650642e-02	1.42172726e-04
4.29000000e-01	1.49060390e-02	1.41742491e-04
4.30000000e-01	1.50589927e-02	1.43121553e-04
4.31000000e-01	1.49646810e-02	1.41609722e-04
4.32000000e-01	1.50155932e-02	1.42686937e-04
4.33000000e-01	1.47361946e-02	1.40675211e-04
4.34000000e-01	1.48249119e-02	1.41003306e-04
4.35000000e-01	1.48249960e-02	1.41298947e-04
4.36000000e-01	1.48169035e-02	1.41677037e-04
4.37000000e-01	1.48488415e-02	1.41698804e-04
4.38000000e-01	1.48699212e-02	1.42434103e-04
4.39000000e-01	1.47982219e-02	1.41798257e-04
4.40000000e-01	1.47326138e-02	1.41439538e-04
4.41000000e-01	1.49110329e-02	1.43160985e-04
4.42000000e-01	1.48940476e-02	1.43434973e-04
4.43000000e-01	1.46695772e-02	1.41407734e-04
4.44000000e-01	1.47704272e-02	1.42405799e-04
4.45000000e-01	1.48520983e-02	1.43423283e-04
4.46000000e-01	1.48249839e-02	1.43243209e-04
4.47000000e-01	1.46063538e-02	1.41575724e-04
4.48000000e-01	1.47674437e-02	1.43221494e-04
4.49000000e-01	1.46933071e-02	1.42614981e-04
4.50000000e-01	1.47813569e-02	1.43757418e-04
4.51000000e-01	1.47766259e-02	1.43468329e-04
4.52000000e-01	1.47705631e-02	1.43736027e-04
4.53000000e-01	1.47876374e-02	1.43774575e-04
4.54000000e-01	1.46668016e-02	1.43016908e-04
4.55000000e-01	1.46218984e-02	1.42820273e-04
4.56000000e-01	1.47102214e-02	1.43858674e-04
4.57000000e-01	1.47554271e-02	1.44380533e-04
4.58000000e-01	1.46848757e-02	1.43367151e-04
4.59000000e-01	1.45839393e-02	1.43214597e-04
4.60000000e-01	1.47499004e-02	1.44586074e-04
4.61000000e-01	1.47361718e-02	1.44244691e-04
4.62000000e-01	1.46250899e-02	1.43126200e-04
4.63000000e-01	1.46261156e-02	1.43904070e-04
4.64000000e-01	1.46830725e-02	1.44257264e-04
4.65000000e-01	1.46574471e-02	1.44332743e-04
4.66000000e-01	1.46926174e-02	1.44062749e-04
4.67000000e-01	1.45475997e-02	1.43172683e-04
4.68000000e-01	1.45253590e-02	1.43094063e-04
4.69000000e-01	1.46165063e-02	1.43951557e-04
4.70000000e-01	1.44126371e-02	1.41954886e-04
4.71000000e-01	1.45475045e-02	1.43244049e-04
4.72000000e-01	1.45149805e-02	1.43403540e-04
4.73000000e-01	1.45605433e-02	1.43376225e-04
4.74000000e-01	1.45398331e-02	1.43039092e-04
4.75000000e-01	1.45792636e-02	1.43241081e-04
4.76000000e-01	1.44377296e-02	1.42173403e-04
4.77000000e-01	1.44387861e-02	1.42287528e-04
4.78000000e-01	1.45433529e-02	1.43707038e-04
4.79000000e-01	1.45716840e-02	1.43433358e-04
4.80000000e-01	1.46437782e-02	1.44486632e-04
4.81000000e-01	1.44135639e-02	1.43118962e-04
4.82000000e-01	1.43569887e-02	1.41698716e-04
4.83000000e-01	1.42316062e-02	1.41147876e-04
4.84000000e-01	1.43457006e-02	1.41999738e-04
4.85000000e-01	1.42878808e-02	1.41819925e-04
4.86000000e-01	1.44199193e-02	1.42495886e-04
4.87000000e-01	1.44855716e-02	1.43887136e-04
4.88000000e-01	1.42776204e-02	1.41682312e-04
4.89000000e-01	1.43166287e-02	1.42381274e-04
4.90000000e-01	1.42884894e-02	1.42105029e-04
4.91000000e-01	1.44893272e-02	1.43946527e-04
4.92000000e-01	1.43472271e-02	1.42425426e-04
4.93000000e-01	1.43565740e-02	1.43033043e-04
4.94000000e-01	1.43143080e-02	1.42579778e-04
4.95000000e-01	1.42023763e-02	1.42835636e-04
4.96000000e-01	1.43507290e-02	1.48366128e-04
4.97000000e-01	1.42705384e-02	1.49901362e-04
4.98000000e-01	1.43270768e-02	1.53245663e-04
4.99000000e-01	1.42280704e-02	1.53945709e-04
5.00000000e-01	1.42827033e-02	1.55772012e-04
5.01000000e-01	1.45055313e-02	1.59104918e-04
5.02000000e-01	1.42488364e-02	1.58683005e-04
5.03000000e-01	1.43949530e-02	1.61491196e-04
5.04000000e-01	1.43022494e-02	1.61788014e-04
5.05000000e-01	1.44840180e-02	1.60606059e-04
5.06000000e-01	1.42824176e-02	1.55264310e-04
5.07000000e-01	1.43522570e-02	1.54877090e-04
5.08000000e-01	1.41355104e-02	1.51713453e-04
5.09000000e-01	1.44628535e-02	1.54265247e-04
5.10000000e-01	1.42393573e-02	1.51357540e-04
5.11000000e-01	1.42790438e-02	1.51482266e-04
5.12000000e-01	1.43370943e-02	1.51512153e-04
5.13000000e-01	1.41534689e-02	1.49772602e-04
5.14000000e-01	1.42729352e-02	1.50361089e-04
5.15000000e-01	1.41832077e-02	1.48973952e-04
5.16000000e-01	1.40216840e-02	1.47561043e-04
5.17000000e-01	1.41959253e-02	1.49300212e-04
5.18000000e-01	1.40957973e-02	1.47449151e-04
5.19000000e-01	1.41486948e-02	1.47439230e-04
5.20000000e-01	1.41004184e-02	1.47181965e-04
5.21000000e-01	1.42293197e-02	1.48159694e-04
5.22000000e-01	1.41496689e-02	1.46721505e-04
5.23000000e-01	1.39373171e-02	1.45450434e-04
5.24000000e-01	1.39820473e-02	1.45416003e-04
5.25000000e-01	1.39433798e-02	1.44808732e-04
5.26000000e-01	1.39539601e-02	1.45026172e-04
5.27000000e-01	1.41004887e-02	1.46486282e-04
5.28000000e-01	1.41607103e-02	1.47152369e-04
5.29000000e-01	1.39736796e-02	1.45378725e-04
5.30000000e-01	1.39550105e-02	1.44998136e-04
5.31000000e-01	1.40507087e-02	1.46157047e-04
5.32000000e-01	1.40283988e-02	1.45935400e-04
5.33000000e-01	1.39542456e-02	1.45303073e-04
5.34000000e-01	1.39369570e-02	1.44767456e-04
5.35000000e-01	1.39612910e-02	1.44856777e-04
5.36000000e-01	1.39664997e-02	1.45399541e-04
5.37000000e-01	1.38536561e-02	1.44391588e-04
5.38000000e-01	1.39517556e-02	1.45215721e-04
5.39000000e-01	1.39137459e-02	1.44813442e-04
5.40000000e-01	1.39533371e-02	1.44856403e-04
5.41000000e-01	1.38636983e-02	1.44098366e-04
5.42000000e-01	1.39735903e-02	1.45005441e-04
5.43000000e-01	1.38429816e-02	1.44274480e-04
5.44000000e-01	1.39707019e-02	1.44823933e-04
5.45000000e-01	1.38501902e-02	1.44301974e-04
5.46000000e-01	1.37581446e-02	1.42652581e-04
5.47000000e-01	1.39916306e-02	1.45771243e-04
5.48000000e-01	1.38266837e-02	1.43575472e-04
5.49000000e-01	1.40499953e-02	1.45553090e-04
5.50000000e-01	1.38352354e-02	1.44000690e-04
5.51000000e-01	1.37552405e-02	1.42790070e-04
5.52000000e-01	1.38399049e-02	1.43616199e-04
5.53000000e-01	1.36688354e-02	1.41803936e-04
5.54000000e-01	1.37479650e-02	1.42392652e-04
5.55000000e-01	1.38343470e-02	1.42725706e-04
5.56000000e-01	1.37059242e-02	1.41613726e-04
5.57000000e-01	1.37254196e-02	1.42129103e-04
5.58000000e-01	1.38001368e-02	1.42246729e-04
5.59000000e-01	1.36799022e-02	1.41567708e-04
5.60000000e-01	1.35746926e-02	1.40935368e-04
5.61000000e-01	1.35763665e-02	1.40356388e-04
5.62000000e-01	1.36392874e-02	1.41058318e-04
5.63000000e-01	1.36544235e-02	1.41250754e-04
5.64000000e-01	1.38879199e-02	1.43161990e-04
5.65000000e-01	1.36336581e-02	1.40796863e-04
5.66000000e-01	1.36077867e-02	1.40769442e-04
5.67000000e-01	1.36328904e-02	1.41755131e-04
5.68000000e-01	1.36387964e-02	1.41061255e-04
5.69000000e-01	1.35573914e-02	1.40417875e-04
5.70000000e-01	1.35210348e-02	1.39207378e-04
5.71000000e-01	1.36673174e-02	1.40824054e-04
5.72000000e-01	1.36824507e-02	1.41540654e-04
5.73000000e-01	1.35101132e-02	1.40344794e-04
5.74000000e-01	1.34287308e-02	1.38956822e-04
5.75000000e-01	1.35993939e-02	1.40955634e-04
5.76000000e-01	1.35645364e-02	1.40532928e-04
5.77000000e-01	1.34923275e-02	1.39696985e-04
5.78000000e-01	1.35187529e-02	1.40241947e-04
5.79000000e-01	1.34819216e-02	1.39848668e-04
5.80000000e-01	1.35324596e-02	1.40510645e-04
5.81000000e-01	1.34005070e-02	1.39105527e-04
5.82000000e-01	1.34848804e-02	1.39777468e-04
5.83000000e-01	1.33914617e-02	1.39400064e-04
5.84000000e-01	1.34751846e-02	1.40149541e-04
5.85000000e-01	1.34192281e-02	1.39813760e-04
5.86000000e-01	1.34192034e-02	1.39045652e-04
5.87000000e-01	1.34205919e-02	1.39569524e-04
5.88000000e-01	1.33276177e-02	1.38810936e-04
5.89000000e-01	1.32896013e-02	1.38215479e-04
5.90000000e-01	1.34178979e-02	1.39360878e-04
5.91000000e-01	1.33441456e-02	1.39051299e-04
5.92000000e-01	1.34285863e-02	1.39701207e-04
5.93000000e-01	1.33063539e-02	1.38055413e-04
5.94000000e-01	1.32842887e-02	1.38396942e-04
5.95000000e-01	1.34229911e-02	1.39465276e-04
5.96000000e-01	1.32776732e-02	1.38719778e-04
5.97000000e-01	1.32892805e-02	1.38186628e-04
5.98000000e-01	1.32911724e-02	1.38591968e-04
5.99000000e-01	1.32138107e-02	1.37903059e-04
6.00000000e-01	1.33197343e-02	1.38924366e-04
6.01000000e-01	1.31984082e-02	1.37510560e-04
6.02000000e-01	1.34664184e-02	1.40146766e-04
6.03000000e-01	1.32560518e-02	1.37814838e-04
6.04000000e-01	1.32032869e-02	1.37988210e-04
6.05000000e-01	1.33021611e-02	1.38617610e-04
6.06000000e-01	1.32222516e-02	1.38280732e-04
6.07000000e-01	1.31467940e-02	1.37447581e-04
6.08000000e-01	1.32673767e-02	1.38676956e-04
6.09000000e-01	1.33422897e-02	1.39299326e-04
6.10000000e-01	1.32639258e-02	1.38550683e-04
6.11000000e-01	1.32418348e-02	1.38097140e-04
6.12000000e-01	1.32242292e-02	1.38196100e-04
6.13000000e-01	1.33143360e-02	1.38897137e-04
6.14000000e-01	1.31251332e-02	1.36945580e-04
6.15000000e-01	1.31285535e-02	1.37231964e-04
6.16000000e-01	1.31326742e-02	1.37379431e-04
6.17000000e-01	1.31827746e-02	1.37566539e-04
6.18000000e-01	1.30461398e-02	1.36427393e-04
6.19000000e-01	1.32491124e-02	1.37897865e-04
6.20000000e-01	1.32410218e-02	1.37834426e-04
6.21000000e-01	1.30505258e-02	1.35844728e-04
6.22000000e-01	1.31675899e-02	1.37032930e-04
6.23000000e-01	1.30950003e-02	1.36222889e-04
6.24000000e-01	1.31241077e-02	1.36745528e-04
6.25000000e-01	1.30839536e-02	1.35652667e-04
6.26000000e-01	1.30682780e-02	1.35584975e-04
6.27000000e-01	1.31228351e-02	1.36238300e-04
6.28000000e-01	1.30558342e-02	1.35347588e-04
6.29000000e-01	1.30111589e-02	1.35186535e-04
6.30000000e-01	1.30278811e-02	1.35161309e-04
6.31000000e-01	1.30772215e-02	1.35496018e-04
6.32000000e-01	1.31056871e-02	1.35609018e-04
6.33000000e-01	1.30178897e-02	1.34990607e-04
6.34000000e-01	1.30577041e-02	1.39170223e-04
6.35000000e-01	1.29637102e-02	1.41983942e-04
6.36000000e-01	1.30726451e-02	1.45694477e-04
6.37000000e-01	1.29475579e-02	1.47150194e-04
6.38000000e-01	1.30364776e-02	1.49881177e-04
6.39000000e-01	1.30348195e-02	1.51741837e-04
6.40000000e-01	1.30695522e-02	1.54220260e-04
6.41000000e-01	1.31844766e-02	1.56168539e-04
6.42000000e-01	1.32331324e-02	1.59349129e-04
6.43000000e-01	1.29989634e-02	1.56182662e-04
6.44000000e-01	1.32473771e-02	1.52986322e-04
6.45000000e-01	1.30654409e-02	1.49064521e-04
6.46000000e-01	1.32411049e-02	1.49545170e-04
6.47000000e-01	1.33079585e-02	1.48712271e-04
6.48000000e-01	1.31278634e-02	1.46176581e-04
6.49000000e-01	1.30384464e-02	1.44900108e-04
6.50000000e-01	1.30123832e-02	1.43853271e-04
6.51000000e-01	1.31049122e-02	1.44314820e-04
6.52000000e-01	1.30438455e-02	1.43052043e-04
6.53000000e-01	1.30266193e-02	1.42733684e-04
6.54000000e-01	1.30182810e-02	1.42057581e-04
6.55000000e-01	1.30471177e-02	1.41634740e-04
6.56000000e-01	1.29003274e-02	1.40565090e-04
6.57000000e-01	1.30217814e-02	1.41247404e-04
6.58000000e-01	1.30303023e-02	1.40868031e-04
6.59000000e-01	1.28843463e-02	1.39884384e-04
6.60000000e-01	1.29813591e-02	1.40682091e-04
6.61000000e-01	1.29410584e-02	1.40039159e-04
6.62000000e-01	1.28644658e-02	1.39162312e-04
6.63000000e-01	1.29171824e-02	1.39226497e-04
6.64000000e-01	1.29607413e-02	1.39847063e-04
6.65000000e-01	1.29736428e-02	1.40268192e-04
6.66000000e-01	1.28920334e-02	1.39103633e-04
6.67000000e-01	1.29922800e-02	1.40048125e-04
6.68000000e-01	1.29072962e-02	1.39183723e-04
6.69000000e-01	1.28450194e-02	1.38228515e-04
6.70000000e-01	1.28917610e-02	1.38887677e-04
6.71000000e-01	1.29649280e-02	1.39979895e-04
6.72000000e-01	1.27911544e-02	1.37773094e-04
6.73000000e-01	1.28260071e-02	1.37736069e-04
6.74000000e-01	1.29411581e-02	1.39184709e-04
6.75000000e-01	1.27723130e-02	1.37567154e-04
6.76000000e-01	1.28941996e-02	1.38662046e-04
6.77000000e-01	1.28037248e-02	1.37276255e-04
6.78000000e-01	1.27629866e-02	1.36778546e-04
6.79000000e-01	1.28329060e-02	1.38070898e-04
6.80000000e-01	1.27413956e-02	1.36581898e-04
6.81000000e-01	1.28022895e-02	1.37935995e-04
6.82000000e-01	1.28296771e-02	1.37469169e-04
6.83000000e-01	1.27855253e-02	1.37546615e-04
6.84000000e-01	1.28251810e-02	1.37813688e-04
6.85000000e-01	1.28064607e-02	1.37777068e-04
6.86000000e-01	1.27966124e-02	1.37341699e-04
6.87000000e-01	1.27375323e-02	1.36125179e-04
6.88000000e-01	1.27186692e-02	1.36735150e-04
6.89000000e-01	1.27343462e-02	1.36751677e-04
6.90000000e-01	1.27091358e-02	1.36324894e-04
6.91000000e-01	1.28578704e-02	1.37764597e-04
6.92000000e-01	1.26667041e-02	1.35590873e-04
6.93000000e-01	1.25838167e-02	1.34989954e-04
6.94000000e-01	1.27812278e-02	1.37245322e-04
6.95000000e-01	1.26524591e-02	1.35407926e-04
6.96000000e-01	1.26941515e-02	1.36478664e-04
6.97000000e-01	1.27651466e-02	1.36363109e-04
6.98000000e-01	1.28044385e-02	1.36579899e-04
6.99000000e-01	1.26044310e-02	1.35406586e-04
7.00000000e-01	1.27448293e-02	1.36170531e-04
7.01000000e-01	1.26589837e-02	1.35444944e-04
7.02000000e-01	1.25940986e-02	1.35622684e-04
7.03000000e-01	1.25662655e-02	1.34632897e-04
7.04000000e-01	1.25497438e-02	1.34940581e-04
7.05000000e-01	1.27391114e-02	1.36822828e-04
7.06000000e-01	1.25787911e-02	1.34879647e-04
7.07000000e-01	1.25828796e-02	1.34730141e-04
7.08000000e-01	1.26008093e-02	1.34057138e-04
7.09000000e-01	1.24239300e-02	1.32935289e-04
7.10000000e-01	1.25836034e-02	1.34822046e-04
7.11000000e-01	1.25831852e-02	1.34922072e-04
7.12000000e-01	1.24653161e-02	1.33698030e-04
7.13000000e-01	1.24685999e-02	1.33320633e-04
7.14000000e-01	1.25323803e-02	1.34091194e-04
7.15000000e-01	1.24408440e-02	1.33449117e-04
7.16000000e-01	1.26309402e-02	1.35556429e-04
7.17000000e-01	1.23416768e-02	1.32764544e-04
7.18000000e-01	1.25035856e-02	1.34099291e-04
7.19000000e-01	1.23577543e-02	1.32957698e-04
7.20000000e-01	1.24185570e-02	1.33410196e-04
7.21000000e-01	1.23144355e-02	1.32382759e-04
7.22000000e-01	1.22443215e-02	1.31572423e-04
7.23000000e-01	1.23445469e-02	1.32406667e-04
7.24000000e-01	1.23893522e-02	1.32990777e-04
7.25000000e-01	1.23087638e-02	1.31926875e-04
7.26000000e-01	1.22307406e-02	1.31725621e-04
7.27000000e-01	1.23811287e-02	1.32853883e-04
7.28000000e-01	1.22733658e-02	1.32113333e-04
7.29000000e-01	1.22218910e-02	1.31263571e-04
7.30000000e-01	1.23624722e-02	1.32573460e-04
7.31000000e-01	1.23091016e-02	1.32339613e-04
7.32000000e-01	1.21669784e-02	1.30951408e-04
7.33000000e-01	1.23726196e-02	1.33079182e-04
7.34000000e-01	1.22248880e-02	1.30895026e-04
7.35000000e-01	1.23995287e-02	1.32519905e-04
7.36000000e-01	1.21997618e-02	1.30299036e-04
7.37000000e-01	1.22419299e-02	1.30335241e-04
7.38000000e-01	1.22286260e-02	1.30303174e-04
7.39000000e-01	1.21130903e-02	1.29303362e-04
7.40000000e-01	1.22953990e-02	1.30732245e-04
7.41000000e-01	1.22060042e-02	1.29220942e-04
7.42000000e-01	1.21835333e-02	1.29095284e-04
7.43000000e-01	1.21777244e-02	1.29113959e-04
7.44000000e-01	1.21932953e-02	1.29047500e-04
7.45000000e-01	1.21264145e-02	1.29126216e-04
7.46000000e-01	1.21008315e-02	1.28261507e-04
7.47000000e-01	1.21848350e-02	1.29863316e-04
7.48000000e-01	1.21853359e-02	1.29137932e-04
7.49000000e-01	1.21467201e-02	1.29057073e-04
7.50000000e-01	1.20356776e-02	1.28057810e-04
7.51000000e-01	1.21533836e-02	1.28956849e-04
7.52000000e-01	1.20177916e-02	1.27384991e-04
7.53000000e-01	1.20696267e-02	1.28500554e-04
7.54000000e-01	1.21137341e-02	1.28742639e-04
7.55000000e-01	1.20815374e-02	1.28495920e-04
7.56000000e-01	1.19602405e-02	1.27548249e-04
7.57000000e-01	1.19873689e-02	1.27829095e-04
7.58000000e-01	1.19866815e-02	1.27732077e-04
7.59000000e-01	1.20890541e-02	1.28267365e-04
7.60000000e-01	1.21593630e-02	1.28978029e-04
7.61000000e-01	1.20288346e-02	1.27338309e-04
7.62000000e-01	1.20242391e-02	1.27589048e-04
7.63000000e-01	1.19607528e-02	1.26746104e-04
7.64000000e-01	1.18581996e-02	1.25472936e-04
7.65000000e-01	1.19166524e-02	1.25951120e-04
7.66000000e-01	1.18739457e-02	1.25866070e-04
7.67000000e-01	1.18083973e-02	1.25163389e-04
7.68000000e-01	1.17475244e-02	1.23958202e-04
7.69000000e-01	1.18689322e-02	1.25165596e-04
7.70000000e-01	1.18233736e-02	1.24800833e-04
7.71000000e-01	1.18252585e-02	1.24482283e-04
7.72000000e-01	1.19969557e-02	1.30261836e-04
7.73000000e-01	1.17838881e-02	1.32773200e-04
7.74000000e-01	1.19370067e-02	1.36506611e-04
7.75000000e-01	1.19348988e-02	1.38817171e-04
7.76000000e-01	1.18223734e-02	1.39904823e-04
7.77000000e-01	1.18499379e-02	1.42875820e-04
7.78000000e-01	1.18606372e-02	1.44206754e-04
7.79000000e-01	1.17770497e-02	1.44938482e-04
7.80000000e-01	1.19139705e-02	1.48644904e-04
7.81000000e-01	1.18766778e-02	1.49733088e-04
7.82000000e-01	1.17890960e-02	1.50300610e-04
7.83000000e-01	1.15347453e-02	1.49023835e-04
7.84000000e-01	1.17295039e-02	1.52731676e-04
7.85000000e-01	1.17699791e-02	1.55077155e-04
7.86000000e-01	1.16492763e-02	1.55317887e-04
7.87000000e-01	1.18541588e-02	1.58451139e-04
7.88000000e-01	1.16568805e-02	1.58754789e-04
7.89000000e-01	1.15630693e-02	1.58881621e-04
7.90000000e-01	1.16371349e-02	1.61487652e-04
7.91000000e-01	1.16826531e-02	1.64116881e-04
7.92000000e-01	1.15282334e-02	1.62525649e-04
7.93000000e-01	1.16139223e-02	1.65825298e-04
7.94000000e-01	1.16241451e-02	1.67213411e-04
7.95000000e-01	1.15106126e-02	1.67874272e-04
7.96000000e-01	1.15667007e-02	1.70273961e-04
7.97000000e-01	1.15447271e-02	1.71785795e-04
7.98000000e-01	1.15106228e-02	1.73409610e-04
7.99000000e-01	1.14478628e-02	1.73887769e-04
8.00000000e-01	1.16409111e-02	1.78330089e-04
8.01000000e-01	1.14586467e-02	1.77800028e-04
8.02000000e-01	1.15529724e-02	1.80811266e-04
8.03000000e-01	1.13119631e-02	1.78787942e-04
8.04000000e-01	1.15830522e-02	1.84967483e-04
8.05000000e-01	1.14834410e-02	1.85510883e-04
8.06000000e-01	1.12848895e-02	1.85551987e-04
8.07000000e-01	1.14691653e-02	1.88768182e-04
8.08000000e-01	1.15254544e-02	1.92775192e-04
8.09000000e-01	1.14835965e-02	1.94303514e-04
8.10000000e-01	1.15724023e-02	1.97717664e-04
8.11000000e-01	1.12996767e-02	1.96270754e-04
8.12000000e-01	1.13771950e-02	1.98612602e-04
8.13000000e-01	1.15360020e-02	2.04531941e-04
8.14000000e-01	1.14519053e-02	2.03749032e-04
8.15000000e-01	1.12927247e-02	2.04320030e-04
8.16000000e-01	1.14120285e-02	2.07997953e-04
8.17000000e-01	1.13605074e-02	2.12032594e-04
8.18000000e-01	1.13948779e-02	2.13776180e-04
8.19000000e-01	1.12740910e-02	2.12940781e-04
8.20000000e-01	1.12296438e-02	2.16435635e-04
8.21000000e-01	1.14916873e-02	2.24244265e-04
8.22000000e-01	1.11345364e-02	2.20285150e-04
8.23000000e-01	1.11672145e-02	2.25477658e-04
8.24000000e-01	1.10766741e-02	2.27850049e-04
8.25000000e-01	1.11728295e-02	2.30053811e-04
8.26000000e-01	1.11489070e-02	2.33695345e-04
8.27000000e-01	1.13850968e-02	2.40675746e-04
8.28000000e-01	1.14284579e-02	2.44210623e-04
8.29000000e-01	1.12552191e-02	2.46733937e-04
8.30000000e-01	1.08625053e-02	2.41567794e-04
8.31000000e-01	1.13017787e-02	2.55080661e-04
8.32000000e-01	1.11034029e-02	2.53439268e-04
8.33000000e-01	1.12854171e-02	2.62890232e-04
8.34000000e-01	1.11483315e-02	2.65316454e-04
8.35000000e-01	1.11736628e-02	2.71215341e-04
8.36000000e-01	1.08437921e-02	2.66693957e-04
8.37000000e-01	1.08605571e-02	2.72256155e-04
8.38000000e-01	1.12264377e-02	2.86634751e-04
8.39000000e-01	1.12539668e-02	2.93953460e-04
8.40000000e-01	1.07092339e-02	2.89122133e-04
8.41000000e-01	1.07815110e-02	2.96364562e-04
8.42000000e-01	1.07750552e-02	3.02872240e-04
8.43000000e-01	1.07529914e-02	3.07333251e-04
8.44000000e-01	1.07940626e-02	3.16283830e-04
8.45000000e-01	1.06301075e-02	3.20401750e-04
8.46000000e-01	1.08310890e-02	3.35833997e-04
8.47000000e-01	1.10780311e-02	3.50341339e-04
8.48000000e-01	1.11070982e-02	3.68028889e-04
8.49000000e-01	1.10593907e-02	3.73032210e-04
8.50000000e-01	1.09002127e-02	3.84829354e-04
8.51000000e-01	1.09793103e-02	3.97962525e-04
8.52000000e-01	1.04822575e-02	3.97170970e-04
8.53000000e-01	1.04301533e-02	4.14768991e-04
8.54000000e-01	1.02708553e-02	4.27500394e-04
8.55000000e-01	1.12199772e-02	4.70959409e-04
8.56000000e-01	1.09578902e-02	4.73874420e-04
8.57000000e-01	1.13748477e-02	5.04708316e-04
8.58000000e-01	1.09832896e-02	5.08794139e-04
8.59000000e-01	1.07797966e-02	5.10453979e-04
8.60000000e-01	1.12163485e-02	5.50135779e-04
8.61000000e-01	1.02013500e-02	5.32297038e-04
8.62000000e-01	1.04455770e-02	5.59790360e-04
8.63000000e-01	1.08095955e-02	5.91193425e-04
8.64000000e-01	1.03175666e-02	6.05842438e-04
8.65000000e-01	1.03872308e-02	6.13049772e-04
8.66000000e-01	1.05278076e-02	6.61352838e-04
8.67000000e-01	1.08003249e-02	7.32528073e-04
8.68000000e-01	1.04438005e-02	7.48065365e-04
8.69000000e-01	1.07676361e-02	8.25524873e-04
8.70000000e-01	1.08311328e-02	8.84167086e-04
8.71000000e-01	9.88629760e-03	9.05980540e-04
8.72000000e-01	9.94084428e-03	1.06100831e-03
8.73000000e-01	1.08188236e-02	1.32866705e-03
8.74000000e-01	1.19955412e-02	1.90950656e-03
8.75000000e-01	7.58425990e-03	2.71371562e-03
