% Filename : SDL5_p7_00025_00034.h5
% Date & Time : 30-Oct-2025 16:57:23
% X-ray Energy (keV) : 13.30001
% Exposure Time (s) : 0.500
% Beam Center : 1461.24000, 208.98300
% Sample to Detector Distance (SDD) (mm) : 1990.750
% Detector Pixel Size (mm) : 0.075
% Photodiode Value : 141502.000
% I0 of Sample : 0
% I0 of Standard : 1
% 
% q(A^-1)   I(q)    I(q)_SE
0.00000000e+00	1.65981189e-02	9.46883167e-03
2.50000000e-04	0.00000000e+00	0.00000000e+00
5.00000000e-04	0.00000000e+00	0.00000000e+00
7.50000000e-04	0.00000000e+00	0.00000000e+00
1.00000000e-03	0.00000000e+00	0.00000000e+00
1.25000000e-03	0.00000000e+00	0.00000000e+00
1.50000000e-03	0.00000000e+00	0.00000000e+00
1.75000000e-03	0.00000000e+00	0.00000000e+00
2.00000000e-03	0.00000000e+00	0.00000000e+00
2.25000000e-03	0.00000000e+00	0.00000000e+00
2.50000000e-03	0.00000000e+00	0.00000000e+00
2.75000000e-03	0.00000000e+00	0.00000000e+00
3.00000000e-03	0.00000000e+00	0.00000000e+00
3.25000000e-03	8.73263042e+02	5.06743608e+02
3.50000000e-03	3.64177569e+02	1.06745946e+02
3.75000000e-03	2.29982716e+02	5.87383484e+01
4.00000000e-03	1.70802482e+02	4.25762691e+01
4.25000000e-03	1.05543171e+02	2.28639964e+01
4.50000000e-03	9.67812722e+01	1.73652065e+01
4.75000000e-03	8.47324539e+01	1.30492502e+01
5.00000000e-03	6.62304838e+01	9.67878351e+00
5.25000000e-03	5.58086379e+01	8.14638143e+00
5.50000000e-03	4.64029989e+01	6.46764424e+00
5.75000000e-03	3.91499983e+01	5.32381054e+00
6.00000000e-03	3.27251335e+01	4.33645974e+00
6.25000000e-03	2.77724167e+01	3.63560293e+00
6.50000000e-03	2.38448056e+01	3.02873945e+00
6.75000000e-03	2.08092976e+01	2.58448655e+00
7.00000000e-03	1.77143680e+01	2.11943381e+00
7.25000000e-03	1.54736895e+01	1.81900220e+00
7.50000000e-03	1.32990933e+01	1.55773895e+00
7.75000000e-03	1.16635561e+01	1.33762790e+00
8.00000000e-03	1.07474911e+01	1.21996609e+00
8.25000000e-03	9.30643761e+00	1.00824996e+00
8.50000000e-03	8.27794502e+00	8.95160004e-01
8.75000000e-03	7.43719374e+00	7.82030776e-01
9.00000000e-03	6.64025660e+00	6.85739857e-01
9.25000000e-03	5.82617004e+00	5.87427152e-01
9.50000000e-03	5.25517418e+00	5.19662614e-01
9.75000000e-03	4.74975472e+00	4.69249516e-01
1.00000000e-02	4.22853962e+00	4.11740744e-01
1.02500000e-02	3.91382916e+00	3.81205838e-01
1.05000000e-02	3.54982438e+00	3.28100197e-01
1.07500000e-02	3.30181027e+00	3.05790426e-01
1.10000000e-02	2.94738768e+00	2.63328750e-01
1.12500000e-02	2.71663330e+00	2.49931105e-01
1.15000000e-02	2.50899971e+00	2.25040738e-01
1.17500000e-02	2.24345847e+00	1.96844458e-01
1.20000000e-02	2.13090564e+00	1.85560026e-01
1.22500000e-02	1.97601247e+00	1.68499184e-01
1.25000000e-02	1.87090450e+00	1.58821521e-01
1.27500000e-02	1.70528955e+00	1.42812413e-01
1.30000000e-02	1.57684881e+00	1.28329251e-01
1.32500000e-02	1.43867176e+00	1.13884371e-01
1.35000000e-02	1.35847549e+00	1.08513953e-01
1.37500000e-02	1.26216242e+00	1.00116660e-01
1.40000000e-02	1.16448783e+00	9.09840909e-02
1.42500000e-02	1.09189810e+00	8.33177974e-02
1.45000000e-02	1.03352224e+00	7.75021529e-02
1.47500000e-02	9.59682255e-01	7.16012432e-02
1.50000000e-02	9.02281390e-01	6.69874606e-02
1.52500000e-02	8.63107296e-01	6.38824897e-02
1.55000000e-02	8.11166301e-01	5.82674902e-02
1.57500000e-02	7.63702260e-01	5.49442667e-02
1.60000000e-02	7.15877004e-01	5.05279128e-02
1.62500000e-02	6.90369217e-01	4.90387567e-02
1.65000000e-02	6.47922098e-01	4.52394834e-02
1.67500000e-02	6.16599710e-01	4.20349366e-02
1.70000000e-02	5.83174564e-01	4.02280718e-02
1.72500000e-02	5.56987599e-01	3.78457296e-02
1.75000000e-02	5.28358066e-01	3.56563884e-02
1.77500000e-02	4.92278038e-01	3.25983270e-02
1.80000000e-02	4.76143820e-01	3.14000204e-02
1.82500000e-02	4.54994582e-01	2.93472885e-02
1.85000000e-02	4.35194902e-01	2.87990080e-02
1.87500000e-02	4.17732943e-01	2.70153164e-02
1.90000000e-02	4.01634784e-01	2.57256916e-02
1.92500000e-02	3.83108033e-01	2.40900419e-02
1.95000000e-02	3.59834826e-01	2.23943837e-02
1.97500000e-02	3.48946164e-01	2.18362094e-02
2.00000000e-02	3.31739020e-01	2.04590661e-02
2.02500000e-02	3.20225499e-01	1.95725973e-02
2.05000000e-02	3.07566284e-01	1.83834432e-02
2.07500000e-02	2.92109665e-01	1.77258042e-02
2.10000000e-02	2.91424531e-01	1.75186071e-02
2.12500000e-02	2.84767621e-01	1.68940908e-02
2.15000000e-02	2.74906183e-01	1.62324088e-02
2.17500000e-02	2.68032064e-01	1.59722142e-02
2.20000000e-02	2.58947358e-01	1.52468470e-02
2.22500000e-02	2.46706642e-01	1.44627856e-02
2.25000000e-02	2.43354855e-01	1.43816220e-02
2.27500000e-02	2.31356604e-01	1.34499324e-02
2.30000000e-02	2.29776599e-01	1.34142776e-02
2.32500000e-02	2.21552053e-01	1.28317928e-02
2.35000000e-02	2.15939509e-01	1.25814394e-02
2.37500000e-02	2.08626973e-01	1.21031790e-02
2.40000000e-02	2.00965834e-01	1.16994224e-02
2.42500000e-02	1.95476155e-01	1.10777069e-02
2.45000000e-02	1.89021739e-01	1.07482904e-02
2.47500000e-02	1.85943172e-01	1.04959135e-02
2.50000000e-02	1.82966826e-01	1.03872599e-02
2.52500000e-02	1.75865327e-01	1.01661086e-02
2.55000000e-02	1.69598926e-01	9.40045536e-03
2.57500000e-02	1.67498824e-01	9.29233073e-03
2.60000000e-02	1.61457895e-01	8.93064683e-03
2.62500000e-02	1.56976415e-01	8.76130405e-03
2.65000000e-02	1.53129751e-01	8.45135718e-03
2.67500000e-02	1.50029797e-01	8.15173382e-03
2.70000000e-02	1.44030281e-01	7.92392846e-03
2.72500000e-02	1.41632530e-01	7.62430704e-03
2.75000000e-02	1.36557939e-01	7.57415760e-03
2.77500000e-02	1.34666927e-01	7.35324116e-03
2.80000000e-02	1.31238841e-01	7.01178595e-03
2.82500000e-02	1.28615170e-01	6.81000209e-03
2.85000000e-02	1.25701074e-01	6.63963854e-03
2.87500000e-02	1.23574868e-01	6.56597822e-03
2.90000000e-02	1.20849363e-01	6.40834962e-03
2.92500000e-02	1.17650887e-01	6.02078184e-03
2.95000000e-02	1.17680175e-01	6.14672440e-03
2.97500000e-02	1.13529852e-01	5.80412423e-03
3.00000000e-02	1.11741196e-01	5.75966573e-03
3.02500000e-02	1.10169960e-01	5.71526170e-03
3.05000000e-02	1.06503550e-01	5.30900229e-03
3.07500000e-02	1.04279497e-01	5.27918837e-03
3.10000000e-02	1.02069633e-01	5.14823081e-03
3.12500000e-02	1.00720088e-01	5.14898692e-03
3.15000000e-02	9.80065698e-02	4.90769139e-03
3.17500000e-02	9.46580084e-02	4.67961378e-03
3.20000000e-02	9.42273836e-02	4.66193330e-03
3.22500000e-02	9.22191559e-02	4.59912823e-03
3.25000000e-02	8.98154938e-02	4.48162535e-03
3.27500000e-02	8.61691346e-02	4.22195947e-03
3.30000000e-02	8.59594138e-02	4.17081007e-03
3.32500000e-02	8.67825026e-02	4.21808209e-03
3.35000000e-02	8.47982351e-02	4.15887828e-03
3.37500000e-02	8.16823161e-02	3.96302238e-03
3.40000000e-02	8.16512262e-02	3.98481129e-03
3.42500000e-02	7.91516700e-02	3.82372691e-03
3.45000000e-02	7.91858515e-02	3.84412231e-03
3.47500000e-02	7.68339638e-02	3.65798626e-03
3.50000000e-02	7.49177306e-02	3.56527254e-03
3.52500000e-02	7.46891337e-02	3.55116007e-03
3.55000000e-02	7.18790901e-02	3.33898663e-03
3.57500000e-02	7.27345802e-02	3.45314208e-03
3.60000000e-02	7.03198600e-02	3.30463670e-03
3.62500000e-02	6.94082473e-02	3.23975695e-03
3.65000000e-02	6.89325664e-02	3.22754584e-03
3.67500000e-02	6.94893486e-02	3.22718882e-03
3.70000000e-02	6.75342527e-02	3.13312121e-03
3.72500000e-02	6.46579051e-02	2.99257722e-03
3.75000000e-02	6.40370944e-02	2.98435696e-03
3.77500000e-02	6.41115751e-02	2.96433996e-03
3.80000000e-02	6.23492562e-02	2.87821028e-03
3.82500000e-02	6.06799548e-02	2.79304788e-03
3.85000000e-02	6.15748516e-02	2.82019293e-03
3.87500000e-02	5.91020013e-02	2.65647129e-03
3.90000000e-02	5.90507676e-02	2.67811584e-03
3.92500000e-02	5.83082766e-02	2.61343982e-03
3.95000000e-02	5.84017396e-02	2.61188006e-03
3.97500000e-02	5.78116697e-02	2.60686278e-03
4.00000000e-02	5.64427648e-02	2.51144689e-03
4.02500000e-02	5.64324928e-02	2.49322997e-03
4.05000000e-02	5.61769850e-02	2.49716864e-03
4.07500000e-02	5.50281384e-02	2.39614625e-03
4.10000000e-02	5.38626210e-02	2.39177830e-03
4.12500000e-02	5.33501895e-02	2.34271929e-03
4.15000000e-02	5.26069912e-02	2.28129500e-03
4.17500000e-02	5.29710964e-02	2.29238967e-03
4.20000000e-02	5.18487043e-02	2.24655702e-03
4.22500000e-02	5.15588583e-02	2.22093102e-03
4.25000000e-02	4.99266629e-02	2.15766381e-03
4.27500000e-02	4.93775534e-02	2.12949119e-03
4.30000000e-02	4.95385874e-02	2.12824869e-03
4.32500000e-02	4.92228583e-02	2.10887493e-03
4.35000000e-02	4.82515372e-02	2.08759423e-03
4.37500000e-02	4.70235880e-02	1.98891309e-03
4.40000000e-02	4.78570652e-02	2.02128195e-03
4.42500000e-02	4.74367800e-02	2.00269319e-03
4.45000000e-02	4.66553963e-02	1.96007858e-03
4.47500000e-02	4.65260531e-02	1.95534258e-03
4.50000000e-02	4.55665135e-02	1.92097876e-03
4.52500000e-02	4.54860516e-02	1.89007086e-03
4.55000000e-02	4.52597912e-02	1.90085309e-03
4.57500000e-02	4.40285149e-02	1.83421029e-03
4.60000000e-02	4.44125353e-02	1.85127552e-03
4.62500000e-02	4.32981258e-02	1.80126500e-03
4.65000000e-02	4.37014711e-02	1.81392903e-03
4.67500000e-02	4.38837623e-02	1.80325674e-03
4.70000000e-02	4.26055820e-02	1.74803008e-03
4.72500000e-02	4.25830173e-02	1.75077847e-03
4.75000000e-02	4.14976324e-02	1.70864587e-03
4.77500000e-02	4.15020238e-02	1.68080874e-03
4.80000000e-02	4.11718755e-02	1.67447141e-03
4.82500000e-02	4.11285670e-02	1.67188143e-03
4.85000000e-02	4.14391039e-02	1.69262288e-03
4.87500000e-02	4.11087410e-02	1.66533688e-03
4.90000000e-02	3.95948915e-02	1.60003569e-03
4.92500000e-02	3.89440125e-02	1.57322673e-03
4.95000000e-02	3.76458677e-02	1.50282053e-03
4.97500000e-02	3.92701258e-02	1.58113595e-03
5.00000000e-02	3.92247994e-02	1.57535352e-03
5.02500000e-02	3.91290848e-02	1.54594458e-03
5.05000000e-02	3.96444062e-02	1.56588069e-03
5.07500000e-02	3.83260471e-02	1.51686728e-03
5.10000000e-02	3.87507164e-02	1.53311082e-03
5.12500000e-02	3.73751124e-02	1.47749084e-03
5.15000000e-02	3.79203838e-02	1.48570603e-03
5.17500000e-02	3.65565929e-02	1.44244798e-03
5.20000000e-02	3.73369974e-02	1.46511144e-03
5.22500000e-02	3.72293475e-02	1.47376637e-03
5.25000000e-02	3.61866062e-02	1.39978358e-03
5.27500000e-02	3.63812978e-02	1.42087269e-03
5.30000000e-02	3.65228163e-02	1.43917291e-03
5.32500000e-02	3.53307106e-02	1.37697217e-03
5.35000000e-02	3.53991192e-02	1.37013873e-03
5.37500000e-02	3.53304879e-02	1.37165896e-03
5.40000000e-02	3.58539808e-02	1.38820715e-03
5.42500000e-02	3.48869922e-02	1.33890764e-03
5.45000000e-02	3.46875032e-02	1.34106930e-03
5.47500000e-02	3.44978456e-02	1.32773785e-03
5.50000000e-02	3.29986633e-02	1.26346377e-03
5.52500000e-02	3.29770297e-02	1.26437901e-03
5.55000000e-02	3.34629986e-02	1.26788178e-03
5.57500000e-02	3.39593147e-02	1.29022444e-03
5.60000000e-02	3.36063394e-02	1.28100480e-03
5.62500000e-02	3.29104112e-02	1.26357396e-03
5.65000000e-02	3.35028159e-02	1.27052445e-03
5.67500000e-02	3.27323404e-02	1.24078500e-03
5.70000000e-02	3.29522494e-02	1.23852925e-03
5.72500000e-02	3.28933175e-02	1.23200703e-03
5.75000000e-02	3.22655746e-02	1.22419987e-03
5.77500000e-02	3.22994686e-02	1.21112461e-03
5.80000000e-02	3.23733218e-02	1.20880121e-03
5.82500000e-02	3.26068851e-02	1.22371984e-03
5.85000000e-02	3.32394854e-02	1.24342336e-03
5.87500000e-02	3.15377119e-02	1.16676627e-03
5.90000000e-02	3.16680407e-02	1.17698311e-03
5.92500000e-02	3.12645573e-02	1.15388553e-03
5.95000000e-02	3.18073266e-02	1.17878172e-03
5.97500000e-02	3.10818852e-02	1.15750350e-03
6.00000000e-02	3.10545846e-02	1.14551185e-03
6.02500000e-02	3.11104347e-02	1.14734248e-03
6.05000000e-02	3.07346969e-02	1.12637537e-03
6.07500000e-02	3.04825056e-02	1.11914783e-03
6.10000000e-02	3.07804938e-02	1.12771263e-03
6.12500000e-02	3.06880116e-02	1.12263838e-03
6.15000000e-02	3.06199311e-02	1.11942912e-03
6.17500000e-02	3.06004355e-02	1.11233577e-03
6.20000000e-02	3.02040454e-02	1.09691975e-03
6.22500000e-02	2.93748667e-02	1.07764924e-03
6.25000000e-02	3.02995584e-02	1.10074260e-03
6.27500000e-02	2.98091493e-02	1.07285085e-03
6.30000000e-02	2.93125869e-02	1.06227511e-03
6.32500000e-02	2.94620626e-02	1.06235666e-03
6.35000000e-02	2.95854799e-02	1.06960843e-03
6.37500000e-02	2.92806547e-02	1.05808670e-03
6.40000000e-02	2.85328778e-02	1.02587598e-03
6.42500000e-02	2.87805614e-02	1.03201302e-03
6.45000000e-02	2.92939067e-02	1.04167459e-03
6.47500000e-02	2.92902378e-02	1.04375773e-03
6.50000000e-02	2.89056583e-02	1.03237353e-03
6.52500000e-02	2.92012138e-02	1.03627391e-03
6.55000000e-02	2.90512832e-02	1.03349734e-03
6.57500000e-02	2.82067246e-02	1.00132960e-03
6.60000000e-02	2.86363453e-02	1.00646082e-03
6.62500000e-02	2.82463774e-02	9.98315758e-04
6.65000000e-02	2.73152856e-02	9.67807505e-04
6.67500000e-02	2.78777832e-02	9.80344765e-04
6.70000000e-02	2.77651245e-02	9.78956256e-04
6.72500000e-02	2.77526763e-02	9.82629251e-04
6.75000000e-02	2.78248722e-02	9.74804685e-04
6.77500000e-02	2.79159956e-02	9.72372989e-04
6.80000000e-02	2.68920999e-02	9.50764249e-04
6.82500000e-02	2.78620641e-02	9.77435488e-04
6.85000000e-02	2.69527054e-02	9.53653655e-04
6.87500000e-02	2.64070845e-02	9.15413846e-04
6.90000000e-02	2.68172538e-02	9.36869103e-04
6.92500000e-02	2.77118607e-02	9.60595481e-04
6.95000000e-02	2.78614031e-02	9.65292116e-04
6.97500000e-02	2.76138543e-02	9.58939404e-04
7.00000000e-02	2.73868842e-02	9.50677518e-04
7.02500000e-02	2.64477394e-02	9.09143603e-04
7.05000000e-02	2.59910571e-02	8.93395645e-04
7.07500000e-02	2.60917023e-02	9.05607780e-04
7.10000000e-02	2.63684267e-02	9.07061659e-04
7.12500000e-02	2.68085745e-02	9.16348813e-04
7.15000000e-02	2.66995850e-02	9.12236772e-04
7.17500000e-02	2.62799704e-02	8.97569978e-04
7.20000000e-02	2.61313677e-02	8.94748782e-04
7.22500000e-02	2.65930147e-02	9.08002067e-04
7.25000000e-02	2.58909218e-02	8.81509540e-04
7.27500000e-02	2.59651389e-02	8.85723802e-04
7.30000000e-02	2.61553851e-02	8.91932784e-04
7.32500000e-02	2.58948239e-02	8.75366021e-04
7.35000000e-02	2.58429721e-02	8.83190833e-04
7.37500000e-02	2.55886455e-02	8.64023197e-04
7.40000000e-02	2.58949185e-02	8.82594459e-04
7.42500000e-02	2.61624185e-02	8.84339566e-04
7.45000000e-02	2.54058076e-02	8.61385611e-04
7.47500000e-02	2.57022815e-02	8.56672724e-04
7.50000000e-02	2.51395368e-02	8.41212383e-04
7.52500000e-02	2.56140731e-02	8.60802779e-04
7.55000000e-02	2.57947097e-02	8.59035720e-04
7.57500000e-02	2.50190815e-02	8.41387057e-04
7.60000000e-02	2.55906315e-02	8.57414205e-04
7.62500000e-02	2.50143569e-02	8.43057896e-04
7.65000000e-02	2.49730017e-02	8.33724133e-04
7.67500000e-02	2.50269636e-02	8.27098570e-04
7.70000000e-02	2.53802891e-02	8.40466935e-04
7.72500000e-02	2.53020300e-02	8.54784151e-04
7.75000000e-02	2.54901004e-02	8.70544036e-04
7.77500000e-02	2.50976038e-02	8.57096481e-04
7.80000000e-02	2.55198424e-02	8.79698121e-04
7.82500000e-02	2.60496391e-02	9.04109771e-04
7.85000000e-02	2.57428991e-02	8.98530262e-04
7.87500000e-02	2.54137640e-02	8.76925603e-04
7.90000000e-02	2.51863541e-02	8.81849138e-04
7.92500000e-02	2.57959322e-02	9.00035449e-04
7.95000000e-02	2.56900821e-02	8.97968785e-04
7.97500000e-02	2.52951006e-02	8.91782125e-04
8.00000000e-02	2.57043562e-02	9.05434167e-04
8.02500000e-02	2.61379822e-02	9.22563477e-04
8.05000000e-02	2.44971653e-02	8.68481766e-04
8.07500000e-02	2.57681924e-02	9.17964322e-04
8.10000000e-02	2.47603914e-02	8.72989817e-04
8.12500000e-02	2.54906766e-02	9.09245067e-04
8.15000000e-02	2.50925614e-02	8.88272273e-04
8.17500000e-02	2.48111656e-02	8.87666420e-04
8.20000000e-02	2.49587937e-02	8.93423604e-04
8.22500000e-02	2.43933838e-02	8.75252040e-04
8.25000000e-02	2.50865824e-02	8.99633021e-04
8.27500000e-02	2.51592189e-02	9.02148841e-04
8.30000000e-02	2.47620874e-02	8.90597980e-04
8.32500000e-02	2.49224977e-02	9.04583431e-04
8.35000000e-02	2.49555167e-02	9.05823504e-04
8.37500000e-02	2.49697795e-02	8.98683006e-04
8.40000000e-02	2.51102308e-02	9.08280851e-04
8.42500000e-02	2.48687121e-02	9.04005318e-04
8.45000000e-02	2.44064642e-02	8.93960738e-04
8.47500000e-02	2.42357733e-02	8.85951066e-04
8.50000000e-02	2.42444407e-02	8.79549130e-04
8.52500000e-02	2.42369296e-02	8.87629226e-04
8.55000000e-02	2.46791777e-02	9.02655841e-04
8.57500000e-02	2.45119744e-02	9.03509767e-04
8.60000000e-02	2.42692810e-02	8.93614349e-04
8.62500000e-02	2.44601111e-02	8.96389555e-04
8.65000000e-02	2.41432802e-02	8.72473241e-04
8.67500000e-02	2.41137593e-02	8.72900461e-04
8.70000000e-02	2.46533554e-02	8.84307299e-04
8.72500000e-02	2.44433028e-02	8.56394188e-04
8.75000000e-02	2.37438989e-02	8.26796774e-04
8.77500000e-02	2.34632516e-02	8.19652714e-04
8.80000000e-02	2.44422273e-02	8.44735422e-04
8.82500000e-02	2.37066701e-02	8.24526480e-04
8.85000000e-02	2.41018162e-02	8.30350837e-04
8.87500000e-02	2.40467125e-02	8.19527605e-04
8.90000000e-02	2.37058137e-02	8.04930038e-04
8.92500000e-02	2.39417747e-02	8.15514436e-04
8.95000000e-02	2.38208906e-02	8.05188455e-04
8.97500000e-02	2.40487262e-02	8.09327895e-04
9.00000000e-02	2.35778792e-02	7.86200581e-04
9.02500000e-02	2.37236935e-02	7.96300042e-04
9.05000000e-02	2.31729697e-02	7.76639917e-04
9.07500000e-02	2.35864575e-02	7.86922857e-04
9.10000000e-02	2.34804695e-02	7.74683866e-04
9.12500000e-02	2.31061981e-02	7.71201717e-04
9.15000000e-02	2.33301744e-02	7.74835902e-04
9.17500000e-02	2.29046962e-02	7.60633307e-04
9.20000000e-02	2.34951790e-02	7.73199937e-04
9.22500000e-02	2.31393545e-02	7.58934484e-04
9.25000000e-02	2.31211480e-02	7.56580974e-04
9.27500000e-02	2.33021850e-02	7.61885409e-04
9.30000000e-02	2.32437578e-02	7.57215456e-04
9.32500000e-02	2.32554794e-02	7.63633664e-04
9.35000000e-02	2.30025399e-02	7.47417123e-04
9.37500000e-02	2.29652386e-02	7.47857943e-04
9.40000000e-02	2.26348190e-02	7.38415327e-04
9.42500000e-02	2.28338232e-02	7.40498745e-04
9.45000000e-02	2.27372465e-02	7.32712248e-04
9.47500000e-02	2.29292327e-02	7.34753103e-04
9.50000000e-02	2.33170959e-02	7.48140456e-04
9.52500000e-02	2.28272302e-02	7.36204121e-04
9.55000000e-02	2.29499361e-02	7.32932280e-04
9.57500000e-02	2.29098235e-02	7.32332493e-04
9.60000000e-02	2.28682578e-02	7.29474350e-04
9.62500000e-02	2.33963432e-02	7.49655775e-04
9.65000000e-02	2.27684687e-02	7.25825174e-04
9.67500000e-02	2.32181927e-02	7.41131529e-04
9.70000000e-02	2.26945111e-02	7.23925474e-04
9.72500000e-02	2.27136214e-02	7.22539844e-04
9.75000000e-02	2.28231218e-02	7.22103893e-04
9.77500000e-02	2.22801281e-02	6.95199795e-04
9.80000000e-02	2.27802866e-02	7.23519317e-04
9.82500000e-02	2.16167089e-02	6.81524562e-04
9.85000000e-02	2.27589919e-02	7.17735942e-04
9.87500000e-02	2.23147082e-02	7.03783346e-04
9.90000000e-02	2.22769457e-02	6.99410788e-04
9.92500000e-02	2.27085748e-02	7.12072164e-04
9.95000000e-02	2.25106903e-02	7.13610665e-04
9.97500000e-02	2.22622533e-02	6.93620729e-04
1.00000000e-01	2.24013902e-02	5.68590724e-04
1.00500000e-01	2.21127842e-02	4.89478607e-04
1.01000000e-01	2.22993284e-02	4.90194857e-04
1.01500000e-01	2.22943896e-02	4.86704342e-04
1.02000000e-01	2.21771203e-02	4.82454645e-04
1.02500000e-01	2.17721141e-02	4.71035269e-04
1.03000000e-01	2.20179275e-02	4.79771510e-04
1.03500000e-01	2.19936089e-02	4.79460832e-04
1.04000000e-01	2.23523909e-02	4.82617794e-04
1.04500000e-01	2.22171151e-02	4.78743701e-04
1.05000000e-01	2.18995172e-02	4.67567970e-04
1.05500000e-01	2.21453971e-02	4.73252143e-04
1.06000000e-01	2.20361776e-02	4.72812517e-04
1.06500000e-01	2.17415122e-02	4.64362926e-04
1.07000000e-01	2.16610936e-02	4.68902472e-04
1.07500000e-01	2.16584365e-02	4.75287884e-04
1.08000000e-01	2.15650350e-02	4.77576991e-04
1.08500000e-01	2.14316510e-02	4.80463169e-04
1.09000000e-01	2.15075808e-02	4.82265140e-04
1.09500000e-01	2.11477672e-02	4.77858225e-04
1.10000000e-01	2.11951911e-02	4.74701111e-04
1.10500000e-01	2.15524117e-02	4.71093227e-04
1.11000000e-01	2.12844034e-02	4.59664544e-04
1.11500000e-01	2.18347235e-02	4.66855471e-04
1.12000000e-01	2.11639225e-02	4.48093778e-04
1.12500000e-01	2.18504893e-02	4.58990981e-04
1.13000000e-01	2.14231440e-02	4.49921159e-04
1.13500000e-01	2.15148399e-02	4.51159893e-04
1.14000000e-01	2.16074607e-02	4.50670373e-04
1.14500000e-01	2.16436599e-02	4.51145133e-04
1.15000000e-01	2.16101733e-02	4.46372225e-04
1.15500000e-01	2.17233704e-02	4.49440535e-04
1.16000000e-01	2.15506264e-02	4.43774690e-04
1.16500000e-01	2.17253958e-02	4.46744494e-04
1.17000000e-01	2.16829023e-02	4.45270051e-04
1.17500000e-01	2.15593150e-02	4.42147080e-04
1.18000000e-01	2.15661441e-02	4.41701621e-04
1.18500000e-01	2.11921446e-02	4.29816711e-04
1.19000000e-01	2.13395567e-02	4.35539240e-04
1.19500000e-01	2.14088361e-02	4.33368446e-04
1.20000000e-01	2.13814907e-02	4.31795841e-04
1.20500000e-01	2.15107719e-02	4.33247170e-04
1.21000000e-01	2.12788504e-02	4.28860211e-04
1.21500000e-01	2.10819785e-02	4.24952554e-04
1.22000000e-01	2.13697141e-02	4.28794677e-04
1.22500000e-01	2.10727654e-02	4.20313407e-04
1.23000000e-01	2.11503150e-02	4.22677476e-04
1.23500000e-01	2.11800989e-02	4.22737987e-04
1.24000000e-01	2.11537973e-02	4.23651226e-04
1.24500000e-01	2.11469871e-02	4.19983575e-04
1.25000000e-01	2.14452608e-02	4.23827760e-04
1.25500000e-01	2.11378497e-02	4.18338660e-04
1.26000000e-01	2.15078175e-02	4.23801920e-04
1.26500000e-01	2.10747564e-02	4.15069563e-04
1.27000000e-01	2.13143292e-02	4.17001108e-04
1.27500000e-01	2.12404889e-02	4.17864302e-04
1.28000000e-01	2.11806096e-02	4.15341792e-04
1.28500000e-01	2.11143101e-02	4.12715148e-04
1.29000000e-01	2.11550996e-02	4.13612385e-04
1.29500000e-01	2.11529811e-02	4.11388215e-04
1.30000000e-01	2.09046526e-02	4.06336144e-04
1.30500000e-01	2.08309525e-02	4.02927253e-04
1.31000000e-01	2.08987364e-02	4.03607623e-04
1.31500000e-01	2.07070216e-02	4.00230819e-04
1.32000000e-01	2.12161023e-02	4.10340375e-04
1.32500000e-01	2.13303062e-02	4.08710832e-04
1.33000000e-01	2.11652955e-02	4.06029919e-04
1.33500000e-01	2.09712618e-02	3.99512090e-04
1.34000000e-01	2.08587575e-02	3.98977229e-04
1.34500000e-01	2.07965764e-02	3.95448682e-04
1.35000000e-01	2.11035763e-02	4.00186257e-04
1.35500000e-01	2.11914693e-02	4.01963912e-04
1.36000000e-01	2.09103609e-02	3.92726910e-04
1.36500000e-01	2.07926298e-02	3.94282797e-04
1.37000000e-01	2.10087602e-02	3.93340738e-04
1.37500000e-01	2.09770067e-02	3.94705418e-04
1.38000000e-01	2.11030086e-02	3.95139870e-04
1.38500000e-01	2.09981371e-02	3.93629683e-04
1.39000000e-01	2.07257047e-02	3.91741974e-04
1.39500000e-01	2.07311878e-02	3.86727171e-04
1.40000000e-01	2.07034844e-02	3.87625314e-04
1.40500000e-01	2.02969349e-02	3.78247430e-04
1.41000000e-01	2.05925629e-02	3.86195346e-04
1.41500000e-01	2.06124899e-02	3.83589750e-04
1.42000000e-01	2.02964718e-02	3.76911697e-04
1.42500000e-01	2.04895602e-02	3.80966391e-04
1.43000000e-01	2.03676182e-02	3.80300770e-04
1.43500000e-01	2.06328035e-02	3.82012703e-04
1.44000000e-01	2.05058814e-02	3.79372743e-04
1.44500000e-01	2.02592091e-02	3.73490884e-04
1.45000000e-01	2.04255128e-02	3.76756619e-04
1.45500000e-01	2.05398533e-02	3.77975726e-04
1.46000000e-01	2.04299139e-02	3.73709683e-04
1.46500000e-01	2.02347483e-02	3.72761597e-04
1.47000000e-01	2.02079846e-02	3.69449679e-04
1.47500000e-01	2.02425980e-02	3.69117822e-04
1.48000000e-01	2.05362295e-02	3.73521265e-04
1.48500000e-01	2.02039274e-02	3.68545235e-04
1.49000000e-01	2.02696642e-02	3.68437985e-04
1.49500000e-01	2.02246349e-02	3.68478791e-04
1.50000000e-01	2.01628152e-02	3.65910626e-04
1.50500000e-01	2.01814471e-02	3.68012225e-04
1.51000000e-01	2.03368499e-02	3.68597741e-04
1.51500000e-01	2.01288812e-02	3.62704837e-04
1.52000000e-01	2.02253544e-02	3.61746034e-04
1.52500000e-01	2.03329111e-02	3.65685885e-04
1.53000000e-01	2.04075406e-02	3.66427987e-04
1.53500000e-01	1.98472664e-02	3.55218433e-04
1.54000000e-01	1.99650834e-02	3.57034308e-04
1.54500000e-01	2.00908959e-02	3.65059175e-04
1.55000000e-01	2.00013581e-02	3.69382182e-04
1.55500000e-01	2.01753045e-02	3.74703101e-04
1.56000000e-01	1.99476047e-02	3.72418662e-04
1.56500000e-01	1.98450505e-02	3.69614857e-04
1.57000000e-01	2.00468656e-02	3.74195778e-04
1.57500000e-01	2.00173408e-02	3.67583360e-04
1.58000000e-01	1.97504161e-02	3.56236192e-04
1.58500000e-01	1.99922008e-02	3.59441508e-04
1.59000000e-01	1.98436604e-02	3.54918599e-04
1.59500000e-01	1.99864306e-02	3.55733308e-04
1.60000000e-01	1.99954524e-02	3.56840628e-04
1.60500000e-01	1.95435420e-02	3.45552993e-04
1.61000000e-01	1.99471976e-02	3.53560343e-04
1.61500000e-01	1.99098171e-02	3.52418041e-04
1.62000000e-01	1.97450333e-02	3.48966840e-04
1.62500000e-01	1.97646046e-02	3.48792107e-04
1.63000000e-01	1.98981980e-02	3.48512929e-04
1.63500000e-01	1.99537288e-02	3.51006838e-04
1.64000000e-01	1.98341177e-02	3.46849449e-04
1.64500000e-01	2.01209731e-02	3.51071220e-04
1.65000000e-01	1.97420566e-02	3.44603130e-04
1.65500000e-01	1.96053751e-02	3.42276048e-04
1.66000000e-01	1.96159797e-02	3.42605997e-04
1.66500000e-01	1.95577240e-02	3.39676351e-04
1.67000000e-01	1.96724025e-02	3.43164958e-04
1.67500000e-01	1.96727623e-02	3.41961369e-04
1.68000000e-01	1.96042005e-02	3.39156903e-04
1.68500000e-01	1.95873751e-02	3.38293407e-04
1.69000000e-01	1.95580056e-02	3.38153034e-04
1.69500000e-01	1.97082266e-02	3.39756095e-04
1.70000000e-01	1.95929288e-02	3.36673593e-04
1.70500000e-01	1.96563189e-02	3.37761953e-04
1.71000000e-01	1.93604634e-02	3.32189816e-04
1.71500000e-01	1.99040810e-02	3.39652501e-04
1.72000000e-01	1.93165290e-02	3.30775285e-04
1.72500000e-01	1.93328735e-02	3.30626720e-04
1.73000000e-01	1.93431138e-02	3.30418507e-04
1.73500000e-01	1.94378058e-02	3.28477057e-04
1.74000000e-01	1.95751447e-02	3.33136103e-04
1.74500000e-01	1.95174927e-02	3.29425770e-04
1.75000000e-01	1.95074546e-02	3.28803718e-04
1.75500000e-01	1.95328297e-02	3.27696894e-04
1.76000000e-01	1.95781688e-02	3.27696875e-04
1.76500000e-01	1.91167576e-02	3.20945001e-04
1.77000000e-01	1.91147501e-02	3.20955347e-04
1.77500000e-01	1.94039491e-02	3.25140561e-04
1.78000000e-01	1.94577276e-02	3.27638633e-04
1.78500000e-01	1.92924995e-02	3.23326965e-04
1.79000000e-01	1.94734529e-02	3.24710735e-04
1.79500000e-01	1.94973971e-02	3.25799747e-04
1.80000000e-01	1.93067686e-02	3.22921370e-04
1.80500000e-01	1.91679074e-02	3.21216989e-04
1.81000000e-01	1.95377615e-02	3.24846691e-04
1.81500000e-01	1.91355344e-02	3.18725432e-04
1.82000000e-01	1.91555083e-02	3.19540472e-04
1.82500000e-01	1.91700921e-02	3.17087550e-04
1.83000000e-01	1.93830242e-02	3.21890695e-04
1.83500000e-01	1.92241828e-02	3.18985400e-04
1.84000000e-01	1.91287510e-02	3.17034420e-04
1.84500000e-01	1.92451676e-02	3.18312677e-04
1.85000000e-01	1.92230009e-02	3.17344253e-04
1.85500000e-01	1.92653467e-02	3.17608421e-04
1.86000000e-01	1.91688659e-02	3.15813958e-04
1.86500000e-01	1.92405130e-02	3.15207723e-04
1.87000000e-01	1.93575577e-02	3.16399661e-04
1.87500000e-01	1.91034790e-02	3.11905949e-04
1.88000000e-01	1.92340977e-02	3.16130972e-04
1.88500000e-01	1.89779837e-02	3.09823994e-04
1.89000000e-01	1.92526516e-02	3.14285031e-04
1.89500000e-01	1.93169286e-02	3.14012154e-04
1.90000000e-01	1.89864718e-02	3.09030977e-04
1.90500000e-01	1.92323647e-02	3.13148771e-04
1.91000000e-01	1.90484270e-02	3.08670329e-04
1.91500000e-01	1.90621722e-02	3.10929864e-04
1.92000000e-01	1.88443554e-02	3.05595332e-04
1.92500000e-01	1.90130796e-02	3.07693840e-04
1.93000000e-01	1.88142074e-02	3.05277487e-04
1.93500000e-01	1.88309230e-02	3.04141709e-04
1.94000000e-01	1.91324681e-02	3.09621071e-04
1.94500000e-01	1.91238045e-02	3.07833350e-04
1.95000000e-01	1.87273046e-02	3.01340726e-04
1.95500000e-01	1.88869619e-02	3.03653031e-04
1.96000000e-01	1.90752519e-02	3.05863843e-04
1.96500000e-01	1.88374483e-02	3.02687120e-04
1.97000000e-01	1.88499296e-02	3.02225802e-04
1.97500000e-01	1.88412522e-02	3.01292596e-04
1.98000000e-01	1.86768044e-02	2.98703059e-04
1.98500000e-01	1.86542003e-02	2.97823115e-04
1.99000000e-01	1.88719294e-02	3.01270729e-04
1.99500000e-01	1.87928744e-02	3.00074449e-04
2.00000000e-01	1.88893765e-02	3.00317774e-04
2.00500000e-01	1.90868581e-02	3.01991626e-04
2.01000000e-01	1.89798509e-02	2.99849907e-04
2.01500000e-01	1.90292026e-02	3.01447678e-04
2.02000000e-01	1.87303297e-02	2.96231657e-04
2.02500000e-01	1.85259023e-02	2.92067142e-04
2.03000000e-01	1.86743189e-02	2.94766475e-04
2.03500000e-01	1.89703046e-02	2.99593291e-04
2.04000000e-01	1.87593016e-02	2.95912112e-04
2.04500000e-01	1.86733242e-02	2.95461545e-04
2.05000000e-01	1.86620574e-02	2.92788857e-04
2.05500000e-01	1.88296970e-02	2.95379762e-04
2.06000000e-01	1.85579694e-02	2.89419577e-04
2.06500000e-01	1.88491384e-02	2.95771941e-04
2.07000000e-01	1.86231338e-02	2.90438180e-04
2.07500000e-01	1.87007270e-02	2.92132344e-04
2.08000000e-01	1.84688741e-02	2.89759606e-04
2.08500000e-01	1.84919355e-02	2.89312361e-04
2.09000000e-01	1.82778418e-02	2.86045381e-04
2.09500000e-01	1.86603235e-02	2.90051110e-04
2.10000000e-01	1.85232312e-02	2.88077146e-04
2.10500000e-01	1.87014776e-02	2.91971284e-04
2.11000000e-01	1.87830722e-02	2.91001785e-04
2.11500000e-01	1.86503199e-02	2.88990084e-04
2.12000000e-01	1.84791511e-02	2.84795498e-04
2.12500000e-01	1.85670843e-02	2.87233606e-04
2.13000000e-01	1.86578522e-02	2.87824409e-04
2.13500000e-01	1.86970785e-02	2.87784318e-04
2.14000000e-01	1.85526880e-02	2.85788265e-04
2.14500000e-01	1.86936562e-02	2.86943051e-04
2.15000000e-01	1.85839005e-02	2.86959448e-04
2.15500000e-01	1.85224748e-02	2.82759348e-04
2.16000000e-01	1.84377644e-02	2.81600599e-04
2.16500000e-01	1.82565325e-02	2.79288280e-04
2.17000000e-01	1.85188168e-02	2.86977068e-04
2.17500000e-01	1.85234485e-02	2.92311157e-04
2.18000000e-01	1.82927923e-02	2.88619525e-04
2.18500000e-01	1.84693676e-02	2.94195077e-04
2.19000000e-01	1.85297589e-02	2.96320604e-04
2.19500000e-01	1.83934162e-02	2.94751403e-04
2.20000000e-01	1.83757681e-02	2.95815246e-04
2.20500000e-01	1.85427051e-02	2.99024540e-04
2.21000000e-01	1.86024326e-02	3.00404465e-04
2.21500000e-01	1.86474990e-02	3.03052640e-04
2.22000000e-01	1.84601741e-02	2.99279374e-04
2.22500000e-01	1.86218860e-02	3.02427240e-04
2.23000000e-01	1.84627411e-02	3.02422856e-04
2.23500000e-01	1.85961105e-02	3.03276299e-04
2.24000000e-01	1.81904547e-02	2.98272023e-04
2.24500000e-01	1.82179786e-02	3.00944523e-04
2.25000000e-01	1.82187228e-02	3.02051800e-04
2.25500000e-01	1.83843617e-02	3.03051341e-04
2.26000000e-01	1.83515405e-02	3.03487217e-04
2.26500000e-01	1.83947250e-02	2.98457150e-04
2.27000000e-01	1.84036588e-02	2.97634166e-04
2.27500000e-01	1.85041712e-02	2.95762407e-04
2.28000000e-01	1.84553220e-02	2.94144134e-04
2.28500000e-01	1.85339458e-02	2.93278287e-04
2.29000000e-01	1.85613094e-02	2.92326387e-04
2.29500000e-01	1.85117230e-02	2.91260700e-04
2.30000000e-01	1.83593925e-02	2.88051560e-04
2.30500000e-01	1.84975638e-02	2.88901743e-04
2.31000000e-01	1.83366309e-02	2.85504757e-04
2.31500000e-01	1.83586774e-02	2.85435157e-04
2.32000000e-01	1.81862083e-02	2.82936137e-04
2.32500000e-01	1.84754968e-02	2.85008828e-04
2.33000000e-01	1.83205600e-02	2.83039524e-04
2.33500000e-01	1.80515744e-02	2.78623752e-04
2.34000000e-01	1.82874765e-02	2.81621795e-04
2.34500000e-01	1.82882439e-02	2.80338236e-04
2.35000000e-01	1.79195087e-02	2.74898848e-04
2.35500000e-01	1.81967933e-02	2.77802451e-04
2.36000000e-01	1.82355289e-02	2.78634064e-04
2.36500000e-01	1.80131755e-02	2.75309183e-04
2.37000000e-01	1.80383861e-02	2.74940181e-04
2.37500000e-01	1.80711112e-02	2.75320721e-04
2.38000000e-01	1.80213423e-02	2.73021558e-04
2.38500000e-01	1.81850457e-02	2.76439112e-04
2.39000000e-01	1.79493824e-02	2.72335701e-04
2.39500000e-01	1.81156625e-02	2.73399276e-04
2.40000000e-01	1.80445937e-02	2.72881837e-04
2.40500000e-01	1.78726071e-02	2.69059055e-04
2.41000000e-01	1.82605777e-02	2.74999151e-04
2.41500000e-01	1.81167095e-02	2.70596510e-04
2.42000000e-01	1.78735056e-02	2.68424586e-04
2.42500000e-01	1.80569885e-02	2.69220443e-04
2.43000000e-01	1.82064736e-02	2.71075433e-04
2.43500000e-01	1.80355414e-02	2.68342858e-04
2.44000000e-01	1.80233069e-02	2.68193751e-04
2.44500000e-01	1.78689991e-02	2.66515350e-04
2.45000000e-01	1.81718932e-02	2.69042794e-04
2.45500000e-01	1.81644120e-02	2.70637823e-04
2.46000000e-01	1.80577209e-02	2.66850789e-04
2.46500000e-01	1.79230786e-02	2.64569077e-04
2.47000000e-01	1.76769938e-02	2.62148539e-04
2.47500000e-01	1.79049045e-02	2.63322999e-04
2.48000000e-01	1.78139465e-02	2.63045911e-04
2.48500000e-01	1.78417625e-02	2.62669756e-04
2.49000000e-01	1.80532212e-02	2.65188243e-04
2.49500000e-01	1.79541186e-02	2.64505887e-04
2.50000000e-01	1.78058437e-02	2.60749321e-04
2.50500000e-01	1.77721596e-02	2.60766248e-04
2.51000000e-01	1.81119952e-02	2.64570363e-04
2.51500000e-01	1.79675061e-02	2.62460439e-04
2.52000000e-01	1.80164336e-02	2.64233133e-04
2.52500000e-01	1.78431463e-02	2.60656053e-04
2.53000000e-01	1.78288385e-02	2.59824117e-04
2.53500000e-01	1.79288178e-02	2.60939592e-04
2.54000000e-01	1.78633498e-02	2.60351879e-04
2.54500000e-01	1.78808471e-02	2.60051462e-04
2.55000000e-01	1.79288243e-02	2.60654110e-04
2.55500000e-01	1.77603305e-02	2.57650886e-04
2.56000000e-01	1.79406329e-02	2.59408505e-04
2.56500000e-01	1.77862479e-02	2.58300906e-04
2.57000000e-01	1.78265835e-02	2.57884289e-04
2.57500000e-01	1.78350847e-02	2.57684439e-04
2.58000000e-01	1.76734330e-02	2.54760367e-04
2.58500000e-01	1.77021655e-02	2.55213765e-04
2.59000000e-01	1.78285517e-02	2.55947685e-04
2.59500000e-01	1.77630965e-02	2.55196895e-04
2.60000000e-01	1.77829271e-02	2.55366160e-04
2.60500000e-01	1.76972126e-02	2.54289580e-04
2.61000000e-01	1.77675031e-02	2.55039743e-04
2.61500000e-01	1.78585699e-02	2.56727640e-04
2.62000000e-01	1.77663672e-02	2.53090284e-04
2.62500000e-01	1.77530173e-02	2.54228730e-04
2.63000000e-01	1.76363515e-02	2.53418000e-04
2.63500000e-01	1.76579154e-02	2.51259690e-04
2.64000000e-01	1.77070890e-02	2.52373983e-04
2.64500000e-01	1.74201651e-02	2.47738995e-04
2.65000000e-01	1.77513975e-02	2.51744580e-04
2.65500000e-01	1.78220548e-02	2.52962078e-04
2.66000000e-01	1.77222351e-02	2.51532250e-04
2.66500000e-01	1.75617507e-02	2.49183779e-04
2.67000000e-01	1.77410307e-02	2.51580851e-04
2.67500000e-01	1.75269055e-02	2.48327650e-04
2.68000000e-01	1.77196645e-02	2.50183518e-04
2.68500000e-01	1.76016730e-02	2.48581526e-04
2.69000000e-01	1.75989449e-02	2.47144687e-04
2.69500000e-01	1.75831943e-02	2.46815600e-04
2.70000000e-01	1.76108178e-02	2.47225164e-04
2.70500000e-01	1.76314665e-02	2.47090141e-04
2.71000000e-01	1.77257391e-02	2.48330154e-04
2.71500000e-01	1.74849049e-02	2.45597665e-04
2.72000000e-01	1.78510832e-02	2.48283129e-04
2.72500000e-01	1.76246439e-02	2.46307864e-04
2.73000000e-01	1.74746383e-02	2.44413531e-04
2.73500000e-01	1.75526612e-02	2.44928191e-04
2.74000000e-01	1.74548990e-02	2.43962556e-04
2.74500000e-01	1.76283270e-02	2.45081859e-04
2.75000000e-01	1.76372749e-02	2.45731876e-04
2.75500000e-01	1.74225802e-02	2.42925524e-04
2.76000000e-01	1.78093882e-02	2.46982373e-04
2.76500000e-01	1.74772057e-02	2.42788645e-04
2.77000000e-01	1.72773186e-02	2.39874889e-04
2.77500000e-01	1.73767534e-02	2.40482917e-04
2.78000000e-01	1.73799865e-02	2.42543633e-04
2.78500000e-01	1.74777996e-02	2.42205586e-04
2.79000000e-01	1.74604741e-02	2.41022950e-04
2.79500000e-01	1.73784577e-02	2.40429795e-04
2.80000000e-01	1.74289313e-02	2.40502906e-04
2.80500000e-01	1.73548250e-02	2.39881070e-04
2.81000000e-01	1.75480359e-02	2.41786260e-04
2.81500000e-01	1.73921933e-02	2.38929292e-04
2.82000000e-01	1.73737168e-02	2.40066676e-04
2.82500000e-01	1.74550697e-02	2.39673578e-04
2.83000000e-01	1.74096980e-02	2.38656395e-04
2.83500000e-01	1.72561171e-02	2.37291111e-04
2.84000000e-01	1.73685508e-02	2.37482675e-04
2.84500000e-01	1.74661292e-02	2.38929974e-04
2.85000000e-01	1.74804813e-02	2.39040382e-04
2.85500000e-01	1.72945034e-02	2.36429646e-04
2.86000000e-01	1.72864624e-02	2.36911968e-04
2.86500000e-01	1.71846718e-02	2.34782748e-04
2.87000000e-01	1.74706153e-02	2.38180432e-04
2.87500000e-01	1.70842092e-02	2.32218810e-04
2.88000000e-01	1.74326890e-02	2.35865816e-04
2.88500000e-01	1.71433885e-02	2.33072600e-04
2.89000000e-01	1.73801325e-02	2.35460220e-04
2.89500000e-01	1.72856695e-02	2.34305219e-04
2.90000000e-01	1.71344804e-02	2.32283221e-04
2.90500000e-01	1.72287043e-02	2.32908654e-04
2.91000000e-01	1.71532752e-02	2.31588356e-04
2.91500000e-01	1.74058640e-02	2.34517060e-04
2.92000000e-01	1.71482936e-02	2.31270703e-04
2.92500000e-01	1.70547444e-02	2.30073301e-04
2.93000000e-01	1.72661936e-02	2.32839998e-04
2.93500000e-01	1.71632761e-02	2.30775615e-04
2.94000000e-01	1.71398387e-02	2.29575567e-04
2.94500000e-01	1.72414538e-02	2.31683035e-04
2.95000000e-01	1.71075943e-02	2.29835674e-04
2.95500000e-01	1.71487221e-02	2.30133616e-04
2.96000000e-01	1.73434704e-02	2.32020197e-04
2.96500000e-01	1.71176724e-02	2.29063904e-04
2.97000000e-01	1.71412357e-02	2.29548059e-04
2.97500000e-01	1.73184633e-02	2.31677691e-04
2.98000000e-01	1.70491550e-02	2.28540856e-04
2.98500000e-01	1.72207791e-02	2.30288426e-04
2.99000000e-01	1.72003246e-02	2.29551896e-04
2.99500000e-01	1.69464719e-02	2.26618343e-04
3.00000000e-01	1.71197715e-02	2.27863951e-04
3.00500000e-01	1.69938628e-02	2.26478974e-04
3.01000000e-01	1.70956217e-02	2.27333096e-04
3.01500000e-01	1.70067689e-02	2.26417163e-04
3.02000000e-01	1.67815253e-02	2.23006118e-04
3.02500000e-01	1.71534489e-02	2.27504313e-04
3.03000000e-01	1.71464422e-02	2.27648918e-04
3.03500000e-01	1.69440123e-02	2.24354501e-04
3.04000000e-01	1.69399914e-02	2.25621442e-04
3.04500000e-01	1.71068840e-02	2.26495825e-04
3.05000000e-01	1.70119297e-02	2.24743661e-04
3.05500000e-01	1.71168503e-02	2.26716135e-04
3.06000000e-01	1.69731146e-02	2.23257723e-04
3.06500000e-01	1.71682089e-02	2.26065242e-04
3.07000000e-01	1.71950561e-02	2.25674767e-04
3.07500000e-01	1.69520639e-02	2.22481913e-04
3.08000000e-01	1.71162696e-02	2.24830576e-04
3.08500000e-01	1.69001837e-02	2.22009916e-04
3.09000000e-01	1.70624023e-02	2.24141046e-04
3.09500000e-01	1.68741613e-02	2.21537281e-04
3.10000000e-01	1.70736834e-02	2.24098830e-04
3.10500000e-01	1.68042903e-02	2.19568215e-04
3.11000000e-01	1.69360174e-02	2.22445571e-04
3.11500000e-01	1.68370057e-02	2.20448448e-04
3.12000000e-01	1.67682119e-02	2.19392284e-04
3.12500000e-01	1.66729566e-02	2.17497035e-04
3.13000000e-01	1.67476877e-02	2.18181169e-04
3.13500000e-01	1.66767096e-02	2.17819448e-04
3.14000000e-01	1.67987906e-02	2.19601004e-04
3.14500000e-01	1.69628250e-02	2.20811467e-04
3.15000000e-01	1.67342968e-02	2.18276624e-04
3.15500000e-01	1.68199575e-02	2.17951275e-04
3.16000000e-01	1.69156538e-02	2.19533985e-04
3.16500000e-01	1.70400261e-02	2.20791291e-04
3.17000000e-01	1.68731432e-02	2.18892452e-04
3.17500000e-01	1.69538571e-02	2.20201292e-04
3.18000000e-01	1.66141089e-02	2.15202630e-04
3.18500000e-01	1.68416972e-02	2.18134265e-04
3.19000000e-01	1.66446385e-02	2.15060111e-04
3.19500000e-01	1.67506269e-02	2.16405175e-04
3.20000000e-01	1.69172346e-02	2.18621640e-04
3.20500000e-01	1.66357913e-02	2.14975185e-04
3.21000000e-01	1.69441601e-02	2.18175133e-04
3.21500000e-01	1.67133982e-02	2.15154249e-04
3.22000000e-01	1.67537726e-02	2.16158763e-04
3.22500000e-01	1.64753827e-02	2.11972089e-04
3.23000000e-01	1.65141171e-02	2.12569866e-04
3.23500000e-01	1.66291014e-02	2.14338926e-04
3.24000000e-01	1.66868125e-02	2.14259240e-04
3.24500000e-01	1.66831878e-02	2.14797192e-04
3.25000000e-01	1.65398213e-02	2.11888536e-04
3.25500000e-01	1.67415066e-02	2.15343499e-04
3.26000000e-01	1.68448700e-02	2.15366706e-04
3.26500000e-01	1.64256001e-02	2.09996377e-04
3.27000000e-01	1.66462019e-02	2.12651751e-04
3.27500000e-01	1.65312213e-02	2.10855783e-04
3.28000000e-01	1.67244849e-02	2.14002123e-04
3.28500000e-01	1.65450843e-02	2.11033641e-04
3.29000000e-01	1.66979624e-02	2.12885656e-04
3.29500000e-01	1.65724045e-02	2.11393245e-04
3.30000000e-01	1.66318648e-02	2.11093533e-04
3.30500000e-01	1.66894983e-02	2.12350317e-04
3.31000000e-01	1.67206552e-02	2.12431128e-04
3.31500000e-01	1.65328539e-02	2.09869995e-04
3.32000000e-01	1.64942318e-02	2.09768817e-04
3.32500000e-01	1.65035868e-02	2.10065309e-04
3.33000000e-01	1.67525380e-02	2.12092703e-04
3.33500000e-01	1.64366504e-02	2.08042677e-04
3.34000000e-01	1.64252237e-02	2.08405367e-04
3.34500000e-01	1.64023742e-02	2.07803991e-04
3.35000000e-01	1.65792796e-02	2.08832478e-04
3.35500000e-01	1.63317357e-02	2.06239784e-04
3.36000000e-01	1.66125168e-02	2.08582828e-04
3.36500000e-01	1.63230755e-02	2.06939685e-04
3.37000000e-01	1.66524050e-02	2.09320770e-04
3.37500000e-01	1.62069232e-02	2.03569833e-04
3.38000000e-01	1.64261130e-02	2.06770407e-04
3.38500000e-01	1.63676723e-02	2.05516139e-04
3.39000000e-01	1.65566766e-02	2.08040709e-04
3.39500000e-01	1.64185193e-02	2.05465395e-04
3.40000000e-01	1.65488756e-02	2.08051415e-04
3.40500000e-01	1.64469903e-02	2.06020418e-04
3.41000000e-01	1.62917077e-02	2.04243262e-04
3.41500000e-01	1.63063443e-02	2.05428455e-04
3.42000000e-01	1.64830043e-02	2.05582857e-04
3.42500000e-01	1.62437693e-02	2.02911267e-04
3.43000000e-01	1.62956957e-02	2.03589200e-04
3.43500000e-01	1.62428067e-02	2.02884609e-04
3.44000000e-01	1.61678514e-02	2.02404881e-04
3.44500000e-01	1.63099840e-02	2.02892519e-04
3.45000000e-01	1.61949476e-02	2.02046609e-04
3.45500000e-01	1.61951126e-02	2.01720662e-04
3.46000000e-01	1.62925112e-02	2.03071664e-04
3.46500000e-01	1.62082695e-02	2.01802645e-04
3.47000000e-01	1.61764110e-02	2.00745424e-04
3.47500000e-01	1.63104919e-02	2.02456573e-04
3.48000000e-01	1.62393478e-02	2.01408832e-04
3.48500000e-01	1.63037488e-02	2.02045513e-04
3.49000000e-01	1.62558888e-02	2.01818186e-04
3.49500000e-01	1.63853101e-02	2.03124417e-04
3.50000000e-01	1.62376129e-02	1.63884461e-04
3.51000000e-01	1.61913535e-02	1.41246329e-04
3.52000000e-01	1.61985806e-02	1.41370849e-04
3.53000000e-01	1.61100265e-02	1.40198210e-04
3.54000000e-01	1.61980298e-02	1.40667877e-04
3.55000000e-01	1.62339807e-02	1.41070480e-04
3.56000000e-01	1.61600551e-02	1.40877612e-04
3.57000000e-01	1.60308482e-02	1.42519675e-04
3.58000000e-01	1.60097228e-02	1.43510398e-04
3.59000000e-01	1.61224074e-02	1.45266945e-04
3.60000000e-01	1.59484099e-02	1.44946534e-04
3.61000000e-01	1.60825659e-02	1.46521464e-04
3.62000000e-01	1.60227354e-02	1.46820662e-04
3.63000000e-01	1.60367834e-02	1.47291066e-04
3.64000000e-01	1.58244743e-02	1.46248148e-04
3.65000000e-01	1.59837091e-02	1.48219583e-04
3.66000000e-01	1.59233058e-02	1.45540283e-04
3.67000000e-01	1.59460311e-02	1.44075299e-04
3.68000000e-01	1.59373356e-02	1.42772936e-04
3.69000000e-01	1.58166620e-02	1.41042055e-04
3.70000000e-01	1.58346416e-02	1.40234583e-04
3.71000000e-01	1.59420767e-02	1.43011056e-04
3.72000000e-01	1.58913380e-02	1.43643091e-04
3.73000000e-01	1.57160954e-02	1.42441252e-04
3.74000000e-01	1.58326804e-02	1.43813493e-04
3.75000000e-01	1.60218109e-02	1.45543231e-04
3.76000000e-01	1.58541808e-02	1.43522287e-04
3.77000000e-01	1.57921243e-02	1.43672718e-04
3.78000000e-01	1.57351821e-02	1.43256633e-04
3.79000000e-01	1.57289654e-02	1.42942252e-04
3.80000000e-01	1.57674305e-02	1.42938028e-04
3.81000000e-01	1.58020430e-02	1.42926129e-04
3.82000000e-01	1.56264560e-02	1.41762952e-04
3.83000000e-01	1.57444616e-02	1.42447655e-04
3.84000000e-01	1.55357163e-02	1.41072463e-04
3.85000000e-01	1.55952358e-02	1.41775641e-04
3.86000000e-01	1.56344863e-02	1.41645137e-04
3.87000000e-01	1.57393283e-02	1.42550334e-04
3.88000000e-01	1.56567621e-02	1.41740648e-04
3.89000000e-01	1.56423804e-02	1.41830973e-04
3.90000000e-01	1.56166404e-02	1.41277967e-04
3.91000000e-01	1.55162468e-02	1.40531496e-04
3.92000000e-01	1.55235030e-02	1.40495793e-04
3.93000000e-01	1.53828321e-02	1.39177887e-04
3.94000000e-01	1.56080720e-02	1.40894998e-04
3.95000000e-01	1.55992848e-02	1.40443235e-04
3.96000000e-01	1.55448999e-02	1.40260578e-04
3.97000000e-01	1.54780110e-02	1.39597473e-04
3.98000000e-01	1.55277220e-02	1.40357951e-04
3.99000000e-01	1.55014363e-02	1.40438781e-04
4.00000000e-01	1.54874399e-02	1.40014088e-04
4.01000000e-01	1.54386243e-02	1.39379580e-04
4.02000000e-01	1.55471627e-02	1.40411863e-04
4.03000000e-01	1.54065410e-02	1.39404947e-04
4.04000000e-01	1.53200615e-02	1.38293805e-04
4.05000000e-01	1.54078123e-02	1.39145392e-04
4.06000000e-01	1.54253813e-02	1.39739981e-04
4.07000000e-01	1.54298404e-02	1.39306392e-04
4.08000000e-01	1.53315822e-02	1.38515343e-04
4.09000000e-01	1.53140810e-02	1.37957547e-04
4.10000000e-01	1.54392248e-02	1.39171274e-04
4.11000000e-01	1.52415883e-02	1.37292561e-04
4.12000000e-01	1.51919356e-02	1.37278440e-04
4.13000000e-01	1.52995126e-02	1.37929037e-04
4.14000000e-01	1.53425267e-02	1.38218703e-04
4.15000000e-01	1.52056470e-02	1.36450888e-04
4.16000000e-01	1.52553441e-02	1.37282616e-04
4.17000000e-01	1.52347256e-02	1.37185697e-04
4.18000000e-01	1.53615394e-02	1.39643634e-04
4.19000000e-01	1.53596735e-02	1.41430327e-04
4.20000000e-01	1.53405987e-02	1.42012582e-04
4.21000000e-01	1.53047149e-02	1.42269047e-04
4.22000000e-01	1.52706506e-02	1.42333267e-04
4.23000000e-01	1.52769363e-02	1.42697565e-04
4.24000000e-01	1.52029802e-02	1.42605744e-04
4.25000000e-01	1.52530930e-02	1.42870869e-04
4.26000000e-01	1.52016730e-02	1.42948029e-04
4.27000000e-01	1.53431951e-02	1.44272068e-04
4.28000000e-01	1.54267603e-02	1.44651431e-04
4.29000000e-01	1.52389831e-02	1.43788861e-04
4.30000000e-01	1.53183888e-02	1.44204575e-04
4.31000000e-01	1.51117754e-02	1.42438796e-04
4.32000000e-01	1.51634488e-02	1.42825541e-04
4.33000000e-01	1.53311868e-02	1.44488718e-04
4.34000000e-01	1.53211524e-02	1.44321764e-04
4.35000000e-01	1.51854772e-02	1.43407645e-04
4.36000000e-01	1.50347464e-02	1.42104927e-04
4.37000000e-01	1.50294223e-02	1.42874315e-04
4.38000000e-01	1.51173351e-02	1.43489817e-04
4.39000000e-01	1.52528208e-02	1.44972210e-04
4.40000000e-01	1.50624774e-02	1.43407042e-04
4.41000000e-01	1.51817284e-02	1.44930833e-04
4.42000000e-01	1.49302190e-02	1.43059621e-04
4.43000000e-01	1.51480168e-02	1.44775222e-04
4.44000000e-01	1.51255537e-02	1.44696905e-04
4.45000000e-01	1.50111005e-02	1.44222341e-04
4.46000000e-01	1.50814038e-02	1.44221631e-04
4.47000000e-01	1.50355037e-02	1.44327015e-04
4.48000000e-01	1.50185770e-02	1.44209474e-04
4.49000000e-01	1.50133857e-02	1.44400957e-04
4.50000000e-01	1.51856207e-02	1.46402562e-04
4.51000000e-01	1.51050701e-02	1.45645613e-04
4.52000000e-01	1.50587580e-02	1.45129155e-04
4.53000000e-01	1.50939779e-02	1.45675647e-04
4.54000000e-01	1.50403882e-02	1.44737114e-04
4.55000000e-01	1.49933293e-02	1.44986271e-04
4.56000000e-01	1.51353650e-02	1.46433416e-04
4.57000000e-01	1.48585747e-02	1.44696122e-04
4.58000000e-01	1.49542377e-02	1.44957848e-04
4.59000000e-01	1.48937038e-02	1.44541411e-04
4.60000000e-01	1.50665419e-02	1.46671355e-04
4.61000000e-01	1.49867463e-02	1.45553151e-04
4.62000000e-01	1.49851023e-02	1.45699811e-04
4.63000000e-01	1.48670652e-02	1.44727916e-04
4.64000000e-01	1.49775422e-02	1.45689093e-04
4.65000000e-01	1.49607169e-02	1.45780845e-04
4.66000000e-01	1.48443905e-02	1.44518561e-04
4.67000000e-01	1.49270827e-02	1.46000568e-04
4.68000000e-01	1.49153086e-02	1.45555022e-04
4.69000000e-01	1.48034314e-02	1.44657422e-04
4.70000000e-01	1.48262364e-02	1.45244130e-04
4.71000000e-01	1.48666217e-02	1.45440288e-04
4.72000000e-01	1.48557915e-02	1.45416021e-04
4.73000000e-01	1.48603757e-02	1.45595310e-04
4.74000000e-01	1.47864109e-02	1.44672779e-04
4.75000000e-01	1.48650882e-02	1.45381228e-04
4.76000000e-01	1.48059574e-02	1.44450781e-04
4.77000000e-01	1.47201648e-02	1.43858244e-04
4.78000000e-01	1.47712017e-02	1.44777049e-04
4.79000000e-01	1.47585762e-02	1.44187724e-04
4.80000000e-01	1.46572846e-02	1.43358081e-04
4.81000000e-01	1.46431233e-02	1.43648903e-04
4.82000000e-01	1.47077198e-02	1.44320724e-04
4.83000000e-01	1.47872075e-02	1.45014385e-04
4.84000000e-01	1.47688266e-02	1.45223135e-04
4.85000000e-01	1.46360014e-02	1.43789342e-04
4.86000000e-01	1.46762589e-02	1.44354390e-04
4.87000000e-01	1.47158354e-02	1.44645491e-04
4.88000000e-01	1.46775286e-02	1.44057968e-04
4.89000000e-01	1.47348049e-02	1.45087750e-04
4.90000000e-01	1.46253558e-02	1.44057254e-04
4.91000000e-01	1.47298799e-02	1.44967244e-04
4.92000000e-01	1.45036473e-02	1.43408893e-04
4.93000000e-01	1.46398573e-02	1.44385568e-04
4.94000000e-01	1.45998254e-02	1.44335914e-04
4.95000000e-01	1.46534551e-02	1.45785872e-04
4.96000000e-01	1.45985173e-02	1.49699969e-04
4.97000000e-01	1.46183141e-02	1.52204495e-04
4.98000000e-01	1.45088106e-02	1.52798732e-04
4.99000000e-01	1.45575640e-02	1.55570197e-04
5.00000000e-01	1.46918244e-02	1.58732935e-04
5.01000000e-01	1.47044514e-02	1.60543709e-04
5.02000000e-01	1.47402422e-02	1.62321361e-04
5.03000000e-01	1.46806784e-02	1.63084602e-04
5.04000000e-01	1.46016980e-02	1.63447927e-04
5.05000000e-01	1.45735409e-02	1.60896489e-04
5.06000000e-01	1.46669203e-02	1.58153597e-04
5.07000000e-01	1.46758735e-02	1.56713889e-04
5.08000000e-01	1.47931586e-02	1.56074091e-04
5.09000000e-01	1.46435396e-02	1.54838457e-04
5.10000000e-01	1.45819596e-02	1.53956314e-04
5.11000000e-01	1.46179910e-02	1.53974489e-04
5.12000000e-01	1.44550249e-02	1.51357877e-04
5.13000000e-01	1.46786682e-02	1.53383221e-04
5.14000000e-01	1.46055068e-02	1.52739839e-04
5.15000000e-01	1.44112315e-02	1.50530315e-04
5.16000000e-01	1.44992810e-02	1.50972870e-04
5.17000000e-01	1.45000252e-02	1.50638041e-04
5.18000000e-01	1.44163831e-02	1.49885911e-04
5.19000000e-01	1.45156467e-02	1.50236182e-04
5.20000000e-01	1.44495575e-02	1.48676873e-04
5.21000000e-01	1.43240753e-02	1.48084264e-04
5.22000000e-01	1.45651311e-02	1.50035912e-04
5.23000000e-01	1.43973337e-02	1.48266389e-04
5.24000000e-01	1.45360564e-02	1.49432456e-04
5.25000000e-01	1.43838528e-02	1.47633813e-04
5.26000000e-01	1.43451223e-02	1.47233671e-04
5.27000000e-01	1.44119060e-02	1.48290732e-04
5.28000000e-01	1.43564353e-02	1.47753090e-04
5.29000000e-01	1.44141386e-02	1.48737009e-04
5.30000000e-01	1.42928716e-02	1.47638991e-04
5.31000000e-01	1.44064955e-02	1.48155145e-04
5.32000000e-01	1.44413327e-02	1.48833194e-04
5.33000000e-01	1.42364550e-02	1.47060216e-04
5.34000000e-01	1.44334080e-02	1.48525652e-04
5.35000000e-01	1.43667952e-02	1.47294175e-04
5.36000000e-01	1.44235313e-02	1.48468210e-04
5.37000000e-01	1.44964254e-02	1.48788620e-04
5.38000000e-01	1.43322965e-02	1.47110481e-04
5.39000000e-01	1.42055743e-02	1.46411247e-04
5.40000000e-01	1.41984531e-02	1.46265680e-04
5.41000000e-01	1.42171051e-02	1.45965318e-04
5.42000000e-01	1.42656848e-02	1.47119770e-04
5.43000000e-01	1.41454449e-02	1.45677781e-04
5.44000000e-01	1.42436905e-02	1.46808782e-04
5.45000000e-01	1.42050691e-02	1.46412905e-04
5.46000000e-01	1.42039741e-02	1.46181852e-04
5.47000000e-01	1.42456895e-02	1.46543120e-04
5.48000000e-01	1.43762453e-02	1.48301369e-04
5.49000000e-01	1.41945186e-02	1.45698779e-04
5.50000000e-01	1.41568298e-02	1.45746214e-04
5.51000000e-01	1.39955989e-02	1.43727420e-04
5.52000000e-01	1.41013465e-02	1.44157863e-04
5.53000000e-01	1.40323572e-02	1.43732430e-04
5.54000000e-01	1.42546115e-02	1.46363333e-04
5.55000000e-01	1.40837712e-02	1.44199995e-04
5.56000000e-01	1.40702261e-02	1.43775333e-04
5.57000000e-01	1.40523814e-02	1.43803053e-04
5.58000000e-01	1.42163600e-02	1.45088805e-04
5.59000000e-01	1.39269012e-02	1.42853728e-04
5.60000000e-01	1.41437294e-02	1.44532705e-04
5.61000000e-01	1.40670980e-02	1.44247295e-04
5.62000000e-01	1.41528678e-02	1.45136939e-04
5.63000000e-01	1.39236994e-02	1.42436560e-04
5.64000000e-01	1.39771291e-02	1.43375932e-04
5.65000000e-01	1.39538312e-02	1.43177943e-04
5.66000000e-01	1.40092700e-02	1.43608935e-04
5.67000000e-01	1.40216716e-02	1.43916620e-04
5.68000000e-01	1.38326372e-02	1.41925316e-04
5.69000000e-01	1.38655390e-02	1.42322368e-04
5.70000000e-01	1.40477392e-02	1.43217594e-04
5.71000000e-01	1.39682219e-02	1.43105329e-04
5.72000000e-01	1.40133026e-02	1.43212460e-04
5.73000000e-01	1.39718038e-02	1.43202522e-04
5.74000000e-01	1.38435612e-02	1.41738024e-04
5.75000000e-01	1.38532727e-02	1.42367367e-04
5.76000000e-01	1.38974596e-02	1.42827218e-04
5.77000000e-01	1.37895079e-02	1.41533122e-04
5.78000000e-01	1.39877070e-02	1.43434515e-04
5.79000000e-01	1.37808189e-02	1.41507988e-04
5.80000000e-01	1.39680827e-02	1.43518667e-04
5.81000000e-01	1.38615243e-02	1.42735732e-04
5.82000000e-01	1.37057208e-02	1.40811811e-04
5.83000000e-01	1.38753040e-02	1.42565982e-04
5.84000000e-01	1.37960579e-02	1.41985301e-04
5.85000000e-01	1.37546137e-02	1.41228533e-04
5.86000000e-01	1.36391628e-02	1.40908162e-04
5.87000000e-01	1.38945142e-02	1.42298372e-04
5.88000000e-01	1.37077564e-02	1.41141401e-04
5.89000000e-01	1.37769370e-02	1.41421273e-04
5.90000000e-01	1.38307111e-02	1.41914039e-04
5.91000000e-01	1.37211125e-02	1.41061510e-04
5.92000000e-01	1.36901159e-02	1.40408835e-04
5.93000000e-01	1.36484745e-02	1.40601580e-04
5.94000000e-01	1.36521446e-02	1.40481517e-04
5.95000000e-01	1.37440723e-02	1.41505792e-04
5.96000000e-01	1.36080998e-02	1.40380474e-04
5.97000000e-01	1.36886757e-02	1.41497461e-04
5.98000000e-01	1.36964120e-02	1.40695636e-04
5.99000000e-01	1.36556686e-02	1.40265560e-04
6.00000000e-01	1.37528189e-02	1.41449507e-04
6.01000000e-01	1.36011414e-02	1.40262136e-04
6.02000000e-01	1.36660464e-02	1.40825819e-04
6.03000000e-01	1.36500859e-02	1.40919216e-04
6.04000000e-01	1.35575010e-02	1.39914334e-04
6.05000000e-01	1.36067727e-02	1.40407339e-04
6.06000000e-01	1.34839527e-02	1.39411009e-04
6.07000000e-01	1.35345458e-02	1.39843528e-04
6.08000000e-01	1.36197664e-02	1.40907700e-04
6.09000000e-01	1.37360485e-02	1.41279623e-04
6.10000000e-01	1.36170960e-02	1.40204772e-04
6.11000000e-01	1.35103083e-02	1.39509843e-04
6.12000000e-01	1.37326763e-02	1.41757265e-04
6.13000000e-01	1.36450636e-02	1.40727114e-04
6.14000000e-01	1.34710555e-02	1.39515762e-04
6.15000000e-01	1.35195853e-02	1.39943169e-04
6.16000000e-01	1.35794703e-02	1.40331826e-04
6.17000000e-01	1.35706638e-02	1.40644253e-04
6.18000000e-01	1.35118469e-02	1.40056398e-04
6.19000000e-01	1.35136656e-02	1.39420280e-04
6.20000000e-01	1.33532350e-02	1.37775587e-04
6.21000000e-01	1.35388959e-02	1.39571355e-04
6.22000000e-01	1.33946323e-02	1.37892553e-04
6.23000000e-01	1.33762223e-02	1.37773115e-04
6.24000000e-01	1.34349770e-02	1.38047895e-04
6.25000000e-01	1.34929801e-02	1.38167251e-04
6.26000000e-01	1.35117781e-02	1.38678524e-04
6.27000000e-01	1.33898407e-02	1.37575003e-04
6.28000000e-01	1.33453761e-02	1.37419275e-04
6.29000000e-01	1.34199895e-02	1.37771529e-04
6.30000000e-01	1.33993238e-02	1.37491612e-04
6.31000000e-01	1.34686024e-02	1.38420307e-04
6.32000000e-01	1.33520636e-02	1.37271370e-04
6.33000000e-01	1.35196193e-02	1.38973226e-04
6.34000000e-01	1.35290352e-02	1.42127862e-04
6.35000000e-01	1.32916257e-02	1.43677360e-04
6.36000000e-01	1.34256811e-02	1.48417824e-04
6.37000000e-01	1.32823331e-02	1.49193396e-04
6.38000000e-01	1.33721481e-02	1.52047585e-04
6.39000000e-01	1.35208939e-02	1.55705811e-04
6.40000000e-01	1.34902918e-02	1.56515636e-04
6.41000000e-01	1.34420097e-02	1.57724745e-04
6.42000000e-01	1.34947604e-02	1.60093442e-04
6.43000000e-01	1.35057529e-02	1.60499530e-04
6.44000000e-01	1.36932905e-02	1.55957014e-04
6.45000000e-01	1.34288254e-02	1.51996193e-04
6.46000000e-01	1.34138143e-02	1.50489844e-04
6.47000000e-01	1.35271355e-02	1.50294990e-04
6.48000000e-01	1.34488185e-02	1.48478283e-04
6.49000000e-01	1.33795141e-02	1.47083804e-04
6.50000000e-01	1.34345032e-02	1.46814538e-04
6.51000000e-01	1.35791594e-02	1.47405237e-04
6.52000000e-01	1.35257787e-02	1.46730783e-04
6.53000000e-01	1.32529798e-02	1.43626318e-04
6.54000000e-01	1.34373441e-02	1.44880502e-04
6.55000000e-01	1.33756026e-02	1.43922631e-04
6.56000000e-01	1.33083084e-02	1.43252233e-04
6.57000000e-01	1.34475756e-02	1.44162417e-04
6.58000000e-01	1.34542681e-02	1.43847755e-04
6.59000000e-01	1.34087008e-02	1.43516124e-04
6.60000000e-01	1.33879582e-02	1.43114318e-04
6.61000000e-01	1.33453883e-02	1.42530720e-04
6.62000000e-01	1.31973550e-02	1.41494882e-04
6.63000000e-01	1.33409052e-02	1.42624643e-04
6.64000000e-01	1.33771104e-02	1.42463711e-04
6.65000000e-01	1.33401940e-02	1.42372171e-04
6.66000000e-01	1.33941514e-02	1.42614482e-04
6.67000000e-01	1.33904657e-02	1.42770089e-04
6.68000000e-01	1.31731434e-02	1.40577733e-04
6.69000000e-01	1.33251676e-02	1.41820351e-04
6.70000000e-01	1.31521820e-02	1.40196568e-04
6.71000000e-01	1.32550262e-02	1.41241083e-04
6.72000000e-01	1.31871711e-02	1.40518238e-04
6.73000000e-01	1.32007252e-02	1.40655072e-04
6.74000000e-01	1.32315801e-02	1.40645748e-04
6.75000000e-01	1.32724063e-02	1.41026721e-04
6.76000000e-01	1.31660267e-02	1.40090340e-04
6.77000000e-01	1.31563150e-02	1.40054896e-04
6.78000000e-01	1.33285542e-02	1.41974969e-04
6.79000000e-01	1.33510667e-02	1.41745783e-04
6.80000000e-01	1.32181873e-02	1.40240033e-04
6.81000000e-01	1.31847493e-02	1.39884252e-04
6.82000000e-01	1.31032484e-02	1.39316237e-04
6.83000000e-01	1.32032803e-02	1.40264022e-04
6.84000000e-01	1.30251951e-02	1.38662041e-04
6.85000000e-01	1.31987773e-02	1.39855488e-04
6.86000000e-01	1.31812167e-02	1.39771031e-04
6.87000000e-01	1.32808239e-02	1.41016867e-04
6.88000000e-01	1.30625506e-02	1.38419286e-04
6.89000000e-01	1.30363081e-02	1.38376673e-04
6.90000000e-01	1.31976080e-02	1.39908767e-04
6.91000000e-01	1.31053744e-02	1.38910126e-04
6.92000000e-01	1.31371545e-02	1.39148760e-04
6.93000000e-01	1.30997559e-02	1.39126958e-04
6.94000000e-01	1.31790655e-02	1.39711103e-04
6.95000000e-01	1.30939958e-02	1.38776015e-04
6.96000000e-01	1.30589347e-02	1.38601185e-04
6.97000000e-01	1.30464150e-02	1.38041585e-04
6.98000000e-01	1.31705462e-02	1.39313034e-04
6.99000000e-01	1.31182905e-02	1.39277455e-04
7.00000000e-01	1.29125739e-02	1.36689066e-04
7.01000000e-01	1.30625031e-02	1.38342702e-04
7.02000000e-01	1.29788504e-02	1.37848314e-04
7.03000000e-01	1.29931096e-02	1.37640014e-04
7.04000000e-01	1.31066858e-02	1.39113773e-04
7.05000000e-01	1.30179308e-02	1.37385891e-04
7.06000000e-01	1.28533407e-02	1.36307794e-04
7.07000000e-01	1.29794152e-02	1.37563656e-04
7.08000000e-01	1.29470729e-02	1.36699520e-04
7.09000000e-01	1.30058442e-02	1.37787159e-04
7.10000000e-01	1.29531026e-02	1.37068867e-04
7.11000000e-01	1.28751719e-02	1.36685032e-04
7.12000000e-01	1.29404540e-02	1.37100754e-04
7.13000000e-01	1.28558472e-02	1.35740464e-04
7.14000000e-01	1.28510053e-02	1.36370949e-04
7.15000000e-01	1.28144036e-02	1.36111911e-04
7.16000000e-01	1.27475197e-02	1.34952973e-04
7.17000000e-01	1.28498410e-02	1.36412317e-04
7.18000000e-01	1.28239961e-02	1.35863061e-04
7.19000000e-01	1.29157234e-02	1.36828271e-04
7.20000000e-01	1.28811721e-02	1.36103042e-04
7.21000000e-01	1.28345950e-02	1.35894118e-04
7.22000000e-01	1.26791431e-02	1.34681133e-04
7.23000000e-01	1.28322758e-02	1.36380574e-04
7.24000000e-01	1.27617805e-02	1.35638459e-04
7.25000000e-01	1.26817817e-02	1.34735305e-04
7.26000000e-01	1.27810810e-02	1.35084870e-04
7.27000000e-01	1.27118777e-02	1.34837572e-04
7.28000000e-01	1.28413437e-02	1.36454965e-04
7.29000000e-01	1.27409139e-02	1.35280745e-04
7.30000000e-01	1.27047091e-02	1.35179831e-04
7.31000000e-01	1.26453795e-02	1.34275874e-04
7.32000000e-01	1.25403454e-02	1.33640920e-04
7.33000000e-01	1.25738792e-02	1.33519810e-04
7.34000000e-01	1.27524656e-02	1.35038683e-04
7.35000000e-01	1.26386539e-02	1.33551412e-04
7.36000000e-01	1.25739191e-02	1.32885531e-04
7.37000000e-01	1.26685716e-02	1.33565238e-04
7.38000000e-01	1.25765540e-02	1.32512987e-04
7.39000000e-01	1.26764700e-02	1.33460815e-04
7.40000000e-01	1.26562453e-02	1.33396154e-04
7.41000000e-01	1.25808064e-02	1.32162242e-04
7.42000000e-01	1.26653375e-02	1.33254250e-04
7.43000000e-01	1.26013755e-02	1.32324693e-04
7.44000000e-01	1.24606370e-02	1.31042553e-04
7.45000000e-01	1.27121873e-02	1.33081623e-04
7.46000000e-01	1.26446913e-02	1.32605870e-04
7.47000000e-01	1.24666926e-02	1.30908894e-04
7.48000000e-01	1.26843000e-02	1.33136584e-04
7.49000000e-01	1.24663462e-02	1.30964015e-04
7.50000000e-01	1.24875809e-02	1.31318808e-04
7.51000000e-01	1.25193688e-02	1.31491135e-04
7.52000000e-01	1.25056551e-02	1.30949544e-04
7.53000000e-01	1.25209180e-02	1.31754188e-04
7.54000000e-01	1.24736910e-02	1.31100367e-04
7.55000000e-01	1.24813752e-02	1.31128804e-04
7.56000000e-01	1.25690036e-02	1.31842507e-04
7.57000000e-01	1.24224794e-02	1.30839551e-04
7.58000000e-01	1.25330558e-02	1.31507278e-04
7.59000000e-01	1.24370638e-02	1.30499118e-04
7.60000000e-01	1.24705142e-02	1.30387810e-04
7.61000000e-01	1.24408159e-02	1.29894230e-04
7.62000000e-01	1.24117705e-02	1.29815790e-04
7.63000000e-01	1.23456296e-02	1.28941883e-04
7.64000000e-01	1.25138376e-02	1.30647919e-04
7.65000000e-01	1.24277219e-02	1.29522654e-04
7.66000000e-01	1.23487821e-02	1.28397305e-04
7.67000000e-01	1.23410861e-02	1.28624951e-04
7.68000000e-01	1.24002117e-02	1.29027378e-04
7.69000000e-01	1.23644926e-02	1.29164114e-04
7.70000000e-01	1.23606363e-02	1.29365023e-04
7.71000000e-01	1.23660790e-02	1.29017086e-04
7.72000000e-01	1.23646806e-02	1.32809201e-04
7.73000000e-01	1.22387743e-02	1.35816779e-04
7.74000000e-01	1.23116371e-02	1.39736382e-04
7.75000000e-01	1.23595623e-02	1.42479997e-04
7.76000000e-01	1.22301889e-02	1.42944787e-04
7.77000000e-01	1.22447931e-02	1.45317141e-04
7.78000000e-01	1.22082762e-02	1.47166643e-04
7.79000000e-01	1.22997020e-02	1.49293480e-04
7.80000000e-01	1.21300523e-02	1.49516028e-04
7.81000000e-01	1.22237358e-02	1.52025208e-04
7.82000000e-01	1.22384363e-02	1.53502101e-04
7.83000000e-01	1.22560925e-02	1.55751418e-04
7.84000000e-01	1.22076540e-02	1.56971331e-04
7.85000000e-01	1.21236325e-02	1.57799156e-04
7.86000000e-01	1.20382645e-02	1.58387281e-04
7.87000000e-01	1.22272332e-02	1.61682469e-04
7.88000000e-01	1.20966769e-02	1.61722500e-04
7.89000000e-01	1.21784315e-02	1.64814400e-04
7.90000000e-01	1.18941725e-02	1.63350989e-04
7.91000000e-01	1.23352493e-02	1.70209313e-04
7.92000000e-01	1.20442314e-02	1.67719575e-04
7.93000000e-01	1.19331520e-02	1.67590728e-04
7.94000000e-01	1.20010631e-02	1.70790188e-04
7.95000000e-01	1.20510387e-02	1.74783564e-04
7.96000000e-01	1.20868780e-02	1.75926785e-04
7.97000000e-01	1.19758005e-02	1.75897767e-04
7.98000000e-01	1.20334547e-02	1.78956570e-04
7.99000000e-01	1.21063850e-02	1.80941810e-04
8.00000000e-01	1.18851685e-02	1.80009104e-04
8.01000000e-01	1.19723801e-02	1.83438655e-04
8.02000000e-01	1.17512054e-02	1.81864213e-04
8.03000000e-01	1.20455127e-02	1.87736851e-04
8.04000000e-01	1.20322774e-02	1.89454187e-04
8.05000000e-01	1.17829156e-02	1.88740969e-04
8.06000000e-01	1.19669967e-02	1.92811009e-04
8.07000000e-01	1.18545017e-02	1.93241028e-04
8.08000000e-01	1.20399895e-02	1.98680997e-04
8.09000000e-01	1.19508628e-02	1.98928709e-04
8.10000000e-01	1.19189553e-02	2.00945602e-04
8.11000000e-01	1.17386464e-02	2.00507590e-04
8.12000000e-01	1.16130350e-02	2.00554198e-04
8.13000000e-01	1.16512463e-02	2.03347775e-04
8.14000000e-01	1.18150497e-02	2.07261029e-04
8.15000000e-01	1.18783068e-02	2.12429233e-04
8.16000000e-01	1.18720005e-02	2.13750333e-04
8.17000000e-01	1.16621046e-02	2.14381557e-04
8.18000000e-01	1.16345214e-02	2.16829657e-04
8.19000000e-01	1.17156929e-02	2.20949582e-04
8.20000000e-01	1.16292932e-02	2.21628897e-04
8.21000000e-01	1.17640558e-02	2.26475604e-04
8.22000000e-01	1.16237399e-02	2.27179629e-04
8.23000000e-01	1.15413668e-02	2.27655918e-04
8.24000000e-01	1.18578395e-02	2.38094831e-04
8.25000000e-01	1.16170916e-02	2.34886895e-04
8.26000000e-01	1.11941483e-02	2.33508594e-04
8.27000000e-01	1.16890357e-02	2.43159627e-04
8.28000000e-01	1.14756464e-02	2.43860667e-04
8.29000000e-01	1.14966909e-02	2.49903138e-04
8.30000000e-01	1.14096188e-02	2.48816405e-04
8.31000000e-01	1.14159970e-02	2.55462234e-04
8.32000000e-01	1.13772784e-02	2.60262610e-04
8.33000000e-01	1.12960193e-02	2.60776538e-04
8.34000000e-01	1.14378744e-02	2.69468605e-04
8.35000000e-01	1.13498501e-02	2.72122991e-04
8.36000000e-01	1.17129288e-02	2.82872959e-04
8.37000000e-01	1.15048728e-02	2.84625981e-04
8.38000000e-01	1.14163224e-02	2.86902777e-04
8.39000000e-01	1.15786927e-02	3.00626764e-04
8.40000000e-01	1.14803199e-02	3.01505031e-04
8.41000000e-01	1.15779283e-02	3.11953893e-04
8.42000000e-01	1.15409255e-02	3.17851207e-04
8.43000000e-01	1.12636552e-02	3.18627415e-04
8.44000000e-01	1.13579607e-02	3.27516163e-04
8.45000000e-01	1.15047934e-02	3.43526037e-04
8.46000000e-01	1.12110226e-02	3.40066840e-04
8.47000000e-01	1.13076258e-02	3.56801028e-04
8.48000000e-01	1.16791392e-02	3.75381697e-04
8.49000000e-01	1.13978992e-02	3.79271941e-04
8.50000000e-01	1.10318868e-02	3.82860901e-04
8.51000000e-01	1.09521244e-02	3.95837088e-04
8.52000000e-01	1.14868229e-02	4.32596383e-04
8.53000000e-01	1.08435290e-02	4.29644402e-04
8.54000000e-01	1.10744525e-02	4.54126271e-04
8.55000000e-01	1.05717170e-02	4.55544498e-04
8.56000000e-01	1.13023074e-02	4.87867453e-04
8.57000000e-01	1.08996111e-02	4.95493174e-04
8.58000000e-01	1.18359552e-02	5.31672415e-04
8.59000000e-01	1.11231839e-02	5.27574790e-04
8.60000000e-01	1.10180790e-02	5.39048602e-04
8.61000000e-01	1.07609836e-02	5.43679595e-04
8.62000000e-01	1.08359443e-02	5.65226564e-04
8.63000000e-01	1.08659488e-02	5.89097455e-04
8.64000000e-01	1.09955208e-02	6.37467084e-04
8.65000000e-01	1.09570286e-02	6.52524906e-04
8.66000000e-01	1.13708310e-02	7.13714085e-04
8.67000000e-01	1.05829586e-02	7.22305556e-04
8.68000000e-01	1.13228824e-02	8.11217416e-04
8.69000000e-01	1.12682998e-02	8.48932102e-04
8.70000000e-01	1.02112165e-02	8.47246797e-04
8.71000000e-01	1.14732536e-02	1.03259878e-03
8.72000000e-01	1.05963053e-02	1.09266657e-03
8.73000000e-01	1.15568016e-02	1.38823299e-03
8.74000000e-01	1.08755595e-02	1.74634747e-03
8.75000000e-01	9.78844822e-03	3.43117812e-03
