% Filename : SDL5_p7_00025_00051.h5
% Date & Time : 30-Oct-2025 16:58:25
% X-ray Energy (keV) : 13.30001
% Exposure Time (s) : 0.500
% Beam Center : 1461.24000, 208.98300
% Sample to Detector Distance (SDD) (mm) : 1990.750
% Detector Pixel Size (mm) : 0.075
% Photodiode Value : 144238.000
% I0 of Sample : 0
% I0 of Standard : 1
% 
% q(A^-1)   I(q)    I(q)_SE
0.00000000e+00	1.12730583e-02	6.26280333e-03
2.50000000e-04	0.00000000e+00	0.00000000e+00
5.00000000e-04	0.00000000e+00	0.00000000e+00
7.50000000e-04	0.00000000e+00	0.00000000e+00
1.00000000e-03	0.00000000e+00	0.00000000e+00
1.25000000e-03	0.00000000e+00	0.00000000e+00
1.50000000e-03	0.00000000e+00	0.00000000e+00
1.75000000e-03	0.00000000e+00	0.00000000e+00
2.00000000e-03	0.00000000e+00	0.00000000e+00
2.25000000e-03	0.00000000e+00	0.00000000e+00
2.50000000e-03	0.00000000e+00	0.00000000e+00
2.75000000e-03	0.00000000e+00	0.00000000e+00
3.00000000e-03	0.00000000e+00	0.00000000e+00
3.25000000e-03	9.98092087e-01	5.76323873e-01
3.50000000e-03	1.15699052e+00	2.51333615e-01
3.75000000e-03	9.39476649e-01	1.59101733e-01
4.00000000e-03	8.22679835e-01	1.27009456e-01
4.25000000e-03	6.91692920e-01	8.80549636e-02
4.50000000e-03	8.78468037e-01	1.28319770e-01
4.75000000e-03	8.29019181e-01	1.10686829e-01
5.00000000e-03	6.83315203e-01	8.55324931e-02
5.25000000e-03	5.93133582e-01	7.51721365e-02
5.50000000e-03	5.11542869e-01	6.30391335e-02
5.75000000e-03	4.56515979e-01	5.69401267e-02
6.00000000e-03	3.94634430e-01	4.69062976e-02
6.25000000e-03	3.46880659e-01	4.11368160e-02
6.50000000e-03	3.04350140e-01	3.59748649e-02
6.75000000e-03	2.68521867e-01	3.19306909e-02
7.00000000e-03	2.46642246e-01	2.82680853e-02
7.25000000e-03	2.17637561e-01	2.45523684e-02
7.50000000e-03	1.92822439e-01	2.07497242e-02
7.75000000e-03	1.64554723e-01	1.66267617e-02
8.00000000e-03	1.56027604e-01	1.65990132e-02
8.25000000e-03	1.41915654e-01	1.42292595e-02
8.50000000e-03	1.28088840e-01	1.25284653e-02
8.75000000e-03	1.20412574e-01	1.14668639e-02
9.00000000e-03	1.07144537e-01	9.95217293e-03
9.25000000e-03	9.75764756e-02	8.78271437e-03
9.50000000e-03	8.53915664e-02	7.14489640e-03
9.75000000e-03	8.12182478e-02	6.71989357e-03
1.00000000e-02	7.42594568e-02	5.92635229e-03
1.02500000e-02	6.83632781e-02	5.36927824e-03
1.05000000e-02	6.34802549e-02	4.73540770e-03
1.07500000e-02	6.00570944e-02	4.43998471e-03
1.10000000e-02	5.48037963e-02	3.85805599e-03
1.12500000e-02	5.23753616e-02	3.78982340e-03
1.15000000e-02	5.00013603e-02	3.49589809e-03
1.17500000e-02	4.66114312e-02	3.16113442e-03
1.20000000e-02	4.54398456e-02	3.08872328e-03
1.22500000e-02	4.22989835e-02	2.76861599e-03
1.25000000e-02	4.19005987e-02	2.78315406e-03
1.27500000e-02	4.09468520e-02	2.68480192e-03
1.30000000e-02	3.98995501e-02	2.58280338e-03
1.32500000e-02	3.67841096e-02	2.34891616e-03
1.35000000e-02	3.52010257e-02	2.18437020e-03
1.37500000e-02	3.52920287e-02	2.23664376e-03
1.40000000e-02	3.23761147e-02	2.01104316e-03
1.42500000e-02	3.28644497e-02	2.03954927e-03
1.45000000e-02	3.31688817e-02	2.03740876e-03
1.47500000e-02	3.04965131e-02	1.82953027e-03
1.50000000e-02	2.93793811e-02	1.79160276e-03
1.52500000e-02	2.84706045e-02	1.66482646e-03
1.55000000e-02	2.73948227e-02	1.56732448e-03
1.57500000e-02	2.77292449e-02	1.60005282e-03
1.60000000e-02	2.69242807e-02	1.51407497e-03
1.62500000e-02	2.66788267e-02	1.50136057e-03
1.65000000e-02	2.51630595e-02	1.40110926e-03
1.67500000e-02	2.61385791e-02	1.43378087e-03
1.70000000e-02	2.51158686e-02	1.36997817e-03
1.72500000e-02	2.47539070e-02	1.35187239e-03
1.75000000e-02	2.48740778e-02	1.36331890e-03
1.77500000e-02	2.52063296e-02	1.33551164e-03
1.80000000e-02	2.38098521e-02	1.28004066e-03
1.82500000e-02	2.44567744e-02	1.28127765e-03
1.85000000e-02	2.42590130e-02	1.28745238e-03
1.87500000e-02	2.33590858e-02	1.22506997e-03
1.90000000e-02	2.37129168e-02	1.23392149e-03
1.92500000e-02	2.33152246e-02	1.19048689e-03
1.95000000e-02	2.32289234e-02	1.19527002e-03
1.97500000e-02	2.35176698e-02	1.21704403e-03
2.00000000e-02	2.34570145e-02	1.19481537e-03
2.02500000e-02	2.29965844e-02	1.17621706e-03
2.05000000e-02	2.25654827e-02	1.13071671e-03
2.07500000e-02	2.36143511e-02	1.17013845e-03
2.10000000e-02	2.22750252e-02	1.12585714e-03
2.12500000e-02	2.32099629e-02	1.16735818e-03
2.15000000e-02	2.41727434e-02	1.19977102e-03
2.17500000e-02	2.19862549e-02	1.10257911e-03
2.20000000e-02	2.28261969e-02	1.16394941e-03
2.22500000e-02	2.35890540e-02	1.18877531e-03
2.25000000e-02	2.19863656e-02	1.12197903e-03
2.27500000e-02	2.30666790e-02	1.15794232e-03
2.30000000e-02	2.18163119e-02	1.11005788e-03
2.32500000e-02	2.14866784e-02	1.07667303e-03
2.35000000e-02	2.24055213e-02	1.11850303e-03
2.37500000e-02	2.26223409e-02	1.13188025e-03
2.40000000e-02	2.26482615e-02	1.13760321e-03
2.42500000e-02	2.24818473e-02	1.11718691e-03
2.45000000e-02	2.20931897e-02	1.10023961e-03
2.47500000e-02	2.19862314e-02	1.09433731e-03
2.50000000e-02	2.26755166e-02	1.13094495e-03
2.52500000e-02	2.20574404e-02	1.10334135e-03
2.55000000e-02	2.26562123e-02	1.11982305e-03
2.57500000e-02	2.15537570e-02	1.06478740e-03
2.60000000e-02	2.17196211e-02	1.06527523e-03
2.62500000e-02	2.21208767e-02	1.10393473e-03
2.65000000e-02	2.18262512e-02	1.07462605e-03
2.67500000e-02	2.30157476e-02	1.11741972e-03
2.70000000e-02	2.18308180e-02	1.08305118e-03
2.72500000e-02	2.25151777e-02	1.09799063e-03
2.75000000e-02	2.24619893e-02	1.11155016e-03
2.77500000e-02	2.15767464e-02	1.07148002e-03
2.80000000e-02	2.18792287e-02	1.05098709e-03
2.82500000e-02	2.23303026e-02	1.06979138e-03
2.85000000e-02	2.25802994e-02	1.08972831e-03
2.87500000e-02	2.26380675e-02	1.09990261e-03
2.90000000e-02	2.26380782e-02	1.10435800e-03
2.92500000e-02	2.21460384e-02	1.04685434e-03
2.95000000e-02	2.24885295e-02	1.08979707e-03
2.97500000e-02	2.29229326e-02	1.08754322e-03
3.00000000e-02	2.29399868e-02	1.09607189e-03
3.02500000e-02	2.23671167e-02	1.07023346e-03
3.05000000e-02	2.23805135e-02	1.05127845e-03
3.07500000e-02	2.29305673e-02	1.09132627e-03
3.10000000e-02	2.33214637e-02	1.09831178e-03
3.12500000e-02	2.20317389e-02	1.05198299e-03
3.15000000e-02	2.23596809e-02	1.06008530e-03
3.17500000e-02	2.26554561e-02	1.05083084e-03
3.20000000e-02	2.32049619e-02	1.09207762e-03
3.22500000e-02	2.22588126e-02	1.04995545e-03
3.25000000e-02	2.20036623e-02	1.03507620e-03
3.27500000e-02	2.22922848e-02	1.03963010e-03
3.30000000e-02	2.18665161e-02	1.02239087e-03
3.32500000e-02	2.20918624e-02	1.01593444e-03
3.35000000e-02	2.19076149e-02	1.02546936e-03
3.37500000e-02	2.16000136e-02	1.00103070e-03
3.40000000e-02	2.22237684e-02	1.02712652e-03
3.42500000e-02	2.14915212e-02	9.79968994e-04
3.45000000e-02	2.02153674e-02	9.39723226e-04
3.47500000e-02	2.08502481e-02	9.72815786e-04
3.50000000e-02	2.17241686e-02	9.89153387e-04
3.52500000e-02	2.17649817e-02	1.00276856e-03
3.55000000e-02	2.15061417e-02	9.83282120e-04
3.57500000e-02	2.15974009e-02	9.84619840e-04
3.60000000e-02	2.15063837e-02	9.70459836e-04
3.62500000e-02	2.13567705e-02	9.67142395e-04
3.65000000e-02	2.11622300e-02	9.58799193e-04
3.67500000e-02	2.10072304e-02	9.49034068e-04
3.70000000e-02	2.13542114e-02	9.64066045e-04
3.72500000e-02	2.20215985e-02	9.87350419e-04
3.75000000e-02	2.12130695e-02	9.52407989e-04
3.77500000e-02	2.08415212e-02	9.33571242e-04
3.80000000e-02	2.20171444e-02	9.69544238e-04
3.82500000e-02	2.09825232e-02	9.30498705e-04
3.85000000e-02	2.20212826e-02	9.70438242e-04
3.87500000e-02	2.16055527e-02	9.54282809e-04
3.90000000e-02	2.09775872e-02	9.40171946e-04
3.92500000e-02	2.12359461e-02	9.26068788e-04
3.95000000e-02	2.10172202e-02	9.29978902e-04
3.97500000e-02	2.09690539e-02	9.33232554e-04
4.00000000e-02	2.12082812e-02	9.27198403e-04
4.02500000e-02	2.09709304e-02	9.09730718e-04
4.05000000e-02	2.11331045e-02	9.13825753e-04
4.07500000e-02	2.14404798e-02	9.22072603e-04
4.10000000e-02	2.10178096e-02	9.11658602e-04
4.12500000e-02	2.16999409e-02	9.33607512e-04
4.15000000e-02	2.14818894e-02	9.15262233e-04
4.17500000e-02	2.16226777e-02	9.15280470e-04
4.20000000e-02	2.14762591e-02	9.02262461e-04
4.22500000e-02	2.13146718e-02	9.07551750e-04
4.25000000e-02	2.15690077e-02	9.15846107e-04
4.27500000e-02	2.14234533e-02	9.07226767e-04
4.30000000e-02	2.10845589e-02	8.89919190e-04
4.32500000e-02	2.13405364e-02	8.95404305e-04
4.35000000e-02	2.11896457e-02	9.02226436e-04
4.37500000e-02	2.09682818e-02	8.75347296e-04
4.40000000e-02	2.07379414e-02	8.80204051e-04
4.42500000e-02	2.07627555e-02	8.78558353e-04
4.45000000e-02	2.08890184e-02	8.70580814e-04
4.47500000e-02	2.13500558e-02	8.91982278e-04
4.50000000e-02	2.01591236e-02	8.49835327e-04
4.52500000e-02	2.08914168e-02	8.73491550e-04
4.55000000e-02	2.03380762e-02	8.42994512e-04
4.57500000e-02	1.99322712e-02	8.31569946e-04
4.60000000e-02	2.07100801e-02	8.62633124e-04
4.62500000e-02	2.03279977e-02	8.47714134e-04
4.65000000e-02	2.03708097e-02	8.40532057e-04
4.67500000e-02	2.03805499e-02	8.43293685e-04
4.70000000e-02	2.05275268e-02	8.47554399e-04
4.72500000e-02	2.02853336e-02	8.27239828e-04
4.75000000e-02	2.13718267e-02	8.90277818e-04
4.77500000e-02	2.13441619e-02	8.62296172e-04
4.80000000e-02	2.04465483e-02	8.29528762e-04
4.82500000e-02	2.07693835e-02	8.39706177e-04
4.85000000e-02	2.12656988e-02	8.76265768e-04
4.87500000e-02	2.10556218e-02	8.50770258e-04
4.90000000e-02	2.09895887e-02	8.41088020e-04
4.92500000e-02	2.03127279e-02	8.25429168e-04
4.95000000e-02	2.10362784e-02	8.48212499e-04
4.97500000e-02	2.05209740e-02	8.29673614e-04
5.00000000e-02	2.03500330e-02	8.22427259e-04
5.02500000e-02	2.01898012e-02	8.07076833e-04
5.05000000e-02	2.03918956e-02	8.13256877e-04
5.07500000e-02	2.07377849e-02	8.29306372e-04
5.10000000e-02	2.04733471e-02	8.13957276e-04
5.12500000e-02	2.12188409e-02	8.34902211e-04
5.15000000e-02	2.03054137e-02	7.98982814e-04
5.17500000e-02	2.03243265e-02	8.06065029e-04
5.20000000e-02	2.01654346e-02	7.97847082e-04
5.22500000e-02	1.99623509e-02	7.98101896e-04
5.25000000e-02	2.16217428e-02	8.39877514e-04
5.27500000e-02	2.09756628e-02	8.17989664e-04
5.30000000e-02	2.06116014e-02	8.13719279e-04
5.32500000e-02	2.07902826e-02	8.19780951e-04
5.35000000e-02	2.06407001e-02	8.12763166e-04
5.37500000e-02	2.08212109e-02	8.13467104e-04
5.40000000e-02	2.08645464e-02	8.04019540e-04
5.42500000e-02	2.08931048e-02	8.03636030e-04
5.45000000e-02	2.01161820e-02	7.80700554e-04
5.47500000e-02	2.04563917e-02	7.87309923e-04
5.50000000e-02	2.06024327e-02	7.93618094e-04
5.52500000e-02	2.04217750e-02	7.83326044e-04
5.55000000e-02	2.02416733e-02	7.75589615e-04
5.57500000e-02	2.06267413e-02	7.97342113e-04
5.60000000e-02	2.04852892e-02	7.86761406e-04
5.62500000e-02	2.00354597e-02	7.77372915e-04
5.65000000e-02	2.01533496e-02	7.68807152e-04
5.67500000e-02	2.05510983e-02	7.84575354e-04
5.70000000e-02	2.00802346e-02	7.61407492e-04
5.72500000e-02	2.04526618e-02	7.77207701e-04
5.75000000e-02	1.97806056e-02	7.55151536e-04
5.77500000e-02	2.07035208e-02	7.79690257e-04
5.80000000e-02	2.05979927e-02	7.87386981e-04
5.82500000e-02	2.02002432e-02	7.62830850e-04
5.85000000e-02	1.99052734e-02	7.52256001e-04
5.87500000e-02	2.01555288e-02	7.51292842e-04
5.90000000e-02	2.02021077e-02	7.59775520e-04
5.92500000e-02	2.08625756e-02	7.80479383e-04
5.95000000e-02	2.05965992e-02	7.63900343e-04
5.97500000e-02	2.03559278e-02	7.65479889e-04
6.00000000e-02	1.98034092e-02	7.35174210e-04
6.02500000e-02	2.03141977e-02	7.53502163e-04
6.05000000e-02	1.98770252e-02	7.41129085e-04
6.07500000e-02	2.03840985e-02	7.58207949e-04
6.10000000e-02	2.02318497e-02	7.44459821e-04
6.12500000e-02	2.01421797e-02	7.43361390e-04
6.15000000e-02	2.02686423e-02	7.51966054e-04
6.17500000e-02	2.03826920e-02	7.45952332e-04
6.20000000e-02	2.03614030e-02	7.51260810e-04
6.22500000e-02	1.99020838e-02	7.34632154e-04
6.25000000e-02	2.02828161e-02	7.43459177e-04
6.27500000e-02	2.01308210e-02	7.35920604e-04
6.30000000e-02	1.95044083e-02	7.17457988e-04
6.32500000e-02	1.97400527e-02	7.20642507e-04
6.35000000e-02	2.01106151e-02	7.37302638e-04
6.37500000e-02	2.05673976e-02	7.52433098e-04
6.40000000e-02	2.06793104e-02	7.44240297e-04
6.42500000e-02	2.01894727e-02	7.22270163e-04
6.45000000e-02	1.98945235e-02	7.19056367e-04
6.47500000e-02	2.05873195e-02	7.39974616e-04
6.50000000e-02	1.99158348e-02	7.26210998e-04
6.52500000e-02	2.02413230e-02	7.26982445e-04
6.55000000e-02	2.06319675e-02	7.41094956e-04
6.57500000e-02	2.00222280e-02	7.16394393e-04
6.60000000e-02	1.98283868e-02	7.13911469e-04
6.62500000e-02	2.03927179e-02	7.36868812e-04
6.65000000e-02	1.98202312e-02	7.09534741e-04
6.67500000e-02	2.01775134e-02	7.18720719e-04
6.70000000e-02	2.05003914e-02	7.30831928e-04
6.72500000e-02	1.98358370e-02	7.08548255e-04
6.75000000e-02	1.97282043e-02	7.01843205e-04
6.77500000e-02	1.99530674e-02	7.08936380e-04
6.80000000e-02	1.98632155e-02	7.08466926e-04
6.82500000e-02	2.00472282e-02	7.06705363e-04
6.85000000e-02	2.02493389e-02	7.24370391e-04
6.87500000e-02	2.02957678e-02	7.16117846e-04
6.90000000e-02	2.02332665e-02	7.12127397e-04
6.92500000e-02	1.99668320e-02	6.99190807e-04
6.95000000e-02	2.02388350e-02	7.16521938e-04
6.97500000e-02	2.02727557e-02	7.08414972e-04
7.00000000e-02	1.97187041e-02	6.85047846e-04
7.02500000e-02	2.04559149e-02	7.10806199e-04
7.05000000e-02	1.98118034e-02	6.87087175e-04
7.07500000e-02	2.03262871e-02	7.08984634e-04
7.10000000e-02	2.04914361e-02	7.10056682e-04
7.12500000e-02	2.02275350e-02	7.07590940e-04
7.15000000e-02	2.02116159e-02	6.99083564e-04
7.17500000e-02	2.01813040e-02	6.97620547e-04
7.20000000e-02	2.07691106e-02	7.13148759e-04
7.22500000e-02	2.01642504e-02	6.97349566e-04
7.25000000e-02	1.97000877e-02	6.75446247e-04
7.27500000e-02	1.97005645e-02	6.86830871e-04
7.30000000e-02	1.99231083e-02	6.91349235e-04
7.32500000e-02	1.96565373e-02	6.74357119e-04
7.35000000e-02	1.98935933e-02	6.82204374e-04
7.37500000e-02	1.94050326e-02	6.67900908e-04
7.40000000e-02	1.99728381e-02	6.89041222e-04
7.42500000e-02	2.00466643e-02	6.86263221e-04
7.45000000e-02	2.03753060e-02	6.91882700e-04
7.47500000e-02	2.01754140e-02	6.88157801e-04
7.50000000e-02	1.99308026e-02	6.77526655e-04
7.52500000e-02	2.01432422e-02	6.83664801e-04
7.55000000e-02	2.01511917e-02	6.79896058e-04
7.57500000e-02	1.95826160e-02	6.63622159e-04
7.60000000e-02	1.99639371e-02	6.74136978e-04
7.62500000e-02	2.00801112e-02	6.74502937e-04
7.65000000e-02	1.98772100e-02	6.72022782e-04
7.67500000e-02	2.01729839e-02	6.74863855e-04
7.70000000e-02	2.04050047e-02	6.80130489e-04
7.72500000e-02	1.98631674e-02	6.77927501e-04
7.75000000e-02	2.03916379e-02	7.02550062e-04
7.77500000e-02	2.04298331e-02	7.09818074e-04
7.80000000e-02	1.99365025e-02	6.91160355e-04
7.82500000e-02	1.98267220e-02	6.87242364e-04
7.85000000e-02	1.95571475e-02	6.87234050e-04
7.87500000e-02	1.98862866e-02	7.02931142e-04
7.90000000e-02	1.97934505e-02	7.03260603e-04
7.92500000e-02	2.01396860e-02	7.09386287e-04
7.95000000e-02	2.01185280e-02	7.17553691e-04
7.97500000e-02	1.97587385e-02	7.07365045e-04
8.00000000e-02	2.02163413e-02	7.22410674e-04
8.02500000e-02	2.00916629e-02	7.18812099e-04
8.05000000e-02	1.99285242e-02	7.14705373e-04
8.07500000e-02	2.01732829e-02	7.28071492e-04
8.10000000e-02	2.01955179e-02	7.28551122e-04
8.12500000e-02	2.06284684e-02	7.40585673e-04
8.15000000e-02	2.00460991e-02	7.22621750e-04
8.17500000e-02	1.95738657e-02	7.08159695e-04
8.20000000e-02	1.98062334e-02	7.22287077e-04
8.22500000e-02	1.96206633e-02	7.14782862e-04
8.25000000e-02	1.97562195e-02	7.20307037e-04
8.27500000e-02	1.95791089e-02	7.11990232e-04
8.30000000e-02	1.98417508e-02	7.22873438e-04
8.32500000e-02	1.97375603e-02	7.21883112e-04
8.35000000e-02	2.03225828e-02	7.45828117e-04
8.37500000e-02	1.91699882e-02	6.98043296e-04
8.40000000e-02	1.94431290e-02	7.12670074e-04
8.42500000e-02	1.96864669e-02	7.28058638e-04
8.45000000e-02	2.02098345e-02	7.39325596e-04
8.47500000e-02	2.02548643e-02	7.52982846e-04
8.50000000e-02	1.95801356e-02	7.20960038e-04
8.52500000e-02	1.94354540e-02	7.24475058e-04
8.55000000e-02	1.99951140e-02	7.38946296e-04
8.57500000e-02	1.98284295e-02	7.32527083e-04
8.60000000e-02	1.93922756e-02	7.23631918e-04
8.62500000e-02	2.01045819e-02	7.48127600e-04
8.65000000e-02	1.95700850e-02	7.28439923e-04
8.67500000e-02	1.97709741e-02	7.29668662e-04
8.70000000e-02	1.99889647e-02	7.23733990e-04
8.72500000e-02	2.00080178e-02	7.07689536e-04
8.75000000e-02	1.96364577e-02	6.89522565e-04
8.77500000e-02	1.96449554e-02	6.92562541e-04
8.80000000e-02	1.92962950e-02	6.79856178e-04
8.82500000e-02	1.97062281e-02	6.90656006e-04
8.85000000e-02	1.95866219e-02	6.85915889e-04
8.87500000e-02	2.03179509e-02	7.01588715e-04
8.90000000e-02	1.94497418e-02	6.65778349e-04
8.92500000e-02	1.99194788e-02	6.85604702e-04
8.95000000e-02	1.98308029e-02	6.82815587e-04
8.97500000e-02	1.96847251e-02	6.66542951e-04
9.00000000e-02	2.00426580e-02	6.79886415e-04
9.02500000e-02	2.00359620e-02	6.79977299e-04
9.05000000e-02	1.95122045e-02	6.65487180e-04
9.07500000e-02	1.97403239e-02	6.65888835e-04
9.10000000e-02	1.96674268e-02	6.60404486e-04
9.12500000e-02	1.96361439e-02	6.57450707e-04
9.15000000e-02	2.01458618e-02	6.74955135e-04
9.17500000e-02	1.99853032e-02	6.73464117e-04
9.20000000e-02	2.02102328e-02	6.72278316e-04
9.22500000e-02	1.95223716e-02	6.50641565e-04
9.25000000e-02	1.95397276e-02	6.47465227e-04
9.27500000e-02	1.96773840e-02	6.51906210e-04
9.30000000e-02	1.97453457e-02	6.48965716e-04
9.32500000e-02	1.96816245e-02	6.52680199e-04
9.35000000e-02	1.96117677e-02	6.49726558e-04
9.37500000e-02	1.97417995e-02	6.45291311e-04
9.40000000e-02	1.95908160e-02	6.43667881e-04
9.42500000e-02	1.96068737e-02	6.41995792e-04
9.45000000e-02	1.96608949e-02	6.43746402e-04
9.47500000e-02	1.95735009e-02	6.45804644e-04
9.50000000e-02	1.98587539e-02	6.47554129e-04
9.52500000e-02	2.00028123e-02	6.50314766e-04
9.55000000e-02	2.00366871e-02	6.47496051e-04
9.57500000e-02	2.00466102e-02	6.52177997e-04
9.60000000e-02	1.96301682e-02	6.34282676e-04
9.62500000e-02	1.97073486e-02	6.41480892e-04
9.65000000e-02	2.00152655e-02	6.46242898e-04
9.67500000e-02	2.00041276e-02	6.37252029e-04
9.70000000e-02	1.96091285e-02	6.30126760e-04
9.72500000e-02	1.96690655e-02	6.29753114e-04
9.75000000e-02	1.96975782e-02	6.31477108e-04
9.77500000e-02	1.98919865e-02	6.25119906e-04
9.80000000e-02	1.91146187e-02	6.10954930e-04
9.82500000e-02	1.96483516e-02	6.29653309e-04
9.85000000e-02	1.95644953e-02	6.23138719e-04
9.87500000e-02	1.98243416e-02	6.28823822e-04
9.90000000e-02	2.00790081e-02	6.32586111e-04
9.92500000e-02	1.98366888e-02	6.29037912e-04
9.95000000e-02	1.97714282e-02	6.26228967e-04
9.97500000e-02	1.95215418e-02	6.13871231e-04
1.00000000e-01	1.95862603e-02	5.01978318e-04
1.00500000e-01	1.96345308e-02	4.38532076e-04
1.01000000e-01	1.97267639e-02	4.36843791e-04
1.01500000e-01	1.96561995e-02	4.35194995e-04
1.02000000e-01	1.97591429e-02	4.34216106e-04
1.02500000e-01	1.97122212e-02	4.30323421e-04
1.03000000e-01	1.95716671e-02	4.28716707e-04
1.03500000e-01	1.95733881e-02	4.28333909e-04
1.04000000e-01	1.95955485e-02	4.28753820e-04
1.04500000e-01	1.95751052e-02	4.26026216e-04
1.05000000e-01	1.99179816e-02	4.29383005e-04
1.05500000e-01	1.98794696e-02	4.30291171e-04
1.06000000e-01	1.98231628e-02	4.25248291e-04
1.06500000e-01	1.95963063e-02	4.22107221e-04
1.07000000e-01	1.96090113e-02	4.26589388e-04
1.07500000e-01	1.98487280e-02	4.35967293e-04
1.08000000e-01	1.97453165e-02	4.41796929e-04
1.08500000e-01	1.93520614e-02	4.34454224e-04
1.09000000e-01	1.98204218e-02	4.46316151e-04
1.09500000e-01	1.95259956e-02	4.43649824e-04
1.10000000e-01	2.00304221e-02	4.50144324e-04
1.10500000e-01	1.96204477e-02	4.31080814e-04
1.11000000e-01	1.97945491e-02	4.27583195e-04
1.11500000e-01	1.96010007e-02	4.20446395e-04
1.12000000e-01	1.93685754e-02	4.13512521e-04
1.12500000e-01	1.94325340e-02	4.13226119e-04
1.13000000e-01	1.95397319e-02	4.10910447e-04
1.13500000e-01	1.97520198e-02	4.16404842e-04
1.14000000e-01	1.95623779e-02	4.09777367e-04
1.14500000e-01	1.98869371e-02	4.17452886e-04
1.15000000e-01	1.97912031e-02	4.11611757e-04
1.15500000e-01	1.95980484e-02	4.09321601e-04
1.16000000e-01	1.97224947e-02	4.09423292e-04
1.16500000e-01	2.00710258e-02	4.16192325e-04
1.17000000e-01	1.99487164e-02	4.13837129e-04
1.17500000e-01	1.95291568e-02	4.01784119e-04
1.18000000e-01	1.98896660e-02	4.08204642e-04
1.18500000e-01	1.99830436e-02	4.07745487e-04
1.19000000e-01	1.97998452e-02	4.05364076e-04
1.19500000e-01	1.93883949e-02	3.96356930e-04
1.20000000e-01	1.98175850e-02	4.04277249e-04
1.20500000e-01	1.96526030e-02	3.97525637e-04
1.21000000e-01	1.97389343e-02	3.99316042e-04
1.21500000e-01	1.97386378e-02	3.99284868e-04
1.22000000e-01	1.96338428e-02	3.94325886e-04
1.22500000e-01	1.97079747e-02	3.95991259e-04
1.23000000e-01	2.01037198e-02	4.04060443e-04
1.23500000e-01	1.95922164e-02	3.93507405e-04
1.24000000e-01	1.95688323e-02	3.91252294e-04
1.24500000e-01	1.96772345e-02	3.92770737e-04
1.25000000e-01	1.95501364e-02	3.90223436e-04
1.25500000e-01	1.95733556e-02	3.88617337e-04
1.26000000e-01	1.96780044e-02	3.91741372e-04
1.26500000e-01	1.94799720e-02	3.85490324e-04
1.27000000e-01	1.96372143e-02	3.86954873e-04
1.27500000e-01	2.01211939e-02	3.94998839e-04
1.28000000e-01	1.96838635e-02	3.87221790e-04
1.28500000e-01	1.93415071e-02	3.78391243e-04
1.29000000e-01	1.97862547e-02	3.88127691e-04
1.29500000e-01	1.95747158e-02	3.84538531e-04
1.30000000e-01	1.95434520e-02	3.82363080e-04
1.30500000e-01	1.95805641e-02	3.81971642e-04
1.31000000e-01	1.95407401e-02	3.80340055e-04
1.31500000e-01	1.95393679e-02	3.79008854e-04
1.32000000e-01	1.99812912e-02	3.85256343e-04
1.32500000e-01	1.90994406e-02	3.67986697e-04
1.33000000e-01	1.96788390e-02	3.78465381e-04
1.33500000e-01	1.96056718e-02	3.74907476e-04
1.34000000e-01	1.95199893e-02	3.72608782e-04
1.34500000e-01	1.93914152e-02	3.71157990e-04
1.35000000e-01	1.98046023e-02	3.75262478e-04
1.35500000e-01	1.97319971e-02	3.73969429e-04
1.36000000e-01	1.95253085e-02	3.70201043e-04
1.36500000e-01	1.94801186e-02	3.71672555e-04
1.37000000e-01	1.95228744e-02	3.68582328e-04
1.37500000e-01	1.97397056e-02	3.71907591e-04
1.38000000e-01	1.96810930e-02	3.70467579e-04
1.38500000e-01	1.96366786e-02	3.70228076e-04
1.39000000e-01	1.91795737e-02	3.61305250e-04
1.39500000e-01	1.95166683e-02	3.66546426e-04
1.40000000e-01	1.95442445e-02	3.67837423e-04
1.40500000e-01	1.94895263e-02	3.64459875e-04
1.41000000e-01	1.95567991e-02	3.67678397e-04
1.41500000e-01	1.95637558e-02	3.66346759e-04
1.42000000e-01	1.93539428e-02	3.60376983e-04
1.42500000e-01	1.95189761e-02	3.63407862e-04
1.43000000e-01	1.94039905e-02	3.61832777e-04
1.43500000e-01	1.92896485e-02	3.58928422e-04
1.44000000e-01	1.92982244e-02	3.56958828e-04
1.44500000e-01	1.94004732e-02	3.58061284e-04
1.45000000e-01	1.91675446e-02	3.55724078e-04
1.45500000e-01	1.93280515e-02	3.55291045e-04
1.46000000e-01	1.92351948e-02	3.55966811e-04
1.46500000e-01	1.92643521e-02	3.56032265e-04
1.47000000e-01	1.93223104e-02	3.55611323e-04
1.47500000e-01	1.93668016e-02	3.55709230e-04
1.48000000e-01	1.92732395e-02	3.53221597e-04
1.48500000e-01	1.93303072e-02	3.52692668e-04
1.49000000e-01	1.93200583e-02	3.50338710e-04
1.49500000e-01	1.94043674e-02	3.54110768e-04
1.50000000e-01	1.92781707e-02	3.49957906e-04
1.50500000e-01	1.92262011e-02	3.50025525e-04
1.51000000e-01	1.89621681e-02	3.45749503e-04
1.51500000e-01	1.92563182e-02	3.48332716e-04
1.52000000e-01	1.92929366e-02	3.46518536e-04
1.52500000e-01	1.94011067e-02	3.50282023e-04
1.53000000e-01	1.93511911e-02	3.48859755e-04
1.53500000e-01	1.90222760e-02	3.41644212e-04
1.54000000e-01	1.92143845e-02	3.43580843e-04
1.54500000e-01	1.92642109e-02	3.51372126e-04
1.55000000e-01	1.92555552e-02	3.55448405e-04
1.55500000e-01	1.91188837e-02	3.56492544e-04
1.56000000e-01	1.92934681e-02	3.60615626e-04
1.56500000e-01	1.90673565e-02	3.56051741e-04
1.57000000e-01	1.93149753e-02	3.61359456e-04
1.57500000e-01	1.87298452e-02	3.44047270e-04
1.58000000e-01	1.91215724e-02	3.46927190e-04
1.58500000e-01	1.93875387e-02	3.48077102e-04
1.59000000e-01	1.88843113e-02	3.38746010e-04
1.59500000e-01	1.90097897e-02	3.39870526e-04
1.60000000e-01	1.90147414e-02	3.39853706e-04
1.60500000e-01	1.89060773e-02	3.35676809e-04
1.61000000e-01	1.90015955e-02	3.38418551e-04
1.61500000e-01	1.90990290e-02	3.38173893e-04
1.62000000e-01	1.88704164e-02	3.31741805e-04
1.62500000e-01	1.89104424e-02	3.34992578e-04
1.63000000e-01	1.90490713e-02	3.35200544e-04
1.63500000e-01	1.89580295e-02	3.34589472e-04
1.64000000e-01	1.89298063e-02	3.32109405e-04
1.64500000e-01	1.91149997e-02	3.34464616e-04
1.65000000e-01	1.91361289e-02	3.35191331e-04
1.65500000e-01	1.89641807e-02	3.31554782e-04
1.66000000e-01	1.89766313e-02	3.31991240e-04
1.66500000e-01	1.88476941e-02	3.29047906e-04
1.67000000e-01	1.89900588e-02	3.30725181e-04
1.67500000e-01	1.90507963e-02	3.31006997e-04
1.68000000e-01	1.88330038e-02	3.25816042e-04
1.68500000e-01	1.89667716e-02	3.28021742e-04
1.69000000e-01	1.89694846e-02	3.26858871e-04
1.69500000e-01	1.88302336e-02	3.24897457e-04
1.70000000e-01	1.92639839e-02	3.31605707e-04
1.70500000e-01	1.87910819e-02	3.23836645e-04
1.71000000e-01	1.91434339e-02	3.28970595e-04
1.71500000e-01	1.90013562e-02	3.27185038e-04
1.72000000e-01	1.86816473e-02	3.20693919e-04
1.72500000e-01	1.88740090e-02	3.22861513e-04
1.73000000e-01	1.89433862e-02	3.23793245e-04
1.73500000e-01	1.89233428e-02	3.21574632e-04
1.74000000e-01	1.85436009e-02	3.15536277e-04
1.74500000e-01	1.86997403e-02	3.17391836e-04
1.75000000e-01	1.87597708e-02	3.16558109e-04
1.75500000e-01	1.85643580e-02	3.11692525e-04
1.76000000e-01	1.86103406e-02	3.13407267e-04
1.76500000e-01	1.84433693e-02	3.10972153e-04
1.77000000e-01	1.87718673e-02	3.15975970e-04
1.77500000e-01	1.87179411e-02	3.13116152e-04
1.78000000e-01	1.86314211e-02	3.11128612e-04
1.78500000e-01	1.89440253e-02	3.17795295e-04
1.79000000e-01	1.89494581e-02	3.17526350e-04
1.79500000e-01	1.84330608e-02	3.09835904e-04
1.80000000e-01	1.85301472e-02	3.11096314e-04
1.80500000e-01	1.88782098e-02	3.15558304e-04
1.81000000e-01	1.85599828e-02	3.10592024e-04
1.81500000e-01	1.86047936e-02	3.09747563e-04
1.82000000e-01	1.87253009e-02	3.12129962e-04
1.82500000e-01	1.86728548e-02	3.10376091e-04
1.83000000e-01	1.86839900e-02	3.11500477e-04
1.83500000e-01	1.85043707e-02	3.05978278e-04
1.84000000e-01	1.86797596e-02	3.08426032e-04
1.84500000e-01	1.86696248e-02	3.09175962e-04
1.85000000e-01	1.84499701e-02	3.05812790e-04
1.85500000e-01	1.83708427e-02	3.03112718e-04
1.86000000e-01	1.85600643e-02	3.06389094e-04
1.86500000e-01	1.84326012e-02	3.04228777e-04
1.87000000e-01	1.84741179e-02	3.04612188e-04
1.87500000e-01	1.86098148e-02	3.05193591e-04
1.88000000e-01	1.84752746e-02	3.03477758e-04
1.88500000e-01	1.85547549e-02	3.03141460e-04
1.89000000e-01	1.85183489e-02	3.02101494e-04
1.89500000e-01	1.83176223e-02	2.99775923e-04
1.90000000e-01	1.85769258e-02	3.02609605e-04
1.90500000e-01	1.87914283e-02	3.06812367e-04
1.91000000e-01	1.85376973e-02	3.01473953e-04
1.91500000e-01	1.83313362e-02	2.98840185e-04
1.92000000e-01	1.86849231e-02	3.02399754e-04
1.92500000e-01	1.85100813e-02	2.99957419e-04
1.93000000e-01	1.84156402e-02	2.97955395e-04
1.93500000e-01	1.84919250e-02	2.98841574e-04
1.94000000e-01	1.87039511e-02	3.01602711e-04
1.94500000e-01	1.83093056e-02	2.96078702e-04
1.95000000e-01	1.84808019e-02	2.98690986e-04
1.95500000e-01	1.84298474e-02	2.96246871e-04
1.96000000e-01	1.82775055e-02	2.94284450e-04
1.96500000e-01	1.83122354e-02	2.93280494e-04
1.97000000e-01	1.83045668e-02	2.93340804e-04
1.97500000e-01	1.83709232e-02	2.94179638e-04
1.98000000e-01	1.85391363e-02	2.96117178e-04
1.98500000e-01	1.83564490e-02	2.92218556e-04
1.99000000e-01	1.81524230e-02	2.89925585e-04
1.99500000e-01	1.84951384e-02	2.94183768e-04
2.00000000e-01	1.82999336e-02	2.91758462e-04
2.00500000e-01	1.84615596e-02	2.93644650e-04
2.01000000e-01	1.80516109e-02	2.88130502e-04
2.01500000e-01	1.81173176e-02	2.87378033e-04
2.02000000e-01	1.83711587e-02	2.90567168e-04
2.02500000e-01	1.85545893e-02	2.93435548e-04
2.03000000e-01	1.83519419e-02	2.90231375e-04
2.03500000e-01	1.80358651e-02	2.86309143e-04
2.04000000e-01	1.84130573e-02	2.90644490e-04
2.04500000e-01	1.83306490e-02	2.89056270e-04
2.05000000e-01	1.81568118e-02	2.84581168e-04
2.05500000e-01	1.81259307e-02	2.85611424e-04
2.06000000e-01	1.83659998e-02	2.86653743e-04
2.06500000e-01	1.80878490e-02	2.82810585e-04
2.07000000e-01	1.80876610e-02	2.82987407e-04
2.07500000e-01	1.82650224e-02	2.85030658e-04
2.08000000e-01	1.79415800e-02	2.81278316e-04
2.08500000e-01	1.80149031e-02	2.80571139e-04
2.09000000e-01	1.81633115e-02	2.83100656e-04
2.09500000e-01	1.80329934e-02	2.81233642e-04
2.10000000e-01	1.81998656e-02	2.83280568e-04
2.10500000e-01	1.80845592e-02	2.80944888e-04
2.11000000e-01	1.82243820e-02	2.82324330e-04
2.11500000e-01	1.80883056e-02	2.80831351e-04
2.12000000e-01	1.82512237e-02	2.81177346e-04
2.12500000e-01	1.80249328e-02	2.79941400e-04
2.13000000e-01	1.80623718e-02	2.79280965e-04
2.13500000e-01	1.79455245e-02	2.76475102e-04
2.14000000e-01	1.78768363e-02	2.75750351e-04
2.14500000e-01	1.81099608e-02	2.78040639e-04
2.15000000e-01	1.80310737e-02	2.78176241e-04
2.15500000e-01	1.81377072e-02	2.77738228e-04
2.16000000e-01	1.80916497e-02	2.77797238e-04
2.16500000e-01	1.78893745e-02	2.73766882e-04
2.17000000e-01	1.79934160e-02	2.79802024e-04
2.17500000e-01	1.78621796e-02	2.81630780e-04
2.18000000e-01	1.79631240e-02	2.83726348e-04
2.18500000e-01	1.79567978e-02	2.86961842e-04
2.19000000e-01	1.81053128e-02	2.89416173e-04
2.19500000e-01	1.79325382e-02	2.87715100e-04
2.20000000e-01	1.82488589e-02	2.92677083e-04
2.20500000e-01	1.78477483e-02	2.88669723e-04
2.21000000e-01	1.77754496e-02	2.88871643e-04
2.21500000e-01	1.77768977e-02	2.89835573e-04
2.22000000e-01	1.77107191e-02	2.88967898e-04
2.22500000e-01	1.81401176e-02	2.94793880e-04
2.23000000e-01	1.78905097e-02	2.92700515e-04
2.23500000e-01	1.76118187e-02	2.89326640e-04
2.24000000e-01	1.79909309e-02	2.95363277e-04
2.24500000e-01	1.78860219e-02	2.94933095e-04
2.25000000e-01	1.79067011e-02	2.95697964e-04
2.25500000e-01	1.78549644e-02	2.94551231e-04
2.26000000e-01	1.78285024e-02	2.97301675e-04
2.26500000e-01	1.77775005e-02	2.89260922e-04
2.27000000e-01	1.79136169e-02	2.89159445e-04
2.27500000e-01	1.77764841e-02	2.84262546e-04
2.28000000e-01	1.79384532e-02	2.85337295e-04
2.28500000e-01	1.78574715e-02	2.83600599e-04
2.29000000e-01	1.80823332e-02	2.85308160e-04
2.29500000e-01	1.80146172e-02	2.82704979e-04
2.30000000e-01	1.79201221e-02	2.81248435e-04
2.30500000e-01	1.78035548e-02	2.78290915e-04
2.31000000e-01	1.78883922e-02	2.79599712e-04
2.31500000e-01	1.79208759e-02	2.79239582e-04
2.32000000e-01	1.78821034e-02	2.76825585e-04
2.32500000e-01	1.75684735e-02	2.72061328e-04
2.33000000e-01	1.79115198e-02	2.76585935e-04
2.33500000e-01	1.77604194e-02	2.74116098e-04
2.34000000e-01	1.75108732e-02	2.70727950e-04
2.34500000e-01	1.75662416e-02	2.69048689e-04
2.35000000e-01	1.77055629e-02	2.73654907e-04
2.35500000e-01	1.79443298e-02	2.73933794e-04
2.36000000e-01	1.77772415e-02	2.71938997e-04
2.36500000e-01	1.79072530e-02	2.74371658e-04
2.37000000e-01	1.77051299e-02	2.70189311e-04
2.37500000e-01	1.74835958e-02	2.65736612e-04
2.38000000e-01	1.76009968e-02	2.67637829e-04
2.38500000e-01	1.75028098e-02	2.65395629e-04
2.39000000e-01	1.76106621e-02	2.66338520e-04
2.39500000e-01	1.76544886e-02	2.67129500e-04
2.40000000e-01	1.75929363e-02	2.64496066e-04
2.40500000e-01	1.75963209e-02	2.64670547e-04
2.41000000e-01	1.76720685e-02	2.65845550e-04
2.41500000e-01	1.75106637e-02	2.62605300e-04
2.42000000e-01	1.76673715e-02	2.64954183e-04
2.42500000e-01	1.74560738e-02	2.62452420e-04
2.43000000e-01	1.77045425e-02	2.65273354e-04
2.43500000e-01	1.77352839e-02	2.64939216e-04
2.44000000e-01	1.76007503e-02	2.61945761e-04
2.44500000e-01	1.75436389e-02	2.61111991e-04
2.45000000e-01	1.76568274e-02	2.62978199e-04
2.45500000e-01	1.74178359e-02	2.59072317e-04
2.46000000e-01	1.76468374e-02	2.62396232e-04
2.46500000e-01	1.77917856e-02	2.63257260e-04
2.47000000e-01	1.77620284e-02	2.62146003e-04
2.47500000e-01	1.75818866e-02	2.59402419e-04
2.48000000e-01	1.74426986e-02	2.57009516e-04
2.48500000e-01	1.72977290e-02	2.55140896e-04
2.49000000e-01	1.73854047e-02	2.56585791e-04
2.49500000e-01	1.75323621e-02	2.58064222e-04
2.50000000e-01	1.74853721e-02	2.56782221e-04
2.50500000e-01	1.75302424e-02	2.57689413e-04
2.51000000e-01	1.74906756e-02	2.55979843e-04
2.51500000e-01	1.75362848e-02	2.57004062e-04
2.52000000e-01	1.73763372e-02	2.54204257e-04
2.52500000e-01	1.74549701e-02	2.54042546e-04
2.53000000e-01	1.75821589e-02	2.56678141e-04
2.53500000e-01	1.72445399e-02	2.51714453e-04
2.54000000e-01	1.73495376e-02	2.53187958e-04
2.54500000e-01	1.72650362e-02	2.51634211e-04
2.55000000e-01	1.73854468e-02	2.52206813e-04
2.55500000e-01	1.73022931e-02	2.51822469e-04
2.56000000e-01	1.73936196e-02	2.51248850e-04
2.56500000e-01	1.75468043e-02	2.53688503e-04
2.57000000e-01	1.74652820e-02	2.52597893e-04
2.57500000e-01	1.73214031e-02	2.50402179e-04
2.58000000e-01	1.73286113e-02	2.51115955e-04
2.58500000e-01	1.72662622e-02	2.49673226e-04
2.59000000e-01	1.74713033e-02	2.51825370e-04
2.59500000e-01	1.72965980e-02	2.48723088e-04
2.60000000e-01	1.73855800e-02	2.48772899e-04
2.60500000e-01	1.74143221e-02	2.50322260e-04
2.61000000e-01	1.72257082e-02	2.46707573e-04
2.61500000e-01	1.72728703e-02	2.47215388e-04
2.62000000e-01	1.70006955e-02	2.41895323e-04
2.62500000e-01	1.73551870e-02	2.48608478e-04
2.63000000e-01	1.71895001e-02	2.45488688e-04
2.63500000e-01	1.72199063e-02	2.45361916e-04
2.64000000e-01	1.72942255e-02	2.47546498e-04
2.64500000e-01	1.73526588e-02	2.46249341e-04
2.65000000e-01	1.72453171e-02	2.46007299e-04
2.65500000e-01	1.72312179e-02	2.45032757e-04
2.66000000e-01	1.71492613e-02	2.43561345e-04
2.66500000e-01	1.71367247e-02	2.42394557e-04
2.67000000e-01	1.72806326e-02	2.44294165e-04
2.67500000e-01	1.72476792e-02	2.43344025e-04
2.68000000e-01	1.70778652e-02	2.41064179e-04
2.68500000e-01	1.72116629e-02	2.42655305e-04
2.69000000e-01	1.71593801e-02	2.42376663e-04
2.69500000e-01	1.71266900e-02	2.40282622e-04
2.70000000e-01	1.71419253e-02	2.41317128e-04
2.70500000e-01	1.72692558e-02	2.42606349e-04
2.71000000e-01	1.70964954e-02	2.40077400e-04
2.71500000e-01	1.70527445e-02	2.39318148e-04
2.72000000e-01	1.71741599e-02	2.40157251e-04
2.72500000e-01	1.71946237e-02	2.40759617e-04
2.73000000e-01	1.71267842e-02	2.39098637e-04
2.73500000e-01	1.70928605e-02	2.38474206e-04
2.74000000e-01	1.72543441e-02	2.40785529e-04
2.74500000e-01	1.70324044e-02	2.36791237e-04
2.75000000e-01	1.73019796e-02	2.40447381e-04
2.75500000e-01	1.71587218e-02	2.39613221e-04
2.76000000e-01	1.71952595e-02	2.39766847e-04
2.76500000e-01	1.70837274e-02	2.36992493e-04
2.77000000e-01	1.70251440e-02	2.35670919e-04
2.77500000e-01	1.70118663e-02	2.36575000e-04
2.78000000e-01	1.69903503e-02	2.35139849e-04
2.78500000e-01	1.69339543e-02	2.34712957e-04
2.79000000e-01	1.70447379e-02	2.34939158e-04
2.79500000e-01	1.70568040e-02	2.36308572e-04
2.80000000e-01	1.70328561e-02	2.36021630e-04
2.80500000e-01	1.70791737e-02	2.35199534e-04
2.81000000e-01	1.69475687e-02	2.34251444e-04
2.81500000e-01	1.69048643e-02	2.32897340e-04
2.82000000e-01	1.69994478e-02	2.34552554e-04
2.82500000e-01	1.70610892e-02	2.35310517e-04
2.83000000e-01	1.68758429e-02	2.31377633e-04
2.83500000e-01	1.70506227e-02	2.33868569e-04
2.84000000e-01	1.70791730e-02	2.34444274e-04
2.84500000e-01	1.71126871e-02	2.34561903e-04
2.85000000e-01	1.69790526e-02	2.31911709e-04
2.85500000e-01	1.69054754e-02	2.30355174e-04
2.86000000e-01	1.69984737e-02	2.32033068e-04
2.86500000e-01	1.68905614e-02	2.31023502e-04
2.87000000e-01	1.70328060e-02	2.32385993e-04
2.87500000e-01	1.68799861e-02	2.29617357e-04
2.88000000e-01	1.69362888e-02	2.29710592e-04
2.88500000e-01	1.69374955e-02	2.30428262e-04
2.89000000e-01	1.69936219e-02	2.30273442e-04
2.89500000e-01	1.69234272e-02	2.29767698e-04
2.90000000e-01	1.64821689e-02	2.24227142e-04
2.90500000e-01	1.68802474e-02	2.28651839e-04
2.91000000e-01	1.67971904e-02	2.27371195e-04
2.91500000e-01	1.69003348e-02	2.27669186e-04
2.92000000e-01	1.68813862e-02	2.28015424e-04
2.92500000e-01	1.68426150e-02	2.27206332e-04
2.93000000e-01	1.70382519e-02	2.28902209e-04
2.93500000e-01	1.68446152e-02	2.26862820e-04
2.94000000e-01	1.67005901e-02	2.25600377e-04
2.94500000e-01	1.68888347e-02	2.27608557e-04
2.95000000e-01	1.69172031e-02	2.26524321e-04
2.95500000e-01	1.66530904e-02	2.23415566e-04
2.96000000e-01	1.67451434e-02	2.25008968e-04
2.96500000e-01	1.69934821e-02	2.27029340e-04
2.97000000e-01	1.67046109e-02	2.24364595e-04
2.97500000e-01	1.67167010e-02	2.23218278e-04
2.98000000e-01	1.67162335e-02	2.24924635e-04
2.98500000e-01	1.68166534e-02	2.25025106e-04
2.99000000e-01	1.66436007e-02	2.22228035e-04
2.99500000e-01	1.67226218e-02	2.23387519e-04
3.00000000e-01	1.67221930e-02	2.23352367e-04
3.00500000e-01	1.67248242e-02	2.23377777e-04
3.01000000e-01	1.68175981e-02	2.23142776e-04
3.01500000e-01	1.67339475e-02	2.22576084e-04
3.02000000e-01	1.67080034e-02	2.21171727e-04
3.02500000e-01	1.67425036e-02	2.21728426e-04
3.03000000e-01	1.66993965e-02	2.22394222e-04
3.03500000e-01	1.67388362e-02	2.22079018e-04
3.04000000e-01	1.65531481e-02	2.19445718e-04
3.04500000e-01	1.66406594e-02	2.19558360e-04
3.05000000e-01	1.65565082e-02	2.19489575e-04
3.05500000e-01	1.66360190e-02	2.19887203e-04
3.06000000e-01	1.66800834e-02	2.18829340e-04
3.06500000e-01	1.67101786e-02	2.20949907e-04
3.07000000e-01	1.67045968e-02	2.19568451e-04
3.07500000e-01	1.66390495e-02	2.19578565e-04
3.08000000e-01	1.65768422e-02	2.18397318e-04
3.08500000e-01	1.66083759e-02	2.17502157e-04
3.09000000e-01	1.66785239e-02	2.18595345e-04
3.09500000e-01	1.64856168e-02	2.16231836e-04
3.10000000e-01	1.64822293e-02	2.16245662e-04
3.10500000e-01	1.67206143e-02	2.18698175e-04
3.11000000e-01	1.66095684e-02	2.17127356e-04
3.11500000e-01	1.65766316e-02	2.17589421e-04
3.12000000e-01	1.65607926e-02	2.16623981e-04
3.12500000e-01	1.65811739e-02	2.16783425e-04
3.13000000e-01	1.65356702e-02	2.16224868e-04
3.13500000e-01	1.64576503e-02	2.15236752e-04
3.14000000e-01	1.64171063e-02	2.14090866e-04
3.14500000e-01	1.64327854e-02	2.14049169e-04
3.15000000e-01	1.64521821e-02	2.15264180e-04
3.15500000e-01	1.65495040e-02	2.15362366e-04
3.16000000e-01	1.64649095e-02	2.15136758e-04
3.16500000e-01	1.65046628e-02	2.14824375e-04
3.17000000e-01	1.64747859e-02	2.13988980e-04
3.17500000e-01	1.63555289e-02	2.12831258e-04
3.18000000e-01	1.63053004e-02	2.11267013e-04
3.18500000e-01	1.62417768e-02	2.11696426e-04
3.19000000e-01	1.64022039e-02	2.12455205e-04
3.19500000e-01	1.64398383e-02	2.12271128e-04
3.20000000e-01	1.63825827e-02	2.12155439e-04
3.20500000e-01	1.62912879e-02	2.10833574e-04
3.21000000e-01	1.65187377e-02	2.13118421e-04
3.21500000e-01	1.61722675e-02	2.09110251e-04
3.22000000e-01	1.64271983e-02	2.11429095e-04
3.22500000e-01	1.63422951e-02	2.10589404e-04
3.23000000e-01	1.62950540e-02	2.09565977e-04
3.23500000e-01	1.62361255e-02	2.09645508e-04
3.24000000e-01	1.62629745e-02	2.08553031e-04
3.24500000e-01	1.63486131e-02	2.10834803e-04
3.25000000e-01	1.63480839e-02	2.09633950e-04
3.25500000e-01	1.62198834e-02	2.07580179e-04
3.26000000e-01	1.62216112e-02	2.07381325e-04
3.26500000e-01	1.62951680e-02	2.07913219e-04
3.27000000e-01	1.62446429e-02	2.08310043e-04
3.27500000e-01	1.62034946e-02	2.07392577e-04
3.28000000e-01	1.62673272e-02	2.08243016e-04
3.28500000e-01	1.61656074e-02	2.06148060e-04
3.29000000e-01	1.60855551e-02	2.05193794e-04
3.29500000e-01	1.60663365e-02	2.05429799e-04
3.30000000e-01	1.62096781e-02	2.06095132e-04
3.30500000e-01	1.63234343e-02	2.07605287e-04
3.31000000e-01	1.61325861e-02	2.05244225e-04
3.31500000e-01	1.61943502e-02	2.06355090e-04
3.32000000e-01	1.62014498e-02	2.06019318e-04
3.32500000e-01	1.63327864e-02	2.06867693e-04
3.33000000e-01	1.62347843e-02	2.05555187e-04
3.33500000e-01	1.60892468e-02	2.03970425e-04
3.34000000e-01	1.61293524e-02	2.03645284e-04
3.34500000e-01	1.59542013e-02	2.02092677e-04
3.35000000e-01	1.59612931e-02	2.01549946e-04
3.35500000e-01	1.60411810e-02	2.02613257e-04
3.36000000e-01	1.60397951e-02	2.02487610e-04
3.36500000e-01	1.60836614e-02	2.03767721e-04
3.37000000e-01	1.60728269e-02	2.02819497e-04
3.37500000e-01	1.61109359e-02	2.02671322e-04
3.38000000e-01	1.60697027e-02	2.02748712e-04
3.38500000e-01	1.60209997e-02	2.01590719e-04
3.39000000e-01	1.60362305e-02	2.01887642e-04
3.39500000e-01	1.60295535e-02	2.00430969e-04
3.40000000e-01	1.59945494e-02	2.01179172e-04
3.40500000e-01	1.61077814e-02	2.02290990e-04
3.41000000e-01	1.59043295e-02	1.99540375e-04
3.41500000e-01	1.60065129e-02	2.00785200e-04
3.42000000e-01	1.59055249e-02	1.98839903e-04
3.42500000e-01	1.59515625e-02	1.99641834e-04
3.43000000e-01	1.59959769e-02	2.00152730e-04
3.43500000e-01	1.60077788e-02	2.00039009e-04
3.44000000e-01	1.59768631e-02	2.00156281e-04
3.44500000e-01	1.59719964e-02	1.98947130e-04
3.45000000e-01	1.60502591e-02	2.00568772e-04
3.45500000e-01	1.57989621e-02	1.96860814e-04
3.46000000e-01	1.58626737e-02	1.97222710e-04
3.46500000e-01	1.60216074e-02	1.99729905e-04
3.47000000e-01	1.60218245e-02	1.98643080e-04
3.47500000e-01	1.57698083e-02	1.96617361e-04
3.48000000e-01	1.60284339e-02	1.98926913e-04
3.48500000e-01	1.57829984e-02	1.96172457e-04
3.49000000e-01	1.59446590e-02	1.97416092e-04
3.49500000e-01	1.58449167e-02	1.96151064e-04
3.50000000e-01	1.58767936e-02	1.60812240e-04
3.51000000e-01	1.58116733e-02	1.37949979e-04
3.52000000e-01	1.57019593e-02	1.37388834e-04
3.53000000e-01	1.56967696e-02	1.36992077e-04
3.54000000e-01	1.56939543e-02	1.36285917e-04
3.55000000e-01	1.56596988e-02	1.36285428e-04
3.56000000e-01	1.57889088e-02	1.37995244e-04
3.57000000e-01	1.56356316e-02	1.39173598e-04
3.58000000e-01	1.55682256e-02	1.39776146e-04
3.59000000e-01	1.56035708e-02	1.41405937e-04
3.60000000e-01	1.56869986e-02	1.42310251e-04
3.61000000e-01	1.56164494e-02	1.42803059e-04
3.62000000e-01	1.56317470e-02	1.43136869e-04
3.63000000e-01	1.56904507e-02	1.44237481e-04
3.64000000e-01	1.56216408e-02	1.44415388e-04
3.65000000e-01	1.55195473e-02	1.43728076e-04
3.66000000e-01	1.54386536e-02	1.41674875e-04
3.67000000e-01	1.55453603e-02	1.40255193e-04
3.68000000e-01	1.55556845e-02	1.39619070e-04
3.69000000e-01	1.53996401e-02	1.37601980e-04
3.70000000e-01	1.55059993e-02	1.37823485e-04
3.71000000e-01	1.55115426e-02	1.39199778e-04
3.72000000e-01	1.56398562e-02	1.42091596e-04
3.73000000e-01	1.54939440e-02	1.40282782e-04
3.74000000e-01	1.53914104e-02	1.39800951e-04
3.75000000e-01	1.56667542e-02	1.42218255e-04
3.76000000e-01	1.55248055e-02	1.41001494e-04
3.77000000e-01	1.55089182e-02	1.41082734e-04
3.78000000e-01	1.53975649e-02	1.40241198e-04
3.79000000e-01	1.54490593e-02	1.40259813e-04
3.80000000e-01	1.55795410e-02	1.41017105e-04
3.81000000e-01	1.52757377e-02	1.38409752e-04
3.82000000e-01	1.53113555e-02	1.38902038e-04
3.83000000e-01	1.54253140e-02	1.39560326e-04
3.84000000e-01	1.53029055e-02	1.38843318e-04
3.85000000e-01	1.53895946e-02	1.39882953e-04
3.86000000e-01	1.53639324e-02	1.39015255e-04
3.87000000e-01	1.54728759e-02	1.40039704e-04
3.88000000e-01	1.53472589e-02	1.39149497e-04
3.89000000e-01	1.53255325e-02	1.38703907e-04
3.90000000e-01	1.53462774e-02	1.38782025e-04
3.91000000e-01	1.51433757e-02	1.36976122e-04
3.92000000e-01	1.51596632e-02	1.37294975e-04
3.93000000e-01	1.52482977e-02	1.37942760e-04
3.94000000e-01	1.52770663e-02	1.38087094e-04
3.95000000e-01	1.52439179e-02	1.37686974e-04
3.96000000e-01	1.51808201e-02	1.36846518e-04
3.97000000e-01	1.52511339e-02	1.37714328e-04
3.98000000e-01	1.52094747e-02	1.37157142e-04
3.99000000e-01	1.52158986e-02	1.37555738e-04
4.00000000e-01	1.52869349e-02	1.38195960e-04
4.01000000e-01	1.51093944e-02	1.36618055e-04
4.02000000e-01	1.50743042e-02	1.36192834e-04
4.03000000e-01	1.50473744e-02	1.35781137e-04
4.04000000e-01	1.51311627e-02	1.36832501e-04
4.05000000e-01	1.50898175e-02	1.36572114e-04
4.06000000e-01	1.48924967e-02	1.34620670e-04
4.07000000e-01	1.50208081e-02	1.35822334e-04
4.08000000e-01	1.50999206e-02	1.36459210e-04
4.09000000e-01	1.50862296e-02	1.35961042e-04
4.10000000e-01	1.49219611e-02	1.34544292e-04
4.11000000e-01	1.50187400e-02	1.35751719e-04
4.12000000e-01	1.50200167e-02	1.35454801e-04
4.13000000e-01	1.49636188e-02	1.34776956e-04
4.14000000e-01	1.48542232e-02	1.33939414e-04
4.15000000e-01	1.48692993e-02	1.33839830e-04
4.16000000e-01	1.50546719e-02	1.35349649e-04
4.17000000e-01	1.49580320e-02	1.34884509e-04
4.18000000e-01	1.49564115e-02	1.36043662e-04
4.19000000e-01	1.50315390e-02	1.38578322e-04
4.20000000e-01	1.50061312e-02	1.39034044e-04
4.21000000e-01	1.50252678e-02	1.39601117e-04
4.22000000e-01	1.49488202e-02	1.39229706e-04
4.23000000e-01	1.49745116e-02	1.39968640e-04
4.24000000e-01	1.49608836e-02	1.40509143e-04
4.25000000e-01	1.48919973e-02	1.39985305e-04
4.26000000e-01	1.49694331e-02	1.40571577e-04
4.27000000e-01	1.49960233e-02	1.41040176e-04
4.28000000e-01	1.49583428e-02	1.40821768e-04
4.29000000e-01	1.49970482e-02	1.41744611e-04
4.30000000e-01	1.50014817e-02	1.41388735e-04
4.31000000e-01	1.50918340e-02	1.41882043e-04
4.32000000e-01	1.51093414e-02	1.42200313e-04
4.33000000e-01	1.48674218e-02	1.40463263e-04
4.34000000e-01	1.48170886e-02	1.40152821e-04
4.35000000e-01	1.49772113e-02	1.41668968e-04
4.36000000e-01	1.47332996e-02	1.39743453e-04
4.37000000e-01	1.48119094e-02	1.40366838e-04
4.38000000e-01	1.48001897e-02	1.40626505e-04
4.39000000e-01	1.48041097e-02	1.40981535e-04
4.40000000e-01	1.48139516e-02	1.40988467e-04
4.41000000e-01	1.47487166e-02	1.40538333e-04
4.42000000e-01	1.48094857e-02	1.41850238e-04
4.43000000e-01	1.48512241e-02	1.42084424e-04
4.44000000e-01	1.47726787e-02	1.41522303e-04
4.45000000e-01	1.47178776e-02	1.40846955e-04
4.46000000e-01	1.47820971e-02	1.41817885e-04
4.47000000e-01	1.48666750e-02	1.42596515e-04
4.48000000e-01	1.47446017e-02	1.41408343e-04
4.49000000e-01	1.46667089e-02	1.41383016e-04
4.50000000e-01	1.47176884e-02	1.41493082e-04
4.51000000e-01	1.46320734e-02	1.41117102e-04
4.52000000e-01	1.46084447e-02	1.41172958e-04
4.53000000e-01	1.46241708e-02	1.41455715e-04
4.54000000e-01	1.46396945e-02	1.41517435e-04
4.55000000e-01	1.47520846e-02	1.42580542e-04
4.56000000e-01	1.46516037e-02	1.41979931e-04
4.57000000e-01	1.46580975e-02	1.41840360e-04
4.58000000e-01	1.46133879e-02	1.41966831e-04
4.59000000e-01	1.45174670e-02	1.41308499e-04
4.60000000e-01	1.45207961e-02	1.41594714e-04
4.61000000e-01	1.46191725e-02	1.42218152e-04
4.62000000e-01	1.46189892e-02	1.41965307e-04
4.63000000e-01	1.45315754e-02	1.41146675e-04
4.64000000e-01	1.46122343e-02	1.42130474e-04
4.65000000e-01	1.45661100e-02	1.42398497e-04
4.66000000e-01	1.44541541e-02	1.40962943e-04
4.67000000e-01	1.44970385e-02	1.41349404e-04
4.68000000e-01	1.45195267e-02	1.41848630e-04
4.69000000e-01	1.45441227e-02	1.42241575e-04
4.70000000e-01	1.44088135e-02	1.41011938e-04
4.71000000e-01	1.44342650e-02	1.41518794e-04
4.72000000e-01	1.43812209e-02	1.40792575e-04
4.73000000e-01	1.44168197e-02	1.40756668e-04
4.74000000e-01	1.44445284e-02	1.41093758e-04
4.75000000e-01	1.45399304e-02	1.42329782e-04
4.76000000e-01	1.43209007e-02	1.40558451e-04
4.77000000e-01	1.45257069e-02	1.42022875e-04
4.78000000e-01	1.42913423e-02	1.39928054e-04
4.79000000e-01	1.44603251e-02	1.41697642e-04
4.80000000e-01	1.44201419e-02	1.41414005e-04
4.81000000e-01	1.44402031e-02	1.41696625e-04
4.82000000e-01	1.42049612e-02	1.39483134e-04
4.83000000e-01	1.43960287e-02	1.41483138e-04
4.84000000e-01	1.43016527e-02	1.41261163e-04
4.85000000e-01	1.44140472e-02	1.41658234e-04
4.86000000e-01	1.43882977e-02	1.41824222e-04
4.87000000e-01	1.42496689e-02	1.40456108e-04
4.88000000e-01	1.43021165e-02	1.41172119e-04
4.89000000e-01	1.43231556e-02	1.41458914e-04
4.90000000e-01	1.42410927e-02	1.40531814e-04
4.91000000e-01	1.42534403e-02	1.41015746e-04
4.92000000e-01	1.42420920e-02	1.41062797e-04
4.93000000e-01	1.42603837e-02	1.40466524e-04
4.94000000e-01	1.43357674e-02	1.41371923e-04
4.95000000e-01	1.42576465e-02	1.41811847e-04
4.96000000e-01	1.43200632e-02	1.46840184e-04
4.97000000e-01	1.43123161e-02	1.49540804e-04
4.98000000e-01	1.42573307e-02	1.50721270e-04
4.99000000e-01	1.42730314e-02	1.52658459e-04
5.00000000e-01	1.41446910e-02	1.53005758e-04
5.01000000e-01	1.42601141e-02	1.55453863e-04
5.02000000e-01	1.42929051e-02	1.57445089e-04
5.03000000e-01	1.42945406e-02	1.59455521e-04
5.04000000e-01	1.41587470e-02	1.58508941e-04
5.05000000e-01	1.42478494e-02	1.57464300e-04
5.06000000e-01	1.42592174e-02	1.54151458e-04
5.07000000e-01	1.42342463e-02	1.52241915e-04
5.08000000e-01	1.43343407e-02	1.51481615e-04
5.09000000e-01	1.44101022e-02	1.52295738e-04
5.10000000e-01	1.42669935e-02	1.50216446e-04
5.11000000e-01	1.41903104e-02	1.49000550e-04
5.12000000e-01	1.41792206e-02	1.48787895e-04
5.13000000e-01	1.40990454e-02	1.48111684e-04
5.14000000e-01	1.41907397e-02	1.48133139e-04
5.15000000e-01	1.42158206e-02	1.47911469e-04
5.16000000e-01	1.38637347e-02	1.44566837e-04
5.17000000e-01	1.41196717e-02	1.46723711e-04
5.18000000e-01	1.41027041e-02	1.46503573e-04
5.19000000e-01	1.41354371e-02	1.46333403e-04
5.20000000e-01	1.40235465e-02	1.44992681e-04
5.21000000e-01	1.41263528e-02	1.46015525e-04
5.22000000e-01	1.39508603e-02	1.43986595e-04
5.23000000e-01	1.40159710e-02	1.44463511e-04
5.24000000e-01	1.40254929e-02	1.44447679e-04
5.25000000e-01	1.38373287e-02	1.42956309e-04
5.26000000e-01	1.40207707e-02	1.44648596e-04
5.27000000e-01	1.40653005e-02	1.44631757e-04
5.28000000e-01	1.39983993e-02	1.44421744e-04
5.29000000e-01	1.39753652e-02	1.43914232e-04
5.30000000e-01	1.39437818e-02	1.43696792e-04
5.31000000e-01	1.40675491e-02	1.45219604e-04
5.32000000e-01	1.38469213e-02	1.43400983e-04
5.33000000e-01	1.39869178e-02	1.44324123e-04
5.34000000e-01	1.39691544e-02	1.43701739e-04
5.35000000e-01	1.40563472e-02	1.44390266e-04
5.36000000e-01	1.39766000e-02	1.43738989e-04
5.37000000e-01	1.39387090e-02	1.43887853e-04
5.38000000e-01	1.38671723e-02	1.42824707e-04
5.39000000e-01	1.38775900e-02	1.42734441e-04
5.40000000e-01	1.39817505e-02	1.43702866e-04
5.41000000e-01	1.38580396e-02	1.42906098e-04
5.42000000e-01	1.38769928e-02	1.42875428e-04
5.43000000e-01	1.40539211e-02	1.44569435e-04
5.44000000e-01	1.38219098e-02	1.42582741e-04
5.45000000e-01	1.38574165e-02	1.42730231e-04
5.46000000e-01	1.37647353e-02	1.42481082e-04
5.47000000e-01	1.38103322e-02	1.42416044e-04
5.48000000e-01	1.36168585e-02	1.40652863e-04
5.49000000e-01	1.38138181e-02	1.41987713e-04
5.50000000e-01	1.37482890e-02	1.41880290e-04
5.51000000e-01	1.37850276e-02	1.41422369e-04
5.52000000e-01	1.38158651e-02	1.41448792e-04
5.53000000e-01	1.38388630e-02	1.42118266e-04
5.54000000e-01	1.37961189e-02	1.41142607e-04
5.55000000e-01	1.37216649e-02	1.41032792e-04
5.56000000e-01	1.37869465e-02	1.41066138e-04
5.57000000e-01	1.36687253e-02	1.40332327e-04
5.58000000e-01	1.35658624e-02	1.39514759e-04
5.59000000e-01	1.36604397e-02	1.40236276e-04
5.60000000e-01	1.37726101e-02	1.41408751e-04
5.61000000e-01	1.37701762e-02	1.41092801e-04
5.62000000e-01	1.36210801e-02	1.40086383e-04
5.63000000e-01	1.37721710e-02	1.41218964e-04
5.64000000e-01	1.35678374e-02	1.39668326e-04
5.65000000e-01	1.35956297e-02	1.39822175e-04
5.66000000e-01	1.35453627e-02	1.39125506e-04
5.67000000e-01	1.35510808e-02	1.39230014e-04
5.68000000e-01	1.35771188e-02	1.39375364e-04
5.69000000e-01	1.35758202e-02	1.38760898e-04
5.70000000e-01	1.34909279e-02	1.38426035e-04
5.71000000e-01	1.36299317e-02	1.39411714e-04
5.72000000e-01	1.35195042e-02	1.38585974e-04
5.73000000e-01	1.34960812e-02	1.38530625e-04
5.74000000e-01	1.32960509e-02	1.36495697e-04
5.75000000e-01	1.34253576e-02	1.38442725e-04
5.76000000e-01	1.33453890e-02	1.37491453e-04
5.77000000e-01	1.34663787e-02	1.38124717e-04
5.78000000e-01	1.33735689e-02	1.37655650e-04
5.79000000e-01	1.34849998e-02	1.38495800e-04
5.80000000e-01	1.33817335e-02	1.37739120e-04
5.81000000e-01	1.35583770e-02	1.39231427e-04
5.82000000e-01	1.33645570e-02	1.37712314e-04
5.83000000e-01	1.32882029e-02	1.37437512e-04
5.84000000e-01	1.33757531e-02	1.37846123e-04
5.85000000e-01	1.34603400e-02	1.38777168e-04
5.86000000e-01	1.33382034e-02	1.37792948e-04
5.87000000e-01	1.33045947e-02	1.36830533e-04
5.88000000e-01	1.34369909e-02	1.38671383e-04
5.89000000e-01	1.33973787e-02	1.38234377e-04
5.90000000e-01	1.34694144e-02	1.38647274e-04
5.91000000e-01	1.33555248e-02	1.37491439e-04
5.92000000e-01	1.33743834e-02	1.37980652e-04
5.93000000e-01	1.32950435e-02	1.36954594e-04
5.94000000e-01	1.32986396e-02	1.37494884e-04
5.95000000e-01	1.32866014e-02	1.36774504e-04
5.96000000e-01	1.31909394e-02	1.36178549e-04
5.97000000e-01	1.31832367e-02	1.36424659e-04
5.98000000e-01	1.32265900e-02	1.37078112e-04
5.99000000e-01	1.33689414e-02	1.37934699e-04
6.00000000e-01	1.31842977e-02	1.36082530e-04
6.01000000e-01	1.31917586e-02	1.36514018e-04
6.02000000e-01	1.31426674e-02	1.35650789e-04
6.03000000e-01	1.32382589e-02	1.36291836e-04
6.04000000e-01	1.31890994e-02	1.36212126e-04
6.05000000e-01	1.33051580e-02	1.37151175e-04
6.06000000e-01	1.31726953e-02	1.36424192e-04
6.07000000e-01	1.32569983e-02	1.36737405e-04
6.08000000e-01	1.32311730e-02	1.36545617e-04
6.09000000e-01	1.30591435e-02	1.35403965e-04
6.10000000e-01	1.30385043e-02	1.35308101e-04
6.11000000e-01	1.32173873e-02	1.36473154e-04
6.12000000e-01	1.30822960e-02	1.35739447e-04
6.13000000e-01	1.31977683e-02	1.36539006e-04
6.14000000e-01	1.31892929e-02	1.36307034e-04
6.15000000e-01	1.32168375e-02	1.36421751e-04
6.16000000e-01	1.32013185e-02	1.36978312e-04
6.17000000e-01	1.30772003e-02	1.35311868e-04
6.18000000e-01	1.31543800e-02	1.36220561e-04
6.19000000e-01	1.30982099e-02	1.35580250e-04
6.20000000e-01	1.30008237e-02	1.34635911e-04
6.21000000e-01	1.30288510e-02	1.34429923e-04
6.22000000e-01	1.30050881e-02	1.33980369e-04
6.23000000e-01	1.31110576e-02	1.34584381e-04
6.24000000e-01	1.28991632e-02	1.33167336e-04
6.25000000e-01	1.29909008e-02	1.33899321e-04
6.26000000e-01	1.30821370e-02	1.34526720e-04
6.27000000e-01	1.30654614e-02	1.34897214e-04
6.28000000e-01	1.30827396e-02	1.34641952e-04
6.29000000e-01	1.30306463e-02	1.33911515e-04
6.30000000e-01	1.28908130e-02	1.33102063e-04
6.31000000e-01	1.29219805e-02	1.33143274e-04
6.32000000e-01	1.30242250e-02	1.34170029e-04
6.33000000e-01	1.31019148e-02	1.34703031e-04
6.34000000e-01	1.29157178e-02	1.36238533e-04
6.35000000e-01	1.29386650e-02	1.40594954e-04
6.36000000e-01	1.30083873e-02	1.44043142e-04
6.37000000e-01	1.30090768e-02	1.45860492e-04
6.38000000e-01	1.30385533e-02	1.48364770e-04
6.39000000e-01	1.30864550e-02	1.50538821e-04
6.40000000e-01	1.32402670e-02	1.54020945e-04
6.41000000e-01	1.31112180e-02	1.54333679e-04
6.42000000e-01	1.31718607e-02	1.56653218e-04
6.43000000e-01	1.31146959e-02	1.55859024e-04
6.44000000e-01	1.30729612e-02	1.50014386e-04
6.45000000e-01	1.31561034e-02	1.48667564e-04
6.46000000e-01	1.30959200e-02	1.46381825e-04
6.47000000e-01	1.30627676e-02	1.45148927e-04
6.48000000e-01	1.30915903e-02	1.44691548e-04
6.49000000e-01	1.31095972e-02	1.44383867e-04
6.50000000e-01	1.30776472e-02	1.42936445e-04
6.51000000e-01	1.30898766e-02	1.42314679e-04
6.52000000e-01	1.29657794e-02	1.40964493e-04
6.53000000e-01	1.29557085e-02	1.40249680e-04
6.54000000e-01	1.31237885e-02	1.41976526e-04
6.55000000e-01	1.29017417e-02	1.39082559e-04
6.56000000e-01	1.30404661e-02	1.40105846e-04
6.57000000e-01	1.30523124e-02	1.39845218e-04
6.58000000e-01	1.29914935e-02	1.39188176e-04
6.59000000e-01	1.29395702e-02	1.38371244e-04
6.60000000e-01	1.30655556e-02	1.39910691e-04
6.61000000e-01	1.28678409e-02	1.37688212e-04
6.62000000e-01	1.30195879e-02	1.39154670e-04
6.63000000e-01	1.27890551e-02	1.37376697e-04
6.64000000e-01	1.28407839e-02	1.37071438e-04
6.65000000e-01	1.29165551e-02	1.38538809e-04
6.66000000e-01	1.28234705e-02	1.36770255e-04
6.67000000e-01	1.28793383e-02	1.37905258e-04
6.68000000e-01	1.29445347e-02	1.38417183e-04
6.69000000e-01	1.27315788e-02	1.36732812e-04
6.70000000e-01	1.27526284e-02	1.36221380e-04
6.71000000e-01	1.29338137e-02	1.38029088e-04
6.72000000e-01	1.29488504e-02	1.37787106e-04
6.73000000e-01	1.28600760e-02	1.36676544e-04
6.74000000e-01	1.27180934e-02	1.35476949e-04
6.75000000e-01	1.28117269e-02	1.36603150e-04
6.76000000e-01	1.28699353e-02	1.36881014e-04
6.77000000e-01	1.28633330e-02	1.36778909e-04
6.78000000e-01	1.27362525e-02	1.35158588e-04
6.79000000e-01	1.28552640e-02	1.37092292e-04
6.80000000e-01	1.27924582e-02	1.36332580e-04
6.81000000e-01	1.26859927e-02	1.34661119e-04
6.82000000e-01	1.27886442e-02	1.36645348e-04
6.83000000e-01	1.27870195e-02	1.35897897e-04
6.84000000e-01	1.26559751e-02	1.35004503e-04
6.85000000e-01	1.27122677e-02	1.35091323e-04
6.86000000e-01	1.28649214e-02	1.36666563e-04
6.87000000e-01	1.26031793e-02	1.34041076e-04
6.88000000e-01	1.26550018e-02	1.34072537e-04
6.89000000e-01	1.26809743e-02	1.34815817e-04
6.90000000e-01	1.26778295e-02	1.34726024e-04
6.91000000e-01	1.25751737e-02	1.33811486e-04
6.92000000e-01	1.27265979e-02	1.34916860e-04
6.93000000e-01	1.27931746e-02	1.35899892e-04
6.94000000e-01	1.27443744e-02	1.35366743e-04
6.95000000e-01	1.26784710e-02	1.34512731e-04
6.96000000e-01	1.25910509e-02	1.34139583e-04
6.97000000e-01	1.26376370e-02	1.34019660e-04
6.98000000e-01	1.25597848e-02	1.33637650e-04
6.99000000e-01	1.26452153e-02	1.34009630e-04
7.00000000e-01	1.26700556e-02	1.34530381e-04
7.01000000e-01	1.26964018e-02	1.35058134e-04
7.02000000e-01	1.25713430e-02	1.33460990e-04
7.03000000e-01	1.25515795e-02	1.33562613e-04
7.04000000e-01	1.25655131e-02	1.33565922e-04
7.05000000e-01	1.25811240e-02	1.33656155e-04
7.06000000e-01	1.25427988e-02	1.33068040e-04
7.07000000e-01	1.24985275e-02	1.32385800e-04
7.08000000e-01	1.25186151e-02	1.32310010e-04
7.09000000e-01	1.24372344e-02	1.31324048e-04
7.10000000e-01	1.24717050e-02	1.32121813e-04
7.11000000e-01	1.23673856e-02	1.31213577e-04
7.12000000e-01	1.23847590e-02	1.31017503e-04
7.13000000e-01	1.24805536e-02	1.32845563e-04
7.14000000e-01	1.24770902e-02	1.32722205e-04
7.15000000e-01	1.23065122e-02	1.30691170e-04
7.16000000e-01	1.23483780e-02	1.31309354e-04
7.17000000e-01	1.23239525e-02	1.30842667e-04
7.18000000e-01	1.22729073e-02	1.30244993e-04
7.19000000e-01	1.22516257e-02	1.30282842e-04
7.20000000e-01	1.23435589e-02	1.31610842e-04
7.21000000e-01	1.21917534e-02	1.29691128e-04
7.22000000e-01	1.22997423e-02	1.30404057e-04
7.23000000e-01	1.23695513e-02	1.31292108e-04
7.24000000e-01	1.22644167e-02	1.30537552e-04
7.25000000e-01	1.22421834e-02	1.30317017e-04
7.26000000e-01	1.23221280e-02	1.31104098e-04
7.27000000e-01	1.23133166e-02	1.31145921e-04
7.28000000e-01	1.23248211e-02	1.31070576e-04
7.29000000e-01	1.23025179e-02	1.30911094e-04
7.30000000e-01	1.23235547e-02	1.30453162e-04
7.31000000e-01	1.22033351e-02	1.29846359e-04
7.32000000e-01	1.21952382e-02	1.29660340e-04
7.33000000e-01	1.21188692e-02	1.28877810e-04
7.34000000e-01	1.23310340e-02	1.30977599e-04
7.35000000e-01	1.21940087e-02	1.29424276e-04
7.36000000e-01	1.20606962e-02	1.28279231e-04
7.37000000e-01	1.21980094e-02	1.28428124e-04
7.38000000e-01	1.21949330e-02	1.28840907e-04
7.39000000e-01	1.21410062e-02	1.28574481e-04
7.40000000e-01	1.21813957e-02	1.28358246e-04
7.41000000e-01	1.22139776e-02	1.28554859e-04
7.42000000e-01	1.21363299e-02	1.27887415e-04
7.43000000e-01	1.20967384e-02	1.27423028e-04
7.44000000e-01	1.22034822e-02	1.28141318e-04
7.45000000e-01	1.21871585e-02	1.28417484e-04
7.46000000e-01	1.20004321e-02	1.26299291e-04
7.47000000e-01	1.20981084e-02	1.27691909e-04
7.48000000e-01	1.20408934e-02	1.26948136e-04
7.49000000e-01	1.21490449e-02	1.27934572e-04
7.50000000e-01	1.20713934e-02	1.26994150e-04
7.51000000e-01	1.19530133e-02	1.26449483e-04
7.52000000e-01	1.20008563e-02	1.26553291e-04
7.53000000e-01	1.19817531e-02	1.26515739e-04
7.54000000e-01	1.20143978e-02	1.26634831e-04
7.55000000e-01	1.20415850e-02	1.27373387e-04
7.56000000e-01	1.19371010e-02	1.26042140e-04
7.57000000e-01	1.18036603e-02	1.25069721e-04
7.58000000e-01	1.20335430e-02	1.27020190e-04
7.59000000e-01	1.19603632e-02	1.26022147e-04
7.60000000e-01	1.18721148e-02	1.25004983e-04
7.61000000e-01	1.19969398e-02	1.25649370e-04
7.62000000e-01	1.18851592e-02	1.24938410e-04
7.63000000e-01	1.18912222e-02	1.24844485e-04
7.64000000e-01	1.18068452e-02	1.23613894e-04
7.65000000e-01	1.18137757e-02	1.23690418e-04
7.66000000e-01	1.18051352e-02	1.23565785e-04
7.67000000e-01	1.19272390e-02	1.24703473e-04
7.68000000e-01	1.18306495e-02	1.23853879e-04
7.69000000e-01	1.17930969e-02	1.23643372e-04
7.70000000e-01	1.17396612e-02	1.23338875e-04
7.71000000e-01	1.18517108e-02	1.23711853e-04
7.72000000e-01	1.17898696e-02	1.27370190e-04
7.73000000e-01	1.18453837e-02	1.32348178e-04
7.74000000e-01	1.19752139e-02	1.35549353e-04
7.75000000e-01	1.18802733e-02	1.37568890e-04
7.76000000e-01	1.16427480e-02	1.36782794e-04
7.77000000e-01	1.18471777e-02	1.41314674e-04
7.78000000e-01	1.16864076e-02	1.41727470e-04
7.79000000e-01	1.17147727e-02	1.42781933e-04
7.80000000e-01	1.16678456e-02	1.43742890e-04
7.81000000e-01	1.18024164e-02	1.46502852e-04
7.82000000e-01	1.17234969e-02	1.47974947e-04
7.83000000e-01	1.16997925e-02	1.49485744e-04
7.84000000e-01	1.15443857e-02	1.49463016e-04
7.85000000e-01	1.17689738e-02	1.53509471e-04
7.86000000e-01	1.14852705e-02	1.51413820e-04
7.87000000e-01	1.15928305e-02	1.54731207e-04
7.88000000e-01	1.17456222e-02	1.58874662e-04
7.89000000e-01	1.15412880e-02	1.56595844e-04
7.90000000e-01	1.15795431e-02	1.59574131e-04
7.91000000e-01	1.14080322e-02	1.59353543e-04
7.92000000e-01	1.16569001e-02	1.63305197e-04
7.93000000e-01	1.16355633e-02	1.64770194e-04
7.94000000e-01	1.15657120e-02	1.65412979e-04
7.95000000e-01	1.16716762e-02	1.68444983e-04
7.96000000e-01	1.15865443e-02	1.69473098e-04
7.97000000e-01	1.14322550e-02	1.69051265e-04
7.98000000e-01	1.15744197e-02	1.73029519e-04
7.99000000e-01	1.16018934e-02	1.74436273e-04
8.00000000e-01	1.14729355e-02	1.74270463e-04
8.01000000e-01	1.16497715e-02	1.79056494e-04
8.02000000e-01	1.16588877e-02	1.81285973e-04
8.03000000e-01	1.12607615e-02	1.76690244e-04
8.04000000e-01	1.16561799e-02	1.84987286e-04
8.05000000e-01	1.14477672e-02	1.83783516e-04
8.06000000e-01	1.14728890e-02	1.85242370e-04
8.07000000e-01	1.15457826e-02	1.88537752e-04
8.08000000e-01	1.13646991e-02	1.88519531e-04
8.09000000e-01	1.13935358e-02	1.90962339e-04
8.10000000e-01	1.11910756e-02	1.89186616e-04
8.11000000e-01	1.13653738e-02	1.94368766e-04
8.12000000e-01	1.14291937e-02	1.97582979e-04
8.13000000e-01	1.14355658e-02	1.99880370e-04
8.14000000e-01	1.16149043e-02	2.04586656e-04
8.15000000e-01	1.11776991e-02	1.99880788e-04
8.16000000e-01	1.12936294e-02	2.04616158e-04
8.17000000e-01	1.12192271e-02	2.06596746e-04
8.18000000e-01	1.13453195e-02	2.11603344e-04
8.19000000e-01	1.12470076e-02	2.12342059e-04
8.20000000e-01	1.11740410e-02	2.12073586e-04
8.21000000e-01	1.13646887e-02	2.20206244e-04
8.22000000e-01	1.11571515e-02	2.19352874e-04
8.23000000e-01	1.11901194e-02	2.21332976e-04
8.24000000e-01	1.12472127e-02	2.25507111e-04
8.25000000e-01	1.10913194e-02	2.25211509e-04
8.26000000e-01	1.11084331e-02	2.31761406e-04
8.27000000e-01	1.10548708e-02	2.33265232e-04
8.28000000e-01	1.12138391e-02	2.38246518e-04
8.29000000e-01	1.10035211e-02	2.37694538e-04
8.30000000e-01	1.11229042e-02	2.46210515e-04
8.31000000e-01	1.11665818e-02	2.49593378e-04
8.32000000e-01	1.10703046e-02	2.53372443e-04
8.33000000e-01	1.09947094e-02	2.55152047e-04
8.34000000e-01	1.08002258e-02	2.54792306e-04
8.35000000e-01	1.08821300e-02	2.63273106e-04
8.36000000e-01	1.10062387e-02	2.71208476e-04
8.37000000e-01	1.12009251e-02	2.77213429e-04
8.38000000e-01	1.07418214e-02	2.73968938e-04
8.39000000e-01	1.09710507e-02	2.83891305e-04
8.40000000e-01	1.09850283e-02	2.90971955e-04
8.41000000e-01	1.09726764e-02	2.98282381e-04
8.42000000e-01	1.07492760e-02	3.02808021e-04
8.43000000e-01	1.09058509e-02	3.07202276e-04
8.44000000e-01	1.10698178e-02	3.19522227e-04
8.45000000e-01	1.08210156e-02	3.23488820e-04
8.46000000e-01	1.09079550e-02	3.34178591e-04
8.47000000e-01	1.07028175e-02	3.36683855e-04
8.48000000e-01	1.09952240e-02	3.57132823e-04
8.49000000e-01	1.08683016e-02	3.62148690e-04
8.50000000e-01	1.07853245e-02	3.75026446e-04
8.51000000e-01	1.07354331e-02	3.96480003e-04
8.52000000e-01	1.04791404e-02	3.92597034e-04
8.53000000e-01	1.05013208e-02	4.15034648e-04
8.54000000e-01	1.06920233e-02	4.40819173e-04
8.55000000e-01	1.09729466e-02	4.60286411e-04
8.56000000e-01	1.05842015e-02	4.62933013e-04
8.57000000e-01	1.07679601e-02	4.79381237e-04
8.58000000e-01	1.05104212e-02	4.80866340e-04
8.59000000e-01	1.03115266e-02	4.86987761e-04
8.60000000e-01	1.06775642e-02	5.20452245e-04
8.61000000e-01	1.04514636e-02	5.31047076e-04
8.62000000e-01	1.05069003e-02	5.57507823e-04
8.63000000e-01	1.07316511e-02	5.87765506e-04
8.64000000e-01	1.08877633e-02	6.27078191e-04
8.65000000e-01	1.01125781e-02	6.02765350e-04
8.66000000e-01	1.01644837e-02	6.29395585e-04
8.67000000e-01	1.12066838e-02	7.44538206e-04
8.68000000e-01	1.06575564e-02	7.41121625e-04
8.69000000e-01	1.09547852e-02	8.45873990e-04
8.70000000e-01	1.06109819e-02	8.74455992e-04
8.71000000e-01	1.11672313e-02	1.03295641e-03
8.72000000e-01	1.09979247e-02	1.13117590e-03
8.73000000e-01	9.70285823e-03	1.17678428e-03
8.74000000e-01	1.08548280e-02	1.71824165e-03
8.75000000e-01	8.35022460e-03	3.28748159e-03
