% Filename : SDL5_p7_00024_00001.h5
% Date & Time : 30-Oct-2025 16:54:48
% X-ray Energy (keV) : 13.30001
% Exposure Time (s) : 0.500
% Beam Center : 1461.24000, 208.98300
% Sample to Detector Distance (SDD) (mm) : 1990.750
% Detector Pixel Size (mm) : 0.075
% Photodiode Value : 141249.000
% I0 of Sample : 0
% I0 of Standard : 1
% 
% q(A^-1)   I(q)    I(q)_SE
0.00000000e+00	8.95347456e-03	4.95380854e-03
2.50000000e-04	0.00000000e+00	0.00000000e+00
5.00000000e-04	0.00000000e+00	0.00000000e+00
7.50000000e-04	0.00000000e+00	0.00000000e+00
1.00000000e-03	0.00000000e+00	0.00000000e+00
1.25000000e-03	0.00000000e+00	0.00000000e+00
1.50000000e-03	0.00000000e+00	0.00000000e+00
1.75000000e-03	0.00000000e+00	0.00000000e+00
2.00000000e-03	0.00000000e+00	0.00000000e+00
2.25000000e-03	0.00000000e+00	0.00000000e+00
2.50000000e-03	0.00000000e+00	0.00000000e+00
2.75000000e-03	0.00000000e+00	0.00000000e+00
3.00000000e-03	0.00000000e+00	0.00000000e+00
3.25000000e-03	4.52061668e+01	2.61097971e+01
3.50000000e-03	2.93414075e+01	7.77404165e+00
3.75000000e-03	2.20729726e+01	4.83776476e+00
4.00000000e-03	1.85996687e+01	3.74166351e+00
4.25000000e-03	1.27578490e+01	2.11283709e+00
4.50000000e-03	1.95985456e+01	4.42919235e+00
4.75000000e-03	2.32741266e+01	5.24326384e+00
5.00000000e-03	1.75136169e+01	3.72755813e+00
5.25000000e-03	1.43511718e+01	2.98019205e+00
5.50000000e-03	1.15868205e+01	2.33131922e+00
5.75000000e-03	9.67469915e+00	1.89067440e+00
6.00000000e-03	7.74021517e+00	1.45474266e+00
6.25000000e-03	6.61433952e+00	1.22059817e+00
6.50000000e-03	5.49129591e+00	9.79655610e-01
6.75000000e-03	4.63093119e+00	8.04706310e-01
7.00000000e-03	4.02991347e+00	6.72519648e-01
7.25000000e-03	3.40671047e+00	5.56364506e-01
7.50000000e-03	2.83854085e+00	4.58057561e-01
7.75000000e-03	2.58800887e+00	4.13427406e-01
8.00000000e-03	2.30795340e+00	3.58829899e-01
8.25000000e-03	1.95897730e+00	2.93551486e-01
8.50000000e-03	1.73848651e+00	2.49970290e-01
8.75000000e-03	1.56086100e+00	2.23720088e-01
9.00000000e-03	1.37816028e+00	1.95988137e-01
9.25000000e-03	1.22426988e+00	1.69492548e-01
9.50000000e-03	1.06928630e+00	1.42673929e-01
9.75000000e-03	9.71459375e-01	1.27027919e-01
1.00000000e-02	8.37699365e-01	1.06759264e-01
1.02500000e-02	8.00364501e-01	1.05872336e-01
1.05000000e-02	7.22583739e-01	9.13682391e-02
1.07500000e-02	6.61524423e-01	8.36237151e-02
1.10000000e-02	5.98033002e-01	7.19932221e-02
1.12500000e-02	5.35488369e-01	6.53973066e-02
1.15000000e-02	5.04813814e-01	6.02626381e-02
1.17500000e-02	4.57259001e-01	5.40554584e-02
1.20000000e-02	4.30441616e-01	5.05807701e-02
1.22500000e-02	3.89684192e-01	4.26969075e-02
1.25000000e-02	3.64938764e-01	4.01405938e-02
1.27500000e-02	3.42865922e-01	3.76448680e-02
1.30000000e-02	3.16680323e-01	3.30674664e-02
1.32500000e-02	2.88374831e-01	2.96481100e-02
1.35000000e-02	2.67550936e-01	2.71690819e-02
1.37500000e-02	2.52400264e-01	2.51807087e-02
1.40000000e-02	2.36042547e-01	2.35304913e-02
1.42500000e-02	2.22230743e-01	2.14044092e-02
1.45000000e-02	2.10452807e-01	1.99825568e-02
1.47500000e-02	1.97093611e-01	1.85289578e-02
1.50000000e-02	1.87459377e-01	1.69786155e-02
1.52500000e-02	1.75222295e-01	1.55268663e-02
1.55000000e-02	1.63593502e-01	1.45131892e-02
1.57500000e-02	1.54904527e-01	1.40677556e-02
1.60000000e-02	1.46222489e-01	1.25434630e-02
1.62500000e-02	1.40087411e-01	1.19582276e-02
1.65000000e-02	1.29389353e-01	1.09308727e-02
1.67500000e-02	1.26388959e-01	1.01015586e-02
1.70000000e-02	1.20243267e-01	9.81313827e-03
1.72500000e-02	1.13574765e-01	9.31466359e-03
1.75000000e-02	1.08741762e-01	8.49477344e-03
1.77500000e-02	1.05250063e-01	8.12460162e-03
1.80000000e-02	1.00387378e-01	7.56945334e-03
1.82500000e-02	9.72043754e-02	7.06287554e-03
1.85000000e-02	9.20510321e-02	6.91001130e-03
1.87500000e-02	8.97734152e-02	6.52738066e-03
1.90000000e-02	8.52276206e-02	6.14003848e-03
1.92500000e-02	8.15886880e-02	5.66966415e-03
1.95000000e-02	7.74563923e-02	5.27477095e-03
1.97500000e-02	7.82562888e-02	5.37553110e-03
2.00000000e-02	7.38983101e-02	4.93242625e-03
2.02500000e-02	6.96732669e-02	4.62940701e-03
2.05000000e-02	7.01490395e-02	4.49852591e-03
2.07500000e-02	6.70072994e-02	4.27974044e-03
2.10000000e-02	6.43894670e-02	4.11268447e-03
2.12500000e-02	6.54175736e-02	4.12200798e-03
2.15000000e-02	6.30421858e-02	3.98593927e-03
2.17500000e-02	6.14292493e-02	3.79104406e-03
2.20000000e-02	6.15195218e-02	3.83310156e-03
2.22500000e-02	5.70406719e-02	3.50123978e-03
2.25000000e-02	5.60231552e-02	3.45259658e-03
2.27500000e-02	5.53717364e-02	3.39942875e-03
2.30000000e-02	5.49004143e-02	3.30368416e-03
2.32500000e-02	5.40340836e-02	3.27176099e-03
2.35000000e-02	5.34844825e-02	3.22793885e-03
2.37500000e-02	5.21254622e-02	3.15474037e-03
2.40000000e-02	4.96922197e-02	2.97792835e-03
2.42500000e-02	5.06554120e-02	3.00595430e-03
2.45000000e-02	4.84883765e-02	2.82103824e-03
2.47500000e-02	4.76357561e-02	2.74066447e-03
2.50000000e-02	4.69329523e-02	2.76289372e-03
2.52500000e-02	4.68839410e-02	2.74862730e-03
2.55000000e-02	4.46251197e-02	2.55381327e-03
2.57500000e-02	4.35781189e-02	2.42632305e-03
2.60000000e-02	4.34677371e-02	2.40947355e-03
2.62500000e-02	4.25515735e-02	2.36224060e-03
2.65000000e-02	4.31807606e-02	2.33614038e-03
2.67500000e-02	4.13426085e-02	2.24666644e-03
2.70000000e-02	4.04602138e-02	2.16992679e-03
2.72500000e-02	4.05416756e-02	2.12816316e-03
2.75000000e-02	3.97947341e-02	2.15271096e-03
2.77500000e-02	3.99945380e-02	2.15514661e-03
2.80000000e-02	3.93549285e-02	2.07287972e-03
2.82500000e-02	3.83942800e-02	1.99432070e-03
2.85000000e-02	3.95609783e-02	2.07574146e-03
2.87500000e-02	3.93357613e-02	2.04694502e-03
2.90000000e-02	3.64895558e-02	1.88261409e-03
2.92500000e-02	3.77335263e-02	1.90002873e-03
2.95000000e-02	3.60950800e-02	1.87009697e-03
2.97500000e-02	3.68118818e-02	1.84895637e-03
3.00000000e-02	3.54910714e-02	1.76157542e-03
3.02500000e-02	3.67734703e-02	1.82260471e-03
3.05000000e-02	3.56602957e-02	1.77221382e-03
3.07500000e-02	3.41729298e-02	1.70469084e-03
3.10000000e-02	3.48987305e-02	1.73539488e-03
3.12500000e-02	3.47305804e-02	1.72174695e-03
3.15000000e-02	3.37540773e-02	1.67014852e-03
3.17500000e-02	3.36021099e-02	1.61782269e-03
3.20000000e-02	3.30589515e-02	1.62851060e-03
3.22500000e-02	3.26342566e-02	1.56816299e-03
3.25000000e-02	3.19585236e-02	1.56070096e-03
3.27500000e-02	3.19736169e-02	1.52171952e-03
3.30000000e-02	3.20444154e-02	1.51970186e-03
3.32500000e-02	3.26742569e-02	1.52856106e-03
3.35000000e-02	3.11738675e-02	1.47466201e-03
3.37500000e-02	3.04919653e-02	1.44814241e-03
3.40000000e-02	3.02674088e-02	1.42997052e-03
3.42500000e-02	3.08113605e-02	1.42796966e-03
3.45000000e-02	3.02311668e-02	1.43578684e-03
3.47500000e-02	3.01849358e-02	1.41030581e-03
3.50000000e-02	2.97000990e-02	1.37688733e-03
3.52500000e-02	2.94780150e-02	1.36140558e-03
3.55000000e-02	3.06123851e-02	1.37867102e-03
3.57500000e-02	2.95325082e-02	1.36270521e-03
3.60000000e-02	2.88997739e-02	1.31805175e-03
3.62500000e-02	2.84008634e-02	1.29541798e-03
3.65000000e-02	2.88189215e-02	1.32701214e-03
3.67500000e-02	2.81600539e-02	1.31278241e-03
3.70000000e-02	2.84597671e-02	1.28260855e-03
3.72500000e-02	2.79795165e-02	1.26141402e-03
3.75000000e-02	2.69363945e-02	1.22770161e-03
3.77500000e-02	2.72458583e-02	1.22077944e-03
3.80000000e-02	2.76634442e-02	1.23307097e-03
3.82500000e-02	2.78095826e-02	1.23444357e-03
3.85000000e-02	2.72341473e-02	1.22564475e-03
3.87500000e-02	2.63294204e-02	1.16746921e-03
3.90000000e-02	2.74073864e-02	1.23540893e-03
3.92500000e-02	2.61167407e-02	1.14184250e-03
3.95000000e-02	2.67473225e-02	1.17930866e-03
3.97500000e-02	2.72597315e-02	1.18969202e-03
4.00000000e-02	2.66918017e-02	1.16500588e-03
4.02500000e-02	2.56527853e-02	1.11829321e-03
4.05000000e-02	2.56712877e-02	1.11055646e-03
4.07500000e-02	2.58441686e-02	1.11593087e-03
4.10000000e-02	2.61979770e-02	1.14371154e-03
4.12500000e-02	2.59192928e-02	1.12681182e-03
4.15000000e-02	2.57317354e-02	1.09820629e-03
4.17500000e-02	2.55855151e-02	1.09090664e-03
4.20000000e-02	2.51037413e-02	1.06979321e-03
4.22500000e-02	2.46982671e-02	1.05373248e-03
4.25000000e-02	2.48156184e-02	1.04710696e-03
4.27500000e-02	2.52267073e-02	1.07110093e-03
4.30000000e-02	2.52847355e-02	1.07150165e-03
4.32500000e-02	2.49776882e-02	1.05105934e-03
4.35000000e-02	2.46987130e-02	1.05282490e-03
4.37500000e-02	2.52830913e-02	1.05352617e-03
4.40000000e-02	2.51587401e-02	1.05611129e-03
4.42500000e-02	2.46688183e-02	1.02862829e-03
4.45000000e-02	2.49981032e-02	1.04403697e-03
4.47500000e-02	2.42289801e-02	1.01335918e-03
4.50000000e-02	2.44015692e-02	1.01780320e-03
4.52500000e-02	2.39747956e-02	9.93628708e-04
4.55000000e-02	2.39523470e-02	9.96102186e-04
4.57500000e-02	2.43820386e-02	1.00632874e-03
4.60000000e-02	2.41079850e-02	9.90701559e-04
4.62500000e-02	2.42340449e-02	9.97199309e-04
4.65000000e-02	2.44558951e-02	9.95281178e-04
4.67500000e-02	2.37385957e-02	9.62289975e-04
4.70000000e-02	2.32225790e-02	9.51901240e-04
4.72500000e-02	2.32767357e-02	9.55647623e-04
4.75000000e-02	2.38317587e-02	9.76568835e-04
4.77500000e-02	2.40040131e-02	9.66387665e-04
4.80000000e-02	2.31303151e-02	9.35373955e-04
4.82500000e-02	2.28694655e-02	9.27761812e-04
4.85000000e-02	2.33355737e-02	9.54836241e-04
4.87500000e-02	2.37595725e-02	9.57485054e-04
4.90000000e-02	2.34030248e-02	9.37834699e-04
4.92500000e-02	2.33052325e-02	9.36678617e-04
4.95000000e-02	2.35773403e-02	9.40379401e-04
4.97500000e-02	2.30771038e-02	9.31270710e-04
5.00000000e-02	2.30664721e-02	9.19084583e-04
5.02500000e-02	2.28752201e-02	9.11867394e-04
5.05000000e-02	2.28635447e-02	9.06501020e-04
5.07500000e-02	2.29338304e-02	9.17692992e-04
5.10000000e-02	2.30746312e-02	9.11698961e-04
5.12500000e-02	2.35296879e-02	9.34494865e-04
5.15000000e-02	2.33293330e-02	9.22845845e-04
5.17500000e-02	2.29277173e-02	9.07853536e-04
5.20000000e-02	2.26388573e-02	8.89947414e-04
5.22500000e-02	2.30596469e-02	9.05769779e-04
5.25000000e-02	2.29220532e-02	8.95585836e-04
5.27500000e-02	2.27744204e-02	8.88672313e-04
5.30000000e-02	2.28043532e-02	8.92279831e-04
5.32500000e-02	2.28519410e-02	8.95225364e-04
5.35000000e-02	2.20282535e-02	8.59029139e-04
5.37500000e-02	2.30503605e-02	8.93776935e-04
5.40000000e-02	2.28166155e-02	8.86559590e-04
5.42500000e-02	2.24692467e-02	8.66827698e-04
5.45000000e-02	2.28391108e-02	8.84996442e-04
5.47500000e-02	2.22982806e-02	8.59782171e-04
5.50000000e-02	2.24120470e-02	8.64587478e-04
5.52500000e-02	2.23260363e-02	8.57821254e-04
5.55000000e-02	2.20014612e-02	8.46520348e-04
5.57500000e-02	2.18786563e-02	8.42083753e-04
5.60000000e-02	2.18247142e-02	8.33182456e-04
5.62500000e-02	2.20647952e-02	8.42435623e-04
5.65000000e-02	2.28021353e-02	8.56217357e-04
5.67500000e-02	2.21358206e-02	8.42986379e-04
5.70000000e-02	2.20365179e-02	8.35146861e-04
5.72500000e-02	2.21486048e-02	8.45397355e-04
5.75000000e-02	2.19262119e-02	8.33870279e-04
5.77500000e-02	2.26927382e-02	8.50208187e-04
5.80000000e-02	2.17094030e-02	8.20120317e-04
5.82500000e-02	2.17178796e-02	8.10757653e-04
5.85000000e-02	2.12543296e-02	8.04305287e-04
5.87500000e-02	2.21770252e-02	8.24161126e-04
5.90000000e-02	2.16738588e-02	8.09855364e-04
5.92500000e-02	2.18439656e-02	8.18029646e-04
5.95000000e-02	2.18815672e-02	8.10207224e-04
5.97500000e-02	2.21513230e-02	8.24613956e-04
6.00000000e-02	2.14067732e-02	7.95418029e-04
6.02500000e-02	2.16783880e-02	8.06769178e-04
6.05000000e-02	2.17482699e-02	8.06616038e-04
6.07500000e-02	2.05876861e-02	7.64404634e-04
6.10000000e-02	2.10182775e-02	7.81751535e-04
6.12500000e-02	2.10398632e-02	7.75308690e-04
6.15000000e-02	2.16592117e-02	7.97553758e-04
6.17500000e-02	2.09282575e-02	7.68371860e-04
6.20000000e-02	2.15647770e-02	7.90040969e-04
6.22500000e-02	2.09630820e-02	7.72309714e-04
6.25000000e-02	2.11286463e-02	7.75501373e-04
6.27500000e-02	2.12177013e-02	7.72040249e-04
6.30000000e-02	2.07298717e-02	7.58296827e-04
6.32500000e-02	2.11950729e-02	7.71436016e-04
6.35000000e-02	2.08883204e-02	7.66766844e-04
6.37500000e-02	2.06390395e-02	7.57676877e-04
6.40000000e-02	2.10001537e-02	7.65086505e-04
6.42500000e-02	2.08721348e-02	7.50899565e-04
6.45000000e-02	2.15757576e-02	7.77766125e-04
6.47500000e-02	2.16439260e-02	7.80546069e-04
6.50000000e-02	2.18307396e-02	7.85438276e-04
6.52500000e-02	2.12291333e-02	7.58423750e-04
6.55000000e-02	2.07732837e-02	7.48523127e-04
6.57500000e-02	2.09525473e-02	7.55811139e-04
6.60000000e-02	2.14308688e-02	7.70780682e-04
6.62500000e-02	2.10157280e-02	7.54292548e-04
6.65000000e-02	2.13635112e-02	7.54808977e-04
6.67500000e-02	2.10358691e-02	7.50499468e-04
6.70000000e-02	2.09547129e-02	7.53239316e-04
6.72500000e-02	2.07294915e-02	7.48051229e-04
6.75000000e-02	2.11996362e-02	7.51220245e-04
6.77500000e-02	2.12109258e-02	7.52778607e-04
6.80000000e-02	2.08546991e-02	7.40094360e-04
6.82500000e-02	2.14090372e-02	7.51639248e-04
6.85000000e-02	2.11226328e-02	7.52946489e-04
6.87500000e-02	2.12171711e-02	7.49627876e-04
6.90000000e-02	2.08293654e-02	7.33776440e-04
6.92500000e-02	2.11147257e-02	7.40487454e-04
6.95000000e-02	2.15085351e-02	7.56060821e-04
6.97500000e-02	2.10478523e-02	7.41264682e-04
7.00000000e-02	2.11425300e-02	7.38040672e-04
7.02500000e-02	2.04463103e-02	7.10190588e-04
7.05000000e-02	2.09907376e-02	7.29007422e-04
7.07500000e-02	2.10021701e-02	7.33007527e-04
7.10000000e-02	2.08140901e-02	7.19264132e-04
7.12500000e-02	2.05155199e-02	7.14954932e-04
7.15000000e-02	2.12993937e-02	7.30508666e-04
7.17500000e-02	2.10981258e-02	7.25689588e-04
7.20000000e-02	2.09965242e-02	7.23887916e-04
7.22500000e-02	2.06148432e-02	7.13851818e-04
7.25000000e-02	2.08534155e-02	7.17287569e-04
7.27500000e-02	2.04462313e-02	7.06027271e-04
7.30000000e-02	2.05345766e-02	7.02074489e-04
7.32500000e-02	2.00303736e-02	6.86413281e-04
7.35000000e-02	2.05933007e-02	7.03415844e-04
7.37500000e-02	2.08414189e-02	7.07350536e-04
7.40000000e-02	2.05312075e-02	7.01986022e-04
7.42500000e-02	2.10657964e-02	7.19526155e-04
7.45000000e-02	2.07553277e-02	7.04394047e-04
7.47500000e-02	2.10966220e-02	7.12954651e-04
7.50000000e-02	2.14971057e-02	7.23643129e-04
7.52500000e-02	2.06018031e-02	6.99061864e-04
7.55000000e-02	2.04632953e-02	6.93032460e-04
7.57500000e-02	2.11204351e-02	7.12733854e-04
7.60000000e-02	2.13988463e-02	7.20795322e-04
7.62500000e-02	2.06743804e-02	7.02821602e-04
7.65000000e-02	2.09636375e-02	7.04899953e-04
7.67500000e-02	2.09354896e-02	7.05370514e-04
7.70000000e-02	2.07693809e-02	6.96309388e-04
7.72500000e-02	2.09199881e-02	7.11096032e-04
7.75000000e-02	2.11519361e-02	7.32528296e-04
7.77500000e-02	2.06163191e-02	7.14621117e-04
7.80000000e-02	2.10856415e-02	7.34030647e-04
7.82500000e-02	2.04184837e-02	7.13807010e-04
7.85000000e-02	2.07700403e-02	7.33267982e-04
7.87500000e-02	2.04504955e-02	7.15879072e-04
7.90000000e-02	2.11468028e-02	7.52169619e-04
7.92500000e-02	2.09438226e-02	7.45561465e-04
7.95000000e-02	2.01386483e-02	7.16633462e-04
7.97500000e-02	2.04180968e-02	7.34037712e-04
8.00000000e-02	2.10161561e-02	7.49207650e-04
8.02500000e-02	2.06248373e-02	7.36272079e-04
8.05000000e-02	2.03604698e-02	7.27853538e-04
8.07500000e-02	2.03122428e-02	7.38689265e-04
8.10000000e-02	2.05708015e-02	7.39543968e-04
8.12500000e-02	2.06832282e-02	7.49336501e-04
8.15000000e-02	1.99978674e-02	7.18087872e-04
8.17500000e-02	2.08389660e-02	7.59339158e-04
8.20000000e-02	2.08634976e-02	7.59769300e-04
8.22500000e-02	2.05019337e-02	7.44218097e-04
8.25000000e-02	2.03496210e-02	7.43698547e-04
8.27500000e-02	2.05530527e-02	7.47844853e-04
8.30000000e-02	2.05667554e-02	7.57350767e-04
8.32500000e-02	2.05526429e-02	7.53335886e-04
8.35000000e-02	2.06163180e-02	7.66300257e-04
8.37500000e-02	2.00094870e-02	7.36189365e-04
8.40000000e-02	1.98653099e-02	7.28899433e-04
8.42500000e-02	2.03958982e-02	7.46347274e-04
8.45000000e-02	2.05231188e-02	7.58948576e-04
8.47500000e-02	2.00058721e-02	7.42159219e-04
8.50000000e-02	2.01724673e-02	7.37657340e-04
8.52500000e-02	2.10018907e-02	7.74806586e-04
8.55000000e-02	2.02553667e-02	7.41661253e-04
8.57500000e-02	2.03304439e-02	7.51832782e-04
8.60000000e-02	2.02211602e-02	7.49619897e-04
8.62500000e-02	2.04918084e-02	7.57515644e-04
8.65000000e-02	2.04268478e-02	7.57873738e-04
8.67500000e-02	2.04650297e-02	7.52270726e-04
8.70000000e-02	2.04066643e-02	7.41676815e-04
8.72500000e-02	2.04110055e-02	7.27582089e-04
8.75000000e-02	2.00819843e-02	7.09382725e-04
8.77500000e-02	2.01889757e-02	7.07252439e-04
8.80000000e-02	2.05658701e-02	7.20325492e-04
8.82500000e-02	2.00059566e-02	6.98329875e-04
8.85000000e-02	2.03675984e-02	7.03984370e-04
8.87500000e-02	2.03901807e-02	6.96935401e-04
8.90000000e-02	2.06952673e-02	7.20418682e-04
8.92500000e-02	2.06774099e-02	7.12745489e-04
8.95000000e-02	2.02504468e-02	6.92469004e-04
8.97500000e-02	1.99201012e-02	6.78090600e-04
9.00000000e-02	2.01913852e-02	6.78807250e-04
9.02500000e-02	2.03446673e-02	6.95330407e-04
9.05000000e-02	2.05332250e-02	6.87703700e-04
9.07500000e-02	2.00805222e-02	6.80820519e-04
9.10000000e-02	2.01827696e-02	6.72599879e-04
9.12500000e-02	2.04824046e-02	6.86984199e-04
9.15000000e-02	2.01055409e-02	6.71663980e-04
9.17500000e-02	2.00701829e-02	6.74216791e-04
9.20000000e-02	2.00108976e-02	6.71785930e-04
9.22500000e-02	2.01209350e-02	6.66870169e-04
9.25000000e-02	2.03697259e-02	6.72995340e-04
9.27500000e-02	2.01069577e-02	6.62695383e-04
9.30000000e-02	2.02331465e-02	6.67929469e-04
9.32500000e-02	2.02648643e-02	6.69230855e-04
9.35000000e-02	2.04281753e-02	6.68245662e-04
9.37500000e-02	1.99362803e-02	6.50299996e-04
9.40000000e-02	2.03645522e-02	6.64809695e-04
9.42500000e-02	2.01155976e-02	6.58708366e-04
9.45000000e-02	2.00088858e-02	6.55632592e-04
9.47500000e-02	2.06353508e-02	6.68194879e-04
9.50000000e-02	2.00635247e-02	6.50054923e-04
9.52500000e-02	1.97723597e-02	6.41998354e-04
9.55000000e-02	2.04774448e-02	6.58271584e-04
9.57500000e-02	2.00462722e-02	6.51616727e-04
9.60000000e-02	2.04790743e-02	6.61480871e-04
9.62500000e-02	1.97917458e-02	6.40132170e-04
9.65000000e-02	2.01860213e-02	6.50574463e-04
9.67500000e-02	2.04480226e-02	6.52128897e-04
9.70000000e-02	2.00199611e-02	6.50949531e-04
9.72500000e-02	1.94211069e-02	6.22330741e-04
9.75000000e-02	1.99006823e-02	6.38680660e-04
9.77500000e-02	1.98534660e-02	6.32160186e-04
9.80000000e-02	1.99298221e-02	6.42001893e-04
9.82500000e-02	1.98565744e-02	6.35006828e-04
9.85000000e-02	1.96520445e-02	6.28090229e-04
9.87500000e-02	2.00106526e-02	6.35856531e-04
9.90000000e-02	2.00346246e-02	6.36703689e-04
9.92500000e-02	1.97409845e-02	6.25515616e-04
9.95000000e-02	1.95396889e-02	6.17342840e-04
9.97500000e-02	1.98033353e-02	6.31779804e-04
1.00000000e-01	1.99242902e-02	5.11549301e-04
1.00500000e-01	2.01712354e-02	4.51154578e-04
1.01000000e-01	1.99274336e-02	4.39676746e-04
1.01500000e-01	1.97378082e-02	4.38049128e-04
1.02000000e-01	1.97364908e-02	4.34679134e-04
1.02500000e-01	1.99320651e-02	4.36963800e-04
1.03000000e-01	1.99205518e-02	4.39368858e-04
1.03500000e-01	1.98980738e-02	4.36289530e-04
1.04000000e-01	1.97469965e-02	4.31120830e-04
1.04500000e-01	1.97572994e-02	4.30630235e-04
1.05000000e-01	1.97597801e-02	4.27219795e-04
1.05500000e-01	2.01045733e-02	4.34845123e-04
1.06000000e-01	1.99834324e-02	4.29707740e-04
1.06500000e-01	2.01674969e-02	4.34310934e-04
1.07000000e-01	2.01339207e-02	4.37501904e-04
1.07500000e-01	1.99869691e-02	4.43754187e-04
1.08000000e-01	1.97860654e-02	4.41833650e-04
1.08500000e-01	2.00446336e-02	4.54462514e-04
1.09000000e-01	1.98780185e-02	4.49570927e-04
1.09500000e-01	1.95836487e-02	4.46013555e-04
1.10000000e-01	2.00265198e-02	4.49712717e-04
1.10500000e-01	2.01132149e-02	4.42835272e-04
1.11000000e-01	1.97142362e-02	4.26330713e-04
1.11500000e-01	2.00361796e-02	4.33095377e-04
1.12000000e-01	2.00383934e-02	4.25851593e-04
1.12500000e-01	1.99405753e-02	4.24310695e-04
1.13000000e-01	2.01714992e-02	4.28154966e-04
1.13500000e-01	1.99941881e-02	4.21293588e-04
1.14000000e-01	1.99587645e-02	4.19319082e-04
1.14500000e-01	1.94714019e-02	4.09779792e-04
1.15000000e-01	1.96368843e-02	4.09530595e-04
1.15500000e-01	2.00682520e-02	4.17076080e-04
1.16000000e-01	1.99109066e-02	4.12037025e-04
1.16500000e-01	1.98837604e-02	4.12212129e-04
1.17000000e-01	1.97560410e-02	4.10160901e-04
1.17500000e-01	1.94086537e-02	4.00315145e-04
1.18000000e-01	1.96286747e-02	4.04853636e-04
1.18500000e-01	1.96385559e-02	4.03498320e-04
1.19000000e-01	1.98241570e-02	4.05622326e-04
1.19500000e-01	1.95363764e-02	4.01180986e-04
1.20000000e-01	1.98212231e-02	4.02213863e-04
1.20500000e-01	1.95946119e-02	3.97929278e-04
1.21000000e-01	1.98124688e-02	4.02108131e-04
1.21500000e-01	1.95544055e-02	3.97635450e-04
1.22000000e-01	2.03541282e-02	4.08297436e-04
1.22500000e-01	2.01120947e-02	4.05498885e-04
1.23000000e-01	1.96170909e-02	3.94656283e-04
1.23500000e-01	1.99620105e-02	3.99777760e-04
1.24000000e-01	1.96655140e-02	3.93601875e-04
1.24500000e-01	2.00445309e-02	3.97157351e-04
1.25000000e-01	1.98449802e-02	3.95282034e-04
1.25500000e-01	1.99702173e-02	3.98112273e-04
1.26000000e-01	1.96732931e-02	3.89555207e-04
1.26500000e-01	1.96687541e-02	3.91555220e-04
1.27000000e-01	2.00030110e-02	3.93518937e-04
1.27500000e-01	1.97503359e-02	3.89912283e-04
1.28000000e-01	1.99256387e-02	3.92937165e-04
1.28500000e-01	1.97738447e-02	3.89153506e-04
1.29000000e-01	1.97545954e-02	3.88054458e-04
1.29500000e-01	1.96762554e-02	3.85696632e-04
1.30000000e-01	1.97791538e-02	3.86507386e-04
1.30500000e-01	1.93587858e-02	3.78169983e-04
1.31000000e-01	1.95422291e-02	3.80934864e-04
1.31500000e-01	1.97516495e-02	3.82659167e-04
1.32000000e-01	2.00485897e-02	3.87320801e-04
1.32500000e-01	1.99353397e-02	3.85308931e-04
1.33000000e-01	1.95686630e-02	3.78320200e-04
1.33500000e-01	1.96590593e-02	3.77210947e-04
1.34000000e-01	1.93549253e-02	3.70177514e-04
1.34500000e-01	1.96989884e-02	3.76340900e-04
1.35000000e-01	1.97244479e-02	3.75387103e-04
1.35500000e-01	1.96592199e-02	3.74090976e-04
1.36000000e-01	1.95949169e-02	3.72420945e-04
1.36500000e-01	2.00044999e-02	3.79581172e-04
1.37000000e-01	1.99020107e-02	3.74345921e-04
1.37500000e-01	1.97714166e-02	3.73796483e-04
1.38000000e-01	1.96375249e-02	3.71025894e-04
1.38500000e-01	1.96678448e-02	3.68556975e-04
1.39000000e-01	1.97354410e-02	3.72263299e-04
1.39500000e-01	1.94590623e-02	3.65162684e-04
1.40000000e-01	1.96278034e-02	3.70304138e-04
1.40500000e-01	1.94902128e-02	3.65917115e-04
1.41000000e-01	1.96593890e-02	3.68744305e-04
1.41500000e-01	1.95747515e-02	3.67620916e-04
1.42000000e-01	1.96114900e-02	3.65702275e-04
1.42500000e-01	1.97140399e-02	3.67341497e-04
1.43000000e-01	1.95461456e-02	3.64758740e-04
1.43500000e-01	1.92956200e-02	3.59612686e-04
1.44000000e-01	1.95352844e-02	3.60931674e-04
1.44500000e-01	1.96183019e-02	3.61973105e-04
1.45000000e-01	1.96917697e-02	3.65996955e-04
1.45500000e-01	1.95285143e-02	3.59401939e-04
1.46000000e-01	1.94816972e-02	3.58774966e-04
1.46500000e-01	1.95964617e-02	3.62222281e-04
1.47000000e-01	1.92678939e-02	3.54580899e-04
1.47500000e-01	1.96003116e-02	3.60727688e-04
1.48000000e-01	1.93437788e-02	3.53692120e-04
1.48500000e-01	1.94179195e-02	3.54089394e-04
1.49000000e-01	1.91887920e-02	3.50406684e-04
1.49500000e-01	1.94179226e-02	3.53719827e-04
1.50000000e-01	1.96625130e-02	3.56780559e-04
1.50500000e-01	1.96462457e-02	3.57690563e-04
1.51000000e-01	1.94679424e-02	3.54012154e-04
1.51500000e-01	1.96429794e-02	3.52349116e-04
1.52000000e-01	1.92182879e-02	3.45092367e-04
1.52500000e-01	1.93512531e-02	3.49659642e-04
1.53000000e-01	1.93782878e-02	3.49698011e-04
1.53500000e-01	1.91849032e-02	3.43570862e-04
1.54000000e-01	1.91963594e-02	3.43829498e-04
1.54500000e-01	1.91505188e-02	3.48913423e-04
1.55000000e-01	1.91854640e-02	3.55792234e-04
1.55500000e-01	1.94890638e-02	3.64595017e-04
1.56000000e-01	1.92361372e-02	3.60119872e-04
1.56500000e-01	1.89166386e-02	3.54671167e-04
1.57000000e-01	1.93269095e-02	3.61707874e-04
1.57500000e-01	1.96247255e-02	3.60906725e-04
1.58000000e-01	1.92457528e-02	3.47055411e-04
1.58500000e-01	1.90476902e-02	3.44017222e-04
1.59000000e-01	1.91395776e-02	3.43796780e-04
1.59500000e-01	1.91942329e-02	3.43408196e-04
1.60000000e-01	1.94171162e-02	3.47821114e-04
1.60500000e-01	1.89785253e-02	3.38792128e-04
1.61000000e-01	1.90036556e-02	3.39834079e-04
1.61500000e-01	1.92639761e-02	3.41637926e-04
1.62000000e-01	1.91951880e-02	3.39044286e-04
1.62500000e-01	1.92844589e-02	3.41534727e-04
1.63000000e-01	1.90503749e-02	3.34961646e-04
1.63500000e-01	1.90185880e-02	3.37450955e-04
1.64000000e-01	1.90229331e-02	3.34505845e-04
1.64500000e-01	1.93029125e-02	3.39574829e-04
1.65000000e-01	1.91573178e-02	3.35383285e-04
1.65500000e-01	1.90807884e-02	3.32166143e-04
1.66000000e-01	1.90725349e-02	3.34547513e-04
1.66500000e-01	1.90842427e-02	3.31243885e-04
1.67000000e-01	1.91099259e-02	3.34148767e-04
1.67500000e-01	1.91770994e-02	3.32690238e-04
1.68000000e-01	1.91251029e-02	3.32274151e-04
1.68500000e-01	1.89890168e-02	3.28648220e-04
1.69000000e-01	1.89373225e-02	3.28227228e-04
1.69500000e-01	1.91297447e-02	3.29320595e-04
1.70000000e-01	1.89998040e-02	3.27524175e-04
1.70500000e-01	1.91910736e-02	3.30138076e-04
1.71000000e-01	1.88729103e-02	3.25402389e-04
1.71500000e-01	1.88484276e-02	3.22813178e-04
1.72000000e-01	1.88051426e-02	3.22994893e-04
1.72500000e-01	1.88830820e-02	3.24333029e-04
1.73000000e-01	1.89606244e-02	3.24605446e-04
1.73500000e-01	1.90169485e-02	3.23902192e-04
1.74000000e-01	1.90653518e-02	3.23416828e-04
1.74500000e-01	1.86225709e-02	3.15105502e-04
1.75000000e-01	1.89022923e-02	3.19025302e-04
1.75500000e-01	1.89166449e-02	3.17425822e-04
1.76000000e-01	1.88780638e-02	3.17737937e-04
1.76500000e-01	1.88595366e-02	3.18609752e-04
1.77000000e-01	1.90282930e-02	3.19543122e-04
1.77500000e-01	1.87289109e-02	3.16178539e-04
1.78000000e-01	1.87003070e-02	3.13882814e-04
1.78500000e-01	1.86766843e-02	3.13060847e-04
1.79000000e-01	1.86900191e-02	3.13869700e-04
1.79500000e-01	1.88053132e-02	3.15285698e-04
1.80000000e-01	1.90615904e-02	3.20379965e-04
1.80500000e-01	1.84865259e-02	3.11422297e-04
1.81000000e-01	1.90003437e-02	3.17795841e-04
1.81500000e-01	1.88436502e-02	3.14526163e-04
1.82000000e-01	1.89354675e-02	3.15675420e-04
1.82500000e-01	1.87416455e-02	3.11547534e-04
1.83000000e-01	1.88176450e-02	3.13097480e-04
1.83500000e-01	1.86911940e-02	3.09585211e-04
1.84000000e-01	1.87872477e-02	3.11626523e-04
1.84500000e-01	1.89355145e-02	3.14568636e-04
1.85000000e-01	1.86172511e-02	3.08804256e-04
1.85500000e-01	1.84378021e-02	3.04781266e-04
1.86000000e-01	1.85906750e-02	3.08023998e-04
1.86500000e-01	1.85128948e-02	3.06097421e-04
1.87000000e-01	1.85153832e-02	3.05911411e-04
1.87500000e-01	1.85896888e-02	3.04776483e-04
1.88000000e-01	1.86118605e-02	3.05565251e-04
1.88500000e-01	1.85281543e-02	3.04724718e-04
1.89000000e-01	1.84456728e-02	3.01997828e-04
1.89500000e-01	1.85352269e-02	3.04158841e-04
1.90000000e-01	1.88386719e-02	3.07201211e-04
1.90500000e-01	1.84947120e-02	3.01960749e-04
1.91000000e-01	1.84022576e-02	2.99367030e-04
1.91500000e-01	1.86857323e-02	3.04047511e-04
1.92000000e-01	1.84446534e-02	2.99362326e-04
1.92500000e-01	1.86432479e-02	3.02880748e-04
1.93000000e-01	1.85758776e-02	3.00590741e-04
1.93500000e-01	1.81646232e-02	2.94792153e-04
1.94000000e-01	1.83938012e-02	2.98021356e-04
1.94500000e-01	1.83597627e-02	2.96003777e-04
1.95000000e-01	1.85778566e-02	3.01070684e-04
1.95500000e-01	1.84272769e-02	2.96291211e-04
1.96000000e-01	1.86500186e-02	2.99875872e-04
1.96500000e-01	1.84078797e-02	2.97266813e-04
1.97000000e-01	1.84433102e-02	2.96638201e-04
1.97500000e-01	1.81648356e-02	2.90522923e-04
1.98000000e-01	1.82587872e-02	2.93227312e-04
1.98500000e-01	1.85519482e-02	2.96582746e-04
1.99000000e-01	1.84258959e-02	2.94319309e-04
1.99500000e-01	1.83846642e-02	2.93353101e-04
2.00000000e-01	1.84601561e-02	2.93230435e-04
2.00500000e-01	1.81926753e-02	2.91046718e-04
2.01000000e-01	1.84425466e-02	2.92870761e-04
2.01500000e-01	1.84311243e-02	2.92369859e-04
2.02000000e-01	1.83892752e-02	2.91644807e-04
2.02500000e-01	1.84224985e-02	2.90389078e-04
2.03000000e-01	1.81450169e-02	2.87607607e-04
2.03500000e-01	1.83595375e-02	2.90486706e-04
2.04000000e-01	1.82167999e-02	2.88808533e-04
2.04500000e-01	1.81807876e-02	2.88287339e-04
2.05000000e-01	1.84759486e-02	2.90393740e-04
2.05500000e-01	1.82540462e-02	2.88660807e-04
2.06000000e-01	1.81976070e-02	2.85587752e-04
2.06500000e-01	1.83153947e-02	2.86452503e-04
2.07000000e-01	1.82814520e-02	2.86666693e-04
2.07500000e-01	1.81678889e-02	2.84676011e-04
2.08000000e-01	1.82023829e-02	2.86131102e-04
2.08500000e-01	1.81277377e-02	2.82927992e-04
2.09000000e-01	1.81080469e-02	2.82857183e-04
2.09500000e-01	1.81335348e-02	2.82713990e-04
2.10000000e-01	1.82667180e-02	2.84511491e-04
2.10500000e-01	1.82328723e-02	2.84040858e-04
2.11000000e-01	1.82164832e-02	2.83078090e-04
2.11500000e-01	1.80590677e-02	2.81486584e-04
2.12000000e-01	1.79352429e-02	2.78397648e-04
2.12500000e-01	1.82170909e-02	2.81153591e-04
2.13000000e-01	1.79062154e-02	2.77238674e-04
2.13500000e-01	1.82092081e-02	2.81221850e-04
2.14000000e-01	1.80705289e-02	2.78668766e-04
2.14500000e-01	1.80791355e-02	2.78762445e-04
2.15000000e-01	1.80889136e-02	2.79590716e-04
2.15500000e-01	1.81212077e-02	2.78933134e-04
2.16000000e-01	1.80729116e-02	2.77613928e-04
2.16500000e-01	1.84623932e-02	2.83434704e-04
2.17000000e-01	1.81050880e-02	2.81850519e-04
2.17500000e-01	1.79286023e-02	2.83729359e-04
2.18000000e-01	1.82125526e-02	2.89134836e-04
2.18500000e-01	1.78248247e-02	2.84804192e-04
2.19000000e-01	1.80706083e-02	2.89932455e-04
2.19500000e-01	1.79173569e-02	2.87785348e-04
2.20000000e-01	1.81301044e-02	2.92217476e-04
2.20500000e-01	1.79323297e-02	2.91575729e-04
2.21000000e-01	1.79084939e-02	2.91029839e-04
2.21500000e-01	1.82269948e-02	2.98323278e-04
2.22000000e-01	1.81292975e-02	2.94595950e-04
2.22500000e-01	1.75621364e-02	2.87739436e-04
2.23000000e-01	1.78968584e-02	2.94145008e-04
2.23500000e-01	1.80776954e-02	2.96865311e-04
2.24000000e-01	1.78398529e-02	2.93339811e-04
2.24500000e-01	1.80987524e-02	2.99607564e-04
2.25000000e-01	1.79514682e-02	2.97114679e-04
2.25500000e-01	1.79045671e-02	2.95563436e-04
2.26000000e-01	1.79264526e-02	2.97851644e-04
2.26500000e-01	1.77469088e-02	2.90512512e-04
2.27000000e-01	1.82227812e-02	2.93569615e-04
2.27500000e-01	1.79678985e-02	2.88133240e-04
2.28000000e-01	1.78541649e-02	2.86053948e-04
2.28500000e-01	1.81501821e-02	2.89517235e-04
2.29000000e-01	1.78435871e-02	2.82395040e-04
2.29500000e-01	1.78415080e-02	2.81555746e-04
2.30000000e-01	1.80911772e-02	2.83479693e-04
2.30500000e-01	1.80363010e-02	2.82560280e-04
2.31000000e-01	1.79439709e-02	2.80720212e-04
2.31500000e-01	1.78285249e-02	2.77432259e-04
2.32000000e-01	1.79010853e-02	2.77907481e-04
2.32500000e-01	1.79723963e-02	2.79301678e-04
2.33000000e-01	1.81077001e-02	2.80917096e-04
2.33500000e-01	1.78876178e-02	2.77490376e-04
2.34000000e-01	1.78247138e-02	2.74406199e-04
2.34500000e-01	1.78648732e-02	2.74303988e-04
2.35000000e-01	1.77952144e-02	2.73918019e-04
2.35500000e-01	1.78157918e-02	2.73573277e-04
2.36000000e-01	1.76053287e-02	2.70252915e-04
2.36500000e-01	1.75813281e-02	2.69571759e-04
2.37000000e-01	1.79815570e-02	2.73772563e-04
2.37500000e-01	1.78417560e-02	2.70718533e-04
2.38000000e-01	1.79013953e-02	2.71768198e-04
2.38500000e-01	1.77656131e-02	2.70850340e-04
2.39000000e-01	1.77243601e-02	2.67231695e-04
2.39500000e-01	1.77933896e-02	2.68975913e-04
2.40000000e-01	1.76614256e-02	2.66576274e-04
2.40500000e-01	1.74891228e-02	2.64284207e-04
2.41000000e-01	1.76653657e-02	2.67156364e-04
2.41500000e-01	1.77904252e-02	2.67333956e-04
2.42000000e-01	1.76922543e-02	2.65507724e-04
2.42500000e-01	1.77176390e-02	2.65457870e-04
2.43000000e-01	1.75759245e-02	2.62255424e-04
2.43500000e-01	1.77425116e-02	2.66074324e-04
2.44000000e-01	1.77399198e-02	2.63972282e-04
2.44500000e-01	1.75870135e-02	2.62052382e-04
2.45000000e-01	1.76945760e-02	2.62686966e-04
2.45500000e-01	1.74862838e-02	2.60054265e-04
2.46000000e-01	1.77832940e-02	2.63887277e-04
2.46500000e-01	1.76000141e-02	2.60880272e-04
2.47000000e-01	1.76545727e-02	2.61843830e-04
2.47500000e-01	1.76714612e-02	2.60236734e-04
2.48000000e-01	1.78049974e-02	2.63098834e-04
2.48500000e-01	1.75562555e-02	2.58586502e-04
2.49000000e-01	1.75799871e-02	2.58105816e-04
2.49500000e-01	1.76207993e-02	2.59945585e-04
2.50000000e-01	1.76646285e-02	2.59104631e-04
2.50500000e-01	1.74760110e-02	2.57724982e-04
2.51000000e-01	1.74876364e-02	2.56306942e-04
2.51500000e-01	1.74164277e-02	2.56002018e-04
2.52000000e-01	1.75666013e-02	2.56764258e-04
2.52500000e-01	1.76670433e-02	2.58051782e-04
2.53000000e-01	1.74744714e-02	2.56326561e-04
2.53500000e-01	1.76616787e-02	2.58042913e-04
2.54000000e-01	1.75371734e-02	2.56601863e-04
2.54500000e-01	1.77786713e-02	2.59313250e-04
2.55000000e-01	1.73949984e-02	2.53965713e-04
2.55500000e-01	1.75306992e-02	2.55038469e-04
2.56000000e-01	1.71251809e-02	2.48640063e-04
2.56500000e-01	1.73672428e-02	2.51758305e-04
2.57000000e-01	1.74296420e-02	2.52171243e-04
2.57500000e-01	1.74600173e-02	2.53227134e-04
2.58000000e-01	1.74548142e-02	2.53165566e-04
2.58500000e-01	1.72697543e-02	2.49234675e-04
2.59000000e-01	1.75676635e-02	2.52794640e-04
2.59500000e-01	1.75561318e-02	2.52946577e-04
2.60000000e-01	1.75010221e-02	2.51213514e-04
2.60500000e-01	1.72516874e-02	2.48116160e-04
2.61000000e-01	1.73610939e-02	2.50028047e-04
2.61500000e-01	1.74914190e-02	2.51677876e-04
2.62000000e-01	1.70598545e-02	2.45321246e-04
2.62500000e-01	1.71323083e-02	2.46425685e-04
2.63000000e-01	1.75118346e-02	2.50650626e-04
2.63500000e-01	1.73793537e-02	2.48215266e-04
2.64000000e-01	1.73759142e-02	2.49073380e-04
2.64500000e-01	1.73502869e-02	2.47581470e-04
2.65000000e-01	1.72746282e-02	2.47160119e-04
2.65500000e-01	1.74392442e-02	2.48251152e-04
2.66000000e-01	1.72664172e-02	2.45799813e-04
2.66500000e-01	1.72076507e-02	2.44134056e-04
2.67000000e-01	1.72629165e-02	2.44423125e-04
2.67500000e-01	1.71979532e-02	2.44107850e-04
2.68000000e-01	1.73243326e-02	2.46226620e-04
2.68500000e-01	1.73512553e-02	2.44295860e-04
2.69000000e-01	1.72348216e-02	2.41739271e-04
2.69500000e-01	1.70969719e-02	2.41076019e-04
2.70000000e-01	1.72831297e-02	2.43398778e-04
2.70500000e-01	1.72446515e-02	2.42828966e-04
2.71000000e-01	1.72516624e-02	2.42979152e-04
2.71500000e-01	1.71624061e-02	2.40719014e-04
2.72000000e-01	1.73313696e-02	2.43063290e-04
2.72500000e-01	1.69774503e-02	2.39204746e-04
2.73000000e-01	1.72184693e-02	2.41591193e-04
2.73500000e-01	1.71098988e-02	2.39563947e-04
2.74000000e-01	1.70302073e-02	2.37890882e-04
2.74500000e-01	1.71830977e-02	2.39243950e-04
2.75000000e-01	1.71894309e-02	2.40774096e-04
2.75500000e-01	1.71718230e-02	2.40418280e-04
2.76000000e-01	1.69398940e-02	2.36596262e-04
2.76500000e-01	1.71763421e-02	2.39873042e-04
2.77000000e-01	1.71666949e-02	2.38228067e-04
2.77500000e-01	1.68998544e-02	2.35680707e-04
2.78000000e-01	1.71759023e-02	2.38186368e-04
2.78500000e-01	1.71562313e-02	2.38208430e-04
2.79000000e-01	1.72461728e-02	2.38969431e-04
2.79500000e-01	1.72493197e-02	2.38381481e-04
2.80000000e-01	1.71652344e-02	2.37657882e-04
2.80500000e-01	1.71095564e-02	2.36386699e-04
2.81000000e-01	1.70618144e-02	2.36181319e-04
2.81500000e-01	1.70988883e-02	2.35569787e-04
2.82000000e-01	1.70631303e-02	2.35384225e-04
2.82500000e-01	1.71505125e-02	2.36993750e-04
2.83000000e-01	1.70565118e-02	2.34528510e-04
2.83500000e-01	1.68171977e-02	2.32100832e-04
2.84000000e-01	1.70371530e-02	2.33303409e-04
2.84500000e-01	1.69652008e-02	2.33246448e-04
2.85000000e-01	1.70257180e-02	2.33489248e-04
2.85500000e-01	1.69164169e-02	2.31739840e-04
2.86000000e-01	1.72526504e-02	2.37015823e-04
2.86500000e-01	1.71033912e-02	2.34835199e-04
2.87000000e-01	1.70882493e-02	2.33600092e-04
2.87500000e-01	1.68916509e-02	2.30425657e-04
2.88000000e-01	1.68823576e-02	2.29750849e-04
2.88500000e-01	1.70875980e-02	2.32689846e-04
2.89000000e-01	1.70164809e-02	2.31476263e-04
2.89500000e-01	1.68984997e-02	2.29372178e-04
2.90000000e-01	1.68566611e-02	2.29550450e-04
2.90500000e-01	1.69856817e-02	2.30963599e-04
2.91000000e-01	1.72346040e-02	2.33699369e-04
2.91500000e-01	1.69062121e-02	2.28571435e-04
2.92000000e-01	1.67624669e-02	2.26914070e-04
2.92500000e-01	1.69623776e-02	2.29580817e-04
2.93000000e-01	1.68903941e-02	2.28401216e-04
2.93500000e-01	1.68196991e-02	2.26319701e-04
2.94000000e-01	1.70146797e-02	2.28988038e-04
2.94500000e-01	1.68961754e-02	2.27744893e-04
2.95000000e-01	1.67273715e-02	2.24924725e-04
2.95500000e-01	1.68820433e-02	2.27484660e-04
2.96000000e-01	1.67441680e-02	2.24636744e-04
2.96500000e-01	1.67242037e-02	2.25283722e-04
2.97000000e-01	1.68835043e-02	2.26825283e-04
2.97500000e-01	1.68197972e-02	2.25191010e-04
2.98000000e-01	1.69206477e-02	2.27291392e-04
2.98500000e-01	1.67103421e-02	2.23234473e-04
2.99000000e-01	1.67542539e-02	2.24752138e-04
2.99500000e-01	1.66888941e-02	2.23663174e-04
3.00000000e-01	1.68783923e-02	2.25248424e-04
3.00500000e-01	1.64647495e-02	2.20503417e-04
3.01000000e-01	1.66456643e-02	2.21476469e-04
3.01500000e-01	1.66814447e-02	2.23170209e-04
3.02000000e-01	1.66435637e-02	2.21848650e-04
3.02500000e-01	1.67213412e-02	2.22284965e-04
3.03000000e-01	1.65709820e-02	2.20972633e-04
3.03500000e-01	1.68075211e-02	2.22836684e-04
3.04000000e-01	1.67655348e-02	2.23452174e-04
3.04500000e-01	1.66931934e-02	2.20757856e-04
3.05000000e-01	1.67577733e-02	2.21672127e-04
3.05500000e-01	1.67716099e-02	2.22282770e-04
3.06000000e-01	1.66141431e-02	2.19691017e-04
3.06500000e-01	1.67853253e-02	2.22128156e-04
3.07000000e-01	1.67769060e-02	2.21554783e-04
3.07500000e-01	1.65073003e-02	2.17408110e-04
3.08000000e-01	1.66667485e-02	2.19546308e-04
3.08500000e-01	1.66640803e-02	2.20073730e-04
3.09000000e-01	1.65488026e-02	2.18013106e-04
3.09500000e-01	1.67559029e-02	2.19898143e-04
3.10000000e-01	1.65157725e-02	2.17668262e-04
3.10500000e-01	1.67825216e-02	2.20037878e-04
3.11000000e-01	1.64908283e-02	2.16483410e-04
3.11500000e-01	1.65917379e-02	2.18038711e-04
3.12000000e-01	1.68022111e-02	2.19640185e-04
3.12500000e-01	1.65700384e-02	2.17123178e-04
3.13000000e-01	1.64954362e-02	2.15571832e-04
3.13500000e-01	1.66828980e-02	2.18031038e-04
3.14000000e-01	1.67159085e-02	2.18147199e-04
3.14500000e-01	1.66738534e-02	2.16907902e-04
3.15000000e-01	1.64954655e-02	2.15457590e-04
3.15500000e-01	1.65954239e-02	2.16210514e-04
3.16000000e-01	1.64311320e-02	2.14487814e-04
3.16500000e-01	1.65293071e-02	2.14992908e-04
3.17000000e-01	1.66973069e-02	2.15705011e-04
3.17500000e-01	1.66423774e-02	2.15887572e-04
3.18000000e-01	1.64315637e-02	2.13828038e-04
3.18500000e-01	1.65550189e-02	2.14441728e-04
3.19000000e-01	1.65583158e-02	2.14678802e-04
3.19500000e-01	1.64200548e-02	2.12946150e-04
3.20000000e-01	1.63585723e-02	2.11897721e-04
3.20500000e-01	1.65602087e-02	2.13836443e-04
3.21000000e-01	1.64395698e-02	2.12715421e-04
3.21500000e-01	1.64305197e-02	2.11975740e-04
3.22000000e-01	1.64482720e-02	2.12328460e-04
3.22500000e-01	1.62833638e-02	2.09978710e-04
3.23000000e-01	1.64787267e-02	2.12125958e-04
3.23500000e-01	1.62999995e-02	2.10183305e-04
3.24000000e-01	1.62080618e-02	2.09093372e-04
3.24500000e-01	1.62556583e-02	2.09348440e-04
3.25000000e-01	1.62557773e-02	2.09172571e-04
3.25500000e-01	1.64339096e-02	2.11334108e-04
3.26000000e-01	1.63305231e-02	2.09739147e-04
3.26500000e-01	1.62750819e-02	2.08876961e-04
3.27000000e-01	1.64333319e-02	2.10234207e-04
3.27500000e-01	1.62114941e-02	2.07918246e-04
3.28000000e-01	1.63472087e-02	2.09064878e-04
3.28500000e-01	1.62126434e-02	2.07049204e-04
3.29000000e-01	1.62071569e-02	2.07063430e-04
3.29500000e-01	1.63040427e-02	2.08393860e-04
3.30000000e-01	1.61261913e-02	2.05994585e-04
3.30500000e-01	1.63862400e-02	2.09539586e-04
3.31000000e-01	1.62643246e-02	2.07159571e-04
3.31500000e-01	1.62189267e-02	2.06769552e-04
3.32000000e-01	1.62502136e-02	2.06861233e-04
3.32500000e-01	1.62846589e-02	2.06846771e-04
3.33000000e-01	1.62658260e-02	2.06557029e-04
3.33500000e-01	1.61627502e-02	2.05215321e-04
3.34000000e-01	1.61557270e-02	2.04928757e-04
3.34500000e-01	1.61019340e-02	2.04818248e-04
3.35000000e-01	1.62280041e-02	2.04985787e-04
3.35500000e-01	1.61442991e-02	2.03876398e-04
3.36000000e-01	1.63645336e-02	2.05880059e-04
3.36500000e-01	1.60410027e-02	2.03586887e-04
3.37000000e-01	1.63441035e-02	2.05999987e-04
3.37500000e-01	1.61157988e-02	2.03427635e-04
3.38000000e-01	1.60337693e-02	2.03197704e-04
3.38500000e-01	1.61800356e-02	2.03600811e-04
3.39000000e-01	1.61569030e-02	2.03946013e-04
3.39500000e-01	1.60871322e-02	2.02113430e-04
3.40000000e-01	1.59462680e-02	2.00955148e-04
3.40500000e-01	1.61687553e-02	2.02715542e-04
3.41000000e-01	1.61320060e-02	2.02246915e-04
3.41500000e-01	1.59641516e-02	2.01431582e-04
3.42000000e-01	1.61281810e-02	2.01863139e-04
3.42500000e-01	1.61699372e-02	2.02949194e-04
3.43000000e-01	1.59923346e-02	2.00872000e-04
3.43500000e-01	1.59883339e-02	2.00565930e-04
3.44000000e-01	1.60324924e-02	2.01146915e-04
3.44500000e-01	1.59874329e-02	2.00035226e-04
3.45000000e-01	1.59863767e-02	1.99967912e-04
3.45500000e-01	1.58316983e-02	1.97907908e-04
3.46000000e-01	1.59361600e-02	2.00331991e-04
3.46500000e-01	1.59117494e-02	1.97971365e-04
3.47000000e-01	1.58725526e-02	1.96874886e-04
3.47500000e-01	1.58975159e-02	1.98091535e-04
3.48000000e-01	1.60086783e-02	1.99516677e-04
3.48500000e-01	1.59690642e-02	1.99289934e-04
3.49000000e-01	1.59758565e-02	1.97968671e-04
3.49500000e-01	1.57884913e-02	1.96380464e-04
3.50000000e-01	1.59079335e-02	1.60724746e-04
3.51000000e-01	1.59289841e-02	1.39433143e-04
3.52000000e-01	1.57871247e-02	1.38116773e-04
3.53000000e-01	1.57720905e-02	1.37852743e-04
3.54000000e-01	1.59493126e-02	1.38818408e-04
3.55000000e-01	1.58672391e-02	1.38432953e-04
3.56000000e-01	1.58296145e-02	1.38633870e-04
3.57000000e-01	1.56972845e-02	1.40055456e-04
3.58000000e-01	1.56659848e-02	1.40519344e-04
3.59000000e-01	1.57355604e-02	1.42465141e-04
3.60000000e-01	1.56689178e-02	1.42718356e-04
3.61000000e-01	1.57108787e-02	1.43819618e-04
3.62000000e-01	1.56993584e-02	1.44357600e-04
3.63000000e-01	1.56568981e-02	1.44671964e-04
3.64000000e-01	1.56624992e-02	1.44848655e-04
3.65000000e-01	1.56793221e-02	1.45357500e-04
3.66000000e-01	1.55987448e-02	1.43407840e-04
3.67000000e-01	1.56460583e-02	1.41719258e-04
3.68000000e-01	1.56322872e-02	1.40996917e-04
3.69000000e-01	1.55044954e-02	1.38811377e-04
3.70000000e-01	1.56427966e-02	1.39147865e-04
3.71000000e-01	1.55444558e-02	1.40194799e-04
3.72000000e-01	1.55918171e-02	1.41688971e-04
3.73000000e-01	1.57046741e-02	1.42526930e-04
3.74000000e-01	1.55128460e-02	1.41136895e-04
3.75000000e-01	1.55697739e-02	1.41843152e-04
3.76000000e-01	1.55592653e-02	1.41642497e-04
3.77000000e-01	1.54978211e-02	1.41188609e-04
3.78000000e-01	1.55078127e-02	1.41378516e-04
3.79000000e-01	1.53247086e-02	1.39866537e-04
3.80000000e-01	1.54972515e-02	1.40890429e-04
3.81000000e-01	1.53985870e-02	1.39810691e-04
3.82000000e-01	1.53969881e-02	1.39828361e-04
3.83000000e-01	1.54505912e-02	1.40154976e-04
3.84000000e-01	1.53999375e-02	1.39929588e-04
3.85000000e-01	1.54991347e-02	1.41127367e-04
3.86000000e-01	1.54037514e-02	1.39787716e-04
3.87000000e-01	1.52483259e-02	1.38502589e-04
3.88000000e-01	1.53643515e-02	1.39499390e-04
3.89000000e-01	1.53651286e-02	1.39527006e-04
3.90000000e-01	1.53056411e-02	1.38830542e-04
3.91000000e-01	1.53037142e-02	1.38735709e-04
3.92000000e-01	1.52663636e-02	1.38655642e-04
3.93000000e-01	1.53384627e-02	1.38822043e-04
3.94000000e-01	1.53794356e-02	1.39371426e-04
3.95000000e-01	1.54267614e-02	1.39766850e-04
3.96000000e-01	1.52887867e-02	1.38360163e-04
3.97000000e-01	1.52923507e-02	1.38391062e-04
3.98000000e-01	1.51089253e-02	1.37280708e-04
3.99000000e-01	1.52581415e-02	1.38360241e-04
4.00000000e-01	1.51553005e-02	1.37201858e-04
4.01000000e-01	1.51105703e-02	1.36937712e-04
4.02000000e-01	1.50567940e-02	1.36296667e-04
4.03000000e-01	1.50868661e-02	1.36611755e-04
4.04000000e-01	1.50495395e-02	1.36413655e-04
4.05000000e-01	1.51507160e-02	1.37148393e-04
4.06000000e-01	1.52020770e-02	1.37663776e-04
4.07000000e-01	1.50883908e-02	1.36937496e-04
4.08000000e-01	1.50813467e-02	1.36535426e-04
4.09000000e-01	1.50527685e-02	1.36154364e-04
4.10000000e-01	1.50830135e-02	1.36300129e-04
4.11000000e-01	1.51907647e-02	1.37092742e-04
4.12000000e-01	1.51078151e-02	1.36827918e-04
4.13000000e-01	1.51624204e-02	1.36859731e-04
4.14000000e-01	1.50765704e-02	1.36056279e-04
4.15000000e-01	1.50493863e-02	1.35626448e-04
4.16000000e-01	1.50586755e-02	1.35732256e-04
4.17000000e-01	1.48619842e-02	1.34280610e-04
4.18000000e-01	1.50719189e-02	1.37797610e-04
4.19000000e-01	1.49887652e-02	1.38323982e-04
4.20000000e-01	1.51042883e-02	1.39914889e-04
4.21000000e-01	1.50509061e-02	1.39709078e-04
4.22000000e-01	1.51258831e-02	1.41224949e-04
4.23000000e-01	1.50285608e-02	1.41175707e-04
4.24000000e-01	1.51796220e-02	1.43068069e-04
4.25000000e-01	1.50622313e-02	1.41785918e-04
4.26000000e-01	1.49350573e-02	1.40777691e-04
4.27000000e-01	1.51254026e-02	1.41849240e-04
4.28000000e-01	1.50980475e-02	1.42504209e-04
4.29000000e-01	1.49930115e-02	1.41707991e-04
4.30000000e-01	1.49935047e-02	1.41473088e-04
4.31000000e-01	1.50621806e-02	1.41725614e-04
4.32000000e-01	1.50606002e-02	1.42035750e-04
4.33000000e-01	1.49491331e-02	1.40954589e-04
4.34000000e-01	1.49646371e-02	1.41595283e-04
4.35000000e-01	1.49659053e-02	1.41655560e-04
4.36000000e-01	1.48282229e-02	1.40810321e-04
4.37000000e-01	1.49404313e-02	1.42011444e-04
4.38000000e-01	1.48149936e-02	1.41187856e-04
4.39000000e-01	1.48626444e-02	1.41880096e-04
4.40000000e-01	1.48150719e-02	1.41646262e-04
4.41000000e-01	1.49408236e-02	1.42194185e-04
4.42000000e-01	1.47617951e-02	1.41868029e-04
4.43000000e-01	1.49279029e-02	1.42896515e-04
4.44000000e-01	1.47001224e-02	1.41107591e-04
4.45000000e-01	1.48304655e-02	1.41961058e-04
4.46000000e-01	1.46199081e-02	1.40690814e-04
4.47000000e-01	1.48397018e-02	1.42762321e-04
4.48000000e-01	1.47642805e-02	1.42167468e-04
4.49000000e-01	1.47560364e-02	1.41882565e-04
4.50000000e-01	1.46603574e-02	1.41489061e-04
4.51000000e-01	1.47453343e-02	1.42399063e-04
4.52000000e-01	1.48133153e-02	1.42685443e-04
4.53000000e-01	1.47002052e-02	1.42286219e-04
4.54000000e-01	1.48443102e-02	1.43892137e-04
4.55000000e-01	1.49045352e-02	1.44395242e-04
4.56000000e-01	1.45010578e-02	1.41236714e-04
4.57000000e-01	1.46221292e-02	1.42419976e-04
4.58000000e-01	1.46911514e-02	1.43041601e-04
4.59000000e-01	1.46694157e-02	1.42570396e-04
4.60000000e-01	1.46287172e-02	1.42564160e-04
4.61000000e-01	1.48349294e-02	1.44354144e-04
4.62000000e-01	1.46106757e-02	1.41827413e-04
4.63000000e-01	1.45520860e-02	1.42329383e-04
4.64000000e-01	1.47402331e-02	1.43953374e-04
4.65000000e-01	1.47540165e-02	1.44022197e-04
4.66000000e-01	1.46601582e-02	1.43275468e-04
4.67000000e-01	1.46351492e-02	1.43292865e-04
4.68000000e-01	1.46027427e-02	1.43227835e-04
4.69000000e-01	1.46622761e-02	1.43414149e-04
4.70000000e-01	1.45072756e-02	1.42600435e-04
4.71000000e-01	1.44114199e-02	1.41794470e-04
4.72000000e-01	1.45806514e-02	1.42630184e-04
4.73000000e-01	1.45008128e-02	1.42375609e-04
4.74000000e-01	1.45115651e-02	1.42419735e-04
4.75000000e-01	1.44532149e-02	1.41580784e-04
4.76000000e-01	1.45089334e-02	1.42499175e-04
4.77000000e-01	1.44753692e-02	1.41740095e-04
4.78000000e-01	1.45459365e-02	1.42644076e-04
4.79000000e-01	1.44468313e-02	1.41759563e-04
4.80000000e-01	1.44269060e-02	1.41669898e-04
4.81000000e-01	1.45226328e-02	1.42723331e-04
4.82000000e-01	1.44979876e-02	1.42266418e-04
4.83000000e-01	1.44572798e-02	1.42001851e-04
4.84000000e-01	1.44234361e-02	1.42130567e-04
4.85000000e-01	1.44250458e-02	1.42058491e-04
4.86000000e-01	1.44302635e-02	1.42580658e-04
4.87000000e-01	1.43450012e-02	1.41748714e-04
4.88000000e-01	1.43584016e-02	1.41985617e-04
4.89000000e-01	1.43861837e-02	1.42026815e-04
4.90000000e-01	1.44857200e-02	1.43012673e-04
4.91000000e-01	1.43429421e-02	1.41774927e-04
4.92000000e-01	1.41801859e-02	1.40365041e-04
4.93000000e-01	1.43871175e-02	1.42212834e-04
4.94000000e-01	1.42975463e-02	1.41141239e-04
4.95000000e-01	1.43736357e-02	1.43324575e-04
4.96000000e-01	1.43361197e-02	1.47045010e-04
4.97000000e-01	1.44388792e-02	1.50945618e-04
4.98000000e-01	1.43801995e-02	1.51932189e-04
4.99000000e-01	1.43474790e-02	1.53625865e-04
5.00000000e-01	1.44518907e-02	1.55756723e-04
5.01000000e-01	1.44116780e-02	1.57400742e-04
5.02000000e-01	1.43748727e-02	1.59069069e-04
5.03000000e-01	1.43632357e-02	1.60792477e-04
5.04000000e-01	1.44117537e-02	1.61735096e-04
5.05000000e-01	1.44926575e-02	1.59886440e-04
5.06000000e-01	1.45246212e-02	1.57182595e-04
5.07000000e-01	1.44056146e-02	1.54032965e-04
5.08000000e-01	1.43625852e-02	1.52865514e-04
5.09000000e-01	1.42862263e-02	1.51232324e-04
5.10000000e-01	1.43313285e-02	1.51167306e-04
5.11000000e-01	1.41879916e-02	1.49840164e-04
5.12000000e-01	1.43000920e-02	1.50287619e-04
5.13000000e-01	1.41535698e-02	1.49034880e-04
5.14000000e-01	1.41586623e-02	1.47741348e-04
5.15000000e-01	1.43529759e-02	1.49449109e-04
5.16000000e-01	1.40761101e-02	1.47025982e-04
5.17000000e-01	1.42523093e-02	1.48232453e-04
5.18000000e-01	1.40773945e-02	1.46763325e-04
5.19000000e-01	1.41772355e-02	1.47020456e-04
5.20000000e-01	1.42264229e-02	1.47365663e-04
5.21000000e-01	1.42157272e-02	1.47306103e-04
5.22000000e-01	1.42290176e-02	1.46767276e-04
5.23000000e-01	1.41718933e-02	1.46081346e-04
5.24000000e-01	1.41436283e-02	1.45771550e-04
5.25000000e-01	1.40234150e-02	1.44754984e-04
5.26000000e-01	1.40902377e-02	1.45440638e-04
5.27000000e-01	1.41203986e-02	1.45756351e-04
5.28000000e-01	1.41773916e-02	1.46630958e-04
5.29000000e-01	1.40459587e-02	1.45337408e-04
5.30000000e-01	1.39575893e-02	1.44286277e-04
5.31000000e-01	1.39755368e-02	1.44530088e-04
5.32000000e-01	1.40654548e-02	1.45008232e-04
5.33000000e-01	1.40137965e-02	1.44722986e-04
5.34000000e-01	1.38753609e-02	1.43470818e-04
5.35000000e-01	1.40597569e-02	1.44965098e-04
5.36000000e-01	1.39685245e-02	1.44320812e-04
5.37000000e-01	1.40320801e-02	1.44804103e-04
5.38000000e-01	1.38314392e-02	1.43071201e-04
5.39000000e-01	1.40224495e-02	1.44827773e-04
5.40000000e-01	1.39737685e-02	1.44663423e-04
5.41000000e-01	1.39608338e-02	1.43993548e-04
5.42000000e-01	1.37424540e-02	1.42535931e-04
5.43000000e-01	1.38191887e-02	1.42757948e-04
5.44000000e-01	1.39678877e-02	1.43874385e-04
5.45000000e-01	1.39257184e-02	1.43636339e-04
5.46000000e-01	1.37621338e-02	1.42536358e-04
5.47000000e-01	1.39727355e-02	1.44463238e-04
5.48000000e-01	1.38082962e-02	1.42630399e-04
5.49000000e-01	1.38737879e-02	1.43217687e-04
5.50000000e-01	1.38509581e-02	1.43020587e-04
5.51000000e-01	1.38120769e-02	1.42197120e-04
5.52000000e-01	1.38931539e-02	1.43083754e-04
5.53000000e-01	1.37738971e-02	1.41660862e-04
5.54000000e-01	1.37826044e-02	1.41618748e-04
5.55000000e-01	1.38262807e-02	1.42359263e-04
5.56000000e-01	1.37447939e-02	1.41119742e-04
5.57000000e-01	1.37059629e-02	1.40360848e-04
5.58000000e-01	1.36976094e-02	1.40726348e-04
5.59000000e-01	1.37135806e-02	1.41064632e-04
5.60000000e-01	1.37396619e-02	1.41539853e-04
5.61000000e-01	1.37523920e-02	1.41061968e-04
5.62000000e-01	1.37653101e-02	1.41562543e-04
5.63000000e-01	1.36345298e-02	1.40237442e-04
5.64000000e-01	1.36173800e-02	1.40481907e-04
5.65000000e-01	1.36638878e-02	1.40114637e-04
5.66000000e-01	1.36826666e-02	1.40598636e-04
5.67000000e-01	1.37433232e-02	1.41653920e-04
5.68000000e-01	1.35783476e-02	1.40107680e-04
5.69000000e-01	1.35420537e-02	1.39237557e-04
5.70000000e-01	1.36603929e-02	1.39758843e-04
5.71000000e-01	1.36359901e-02	1.40137023e-04
5.72000000e-01	1.36234777e-02	1.39699989e-04
5.73000000e-01	1.35723857e-02	1.40032856e-04
5.74000000e-01	1.35692336e-02	1.39280168e-04
5.75000000e-01	1.36515494e-02	1.40042917e-04
5.76000000e-01	1.36809225e-02	1.40285662e-04
5.77000000e-01	1.34955909e-02	1.39311249e-04
5.78000000e-01	1.33907981e-02	1.38152776e-04
5.79000000e-01	1.34634320e-02	1.38583912e-04
5.80000000e-01	1.34337217e-02	1.38609488e-04
5.81000000e-01	1.35038599e-02	1.39165262e-04
5.82000000e-01	1.35273141e-02	1.39477248e-04
5.83000000e-01	1.35302530e-02	1.39577339e-04
5.84000000e-01	1.34244486e-02	1.38644662e-04
5.85000000e-01	1.34451773e-02	1.39027967e-04
5.86000000e-01	1.34796755e-02	1.39364141e-04
5.87000000e-01	1.35955235e-02	1.40216837e-04
5.88000000e-01	1.34183926e-02	1.38823013e-04
5.89000000e-01	1.34139457e-02	1.38738199e-04
5.90000000e-01	1.33557633e-02	1.38156669e-04
5.91000000e-01	1.34666217e-02	1.39113973e-04
5.92000000e-01	1.34241450e-02	1.38580483e-04
5.93000000e-01	1.34802348e-02	1.39229674e-04
5.94000000e-01	1.33877539e-02	1.38112835e-04
5.95000000e-01	1.33012961e-02	1.37653492e-04
5.96000000e-01	1.33092477e-02	1.37815448e-04
5.97000000e-01	1.34061307e-02	1.38616012e-04
5.98000000e-01	1.32162106e-02	1.37190666e-04
5.99000000e-01	1.33690024e-02	1.38616084e-04
6.00000000e-01	1.33164233e-02	1.38153046e-04
6.01000000e-01	1.33753277e-02	1.37786824e-04
6.02000000e-01	1.33253721e-02	1.38232247e-04
6.03000000e-01	1.33862498e-02	1.38742943e-04
6.04000000e-01	1.32693211e-02	1.37732973e-04
6.05000000e-01	1.33177362e-02	1.37994587e-04
6.06000000e-01	1.32193002e-02	1.37461854e-04
6.07000000e-01	1.31277565e-02	1.36228729e-04
6.08000000e-01	1.32034442e-02	1.36764321e-04
6.09000000e-01	1.33213198e-02	1.37876453e-04
6.10000000e-01	1.34289495e-02	1.38944518e-04
6.11000000e-01	1.32426162e-02	1.37598555e-04
6.12000000e-01	1.33358997e-02	1.38343650e-04
6.13000000e-01	1.33244273e-02	1.38019642e-04
6.14000000e-01	1.32103498e-02	1.36159499e-04
6.15000000e-01	1.31963087e-02	1.37237442e-04
6.16000000e-01	1.31057933e-02	1.36152504e-04
6.17000000e-01	1.31065765e-02	1.36189307e-04
6.18000000e-01	1.31827545e-02	1.36676713e-04
6.19000000e-01	1.32470406e-02	1.37107047e-04
6.20000000e-01	1.31245031e-02	1.36165479e-04
6.21000000e-01	1.30334527e-02	1.35150570e-04
6.22000000e-01	1.32826368e-02	1.36750816e-04
6.23000000e-01	1.31981457e-02	1.36717632e-04
6.24000000e-01	1.31791115e-02	1.35413194e-04
6.25000000e-01	1.31288816e-02	1.35644085e-04
6.26000000e-01	1.31811864e-02	1.35485928e-04
6.27000000e-01	1.31546676e-02	1.35797113e-04
6.28000000e-01	1.30277007e-02	1.34458677e-04
6.29000000e-01	1.30024303e-02	1.33862353e-04
6.30000000e-01	1.31733040e-02	1.35609494e-04
6.31000000e-01	1.31958134e-02	1.36274503e-04
6.32000000e-01	1.30783902e-02	1.35371284e-04
6.33000000e-01	1.31473140e-02	1.35570459e-04
6.34000000e-01	1.29106378e-02	1.36946502e-04
6.35000000e-01	1.32371239e-02	1.44131590e-04
6.36000000e-01	1.31606815e-02	1.45409437e-04
6.37000000e-01	1.31028870e-02	1.47599899e-04
6.38000000e-01	1.30842761e-02	1.48950016e-04
6.39000000e-01	1.31543638e-02	1.51707575e-04
6.40000000e-01	1.29442386e-02	1.51839339e-04
6.41000000e-01	1.31859479e-02	1.56165847e-04
6.42000000e-01	1.30885573e-02	1.55838863e-04
6.43000000e-01	1.30849451e-02	1.56474706e-04
6.44000000e-01	1.30673632e-02	1.50121152e-04
6.45000000e-01	1.31051173e-02	1.48595981e-04
6.46000000e-01	1.32249402e-02	1.49143743e-04
6.47000000e-01	1.31133577e-02	1.46033611e-04
6.48000000e-01	1.30966746e-02	1.44965434e-04
6.49000000e-01	1.31493986e-02	1.44710693e-04
6.50000000e-01	1.31904236e-02	1.44570448e-04
6.51000000e-01	1.31766225e-02	1.43734736e-04
6.52000000e-01	1.30824048e-02	1.41722740e-04
6.53000000e-01	1.31159546e-02	1.42062672e-04
6.54000000e-01	1.29432212e-02	1.39841279e-04
6.55000000e-01	1.30057316e-02	1.40804759e-04
6.56000000e-01	1.30069708e-02	1.40628879e-04
6.57000000e-01	1.30519563e-02	1.40696998e-04
6.58000000e-01	1.30147624e-02	1.40591216e-04
6.59000000e-01	1.30113501e-02	1.40147000e-04
6.60000000e-01	1.29399172e-02	1.39281427e-04
6.61000000e-01	1.30293416e-02	1.39638953e-04
6.62000000e-01	1.31717336e-02	1.40933726e-04
6.63000000e-01	1.29073411e-02	1.38378299e-04
6.64000000e-01	1.30517844e-02	1.39390031e-04
6.65000000e-01	1.31084495e-02	1.39960289e-04
6.66000000e-01	1.29952826e-02	1.39303200e-04
6.67000000e-01	1.30231056e-02	1.39174048e-04
6.68000000e-01	1.30004663e-02	1.38712190e-04
6.69000000e-01	1.28837287e-02	1.38029949e-04
6.70000000e-01	1.28950602e-02	1.38103042e-04
6.71000000e-01	1.29145446e-02	1.37986971e-04
6.72000000e-01	1.29148236e-02	1.37880166e-04
6.73000000e-01	1.28980768e-02	1.38243757e-04
6.74000000e-01	1.29772483e-02	1.37912394e-04
6.75000000e-01	1.27636523e-02	1.36711340e-04
6.76000000e-01	1.27802354e-02	1.36950759e-04
6.77000000e-01	1.26979082e-02	1.35916727e-04
6.78000000e-01	1.28632911e-02	1.37308425e-04
6.79000000e-01	1.29098470e-02	1.37834003e-04
6.80000000e-01	1.29278931e-02	1.37804825e-04
6.81000000e-01	1.28303801e-02	1.37061003e-04
6.82000000e-01	1.27679491e-02	1.36576280e-04
6.83000000e-01	1.29597324e-02	1.37984222e-04
6.84000000e-01	1.28589433e-02	1.36721270e-04
6.85000000e-01	1.27545841e-02	1.35809432e-04
6.86000000e-01	1.28669053e-02	1.36864175e-04
6.87000000e-01	1.26878103e-02	1.35439820e-04
6.88000000e-01	1.28277972e-02	1.36215076e-04
6.89000000e-01	1.28467992e-02	1.36365290e-04
6.90000000e-01	1.27250034e-02	1.35850641e-04
6.91000000e-01	1.27889598e-02	1.36143483e-04
6.92000000e-01	1.28743879e-02	1.36589938e-04
6.93000000e-01	1.28043383e-02	1.36196653e-04
6.94000000e-01	1.28060966e-02	1.36395377e-04
6.95000000e-01	1.27571546e-02	1.36153745e-04
6.96000000e-01	1.27343703e-02	1.35596514e-04
6.97000000e-01	1.27017374e-02	1.35723567e-04
6.98000000e-01	1.27247813e-02	1.35556752e-04
6.99000000e-01	1.27236944e-02	1.35365278e-04
7.00000000e-01	1.26484456e-02	1.34496764e-04
7.01000000e-01	1.25401239e-02	1.33713952e-04
7.02000000e-01	1.26557951e-02	1.34532931e-04
7.03000000e-01	1.27683102e-02	1.35886482e-04
7.04000000e-01	1.27204623e-02	1.35420685e-04
7.05000000e-01	1.27348006e-02	1.35522904e-04
7.06000000e-01	1.26341641e-02	1.34428869e-04
7.07000000e-01	1.26784774e-02	1.34655555e-04
7.08000000e-01	1.26255164e-02	1.33801375e-04
7.09000000e-01	1.25894789e-02	1.33779049e-04
7.10000000e-01	1.25728422e-02	1.33656323e-04
7.11000000e-01	1.25604712e-02	1.33778928e-04
7.12000000e-01	1.24283971e-02	1.32173956e-04
7.13000000e-01	1.26174223e-02	1.34292599e-04
7.14000000e-01	1.24133736e-02	1.32328997e-04
7.15000000e-01	1.24557312e-02	1.33168194e-04
7.16000000e-01	1.24748357e-02	1.33131776e-04
7.17000000e-01	1.22625637e-02	1.30560401e-04
7.18000000e-01	1.25010582e-02	1.32761577e-04
7.19000000e-01	1.23545510e-02	1.31804586e-04
7.20000000e-01	1.24818588e-02	1.32910283e-04
7.21000000e-01	1.24243061e-02	1.32026855e-04
7.22000000e-01	1.23747353e-02	1.31927500e-04
7.23000000e-01	1.24590342e-02	1.32867893e-04
7.24000000e-01	1.24354099e-02	1.32244522e-04
7.25000000e-01	1.25159972e-02	1.32556356e-04
7.26000000e-01	1.24039534e-02	1.32043288e-04
7.27000000e-01	1.23762012e-02	1.31856702e-04
7.28000000e-01	1.22868299e-02	1.31275940e-04
7.29000000e-01	1.24587229e-02	1.32538640e-04
7.30000000e-01	1.22738810e-02	1.30983645e-04
7.31000000e-01	1.22928008e-02	1.30788476e-04
7.32000000e-01	1.22384019e-02	1.30652146e-04
7.33000000e-01	1.22045949e-02	1.30220315e-04
7.34000000e-01	1.23110538e-02	1.30765461e-04
7.35000000e-01	1.21906962e-02	1.29323754e-04
7.36000000e-01	1.23341840e-02	1.30978054e-04
7.37000000e-01	1.22408380e-02	1.29695418e-04
7.38000000e-01	1.22274047e-02	1.29320683e-04
7.39000000e-01	1.22736456e-02	1.29359601e-04
7.40000000e-01	1.23560415e-02	1.30347158e-04
7.41000000e-01	1.22270504e-02	1.29300544e-04
7.42000000e-01	1.21098926e-02	1.27747314e-04
7.43000000e-01	1.21932666e-02	1.28914841e-04
7.44000000e-01	1.23335256e-02	1.30191431e-04
7.45000000e-01	1.20602521e-02	1.27399689e-04
7.46000000e-01	1.21643422e-02	1.28532317e-04
7.47000000e-01	1.21207440e-02	1.27853108e-04
7.48000000e-01	1.23757951e-02	1.30594896e-04
7.49000000e-01	1.22077939e-02	1.28907985e-04
7.50000000e-01	1.22270703e-02	1.29087781e-04
7.51000000e-01	1.22247663e-02	1.28678435e-04
7.52000000e-01	1.21734767e-02	1.28658044e-04
7.53000000e-01	1.20778708e-02	1.27335743e-04
7.54000000e-01	1.20556530e-02	1.27366395e-04
7.55000000e-01	1.21921299e-02	1.28782627e-04
7.56000000e-01	1.20418795e-02	1.26919442e-04
7.57000000e-01	1.21604847e-02	1.28149174e-04
7.58000000e-01	1.20340757e-02	1.27441896e-04
7.59000000e-01	1.20170718e-02	1.26943752e-04
7.60000000e-01	1.20711801e-02	1.27111916e-04
7.61000000e-01	1.21016161e-02	1.27833787e-04
7.62000000e-01	1.20147179e-02	1.26188696e-04
7.63000000e-01	1.19586704e-02	1.26069282e-04
7.64000000e-01	1.20700801e-02	1.26413807e-04
7.65000000e-01	1.19591547e-02	1.25397147e-04
7.66000000e-01	1.19010913e-02	1.24385386e-04
7.67000000e-01	1.18553614e-02	1.24588260e-04
7.68000000e-01	1.19222481e-02	1.25102439e-04
7.69000000e-01	1.18111008e-02	1.23795613e-04
7.70000000e-01	1.18422416e-02	1.24046791e-04
7.71000000e-01	1.19814605e-02	1.25272617e-04
7.72000000e-01	1.18164910e-02	1.28038048e-04
7.73000000e-01	1.20884814e-02	1.34267535e-04
7.74000000e-01	1.19444412e-02	1.35901653e-04
7.75000000e-01	1.18687109e-02	1.37614799e-04
7.76000000e-01	1.19790023e-02	1.40693284e-04
7.77000000e-01	1.18446121e-02	1.41305809e-04
7.78000000e-01	1.19331810e-02	1.44333604e-04
7.79000000e-01	1.18404952e-02	1.45021352e-04
7.80000000e-01	1.18033385e-02	1.46349167e-04
7.81000000e-01	1.19000827e-02	1.49092208e-04
7.82000000e-01	1.17661281e-02	1.48613475e-04
7.83000000e-01	1.18550662e-02	1.51303762e-04
7.84000000e-01	1.16811561e-02	1.51659563e-04
7.85000000e-01	1.17785815e-02	1.53562985e-04
7.86000000e-01	1.17370343e-02	1.54954027e-04
7.87000000e-01	1.17678564e-02	1.57393887e-04
7.88000000e-01	1.17290182e-02	1.57811700e-04
7.89000000e-01	1.18539780e-02	1.61156750e-04
7.90000000e-01	1.16380722e-02	1.59857043e-04
7.91000000e-01	1.16240611e-02	1.61659573e-04
7.92000000e-01	1.16777115e-02	1.63472338e-04
7.93000000e-01	1.16015359e-02	1.64749286e-04
7.94000000e-01	1.16384477e-02	1.66244168e-04
7.95000000e-01	1.14746143e-02	1.67050767e-04
7.96000000e-01	1.16512453e-02	1.70808335e-04
7.97000000e-01	1.17663734e-02	1.73908710e-04
7.98000000e-01	1.17323608e-02	1.75892918e-04
7.99000000e-01	1.15901323e-02	1.74659582e-04
8.00000000e-01	1.16145924e-02	1.76885789e-04
8.01000000e-01	1.16718034e-02	1.79342017e-04
8.02000000e-01	1.14970122e-02	1.78367992e-04
8.03000000e-01	1.16084580e-02	1.81928124e-04
8.04000000e-01	1.15338638e-02	1.82289701e-04
8.05000000e-01	1.16608358e-02	1.86445511e-04
8.06000000e-01	1.15381882e-02	1.87294148e-04
8.07000000e-01	1.12896536e-02	1.84631095e-04
8.08000000e-01	1.15135266e-02	1.91110834e-04
8.09000000e-01	1.15184434e-02	1.93283738e-04
8.10000000e-01	1.16387654e-02	1.98512634e-04
8.11000000e-01	1.15819838e-02	1.98141724e-04
8.12000000e-01	1.14392625e-02	1.97791655e-04
8.13000000e-01	1.15403781e-02	2.01926515e-04
8.14000000e-01	1.10730191e-02	1.97507909e-04
8.15000000e-01	1.15478461e-02	2.07541550e-04
8.16000000e-01	1.13890568e-02	2.06259018e-04
8.17000000e-01	1.14374776e-02	2.10757708e-04
8.18000000e-01	1.12061350e-02	2.09212685e-04
8.19000000e-01	1.11188211e-02	2.09937886e-04
8.20000000e-01	1.13847305e-02	2.16791111e-04
8.21000000e-01	1.13207067e-02	2.19799047e-04
8.22000000e-01	1.15005676e-02	2.25803937e-04
8.23000000e-01	1.15662184e-02	2.30311615e-04
8.24000000e-01	1.11459789e-02	2.25720637e-04
8.25000000e-01	1.14025210e-02	2.33618418e-04
8.26000000e-01	1.14804133e-02	2.39523332e-04
8.27000000e-01	1.12466891e-02	2.36782461e-04
8.28000000e-01	1.12129057e-02	2.39769400e-04
8.29000000e-01	1.10984111e-02	2.40718633e-04
8.30000000e-01	1.13240892e-02	2.48968787e-04
8.31000000e-01	1.12244670e-02	2.51405107e-04
8.32000000e-01	1.11074245e-02	2.52727528e-04
8.33000000e-01	1.12708658e-02	2.60887419e-04
8.34000000e-01	1.12416124e-02	2.65715916e-04
8.35000000e-01	1.11956264e-02	2.68422605e-04
8.36000000e-01	1.07380837e-02	2.65382688e-04
8.37000000e-01	1.12497607e-02	2.80735490e-04
8.38000000e-01	1.10485794e-02	2.80143547e-04
8.39000000e-01	1.07120930e-02	2.78601198e-04
8.40000000e-01	1.09833863e-02	2.91798630e-04
8.41000000e-01	1.07903531e-02	2.93827022e-04
8.42000000e-01	1.11608663e-02	3.07742555e-04
8.43000000e-01	1.10347176e-02	3.15028467e-04
8.44000000e-01	1.09032136e-02	3.15890511e-04
8.45000000e-01	1.08779791e-02	3.22739970e-04
8.46000000e-01	1.09178433e-02	3.32061139e-04
8.47000000e-01	1.11390788e-02	3.52272974e-04
8.48000000e-01	1.09341868e-02	3.60860767e-04
8.49000000e-01	1.08533247e-02	3.65609023e-04
8.50000000e-01	1.12463539e-02	3.96138792e-04
8.51000000e-01	1.11315443e-02	4.02261555e-04
8.52000000e-01	1.08189185e-02	4.06178572e-04
8.53000000e-01	1.09326499e-02	4.25611119e-04
8.54000000e-01	1.09828076e-02	4.58293531e-04
8.55000000e-01	1.05593035e-02	4.53205231e-04
8.56000000e-01	1.10257989e-02	4.79080455e-04
8.57000000e-01	1.05356365e-02	4.81616434e-04
8.58000000e-01	1.06292725e-02	4.82045225e-04
8.59000000e-01	1.05140013e-02	5.08361707e-04
8.60000000e-01	1.06768840e-02	5.24594403e-04
8.61000000e-01	1.08699437e-02	5.46275148e-04
8.62000000e-01	1.06710366e-02	5.62988755e-04
8.63000000e-01	1.05187314e-02	5.67685713e-04
8.64000000e-01	1.04089762e-02	6.06776260e-04
8.65000000e-01	9.82649468e-03	5.93544090e-04
8.66000000e-01	1.01024083e-02	6.40917985e-04
8.67000000e-01	9.65085563e-03	6.40372660e-04
8.68000000e-01	1.03521900e-02	7.53486037e-04
8.69000000e-01	1.02289028e-02	7.78577180e-04
8.70000000e-01	1.03022276e-02	8.53253315e-04
8.71000000e-01	1.14937984e-02	1.05008332e-03
8.72000000e-01	1.08460452e-02	1.14353109e-03
8.73000000e-01	1.08774521e-02	1.39592295e-03
8.74000000e-01	1.03265685e-02	1.66535905e-03
8.75000000e-01	1.49221190e-02	4.68980963e-03
