% Filename : SDL5_p7_00025_00017.h5
% Date & Time : 30-Oct-2025 16:56:20
% X-ray Energy (keV) : 13.30001
% Exposure Time (s) : 0.500
% Beam Center : 1461.24000, 208.98300
% Sample to Detector Distance (SDD) (mm) : 1990.750
% Detector Pixel Size (mm) : 0.075
% Photodiode Value : 140880.000
% I0 of Sample : 0
% I0 of Standard : 1
% 
% q(A^-1)   I(q)    I(q)_SE
0.00000000e+00	1.15417490e-02	7.14017956e-03
2.50000000e-04	0.00000000e+00	0.00000000e+00
5.00000000e-04	0.00000000e+00	0.00000000e+00
7.50000000e-04	0.00000000e+00	0.00000000e+00
1.00000000e-03	0.00000000e+00	0.00000000e+00
1.25000000e-03	0.00000000e+00	0.00000000e+00
1.50000000e-03	0.00000000e+00	0.00000000e+00
1.75000000e-03	0.00000000e+00	0.00000000e+00
2.00000000e-03	0.00000000e+00	0.00000000e+00
2.25000000e-03	0.00000000e+00	0.00000000e+00
2.50000000e-03	0.00000000e+00	0.00000000e+00
2.75000000e-03	0.00000000e+00	0.00000000e+00
3.00000000e-03	0.00000000e+00	0.00000000e+00
3.25000000e-03	3.44822830e+01	1.99181563e+01
3.50000000e-03	6.27714423e+01	2.66880495e+01
3.75000000e-03	3.18071376e+01	9.17406534e+00
4.00000000e-03	2.46941082e+01	7.49133730e+00
4.25000000e-03	1.65372842e+01	5.39851077e+00
4.50000000e-03	2.23787695e+01	5.09078154e+00
4.75000000e-03	2.38370936e+01	4.87501344e+00
5.00000000e-03	1.76006800e+01	3.58907982e+00
5.25000000e-03	1.39113832e+01	2.62493404e+00
5.50000000e-03	1.15006446e+01	2.23609277e+00
5.75000000e-03	1.01333572e+01	1.91879801e+00
6.00000000e-03	8.21256217e+00	1.44462684e+00
6.25000000e-03	6.99177728e+00	1.27264458e+00
6.50000000e-03	5.58517138e+00	9.56604877e-01
6.75000000e-03	4.75995631e+00	7.89597824e-01
7.00000000e-03	4.21904570e+00	7.23185837e-01
7.25000000e-03	3.76993719e+00	5.97497441e-01
7.50000000e-03	2.99810683e+00	4.90979960e-01
7.75000000e-03	2.70872352e+00	4.49534986e-01
8.00000000e-03	2.37461486e+00	3.56174372e-01
8.25000000e-03	2.03000474e+00	3.03914967e-01
8.50000000e-03	1.96215412e+00	2.99439562e-01
8.75000000e-03	1.59636625e+00	2.22453569e-01
9.00000000e-03	1.43083050e+00	2.12011819e-01
9.25000000e-03	1.28784659e+00	1.85071207e-01
9.50000000e-03	1.11239381e+00	1.46291014e-01
9.75000000e-03	1.09202912e+00	1.58399693e-01
1.00000000e-02	8.73491015e-01	1.15474470e-01
1.02500000e-02	8.41913756e-01	1.10187441e-01
1.05000000e-02	7.62221088e-01	9.97748069e-02
1.07500000e-02	6.85413516e-01	8.65345712e-02
1.10000000e-02	6.49590532e-01	8.08395735e-02
1.12500000e-02	5.77369041e-01	7.32692490e-02
1.15000000e-02	5.31994329e-01	6.28155878e-02
1.17500000e-02	4.66964047e-01	5.55896008e-02
1.20000000e-02	4.45022137e-01	5.30718457e-02
1.22500000e-02	4.19877836e-01	4.73878436e-02
1.25000000e-02	3.86590591e-01	4.43216950e-02
1.27500000e-02	3.63699320e-01	4.02730681e-02
1.30000000e-02	3.32378327e-01	3.52456662e-02
1.32500000e-02	3.01978600e-01	3.25826070e-02
1.35000000e-02	3.00323189e-01	3.13581618e-02
1.37500000e-02	2.73178272e-01	2.85879695e-02
1.40000000e-02	2.54008322e-01	2.57662207e-02
1.42500000e-02	2.29309703e-01	2.24113120e-02
1.45000000e-02	2.18026523e-01	2.10964205e-02
1.47500000e-02	2.10758115e-01	2.04286914e-02
1.50000000e-02	1.98552109e-01	1.88395263e-02
1.52500000e-02	1.85769165e-01	1.73263266e-02
1.55000000e-02	1.68856385e-01	1.51223512e-02
1.57500000e-02	1.61264603e-01	1.44670668e-02
1.60000000e-02	1.55247377e-01	1.35572555e-02
1.62500000e-02	1.51604323e-01	1.35159957e-02
1.65000000e-02	1.38437743e-01	1.20400639e-02
1.67500000e-02	1.33693548e-01	1.12195009e-02
1.70000000e-02	1.25432706e-01	1.06506107e-02
1.72500000e-02	1.22758918e-01	9.81849286e-03
1.75000000e-02	1.16272573e-01	9.41378219e-03
1.77500000e-02	1.14164014e-01	9.13263136e-03
1.80000000e-02	1.05711825e-01	8.14260833e-03
1.82500000e-02	1.01058865e-01	7.53481339e-03
1.85000000e-02	9.99861536e-02	7.89934062e-03
1.87500000e-02	9.58470089e-02	7.26364297e-03
1.90000000e-02	9.03951364e-02	6.68926774e-03
1.92500000e-02	8.64510029e-02	6.08376395e-03
1.95000000e-02	8.52701404e-02	6.07237406e-03
1.97500000e-02	8.20382205e-02	6.02349984e-03
2.00000000e-02	7.90607233e-02	5.69066640e-03
2.02500000e-02	7.59978616e-02	5.23723633e-03
2.05000000e-02	7.19384553e-02	4.77718640e-03
2.07500000e-02	7.16623441e-02	4.70479090e-03
2.10000000e-02	7.04826911e-02	4.63593173e-03
2.12500000e-02	6.85332158e-02	4.46662446e-03
2.15000000e-02	6.56411246e-02	4.28524887e-03
2.17500000e-02	6.42629869e-02	4.08706776e-03
2.20000000e-02	6.36325765e-02	4.05722180e-03
2.22500000e-02	6.16181649e-02	3.84011713e-03
2.25000000e-02	6.47918132e-02	4.22529428e-03
2.27500000e-02	5.92110264e-02	3.71125931e-03
2.30000000e-02	5.94650528e-02	3.77994411e-03
2.32500000e-02	5.66038535e-02	3.46734472e-03
2.35000000e-02	5.63794401e-02	3.48558150e-03
2.37500000e-02	5.57732143e-02	3.37559771e-03
2.40000000e-02	5.35732381e-02	3.22142185e-03
2.42500000e-02	5.42671532e-02	3.25984502e-03
2.45000000e-02	5.21161872e-02	3.08552268e-03
2.47500000e-02	5.03986102e-02	2.94708800e-03
2.50000000e-02	5.05945331e-02	2.88720233e-03
2.52500000e-02	5.05106729e-02	2.91276293e-03
2.55000000e-02	4.80230842e-02	2.74658880e-03
2.57500000e-02	4.71437685e-02	2.60756098e-03
2.60000000e-02	4.72729268e-02	2.63651827e-03
2.62500000e-02	4.58474440e-02	2.58793789e-03
2.65000000e-02	4.43853868e-02	2.43464556e-03
2.67500000e-02	4.49419096e-02	2.54128735e-03
2.70000000e-02	4.44637252e-02	2.41494906e-03
2.72500000e-02	4.31726366e-02	2.31810010e-03
2.75000000e-02	4.30121505e-02	2.33904700e-03
2.77500000e-02	4.22954212e-02	2.29597328e-03
2.80000000e-02	4.15782828e-02	2.16950177e-03
2.82500000e-02	4.05810533e-02	2.12821845e-03
2.85000000e-02	4.03927410e-02	2.14083653e-03
2.87500000e-02	4.10155693e-02	2.09260498e-03
2.90000000e-02	4.00772602e-02	2.05931722e-03
2.92500000e-02	3.87888728e-02	1.94601316e-03
2.95000000e-02	3.82948882e-02	1.97505078e-03
2.97500000e-02	3.74019023e-02	1.88348274e-03
3.00000000e-02	3.81695588e-02	1.91350872e-03
3.02500000e-02	3.76500527e-02	1.87065721e-03
3.05000000e-02	3.71633753e-02	1.83368275e-03
3.07500000e-02	3.74215814e-02	1.82339000e-03
3.10000000e-02	3.59903815e-02	1.76600082e-03
3.12500000e-02	3.67939906e-02	1.82648880e-03
3.15000000e-02	3.54913412e-02	1.73074467e-03
3.17500000e-02	3.44108608e-02	1.66914744e-03
3.20000000e-02	3.51623095e-02	1.72359813e-03
3.22500000e-02	3.40984501e-02	1.65394523e-03
3.25000000e-02	3.42579652e-02	1.65504256e-03
3.27500000e-02	3.35860088e-02	1.58284584e-03
3.30000000e-02	3.29575225e-02	1.57750429e-03
3.32500000e-02	3.29855889e-02	1.56532062e-03
3.35000000e-02	3.25660050e-02	1.54381695e-03
3.37500000e-02	3.18221420e-02	1.50566850e-03
3.40000000e-02	3.19383873e-02	1.50479790e-03
3.42500000e-02	3.10876902e-02	1.43067363e-03
3.45000000e-02	3.13659771e-02	1.48188412e-03
3.47500000e-02	3.13240925e-02	1.44902451e-03
3.50000000e-02	3.07815442e-02	1.44235979e-03
3.52500000e-02	3.06988580e-02	1.41197535e-03
3.55000000e-02	3.04202206e-02	1.37865570e-03
3.57500000e-02	2.93729147e-02	1.36312602e-03
3.60000000e-02	2.94621703e-02	1.34918834e-03
3.62500000e-02	2.93845743e-02	1.34144850e-03
3.65000000e-02	2.88113280e-02	1.30577343e-03
3.67500000e-02	2.88168840e-02	1.30057700e-03
3.70000000e-02	2.88044286e-02	1.29967580e-03
3.72500000e-02	2.91361420e-02	1.30400403e-03
3.75000000e-02	2.85483278e-02	1.29370168e-03
3.77500000e-02	2.83190959e-02	1.25650553e-03
3.80000000e-02	2.83460112e-02	1.27358289e-03
3.82500000e-02	2.74399701e-02	1.21260793e-03
3.85000000e-02	2.75152120e-02	1.23745607e-03
3.87500000e-02	2.70903878e-02	1.19064054e-03
3.90000000e-02	2.68390061e-02	1.19362630e-03
3.92500000e-02	2.66736469e-02	1.19335543e-03
3.95000000e-02	2.75228945e-02	1.20418073e-03
3.97500000e-02	2.61179799e-02	1.14150371e-03
4.00000000e-02	2.71267173e-02	1.18820147e-03
4.02500000e-02	2.66737167e-02	1.16485435e-03
4.05000000e-02	2.67296438e-02	1.15914457e-03
4.07500000e-02	2.54592520e-02	1.09956440e-03
4.10000000e-02	2.60822152e-02	1.13916776e-03
4.12500000e-02	2.65572428e-02	1.14305725e-03
4.15000000e-02	2.61953529e-02	1.12704373e-03
4.17500000e-02	2.58402681e-02	1.10864060e-03
4.20000000e-02	2.56947835e-02	1.09309297e-03
4.22500000e-02	2.52653090e-02	1.07670371e-03
4.25000000e-02	2.58452692e-02	1.09573525e-03
4.27500000e-02	2.53881162e-02	1.07907697e-03
4.30000000e-02	2.47065708e-02	1.04971960e-03
4.32500000e-02	2.53116894e-02	1.07168598e-03
4.35000000e-02	2.50806008e-02	1.06013483e-03
4.37500000e-02	2.46501212e-02	1.03028002e-03
4.40000000e-02	2.51012361e-02	1.05850424e-03
4.42500000e-02	2.49924960e-02	1.04687171e-03
4.45000000e-02	2.38663653e-02	9.95185034e-04
4.47500000e-02	2.42853679e-02	1.01307857e-03
4.50000000e-02	2.36247938e-02	9.88738957e-04
4.52500000e-02	2.49226695e-02	1.02835319e-03
4.55000000e-02	2.49091887e-02	1.02394408e-03
4.57500000e-02	2.38570936e-02	9.89879334e-04
4.60000000e-02	2.40736096e-02	1.00292194e-03
4.62500000e-02	2.42627396e-02	1.00172104e-03
4.65000000e-02	2.35937641e-02	9.62277552e-04
4.67500000e-02	2.40718527e-02	9.74237339e-04
4.70000000e-02	2.43420501e-02	9.89364520e-04
4.72500000e-02	2.35898187e-02	9.65127419e-04
4.75000000e-02	2.31865607e-02	9.56424402e-04
4.77500000e-02	2.42669430e-02	9.76189133e-04
4.80000000e-02	2.36449681e-02	9.57631184e-04
4.82500000e-02	2.30292620e-02	9.35161167e-04
4.85000000e-02	2.30501281e-02	9.40965853e-04
4.87500000e-02	2.31025553e-02	9.34237352e-04
4.90000000e-02	2.34447098e-02	9.32462552e-04
4.92500000e-02	2.36081753e-02	9.38244077e-04
4.95000000e-02	2.31546608e-02	9.22347468e-04
4.97500000e-02	2.35405724e-02	9.47378037e-04
5.00000000e-02	2.31464770e-02	9.23086640e-04
5.02500000e-02	2.32613192e-02	9.27073999e-04
5.05000000e-02	2.37313605e-02	9.38388917e-04
5.07500000e-02	2.27163986e-02	9.04644802e-04
5.10000000e-02	2.27631641e-02	8.97335760e-04
5.12500000e-02	2.19563402e-02	8.76249258e-04
5.15000000e-02	2.33026929e-02	9.08295279e-04
5.17500000e-02	2.30578554e-02	9.08691523e-04
5.20000000e-02	2.22777020e-02	8.79408515e-04
5.22500000e-02	2.24718204e-02	8.84028947e-04
5.25000000e-02	2.32616795e-02	9.11732811e-04
5.27500000e-02	2.25747345e-02	8.77938469e-04
5.30000000e-02	2.22811998e-02	8.71417197e-04
5.32500000e-02	2.30972667e-02	9.00248938e-04
5.35000000e-02	2.24883017e-02	8.71561139e-04
5.37500000e-02	2.26715763e-02	8.76770328e-04
5.40000000e-02	2.24427894e-02	8.65993686e-04
5.42500000e-02	2.16935010e-02	8.42644894e-04
5.45000000e-02	2.26740753e-02	8.72773021e-04
5.47500000e-02	2.18517213e-02	8.44200693e-04
5.50000000e-02	2.21324803e-02	8.54856884e-04
5.52500000e-02	2.24024407e-02	8.53964206e-04
5.55000000e-02	2.16259757e-02	8.36097385e-04
5.57500000e-02	2.25611581e-02	8.72289104e-04
5.60000000e-02	2.19585536e-02	8.37340492e-04
5.62500000e-02	2.20272070e-02	8.44684259e-04
5.65000000e-02	2.15718857e-02	8.14438328e-04
5.67500000e-02	2.19159340e-02	8.35900643e-04
5.70000000e-02	2.24315535e-02	8.47093264e-04
5.72500000e-02	2.17630690e-02	8.24099105e-04
5.75000000e-02	2.19251438e-02	8.40911056e-04
5.77500000e-02	2.15331062e-02	8.12917412e-04
5.80000000e-02	2.13263089e-02	8.12881993e-04
5.82500000e-02	2.15229667e-02	8.03317116e-04
5.85000000e-02	2.18095878e-02	8.22024336e-04
5.87500000e-02	2.13221176e-02	7.94799259e-04
5.90000000e-02	2.14688818e-02	8.04243863e-04
5.92500000e-02	2.17432933e-02	8.07671285e-04
5.95000000e-02	2.12667677e-02	7.95983976e-04
5.97500000e-02	2.12158269e-02	7.93453243e-04
6.00000000e-02	2.18213037e-02	8.14086187e-04
6.02500000e-02	2.15957695e-02	8.04507792e-04
6.05000000e-02	2.17941318e-02	8.04449762e-04
6.07500000e-02	2.13823915e-02	7.87942027e-04
6.10000000e-02	2.14325655e-02	7.90260967e-04
6.12500000e-02	2.12873440e-02	7.90614398e-04
6.15000000e-02	2.14036799e-02	7.91589237e-04
6.17500000e-02	2.05630850e-02	7.62680272e-04
6.20000000e-02	2.17085309e-02	7.94173318e-04
6.22500000e-02	2.14529193e-02	7.81664819e-04
6.25000000e-02	2.18349680e-02	8.01610272e-04
6.27500000e-02	2.11450271e-02	7.72696293e-04
6.30000000e-02	2.08913861e-02	7.66044648e-04
6.32500000e-02	2.07573856e-02	7.56703198e-04
6.35000000e-02	2.12212026e-02	7.78098960e-04
6.37500000e-02	2.13203244e-02	7.72733324e-04
6.40000000e-02	2.11030475e-02	7.68915319e-04
6.42500000e-02	2.13083369e-02	7.64835229e-04
6.45000000e-02	2.13229377e-02	7.66990346e-04
6.47500000e-02	2.16636839e-02	7.80471181e-04
6.50000000e-02	2.11891457e-02	7.66193289e-04
6.52500000e-02	2.14093923e-02	7.67613413e-04
6.55000000e-02	2.14509669e-02	7.63491326e-04
6.57500000e-02	2.06860703e-02	7.40070230e-04
6.60000000e-02	2.10126065e-02	7.51483322e-04
6.62500000e-02	2.08995509e-02	7.51644232e-04
6.65000000e-02	2.08892071e-02	7.44701045e-04
6.67500000e-02	2.09993780e-02	7.43256371e-04
6.70000000e-02	2.14619708e-02	7.62490322e-04
6.72500000e-02	2.12844783e-02	7.58592681e-04
6.75000000e-02	2.11243312e-02	7.41771930e-04
6.77500000e-02	2.11862127e-02	7.44881687e-04
6.80000000e-02	2.12539263e-02	7.53197036e-04
6.82500000e-02	2.06155569e-02	7.26860658e-04
6.85000000e-02	2.13198541e-02	7.53215774e-04
6.87500000e-02	2.11282691e-02	7.39960002e-04
6.90000000e-02	2.06511639e-02	7.24089105e-04
6.92500000e-02	2.07643416e-02	7.25654156e-04
6.95000000e-02	2.08260747e-02	7.33957438e-04
6.97500000e-02	2.07163168e-02	7.24961770e-04
7.00000000e-02	2.11244229e-02	7.38366575e-04
7.02500000e-02	2.06022419e-02	7.16658693e-04
7.05000000e-02	2.12252224e-02	7.38620813e-04
7.07500000e-02	2.09241251e-02	7.33024974e-04
7.10000000e-02	2.10572667e-02	7.29584163e-04
7.12500000e-02	2.10244130e-02	7.27476692e-04
7.15000000e-02	2.08708178e-02	7.19448538e-04
7.17500000e-02	2.07778830e-02	7.17906231e-04
7.20000000e-02	2.03652667e-02	7.05782096e-04
7.22500000e-02	2.05634345e-02	7.10571518e-04
7.25000000e-02	2.10414203e-02	7.24949161e-04
7.27500000e-02	2.03230218e-02	7.00470466e-04
7.30000000e-02	2.09310254e-02	7.20859989e-04
7.32500000e-02	2.06130623e-02	7.02130845e-04
7.35000000e-02	2.07325000e-02	7.07037525e-04
7.37500000e-02	2.03630894e-02	6.96392390e-04
7.40000000e-02	2.08102133e-02	7.14104161e-04
7.42500000e-02	2.05855511e-02	7.02730778e-04
7.45000000e-02	2.02689374e-02	6.89990029e-04
7.47500000e-02	2.03367423e-02	6.91391867e-04
7.50000000e-02	2.07945543e-02	7.07368806e-04
7.52500000e-02	2.03457429e-02	6.93846714e-04
7.55000000e-02	2.05398177e-02	6.96735838e-04
7.57500000e-02	2.06516482e-02	6.97689103e-04
7.60000000e-02	2.03433377e-02	6.90831969e-04
7.62500000e-02	2.04027126e-02	6.86297809e-04
7.65000000e-02	2.07304960e-02	6.93413183e-04
7.67500000e-02	2.07447710e-02	6.99131279e-04
7.70000000e-02	2.00486913e-02	6.72078968e-04
7.72500000e-02	2.03178544e-02	6.90715751e-04
7.75000000e-02	2.08060282e-02	7.15047225e-04
7.77500000e-02	2.03561797e-02	7.04841813e-04
7.80000000e-02	2.09950375e-02	7.29470957e-04
7.82500000e-02	2.08222081e-02	7.31166991e-04
7.85000000e-02	2.02786707e-02	7.15083846e-04
7.87500000e-02	2.04346558e-02	7.14356249e-04
7.90000000e-02	2.06128219e-02	7.24677933e-04
7.92500000e-02	2.05692071e-02	7.31897456e-04
7.95000000e-02	2.03642330e-02	7.23456657e-04
7.97500000e-02	2.08369567e-02	7.48537489e-04
8.00000000e-02	2.02690250e-02	7.24149431e-04
8.02500000e-02	2.01012949e-02	7.14996773e-04
8.05000000e-02	2.08088383e-02	7.41478081e-04
8.07500000e-02	2.03759432e-02	7.39879728e-04
8.10000000e-02	2.09692964e-02	7.55396152e-04
8.12500000e-02	2.07636194e-02	7.52122097e-04
8.15000000e-02	1.98888873e-02	7.14851458e-04
8.17500000e-02	2.10525150e-02	7.55738534e-04
8.20000000e-02	2.04263881e-02	7.35522792e-04
8.22500000e-02	1.97697295e-02	7.20168256e-04
8.25000000e-02	2.05893715e-02	7.48400664e-04
8.27500000e-02	2.00457946e-02	7.30573751e-04
8.30000000e-02	2.02610254e-02	7.43559795e-04
8.32500000e-02	2.05257080e-02	7.49316366e-04
8.35000000e-02	2.07140527e-02	7.60959129e-04
8.37500000e-02	2.03642576e-02	7.39698003e-04
8.40000000e-02	2.08273265e-02	7.61486238e-04
8.42500000e-02	2.06939944e-02	7.64038262e-04
8.45000000e-02	2.02382947e-02	7.49484818e-04
8.47500000e-02	2.04691906e-02	7.55532914e-04
8.50000000e-02	2.02469352e-02	7.43179025e-04
8.52500000e-02	2.01468978e-02	7.45200641e-04
8.55000000e-02	2.07112142e-02	7.64739415e-04
8.57500000e-02	2.06536405e-02	7.66122431e-04
8.60000000e-02	2.04121564e-02	7.51603625e-04
8.62500000e-02	1.97300112e-02	7.27368183e-04
8.65000000e-02	2.06830727e-02	7.63858161e-04
8.67500000e-02	2.04373385e-02	7.50865007e-04
8.70000000e-02	2.06033408e-02	7.50381236e-04
8.72500000e-02	2.00910839e-02	7.17974615e-04
8.75000000e-02	2.03852012e-02	7.24470068e-04
8.77500000e-02	2.06129484e-02	7.21138290e-04
8.80000000e-02	2.03319046e-02	7.13429099e-04
8.82500000e-02	2.05630007e-02	7.24439964e-04
8.85000000e-02	1.99016032e-02	7.00125688e-04
8.87500000e-02	2.00660513e-02	6.90682411e-04
8.90000000e-02	2.06389505e-02	7.08604896e-04
8.92500000e-02	2.04845385e-02	7.08459163e-04
8.95000000e-02	2.06496237e-02	7.02795745e-04
8.97500000e-02	2.05451757e-02	6.93624138e-04
9.00000000e-02	2.03915358e-02	6.90992448e-04
9.02500000e-02	2.00650783e-02	6.81837314e-04
9.05000000e-02	2.03976267e-02	6.90664375e-04
9.07500000e-02	2.00828198e-02	6.79118296e-04
9.10000000e-02	2.08592416e-02	7.01725642e-04
9.12500000e-02	2.04325857e-02	6.79956749e-04
9.15000000e-02	2.04596083e-02	6.76675967e-04
9.17500000e-02	2.04481141e-02	6.90449020e-04
9.20000000e-02	1.93767000e-02	6.50942980e-04
9.22500000e-02	1.99124466e-02	6.65664590e-04
9.25000000e-02	1.98208489e-02	6.57512674e-04
9.27500000e-02	2.05119098e-02	6.82143964e-04
9.30000000e-02	2.00888487e-02	6.67594696e-04
9.32500000e-02	1.99175676e-02	6.61409477e-04
9.35000000e-02	2.04384075e-02	6.68036574e-04
9.37500000e-02	2.07375829e-02	6.82718774e-04
9.40000000e-02	2.01315385e-02	6.62301270e-04
9.42500000e-02	2.02024904e-02	6.67345366e-04
9.45000000e-02	2.02404127e-02	6.62942780e-04
9.47500000e-02	1.99845164e-02	6.55083526e-04
9.50000000e-02	2.01203122e-02	6.55969739e-04
9.52500000e-02	1.98241485e-02	6.48826559e-04
9.55000000e-02	1.98842339e-02	6.44168182e-04
9.57500000e-02	1.98922696e-02	6.48205920e-04
9.60000000e-02	1.98013430e-02	6.48095593e-04
9.62500000e-02	2.07690634e-02	6.71891776e-04
9.65000000e-02	1.97236764e-02	6.32908176e-04
9.67500000e-02	2.03818822e-02	6.53120058e-04
9.70000000e-02	1.96840869e-02	6.33710657e-04
9.72500000e-02	1.99405858e-02	6.42190445e-04
9.75000000e-02	2.00393437e-02	6.48063591e-04
9.77500000e-02	2.07783012e-02	6.60856836e-04
9.80000000e-02	2.01206457e-02	6.43321801e-04
9.82500000e-02	2.00187563e-02	6.41580789e-04
9.85000000e-02	2.02126737e-02	6.42111973e-04
9.87500000e-02	1.97970090e-02	6.26750832e-04
9.90000000e-02	2.03927303e-02	6.45876576e-04
9.92500000e-02	2.01560820e-02	6.41927101e-04
9.95000000e-02	2.01307270e-02	6.32669173e-04
9.97500000e-02	1.96317993e-02	6.18252845e-04
1.00000000e-01	1.97095602e-02	5.10466419e-04
1.00500000e-01	2.05010013e-02	4.55357989e-04
1.01000000e-01	1.99189302e-02	4.38382109e-04
1.01500000e-01	2.00384680e-02	4.43224804e-04
1.02000000e-01	2.01971685e-02	4.43800561e-04
1.02500000e-01	2.00783748e-02	4.38919953e-04
1.03000000e-01	1.99804285e-02	4.38208997e-04
1.03500000e-01	2.00055662e-02	4.35289027e-04
1.04000000e-01	1.96772079e-02	4.29321323e-04
1.04500000e-01	1.96331444e-02	4.27992310e-04
1.05000000e-01	1.99199284e-02	4.31693137e-04
1.05500000e-01	1.98491032e-02	4.29671300e-04
1.06000000e-01	1.99912216e-02	4.29952514e-04
1.06500000e-01	2.00781716e-02	4.32365670e-04
1.07000000e-01	2.01562431e-02	4.38466571e-04
1.07500000e-01	1.99628040e-02	4.40084289e-04
1.08000000e-01	2.03179838e-02	4.53789319e-04
1.08500000e-01	2.00829460e-02	4.51298671e-04
1.09000000e-01	2.02928596e-02	4.61555411e-04
1.09500000e-01	2.02629132e-02	4.60064154e-04
1.10000000e-01	2.01518042e-02	4.53118088e-04
1.10500000e-01	1.98022841e-02	4.33956749e-04
1.11000000e-01	1.98862935e-02	4.33320693e-04
1.11500000e-01	1.99157531e-02	4.26960793e-04
1.12000000e-01	1.96716735e-02	4.20143498e-04
1.12500000e-01	2.00952767e-02	4.24505661e-04
1.13000000e-01	2.00234174e-02	4.22041339e-04
1.13500000e-01	1.97990696e-02	4.17896267e-04
1.14000000e-01	1.97854658e-02	4.15348705e-04
1.14500000e-01	1.97439079e-02	4.13940625e-04
1.15000000e-01	1.99452502e-02	4.14816760e-04
1.15500000e-01	1.97800793e-02	4.13794821e-04
1.16000000e-01	1.98560545e-02	4.14110040e-04
1.16500000e-01	1.96711530e-02	4.08503671e-04
1.17000000e-01	1.97958012e-02	4.10767976e-04
1.17500000e-01	1.99980494e-02	4.11683636e-04
1.18000000e-01	1.98654591e-02	4.09203281e-04
1.18500000e-01	1.98090024e-02	4.07285692e-04
1.19000000e-01	1.97369120e-02	4.01952848e-04
1.19500000e-01	1.99820277e-02	4.06959989e-04
1.20000000e-01	2.00236559e-02	4.07985227e-04
1.20500000e-01	1.98587427e-02	4.03694483e-04
1.21000000e-01	2.01847816e-02	4.08863810e-04
1.21500000e-01	1.99992120e-02	4.04563173e-04
1.22000000e-01	1.97507094e-02	3.99547142e-04
1.22500000e-01	1.98958886e-02	4.00278429e-04
1.23000000e-01	2.00836855e-02	4.03453863e-04
1.23500000e-01	2.03287231e-02	4.07870521e-04
1.24000000e-01	1.99388335e-02	3.99182638e-04
1.24500000e-01	1.98556651e-02	3.96643118e-04
1.25000000e-01	2.00955791e-02	4.01428702e-04
1.25500000e-01	1.95517039e-02	3.89501410e-04
1.26000000e-01	1.98051707e-02	3.93099823e-04
1.26500000e-01	1.96309755e-02	3.88859146e-04
1.27000000e-01	2.01006085e-02	3.94977434e-04
1.27500000e-01	2.01594766e-02	3.95905272e-04
1.28000000e-01	1.97405888e-02	3.91047542e-04
1.28500000e-01	1.99380996e-02	3.91754186e-04
1.29000000e-01	1.96312505e-02	3.85103791e-04
1.29500000e-01	1.97828472e-02	3.88414630e-04
1.30000000e-01	1.95992865e-02	3.82991204e-04
1.30500000e-01	1.95034185e-02	3.80658709e-04
1.31000000e-01	1.95406471e-02	3.80235694e-04
1.31500000e-01	1.97416627e-02	3.83073268e-04
1.32000000e-01	1.98105411e-02	3.83885003e-04
1.32500000e-01	1.99994560e-02	3.85618778e-04
1.33000000e-01	1.98097552e-02	3.80284090e-04
1.33500000e-01	1.98479274e-02	3.79715060e-04
1.34000000e-01	1.97651475e-02	3.78759698e-04
1.34500000e-01	1.96373844e-02	3.76163781e-04
1.35000000e-01	1.96242096e-02	3.73447957e-04
1.35500000e-01	1.98909229e-02	3.77603047e-04
1.36000000e-01	1.96205129e-02	3.72870786e-04
1.36500000e-01	2.01289819e-02	3.80821080e-04
1.37000000e-01	1.95877736e-02	3.68237558e-04
1.37500000e-01	2.00224024e-02	3.78131334e-04
1.38000000e-01	1.97968216e-02	3.73224782e-04
1.38500000e-01	1.97972857e-02	3.74092598e-04
1.39000000e-01	1.97147721e-02	3.75086483e-04
1.39500000e-01	1.97663708e-02	3.70974311e-04
1.40000000e-01	1.97796104e-02	3.72250243e-04
1.40500000e-01	1.94808847e-02	3.65051909e-04
1.41000000e-01	1.97122810e-02	3.68550900e-04
1.41500000e-01	1.95179942e-02	3.66283006e-04
1.42000000e-01	2.01616332e-02	3.73301185e-04
1.42500000e-01	1.95067554e-02	3.65472676e-04
1.43000000e-01	1.98623393e-02	3.69731803e-04
1.43500000e-01	1.95113236e-02	3.62404537e-04
1.44000000e-01	1.95204958e-02	3.61767483e-04
1.44500000e-01	1.97118675e-02	3.64669316e-04
1.45000000e-01	1.94576481e-02	3.61116667e-04
1.45500000e-01	1.96285418e-02	3.62103904e-04
1.46000000e-01	1.96125273e-02	3.62549114e-04
1.46500000e-01	1.97505867e-02	3.64232411e-04
1.47000000e-01	1.94408853e-02	3.58057779e-04
1.47500000e-01	1.96677204e-02	3.61677484e-04
1.48000000e-01	1.98449189e-02	3.62174181e-04
1.48500000e-01	1.94168416e-02	3.55643233e-04
1.49000000e-01	1.99103209e-02	3.63461678e-04
1.49500000e-01	1.93814906e-02	3.53969900e-04
1.50000000e-01	1.95075639e-02	3.56002181e-04
1.50500000e-01	1.94886750e-02	3.53475773e-04
1.51000000e-01	1.93787834e-02	3.52871865e-04
1.51500000e-01	1.94921469e-02	3.52246029e-04
1.52000000e-01	1.97553902e-02	3.53865226e-04
1.52500000e-01	1.98804533e-02	3.57826560e-04
1.53000000e-01	1.96220398e-02	3.51319056e-04
1.53500000e-01	1.95631566e-02	3.50529452e-04
1.54000000e-01	1.92209930e-02	3.45692302e-04
1.54500000e-01	1.93695955e-02	3.55089892e-04
1.55000000e-01	1.92684551e-02	3.56071488e-04
1.55500000e-01	1.91690086e-02	3.56640023e-04
1.56000000e-01	1.93298494e-02	3.61995205e-04
1.56500000e-01	1.94703166e-02	3.63363555e-04
1.57000000e-01	1.91183800e-02	3.59876960e-04
1.57500000e-01	1.93789256e-02	3.57141046e-04
1.58000000e-01	1.93079325e-02	3.50689349e-04
1.58500000e-01	1.90094062e-02	3.44376758e-04
1.59000000e-01	1.93126630e-02	3.46642924e-04
1.59500000e-01	1.93428500e-02	3.46124475e-04
1.60000000e-01	1.92686828e-02	3.44830678e-04
1.60500000e-01	1.91805211e-02	3.40585285e-04
1.61000000e-01	1.89053964e-02	3.37881538e-04
1.61500000e-01	1.96966754e-02	3.48135712e-04
1.62000000e-01	1.89826137e-02	3.37658081e-04
1.62500000e-01	1.92975131e-02	3.42360990e-04
1.63000000e-01	1.93318804e-02	3.40951943e-04
1.63500000e-01	1.92840268e-02	3.40287477e-04
1.64000000e-01	1.91742875e-02	3.36613339e-04
1.64500000e-01	1.94871973e-02	3.40700684e-04
1.65000000e-01	1.92258173e-02	3.38245840e-04
1.65500000e-01	1.88550393e-02	3.31257157e-04
1.66000000e-01	1.90811420e-02	3.33517954e-04
1.66500000e-01	1.89835659e-02	3.31106071e-04
1.67000000e-01	1.89908286e-02	3.32355412e-04
1.67500000e-01	1.90062423e-02	3.31207411e-04
1.68000000e-01	1.90373142e-02	3.30208061e-04
1.68500000e-01	1.90709257e-02	3.29821275e-04
1.69000000e-01	1.87618252e-02	3.25700979e-04
1.69500000e-01	1.90440155e-02	3.29880910e-04
1.70000000e-01	1.90897478e-02	3.29909438e-04
1.70500000e-01	1.91023536e-02	3.28638839e-04
1.71000000e-01	1.90080442e-02	3.26168084e-04
1.71500000e-01	1.91278996e-02	3.27805373e-04
1.72000000e-01	1.89347629e-02	3.24387085e-04
1.72500000e-01	1.87892810e-02	3.23478095e-04
1.73000000e-01	1.91041281e-02	3.27148315e-04
1.73500000e-01	1.89967358e-02	3.23276351e-04
1.74000000e-01	1.90234764e-02	3.23320219e-04
1.74500000e-01	1.88612226e-02	3.20010565e-04
1.75000000e-01	1.89858190e-02	3.20884271e-04
1.75500000e-01	1.91785466e-02	3.22905715e-04
1.76000000e-01	1.89196091e-02	3.19343173e-04
1.76500000e-01	1.87600005e-02	3.17794146e-04
1.77000000e-01	1.88439561e-02	3.16926834e-04
1.77500000e-01	1.86915359e-02	3.13664358e-04
1.78000000e-01	1.88543068e-02	3.16421610e-04
1.78500000e-01	1.88128449e-02	3.15855456e-04
1.79000000e-01	1.89385138e-02	3.16556075e-04
1.79500000e-01	1.87864780e-02	3.14758585e-04
1.80000000e-01	1.89539492e-02	3.17321338e-04
1.80500000e-01	1.88019570e-02	3.15511062e-04
1.81000000e-01	1.84029328e-02	3.08410958e-04
1.81500000e-01	1.88225389e-02	3.13367747e-04
1.82000000e-01	1.87421890e-02	3.14702676e-04
1.82500000e-01	1.90063178e-02	3.14775331e-04
1.83000000e-01	1.86319748e-02	3.10911758e-04
1.83500000e-01	1.84169319e-02	3.06339919e-04
1.84000000e-01	1.85228601e-02	3.07643452e-04
1.84500000e-01	1.86379095e-02	3.10003542e-04
1.85000000e-01	1.88549883e-02	3.11712719e-04
1.85500000e-01	1.87882263e-02	3.11246164e-04
1.86000000e-01	1.85693360e-02	3.05545021e-04
1.86500000e-01	1.88343458e-02	3.11007251e-04
1.87000000e-01	1.84052052e-02	3.03930535e-04
1.87500000e-01	1.85274247e-02	3.05064036e-04
1.88000000e-01	1.86712801e-02	3.06789020e-04
1.88500000e-01	1.85183036e-02	3.02958307e-04
1.89000000e-01	1.82928622e-02	3.00698134e-04
1.89500000e-01	1.87754147e-02	3.07355678e-04
1.90000000e-01	1.89406985e-02	3.09315111e-04
1.90500000e-01	1.86979789e-02	3.06040582e-04
1.91000000e-01	1.87134369e-02	3.04791080e-04
1.91500000e-01	1.84763382e-02	3.02650954e-04
1.92000000e-01	1.86052515e-02	3.02510476e-04
1.92500000e-01	1.84162154e-02	2.99811540e-04
1.93000000e-01	1.85766469e-02	3.00391224e-04
1.93500000e-01	1.83208968e-02	2.97949454e-04
1.94000000e-01	1.83954815e-02	2.97966446e-04
1.94500000e-01	1.82100727e-02	2.95129817e-04
1.95000000e-01	1.84904588e-02	2.98482669e-04
1.95500000e-01	1.85798207e-02	2.98215532e-04
1.96000000e-01	1.84302677e-02	2.97857319e-04
1.96500000e-01	1.84612104e-02	2.97505763e-04
1.97000000e-01	1.84977224e-02	2.97237648e-04
1.97500000e-01	1.85958118e-02	2.98997673e-04
1.98000000e-01	1.83957240e-02	2.96025316e-04
1.98500000e-01	1.82458792e-02	2.91605987e-04
1.99000000e-01	1.84358326e-02	2.95568995e-04
1.99500000e-01	1.82283431e-02	2.91982218e-04
2.00000000e-01	1.83199934e-02	2.91114940e-04
2.00500000e-01	1.82022522e-02	2.90232589e-04
2.01000000e-01	1.85864845e-02	2.95043756e-04
2.01500000e-01	1.82770961e-02	2.91945722e-04
2.02000000e-01	1.81294220e-02	2.88136839e-04
2.02500000e-01	1.83505559e-02	2.89836542e-04
2.03000000e-01	1.82271287e-02	2.89788029e-04
2.03500000e-01	1.83149962e-02	2.90131831e-04
2.04000000e-01	1.83843588e-02	2.90180855e-04
2.04500000e-01	1.81851166e-02	2.87497727e-04
2.05000000e-01	1.82107332e-02	2.85179919e-04
2.05500000e-01	1.81874839e-02	2.86124335e-04
2.06000000e-01	1.81628531e-02	2.86146902e-04
2.06500000e-01	1.83867103e-02	2.88871243e-04
2.07000000e-01	1.82036732e-02	2.85024630e-04
2.07500000e-01	1.85644566e-02	2.90421585e-04
2.08000000e-01	1.86075806e-02	2.90649987e-04
2.08500000e-01	1.81598968e-02	2.83643178e-04
2.09000000e-01	1.83306312e-02	2.86564274e-04
2.09500000e-01	1.83367351e-02	2.85770857e-04
2.10000000e-01	1.82132881e-02	2.84965349e-04
2.10500000e-01	1.82787184e-02	2.84037274e-04
2.11000000e-01	1.83001534e-02	2.83456519e-04
2.11500000e-01	1.84252264e-02	2.85468215e-04
2.12000000e-01	1.82879946e-02	2.83973209e-04
2.12500000e-01	1.80410513e-02	2.80420571e-04
2.13000000e-01	1.82465199e-02	2.82192709e-04
2.13500000e-01	1.79913173e-02	2.78525044e-04
2.14000000e-01	1.81300735e-02	2.80242504e-04
2.14500000e-01	1.80734335e-02	2.78391515e-04
2.15000000e-01	1.81212407e-02	2.79915458e-04
2.15500000e-01	1.81381529e-02	2.78755507e-04
2.16000000e-01	1.80757197e-02	2.78195735e-04
2.16500000e-01	1.82433674e-02	2.78611336e-04
2.17000000e-01	1.83488978e-02	2.85570508e-04
2.17500000e-01	1.79185870e-02	2.84126315e-04
2.18000000e-01	1.81223232e-02	2.86185182e-04
2.18500000e-01	1.78535017e-02	2.85164233e-04
2.19000000e-01	1.79231127e-02	2.87769351e-04
2.19500000e-01	1.83660641e-02	2.94765190e-04
2.20000000e-01	1.78654243e-02	2.89208357e-04
2.20500000e-01	1.80358114e-02	2.93210291e-04
2.21000000e-01	1.82466528e-02	2.96225658e-04
2.21500000e-01	1.81755754e-02	2.96997305e-04
2.22000000e-01	1.80534083e-02	2.94414865e-04
2.22500000e-01	1.81734911e-02	2.96041858e-04
2.23000000e-01	1.80801214e-02	2.97351979e-04
2.23500000e-01	1.80135621e-02	2.97098878e-04
2.24000000e-01	1.80611149e-02	2.97694620e-04
2.24500000e-01	1.79360042e-02	2.96567630e-04
2.25000000e-01	1.79651989e-02	2.97670237e-04
2.25500000e-01	1.80149156e-02	2.97438143e-04
2.26000000e-01	1.80352783e-02	2.99712875e-04
2.26500000e-01	1.79946972e-02	2.94583324e-04
2.27000000e-01	1.79221091e-02	2.89981789e-04
2.27500000e-01	1.79866186e-02	2.88006986e-04
2.28000000e-01	1.80043969e-02	2.87742832e-04
2.28500000e-01	1.79881990e-02	2.85437050e-04
2.29000000e-01	1.77879648e-02	2.81766294e-04
2.29500000e-01	1.79439137e-02	2.82473942e-04
2.30000000e-01	1.78735606e-02	2.82087463e-04
2.30500000e-01	1.81008674e-02	2.82416067e-04
2.31000000e-01	1.78372345e-02	2.78109461e-04
2.31500000e-01	1.79850674e-02	2.80866513e-04
2.32000000e-01	1.78005932e-02	2.77879973e-04
2.32500000e-01	1.79056926e-02	2.78465429e-04
2.33000000e-01	1.79012903e-02	2.76666159e-04
2.33500000e-01	1.78679317e-02	2.76143348e-04
2.34000000e-01	1.76831147e-02	2.73013641e-04
2.34500000e-01	1.79701070e-02	2.76562246e-04
2.35000000e-01	1.80264590e-02	2.77555385e-04
2.35500000e-01	1.78854938e-02	2.74421384e-04
2.36000000e-01	1.81393049e-02	2.77935084e-04
2.36500000e-01	1.80413084e-02	2.75798729e-04
2.37000000e-01	1.81554183e-02	2.76522761e-04
2.37500000e-01	1.79212890e-02	2.72419835e-04
2.38000000e-01	1.77839194e-02	2.70083903e-04
2.38500000e-01	1.76544357e-02	2.69064601e-04
2.39000000e-01	1.79738267e-02	2.72578864e-04
2.39500000e-01	1.78049689e-02	2.69714822e-04
2.40000000e-01	1.77426235e-02	2.68815001e-04
2.40500000e-01	1.77302899e-02	2.68204623e-04
2.41000000e-01	1.76536725e-02	2.65804268e-04
2.41500000e-01	1.75418599e-02	2.63846568e-04
2.42000000e-01	1.78499244e-02	2.68675674e-04
2.42500000e-01	1.74625739e-02	2.62707351e-04
2.43000000e-01	1.76824056e-02	2.65505455e-04
2.43500000e-01	1.78781819e-02	2.68323316e-04
2.44000000e-01	1.76733512e-02	2.63799615e-04
2.44500000e-01	1.77583086e-02	2.64931681e-04
2.45000000e-01	1.76398914e-02	2.61241582e-04
2.45500000e-01	1.77465346e-02	2.63104920e-04
2.46000000e-01	1.75119291e-02	2.61336665e-04
2.46500000e-01	1.74161523e-02	2.58237761e-04
2.47000000e-01	1.77980759e-02	2.63457844e-04
2.47500000e-01	1.75425428e-02	2.57345266e-04
2.48000000e-01	1.75324580e-02	2.58950570e-04
2.48500000e-01	1.74868035e-02	2.58771469e-04
2.49000000e-01	1.74963428e-02	2.57948948e-04
2.49500000e-01	1.76440496e-02	2.60547737e-04
2.50000000e-01	1.75609257e-02	2.58064314e-04
2.50500000e-01	1.76260302e-02	2.59649289e-04
2.51000000e-01	1.76743729e-02	2.59775433e-04
2.51500000e-01	1.74620451e-02	2.57372203e-04
2.52000000e-01	1.74162462e-02	2.55710391e-04
2.52500000e-01	1.76165234e-02	2.58148424e-04
2.53000000e-01	1.76030579e-02	2.57080981e-04
2.53500000e-01	1.74511218e-02	2.54751530e-04
2.54000000e-01	1.76647613e-02	2.57699957e-04
2.54500000e-01	1.77147699e-02	2.58084261e-04
2.55000000e-01	1.76214413e-02	2.55992273e-04
2.55500000e-01	1.74691192e-02	2.53781958e-04
2.56000000e-01	1.73890502e-02	2.52801043e-04
2.56500000e-01	1.75828649e-02	2.55171214e-04
2.57000000e-01	1.75505027e-02	2.55000396e-04
2.57500000e-01	1.74396408e-02	2.52127767e-04
2.58000000e-01	1.74237007e-02	2.53285891e-04
2.58500000e-01	1.76680558e-02	2.54745200e-04
2.59000000e-01	1.72664146e-02	2.49123188e-04
2.59500000e-01	1.74201327e-02	2.51522755e-04
2.60000000e-01	1.74668020e-02	2.51334776e-04
2.60500000e-01	1.73226934e-02	2.49685545e-04
2.61000000e-01	1.73848793e-02	2.49593120e-04
2.61500000e-01	1.73882714e-02	2.49672709e-04
2.62000000e-01	1.74634809e-02	2.50437623e-04
2.62500000e-01	1.73006496e-02	2.48934663e-04
2.63000000e-01	1.73828199e-02	2.49942084e-04
2.63500000e-01	1.74629565e-02	2.49769230e-04
2.64000000e-01	1.73680837e-02	2.47839074e-04
2.64500000e-01	1.70663597e-02	2.43371490e-04
2.65000000e-01	1.71235162e-02	2.44814401e-04
2.65500000e-01	1.74573058e-02	2.48324169e-04
2.66000000e-01	1.71825454e-02	2.44292005e-04
2.66500000e-01	1.72440967e-02	2.44669246e-04
2.67000000e-01	1.72932575e-02	2.44964522e-04
2.67500000e-01	1.72398839e-02	2.43789153e-04
2.68000000e-01	1.71774132e-02	2.43047513e-04
2.68500000e-01	1.74378624e-02	2.45426464e-04
2.69000000e-01	1.72969756e-02	2.44063826e-04
2.69500000e-01	1.72274931e-02	2.43074830e-04
2.70000000e-01	1.74618240e-02	2.46049836e-04
2.70500000e-01	1.72552463e-02	2.42995408e-04
2.71000000e-01	1.72462102e-02	2.42935614e-04
2.71500000e-01	1.71044680e-02	2.40573884e-04
2.72000000e-01	1.72882635e-02	2.42495538e-04
2.72500000e-01	1.72630549e-02	2.42394189e-04
2.73000000e-01	1.72605192e-02	2.41353543e-04
2.73500000e-01	1.71212960e-02	2.40285059e-04
2.74000000e-01	1.73011111e-02	2.41201886e-04
2.74500000e-01	1.71819629e-02	2.39759642e-04
2.75000000e-01	1.71352884e-02	2.39149822e-04
2.75500000e-01	1.71645046e-02	2.40156278e-04
2.76000000e-01	1.72000176e-02	2.39536495e-04
2.76500000e-01	1.72341688e-02	2.40232021e-04
2.77000000e-01	1.72987761e-02	2.40707955e-04
2.77500000e-01	1.70464411e-02	2.37714310e-04
2.78000000e-01	1.71100875e-02	2.38232165e-04
2.78500000e-01	1.72941149e-02	2.39368139e-04
2.79000000e-01	1.72801526e-02	2.39110403e-04
2.79500000e-01	1.69738734e-02	2.35108436e-04
2.80000000e-01	1.70411238e-02	2.36611110e-04
2.80500000e-01	1.72825373e-02	2.38847858e-04
2.81000000e-01	1.69988404e-02	2.35601385e-04
2.81500000e-01	1.70150308e-02	2.33994222e-04
2.82000000e-01	1.68922219e-02	2.33394488e-04
2.82500000e-01	1.70126538e-02	2.35302127e-04
2.83000000e-01	1.71437627e-02	2.36452197e-04
2.83500000e-01	1.71041125e-02	2.35848942e-04
2.84000000e-01	1.68919882e-02	2.32541158e-04
2.84500000e-01	1.70461854e-02	2.33452621e-04
2.85000000e-01	1.69395249e-02	2.32972682e-04
2.85500000e-01	1.68765198e-02	2.32262882e-04
2.86000000e-01	1.70563044e-02	2.33653958e-04
2.86500000e-01	1.71126710e-02	2.33670559e-04
2.87000000e-01	1.69463373e-02	2.31708371e-04
2.87500000e-01	1.71473675e-02	2.33640160e-04
2.88000000e-01	1.70502381e-02	2.32823463e-04
2.88500000e-01	1.67493228e-02	2.28821386e-04
2.89000000e-01	1.68419510e-02	2.29629270e-04
2.89500000e-01	1.71258128e-02	2.32731572e-04
2.90000000e-01	1.69301690e-02	2.29588545e-04
2.90500000e-01	1.70008525e-02	2.30744497e-04
2.91000000e-01	1.71925642e-02	2.32031661e-04
2.91500000e-01	1.68671342e-02	2.26844711e-04
2.92000000e-01	1.69600493e-02	2.29131266e-04
2.92500000e-01	1.67943269e-02	2.26978052e-04
2.93000000e-01	1.70783526e-02	2.30846969e-04
2.93500000e-01	1.73175066e-02	2.32801990e-04
2.94000000e-01	1.67868322e-02	2.26833655e-04
2.94500000e-01	1.69701503e-02	2.29498439e-04
2.95000000e-01	1.68993910e-02	2.27245086e-04
2.95500000e-01	1.68038979e-02	2.26937112e-04
2.96000000e-01	1.68419180e-02	2.26072872e-04
2.96500000e-01	1.67428715e-02	2.25145182e-04
2.97000000e-01	1.69900461e-02	2.27892142e-04
2.97500000e-01	1.68707948e-02	2.26053900e-04
2.98000000e-01	1.68653893e-02	2.26530471e-04
2.98500000e-01	1.68633465e-02	2.27022198e-04
2.99000000e-01	1.68472658e-02	2.25696443e-04
2.99500000e-01	1.69248316e-02	2.25504984e-04
3.00000000e-01	1.69819861e-02	2.26853789e-04
3.00500000e-01	1.67448573e-02	2.23286402e-04
3.01000000e-01	1.67530964e-02	2.23539916e-04
3.01500000e-01	1.67829840e-02	2.24288212e-04
3.02000000e-01	1.68898570e-02	2.24225062e-04
3.02500000e-01	1.66761631e-02	2.22277887e-04
3.03000000e-01	1.67226458e-02	2.22701219e-04
3.03500000e-01	1.66529866e-02	2.21063065e-04
3.04000000e-01	1.67362116e-02	2.22591003e-04
3.04500000e-01	1.68243886e-02	2.22236834e-04
3.05000000e-01	1.65964703e-02	2.20415144e-04
3.05500000e-01	1.68162193e-02	2.22612536e-04
3.06000000e-01	1.67269878e-02	2.20491548e-04
3.06500000e-01	1.68841798e-02	2.22482016e-04
3.07000000e-01	1.66620599e-02	2.19376885e-04
3.07500000e-01	1.68930133e-02	2.22466229e-04
3.08000000e-01	1.68764855e-02	2.22264502e-04
3.08500000e-01	1.67063895e-02	2.19410101e-04
3.09000000e-01	1.66270007e-02	2.18688917e-04
3.09500000e-01	1.66736167e-02	2.18941597e-04
3.10000000e-01	1.66131573e-02	2.18178031e-04
3.10500000e-01	1.64844559e-02	2.16461809e-04
3.11000000e-01	1.68033273e-02	2.19812528e-04
3.11500000e-01	1.68018137e-02	2.19642431e-04
3.12000000e-01	1.66918564e-02	2.18043230e-04
3.12500000e-01	1.67704131e-02	2.19072926e-04
3.13000000e-01	1.64251835e-02	2.14832008e-04
3.13500000e-01	1.67305525e-02	2.18191792e-04
3.14000000e-01	1.65687162e-02	2.17074629e-04
3.14500000e-01	1.66591306e-02	2.17437432e-04
3.15000000e-01	1.65610208e-02	2.15911886e-04
3.15500000e-01	1.65197386e-02	2.15744239e-04
3.16000000e-01	1.64407615e-02	2.15507004e-04
3.16500000e-01	1.65367286e-02	2.16130552e-04
3.17000000e-01	1.63421809e-02	2.12631505e-04
3.17500000e-01	1.66402693e-02	2.16993840e-04
3.18000000e-01	1.64733036e-02	2.14376314e-04
3.18500000e-01	1.63963413e-02	2.12812402e-04
3.19000000e-01	1.64548433e-02	2.14068503e-04
3.19500000e-01	1.65245024e-02	2.14123047e-04
3.20000000e-01	1.64273195e-02	2.13953087e-04
3.20500000e-01	1.66254881e-02	2.15184934e-04
3.21000000e-01	1.64284148e-02	2.12867890e-04
3.21500000e-01	1.64568439e-02	2.13397909e-04
3.22000000e-01	1.64573298e-02	2.12224414e-04
3.22500000e-01	1.63663393e-02	2.10652233e-04
3.23000000e-01	1.63999112e-02	2.10868403e-04
3.23500000e-01	1.64771480e-02	2.12699114e-04
3.24000000e-01	1.65794874e-02	2.13440938e-04
3.24500000e-01	1.64965192e-02	2.12232495e-04
3.25000000e-01	1.63763442e-02	2.10351144e-04
3.25500000e-01	1.63791603e-02	2.10016181e-04
3.26000000e-01	1.65443000e-02	2.11566463e-04
3.26500000e-01	1.62527369e-02	2.08526253e-04
3.27000000e-01	1.63234298e-02	2.09606692e-04
3.27500000e-01	1.63345898e-02	2.09181170e-04
3.28000000e-01	1.63527932e-02	2.09603922e-04
3.28500000e-01	1.63279647e-02	2.08564064e-04
3.29000000e-01	1.65328958e-02	2.11352369e-04
3.29500000e-01	1.62970473e-02	2.08946317e-04
3.30000000e-01	1.62807967e-02	2.07657535e-04
3.30500000e-01	1.64172744e-02	2.08952067e-04
3.31000000e-01	1.64567984e-02	2.09482968e-04
3.31500000e-01	1.63179857e-02	2.07866970e-04
3.32000000e-01	1.61892992e-02	2.06742520e-04
3.32500000e-01	1.63136784e-02	2.07717965e-04
3.33000000e-01	1.62904369e-02	2.07855974e-04
3.33500000e-01	1.61642860e-02	2.05732411e-04
3.34000000e-01	1.60781626e-02	2.04139872e-04
3.34500000e-01	1.61756327e-02	2.05482135e-04
3.35000000e-01	1.62778789e-02	2.05535554e-04
3.35500000e-01	1.62653635e-02	2.05935361e-04
3.36000000e-01	1.63362465e-02	2.06446645e-04
3.36500000e-01	1.61610502e-02	2.04146970e-04
3.37000000e-01	1.62036627e-02	2.04650330e-04
3.37500000e-01	1.61861408e-02	2.04273766e-04
3.38000000e-01	1.61791886e-02	2.03806205e-04
3.38500000e-01	1.61610475e-02	2.03121523e-04
3.39000000e-01	1.61106682e-02	2.03312231e-04
3.39500000e-01	1.60341375e-02	2.02380845e-04
3.40000000e-01	1.60737311e-02	2.03207540e-04
3.40500000e-01	1.60874625e-02	2.01482052e-04
3.41000000e-01	1.59872956e-02	2.00373053e-04
3.41500000e-01	1.61454536e-02	2.02885862e-04
3.42000000e-01	1.60483858e-02	2.00838587e-04
3.42500000e-01	1.60867635e-02	2.01457091e-04
3.43000000e-01	1.61057125e-02	2.01286098e-04
3.43500000e-01	1.61978041e-02	2.02162690e-04
3.44000000e-01	1.62025574e-02	2.02911389e-04
3.44500000e-01	1.60030056e-02	2.00470059e-04
3.45000000e-01	1.60653560e-02	2.01099989e-04
3.45500000e-01	1.59975700e-02	1.99524062e-04
3.46000000e-01	1.59653549e-02	2.00027800e-04
3.46500000e-01	1.61698403e-02	2.01634921e-04
3.47000000e-01	1.60652720e-02	2.00329448e-04
3.47500000e-01	1.59213510e-02	1.98761094e-04
3.48000000e-01	1.59606406e-02	1.98744307e-04
3.48500000e-01	1.60452987e-02	1.99743216e-04
3.49000000e-01	1.59151679e-02	1.97153138e-04
3.49500000e-01	1.59284748e-02	1.97902905e-04
3.50000000e-01	1.58630046e-02	1.60966024e-04
3.51000000e-01	1.59061144e-02	1.39832880e-04
3.52000000e-01	1.58867524e-02	1.39170135e-04
3.53000000e-01	1.59055584e-02	1.38810665e-04
3.54000000e-01	1.58865580e-02	1.38595015e-04
3.55000000e-01	1.59879972e-02	1.38878288e-04
3.56000000e-01	1.58713696e-02	1.38899261e-04
3.57000000e-01	1.57074994e-02	1.40045341e-04
3.58000000e-01	1.57446031e-02	1.41402489e-04
3.59000000e-01	1.57324066e-02	1.42173755e-04
3.60000000e-01	1.57536307e-02	1.43568701e-04
3.61000000e-01	1.55995772e-02	1.42794147e-04
3.62000000e-01	1.57140913e-02	1.44494393e-04
3.63000000e-01	1.56537942e-02	1.44580840e-04
3.64000000e-01	1.56966609e-02	1.45741346e-04
3.65000000e-01	1.55660851e-02	1.44840558e-04
3.66000000e-01	1.57427199e-02	1.44203071e-04
3.67000000e-01	1.56476985e-02	1.41556374e-04
3.68000000e-01	1.56972322e-02	1.41221484e-04
3.69000000e-01	1.56060676e-02	1.39819675e-04
3.70000000e-01	1.56270663e-02	1.39274136e-04
3.71000000e-01	1.56461246e-02	1.41103450e-04
3.72000000e-01	1.56022192e-02	1.41474966e-04
3.73000000e-01	1.56400115e-02	1.42205455e-04
3.74000000e-01	1.56782489e-02	1.42651774e-04
3.75000000e-01	1.55723863e-02	1.41725103e-04
3.76000000e-01	1.55419985e-02	1.41744383e-04
3.77000000e-01	1.56792837e-02	1.42791979e-04
3.78000000e-01	1.55348636e-02	1.41417243e-04
3.79000000e-01	1.55928064e-02	1.41474436e-04
3.80000000e-01	1.56181321e-02	1.41777278e-04
3.81000000e-01	1.55342120e-02	1.41341947e-04
3.82000000e-01	1.54244575e-02	1.40213203e-04
3.83000000e-01	1.54804118e-02	1.40880450e-04
3.84000000e-01	1.53831901e-02	1.39639659e-04
3.85000000e-01	1.55058133e-02	1.40969787e-04
3.86000000e-01	1.55318223e-02	1.41129576e-04
3.87000000e-01	1.53734070e-02	1.39778919e-04
3.88000000e-01	1.53136449e-02	1.38694582e-04
3.89000000e-01	1.54131800e-02	1.39997332e-04
3.90000000e-01	1.53740784e-02	1.39306030e-04
3.91000000e-01	1.52961062e-02	1.38809964e-04
3.92000000e-01	1.53119589e-02	1.38972045e-04
3.93000000e-01	1.53292154e-02	1.38545911e-04
3.94000000e-01	1.52411572e-02	1.38083316e-04
3.95000000e-01	1.53413562e-02	1.38770719e-04
3.96000000e-01	1.53869543e-02	1.39691673e-04
3.97000000e-01	1.53209161e-02	1.38801830e-04
3.98000000e-01	1.51167600e-02	1.37171664e-04
3.99000000e-01	1.52673219e-02	1.38439705e-04
4.00000000e-01	1.53791399e-02	1.39248778e-04
4.01000000e-01	1.51669094e-02	1.37425431e-04
4.02000000e-01	1.51281986e-02	1.37068571e-04
4.03000000e-01	1.50584836e-02	1.36464406e-04
4.04000000e-01	1.51391619e-02	1.37413345e-04
4.05000000e-01	1.51888492e-02	1.37877676e-04
4.06000000e-01	1.51548313e-02	1.37128050e-04
4.07000000e-01	1.51597816e-02	1.36721481e-04
4.08000000e-01	1.50945811e-02	1.36808956e-04
4.09000000e-01	1.50425580e-02	1.36263932e-04
4.10000000e-01	1.50864381e-02	1.36727058e-04
4.11000000e-01	1.51272458e-02	1.36978808e-04
4.12000000e-01	1.50702995e-02	1.36118994e-04
4.13000000e-01	1.49796678e-02	1.35217488e-04
4.14000000e-01	1.49890924e-02	1.35695401e-04
4.15000000e-01	1.49762718e-02	1.35448590e-04
4.16000000e-01	1.50315415e-02	1.35494056e-04
4.17000000e-01	1.50172157e-02	1.35409633e-04
4.18000000e-01	1.50592910e-02	1.37616210e-04
4.19000000e-01	1.50627891e-02	1.38876677e-04
4.20000000e-01	1.50255818e-02	1.39554014e-04
4.21000000e-01	1.50756089e-02	1.40162440e-04
4.22000000e-01	1.50008350e-02	1.40004147e-04
4.23000000e-01	1.50855143e-02	1.41123454e-04
4.24000000e-01	1.49150464e-02	1.40519707e-04
4.25000000e-01	1.50819782e-02	1.41839553e-04
4.26000000e-01	1.50282893e-02	1.41782931e-04
4.27000000e-01	1.50848302e-02	1.41861596e-04
4.28000000e-01	1.48535186e-02	1.40468397e-04
4.29000000e-01	1.50629869e-02	1.42255739e-04
4.30000000e-01	1.49036807e-02	1.40832819e-04
4.31000000e-01	1.49364432e-02	1.40653040e-04
4.32000000e-01	1.50443271e-02	1.42162108e-04
4.33000000e-01	1.49784886e-02	1.41627694e-04
4.34000000e-01	1.49050542e-02	1.41043416e-04
4.35000000e-01	1.49756180e-02	1.42211289e-04
4.36000000e-01	1.49676181e-02	1.41938964e-04
4.37000000e-01	1.48210889e-02	1.41308673e-04
4.38000000e-01	1.49895346e-02	1.42024719e-04
4.39000000e-01	1.49039731e-02	1.42629197e-04
4.40000000e-01	1.49272823e-02	1.42615853e-04
4.41000000e-01	1.49393962e-02	1.42392475e-04
4.42000000e-01	1.47283321e-02	1.41116935e-04
4.43000000e-01	1.49974286e-02	1.43326694e-04
4.44000000e-01	1.48598458e-02	1.42554957e-04
4.45000000e-01	1.49162025e-02	1.43064689e-04
4.46000000e-01	1.47252434e-02	1.41246959e-04
4.47000000e-01	1.49388413e-02	1.43794031e-04
4.48000000e-01	1.47631747e-02	1.41891773e-04
4.49000000e-01	1.46581475e-02	1.41285891e-04
4.50000000e-01	1.48404793e-02	1.42840859e-04
4.51000000e-01	1.47797450e-02	1.42728047e-04
4.52000000e-01	1.48084703e-02	1.43251283e-04
4.53000000e-01	1.47383563e-02	1.42630593e-04
4.54000000e-01	1.47202532e-02	1.42372733e-04
4.55000000e-01	1.48537818e-02	1.43981448e-04
4.56000000e-01	1.48479655e-02	1.44146980e-04
4.57000000e-01	1.47107668e-02	1.42938145e-04
4.58000000e-01	1.47995389e-02	1.43454447e-04
4.59000000e-01	1.45720754e-02	1.42014756e-04
4.60000000e-01	1.45943513e-02	1.42379664e-04
4.61000000e-01	1.47217759e-02	1.43667350e-04
4.62000000e-01	1.47092210e-02	1.43103577e-04
4.63000000e-01	1.46782435e-02	1.43185169e-04
4.64000000e-01	1.48179028e-02	1.44865513e-04
4.65000000e-01	1.45747090e-02	1.42486327e-04
4.66000000e-01	1.45769007e-02	1.42237603e-04
4.67000000e-01	1.45615830e-02	1.42812746e-04
4.68000000e-01	1.46694296e-02	1.43762178e-04
4.69000000e-01	1.47533502e-02	1.44539063e-04
4.70000000e-01	1.45608088e-02	1.43112182e-04
4.71000000e-01	1.46982828e-02	1.43745544e-04
4.72000000e-01	1.45111498e-02	1.42542635e-04
4.73000000e-01	1.45096452e-02	1.42512905e-04
4.74000000e-01	1.44349769e-02	1.41807412e-04
4.75000000e-01	1.44820850e-02	1.41871947e-04
4.76000000e-01	1.45088562e-02	1.42117087e-04
4.77000000e-01	1.44779956e-02	1.42207140e-04
4.78000000e-01	1.45234654e-02	1.42622695e-04
4.79000000e-01	1.47037482e-02	1.43911048e-04
4.80000000e-01	1.45213503e-02	1.42416824e-04
4.81000000e-01	1.43673046e-02	1.41324739e-04
4.82000000e-01	1.44571828e-02	1.42058345e-04
4.83000000e-01	1.44339612e-02	1.42088559e-04
4.84000000e-01	1.44169688e-02	1.41983174e-04
4.85000000e-01	1.44809807e-02	1.42638631e-04
4.86000000e-01	1.45450220e-02	1.43123649e-04
4.87000000e-01	1.44497936e-02	1.42260647e-04
4.88000000e-01	1.43654526e-02	1.41676335e-04
4.89000000e-01	1.43352456e-02	1.41860293e-04
4.90000000e-01	1.43577565e-02	1.42170666e-04
4.91000000e-01	1.44355925e-02	1.42560837e-04
4.92000000e-01	1.44631983e-02	1.42993066e-04
4.93000000e-01	1.44785459e-02	1.43091143e-04
4.94000000e-01	1.43324295e-02	1.41810642e-04
4.95000000e-01	1.43621260e-02	1.42884040e-04
4.96000000e-01	1.44182079e-02	1.48144420e-04
4.97000000e-01	1.44362843e-02	1.50934672e-04
4.98000000e-01	1.44149332e-02	1.53108721e-04
4.99000000e-01	1.43330621e-02	1.53413799e-04
5.00000000e-01	1.44809628e-02	1.56912200e-04
5.01000000e-01	1.42992841e-02	1.56526049e-04
5.02000000e-01	1.44577421e-02	1.59534762e-04
5.03000000e-01	1.41878410e-02	1.58574165e-04
5.04000000e-01	1.43777523e-02	1.61336310e-04
5.05000000e-01	1.45576619e-02	1.60888138e-04
5.06000000e-01	1.45933933e-02	1.57561252e-04
5.07000000e-01	1.43569834e-02	1.53985672e-04
5.08000000e-01	1.43034594e-02	1.52298392e-04
5.09000000e-01	1.44219879e-02	1.52891689e-04
5.10000000e-01	1.43212279e-02	1.51756702e-04
5.11000000e-01	1.42280589e-02	1.50245822e-04
5.12000000e-01	1.43284609e-02	1.50582730e-04
5.13000000e-01	1.43151418e-02	1.50636175e-04
5.14000000e-01	1.42486237e-02	1.48788665e-04
5.15000000e-01	1.42289132e-02	1.48543016e-04
5.16000000e-01	1.42453529e-02	1.48751675e-04
5.17000000e-01	1.40788723e-02	1.46963321e-04
5.18000000e-01	1.41300129e-02	1.46995391e-04
5.19000000e-01	1.42716592e-02	1.47700861e-04
5.20000000e-01	1.42589007e-02	1.47748437e-04
5.21000000e-01	1.42055187e-02	1.47194428e-04
5.22000000e-01	1.41485518e-02	1.46469561e-04
5.23000000e-01	1.41418689e-02	1.46188335e-04
5.24000000e-01	1.40835460e-02	1.45580873e-04
5.25000000e-01	1.40633157e-02	1.45031273e-04
5.26000000e-01	1.41461625e-02	1.45816214e-04
5.27000000e-01	1.41355642e-02	1.46166645e-04
5.28000000e-01	1.40711754e-02	1.45289348e-04
5.29000000e-01	1.40815582e-02	1.45503890e-04
5.30000000e-01	1.42411911e-02	1.47183011e-04
5.31000000e-01	1.39624085e-02	1.44378407e-04
5.32000000e-01	1.41177860e-02	1.45527408e-04
5.33000000e-01	1.42204673e-02	1.46945023e-04
5.34000000e-01	1.41047285e-02	1.46174517e-04
5.35000000e-01	1.39892001e-02	1.44420932e-04
5.36000000e-01	1.40748325e-02	1.44950206e-04
5.37000000e-01	1.41093355e-02	1.45705909e-04
5.38000000e-01	1.40967964e-02	1.45346595e-04
5.39000000e-01	1.40202908e-02	1.44599697e-04
5.40000000e-01	1.40123483e-02	1.43929441e-04
5.41000000e-01	1.41031785e-02	1.45215657e-04
5.42000000e-01	1.41629691e-02	1.45637716e-04
5.43000000e-01	1.39853006e-02	1.43942857e-04
5.44000000e-01	1.40646560e-02	1.44667947e-04
5.45000000e-01	1.40180790e-02	1.44841942e-04
5.46000000e-01	1.38393674e-02	1.43217762e-04
5.47000000e-01	1.37815197e-02	1.42295082e-04
5.48000000e-01	1.40205863e-02	1.44663161e-04
5.49000000e-01	1.38114171e-02	1.42737996e-04
5.50000000e-01	1.38631498e-02	1.43537036e-04
5.51000000e-01	1.38289904e-02	1.42184758e-04
5.52000000e-01	1.38154555e-02	1.42415963e-04
5.53000000e-01	1.38162386e-02	1.42506260e-04
5.54000000e-01	1.38253456e-02	1.42201779e-04
5.55000000e-01	1.37750363e-02	1.41331483e-04
5.56000000e-01	1.39064338e-02	1.42701127e-04
5.57000000e-01	1.39300951e-02	1.42841060e-04
5.58000000e-01	1.37131913e-02	1.40456499e-04
5.59000000e-01	1.38326425e-02	1.42172819e-04
5.60000000e-01	1.37881732e-02	1.41472734e-04
5.61000000e-01	1.37989410e-02	1.41586702e-04
5.62000000e-01	1.37082351e-02	1.40637190e-04
5.63000000e-01	1.36776659e-02	1.40559689e-04
5.64000000e-01	1.36100935e-02	1.40542064e-04
5.65000000e-01	1.36531727e-02	1.40532168e-04
5.66000000e-01	1.37396136e-02	1.41168368e-04
5.67000000e-01	1.37483863e-02	1.41729362e-04
5.68000000e-01	1.36705755e-02	1.40760808e-04
5.69000000e-01	1.36404163e-02	1.39805957e-04
5.70000000e-01	1.37208486e-02	1.40597592e-04
5.71000000e-01	1.36224351e-02	1.39687657e-04
5.72000000e-01	1.36806660e-02	1.40425075e-04
5.73000000e-01	1.35691069e-02	1.40098560e-04
5.74000000e-01	1.35852499e-02	1.39390312e-04
5.75000000e-01	1.35802172e-02	1.39687327e-04
5.76000000e-01	1.36106111e-02	1.39677342e-04
5.77000000e-01	1.34530318e-02	1.38766246e-04
5.78000000e-01	1.34623687e-02	1.38801753e-04
5.79000000e-01	1.34716806e-02	1.38737672e-04
5.80000000e-01	1.34563571e-02	1.38800865e-04
5.81000000e-01	1.35549138e-02	1.39196549e-04
5.82000000e-01	1.34231653e-02	1.38410578e-04
5.83000000e-01	1.34114575e-02	1.38434139e-04
5.84000000e-01	1.33635068e-02	1.38042001e-04
5.85000000e-01	1.34682195e-02	1.38859556e-04
5.86000000e-01	1.35472230e-02	1.39467844e-04
5.87000000e-01	1.34711233e-02	1.38892356e-04
5.88000000e-01	1.35376279e-02	1.39775545e-04
5.89000000e-01	1.34361105e-02	1.38424272e-04
5.90000000e-01	1.34241226e-02	1.38375452e-04
5.91000000e-01	1.33775398e-02	1.38417316e-04
5.92000000e-01	1.34538034e-02	1.39105694e-04
5.93000000e-01	1.34100948e-02	1.38674163e-04
5.94000000e-01	1.33582901e-02	1.38309033e-04
5.95000000e-01	1.34026326e-02	1.38489423e-04
5.96000000e-01	1.35353192e-02	1.40253656e-04
5.97000000e-01	1.34365259e-02	1.38847753e-04
5.98000000e-01	1.33847216e-02	1.38588975e-04
5.99000000e-01	1.32173276e-02	1.36812462e-04
6.00000000e-01	1.34792658e-02	1.39430196e-04
6.01000000e-01	1.33713168e-02	1.38546284e-04
6.02000000e-01	1.33177582e-02	1.38166494e-04
6.03000000e-01	1.33909486e-02	1.38610836e-04
6.04000000e-01	1.33426942e-02	1.38032962e-04
6.05000000e-01	1.33711483e-02	1.38167705e-04
6.06000000e-01	1.34906238e-02	1.39446281e-04
6.07000000e-01	1.34589315e-02	1.39452079e-04
6.08000000e-01	1.32447352e-02	1.37326156e-04
6.09000000e-01	1.32204347e-02	1.37420368e-04
6.10000000e-01	1.33153483e-02	1.37811935e-04
6.11000000e-01	1.33053444e-02	1.38100809e-04
6.12000000e-01	1.32049978e-02	1.37023388e-04
6.13000000e-01	1.32731258e-02	1.37885333e-04
6.14000000e-01	1.30537730e-02	1.35662002e-04
6.15000000e-01	1.33323921e-02	1.37990441e-04
6.16000000e-01	1.32216256e-02	1.37010503e-04
6.17000000e-01	1.31753163e-02	1.37005254e-04
6.18000000e-01	1.31591702e-02	1.36485610e-04
6.19000000e-01	1.30708158e-02	1.35833223e-04
6.20000000e-01	1.32611485e-02	1.37291739e-04
6.21000000e-01	1.30868091e-02	1.35540304e-04
6.22000000e-01	1.33009731e-02	1.37750147e-04
6.23000000e-01	1.32022711e-02	1.35890395e-04
6.24000000e-01	1.31128113e-02	1.34874861e-04
6.25000000e-01	1.31722145e-02	1.35893132e-04
6.26000000e-01	1.30599861e-02	1.34492444e-04
6.27000000e-01	1.31482221e-02	1.35541238e-04
6.28000000e-01	1.31535641e-02	1.35313201e-04
6.29000000e-01	1.31772055e-02	1.35668719e-04
6.30000000e-01	1.30466614e-02	1.34657974e-04
6.31000000e-01	1.30299691e-02	1.34599751e-04
6.32000000e-01	1.32310575e-02	1.36447170e-04
6.33000000e-01	1.30875219e-02	1.34894342e-04
6.34000000e-01	1.31985717e-02	1.39234535e-04
6.35000000e-01	1.31264791e-02	1.42535328e-04
6.36000000e-01	1.31474512e-02	1.45988779e-04
6.37000000e-01	1.30132761e-02	1.46346147e-04
6.38000000e-01	1.32241863e-02	1.50423361e-04
6.39000000e-01	1.32655119e-02	1.53251341e-04
6.40000000e-01	1.31743861e-02	1.53556576e-04
6.41000000e-01	1.30550231e-02	1.54059530e-04
6.42000000e-01	1.32928261e-02	1.58509386e-04
6.43000000e-01	1.31856450e-02	1.56998710e-04
6.44000000e-01	1.31634455e-02	1.51523595e-04
6.45000000e-01	1.32103130e-02	1.49894871e-04
6.46000000e-01	1.30739586e-02	1.47153710e-04
6.47000000e-01	1.29116936e-02	1.44349842e-04
6.48000000e-01	1.30980811e-02	1.45098328e-04
6.49000000e-01	1.31610870e-02	1.45164465e-04
6.50000000e-01	1.32271763e-02	1.44426226e-04
6.51000000e-01	1.31984218e-02	1.44413168e-04
6.52000000e-01	1.30189099e-02	1.41375362e-04
6.53000000e-01	1.29343909e-02	1.40018122e-04
6.54000000e-01	1.30903854e-02	1.41826066e-04
6.55000000e-01	1.32233514e-02	1.42467399e-04
6.56000000e-01	1.29826548e-02	1.40286327e-04
6.57000000e-01	1.31082250e-02	1.40923604e-04
6.58000000e-01	1.30822962e-02	1.40394511e-04
6.59000000e-01	1.30238646e-02	1.39763088e-04
6.60000000e-01	1.32625780e-02	1.41772985e-04
6.61000000e-01	1.29422807e-02	1.38933190e-04
6.62000000e-01	1.30610169e-02	1.40150517e-04
6.63000000e-01	1.29997991e-02	1.39552595e-04
6.64000000e-01	1.30376808e-02	1.39522153e-04
6.65000000e-01	1.29613932e-02	1.38766312e-04
6.66000000e-01	1.29861289e-02	1.39246291e-04
6.67000000e-01	1.29553487e-02	1.38844789e-04
6.68000000e-01	1.30261449e-02	1.39148641e-04
6.69000000e-01	1.30245891e-02	1.39212616e-04
6.70000000e-01	1.29538867e-02	1.38433269e-04
6.71000000e-01	1.29049156e-02	1.38236004e-04
6.72000000e-01	1.28889669e-02	1.37707894e-04
6.73000000e-01	1.29351895e-02	1.37757092e-04
6.74000000e-01	1.29691536e-02	1.38422329e-04
6.75000000e-01	1.27042826e-02	1.35628467e-04
6.76000000e-01	1.28911390e-02	1.37465910e-04
6.77000000e-01	1.28657893e-02	1.37472249e-04
6.78000000e-01	1.29762979e-02	1.38236200e-04
6.79000000e-01	1.29357713e-02	1.37540203e-04
6.80000000e-01	1.29609271e-02	1.37997640e-04
6.81000000e-01	1.29108385e-02	1.37769216e-04
6.82000000e-01	1.29793802e-02	1.38335391e-04
6.83000000e-01	1.27945127e-02	1.36140132e-04
6.84000000e-01	1.28764735e-02	1.37024943e-04
6.85000000e-01	1.29005988e-02	1.37185917e-04
6.86000000e-01	1.28637895e-02	1.37199587e-04
6.87000000e-01	1.28547435e-02	1.36510005e-04
6.88000000e-01	1.29752808e-02	1.38007783e-04
6.89000000e-01	1.28932443e-02	1.37021873e-04
6.90000000e-01	1.27128382e-02	1.35487480e-04
6.91000000e-01	1.28410430e-02	1.36651844e-04
6.92000000e-01	1.28581304e-02	1.36723872e-04
6.93000000e-01	1.27449347e-02	1.35734345e-04
6.94000000e-01	1.27331132e-02	1.35551840e-04
6.95000000e-01	1.27823211e-02	1.35670662e-04
6.96000000e-01	1.27970371e-02	1.36294133e-04
6.97000000e-01	1.28157244e-02	1.36294458e-04
6.98000000e-01	1.26347936e-02	1.34486951e-04
6.99000000e-01	1.27512519e-02	1.35681050e-04
7.00000000e-01	1.27928228e-02	1.36009835e-04
7.01000000e-01	1.26879324e-02	1.35557258e-04
7.02000000e-01	1.27017122e-02	1.35398093e-04
7.03000000e-01	1.26765682e-02	1.34927953e-04
7.04000000e-01	1.26511895e-02	1.34662479e-04
7.05000000e-01	1.27096715e-02	1.35210823e-04
7.06000000e-01	1.24627019e-02	1.32990042e-04
7.07000000e-01	1.25862007e-02	1.33842830e-04
7.08000000e-01	1.25894562e-02	1.33732126e-04
7.09000000e-01	1.25367643e-02	1.33315915e-04
7.10000000e-01	1.24590127e-02	1.32686448e-04
7.11000000e-01	1.25332217e-02	1.33353932e-04
7.12000000e-01	1.26770838e-02	1.35340215e-04
7.13000000e-01	1.25846274e-02	1.33785092e-04
7.14000000e-01	1.25417130e-02	1.33670710e-04
7.15000000e-01	1.24871186e-02	1.33023498e-04
7.16000000e-01	1.25284715e-02	1.34021555e-04
7.17000000e-01	1.24489914e-02	1.33001109e-04
7.18000000e-01	1.24984650e-02	1.32842698e-04
7.19000000e-01	1.25321350e-02	1.33340031e-04
7.20000000e-01	1.25231766e-02	1.33811171e-04
7.21000000e-01	1.23971992e-02	1.32013598e-04
7.22000000e-01	1.24712632e-02	1.32532044e-04
7.23000000e-01	1.23580109e-02	1.31843400e-04
7.24000000e-01	1.23755112e-02	1.31841653e-04
7.25000000e-01	1.24641438e-02	1.32854037e-04
7.26000000e-01	1.23830753e-02	1.31914730e-04
7.27000000e-01	1.23699656e-02	1.31826801e-04
7.28000000e-01	1.24476393e-02	1.32228477e-04
7.29000000e-01	1.23988726e-02	1.32117563e-04
7.30000000e-01	1.24145818e-02	1.32703489e-04
7.31000000e-01	1.23315712e-02	1.31086028e-04
7.32000000e-01	1.24690625e-02	1.32437832e-04
7.33000000e-01	1.24155334e-02	1.31978479e-04
7.34000000e-01	1.23355224e-02	1.31291311e-04
7.35000000e-01	1.22263015e-02	1.29989086e-04
7.36000000e-01	1.21963517e-02	1.29663020e-04
7.37000000e-01	1.23033297e-02	1.30168606e-04
7.38000000e-01	1.22606444e-02	1.29768554e-04
7.39000000e-01	1.23884589e-02	1.30954257e-04
7.40000000e-01	1.22849245e-02	1.29599175e-04
7.41000000e-01	1.22743291e-02	1.29364340e-04
7.42000000e-01	1.21902164e-02	1.28873762e-04
7.43000000e-01	1.24127907e-02	1.31054406e-04
7.44000000e-01	1.22706337e-02	1.29047561e-04
7.45000000e-01	1.21564752e-02	1.28438650e-04
7.46000000e-01	1.23085418e-02	1.29637372e-04
7.47000000e-01	1.21191783e-02	1.28103110e-04
7.48000000e-01	1.22307217e-02	1.28627196e-04
7.49000000e-01	1.21642413e-02	1.28570766e-04
7.50000000e-01	1.20747045e-02	1.28147108e-04
7.51000000e-01	1.21319702e-02	1.28150505e-04
7.52000000e-01	1.20944911e-02	1.27605232e-04
7.53000000e-01	1.22167429e-02	1.28626589e-04
7.54000000e-01	1.21695160e-02	1.28294766e-04
7.55000000e-01	1.21537003e-02	1.28691656e-04
7.56000000e-01	1.21276461e-02	1.28188539e-04
7.57000000e-01	1.20355695e-02	1.27153726e-04
7.58000000e-01	1.20744241e-02	1.27395945e-04
7.59000000e-01	1.21269893e-02	1.27789928e-04
7.60000000e-01	1.20556902e-02	1.27553610e-04
7.61000000e-01	1.19896918e-02	1.26076230e-04
7.62000000e-01	1.19822783e-02	1.26243075e-04
7.63000000e-01	1.20205076e-02	1.26470920e-04
7.64000000e-01	1.19927425e-02	1.25653352e-04
7.65000000e-01	1.21900070e-02	1.27111795e-04
7.66000000e-01	1.20011268e-02	1.25823121e-04
7.67000000e-01	1.20460188e-02	1.26556749e-04
7.68000000e-01	1.18194579e-02	1.24008999e-04
7.69000000e-01	1.17833081e-02	1.23640177e-04
7.70000000e-01	1.18941483e-02	1.25052453e-04
7.71000000e-01	1.19308826e-02	1.25005963e-04
7.72000000e-01	1.21249712e-02	1.31266544e-04
7.73000000e-01	1.19461374e-02	1.33105324e-04
7.74000000e-01	1.20703956e-02	1.36979591e-04
7.75000000e-01	1.19276517e-02	1.37801300e-04
7.76000000e-01	1.18940223e-02	1.39619742e-04
7.77000000e-01	1.18965406e-02	1.41636418e-04
7.78000000e-01	1.18770534e-02	1.43393521e-04
7.79000000e-01	1.19506784e-02	1.45886507e-04
7.80000000e-01	1.17548566e-02	1.45673259e-04
7.81000000e-01	1.18303471e-02	1.47618941e-04
7.82000000e-01	1.18427235e-02	1.49754518e-04
7.83000000e-01	1.18867047e-02	1.52654919e-04
7.84000000e-01	1.18728595e-02	1.54215262e-04
7.85000000e-01	1.17764485e-02	1.53691172e-04
7.86000000e-01	1.19414662e-02	1.57696598e-04
7.87000000e-01	1.17034417e-02	1.56216902e-04
7.88000000e-01	1.18187442e-02	1.58976562e-04
7.89000000e-01	1.17814007e-02	1.59938006e-04
7.90000000e-01	1.19007806e-02	1.63309338e-04
7.91000000e-01	1.16111808e-02	1.62072834e-04
7.92000000e-01	1.16374872e-02	1.62966658e-04
7.93000000e-01	1.18020871e-02	1.66223556e-04
7.94000000e-01	1.14343522e-02	1.65236365e-04
7.95000000e-01	1.15613448e-02	1.67700668e-04
7.96000000e-01	1.17136956e-02	1.71417663e-04
7.97000000e-01	1.15594908e-02	1.71200084e-04
7.98000000e-01	1.16766663e-02	1.74902105e-04
7.99000000e-01	1.16148336e-02	1.75260825e-04
8.00000000e-01	1.15320820e-02	1.76848372e-04
8.01000000e-01	1.14891023e-02	1.76893252e-04
8.02000000e-01	1.16402506e-02	1.80734857e-04
8.03000000e-01	1.16739662e-02	1.83465438e-04
8.04000000e-01	1.15309310e-02	1.82857142e-04
8.05000000e-01	1.13887168e-02	1.83062944e-04
8.06000000e-01	1.15328202e-02	1.86805912e-04
8.07000000e-01	1.14699445e-02	1.88331148e-04
8.08000000e-01	1.14977278e-02	1.90487998e-04
8.09000000e-01	1.17447612e-02	1.95848381e-04
8.10000000e-01	1.13945009e-02	1.93232342e-04
8.11000000e-01	1.14622958e-02	1.96230902e-04
8.12000000e-01	1.15044049e-02	1.99130430e-04
8.13000000e-01	1.15618730e-02	2.02913973e-04
8.14000000e-01	1.14600770e-02	2.03212996e-04
8.15000000e-01	1.14945077e-02	2.07305593e-04
8.16000000e-01	1.15780344e-02	2.10520309e-04
8.17000000e-01	1.13953893e-02	2.09885673e-04
8.18000000e-01	1.14729926e-02	2.14186475e-04
8.19000000e-01	1.14671442e-02	2.15779167e-04
8.20000000e-01	1.13667587e-02	2.17753903e-04
8.21000000e-01	1.13384199e-02	2.18824084e-04
8.22000000e-01	1.14271764e-02	2.24833079e-04
8.23000000e-01	1.12878441e-02	2.24754495e-04
8.24000000e-01	1.12515626e-02	2.28399653e-04
8.25000000e-01	1.13365166e-02	2.31948316e-04
8.26000000e-01	1.11596889e-02	2.32292343e-04
8.27000000e-01	1.13871880e-02	2.39418640e-04
8.28000000e-01	1.11260782e-02	2.38864945e-04
8.29000000e-01	1.12241407e-02	2.42977784e-04
8.30000000e-01	1.12338082e-02	2.48087217e-04
8.31000000e-01	1.12396921e-02	2.52635207e-04
8.32000000e-01	1.12756099e-02	2.55901823e-04
8.33000000e-01	1.11259524e-02	2.58904643e-04
8.34000000e-01	1.09930522e-02	2.59236821e-04
8.35000000e-01	1.10662175e-02	2.67953502e-04
8.36000000e-01	1.11950118e-02	2.72817232e-04
8.37000000e-01	1.07702299e-02	2.68213048e-04
8.38000000e-01	1.13529260e-02	2.86529065e-04
8.39000000e-01	1.09399734e-02	2.85740036e-04
8.40000000e-01	1.10195600e-02	2.92969264e-04
8.41000000e-01	1.08809610e-02	2.96400637e-04
8.42000000e-01	1.08941998e-02	3.03260708e-04
8.43000000e-01	1.09103549e-02	3.09932135e-04
8.44000000e-01	1.12205456e-02	3.25127268e-04
8.45000000e-01	1.12043720e-02	3.32857656e-04
8.46000000e-01	1.08307253e-02	3.36473938e-04
8.47000000e-01	1.09158668e-02	3.47089495e-04
8.48000000e-01	1.08286335e-02	3.52941378e-04
8.49000000e-01	1.09807895e-02	3.68637308e-04
8.50000000e-01	1.10084467e-02	3.83918371e-04
8.51000000e-01	1.06159471e-02	3.84181832e-04
8.52000000e-01	1.10148903e-02	4.13873985e-04
8.53000000e-01	1.07892600e-02	4.27537841e-04
8.54000000e-01	1.06821793e-02	4.45811794e-04
8.55000000e-01	1.06749699e-02	4.59150756e-04
8.56000000e-01	1.07306981e-02	4.63428255e-04
8.57000000e-01	1.10036524e-02	4.95613703e-04
8.58000000e-01	1.06571192e-02	4.84671875e-04
8.59000000e-01	1.03523080e-02	4.90424058e-04
8.60000000e-01	1.11929632e-02	5.50187565e-04
8.61000000e-01	1.07545464e-02	5.41620080e-04
8.62000000e-01	1.08156974e-02	5.67971974e-04
8.63000000e-01	1.05567846e-02	5.80592007e-04
8.64000000e-01	1.03559609e-02	6.04570210e-04
8.65000000e-01	1.06920545e-02	6.51681458e-04
8.66000000e-01	1.09764249e-02	6.86041755e-04
8.67000000e-01	1.03014248e-02	6.90463079e-04
8.68000000e-01	1.12309511e-02	7.92870108e-04
8.69000000e-01	1.05621518e-02	8.11807511e-04
8.70000000e-01	1.02319924e-02	8.68507338e-04
8.71000000e-01	1.05283828e-02	9.84488659e-04
8.72000000e-01	1.00646704e-02	1.05253693e-03
8.73000000e-01	1.04740483e-02	1.27763546e-03
8.74000000e-01	1.31082883e-02	2.09834389e-03
8.75000000e-01	1.23964277e-02	3.89437335e-03
