% Filename : SDL5_p7_00025_00044.h5
% Date & Time : 30-Oct-2025 16:58:00
% X-ray Energy (keV) : 13.30001
% Exposure Time (s) : 0.500
% Beam Center : 1461.24000, 208.98300
% Sample to Detector Distance (SDD) (mm) : 1990.750
% Detector Pixel Size (mm) : 0.075
% Photodiode Value : 143839.000
% I0 of Sample : 0
% I0 of Standard : 1
% 
% q(A^-1)   I(q)    I(q)_SE
0.00000000e+00	5.02415805e-03	3.55261622e-03
2.50000000e-04	0.00000000e+00	0.00000000e+00
5.00000000e-04	0.00000000e+00	0.00000000e+00
7.50000000e-04	0.00000000e+00	0.00000000e+00
1.00000000e-03	0.00000000e+00	0.00000000e+00
1.25000000e-03	0.00000000e+00	0.00000000e+00
1.50000000e-03	0.00000000e+00	0.00000000e+00
1.75000000e-03	0.00000000e+00	0.00000000e+00
2.00000000e-03	0.00000000e+00	0.00000000e+00
2.25000000e-03	0.00000000e+00	0.00000000e+00
2.50000000e-03	0.00000000e+00	0.00000000e+00
2.75000000e-03	0.00000000e+00	0.00000000e+00
3.00000000e-03	0.00000000e+00	0.00000000e+00
3.25000000e-03	1.57231465e+00	9.29147055e-01
3.50000000e-03	8.73812458e+00	5.27158171e+00
3.75000000e-03	4.64007022e+00	2.22002150e+00
4.00000000e-03	3.80936685e+00	2.03702833e+00
4.25000000e-03	2.66089785e+00	1.09716388e+00
4.50000000e-03	2.43852544e+00	7.48722762e-01
4.75000000e-03	2.38257189e+00	6.35692163e-01
5.00000000e-03	1.76561531e+00	4.14852467e-01
5.25000000e-03	1.37127148e+00	3.08196346e-01
5.50000000e-03	1.20474807e+00	2.74190970e-01
5.75000000e-03	1.13061055e+00	2.43062089e-01
6.00000000e-03	8.88617672e-01	1.83301804e-01
6.25000000e-03	7.44091320e-01	1.44309190e-01
6.50000000e-03	6.29467703e-01	1.16952197e-01
6.75000000e-03	5.50728928e-01	9.68743693e-02
7.00000000e-03	5.32088937e-01	9.62686655e-02
7.25000000e-03	4.40201535e-01	7.46617845e-02
7.50000000e-03	4.03465211e-01	6.89810700e-02
7.75000000e-03	3.38522166e-01	5.55182637e-02
8.00000000e-03	2.99802701e-01	4.71280709e-02
8.25000000e-03	2.92895785e-01	4.53557028e-02
8.50000000e-03	2.57015197e-01	3.79268831e-02
8.75000000e-03	2.25366842e-01	3.27215020e-02
9.00000000e-03	2.02172700e-01	2.95825097e-02
9.25000000e-03	1.81909390e-01	2.55927312e-02
9.50000000e-03	1.71189467e-01	2.30391559e-02
9.75000000e-03	1.49283474e-01	2.05239204e-02
1.00000000e-02	1.43148009e-01	1.91027968e-02
1.02500000e-02	1.26199187e-01	1.65867280e-02
1.05000000e-02	1.17375205e-01	1.46125585e-02
1.07500000e-02	1.06475482e-01	1.29925077e-02
1.10000000e-02	1.00096040e-01	1.16764779e-02
1.12500000e-02	9.06465990e-02	1.10469747e-02
1.15000000e-02	8.33832439e-02	9.35655360e-03
1.17500000e-02	7.78650644e-02	8.33492479e-03
1.20000000e-02	7.69432787e-02	8.25123623e-03
1.22500000e-02	7.33513971e-02	7.68829467e-03
1.25000000e-02	6.93911654e-02	7.05118403e-03
1.27500000e-02	6.46224715e-02	6.31161369e-03
1.30000000e-02	5.95040832e-02	5.80977253e-03
1.32500000e-02	5.78176955e-02	5.37633032e-03
1.35000000e-02	5.63293474e-02	5.27266336e-03
1.37500000e-02	5.39590069e-02	4.90035710e-03
1.40000000e-02	5.11862564e-02	4.47118569e-03
1.42500000e-02	4.92336445e-02	4.15397641e-03
1.45000000e-02	4.68409535e-02	3.75838072e-03
1.47500000e-02	4.37786589e-02	3.57259238e-03
1.50000000e-02	4.31386306e-02	3.48981354e-03
1.52500000e-02	4.09910392e-02	3.08640522e-03
1.55000000e-02	3.94850434e-02	2.89878031e-03
1.57500000e-02	3.67772039e-02	2.72937009e-03
1.60000000e-02	3.82060854e-02	2.73537095e-03
1.62500000e-02	3.66429486e-02	2.67260359e-03
1.65000000e-02	3.52339230e-02	2.41375092e-03
1.67500000e-02	3.49979691e-02	2.44453095e-03
1.70000000e-02	3.36799222e-02	2.28863420e-03
1.72500000e-02	3.26057137e-02	2.10729934e-03
1.75000000e-02	3.21865854e-02	2.15576987e-03
1.77500000e-02	3.23071962e-02	2.03766062e-03
1.80000000e-02	3.29033079e-02	2.03559681e-03
1.82500000e-02	3.15762797e-02	1.87276534e-03
1.85000000e-02	2.93540564e-02	1.79611734e-03
1.87500000e-02	2.90074170e-02	1.76184381e-03
1.90000000e-02	2.84765458e-02	1.67163241e-03
1.92500000e-02	2.80731419e-02	1.59903960e-03
1.95000000e-02	2.87049474e-02	1.62061218e-03
1.97500000e-02	2.78431837e-02	1.56353746e-03
2.00000000e-02	2.77040204e-02	1.54557076e-03
2.02500000e-02	2.73633077e-02	1.49914303e-03
2.05000000e-02	2.76865901e-02	1.48783192e-03
2.07500000e-02	2.66648800e-02	1.43803873e-03
2.10000000e-02	2.63204504e-02	1.39849400e-03
2.12500000e-02	2.60558143e-02	1.38855195e-03
2.15000000e-02	2.61608762e-02	1.39465792e-03
2.17500000e-02	2.62501269e-02	1.40506053e-03
2.20000000e-02	2.59483400e-02	1.38068352e-03
2.22500000e-02	2.59199313e-02	1.35756998e-03
2.25000000e-02	2.69872096e-02	1.40365072e-03
2.27500000e-02	2.50657790e-02	1.31730849e-03
2.30000000e-02	2.61653900e-02	1.40829243e-03
2.32500000e-02	2.50276904e-02	1.30874113e-03
2.35000000e-02	2.52385128e-02	1.31506106e-03
2.37500000e-02	2.44403059e-02	1.28518723e-03
2.40000000e-02	2.45325008e-02	1.28181531e-03
2.42500000e-02	2.42986631e-02	1.23166210e-03
2.45000000e-02	2.55424460e-02	1.31411444e-03
2.47500000e-02	2.47307954e-02	1.26508027e-03
2.50000000e-02	2.54129357e-02	1.29489810e-03
2.52500000e-02	2.39720288e-02	1.22566723e-03
2.55000000e-02	2.45206134e-02	1.21839545e-03
2.57500000e-02	2.52601540e-02	1.27869848e-03
2.60000000e-02	2.37819464e-02	1.19509846e-03
2.62500000e-02	2.34118084e-02	1.18330891e-03
2.65000000e-02	2.35584339e-02	1.16787779e-03
2.67500000e-02	2.45586835e-02	1.20477994e-03
2.70000000e-02	2.33034079e-02	1.15589085e-03
2.72500000e-02	2.38661596e-02	1.17181083e-03
2.75000000e-02	2.32324847e-02	1.15930619e-03
2.77500000e-02	2.41297452e-02	1.19879480e-03
2.80000000e-02	2.32436508e-02	1.12058304e-03
2.82500000e-02	2.32412848e-02	1.12337686e-03
2.85000000e-02	2.38909715e-02	1.16758617e-03
2.87500000e-02	2.39325469e-02	1.16755478e-03
2.90000000e-02	2.28335176e-02	1.13036645e-03
2.92500000e-02	2.33941288e-02	1.11138384e-03
2.95000000e-02	2.31387090e-02	1.12427034e-03
2.97500000e-02	2.40446291e-02	1.14410174e-03
3.00000000e-02	2.40387375e-02	1.15519027e-03
3.02500000e-02	2.41785624e-02	1.15426828e-03
3.05000000e-02	2.42981549e-02	1.15021582e-03
3.07500000e-02	2.36526980e-02	1.13805949e-03
3.10000000e-02	2.32693152e-02	1.10264124e-03
3.12500000e-02	2.42169902e-02	1.16032802e-03
3.15000000e-02	2.38671157e-02	1.13859700e-03
3.17500000e-02	2.30196047e-02	1.06134909e-03
3.20000000e-02	2.32959042e-02	1.09442613e-03
3.22500000e-02	2.24882482e-02	1.05342270e-03
3.25000000e-02	2.38716837e-02	1.12186346e-03
3.27500000e-02	2.27608755e-02	1.06212232e-03
3.30000000e-02	2.22092763e-02	1.02147784e-03
3.32500000e-02	2.22551929e-02	1.03039908e-03
3.35000000e-02	2.24573478e-02	1.04252468e-03
3.37500000e-02	2.16174103e-02	1.00045179e-03
3.40000000e-02	2.24557934e-02	1.03930455e-03
3.42500000e-02	2.22758953e-02	1.02401424e-03
3.45000000e-02	2.27375765e-02	1.03935009e-03
3.47500000e-02	2.18877593e-02	1.00332745e-03
3.50000000e-02	2.12179516e-02	9.74462591e-04
3.52500000e-02	2.20677674e-02	1.00196518e-03
3.55000000e-02	2.14768840e-02	9.66973808e-04
3.57500000e-02	2.20551489e-02	1.01716644e-03
3.60000000e-02	2.17632913e-02	1.00275677e-03
3.62500000e-02	2.15891878e-02	9.90877980e-04
3.65000000e-02	2.14080804e-02	9.71903638e-04
3.67500000e-02	2.20467904e-02	9.86908107e-04
3.70000000e-02	2.20788588e-02	9.96176596e-04
3.72500000e-02	2.16040142e-02	9.64693130e-04
3.75000000e-02	2.25728004e-02	1.01355219e-03
3.77500000e-02	2.07410657e-02	9.41630101e-04
3.80000000e-02	2.22118830e-02	9.89409233e-04
3.82500000e-02	2.06460685e-02	9.04632622e-04
3.85000000e-02	2.13002020e-02	9.35887450e-04
3.87500000e-02	2.03638615e-02	9.00959393e-04
3.90000000e-02	2.10906401e-02	9.39287723e-04
3.92500000e-02	2.07024859e-02	9.10448216e-04
3.95000000e-02	2.14594098e-02	9.39799804e-04
3.97500000e-02	2.05442769e-02	9.08127444e-04
4.00000000e-02	2.14876932e-02	9.30982988e-04
4.02500000e-02	2.11202362e-02	9.13454722e-04
4.05000000e-02	2.15800174e-02	9.33182652e-04
4.07500000e-02	2.16477204e-02	9.37412009e-04
4.10000000e-02	2.16554977e-02	9.40712395e-04
4.12500000e-02	2.13134679e-02	9.26258649e-04
4.15000000e-02	2.16879198e-02	9.29929511e-04
4.17500000e-02	2.07338574e-02	9.04370871e-04
4.20000000e-02	2.18981449e-02	9.30571033e-04
4.22500000e-02	2.11784379e-02	9.02588833e-04
4.25000000e-02	2.12073087e-02	9.05645081e-04
4.27500000e-02	2.10088351e-02	8.90775754e-04
4.30000000e-02	2.05047385e-02	8.73012017e-04
4.32500000e-02	2.10229276e-02	8.80579771e-04
4.35000000e-02	2.07354568e-02	8.83744119e-04
4.37500000e-02	2.11172888e-02	8.92313407e-04
4.40000000e-02	2.17552578e-02	9.27136960e-04
4.42500000e-02	2.07357719e-02	8.68901927e-04
4.45000000e-02	2.14048964e-02	8.88410479e-04
4.47500000e-02	2.08549938e-02	8.71734087e-04
4.50000000e-02	2.03266906e-02	8.59361780e-04
4.52500000e-02	2.12520849e-02	8.90013288e-04
4.55000000e-02	2.09349706e-02	8.69596637e-04
4.57500000e-02	2.11341671e-02	8.75797467e-04
4.60000000e-02	2.07402387e-02	8.60764633e-04
4.62500000e-02	2.09839270e-02	8.68753005e-04
4.65000000e-02	2.10791096e-02	8.64469872e-04
4.67500000e-02	2.16517598e-02	8.77516134e-04
4.70000000e-02	2.08436856e-02	8.51074181e-04
4.72500000e-02	2.10023054e-02	8.52753322e-04
4.75000000e-02	2.01661032e-02	8.33905255e-04
4.77500000e-02	2.17103446e-02	8.76764779e-04
4.80000000e-02	2.13076999e-02	8.70646496e-04
4.82500000e-02	2.08791780e-02	8.43751639e-04
4.85000000e-02	2.10251844e-02	8.65975969e-04
4.87500000e-02	2.06183024e-02	8.40620834e-04
4.90000000e-02	2.09325523e-02	8.37322230e-04
4.92500000e-02	2.05099480e-02	8.20904199e-04
4.95000000e-02	2.02418700e-02	8.12471723e-04
4.97500000e-02	2.06167239e-02	8.33584107e-04
5.00000000e-02	2.05855429e-02	8.21827439e-04
5.02500000e-02	2.10601487e-02	8.34852316e-04
5.05000000e-02	2.08001549e-02	8.24698582e-04
5.07500000e-02	2.07384233e-02	8.29225324e-04
5.10000000e-02	2.09571958e-02	8.27874223e-04
5.12500000e-02	2.02878935e-02	8.11446231e-04
5.15000000e-02	2.06502540e-02	8.14516260e-04
5.17500000e-02	1.98128406e-02	7.95211513e-04
5.20000000e-02	2.04487857e-02	8.04369085e-04
5.22500000e-02	2.05592495e-02	8.13495828e-04
5.25000000e-02	2.05194388e-02	8.05185942e-04
5.27500000e-02	2.00904090e-02	7.92408272e-04
5.30000000e-02	2.03065975e-02	8.05588858e-04
5.32500000e-02	2.00728915e-02	7.86496537e-04
5.35000000e-02	2.10495909e-02	8.20859566e-04
5.37500000e-02	2.06758532e-02	8.03380151e-04
5.40000000e-02	2.11377485e-02	8.22938710e-04
5.42500000e-02	2.07733591e-02	8.00272867e-04
5.45000000e-02	2.01243654e-02	7.82187043e-04
5.47500000e-02	2.04248195e-02	7.86304002e-04
5.50000000e-02	2.08666517e-02	8.06501572e-04
5.52500000e-02	2.07008246e-02	7.99545746e-04
5.55000000e-02	2.10532525e-02	8.06306337e-04
5.57500000e-02	2.04131182e-02	7.88640053e-04
5.60000000e-02	1.99471090e-02	7.65958377e-04
5.62500000e-02	2.06749087e-02	7.93185369e-04
5.65000000e-02	2.04561984e-02	7.75907657e-04
5.67500000e-02	2.04980877e-02	7.82585527e-04
5.70000000e-02	2.02498591e-02	7.67968675e-04
5.72500000e-02	2.02578876e-02	7.72076755e-04
5.75000000e-02	2.05917676e-02	7.81439522e-04
5.77500000e-02	1.96618088e-02	7.47556436e-04
5.80000000e-02	2.00087713e-02	7.60410541e-04
5.82500000e-02	2.10129451e-02	7.93352425e-04
5.85000000e-02	2.00336047e-02	7.57167934e-04
5.87500000e-02	2.02836425e-02	7.63928640e-04
5.90000000e-02	2.02191355e-02	7.61536499e-04
5.92500000e-02	2.02466627e-02	7.56243445e-04
5.95000000e-02	1.99625320e-02	7.46198963e-04
5.97500000e-02	2.02177783e-02	7.54091487e-04
6.00000000e-02	2.05824591e-02	7.68002207e-04
6.02500000e-02	2.06217663e-02	7.68896017e-04
6.05000000e-02	2.03453772e-02	7.55845362e-04
6.07500000e-02	1.98678464e-02	7.40662987e-04
6.10000000e-02	2.06939474e-02	7.69276517e-04
6.12500000e-02	2.03272513e-02	7.42423869e-04
6.15000000e-02	1.99921995e-02	7.39985116e-04
6.17500000e-02	2.01560959e-02	7.40602216e-04
6.20000000e-02	1.95471057e-02	7.22699012e-04
6.22500000e-02	2.01969064e-02	7.46590949e-04
6.25000000e-02	2.02859470e-02	7.48733245e-04
6.27500000e-02	2.06838709e-02	7.49252584e-04
6.30000000e-02	2.07346482e-02	7.57271551e-04
6.32500000e-02	2.02988691e-02	7.45217164e-04
6.35000000e-02	2.04231306e-02	7.50275830e-04
6.37500000e-02	1.95690748e-02	7.10077711e-04
6.40000000e-02	2.01425590e-02	7.27731733e-04
6.42500000e-02	2.01277411e-02	7.29770196e-04
6.45000000e-02	2.04734857e-02	7.41176196e-04
6.47500000e-02	2.01018328e-02	7.27104305e-04
6.50000000e-02	2.02489563e-02	7.29714779e-04
6.52500000e-02	2.02567745e-02	7.24548149e-04
6.55000000e-02	2.05874574e-02	7.37452765e-04
6.57500000e-02	2.06260362e-02	7.40533246e-04
6.60000000e-02	2.01359091e-02	7.24392295e-04
6.62500000e-02	1.99309392e-02	7.11311058e-04
6.65000000e-02	1.97353854e-02	7.09010054e-04
6.67500000e-02	1.98945987e-02	7.11069756e-04
6.70000000e-02	2.05824321e-02	7.35776243e-04
6.72500000e-02	2.06164389e-02	7.34956515e-04
6.75000000e-02	1.99997821e-02	7.11171654e-04
6.77500000e-02	1.98904882e-02	6.99398440e-04
6.80000000e-02	2.00969987e-02	7.12475168e-04
6.82500000e-02	2.06788927e-02	7.30080677e-04
6.85000000e-02	2.02707648e-02	7.16700039e-04
6.87500000e-02	2.02837550e-02	7.13013540e-04
6.90000000e-02	2.08520430e-02	7.31773765e-04
6.92500000e-02	2.03662596e-02	7.14679731e-04
6.95000000e-02	2.00749631e-02	7.02988247e-04
6.97500000e-02	2.01250700e-02	7.10479616e-04
7.00000000e-02	1.93895460e-02	6.79839769e-04
7.02500000e-02	2.00351756e-02	6.94043781e-04
7.05000000e-02	1.96671896e-02	6.85280077e-04
7.07500000e-02	2.03006189e-02	7.12963644e-04
7.10000000e-02	1.97096697e-02	6.81862858e-04
7.12500000e-02	1.97335154e-02	6.80097377e-04
7.15000000e-02	1.98684341e-02	6.93158045e-04
7.17500000e-02	1.99826693e-02	6.89697805e-04
7.20000000e-02	1.99179202e-02	6.95817970e-04
7.22500000e-02	1.99574021e-02	6.91016377e-04
7.25000000e-02	1.98433835e-02	6.84370083e-04
7.27500000e-02	1.99189816e-02	6.84830904e-04
7.30000000e-02	2.05377308e-02	7.07506361e-04
7.32500000e-02	2.01062956e-02	6.81888478e-04
7.35000000e-02	1.98513528e-02	6.83608956e-04
7.37500000e-02	1.91749906e-02	6.60074647e-04
7.40000000e-02	2.02534326e-02	6.90264457e-04
7.42500000e-02	1.98308687e-02	6.79393546e-04
7.45000000e-02	2.05505357e-02	6.91755759e-04
7.47500000e-02	2.01315835e-02	6.83896467e-04
7.50000000e-02	1.97821497e-02	6.73470028e-04
7.52500000e-02	1.97776422e-02	6.77378422e-04
7.55000000e-02	1.99331715e-02	6.71215535e-04
7.57500000e-02	2.01277478e-02	6.85587844e-04
7.60000000e-02	2.02037632e-02	6.79783627e-04
7.62500000e-02	2.01403071e-02	6.83696625e-04
7.65000000e-02	2.00980403e-02	6.82418315e-04
7.67500000e-02	1.92802934e-02	6.48919500e-04
7.70000000e-02	1.98878344e-02	6.70698110e-04
7.72500000e-02	1.98998833e-02	6.83835179e-04
7.75000000e-02	1.98305455e-02	6.78567944e-04
7.77500000e-02	1.99374203e-02	6.92642631e-04
7.80000000e-02	2.01013102e-02	6.95868362e-04
7.82500000e-02	1.98720571e-02	6.97096958e-04
7.85000000e-02	2.01116135e-02	7.03952665e-04
7.87500000e-02	1.99754383e-02	7.06301067e-04
7.90000000e-02	1.99865007e-02	7.11773587e-04
7.92500000e-02	2.02351416e-02	7.12351744e-04
7.95000000e-02	1.95918091e-02	6.99861795e-04
7.97500000e-02	1.98841124e-02	7.10472384e-04
8.00000000e-02	1.94967530e-02	6.97305703e-04
8.02500000e-02	2.03494256e-02	7.28725493e-04
8.05000000e-02	1.97576865e-02	7.06808202e-04
8.07500000e-02	2.04502986e-02	7.41352541e-04
8.10000000e-02	2.03998456e-02	7.30267723e-04
8.12500000e-02	2.02183625e-02	7.29653145e-04
8.15000000e-02	1.94491522e-02	7.06097052e-04
8.17500000e-02	1.98149982e-02	7.20740945e-04
8.20000000e-02	1.95504391e-02	7.07316695e-04
8.22500000e-02	2.03304058e-02	7.39354612e-04
8.25000000e-02	2.02701657e-02	7.37189561e-04
8.27500000e-02	1.96178673e-02	7.12514416e-04
8.30000000e-02	2.02384797e-02	7.39278963e-04
8.32500000e-02	1.95022558e-02	7.18118691e-04
8.35000000e-02	2.03093487e-02	7.43031916e-04
8.37500000e-02	2.01063908e-02	7.25505074e-04
8.40000000e-02	1.95656218e-02	7.21598904e-04
8.42500000e-02	1.97996546e-02	7.24913083e-04
8.45000000e-02	2.03407759e-02	7.47410081e-04
8.47500000e-02	1.92056138e-02	7.10022906e-04
8.50000000e-02	1.97827541e-02	7.29488359e-04
8.52500000e-02	1.93057088e-02	7.16658428e-04
8.55000000e-02	1.95174609e-02	7.16741817e-04
8.57500000e-02	1.97863084e-02	7.39733061e-04
8.60000000e-02	2.06573920e-02	7.66634836e-04
8.62500000e-02	1.94313404e-02	7.25236438e-04
8.65000000e-02	2.00053747e-02	7.35038947e-04
8.67500000e-02	1.99744442e-02	7.36375684e-04
8.70000000e-02	1.97170933e-02	7.21432802e-04
8.72500000e-02	2.02087973e-02	7.23573325e-04
8.75000000e-02	1.96811094e-02	6.95397464e-04
8.77500000e-02	1.96994494e-02	6.95294792e-04
8.80000000e-02	1.99379472e-02	6.96704201e-04
8.82500000e-02	2.03703225e-02	7.09958849e-04
8.85000000e-02	2.01400157e-02	7.05991754e-04
8.87500000e-02	1.97272144e-02	6.72800548e-04
8.90000000e-02	1.94989877e-02	6.73620223e-04
8.92500000e-02	2.02166830e-02	6.93307581e-04
8.95000000e-02	1.98625921e-02	6.79159230e-04
8.97500000e-02	1.99811094e-02	6.76638691e-04
9.00000000e-02	1.98323215e-02	6.71972545e-04
9.02500000e-02	1.99149416e-02	6.77413511e-04
9.05000000e-02	1.93989415e-02	6.58145819e-04
9.07500000e-02	1.90606041e-02	6.49494277e-04
9.10000000e-02	2.00317987e-02	6.75039094e-04
9.12500000e-02	1.99505698e-02	6.67308503e-04
9.15000000e-02	1.96157400e-02	6.57963753e-04
9.17500000e-02	1.97884618e-02	6.64734228e-04
9.20000000e-02	1.98252484e-02	6.64900971e-04
9.22500000e-02	1.96025408e-02	6.56038325e-04
9.25000000e-02	1.96111512e-02	6.50345258e-04
9.27500000e-02	1.96931508e-02	6.56511465e-04
9.30000000e-02	1.96197652e-02	6.56211719e-04
9.32500000e-02	2.01886878e-02	6.63353735e-04
9.35000000e-02	1.93567663e-02	6.40194635e-04
9.37500000e-02	1.96194682e-02	6.38980204e-04
9.40000000e-02	1.98916270e-02	6.54979132e-04
9.42500000e-02	1.97198895e-02	6.43449662e-04
9.45000000e-02	2.01790796e-02	6.59926106e-04
9.47500000e-02	2.02470493e-02	6.61716021e-04
9.50000000e-02	2.03079689e-02	6.60480413e-04
9.52500000e-02	2.00624405e-02	6.47909515e-04
9.55000000e-02	1.97220168e-02	6.40870508e-04
9.57500000e-02	2.00733239e-02	6.49214984e-04
9.60000000e-02	1.95822888e-02	6.36845074e-04
9.62500000e-02	2.03091458e-02	6.57182603e-04
9.65000000e-02	1.96841838e-02	6.33445226e-04
9.67500000e-02	1.98979114e-02	6.39607660e-04
9.70000000e-02	1.95583270e-02	6.28523782e-04
9.72500000e-02	1.94095942e-02	6.19135513e-04
9.75000000e-02	1.96836062e-02	6.31928384e-04
9.77500000e-02	2.03310694e-02	6.45480776e-04
9.80000000e-02	1.97107246e-02	6.28021648e-04
9.82500000e-02	2.01944269e-02	6.45076324e-04
9.85000000e-02	2.00541227e-02	6.38922672e-04
9.87500000e-02	1.93976494e-02	6.18814850e-04
9.90000000e-02	1.95084505e-02	6.19405825e-04
9.92500000e-02	1.96860746e-02	6.27476698e-04
9.95000000e-02	1.95168545e-02	6.18129757e-04
9.97500000e-02	2.00758306e-02	6.31827692e-04
1.00000000e-01	1.98864873e-02	5.08818229e-04
1.00500000e-01	1.95153267e-02	4.38000303e-04
1.01000000e-01	1.99195617e-02	4.39806733e-04
1.01500000e-01	1.98816050e-02	4.40065624e-04
1.02000000e-01	1.98006648e-02	4.37382021e-04
1.02500000e-01	1.94828781e-02	4.26913457e-04
1.03000000e-01	1.95769405e-02	4.29285438e-04
1.03500000e-01	1.96258133e-02	4.28841595e-04
1.04000000e-01	1.95308942e-02	4.26105722e-04
1.04500000e-01	1.95404841e-02	4.25477342e-04
1.05000000e-01	1.95138043e-02	4.22566810e-04
1.05500000e-01	1.94169978e-02	4.20526106e-04
1.06000000e-01	1.95472423e-02	4.21303887e-04
1.06500000e-01	1.94409236e-02	4.15805074e-04
1.07000000e-01	1.96038305e-02	4.24772417e-04
1.07500000e-01	1.97577466e-02	4.37548105e-04
1.08000000e-01	1.96746974e-02	4.39210954e-04
1.08500000e-01	1.97829776e-02	4.45147306e-04
1.09000000e-01	1.98091580e-02	4.49830898e-04
1.09500000e-01	1.97892363e-02	4.52343083e-04
1.10000000e-01	1.98660437e-02	4.45443585e-04
1.10500000e-01	1.97377207e-02	4.32054209e-04
1.11000000e-01	2.01056158e-02	4.34305739e-04
1.11500000e-01	1.95588617e-02	4.22025370e-04
1.12000000e-01	1.96293785e-02	4.19769449e-04
1.12500000e-01	1.97540757e-02	4.19916818e-04
1.13000000e-01	1.93690396e-02	4.11967884e-04
1.13500000e-01	1.96481193e-02	4.11459607e-04
1.14000000e-01	1.96200953e-02	4.12448286e-04
1.14500000e-01	1.98129657e-02	4.14185939e-04
1.15000000e-01	1.96369637e-02	4.12084085e-04
1.15500000e-01	1.96728444e-02	4.08708700e-04
1.16000000e-01	1.99377879e-02	4.14413912e-04
1.16500000e-01	1.94365086e-02	4.02645340e-04
1.17000000e-01	1.98967209e-02	4.09369230e-04
1.17500000e-01	1.95084504e-02	4.03506375e-04
1.18000000e-01	1.95650642e-02	4.05468800e-04
1.18500000e-01	1.96838698e-02	4.03735735e-04
1.19000000e-01	1.96133586e-02	3.99700851e-04
1.19500000e-01	1.94682608e-02	3.96706787e-04
1.20000000e-01	1.97235175e-02	4.00965903e-04
1.20500000e-01	1.97458955e-02	3.98798573e-04
1.21000000e-01	1.93607675e-02	3.93826643e-04
1.21500000e-01	1.97307496e-02	4.00769247e-04
1.22000000e-01	1.94208278e-02	3.93337206e-04
1.22500000e-01	1.96277935e-02	3.95676927e-04
1.23000000e-01	1.93113323e-02	3.89387011e-04
1.23500000e-01	1.93857409e-02	3.88222298e-04
1.24000000e-01	1.94656887e-02	3.91926776e-04
1.24500000e-01	1.94456468e-02	3.86676761e-04
1.25000000e-01	1.97802259e-02	3.93838473e-04
1.25500000e-01	1.95317095e-02	3.86740827e-04
1.26000000e-01	1.92665872e-02	3.82646582e-04
1.26500000e-01	1.98240031e-02	3.92167746e-04
1.27000000e-01	1.95634420e-02	3.85557524e-04
1.27500000e-01	1.96306149e-02	3.87859435e-04
1.28000000e-01	1.98766662e-02	3.91381297e-04
1.28500000e-01	1.95988582e-02	3.84581237e-04
1.29000000e-01	1.96666469e-02	3.86982912e-04
1.29500000e-01	1.97293691e-02	3.85538308e-04
1.30000000e-01	1.94110626e-02	3.79500849e-04
1.30500000e-01	1.96111392e-02	3.80967927e-04
1.31000000e-01	1.98297301e-02	3.84846870e-04
1.31500000e-01	1.98707596e-02	3.83561821e-04
1.32000000e-01	1.94235431e-02	3.77678134e-04
1.32500000e-01	1.94831378e-02	3.76949042e-04
1.33000000e-01	1.96942070e-02	3.79195396e-04
1.33500000e-01	1.91504839e-02	3.66783544e-04
1.34000000e-01	1.94677795e-02	3.73852428e-04
1.34500000e-01	1.95489696e-02	3.73139045e-04
1.35000000e-01	1.95804059e-02	3.71532851e-04
1.35500000e-01	1.95932845e-02	3.72261263e-04
1.36000000e-01	1.97572617e-02	3.75331019e-04
1.36500000e-01	1.99732996e-02	3.78818925e-04
1.37000000e-01	1.94156957e-02	3.67163076e-04
1.37500000e-01	1.94544278e-02	3.67520533e-04
1.38000000e-01	1.96425549e-02	3.71648632e-04
1.38500000e-01	1.95842982e-02	3.69630610e-04
1.39000000e-01	1.98039236e-02	3.72408460e-04
1.39500000e-01	1.95528729e-02	3.66549640e-04
1.40000000e-01	1.96483177e-02	3.68238467e-04
1.40500000e-01	1.97663780e-02	3.70609675e-04
1.41000000e-01	1.93519989e-02	3.63068318e-04
1.41500000e-01	1.92401472e-02	3.59142516e-04
1.42000000e-01	1.91484453e-02	3.57253769e-04
1.42500000e-01	1.95403980e-02	3.63941214e-04
1.43000000e-01	1.93572580e-02	3.59698094e-04
1.43500000e-01	1.95682809e-02	3.63978250e-04
1.44000000e-01	1.92817732e-02	3.60213849e-04
1.44500000e-01	1.94356317e-02	3.57870404e-04
1.45000000e-01	1.92407967e-02	3.55671599e-04
1.45500000e-01	1.93377834e-02	3.55812227e-04
1.46000000e-01	1.98502511e-02	3.65168737e-04
1.46500000e-01	1.94211219e-02	3.58799840e-04
1.47000000e-01	1.93732717e-02	3.55865505e-04
1.47500000e-01	1.92526303e-02	3.51115068e-04
1.48000000e-01	1.95204666e-02	3.56348350e-04
1.48500000e-01	1.92717538e-02	3.51296276e-04
1.49000000e-01	1.93814308e-02	3.54460347e-04
1.49500000e-01	1.93247677e-02	3.54892141e-04
1.50000000e-01	1.92852822e-02	3.51344368e-04
1.50500000e-01	1.94777835e-02	3.55990750e-04
1.51000000e-01	1.91263780e-02	3.46568529e-04
1.51500000e-01	1.90949971e-02	3.45366590e-04
1.52000000e-01	1.95670779e-02	3.51244062e-04
1.52500000e-01	1.92498807e-02	3.47159382e-04
1.53000000e-01	1.92399491e-02	3.46647832e-04
1.53500000e-01	1.92879532e-02	3.44861415e-04
1.54000000e-01	1.91182244e-02	3.43261030e-04
1.54500000e-01	1.93085296e-02	3.53267924e-04
1.55000000e-01	1.92461730e-02	3.56031003e-04
1.55500000e-01	1.91448953e-02	3.56448327e-04
1.56000000e-01	1.87323407e-02	3.51298799e-04
1.56500000e-01	1.89020116e-02	3.53336207e-04
1.57000000e-01	1.92340971e-02	3.60230895e-04
1.57500000e-01	1.94632112e-02	3.58457781e-04
1.58000000e-01	1.90157754e-02	3.43647033e-04
1.58500000e-01	1.92381173e-02	3.48195995e-04
1.59000000e-01	1.90734263e-02	3.40908725e-04
1.59500000e-01	1.93539820e-02	3.45987391e-04
1.60000000e-01	1.91538215e-02	3.41697924e-04
1.60500000e-01	1.92543632e-02	3.42576857e-04
1.61000000e-01	1.95115782e-02	3.48173363e-04
1.61500000e-01	1.87690658e-02	3.33425354e-04
1.62000000e-01	1.90691755e-02	3.38059901e-04
1.62500000e-01	1.90986364e-02	3.37243585e-04
1.63000000e-01	1.91163917e-02	3.36372845e-04
1.63500000e-01	1.90460198e-02	3.37114984e-04
1.64000000e-01	1.89751285e-02	3.33147027e-04
1.64500000e-01	1.91247660e-02	3.36140641e-04
1.65000000e-01	1.91222170e-02	3.34028187e-04
1.65500000e-01	1.89323199e-02	3.30974824e-04
1.66000000e-01	1.89339826e-02	3.31447212e-04
1.66500000e-01	1.90121250e-02	3.30882227e-04
1.67000000e-01	1.88675976e-02	3.28950386e-04
1.67500000e-01	1.92130886e-02	3.31622555e-04
1.68000000e-01	1.90097222e-02	3.29903650e-04
1.68500000e-01	1.86681024e-02	3.23884772e-04
1.69000000e-01	1.88739596e-02	3.26598991e-04
1.69500000e-01	1.87008386e-02	3.22501859e-04
1.70000000e-01	1.92051502e-02	3.28792183e-04
1.70500000e-01	1.87936015e-02	3.25964134e-04
1.71000000e-01	1.88768813e-02	3.24818386e-04
1.71500000e-01	1.87723523e-02	3.23341349e-04
1.72000000e-01	1.90038277e-02	3.25814712e-04
1.72500000e-01	1.88978453e-02	3.23280453e-04
1.73000000e-01	1.91389054e-02	3.25550779e-04
1.73500000e-01	1.86734005e-02	3.16969194e-04
1.74000000e-01	1.86860872e-02	3.18253016e-04
1.74500000e-01	1.89609657e-02	3.20624690e-04
1.75000000e-01	1.85830340e-02	3.13935669e-04
1.75500000e-01	1.87917572e-02	3.16137230e-04
1.76000000e-01	1.88908169e-02	3.17874919e-04
1.76500000e-01	1.88470494e-02	3.17048621e-04
1.77000000e-01	1.87789454e-02	3.15101125e-04
1.77500000e-01	1.84444449e-02	3.09651186e-04
1.78000000e-01	1.88899152e-02	3.15018447e-04
1.78500000e-01	1.85890594e-02	3.12228656e-04
1.79000000e-01	1.88022195e-02	3.15618867e-04
1.79500000e-01	1.88930821e-02	3.16647526e-04
1.80000000e-01	1.84742859e-02	3.09569232e-04
1.80500000e-01	1.84751008e-02	3.10245657e-04
1.81000000e-01	1.86527825e-02	3.12971862e-04
1.81500000e-01	1.88753175e-02	3.14581940e-04
1.82000000e-01	1.88096820e-02	3.13984100e-04
1.82500000e-01	1.88125416e-02	3.12301965e-04
1.83000000e-01	1.88519564e-02	3.11612163e-04
1.83500000e-01	1.88220037e-02	3.11446509e-04
1.84000000e-01	1.87657030e-02	3.09766620e-04
1.84500000e-01	1.83738920e-02	3.03992853e-04
1.85000000e-01	1.84575375e-02	3.05557763e-04
1.85500000e-01	1.86183748e-02	3.07533583e-04
1.86000000e-01	1.86231561e-02	3.07153799e-04
1.86500000e-01	1.84953099e-02	3.05557093e-04
1.87000000e-01	1.83636528e-02	3.02223675e-04
1.87500000e-01	1.87241327e-02	3.06852540e-04
1.88000000e-01	1.83509365e-02	3.02306379e-04
1.88500000e-01	1.84606769e-02	3.02117083e-04
1.89000000e-01	1.84950699e-02	3.03853580e-04
1.89500000e-01	1.86909419e-02	3.05421586e-04
1.90000000e-01	1.86790245e-02	3.04508847e-04
1.90500000e-01	1.83514992e-02	2.99732412e-04
1.91000000e-01	1.86506898e-02	3.02717483e-04
1.91500000e-01	1.86341805e-02	3.03274806e-04
1.92000000e-01	1.82815728e-02	2.96490256e-04
1.92500000e-01	1.85389968e-02	3.00090569e-04
1.93000000e-01	1.85054679e-02	3.01355931e-04
1.93500000e-01	1.83384127e-02	2.97411676e-04
1.94000000e-01	1.84552636e-02	2.98208878e-04
1.94500000e-01	1.85911337e-02	3.00469782e-04
1.95000000e-01	1.83796267e-02	2.97050953e-04
1.95500000e-01	1.81255096e-02	2.91630724e-04
1.96000000e-01	1.82301783e-02	2.93438088e-04
1.96500000e-01	1.81946746e-02	2.92927286e-04
1.97000000e-01	1.84151287e-02	2.94161264e-04
1.97500000e-01	1.82967128e-02	2.92003110e-04
1.98000000e-01	1.83138468e-02	2.93042039e-04
1.98500000e-01	1.81468454e-02	2.90509193e-04
1.99000000e-01	1.85060414e-02	2.95881608e-04
1.99500000e-01	1.83127960e-02	2.92031552e-04
2.00000000e-01	1.79991016e-02	2.87435813e-04
2.00500000e-01	1.82674377e-02	2.89787931e-04
2.01000000e-01	1.84646363e-02	2.92218942e-04
2.01500000e-01	1.83159362e-02	2.90870223e-04
2.02000000e-01	1.81525514e-02	2.87599501e-04
2.02500000e-01	1.82046418e-02	2.88413481e-04
2.03000000e-01	1.81860604e-02	2.87481027e-04
2.03500000e-01	1.81804789e-02	2.88126763e-04
2.04000000e-01	1.83669595e-02	2.89537181e-04
2.04500000e-01	1.81020399e-02	2.86234515e-04
2.05000000e-01	1.84094057e-02	2.89366624e-04
2.05500000e-01	1.80239764e-02	2.83749165e-04
2.06000000e-01	1.82222640e-02	2.85040196e-04
2.06500000e-01	1.82599596e-02	2.85177851e-04
2.07000000e-01	1.81160591e-02	2.84770335e-04
2.07500000e-01	1.80994654e-02	2.82623442e-04
2.08000000e-01	1.81185095e-02	2.83316868e-04
2.08500000e-01	1.81417820e-02	2.82276455e-04
2.09000000e-01	1.80986991e-02	2.81491021e-04
2.09500000e-01	1.82065135e-02	2.82732944e-04
2.10000000e-01	1.82297644e-02	2.83498616e-04
2.10500000e-01	1.80636193e-02	2.81304448e-04
2.11000000e-01	1.83175662e-02	2.83786235e-04
2.11500000e-01	1.80461893e-02	2.80486315e-04
2.12000000e-01	1.79302681e-02	2.77725642e-04
2.12500000e-01	1.80851040e-02	2.79219894e-04
2.13000000e-01	1.82239225e-02	2.81172713e-04
2.13500000e-01	1.79447506e-02	2.77075896e-04
2.14000000e-01	1.82705809e-02	2.80467998e-04
2.14500000e-01	1.79240782e-02	2.76192801e-04
2.15000000e-01	1.81234774e-02	2.80465618e-04
2.15500000e-01	1.80023356e-02	2.76739975e-04
2.16000000e-01	1.79573823e-02	2.75802222e-04
2.16500000e-01	1.78507941e-02	2.74307822e-04
2.17000000e-01	1.78986009e-02	2.79024881e-04
2.17500000e-01	1.80541214e-02	2.85810223e-04
2.18000000e-01	1.79058419e-02	2.83958113e-04
2.18500000e-01	1.78870486e-02	2.86003641e-04
2.19000000e-01	1.78905636e-02	2.87127312e-04
2.19500000e-01	1.79614138e-02	2.87805564e-04
2.20000000e-01	1.78549426e-02	2.88746137e-04
2.20500000e-01	1.80321106e-02	2.91357146e-04
2.21000000e-01	1.78803938e-02	2.90334540e-04
2.21500000e-01	1.77812282e-02	2.89396292e-04
2.22000000e-01	1.78499634e-02	2.90203436e-04
2.22500000e-01	1.78893429e-02	2.91453237e-04
2.23000000e-01	1.81068534e-02	2.96628564e-04
2.23500000e-01	1.81816643e-02	2.98348877e-04
2.24000000e-01	1.78490461e-02	2.93895784e-04
2.24500000e-01	1.79377370e-02	2.95523668e-04
2.25000000e-01	1.79721491e-02	2.96725176e-04
2.25500000e-01	1.79634784e-02	2.97557610e-04
2.26000000e-01	1.77121061e-02	2.93945571e-04
2.26500000e-01	1.76604583e-02	2.88806375e-04
2.27000000e-01	1.77755283e-02	2.88651002e-04
2.27500000e-01	1.81569305e-02	2.91758276e-04
2.28000000e-01	1.79655836e-02	2.86150775e-04
2.28500000e-01	1.79439643e-02	2.85201002e-04
2.29000000e-01	1.79474070e-02	2.83013533e-04
2.29500000e-01	1.81162476e-02	2.85733660e-04
2.30000000e-01	1.79299004e-02	2.81698295e-04
2.30500000e-01	1.76955088e-02	2.77419573e-04
2.31000000e-01	1.78100253e-02	2.78543534e-04
2.31500000e-01	1.78377420e-02	2.77656916e-04
2.32000000e-01	1.75442967e-02	2.73105134e-04
2.32500000e-01	1.76088496e-02	2.73805189e-04
2.33000000e-01	1.77199547e-02	2.75090902e-04
2.33500000e-01	1.76031625e-02	2.71302401e-04
2.34000000e-01	1.75968779e-02	2.71216313e-04
2.34500000e-01	1.77866860e-02	2.73126257e-04
2.35000000e-01	1.77673992e-02	2.73446336e-04
2.35500000e-01	1.75301966e-02	2.67983923e-04
2.36000000e-01	1.74001166e-02	2.67594924e-04
2.36500000e-01	1.78427634e-02	2.72157638e-04
2.37000000e-01	1.77399510e-02	2.70045080e-04
2.37500000e-01	1.78774528e-02	2.71625562e-04
2.38000000e-01	1.74879526e-02	2.65650840e-04
2.38500000e-01	1.76996126e-02	2.69984570e-04
2.39000000e-01	1.76480737e-02	2.66201804e-04
2.39500000e-01	1.77703127e-02	2.68721260e-04
2.40000000e-01	1.76461256e-02	2.66193180e-04
2.40500000e-01	1.76128045e-02	2.65095335e-04
2.41000000e-01	1.75813472e-02	2.64921037e-04
2.41500000e-01	1.76016486e-02	2.63821198e-04
2.42000000e-01	1.77059948e-02	2.64607363e-04
2.42500000e-01	1.73986115e-02	2.60706408e-04
2.43000000e-01	1.74996869e-02	2.61614230e-04
2.43500000e-01	1.74941255e-02	2.61447524e-04
2.44000000e-01	1.76172124e-02	2.62025502e-04
2.44500000e-01	1.76101907e-02	2.62471429e-04
2.45000000e-01	1.74486979e-02	2.58950528e-04
2.45500000e-01	1.75330590e-02	2.60065539e-04
2.46000000e-01	1.75874747e-02	2.60503980e-04
2.46500000e-01	1.76175885e-02	2.60469891e-04
2.47000000e-01	1.73467966e-02	2.57832843e-04
2.47500000e-01	1.77414473e-02	2.61281130e-04
2.48000000e-01	1.77100766e-02	2.60727534e-04
2.48500000e-01	1.74338332e-02	2.55886464e-04
2.49000000e-01	1.74394426e-02	2.56794788e-04
2.49500000e-01	1.74929326e-02	2.57029849e-04
2.50000000e-01	1.72706365e-02	2.53688657e-04
2.50500000e-01	1.75705690e-02	2.59181694e-04
2.51000000e-01	1.74167718e-02	2.54939014e-04
2.51500000e-01	1.74019764e-02	2.55233091e-04
2.52000000e-01	1.75280991e-02	2.56418155e-04
2.52500000e-01	1.74412770e-02	2.54637102e-04
2.53000000e-01	1.73384334e-02	2.53390935e-04
2.53500000e-01	1.75487938e-02	2.55443694e-04
2.54000000e-01	1.74400995e-02	2.55083581e-04
2.54500000e-01	1.73389599e-02	2.52340088e-04
2.55000000e-01	1.74085953e-02	2.53158570e-04
2.55500000e-01	1.75883968e-02	2.55220971e-04
2.56000000e-01	1.72321794e-02	2.49159697e-04
2.56500000e-01	1.73660555e-02	2.51395518e-04
2.57000000e-01	1.74512772e-02	2.51925651e-04
2.57500000e-01	1.74006269e-02	2.51642043e-04
2.58000000e-01	1.71301112e-02	2.47686284e-04
2.58500000e-01	1.72783022e-02	2.49373618e-04
2.59000000e-01	1.73795783e-02	2.50850087e-04
2.59500000e-01	1.74412224e-02	2.51015632e-04
2.60000000e-01	1.74132127e-02	2.49573586e-04
2.60500000e-01	1.71275534e-02	2.46917782e-04
2.61000000e-01	1.72766385e-02	2.48191250e-04
2.61500000e-01	1.72379777e-02	2.47430298e-04
2.62000000e-01	1.73211147e-02	2.47719273e-04
2.62500000e-01	1.72431401e-02	2.47398753e-04
2.63000000e-01	1.72285791e-02	2.46056570e-04
2.63500000e-01	1.72140572e-02	2.45254752e-04
2.64000000e-01	1.70645985e-02	2.44125658e-04
2.64500000e-01	1.73364301e-02	2.46008942e-04
2.65000000e-01	1.71690781e-02	2.44898780e-04
2.65500000e-01	1.70023535e-02	2.41772522e-04
2.66000000e-01	1.70989181e-02	2.43994708e-04
2.66500000e-01	1.73393931e-02	2.45733559e-04
2.67000000e-01	1.72127836e-02	2.43412797e-04
2.67500000e-01	1.71872305e-02	2.43183421e-04
2.68000000e-01	1.70977876e-02	2.42213447e-04
2.68500000e-01	1.71232543e-02	2.41170617e-04
2.69000000e-01	1.71373032e-02	2.41298720e-04
2.69500000e-01	1.72089998e-02	2.42629841e-04
2.70000000e-01	1.70572838e-02	2.39618119e-04
2.70500000e-01	1.69183372e-02	2.38448206e-04
2.71000000e-01	1.71566947e-02	2.41023494e-04
2.71500000e-01	1.70218342e-02	2.38867018e-04
2.72000000e-01	1.73264152e-02	2.42383467e-04
2.72500000e-01	1.71853389e-02	2.40061486e-04
2.73000000e-01	1.72228358e-02	2.40793642e-04
2.73500000e-01	1.69193454e-02	2.36301709e-04
2.74000000e-01	1.71311400e-02	2.38834289e-04
2.74500000e-01	1.73552493e-02	2.41668393e-04
2.75000000e-01	1.72624867e-02	2.40248751e-04
2.75500000e-01	1.68648505e-02	2.35101057e-04
2.76000000e-01	1.71018342e-02	2.37380184e-04
2.76500000e-01	1.69210556e-02	2.35789458e-04
2.77000000e-01	1.69767482e-02	2.35974120e-04
2.77500000e-01	1.71202190e-02	2.38549467e-04
2.78000000e-01	1.70477460e-02	2.36026862e-04
2.78500000e-01	1.72753225e-02	2.38807013e-04
2.79000000e-01	1.71680185e-02	2.38151960e-04
2.79500000e-01	1.69409098e-02	2.34450557e-04
2.80000000e-01	1.71289794e-02	2.37045909e-04
2.80500000e-01	1.72136238e-02	2.36709879e-04
2.81000000e-01	1.70011248e-02	2.35140890e-04
2.81500000e-01	1.70422723e-02	2.34981489e-04
2.82000000e-01	1.71116888e-02	2.35440993e-04
2.82500000e-01	1.71221865e-02	2.36073427e-04
2.83000000e-01	1.67587345e-02	2.31260772e-04
2.83500000e-01	1.68923884e-02	2.32146807e-04
2.84000000e-01	1.68746361e-02	2.32067953e-04
2.84500000e-01	1.69289109e-02	2.32341483e-04
2.85000000e-01	1.68479608e-02	2.31144674e-04
2.85500000e-01	1.68236843e-02	2.30146836e-04
2.86000000e-01	1.67032850e-02	2.29207516e-04
2.86500000e-01	1.69139860e-02	2.31378055e-04
2.87000000e-01	1.67577895e-02	2.29298949e-04
2.87500000e-01	1.67097904e-02	2.27623005e-04
2.88000000e-01	1.67896217e-02	2.28240395e-04
2.88500000e-01	1.70708342e-02	2.32597547e-04
2.89000000e-01	1.69499995e-02	2.30107965e-04
2.89500000e-01	1.71264563e-02	2.31816739e-04
2.90000000e-01	1.69430502e-02	2.30036505e-04
2.90500000e-01	1.67848925e-02	2.28955323e-04
2.91000000e-01	1.67646965e-02	2.26455127e-04
2.91500000e-01	1.68906920e-02	2.27603262e-04
2.92000000e-01	1.66529638e-02	2.25108996e-04
2.92500000e-01	1.67970742e-02	2.26562614e-04
2.93000000e-01	1.69447528e-02	2.28458995e-04
2.93500000e-01	1.67459709e-02	2.26277692e-04
2.94000000e-01	1.69964899e-02	2.28434112e-04
2.94500000e-01	1.67166856e-02	2.25057030e-04
2.95000000e-01	1.66869180e-02	2.23731783e-04
2.95500000e-01	1.68859428e-02	2.27169605e-04
2.96000000e-01	1.69095014e-02	2.26953857e-04
2.96500000e-01	1.66350713e-02	2.23025408e-04
2.97000000e-01	1.68298180e-02	2.26089134e-04
2.97500000e-01	1.68732207e-02	2.25295000e-04
2.98000000e-01	1.68594501e-02	2.25544447e-04
2.98500000e-01	1.69219066e-02	2.26913476e-04
2.99000000e-01	1.68476731e-02	2.25388662e-04
2.99500000e-01	1.67085182e-02	2.24022650e-04
3.00000000e-01	1.68815233e-02	2.24721178e-04
3.00500000e-01	1.67326453e-02	2.23601473e-04
3.01000000e-01	1.66955126e-02	2.21984445e-04
3.01500000e-01	1.66434469e-02	2.22326569e-04
3.02000000e-01	1.66477071e-02	2.21504132e-04
3.02500000e-01	1.67165486e-02	2.22040120e-04
3.03000000e-01	1.66094887e-02	2.20883589e-04
3.03500000e-01	1.65848009e-02	2.20214395e-04
3.04000000e-01	1.64596277e-02	2.19043256e-04
3.04500000e-01	1.67299879e-02	2.21408962e-04
3.05000000e-01	1.65917878e-02	2.20369901e-04
3.05500000e-01	1.65115934e-02	2.18128720e-04
3.06000000e-01	1.67995292e-02	2.21118327e-04
3.06500000e-01	1.67445842e-02	2.20923673e-04
3.07000000e-01	1.66375878e-02	2.18776636e-04
3.07500000e-01	1.67748296e-02	2.20945708e-04
3.08000000e-01	1.65135033e-02	2.17289341e-04
3.08500000e-01	1.65279187e-02	2.17239674e-04
3.09000000e-01	1.63578247e-02	2.15118678e-04
3.09500000e-01	1.65019232e-02	2.17321052e-04
3.10000000e-01	1.67269077e-02	2.19700721e-04
3.10500000e-01	1.65005740e-02	2.16307561e-04
3.11000000e-01	1.64537480e-02	2.16306800e-04
3.11500000e-01	1.64750280e-02	2.15517644e-04
3.12000000e-01	1.65288654e-02	2.16308074e-04
3.12500000e-01	1.65629458e-02	2.16065323e-04
3.13000000e-01	1.65053021e-02	2.15945026e-04
3.13500000e-01	1.63153180e-02	2.13457039e-04
3.14000000e-01	1.63542889e-02	2.13978246e-04
3.14500000e-01	1.65953280e-02	2.15290348e-04
3.15000000e-01	1.65679955e-02	2.15869951e-04
3.15500000e-01	1.64004798e-02	2.13510796e-04
3.16000000e-01	1.63572494e-02	2.13185750e-04
3.16500000e-01	1.64846472e-02	2.14431989e-04
3.17000000e-01	1.64770794e-02	2.14426799e-04
3.17500000e-01	1.64341472e-02	2.14325833e-04
3.18000000e-01	1.64814668e-02	2.13339121e-04
3.18500000e-01	1.65457957e-02	2.13823787e-04
3.19000000e-01	1.65085257e-02	2.13484987e-04
3.19500000e-01	1.66583660e-02	2.14369138e-04
3.20000000e-01	1.65218830e-02	2.13562780e-04
3.20500000e-01	1.63408955e-02	2.11119688e-04
3.21000000e-01	1.63856647e-02	2.11104958e-04
3.21500000e-01	1.61359256e-02	2.08096003e-04
3.22000000e-01	1.62445273e-02	2.09602977e-04
3.22500000e-01	1.60591224e-02	2.07531519e-04
3.23000000e-01	1.64716079e-02	2.12343823e-04
3.23500000e-01	1.63263145e-02	2.10535480e-04
3.24000000e-01	1.62216263e-02	2.08569291e-04
3.24500000e-01	1.63826868e-02	2.09759167e-04
3.25000000e-01	1.63213949e-02	2.09671724e-04
3.25500000e-01	1.64191226e-02	2.10251006e-04
3.26000000e-01	1.61543318e-02	2.07453615e-04
3.26500000e-01	1.63836177e-02	2.09432542e-04
3.27000000e-01	1.62884667e-02	2.07992660e-04
3.27500000e-01	1.63193961e-02	2.08537283e-04
3.28000000e-01	1.63000898e-02	2.08006805e-04
3.28500000e-01	1.61593924e-02	2.07081123e-04
3.29000000e-01	1.60270478e-02	2.04541536e-04
3.29500000e-01	1.62150362e-02	2.06517819e-04
3.30000000e-01	1.60198562e-02	2.04482806e-04
3.30500000e-01	1.63062239e-02	2.07599802e-04
3.31000000e-01	1.61267827e-02	2.04606829e-04
3.31500000e-01	1.63123450e-02	2.06828913e-04
3.32000000e-01	1.61615275e-02	2.05740130e-04
3.32500000e-01	1.62190588e-02	2.06214141e-04
3.33000000e-01	1.62713115e-02	2.06205998e-04
3.33500000e-01	1.64039049e-02	2.07899337e-04
3.34000000e-01	1.60693898e-02	2.03414899e-04
3.34500000e-01	1.61025830e-02	2.03809193e-04
3.35000000e-01	1.61421016e-02	2.04297897e-04
3.35500000e-01	1.60784441e-02	2.03468375e-04
3.36000000e-01	1.60957026e-02	2.03713836e-04
3.36500000e-01	1.60211597e-02	2.02137699e-04
3.37000000e-01	1.59325466e-02	2.01078588e-04
3.37500000e-01	1.60352405e-02	2.02044789e-04
3.38000000e-01	1.62053841e-02	2.04837388e-04
3.38500000e-01	1.60178323e-02	2.01337136e-04
3.39000000e-01	1.62529823e-02	2.04433226e-04
3.39500000e-01	1.60366300e-02	2.01322247e-04
3.40000000e-01	1.62686907e-02	2.03992221e-04
3.40500000e-01	1.61126912e-02	2.01832468e-04
3.41000000e-01	1.61628729e-02	2.02669529e-04
3.41500000e-01	1.60170559e-02	2.01679212e-04
3.42000000e-01	1.58607356e-02	1.98819461e-04
3.42500000e-01	1.60448713e-02	2.01180109e-04
3.43000000e-01	1.58244061e-02	1.98216287e-04
3.43500000e-01	1.58710377e-02	1.98377555e-04
3.44000000e-01	1.60553385e-02	2.01398032e-04
3.44500000e-01	1.60853881e-02	2.00856922e-04
3.45000000e-01	1.58573773e-02	1.98091128e-04
3.45500000e-01	1.60340092e-02	1.99259394e-04
3.46000000e-01	1.58136370e-02	1.97264471e-04
3.46500000e-01	1.58767982e-02	1.97323779e-04
3.47000000e-01	1.59577080e-02	1.98481376e-04
3.47500000e-01	1.58187842e-02	1.97016173e-04
3.48000000e-01	1.58073815e-02	1.96485975e-04
3.48500000e-01	1.59371757e-02	1.97960352e-04
3.49000000e-01	1.58313259e-02	1.95880554e-04
3.49500000e-01	1.56979807e-02	1.95350082e-04
3.50000000e-01	1.59027967e-02	1.60773059e-04
3.51000000e-01	1.58980928e-02	1.39137891e-04
3.52000000e-01	1.58783175e-02	1.38597213e-04
3.53000000e-01	1.57634481e-02	1.37118541e-04
3.54000000e-01	1.58137044e-02	1.37504099e-04
3.55000000e-01	1.58071309e-02	1.37311759e-04
3.56000000e-01	1.57211840e-02	1.37947045e-04
3.57000000e-01	1.55801996e-02	1.38361954e-04
3.58000000e-01	1.56485240e-02	1.40609740e-04
3.59000000e-01	1.57478430e-02	1.42133973e-04
3.60000000e-01	1.55941361e-02	1.41836640e-04
3.61000000e-01	1.56063527e-02	1.42691662e-04
3.62000000e-01	1.57100915e-02	1.44608422e-04
3.63000000e-01	1.55738561e-02	1.43299254e-04
3.64000000e-01	1.56057711e-02	1.44405596e-04
3.65000000e-01	1.54690247e-02	1.43289627e-04
3.66000000e-01	1.56605054e-02	1.43428835e-04
3.67000000e-01	1.55569847e-02	1.40669186e-04
3.68000000e-01	1.56102866e-02	1.40212488e-04
3.69000000e-01	1.53638404e-02	1.37510355e-04
3.70000000e-01	1.55371948e-02	1.37908690e-04
3.71000000e-01	1.55724503e-02	1.40272721e-04
3.72000000e-01	1.56580404e-02	1.41933184e-04
3.73000000e-01	1.54222005e-02	1.40125930e-04
3.74000000e-01	1.54958236e-02	1.40667511e-04
3.75000000e-01	1.54741735e-02	1.41033826e-04
3.76000000e-01	1.53902854e-02	1.39742010e-04
3.77000000e-01	1.55073925e-02	1.40989612e-04
3.78000000e-01	1.54906529e-02	1.40717476e-04
3.79000000e-01	1.54758786e-02	1.40372755e-04
3.80000000e-01	1.54141848e-02	1.40091970e-04
3.81000000e-01	1.52514896e-02	1.38683970e-04
3.82000000e-01	1.53565938e-02	1.39412977e-04
3.83000000e-01	1.53644172e-02	1.39250439e-04
3.84000000e-01	1.53816035e-02	1.39530425e-04
3.85000000e-01	1.51247029e-02	1.37600351e-04
3.86000000e-01	1.52184450e-02	1.38000646e-04
3.87000000e-01	1.53333810e-02	1.38676662e-04
3.88000000e-01	1.53347295e-02	1.38963480e-04
3.89000000e-01	1.52842301e-02	1.38548757e-04
3.90000000e-01	1.52973149e-02	1.38464879e-04
3.91000000e-01	1.51292063e-02	1.37124473e-04
3.92000000e-01	1.52157513e-02	1.38018272e-04
3.93000000e-01	1.52394513e-02	1.37591824e-04
3.94000000e-01	1.50671680e-02	1.36512130e-04
3.95000000e-01	1.51797133e-02	1.37133774e-04
3.96000000e-01	1.52914248e-02	1.38039818e-04
3.97000000e-01	1.51018426e-02	1.36467951e-04
3.98000000e-01	1.50395440e-02	1.36494969e-04
3.99000000e-01	1.52383095e-02	1.37781536e-04
4.00000000e-01	1.51185183e-02	1.36774614e-04
4.01000000e-01	1.51820118e-02	1.37443228e-04
4.02000000e-01	1.51334471e-02	1.36715019e-04
4.03000000e-01	1.50830417e-02	1.36719424e-04
4.04000000e-01	1.51288198e-02	1.36781662e-04
4.05000000e-01	1.51498887e-02	1.37163406e-04
4.06000000e-01	1.49954115e-02	1.35618569e-04
4.07000000e-01	1.50073209e-02	1.35535344e-04
4.08000000e-01	1.51496758e-02	1.36448908e-04
4.09000000e-01	1.49514281e-02	1.34809102e-04
4.10000000e-01	1.49542929e-02	1.34593224e-04
4.11000000e-01	1.50667423e-02	1.35622364e-04
4.12000000e-01	1.49451072e-02	1.34786406e-04
4.13000000e-01	1.48529356e-02	1.34053338e-04
4.14000000e-01	1.49330646e-02	1.34558778e-04
4.15000000e-01	1.50438863e-02	1.35405298e-04
4.16000000e-01	1.50747958e-02	1.35420703e-04
4.17000000e-01	1.48567617e-02	1.33789095e-04
4.18000000e-01	1.50470880e-02	1.36708242e-04
4.19000000e-01	1.49748696e-02	1.38036920e-04
4.20000000e-01	1.50557130e-02	1.39167801e-04
4.21000000e-01	1.50317062e-02	1.39777035e-04
4.22000000e-01	1.50667356e-02	1.40523285e-04
4.23000000e-01	1.49962213e-02	1.40568657e-04
4.24000000e-01	1.49138109e-02	1.39952973e-04
4.25000000e-01	1.50438687e-02	1.41380730e-04
4.26000000e-01	1.49978706e-02	1.41145133e-04
4.27000000e-01	1.49191560e-02	1.40280299e-04
4.28000000e-01	1.49334040e-02	1.40635247e-04
4.29000000e-01	1.49725542e-02	1.41621294e-04
4.30000000e-01	1.50721468e-02	1.42018269e-04
4.31000000e-01	1.48982757e-02	1.39860898e-04
4.32000000e-01	1.49217149e-02	1.40551740e-04
4.33000000e-01	1.48696075e-02	1.40270719e-04
4.34000000e-01	1.48038531e-02	1.40009451e-04
4.35000000e-01	1.48936093e-02	1.41162019e-04
4.36000000e-01	1.48174233e-02	1.40613760e-04
4.37000000e-01	1.48376415e-02	1.40796562e-04
4.38000000e-01	1.47709221e-02	1.40405351e-04
4.39000000e-01	1.47162387e-02	1.40456515e-04
4.40000000e-01	1.47273787e-02	1.40451220e-04
4.41000000e-01	1.48889435e-02	1.41879206e-04
4.42000000e-01	1.47569367e-02	1.40876092e-04
4.43000000e-01	1.48097964e-02	1.41842152e-04
4.44000000e-01	1.48021239e-02	1.41597481e-04
4.45000000e-01	1.47236631e-02	1.41604739e-04
4.46000000e-01	1.47186545e-02	1.41131584e-04
4.47000000e-01	1.46468810e-02	1.40762784e-04
4.48000000e-01	1.47622628e-02	1.41827766e-04
4.49000000e-01	1.47619141e-02	1.41836133e-04
4.50000000e-01	1.48210448e-02	1.42918450e-04
4.51000000e-01	1.46740367e-02	1.41388261e-04
4.52000000e-01	1.45600260e-02	1.40810386e-04
4.53000000e-01	1.45335525e-02	1.40793108e-04
4.54000000e-01	1.47552609e-02	1.42450019e-04
4.55000000e-01	1.45682977e-02	1.41270069e-04
4.56000000e-01	1.46177298e-02	1.41870449e-04
4.57000000e-01	1.46119547e-02	1.41813624e-04
4.58000000e-01	1.45983131e-02	1.41565845e-04
4.59000000e-01	1.44797643e-02	1.41086883e-04
4.60000000e-01	1.45062880e-02	1.40791608e-04
4.61000000e-01	1.47432522e-02	1.43396292e-04
4.62000000e-01	1.45977111e-02	1.42125344e-04
4.63000000e-01	1.46265676e-02	1.42832716e-04
4.64000000e-01	1.45727416e-02	1.42071077e-04
4.65000000e-01	1.44922209e-02	1.41888569e-04
4.66000000e-01	1.45455645e-02	1.41974857e-04
4.67000000e-01	1.46066762e-02	1.42719856e-04
4.68000000e-01	1.44371098e-02	1.41040693e-04
4.69000000e-01	1.45332353e-02	1.42189518e-04
4.70000000e-01	1.45446618e-02	1.42306231e-04
4.71000000e-01	1.44216920e-02	1.41313965e-04
4.72000000e-01	1.45205910e-02	1.42390754e-04
4.73000000e-01	1.44095839e-02	1.41079337e-04
4.74000000e-01	1.44511721e-02	1.41267564e-04
4.75000000e-01	1.42651454e-02	1.39357862e-04
4.76000000e-01	1.43757539e-02	1.40629576e-04
4.77000000e-01	1.43857768e-02	1.40922884e-04
4.78000000e-01	1.43384011e-02	1.40667254e-04
4.79000000e-01	1.43409212e-02	1.40384362e-04
4.80000000e-01	1.43208816e-02	1.40484807e-04
4.81000000e-01	1.44809674e-02	1.41667485e-04
4.82000000e-01	1.44400891e-02	1.41787376e-04
4.83000000e-01	1.44054667e-02	1.41514424e-04
4.84000000e-01	1.43388388e-02	1.40845980e-04
4.85000000e-01	1.43078906e-02	1.40668909e-04
4.86000000e-01	1.43016318e-02	1.40444735e-04
4.87000000e-01	1.43845718e-02	1.41506883e-04
4.88000000e-01	1.44027173e-02	1.41849062e-04
4.89000000e-01	1.43743168e-02	1.41598344e-04
4.90000000e-01	1.44270170e-02	1.41756318e-04
4.91000000e-01	1.43365666e-02	1.41443904e-04
4.92000000e-01	1.42826723e-02	1.40901339e-04
4.93000000e-01	1.42304738e-02	1.40728691e-04
4.94000000e-01	1.43622590e-02	1.41530098e-04
4.95000000e-01	1.41669822e-02	1.41157771e-04
4.96000000e-01	1.42219714e-02	1.45722008e-04
4.97000000e-01	1.42852452e-02	1.48815360e-04
4.98000000e-01	1.41606564e-02	1.49541359e-04
4.99000000e-01	1.42886337e-02	1.52777877e-04
5.00000000e-01	1.43004635e-02	1.54761620e-04
5.01000000e-01	1.41272325e-02	1.54468006e-04
5.02000000e-01	1.42341360e-02	1.56780306e-04
5.03000000e-01	1.43601603e-02	1.59955625e-04
5.04000000e-01	1.42303860e-02	1.59683857e-04
5.05000000e-01	1.42855758e-02	1.57846200e-04
5.06000000e-01	1.44354998e-02	1.56015894e-04
5.07000000e-01	1.42909833e-02	1.52736677e-04
5.08000000e-01	1.42718675e-02	1.52115430e-04
5.09000000e-01	1.41705823e-02	1.49553979e-04
5.10000000e-01	1.43331720e-02	1.51650016e-04
5.11000000e-01	1.41524371e-02	1.48969701e-04
5.12000000e-01	1.42153157e-02	1.48961346e-04
5.13000000e-01	1.42067960e-02	1.49026605e-04
5.14000000e-01	1.43019640e-02	1.49203863e-04
5.15000000e-01	1.39649176e-02	1.45878124e-04
5.16000000e-01	1.40763872e-02	1.46587772e-04
5.17000000e-01	1.41052471e-02	1.46744089e-04
5.18000000e-01	1.41513134e-02	1.46389691e-04
5.19000000e-01	1.41695480e-02	1.46781823e-04
5.20000000e-01	1.42073658e-02	1.46513983e-04
5.21000000e-01	1.40308228e-02	1.45283679e-04
5.22000000e-01	1.41535696e-02	1.45891251e-04
5.23000000e-01	1.41420140e-02	1.45550379e-04
5.24000000e-01	1.41603089e-02	1.46195836e-04
5.25000000e-01	1.40841634e-02	1.44772731e-04
5.26000000e-01	1.40957537e-02	1.45092911e-04
5.27000000e-01	1.40009647e-02	1.43992494e-04
5.28000000e-01	1.39855039e-02	1.43812525e-04
5.29000000e-01	1.41340165e-02	1.45708236e-04
5.30000000e-01	1.39742910e-02	1.44170451e-04
5.31000000e-01	1.39740748e-02	1.44086568e-04
5.32000000e-01	1.39495266e-02	1.43891885e-04
5.33000000e-01	1.39834186e-02	1.43979146e-04
5.34000000e-01	1.39569447e-02	1.44140774e-04
5.35000000e-01	1.39078885e-02	1.43313926e-04
5.36000000e-01	1.41205144e-02	1.44999345e-04
5.37000000e-01	1.39723182e-02	1.43884398e-04
5.38000000e-01	1.39261811e-02	1.43571323e-04
5.39000000e-01	1.38115418e-02	1.42808702e-04
5.40000000e-01	1.36686051e-02	1.41036377e-04
5.41000000e-01	1.38697076e-02	1.42787282e-04
5.42000000e-01	1.38475416e-02	1.42750523e-04
5.43000000e-01	1.38271692e-02	1.42680477e-04
5.44000000e-01	1.37365448e-02	1.41376332e-04
5.45000000e-01	1.37817247e-02	1.42140375e-04
5.46000000e-01	1.38486879e-02	1.42945799e-04
5.47000000e-01	1.36713822e-02	1.41278160e-04
5.48000000e-01	1.37751870e-02	1.42529398e-04
5.49000000e-01	1.37040229e-02	1.41455820e-04
5.50000000e-01	1.37593530e-02	1.41865336e-04
5.51000000e-01	1.37874583e-02	1.41867437e-04
5.52000000e-01	1.38203974e-02	1.41850506e-04
5.53000000e-01	1.37238142e-02	1.40471077e-04
5.54000000e-01	1.36400306e-02	1.39938633e-04
5.55000000e-01	1.38484471e-02	1.41710163e-04
5.56000000e-01	1.37774210e-02	1.41171693e-04
5.57000000e-01	1.36446789e-02	1.40135091e-04
5.58000000e-01	1.35851445e-02	1.39138221e-04
5.59000000e-01	1.35736977e-02	1.39128910e-04
5.60000000e-01	1.38192471e-02	1.41452374e-04
5.61000000e-01	1.36678335e-02	1.40014806e-04
5.62000000e-01	1.37305309e-02	1.40801337e-04
5.63000000e-01	1.36706877e-02	1.40164155e-04
5.64000000e-01	1.37611274e-02	1.40870550e-04
5.65000000e-01	1.36402335e-02	1.39927641e-04
5.66000000e-01	1.33466962e-02	1.37363292e-04
5.67000000e-01	1.35844518e-02	1.39733650e-04
5.68000000e-01	1.37047267e-02	1.40565217e-04
5.69000000e-01	1.36884696e-02	1.40022558e-04
5.70000000e-01	1.36741175e-02	1.39790275e-04
5.71000000e-01	1.35562921e-02	1.39473372e-04
5.72000000e-01	1.34264228e-02	1.37408861e-04
5.73000000e-01	1.33525847e-02	1.37507109e-04
5.74000000e-01	1.34492047e-02	1.37791456e-04
5.75000000e-01	1.34633666e-02	1.38640554e-04
5.76000000e-01	1.34146329e-02	1.37491248e-04
5.77000000e-01	1.34527370e-02	1.38597541e-04
5.78000000e-01	1.34587133e-02	1.38680872e-04
5.79000000e-01	1.35128227e-02	1.38992744e-04
5.80000000e-01	1.34046381e-02	1.38287188e-04
5.81000000e-01	1.33839866e-02	1.37763925e-04
5.82000000e-01	1.33774352e-02	1.37638093e-04
5.83000000e-01	1.34042472e-02	1.37952719e-04
5.84000000e-01	1.33874995e-02	1.37755718e-04
5.85000000e-01	1.33011516e-02	1.37199504e-04
5.86000000e-01	1.32746934e-02	1.36894768e-04
5.87000000e-01	1.32516164e-02	1.36930188e-04
5.88000000e-01	1.33318711e-02	1.37277699e-04
5.89000000e-01	1.33171414e-02	1.37543191e-04
5.90000000e-01	1.34763959e-02	1.38656387e-04
5.91000000e-01	1.32850359e-02	1.37323802e-04
5.92000000e-01	1.33818406e-02	1.37959556e-04
5.93000000e-01	1.33407866e-02	1.37965115e-04
5.94000000e-01	1.33262812e-02	1.37746993e-04
5.95000000e-01	1.33215307e-02	1.37264851e-04
5.96000000e-01	1.33321738e-02	1.37411307e-04
5.97000000e-01	1.33595984e-02	1.37463327e-04
5.98000000e-01	1.34086963e-02	1.38350050e-04
5.99000000e-01	1.33454615e-02	1.37931079e-04
6.00000000e-01	1.32767862e-02	1.36512855e-04
6.01000000e-01	1.31468497e-02	1.36474103e-04
6.02000000e-01	1.32543114e-02	1.37105342e-04
6.03000000e-01	1.31753388e-02	1.35899410e-04
6.04000000e-01	1.32669810e-02	1.36869387e-04
6.05000000e-01	1.32169492e-02	1.36685459e-04
6.06000000e-01	1.30689791e-02	1.35743805e-04
6.07000000e-01	1.30355590e-02	1.35164198e-04
6.08000000e-01	1.30974663e-02	1.35586893e-04
6.09000000e-01	1.32306719e-02	1.36901976e-04
6.10000000e-01	1.31755472e-02	1.36396608e-04
6.11000000e-01	1.32010579e-02	1.36565517e-04
6.12000000e-01	1.31371503e-02	1.36014895e-04
6.13000000e-01	1.32955677e-02	1.37709652e-04
6.14000000e-01	1.32018956e-02	1.36590983e-04
6.15000000e-01	1.32500182e-02	1.37118732e-04
6.16000000e-01	1.31088995e-02	1.35807581e-04
6.17000000e-01	1.30921685e-02	1.35641313e-04
6.18000000e-01	1.31029742e-02	1.36133922e-04
6.19000000e-01	1.31426340e-02	1.36049665e-04
6.20000000e-01	1.31678738e-02	1.35898037e-04
6.21000000e-01	1.29862407e-02	1.33812259e-04
6.22000000e-01	1.30852938e-02	1.35132868e-04
6.23000000e-01	1.31298405e-02	1.35690899e-04
6.24000000e-01	1.30016636e-02	1.33861232e-04
6.25000000e-01	1.30501711e-02	1.34066920e-04
6.26000000e-01	1.29693258e-02	1.33612175e-04
6.27000000e-01	1.30070841e-02	1.33676881e-04
6.28000000e-01	1.30413602e-02	1.34132163e-04
6.29000000e-01	1.30626053e-02	1.34132327e-04
6.30000000e-01	1.30127305e-02	1.33763876e-04
6.31000000e-01	1.29376235e-02	1.33382504e-04
6.32000000e-01	1.29832916e-02	1.33905734e-04
6.33000000e-01	1.29818984e-02	1.33320977e-04
6.34000000e-01	1.29788420e-02	1.37203792e-04
6.35000000e-01	1.29868779e-02	1.41131491e-04
6.36000000e-01	1.30568131e-02	1.44197728e-04
6.37000000e-01	1.29519647e-02	1.45431124e-04
6.38000000e-01	1.30667992e-02	1.48405763e-04
6.39000000e-01	1.28907101e-02	1.48598968e-04
6.40000000e-01	1.29180776e-02	1.51018216e-04
6.41000000e-01	1.30840646e-02	1.53900203e-04
6.42000000e-01	1.29799255e-02	1.54310142e-04
6.43000000e-01	1.30685949e-02	1.55816250e-04
6.44000000e-01	1.29785184e-02	1.48801593e-04
6.45000000e-01	1.30509987e-02	1.47629371e-04
6.46000000e-01	1.31004336e-02	1.46976360e-04
6.47000000e-01	1.30180737e-02	1.45153348e-04
6.48000000e-01	1.30241740e-02	1.44197812e-04
6.49000000e-01	1.30546390e-02	1.43586655e-04
6.50000000e-01	1.28631273e-02	1.40659227e-04
6.51000000e-01	1.29797343e-02	1.41953274e-04
6.52000000e-01	1.31332435e-02	1.42705205e-04
6.53000000e-01	1.31541566e-02	1.42348110e-04
6.54000000e-01	1.29795091e-02	1.40441210e-04
6.55000000e-01	1.29116076e-02	1.39280205e-04
6.56000000e-01	1.29747913e-02	1.39684832e-04
6.57000000e-01	1.30211427e-02	1.40070193e-04
6.58000000e-01	1.29757036e-02	1.39148075e-04
6.59000000e-01	1.29058789e-02	1.38259635e-04
6.60000000e-01	1.28987771e-02	1.38349485e-04
6.61000000e-01	1.29212562e-02	1.38119952e-04
6.62000000e-01	1.28729550e-02	1.37943839e-04
6.63000000e-01	1.29716529e-02	1.38925630e-04
6.64000000e-01	1.29726403e-02	1.39048268e-04
6.65000000e-01	1.29033332e-02	1.38120302e-04
6.66000000e-01	1.27670376e-02	1.36994537e-04
6.67000000e-01	1.29314882e-02	1.38128031e-04
6.68000000e-01	1.27692466e-02	1.36823643e-04
6.69000000e-01	1.28853281e-02	1.37559037e-04
6.70000000e-01	1.27634686e-02	1.36097628e-04
6.71000000e-01	1.28583784e-02	1.36790810e-04
6.72000000e-01	1.28543699e-02	1.37096662e-04
6.73000000e-01	1.28757739e-02	1.36937409e-04
6.74000000e-01	1.28611123e-02	1.37540238e-04
6.75000000e-01	1.28884320e-02	1.37117232e-04
6.76000000e-01	1.28469241e-02	1.36619762e-04
6.77000000e-01	1.29193645e-02	1.37784806e-04
6.78000000e-01	1.27479934e-02	1.35890649e-04
6.79000000e-01	1.26159711e-02	1.34726710e-04
6.80000000e-01	1.27991006e-02	1.36202245e-04
6.81000000e-01	1.27073752e-02	1.34928352e-04
6.82000000e-01	1.26567023e-02	1.35273104e-04
6.83000000e-01	1.27738240e-02	1.36248294e-04
6.84000000e-01	1.27726060e-02	1.35758194e-04
6.85000000e-01	1.26412939e-02	1.34357025e-04
6.86000000e-01	1.27267891e-02	1.35209603e-04
6.87000000e-01	1.27634135e-02	1.35910464e-04
6.88000000e-01	1.28373395e-02	1.36452752e-04
6.89000000e-01	1.26474174e-02	1.34416127e-04
6.90000000e-01	1.27449974e-02	1.35456950e-04
6.91000000e-01	1.26974434e-02	1.34708581e-04
6.92000000e-01	1.25996867e-02	1.34449682e-04
6.93000000e-01	1.27242812e-02	1.35248446e-04
6.94000000e-01	1.25985577e-02	1.33866743e-04
6.95000000e-01	1.26869831e-02	1.34741872e-04
6.96000000e-01	1.26393217e-02	1.34377305e-04
6.97000000e-01	1.24835115e-02	1.32797757e-04
6.98000000e-01	1.25509978e-02	1.33954767e-04
6.99000000e-01	1.27101652e-02	1.34793053e-04
7.00000000e-01	1.26959200e-02	1.34552406e-04
7.01000000e-01	1.26755230e-02	1.34299359e-04
7.02000000e-01	1.26622853e-02	1.34342693e-04
7.03000000e-01	1.26606077e-02	1.33900304e-04
7.04000000e-01	1.26342644e-02	1.33735626e-04
7.05000000e-01	1.25611614e-02	1.33055719e-04
7.06000000e-01	1.25614676e-02	1.33245839e-04
7.07000000e-01	1.25428709e-02	1.33067053e-04
7.08000000e-01	1.25372206e-02	1.32577832e-04
7.09000000e-01	1.24483308e-02	1.31589368e-04
7.10000000e-01	1.25505891e-02	1.32929279e-04
7.11000000e-01	1.25352490e-02	1.33130568e-04
7.12000000e-01	1.26102751e-02	1.33599074e-04
7.13000000e-01	1.23906322e-02	1.31819644e-04
7.14000000e-01	1.24931716e-02	1.32616490e-04
7.15000000e-01	1.24063339e-02	1.31674863e-04
7.16000000e-01	1.23588854e-02	1.31387236e-04
7.17000000e-01	1.23645869e-02	1.31915550e-04
7.18000000e-01	1.24763882e-02	1.32473669e-04
7.19000000e-01	1.23279215e-02	1.31434159e-04
7.20000000e-01	1.24156161e-02	1.31502907e-04
7.21000000e-01	1.25277537e-02	1.33055651e-04
7.22000000e-01	1.22738824e-02	1.30693285e-04
7.23000000e-01	1.24546150e-02	1.32612784e-04
7.24000000e-01	1.22984385e-02	1.30593600e-04
7.25000000e-01	1.23228227e-02	1.30907582e-04
7.26000000e-01	1.23020304e-02	1.31185254e-04
7.27000000e-01	1.23635812e-02	1.31671147e-04
7.28000000e-01	1.22652275e-02	1.30233691e-04
7.29000000e-01	1.22770612e-02	1.30764576e-04
7.30000000e-01	1.21455027e-02	1.29661256e-04
7.31000000e-01	1.21957539e-02	1.29675427e-04
7.32000000e-01	1.21187163e-02	1.29185229e-04
7.33000000e-01	1.23852686e-02	1.31836289e-04
7.34000000e-01	1.22754251e-02	1.30198817e-04
7.35000000e-01	1.22818024e-02	1.30204352e-04
7.36000000e-01	1.21993999e-02	1.29298116e-04
7.37000000e-01	1.22278726e-02	1.29377802e-04
7.38000000e-01	1.20440916e-02	1.27690772e-04
7.39000000e-01	1.20822647e-02	1.27742387e-04
7.40000000e-01	1.20203741e-02	1.27182822e-04
7.41000000e-01	1.22698723e-02	1.29054029e-04
7.42000000e-01	1.22541872e-02	1.28679517e-04
7.43000000e-01	1.21967822e-02	1.28513878e-04
7.44000000e-01	1.20626622e-02	1.26607570e-04
7.45000000e-01	1.21993389e-02	1.27816239e-04
7.46000000e-01	1.21075979e-02	1.27453010e-04
7.47000000e-01	1.21021878e-02	1.27262368e-04
7.48000000e-01	1.18839361e-02	1.25610988e-04
7.49000000e-01	1.20757194e-02	1.27029380e-04
7.50000000e-01	1.21343892e-02	1.27817862e-04
7.51000000e-01	1.21540137e-02	1.27836022e-04
7.52000000e-01	1.19117885e-02	1.25942592e-04
7.53000000e-01	1.19367100e-02	1.25998356e-04
7.54000000e-01	1.21298924e-02	1.27903592e-04
7.55000000e-01	1.19442411e-02	1.26048562e-04
7.56000000e-01	1.20390605e-02	1.27006835e-04
7.57000000e-01	1.20655335e-02	1.27605992e-04
7.58000000e-01	1.19278120e-02	1.25672337e-04
7.59000000e-01	1.20958458e-02	1.27830169e-04
7.60000000e-01	1.19566593e-02	1.25664791e-04
7.61000000e-01	1.19706025e-02	1.25946707e-04
7.62000000e-01	1.20973635e-02	1.26357258e-04
7.63000000e-01	1.20499569e-02	1.26104308e-04
7.64000000e-01	1.18786477e-02	1.24230853e-04
7.65000000e-01	1.19736112e-02	1.24999670e-04
7.66000000e-01	1.17500068e-02	1.23007333e-04
7.67000000e-01	1.18051594e-02	1.23867895e-04
7.68000000e-01	1.18188169e-02	1.23192475e-04
7.69000000e-01	1.19995322e-02	1.25631822e-04
7.70000000e-01	1.18158495e-02	1.23415063e-04
7.71000000e-01	1.18629755e-02	1.23879623e-04
7.72000000e-01	1.18258571e-02	1.27265926e-04
7.73000000e-01	1.18327956e-02	1.31624478e-04
7.74000000e-01	1.17189143e-02	1.33060067e-04
7.75000000e-01	1.18327963e-02	1.36014821e-04
7.76000000e-01	1.20460270e-02	1.40521879e-04
7.77000000e-01	1.18385902e-02	1.40897380e-04
7.78000000e-01	1.17413739e-02	1.41379421e-04
7.79000000e-01	1.16728752e-02	1.42493907e-04
7.80000000e-01	1.17908505e-02	1.45809199e-04
7.81000000e-01	1.17978192e-02	1.47259735e-04
7.82000000e-01	1.16203946e-02	1.46969018e-04
7.83000000e-01	1.17293806e-02	1.49620240e-04
7.84000000e-01	1.16632246e-02	1.50710977e-04
7.85000000e-01	1.16233315e-02	1.51931822e-04
7.86000000e-01	1.15795470e-02	1.53086437e-04
7.87000000e-01	1.15702641e-02	1.53861470e-04
7.88000000e-01	1.16124472e-02	1.55436534e-04
7.89000000e-01	1.15584342e-02	1.56893124e-04
7.90000000e-01	1.16605931e-02	1.59765282e-04
7.91000000e-01	1.15036698e-02	1.59213903e-04
7.92000000e-01	1.16610797e-02	1.63052638e-04
7.93000000e-01	1.15151845e-02	1.62706195e-04
7.94000000e-01	1.15992261e-02	1.65745177e-04
7.95000000e-01	1.15462847e-02	1.66526541e-04
7.96000000e-01	1.14466613e-02	1.67068469e-04
7.97000000e-01	1.15316784e-02	1.69528717e-04
7.98000000e-01	1.15273195e-02	1.71759424e-04
7.99000000e-01	1.15430000e-02	1.72753512e-04
8.00000000e-01	1.15701578e-02	1.76126711e-04
8.01000000e-01	1.14542089e-02	1.76497501e-04
8.02000000e-01	1.14377270e-02	1.77501839e-04
8.03000000e-01	1.13598969e-02	1.78445361e-04
8.04000000e-01	1.15402497e-02	1.82920403e-04
8.05000000e-01	1.13684742e-02	1.81972198e-04
8.06000000e-01	1.13001562e-02	1.83438308e-04
8.07000000e-01	1.13760028e-02	1.87120862e-04
8.08000000e-01	1.13636654e-02	1.89304217e-04
8.09000000e-01	1.13354243e-02	1.90176484e-04
8.10000000e-01	1.12971477e-02	1.91059711e-04
8.11000000e-01	1.14203725e-02	1.95076200e-04
8.12000000e-01	1.13095066e-02	1.95419304e-04
8.13000000e-01	1.14801148e-02	2.01827079e-04
8.14000000e-01	1.13401327e-02	2.01458621e-04
8.15000000e-01	1.12894481e-02	2.02302564e-04
8.16000000e-01	1.12286834e-02	2.03718824e-04
8.17000000e-01	1.12762222e-02	2.07949475e-04
8.18000000e-01	1.12671114e-02	2.09499853e-04
8.19000000e-01	1.13177493e-02	2.13504070e-04
8.20000000e-01	1.10152713e-02	2.11280114e-04
8.21000000e-01	1.12727804e-02	2.18190607e-04
8.22000000e-01	1.11200646e-02	2.18585684e-04
8.23000000e-01	1.09202165e-02	2.18753979e-04
8.24000000e-01	1.13179354e-02	2.28185195e-04
8.25000000e-01	1.10296329e-02	2.26288660e-04
8.26000000e-01	1.10735217e-02	2.30059393e-04
8.27000000e-01	1.13229677e-02	2.37234164e-04
8.28000000e-01	1.11327143e-02	2.37696341e-04
8.29000000e-01	1.11075023e-02	2.39497083e-04
8.30000000e-01	1.09322207e-02	2.40408214e-04
8.31000000e-01	1.12062320e-02	2.49364338e-04
8.32000000e-01	1.13125299e-02	2.56979868e-04
8.33000000e-01	1.11236293e-02	2.58227797e-04
8.34000000e-01	1.08512752e-02	2.55664408e-04
8.35000000e-01	1.09820739e-02	2.63890359e-04
8.36000000e-01	1.07876652e-02	2.63740589e-04
8.37000000e-01	1.07356141e-02	2.70071040e-04
8.38000000e-01	1.08875352e-02	2.79374437e-04
8.39000000e-01	1.08453918e-02	2.82564253e-04
8.40000000e-01	1.06984936e-02	2.82841580e-04
8.41000000e-01	1.09445998e-02	2.96709030e-04
8.42000000e-01	1.09253381e-02	3.04589771e-04
8.43000000e-01	1.07137075e-02	3.05510021e-04
8.44000000e-01	1.10742802e-02	3.22062737e-04
8.45000000e-01	1.08264574e-02	3.22724044e-04
8.46000000e-01	1.11551585e-02	3.41873540e-04
8.47000000e-01	1.10552429e-02	3.49624525e-04
8.48000000e-01	1.06898426e-02	3.44773704e-04
8.49000000e-01	1.08092120e-02	3.62759073e-04
8.50000000e-01	1.09981317e-02	3.77259471e-04
8.51000000e-01	1.07428004e-02	3.89380418e-04
8.52000000e-01	1.08655601e-02	4.05934995e-04
8.53000000e-01	1.03619644e-02	4.05798317e-04
8.54000000e-01	1.06352569e-02	4.38838955e-04
8.55000000e-01	1.05600488e-02	4.53776166e-04
8.56000000e-01	1.08661161e-02	4.71077452e-04
8.57000000e-01	1.10237859e-02	4.89936439e-04
8.58000000e-01	1.07720126e-02	5.01613721e-04
8.59000000e-01	1.00775656e-02	4.79714050e-04
8.60000000e-01	1.04434185e-02	5.10045065e-04
8.61000000e-01	1.03219303e-02	5.21481671e-04
8.62000000e-01	1.05074702e-02	5.61727063e-04
8.63000000e-01	1.06173971e-02	5.73744597e-04
8.64000000e-01	9.94074598e-03	5.81166252e-04
8.65000000e-01	1.04475412e-02	6.30673007e-04
8.66000000e-01	1.06009292e-02	6.78101366e-04
8.67000000e-01	1.07172237e-02	7.13862040e-04
8.68000000e-01	1.03221996e-02	7.41754798e-04
8.69000000e-01	1.01647838e-02	7.88279789e-04
8.70000000e-01	9.85489196e-03	8.34842337e-04
8.71000000e-01	1.09027420e-02	1.01711086e-03
8.72000000e-01	1.06129868e-02	1.09659190e-03
8.73000000e-01	1.06816206e-02	1.35230745e-03
8.74000000e-01	1.08849352e-02	1.66163495e-03
8.75000000e-01	9.62936595e-03	3.10492225e-03
