% Filename : SDL5_p7_00023_00034.h5
% Date & Time : 30-Oct-2025 16:53:52
% X-ray Energy (keV) : 13.30001
% Exposure Time (s) : 0.500
% Beam Center : 1461.24000, 208.98300
% Sample to Detector Distance (SDD) (mm) : 1990.750
% Detector Pixel Size (mm) : 0.075
% Photodiode Value : 141139.000
% I0 of Sample : 0
% I0 of Standard : 1
% 
% q(A^-1)   I(q)    I(q)_SE
0.00000000e+00	7.68039577e-03	4.04792612e-03
2.50000000e-04	0.00000000e+00	0.00000000e+00
5.00000000e-04	0.00000000e+00	0.00000000e+00
7.50000000e-04	0.00000000e+00	0.00000000e+00
1.00000000e-03	0.00000000e+00	0.00000000e+00
1.25000000e-03	0.00000000e+00	0.00000000e+00
1.50000000e-03	0.00000000e+00	0.00000000e+00
1.75000000e-03	0.00000000e+00	0.00000000e+00
2.00000000e-03	0.00000000e+00	0.00000000e+00
2.25000000e-03	0.00000000e+00	0.00000000e+00
2.50000000e-03	0.00000000e+00	0.00000000e+00
2.75000000e-03	0.00000000e+00	0.00000000e+00
3.00000000e-03	0.00000000e+00	0.00000000e+00
3.25000000e-03	4.63296289e+01	2.71871075e+01
3.50000000e-03	3.80029491e+01	8.97777583e+00
3.75000000e-03	3.11709591e+01	6.11777100e+00
4.00000000e-03	2.58902178e+01	4.65668676e+00
4.25000000e-03	1.88169676e+01	2.78093301e+00
4.50000000e-03	3.59344427e+01	7.69526693e+00
4.75000000e-03	3.74261276e+01	7.49516496e+00
5.00000000e-03	2.84826761e+01	5.38972332e+00
5.25000000e-03	2.28950871e+01	4.15406149e+00
5.50000000e-03	1.82447468e+01	3.21234191e+00
5.75000000e-03	1.53525349e+01	2.59990605e+00
6.00000000e-03	1.21909980e+01	1.95974789e+00
6.25000000e-03	1.03434397e+01	1.63683678e+00
6.50000000e-03	8.50795084e+00	1.29452605e+00
6.75000000e-03	7.16467885e+00	1.06756683e+00
7.00000000e-03	6.25408663e+00	8.86952337e-01
7.25000000e-03	5.24696501e+00	7.20907890e-01
7.50000000e-03	4.35424995e+00	5.89473495e-01
7.75000000e-03	3.91343386e+00	5.24668139e-01
8.00000000e-03	3.48927209e+00	4.54946048e-01
8.25000000e-03	2.98883307e+00	3.75612921e-01
8.50000000e-03	2.69766338e+00	3.26116153e-01
8.75000000e-03	2.39733585e+00	2.89647371e-01
9.00000000e-03	2.09689351e+00	2.48854759e-01
9.25000000e-03	1.85237198e+00	2.14078302e-01
9.50000000e-03	1.64230957e+00	1.83111268e-01
9.75000000e-03	1.47415133e+00	1.60655983e-01
1.00000000e-02	1.30083910e+00	1.40060807e-01
1.02500000e-02	1.22296976e+00	1.33524116e-01
1.05000000e-02	1.11586321e+00	1.14028894e-01
1.07500000e-02	9.84712894e-01	1.01479349e-01
1.10000000e-02	9.03259305e-01	8.88497116e-02
1.12500000e-02	8.17265386e-01	8.17197707e-02
1.15000000e-02	7.59697355e-01	7.46421383e-02
1.17500000e-02	6.87205929e-01	6.53415459e-02
1.20000000e-02	6.47694523e-01	6.19872336e-02
1.22500000e-02	5.95417052e-01	5.41582859e-02
1.25000000e-02	5.56278531e-01	5.07599633e-02
1.27500000e-02	5.18521103e-01	4.64463814e-02
1.30000000e-02	4.78163984e-01	4.13300985e-02
1.32500000e-02	4.37120825e-01	3.74262132e-02
1.35000000e-02	4.14263881e-01	3.51764578e-02
1.37500000e-02	3.82322388e-01	3.21462817e-02
1.40000000e-02	3.48107682e-01	2.87019993e-02
1.42500000e-02	3.31185366e-01	2.69886018e-02
1.45000000e-02	3.12547481e-01	2.49648831e-02
1.47500000e-02	2.98196439e-01	2.35379463e-02
1.50000000e-02	2.74788821e-01	2.14088486e-02
1.52500000e-02	2.57996453e-01	1.97052216e-02
1.55000000e-02	2.45144710e-01	1.83216859e-02
1.57500000e-02	2.29573069e-01	1.72011518e-02
1.60000000e-02	2.18406454e-01	1.59798593e-02
1.62500000e-02	2.05978103e-01	1.50209093e-02
1.65000000e-02	1.93055740e-01	1.38810482e-02
1.67500000e-02	1.86898627e-01	1.27859444e-02
1.70000000e-02	1.78079018e-01	1.21496046e-02
1.72500000e-02	1.69675446e-01	1.16424177e-02
1.75000000e-02	1.64932790e-01	1.11875426e-02
1.77500000e-02	1.52456858e-01	1.00981850e-02
1.80000000e-02	1.48359211e-01	9.76549578e-03
1.82500000e-02	1.38193509e-01	8.85257233e-03
1.85000000e-02	1.36198188e-01	8.91118845e-03
1.87500000e-02	1.29927705e-01	8.17903443e-03
1.90000000e-02	1.22075541e-01	7.86348712e-03
1.92500000e-02	1.19223758e-01	7.29688499e-03
1.95000000e-02	1.12558434e-01	6.76926681e-03
1.97500000e-02	1.10032086e-01	6.74576318e-03
2.00000000e-02	1.05324631e-01	6.31482938e-03
2.02500000e-02	1.03894183e-01	6.21856068e-03
2.05000000e-02	9.97470507e-02	5.75672245e-03
2.07500000e-02	9.65824552e-02	5.60925238e-03
2.10000000e-02	9.22267901e-02	5.38677055e-03
2.12500000e-02	9.20124008e-02	5.26419273e-03
2.15000000e-02	8.83893496e-02	4.98127049e-03
2.17500000e-02	8.63535280e-02	4.95016989e-03
2.20000000e-02	8.74645613e-02	4.94048914e-03
2.22500000e-02	8.26481164e-02	4.64075112e-03
2.25000000e-02	8.01787298e-02	4.61686158e-03
2.27500000e-02	7.91421202e-02	4.44204082e-03
2.30000000e-02	7.70910946e-02	4.26680692e-03
2.32500000e-02	7.27651276e-02	4.02952023e-03
2.35000000e-02	7.28488913e-02	4.03168438e-03
2.37500000e-02	7.11667738e-02	3.91710586e-03
2.40000000e-02	7.04224629e-02	3.84024145e-03
2.42500000e-02	6.69007203e-02	3.66059653e-03
2.45000000e-02	6.67780796e-02	3.68529684e-03
2.47500000e-02	6.37163474e-02	3.42451575e-03
2.50000000e-02	6.18331773e-02	3.36282971e-03
2.52500000e-02	6.32456123e-02	3.38607603e-03
2.55000000e-02	6.14917189e-02	3.20987169e-03
2.57500000e-02	5.84273342e-02	3.07411130e-03
2.60000000e-02	5.87152942e-02	3.03502286e-03
2.62500000e-02	5.66947518e-02	3.02503722e-03
2.65000000e-02	5.53081114e-02	2.92023812e-03
2.67500000e-02	5.48434281e-02	2.80751496e-03
2.70000000e-02	5.42073343e-02	2.83036483e-03
2.72500000e-02	5.39850471e-02	2.77209556e-03
2.75000000e-02	5.20551511e-02	2.66420512e-03
2.77500000e-02	5.10459809e-02	2.65005186e-03
2.80000000e-02	5.01478346e-02	2.51625516e-03
2.82500000e-02	4.89787359e-02	2.46191641e-03
2.85000000e-02	4.89255327e-02	2.45542572e-03
2.87500000e-02	4.76703476e-02	2.37403400e-03
2.90000000e-02	4.92152880e-02	2.47135925e-03
2.92500000e-02	4.66830983e-02	2.25181759e-03
2.95000000e-02	4.74860012e-02	2.34433052e-03
2.97500000e-02	4.61088158e-02	2.24231496e-03
3.00000000e-02	4.48057833e-02	2.21448710e-03
3.02500000e-02	4.51440721e-02	2.21452851e-03
3.05000000e-02	4.44622317e-02	2.11391865e-03
3.07500000e-02	4.36136366e-02	2.07311360e-03
3.10000000e-02	4.36184834e-02	2.07947344e-03
3.12500000e-02	4.11120000e-02	1.99895064e-03
3.15000000e-02	4.09092731e-02	1.93769895e-03
3.17500000e-02	3.96906922e-02	1.86474721e-03
3.20000000e-02	4.08029793e-02	1.93004996e-03
3.22500000e-02	4.00353300e-02	1.88598987e-03
3.25000000e-02	3.94760218e-02	1.89126130e-03
3.27500000e-02	3.87986661e-02	1.82575843e-03
3.30000000e-02	3.85947834e-02	1.78520246e-03
3.32500000e-02	3.79517848e-02	1.74912076e-03
3.35000000e-02	3.78542465e-02	1.77796524e-03
3.37500000e-02	3.73191516e-02	1.72096138e-03
3.40000000e-02	3.61599337e-02	1.67523846e-03
3.42500000e-02	3.52925800e-02	1.62264035e-03
3.45000000e-02	3.56959155e-02	1.65297258e-03
3.47500000e-02	3.59429484e-02	1.63165535e-03
3.50000000e-02	3.62604928e-02	1.65736403e-03
3.52500000e-02	3.56686809e-02	1.62166149e-03
3.55000000e-02	3.47221744e-02	1.55510567e-03
3.57500000e-02	3.50628708e-02	1.61091402e-03
3.60000000e-02	3.47938676e-02	1.55797940e-03
3.62500000e-02	3.40117899e-02	1.52343333e-03
3.65000000e-02	3.30042273e-02	1.47727923e-03
3.67500000e-02	3.31822981e-02	1.48163259e-03
3.70000000e-02	3.21014267e-02	1.44236731e-03
3.72500000e-02	3.17088155e-02	1.40650003e-03
3.75000000e-02	3.25878322e-02	1.46139581e-03
3.77500000e-02	3.24769547e-02	1.43786608e-03
3.80000000e-02	3.24527547e-02	1.42793830e-03
3.82500000e-02	3.13880424e-02	1.36965513e-03
3.85000000e-02	3.21830800e-02	1.42857788e-03
3.87500000e-02	3.08632611e-02	1.33654126e-03
3.90000000e-02	3.11349028e-02	1.35875118e-03
3.92500000e-02	3.03629924e-02	1.31418382e-03
3.95000000e-02	3.02110196e-02	1.31884438e-03
3.97500000e-02	2.99293880e-02	1.31111432e-03
4.00000000e-02	3.05264760e-02	1.32879020e-03
4.02500000e-02	2.93491637e-02	1.26969787e-03
4.05000000e-02	2.92147166e-02	1.25153534e-03
4.07500000e-02	2.95463044e-02	1.25354361e-03
4.10000000e-02	2.92397602e-02	1.26152241e-03
4.12500000e-02	2.93839303e-02	1.25063674e-03
4.15000000e-02	3.01768295e-02	1.28331178e-03
4.17500000e-02	2.87386761e-02	1.21828298e-03
4.20000000e-02	2.89782050e-02	1.22017972e-03
4.22500000e-02	2.85667236e-02	1.19070629e-03
4.25000000e-02	2.87235225e-02	1.21254340e-03
4.27500000e-02	2.85696072e-02	1.19887963e-03
4.30000000e-02	2.77603322e-02	1.16631525e-03
4.32500000e-02	2.78808849e-02	1.16096268e-03
4.35000000e-02	2.80313623e-02	1.19479942e-03
4.37500000e-02	2.82511099e-02	1.15967290e-03
4.40000000e-02	2.72288440e-02	1.13119071e-03
4.42500000e-02	2.73026641e-02	1.12864901e-03
4.45000000e-02	2.74854036e-02	1.13131126e-03
4.47500000e-02	2.67686811e-02	1.11715206e-03
4.50000000e-02	2.71015892e-02	1.12236459e-03
4.52500000e-02	2.67490150e-02	1.10833312e-03
4.55000000e-02	2.68227149e-02	1.10421329e-03
4.57500000e-02	2.72428740e-02	1.10024284e-03
4.60000000e-02	2.66646050e-02	1.08855481e-03
4.62500000e-02	2.71621731e-02	1.10500975e-03
4.65000000e-02	2.61732738e-02	1.06142675e-03
4.67500000e-02	2.65170334e-02	1.07204770e-03
4.70000000e-02	2.64378802e-02	1.06520048e-03
4.72500000e-02	2.68180145e-02	1.08198235e-03
4.75000000e-02	2.64493194e-02	1.08632171e-03
4.77500000e-02	2.60662167e-02	1.05005697e-03
4.80000000e-02	2.63676481e-02	1.04612259e-03
4.82500000e-02	2.55795206e-02	1.02827798e-03
4.85000000e-02	2.60872971e-02	1.06152916e-03
4.87500000e-02	2.66099230e-02	1.07041186e-03
4.90000000e-02	2.59663449e-02	1.02405905e-03
4.92500000e-02	2.56335477e-02	1.01371506e-03
4.95000000e-02	2.53534693e-02	1.01082744e-03
4.97500000e-02	2.57659949e-02	1.02763004e-03
5.00000000e-02	2.52416920e-02	9.92200808e-04
5.02500000e-02	2.48848586e-02	9.77858142e-04
5.05000000e-02	2.49998900e-02	9.88356512e-04
5.07500000e-02	2.46136579e-02	9.81315422e-04
5.10000000e-02	2.40654747e-02	9.50452857e-04
5.12500000e-02	2.50643524e-02	9.85264948e-04
5.15000000e-02	2.53244215e-02	9.81977987e-04
5.17500000e-02	2.54194870e-02	9.88325931e-04
5.20000000e-02	2.48112808e-02	9.74815541e-04
5.22500000e-02	2.50060402e-02	9.89421878e-04
5.25000000e-02	2.52035216e-02	9.77267324e-04
5.27500000e-02	2.44008117e-02	9.46775849e-04
5.30000000e-02	2.41984608e-02	9.40659293e-04
5.32500000e-02	2.45667780e-02	9.57580393e-04
5.35000000e-02	2.41832346e-02	9.40007981e-04
5.37500000e-02	2.38354431e-02	9.16335112e-04
5.40000000e-02	2.43705084e-02	9.39881129e-04
5.42500000e-02	2.37846519e-02	9.16547303e-04
5.45000000e-02	2.45432754e-02	9.42799083e-04
5.47500000e-02	2.40077851e-02	9.23503561e-04
5.50000000e-02	2.34484895e-02	9.00528605e-04
5.52500000e-02	2.33693500e-02	8.88186615e-04
5.55000000e-02	2.34873053e-02	8.89074529e-04
5.57500000e-02	2.35818397e-02	8.96703663e-04
5.60000000e-02	2.36255629e-02	8.95347103e-04
5.62500000e-02	2.29805050e-02	8.76995174e-04
5.65000000e-02	2.35046794e-02	8.91081329e-04
5.67500000e-02	2.30795597e-02	8.82953136e-04
5.70000000e-02	2.42248116e-02	9.07180589e-04
5.72500000e-02	2.38144715e-02	8.94772108e-04
5.75000000e-02	2.35490505e-02	8.86676937e-04
5.77500000e-02	2.36770676e-02	8.81075802e-04
5.80000000e-02	2.33037925e-02	8.74851036e-04
5.82500000e-02	2.32713797e-02	8.73943309e-04
5.85000000e-02	2.29560586e-02	8.59223217e-04
5.87500000e-02	2.35471378e-02	8.68603970e-04
5.90000000e-02	2.20599311e-02	8.19609554e-04
5.92500000e-02	2.26883756e-02	8.52356030e-04
5.95000000e-02	2.31397478e-02	8.52259623e-04
5.97500000e-02	2.27636032e-02	8.46558717e-04
6.00000000e-02	2.31118399e-02	8.57835810e-04
6.02500000e-02	2.30032343e-02	8.50685859e-04
6.05000000e-02	2.26240817e-02	8.33646302e-04
6.07500000e-02	2.33612737e-02	8.63756065e-04
6.10000000e-02	2.26454953e-02	8.35955147e-04
6.12500000e-02	2.24826885e-02	8.26333299e-04
6.15000000e-02	2.24361772e-02	8.22656258e-04
6.17500000e-02	2.25996629e-02	8.25126000e-04
6.20000000e-02	2.26976854e-02	8.25880907e-04
6.22500000e-02	2.30632527e-02	8.35809454e-04
6.25000000e-02	2.19086117e-02	8.02133909e-04
6.27500000e-02	2.25463761e-02	8.09505403e-04
6.30000000e-02	2.24530136e-02	8.11280177e-04
6.32500000e-02	2.25226008e-02	8.22480338e-04
6.35000000e-02	2.21914478e-02	8.08947550e-04
6.37500000e-02	2.20571049e-02	7.97901574e-04
6.40000000e-02	2.23602607e-02	8.07026737e-04
6.42500000e-02	2.23804305e-02	7.99222471e-04
6.45000000e-02	2.19798369e-02	7.87815083e-04
6.47500000e-02	2.17661230e-02	7.81722280e-04
6.50000000e-02	2.20837473e-02	7.94212832e-04
6.52500000e-02	2.17796721e-02	7.77297278e-04
6.55000000e-02	2.22877676e-02	7.97472425e-04
6.57500000e-02	2.19984369e-02	7.91385215e-04
6.60000000e-02	2.18284497e-02	7.76720455e-04
6.62500000e-02	2.18089640e-02	7.75457344e-04
6.65000000e-02	2.17516806e-02	7.72937619e-04
6.67500000e-02	2.19563175e-02	7.75218746e-04
6.70000000e-02	2.19408334e-02	7.81756868e-04
6.72500000e-02	2.20715737e-02	7.86283040e-04
6.75000000e-02	2.19545049e-02	7.78107162e-04
6.77500000e-02	2.20787588e-02	7.74958151e-04
6.80000000e-02	2.21102602e-02	7.74562895e-04
6.82500000e-02	2.12802086e-02	7.50566420e-04
6.85000000e-02	2.20394922e-02	7.77202924e-04
6.87500000e-02	2.19497857e-02	7.66451387e-04
6.90000000e-02	2.16414595e-02	7.55748530e-04
6.92500000e-02	2.14768662e-02	7.46082573e-04
6.95000000e-02	2.17196241e-02	7.64110908e-04
6.97500000e-02	2.18905967e-02	7.67776200e-04
7.00000000e-02	2.17360276e-02	7.52439792e-04
7.02500000e-02	2.13381562e-02	7.36143953e-04
7.05000000e-02	2.16656878e-02	7.52549496e-04
7.07500000e-02	2.25778359e-02	7.85149384e-04
7.10000000e-02	2.13469657e-02	7.37155025e-04
7.12500000e-02	2.14546536e-02	7.38850247e-04
7.15000000e-02	2.17611741e-02	7.44787447e-04
7.17500000e-02	2.17921188e-02	7.52657682e-04
7.20000000e-02	2.21030883e-02	7.64066027e-04
7.22500000e-02	2.09704547e-02	7.22952662e-04
7.25000000e-02	2.11502128e-02	7.28802677e-04
7.27500000e-02	2.10725502e-02	7.21387397e-04
7.30000000e-02	2.14151683e-02	7.34867315e-04
7.32500000e-02	2.16056371e-02	7.36553776e-04
7.35000000e-02	2.15171265e-02	7.30762786e-04
7.37500000e-02	2.14222656e-02	7.25866607e-04
7.40000000e-02	2.16104000e-02	7.36750052e-04
7.42500000e-02	2.13634979e-02	7.28944624e-04
7.45000000e-02	2.11902841e-02	7.24751551e-04
7.47500000e-02	2.11592938e-02	7.12521176e-04
7.50000000e-02	2.10519911e-02	7.15584075e-04
7.52500000e-02	2.17910084e-02	7.33078890e-04
7.55000000e-02	2.14494336e-02	7.19480041e-04
7.57500000e-02	2.16921640e-02	7.30370869e-04
7.60000000e-02	2.12963196e-02	7.18788206e-04
7.62500000e-02	2.10798432e-02	7.11068211e-04
7.65000000e-02	2.10027953e-02	7.11168829e-04
7.67500000e-02	2.19957653e-02	7.37129284e-04
7.70000000e-02	2.12353745e-02	7.08113480e-04
7.72500000e-02	2.08145157e-02	7.10879186e-04
7.75000000e-02	2.13019461e-02	7.28712246e-04
7.77500000e-02	2.10569014e-02	7.25291299e-04
7.80000000e-02	2.11311881e-02	7.30778905e-04
7.82500000e-02	2.10351192e-02	7.39281701e-04
7.85000000e-02	2.12510318e-02	7.51580426e-04
7.87500000e-02	2.06148849e-02	7.25167526e-04
7.90000000e-02	2.10124411e-02	7.45872902e-04
7.92500000e-02	2.12375296e-02	7.57828804e-04
7.95000000e-02	2.14330180e-02	7.56671327e-04
7.97500000e-02	2.11942501e-02	7.52810654e-04
8.00000000e-02	2.09458349e-02	7.42418357e-04
8.02500000e-02	2.14438997e-02	7.59719571e-04
8.05000000e-02	2.14619837e-02	7.63058835e-04
8.07500000e-02	2.15016528e-02	7.69038035e-04
8.10000000e-02	2.10871721e-02	7.59215653e-04
8.12500000e-02	2.07307504e-02	7.46112113e-04
8.15000000e-02	2.08603360e-02	7.51676092e-04
8.17500000e-02	2.11302445e-02	7.64042910e-04
8.20000000e-02	2.17136817e-02	7.81892182e-04
8.22500000e-02	2.11486619e-02	7.65098184e-04
8.25000000e-02	2.08918995e-02	7.55046113e-04
8.27500000e-02	2.07064450e-02	7.54853064e-04
8.30000000e-02	2.12953068e-02	7.78212652e-04
8.32500000e-02	2.13856031e-02	7.79171262e-04
8.35000000e-02	2.07797209e-02	7.67460288e-04
8.37500000e-02	2.09728580e-02	7.59823255e-04
8.40000000e-02	2.06224928e-02	7.55380716e-04
8.42500000e-02	2.09056719e-02	7.69441985e-04
8.45000000e-02	2.12204804e-02	7.79902542e-04
8.47500000e-02	2.07269460e-02	7.67433968e-04
8.50000000e-02	2.10464570e-02	7.68496551e-04
8.52500000e-02	2.12825013e-02	7.83033292e-04
8.55000000e-02	2.10969949e-02	7.73248944e-04
8.57500000e-02	2.05827455e-02	7.68621301e-04
8.60000000e-02	2.05841222e-02	7.71855319e-04
8.62500000e-02	2.11906436e-02	7.77175129e-04
8.65000000e-02	2.04427681e-02	7.59292067e-04
8.67500000e-02	2.06270403e-02	7.53808757e-04
8.70000000e-02	2.07720349e-02	7.48386375e-04
8.72500000e-02	2.11518876e-02	7.50015054e-04
8.75000000e-02	2.06279691e-02	7.27557837e-04
8.77500000e-02	2.10492486e-02	7.40262971e-04
8.80000000e-02	2.08642497e-02	7.29430824e-04
8.82500000e-02	2.13664252e-02	7.41175169e-04
8.85000000e-02	2.02416486e-02	7.02374097e-04
8.87500000e-02	2.09477847e-02	7.13876534e-04
8.90000000e-02	2.05195357e-02	7.13377345e-04
8.92500000e-02	2.06840417e-02	7.04674602e-04
8.95000000e-02	2.11134164e-02	7.27095557e-04
8.97500000e-02	2.08143189e-02	7.03899787e-04
9.00000000e-02	2.07032275e-02	6.96210303e-04
9.02500000e-02	2.05912635e-02	7.00903778e-04
9.05000000e-02	2.08950195e-02	7.04373987e-04
9.07500000e-02	2.05845418e-02	6.94178655e-04
9.10000000e-02	2.03879450e-02	6.85256122e-04
9.12500000e-02	2.09384206e-02	6.99382809e-04
9.15000000e-02	2.07229161e-02	6.89365810e-04
9.17500000e-02	2.09969720e-02	6.99903500e-04
9.20000000e-02	2.09076593e-02	6.98290969e-04
9.22500000e-02	2.06757143e-02	6.83149114e-04
9.25000000e-02	1.99907014e-02	6.64454553e-04
9.27500000e-02	2.03599859e-02	6.70339956e-04
9.30000000e-02	2.06033921e-02	6.81206809e-04
9.32500000e-02	2.09745397e-02	6.93241757e-04
9.35000000e-02	2.05520834e-02	6.74945453e-04
9.37500000e-02	2.04889662e-02	6.68981759e-04
9.40000000e-02	2.10430257e-02	6.89674985e-04
9.42500000e-02	2.08055897e-02	6.75811972e-04
9.45000000e-02	2.02756377e-02	6.61712546e-04
9.47500000e-02	2.05661500e-02	6.64980020e-04
9.50000000e-02	2.07133744e-02	6.70800922e-04
9.52500000e-02	2.10582731e-02	6.81404174e-04
9.55000000e-02	2.05521009e-02	6.61474053e-04
9.57500000e-02	1.98557660e-02	6.41026168e-04
9.60000000e-02	2.04616623e-02	6.57565291e-04
9.62500000e-02	2.05270532e-02	6.58819844e-04
9.65000000e-02	2.07574988e-02	6.67852519e-04
9.67500000e-02	2.08182783e-02	6.69456176e-04
9.70000000e-02	2.04314097e-02	6.59240059e-04
9.72500000e-02	2.01460744e-02	6.43672192e-04
9.75000000e-02	2.00437021e-02	6.45093397e-04
9.77500000e-02	2.03771581e-02	6.45382551e-04
9.80000000e-02	2.07226579e-02	6.59383784e-04
9.82500000e-02	2.01693772e-02	6.43633311e-04
9.85000000e-02	2.00707111e-02	6.35964616e-04
9.87500000e-02	2.05211709e-02	6.48262417e-04
9.90000000e-02	2.04115046e-02	6.46039532e-04
9.92500000e-02	2.02359720e-02	6.39950101e-04
9.95000000e-02	2.06925280e-02	6.49787719e-04
9.97500000e-02	2.01134426e-02	6.39999522e-04
1.00000000e-01	2.03038479e-02	5.20320265e-04
1.00500000e-01	2.02903674e-02	4.52564821e-04
1.01000000e-01	2.01266803e-02	4.45549149e-04
1.01500000e-01	2.02208501e-02	4.46194560e-04
1.02000000e-01	2.00614332e-02	4.40966217e-04
1.02500000e-01	2.01488777e-02	4.40606843e-04
1.03000000e-01	2.01916190e-02	4.43010981e-04
1.03500000e-01	2.02433146e-02	4.41202368e-04
1.04000000e-01	1.98249262e-02	4.32699512e-04
1.04500000e-01	2.03353117e-02	4.42337017e-04
1.05000000e-01	1.97751806e-02	4.28349627e-04
1.05500000e-01	1.98723274e-02	4.32368490e-04
1.06000000e-01	2.00249482e-02	4.30353898e-04
1.06500000e-01	2.02071705e-02	4.32083351e-04
1.07000000e-01	1.99219333e-02	4.33023058e-04
1.07500000e-01	1.99535875e-02	4.41948842e-04
1.08000000e-01	2.01808627e-02	4.48542906e-04
1.08500000e-01	2.03313945e-02	4.53482436e-04
1.09000000e-01	2.01001389e-02	4.56336147e-04
1.09500000e-01	2.02836532e-02	4.61682882e-04
1.10000000e-01	2.01390569e-02	4.52854247e-04
1.10500000e-01	2.02336989e-02	4.44758621e-04
1.11000000e-01	2.02723763e-02	4.37983568e-04
1.11500000e-01	1.99497264e-02	4.32012257e-04
1.12000000e-01	2.03032530e-02	4.30783405e-04
1.12500000e-01	2.04621523e-02	4.33155187e-04
1.13000000e-01	2.00332288e-02	4.24670437e-04
1.13500000e-01	1.99973307e-02	4.21962664e-04
1.14000000e-01	2.00781056e-02	4.20121228e-04
1.14500000e-01	2.00621376e-02	4.20560033e-04
1.15000000e-01	2.00108873e-02	4.15499819e-04
1.15500000e-01	2.02036254e-02	4.19477204e-04
1.16000000e-01	2.02933591e-02	4.19454381e-04
1.16500000e-01	2.02801210e-02	4.20504307e-04
1.17000000e-01	2.02089805e-02	4.17193491e-04
1.17500000e-01	1.98222955e-02	4.09392696e-04
1.18000000e-01	1.97882641e-02	4.09938298e-04
1.18500000e-01	2.02176953e-02	4.13244622e-04
1.19000000e-01	2.01743400e-02	4.12305916e-04
1.19500000e-01	2.00533518e-02	4.07911854e-04
1.20000000e-01	2.00925746e-02	4.08466262e-04
1.20500000e-01	1.97366750e-02	4.00158204e-04
1.21000000e-01	2.00706539e-02	4.05531338e-04
1.21500000e-01	2.04257670e-02	4.10986653e-04
1.22000000e-01	2.00146444e-02	4.04604388e-04
1.22500000e-01	2.00226766e-02	4.03842227e-04
1.23000000e-01	1.99291072e-02	4.00469624e-04
1.23500000e-01	2.02706024e-02	4.04477730e-04
1.24000000e-01	2.00434286e-02	3.99720702e-04
1.24500000e-01	1.99777313e-02	3.98350811e-04
1.25000000e-01	2.00301537e-02	3.97818999e-04
1.25500000e-01	1.99353164e-02	3.96796252e-04
1.26000000e-01	2.01462449e-02	3.99059036e-04
1.26500000e-01	2.00484304e-02	3.97581304e-04
1.27000000e-01	1.99579195e-02	3.94246493e-04
1.27500000e-01	1.96897249e-02	3.88557186e-04
1.28000000e-01	1.98219919e-02	3.91139197e-04
1.28500000e-01	1.96047270e-02	3.84384285e-04
1.29000000e-01	1.99539552e-02	3.91286916e-04
1.29500000e-01	2.00564195e-02	3.90083571e-04
1.30000000e-01	2.01718685e-02	3.93318002e-04
1.30500000e-01	1.96082601e-02	3.81068908e-04
1.31000000e-01	1.96266845e-02	3.82044730e-04
1.31500000e-01	1.99067874e-02	3.85370073e-04
1.32000000e-01	2.01150444e-02	3.87864756e-04
1.32500000e-01	1.98380343e-02	3.82866734e-04
1.33000000e-01	1.98429804e-02	3.82734140e-04
1.33500000e-01	1.99238300e-02	3.80617815e-04
1.34000000e-01	1.95487116e-02	3.75150646e-04
1.34500000e-01	1.99417759e-02	3.80357261e-04
1.35000000e-01	1.96632872e-02	3.73489165e-04
1.35500000e-01	2.01753275e-02	3.83600418e-04
1.36000000e-01	1.97771146e-02	3.72948707e-04
1.36500000e-01	1.96891090e-02	3.73788034e-04
1.37000000e-01	1.94200088e-02	3.66179066e-04
1.37500000e-01	1.96888284e-02	3.71585609e-04
1.38000000e-01	1.96641620e-02	3.69700938e-04
1.38500000e-01	1.98344956e-02	3.72693045e-04
1.39000000e-01	2.00765560e-02	3.76723996e-04
1.39500000e-01	1.95262452e-02	3.67859574e-04
1.40000000e-01	1.97108506e-02	3.70710998e-04
1.40500000e-01	1.97072265e-02	3.68800050e-04
1.41000000e-01	1.96844886e-02	3.68859806e-04
1.41500000e-01	2.00451332e-02	3.73354717e-04
1.42000000e-01	1.95576276e-02	3.63743821e-04
1.42500000e-01	1.95501601e-02	3.64899900e-04
1.43000000e-01	1.97151005e-02	3.68272991e-04
1.43500000e-01	1.97131927e-02	3.67133458e-04
1.44000000e-01	1.97370448e-02	3.66481620e-04
1.44500000e-01	1.95032085e-02	3.61613070e-04
1.45000000e-01	1.94819793e-02	3.59999195e-04
1.45500000e-01	1.97429527e-02	3.63458749e-04
1.46000000e-01	1.93861721e-02	3.56997746e-04
1.46500000e-01	1.98331532e-02	3.64975154e-04
1.47000000e-01	1.96175537e-02	3.61086082e-04
1.47500000e-01	1.97198550e-02	3.62579466e-04
1.48000000e-01	1.94615933e-02	3.57831940e-04
1.48500000e-01	1.95779471e-02	3.58250969e-04
1.49000000e-01	1.98288504e-02	3.61178348e-04
1.49500000e-01	1.94792625e-02	3.55050006e-04
1.50000000e-01	1.94179513e-02	3.52723592e-04
1.50500000e-01	1.97183407e-02	3.58078928e-04
1.51000000e-01	1.96452347e-02	3.57147216e-04
1.51500000e-01	1.96048798e-02	3.52953206e-04
1.52000000e-01	1.96092995e-02	3.52981759e-04
1.52500000e-01	1.92352446e-02	3.46519166e-04
1.53000000e-01	1.95743959e-02	3.52791552e-04
1.53500000e-01	1.92961498e-02	3.46786474e-04
1.54000000e-01	1.95453971e-02	3.50987199e-04
1.54500000e-01	1.94668126e-02	3.54299020e-04
1.55000000e-01	1.94155552e-02	3.59634106e-04
1.55500000e-01	1.96378253e-02	3.64762236e-04
1.56000000e-01	1.95259660e-02	3.66199882e-04
1.56500000e-01	1.92080056e-02	3.59821785e-04
1.57000000e-01	1.92776535e-02	3.60940487e-04
1.57500000e-01	1.92408825e-02	3.55100718e-04
1.58000000e-01	1.93299414e-02	3.49909462e-04
1.58500000e-01	1.92502095e-02	3.47315554e-04
1.59000000e-01	1.92273642e-02	3.45385097e-04
1.59500000e-01	1.93596229e-02	3.47166942e-04
1.60000000e-01	1.93455384e-02	3.45861513e-04
1.60500000e-01	1.92671803e-02	3.43486352e-04
1.61000000e-01	1.93796641e-02	3.45708547e-04
1.61500000e-01	1.91755002e-02	3.40703922e-04
1.62000000e-01	1.92039314e-02	3.40343644e-04
1.62500000e-01	1.89243663e-02	3.35376639e-04
1.63000000e-01	1.90000486e-02	3.35779347e-04
1.63500000e-01	1.94800405e-02	3.46202841e-04
1.64000000e-01	1.94077209e-02	3.38665023e-04
1.64500000e-01	1.89615999e-02	3.32512551e-04
1.65000000e-01	1.95623992e-02	3.43735978e-04
1.65500000e-01	1.89441067e-02	3.31696824e-04
1.66000000e-01	1.91395971e-02	3.34885248e-04
1.66500000e-01	1.94937316e-02	3.39547569e-04
1.67000000e-01	1.91055234e-02	3.33673353e-04
1.67500000e-01	1.90121428e-02	3.30521307e-04
1.68000000e-01	1.90490540e-02	3.32033125e-04
1.68500000e-01	1.91501096e-02	3.30412708e-04
1.69000000e-01	1.91078161e-02	3.30411315e-04
1.69500000e-01	1.89159274e-02	3.27414945e-04
1.70000000e-01	1.91832895e-02	3.30802681e-04
1.70500000e-01	1.93036126e-02	3.30782129e-04
1.71000000e-01	1.90657383e-02	3.27711486e-04
1.71500000e-01	1.90049104e-02	3.26769164e-04
1.72000000e-01	1.89848845e-02	3.24136010e-04
1.72500000e-01	1.89547655e-02	3.25394711e-04
1.73000000e-01	1.89580558e-02	3.23478551e-04
1.73500000e-01	1.87842766e-02	3.19873751e-04
1.74000000e-01	1.92245497e-02	3.26080374e-04
1.74500000e-01	1.90581265e-02	3.22321363e-04
1.75000000e-01	1.91230132e-02	3.22412103e-04
1.75500000e-01	1.89956543e-02	3.20233919e-04
1.76000000e-01	1.88916505e-02	3.18964188e-04
1.76500000e-01	1.88652253e-02	3.18328575e-04
1.77000000e-01	1.90632552e-02	3.20186989e-04
1.77500000e-01	1.86135394e-02	3.14043587e-04
1.78000000e-01	1.89156131e-02	3.17600051e-04
1.78500000e-01	1.89748135e-02	3.17485960e-04
1.79000000e-01	1.89649585e-02	3.16927841e-04
1.79500000e-01	1.89659304e-02	3.18365291e-04
1.80000000e-01	1.91299875e-02	3.22367314e-04
1.80500000e-01	1.87929952e-02	3.15571648e-04
1.81000000e-01	1.89508855e-02	3.17494883e-04
1.81500000e-01	1.90605586e-02	3.16233745e-04
1.82000000e-01	1.84874054e-02	3.08831029e-04
1.82500000e-01	1.91385650e-02	3.18547995e-04
1.83000000e-01	1.87545006e-02	3.12210634e-04
1.83500000e-01	1.87569891e-02	3.12261351e-04
1.84000000e-01	1.87714570e-02	3.11042544e-04
1.84500000e-01	1.88861743e-02	3.13127790e-04
1.85000000e-01	1.84236215e-02	3.05334092e-04
1.85500000e-01	1.85814193e-02	3.06551462e-04
1.86000000e-01	1.86535591e-02	3.08505965e-04
1.86500000e-01	1.85455586e-02	3.06439252e-04
1.87000000e-01	1.85533565e-02	3.06366699e-04
1.87500000e-01	1.88842512e-02	3.09624858e-04
1.88000000e-01	1.87232941e-02	3.06564843e-04
1.88500000e-01	1.85129281e-02	3.04450117e-04
1.89000000e-01	1.88393724e-02	3.07199512e-04
1.89500000e-01	1.86310491e-02	3.04155447e-04
1.90000000e-01	1.85904212e-02	3.03395166e-04
1.90500000e-01	1.86342305e-02	3.03933803e-04
1.91000000e-01	1.87554405e-02	3.04937371e-04
1.91500000e-01	1.86698973e-02	3.05068871e-04
1.92000000e-01	1.87433810e-02	3.03353815e-04
1.92500000e-01	1.83803423e-02	2.98394227e-04
1.93000000e-01	1.86547785e-02	3.02389401e-04
1.93500000e-01	1.85765990e-02	3.00957163e-04
1.94000000e-01	1.83813214e-02	2.97328458e-04
1.94500000e-01	1.86126161e-02	2.99908995e-04
1.95000000e-01	1.81561033e-02	2.93799073e-04
1.95500000e-01	1.83926570e-02	2.95938601e-04
1.96000000e-01	1.84769809e-02	2.96591556e-04
1.96500000e-01	1.83129474e-02	2.94710373e-04
1.97000000e-01	1.87460858e-02	3.01221307e-04
1.97500000e-01	1.84138741e-02	2.94257069e-04
1.98000000e-01	1.85226819e-02	2.96677767e-04
1.98500000e-01	1.84819274e-02	2.95714571e-04
1.99000000e-01	1.82258234e-02	2.92676065e-04
1.99500000e-01	1.85270551e-02	2.95528934e-04
2.00000000e-01	1.81882871e-02	2.90263369e-04
2.00500000e-01	1.81878517e-02	2.90494715e-04
2.01000000e-01	1.83326286e-02	2.92675386e-04
2.01500000e-01	1.83271146e-02	2.92105248e-04
2.02000000e-01	1.82905443e-02	2.90957386e-04
2.02500000e-01	1.83375328e-02	2.90134156e-04
2.03000000e-01	1.84826724e-02	2.91826083e-04
2.03500000e-01	1.82626986e-02	2.89163127e-04
2.04000000e-01	1.83163033e-02	2.89274674e-04
2.04500000e-01	1.82921831e-02	2.89344885e-04
2.05000000e-01	1.84057716e-02	2.88938840e-04
2.05500000e-01	1.82360726e-02	2.87559460e-04
2.06000000e-01	1.84895588e-02	2.89779529e-04
2.06500000e-01	1.80859858e-02	2.84359968e-04
2.07000000e-01	1.81278137e-02	2.84406665e-04
2.07500000e-01	1.82522942e-02	2.87033351e-04
2.08000000e-01	1.83248857e-02	2.88086506e-04
2.08500000e-01	1.80854711e-02	2.82862787e-04
2.09000000e-01	1.82230247e-02	2.84412647e-04
2.09500000e-01	1.84184570e-02	2.87134960e-04
2.10000000e-01	1.83601098e-02	2.86784510e-04
2.10500000e-01	1.81793846e-02	2.84446076e-04
2.11000000e-01	1.81815671e-02	2.81605859e-04
2.11500000e-01	1.85434256e-02	2.88382781e-04
2.12000000e-01	1.83853759e-02	2.85170348e-04
2.12500000e-01	1.81577832e-02	2.81836307e-04
2.13000000e-01	1.78047146e-02	2.75774499e-04
2.13500000e-01	1.83339354e-02	2.83085553e-04
2.14000000e-01	1.81765164e-02	2.80351624e-04
2.14500000e-01	1.82771876e-02	2.81772183e-04
2.15000000e-01	1.79724838e-02	2.78106366e-04
2.15500000e-01	1.83938001e-02	2.80745506e-04
2.16000000e-01	1.81740434e-02	2.77555476e-04
2.16500000e-01	1.80069393e-02	2.78296076e-04
2.17000000e-01	1.82933400e-02	2.84456570e-04
2.17500000e-01	1.81641732e-02	2.88241830e-04
2.18000000e-01	1.82159296e-02	2.88511675e-04
2.18500000e-01	1.80854086e-02	2.88295379e-04
2.19000000e-01	1.82438953e-02	2.91666110e-04
2.19500000e-01	1.80508225e-02	2.89703270e-04
2.20000000e-01	1.80325114e-02	2.92069565e-04
2.20500000e-01	1.80673293e-02	2.92224442e-04
2.21000000e-01	1.81822415e-02	2.94994743e-04
2.21500000e-01	1.79057160e-02	2.92027099e-04
2.22000000e-01	1.78272093e-02	2.90229215e-04
2.22500000e-01	1.79951213e-02	2.94634052e-04
2.23000000e-01	1.82368994e-02	2.99190656e-04
2.23500000e-01	1.80695293e-02	2.97041872e-04
2.24000000e-01	1.80609018e-02	2.97389367e-04
2.24500000e-01	1.78046278e-02	2.93797888e-04
2.25000000e-01	1.80747889e-02	2.98437695e-04
2.25500000e-01	1.79754157e-02	2.98228393e-04
2.26000000e-01	1.80281866e-02	2.99378648e-04
2.26500000e-01	1.77952762e-02	2.92756740e-04
2.27000000e-01	1.80198892e-02	2.92232278e-04
2.27500000e-01	1.78313545e-02	2.85327277e-04
2.28000000e-01	1.79262368e-02	2.86838270e-04
2.28500000e-01	1.78640007e-02	2.84195109e-04
2.29000000e-01	1.81443625e-02	2.87648572e-04
2.29500000e-01	1.80240812e-02	2.83676438e-04
2.30000000e-01	1.77874704e-02	2.78857710e-04
2.30500000e-01	1.81445102e-02	2.83676701e-04
2.31000000e-01	1.78169702e-02	2.78137049e-04
2.31500000e-01	1.78748367e-02	2.79336023e-04
2.32000000e-01	1.79131388e-02	2.77997735e-04
2.32500000e-01	1.78756737e-02	2.78966039e-04
2.33000000e-01	1.79444516e-02	2.78209236e-04
2.33500000e-01	1.81129695e-02	2.79734793e-04
2.34000000e-01	1.78776831e-02	2.75120811e-04
2.34500000e-01	1.78584263e-02	2.74474052e-04
2.35000000e-01	1.78627977e-02	2.74316036e-04
2.35500000e-01	1.79363761e-02	2.74462434e-04
2.36000000e-01	1.79920863e-02	2.75960559e-04
2.36500000e-01	1.81483680e-02	2.77080962e-04
2.37000000e-01	1.78298979e-02	2.71287003e-04
2.37500000e-01	1.76455733e-02	2.69234397e-04
2.38000000e-01	1.77666093e-02	2.70753781e-04
2.38500000e-01	1.78862152e-02	2.71755053e-04
2.39000000e-01	1.78538568e-02	2.70592288e-04
2.39500000e-01	1.78520802e-02	2.70323574e-04
2.40000000e-01	1.77798142e-02	2.68628485e-04
2.40500000e-01	1.75481652e-02	2.64800285e-04
2.41000000e-01	1.74779715e-02	2.63865755e-04
2.41500000e-01	1.75925868e-02	2.64365005e-04
2.42000000e-01	1.78771408e-02	2.67825640e-04
2.42500000e-01	1.75752853e-02	2.62543520e-04
2.43000000e-01	1.75415302e-02	2.62510796e-04
2.43500000e-01	1.78357728e-02	2.66328914e-04
2.44000000e-01	1.76669558e-02	2.64428809e-04
2.44500000e-01	1.75642623e-02	2.61545979e-04
2.45000000e-01	1.77006091e-02	2.62876152e-04
2.45500000e-01	1.75180381e-02	2.60878801e-04
2.46000000e-01	1.76686569e-02	2.62724973e-04
2.46500000e-01	1.74801194e-02	2.59768150e-04
2.47000000e-01	1.76563038e-02	2.62140833e-04
2.47500000e-01	1.78015400e-02	2.62236256e-04
2.48000000e-01	1.77030227e-02	2.61359292e-04
2.48500000e-01	1.78190243e-02	2.62768205e-04
2.49000000e-01	1.76943734e-02	2.61224041e-04
2.49500000e-01	1.72933222e-02	2.54643534e-04
2.50000000e-01	1.74446013e-02	2.56641735e-04
2.50500000e-01	1.74735577e-02	2.57054503e-04
2.51000000e-01	1.74686093e-02	2.55555067e-04
2.51500000e-01	1.76164546e-02	2.58558524e-04
2.52000000e-01	1.75593511e-02	2.57023068e-04
2.52500000e-01	1.77091313e-02	2.58878031e-04
2.53000000e-01	1.76784692e-02	2.58917812e-04
2.53500000e-01	1.77086276e-02	2.57883989e-04
2.54000000e-01	1.74726630e-02	2.55551720e-04
2.54500000e-01	1.76922108e-02	2.57447847e-04
2.55000000e-01	1.73030291e-02	2.51569842e-04
2.55500000e-01	1.76269006e-02	2.56191004e-04
2.56000000e-01	1.74259165e-02	2.53048124e-04
2.56500000e-01	1.74874294e-02	2.53592034e-04
2.57000000e-01	1.74203782e-02	2.52103793e-04
2.57500000e-01	1.74736255e-02	2.54336818e-04
2.58000000e-01	1.72815853e-02	2.51290741e-04
2.58500000e-01	1.73027027e-02	2.50281351e-04
2.59000000e-01	1.72923650e-02	2.50054737e-04
2.59500000e-01	1.74333764e-02	2.51126103e-04
2.60000000e-01	1.74920606e-02	2.51921947e-04
2.60500000e-01	1.72981537e-02	2.48663241e-04
2.61000000e-01	1.73914626e-02	2.49127366e-04
2.61500000e-01	1.73298391e-02	2.49049875e-04
2.62000000e-01	1.74553726e-02	2.50265713e-04
2.62500000e-01	1.72584993e-02	2.48141303e-04
2.63000000e-01	1.72744013e-02	2.47471111e-04
2.63500000e-01	1.73295455e-02	2.47158413e-04
2.64000000e-01	1.72734317e-02	2.47421301e-04
2.64500000e-01	1.73393100e-02	2.47243242e-04
2.65000000e-01	1.72525273e-02	2.45986669e-04
2.65500000e-01	1.72819304e-02	2.45540241e-04
2.66000000e-01	1.72830177e-02	2.45996418e-04
2.66500000e-01	1.72899368e-02	2.45472441e-04
2.67000000e-01	1.73427945e-02	2.46048630e-04
2.67500000e-01	1.74522930e-02	2.46880722e-04
2.68000000e-01	1.74031109e-02	2.45991736e-04
2.68500000e-01	1.73539263e-02	2.45743888e-04
2.69000000e-01	1.73424188e-02	2.44009349e-04
2.69500000e-01	1.73809222e-02	2.45413236e-04
2.70000000e-01	1.71919027e-02	2.42276006e-04
2.70500000e-01	1.72166789e-02	2.41525282e-04
2.71000000e-01	1.73309700e-02	2.43084086e-04
2.71500000e-01	1.72738857e-02	2.42607486e-04
2.72000000e-01	1.72953767e-02	2.42238546e-04
2.72500000e-01	1.73475200e-02	2.43582385e-04
2.73000000e-01	1.72935375e-02	2.42254586e-04
2.73500000e-01	1.70595531e-02	2.38876495e-04
2.74000000e-01	1.71488407e-02	2.38896594e-04
2.74500000e-01	1.74094065e-02	2.42152975e-04
2.75000000e-01	1.74075960e-02	2.42505205e-04
2.75500000e-01	1.72532931e-02	2.40638950e-04
2.76000000e-01	1.72625796e-02	2.40655826e-04
2.76500000e-01	1.70924888e-02	2.38014500e-04
2.77000000e-01	1.72572859e-02	2.40501167e-04
2.77500000e-01	1.72900220e-02	2.40305951e-04
2.78000000e-01	1.70271261e-02	2.36222203e-04
2.78500000e-01	1.71553872e-02	2.37736867e-04
2.79000000e-01	1.70451250e-02	2.36935135e-04
2.79500000e-01	1.69538631e-02	2.35318698e-04
2.80000000e-01	1.70864266e-02	2.37387210e-04
2.80500000e-01	1.69661198e-02	2.34583917e-04
2.81000000e-01	1.70980869e-02	2.36452517e-04
2.81500000e-01	1.72251256e-02	2.38128906e-04
2.82000000e-01	1.73292224e-02	2.38606765e-04
2.82500000e-01	1.69725710e-02	2.34093179e-04
2.83000000e-01	1.68199533e-02	2.31325693e-04
2.83500000e-01	1.70573453e-02	2.34591027e-04
2.84000000e-01	1.70804202e-02	2.35209977e-04
2.84500000e-01	1.69973935e-02	2.33069910e-04
2.85000000e-01	1.71615118e-02	2.36028916e-04
2.85500000e-01	1.70846591e-02	2.33913017e-04
2.86000000e-01	1.69579948e-02	2.32224424e-04
2.86500000e-01	1.70226612e-02	2.33242873e-04
2.87000000e-01	1.70993926e-02	2.33384971e-04
2.87500000e-01	1.70287290e-02	2.31674077e-04
2.88000000e-01	1.71753965e-02	2.33715488e-04
2.88500000e-01	1.70850454e-02	2.32237941e-04
2.89000000e-01	1.69695108e-02	2.30700319e-04
2.89500000e-01	1.72133311e-02	2.33661983e-04
2.90000000e-01	1.71013610e-02	2.32432743e-04
2.90500000e-01	1.69568063e-02	2.30696806e-04
2.91000000e-01	1.68592935e-02	2.28604323e-04
2.91500000e-01	1.67899564e-02	2.26583636e-04
2.92000000e-01	1.71618607e-02	2.31894874e-04
2.92500000e-01	1.68030979e-02	2.26872359e-04
2.93000000e-01	1.69085051e-02	2.27373362e-04
2.93500000e-01	1.70684384e-02	2.30034821e-04
2.94000000e-01	1.69422210e-02	2.27865979e-04
2.94500000e-01	1.69488962e-02	2.29229662e-04
2.95000000e-01	1.66264237e-02	2.23391457e-04
2.95500000e-01	1.68657194e-02	2.26170203e-04
2.96000000e-01	1.68242865e-02	2.26203503e-04
2.96500000e-01	1.67295716e-02	2.24607696e-04
2.97000000e-01	1.67491884e-02	2.25277152e-04
2.97500000e-01	1.70200003e-02	2.27134384e-04
2.98000000e-01	1.69956952e-02	2.28078324e-04
2.98500000e-01	1.67275335e-02	2.24367135e-04
2.99000000e-01	1.70415065e-02	2.27492606e-04
2.99500000e-01	1.69242515e-02	2.27052240e-04
3.00000000e-01	1.68419210e-02	2.25704106e-04
3.00500000e-01	1.66444754e-02	2.22854233e-04
3.01000000e-01	1.68175850e-02	2.23888891e-04
3.01500000e-01	1.68635413e-02	2.24786509e-04
3.02000000e-01	1.68964576e-02	2.24643958e-04
3.02500000e-01	1.68122558e-02	2.23095111e-04
3.03000000e-01	1.67042683e-02	2.22744473e-04
3.03500000e-01	1.64364517e-02	2.18124965e-04
3.04000000e-01	1.66815877e-02	2.22334788e-04
3.04500000e-01	1.68185576e-02	2.22273610e-04
3.05000000e-01	1.67213242e-02	2.22225030e-04
3.05500000e-01	1.66678856e-02	2.21421366e-04
3.06000000e-01	1.67292132e-02	2.20405615e-04
3.06500000e-01	1.68802519e-02	2.22904510e-04
3.07000000e-01	1.67335668e-02	2.19835676e-04
3.07500000e-01	1.66296387e-02	2.19132022e-04
3.08000000e-01	1.69126318e-02	2.22823019e-04
3.08500000e-01	1.67118112e-02	2.20068869e-04
3.09000000e-01	1.68748032e-02	2.22559998e-04
3.09500000e-01	1.65930429e-02	2.18286722e-04
3.10000000e-01	1.66987269e-02	2.19782620e-04
3.10500000e-01	1.63716849e-02	2.15321295e-04
3.11000000e-01	1.65853194e-02	2.17663417e-04
3.11500000e-01	1.66874936e-02	2.18970860e-04
3.12000000e-01	1.66850321e-02	2.18735417e-04
3.12500000e-01	1.63786658e-02	2.14126368e-04
3.13000000e-01	1.65458238e-02	2.16871277e-04
3.13500000e-01	1.67986036e-02	2.18278422e-04
3.14000000e-01	1.65770938e-02	2.17276680e-04
3.14500000e-01	1.63921318e-02	2.14056488e-04
3.15000000e-01	1.66402046e-02	2.16795326e-04
3.15500000e-01	1.67495107e-02	2.18210656e-04
3.16000000e-01	1.65923586e-02	2.16100965e-04
3.16500000e-01	1.65513043e-02	2.14973248e-04
3.17000000e-01	1.64338423e-02	2.13975945e-04
3.17500000e-01	1.66084302e-02	2.16126581e-04
3.18000000e-01	1.65039654e-02	2.13468547e-04
3.18500000e-01	1.63720891e-02	2.12624679e-04
3.19000000e-01	1.64459554e-02	2.13076785e-04
3.19500000e-01	1.64225235e-02	2.12752019e-04
3.20000000e-01	1.64708523e-02	2.13664120e-04
3.20500000e-01	1.63178177e-02	2.12129184e-04
3.21000000e-01	1.64626902e-02	2.13179285e-04
3.21500000e-01	1.65434001e-02	2.13617894e-04
3.22000000e-01	1.64027803e-02	2.11672093e-04
3.22500000e-01	1.63478060e-02	2.10618702e-04
3.23000000e-01	1.63825651e-02	2.10473724e-04
3.23500000e-01	1.63408235e-02	2.10399549e-04
3.24000000e-01	1.63531823e-02	2.09782798e-04
3.24500000e-01	1.64592241e-02	2.11676531e-04
3.25000000e-01	1.61918668e-02	2.07609254e-04
3.25500000e-01	1.63345248e-02	2.09474536e-04
3.26000000e-01	1.63103764e-02	2.09357341e-04
3.26500000e-01	1.62071710e-02	2.07986401e-04
3.27000000e-01	1.65742013e-02	2.12319553e-04
3.27500000e-01	1.61235220e-02	2.06412886e-04
3.28000000e-01	1.62849907e-02	2.08588711e-04
3.28500000e-01	1.63506627e-02	2.09017883e-04
3.29000000e-01	1.62673329e-02	2.07702065e-04
3.29500000e-01	1.61459467e-02	2.07371208e-04
3.30000000e-01	1.63761672e-02	2.08361050e-04
3.30500000e-01	1.63553045e-02	2.08088648e-04
3.31000000e-01	1.61149885e-02	2.04550949e-04
3.31500000e-01	1.62756293e-02	2.06927910e-04
3.32000000e-01	1.63904330e-02	2.08402670e-04
3.32500000e-01	1.63678729e-02	2.07615302e-04
3.33000000e-01	1.65144584e-02	2.09988225e-04
3.33500000e-01	1.62962843e-02	2.06442134e-04
3.34000000e-01	1.60912176e-02	2.03949090e-04
3.34500000e-01	1.62921700e-02	2.05567580e-04
3.35000000e-01	1.62087776e-02	2.05321310e-04
3.35500000e-01	1.63792684e-02	2.07365296e-04
3.36000000e-01	1.60423950e-02	2.03384625e-04
3.36500000e-01	1.62129610e-02	2.04572772e-04
3.37000000e-01	1.63714746e-02	2.06034269e-04
3.37500000e-01	1.62919448e-02	2.05112253e-04
3.38000000e-01	1.60028967e-02	2.02400633e-04
3.38500000e-01	1.61065244e-02	2.03072349e-04
3.39000000e-01	1.61792489e-02	2.03953800e-04
3.39500000e-01	1.61722480e-02	2.03971025e-04
3.40000000e-01	1.61461528e-02	2.02018310e-04
3.40500000e-01	1.59853441e-02	2.01866163e-04
3.41000000e-01	1.60025059e-02	2.00743280e-04
3.41500000e-01	1.59899112e-02	2.01353931e-04
3.42000000e-01	1.61269482e-02	2.01660962e-04
3.42500000e-01	1.61614570e-02	2.02388795e-04
3.43000000e-01	1.59874090e-02	2.00538746e-04
3.43500000e-01	1.61155044e-02	2.01269208e-04
3.44000000e-01	1.60972024e-02	2.01311727e-04
3.44500000e-01	1.59062148e-02	1.99440114e-04
3.45000000e-01	1.58966814e-02	1.98264955e-04
3.45500000e-01	1.62474604e-02	2.01951265e-04
3.46000000e-01	1.60815658e-02	2.00673435e-04
3.46500000e-01	1.60891303e-02	2.00203432e-04
3.47000000e-01	1.60381577e-02	1.99406142e-04
3.47500000e-01	1.58986507e-02	1.98154740e-04
3.48000000e-01	1.59780258e-02	1.98410379e-04
3.48500000e-01	1.60253285e-02	1.99427663e-04
3.49000000e-01	1.61630018e-02	2.00325848e-04
3.49500000e-01	1.60153806e-02	1.98897662e-04
3.50000000e-01	1.58847402e-02	1.60811491e-04
3.51000000e-01	1.59727564e-02	1.40402981e-04
3.52000000e-01	1.59356491e-02	1.39766864e-04
3.53000000e-01	1.59150865e-02	1.38591697e-04
3.54000000e-01	1.58881274e-02	1.38596088e-04
3.55000000e-01	1.59560516e-02	1.39085094e-04
3.56000000e-01	1.58381532e-02	1.38558131e-04
3.57000000e-01	1.58204946e-02	1.41116112e-04
3.58000000e-01	1.57747531e-02	1.41189898e-04
3.59000000e-01	1.58872343e-02	1.43590781e-04
3.60000000e-01	1.56198507e-02	1.42701707e-04
3.61000000e-01	1.56648653e-02	1.43098057e-04
3.62000000e-01	1.55593461e-02	1.42899804e-04
3.63000000e-01	1.57798322e-02	1.45580431e-04
3.64000000e-01	1.57073211e-02	1.45650400e-04
3.65000000e-01	1.55614434e-02	1.44372968e-04
3.66000000e-01	1.56282173e-02	1.43224871e-04
3.67000000e-01	1.57414618e-02	1.42037381e-04
3.68000000e-01	1.56859337e-02	1.40939246e-04
3.69000000e-01	1.55543057e-02	1.38900223e-04
3.70000000e-01	1.56950302e-02	1.39452423e-04
3.71000000e-01	1.57270499e-02	1.41715073e-04
3.72000000e-01	1.57054479e-02	1.42590699e-04
3.73000000e-01	1.55239373e-02	1.41341250e-04
3.74000000e-01	1.56202282e-02	1.42493788e-04
3.75000000e-01	1.56744776e-02	1.42620481e-04
3.76000000e-01	1.56736864e-02	1.42480310e-04
3.77000000e-01	1.54733269e-02	1.41307069e-04
3.78000000e-01	1.55961210e-02	1.41949297e-04
3.79000000e-01	1.54403651e-02	1.40934760e-04
3.80000000e-01	1.54439014e-02	1.40241624e-04
3.81000000e-01	1.53811761e-02	1.39369317e-04
3.82000000e-01	1.54728551e-02	1.39970266e-04
3.83000000e-01	1.54001080e-02	1.39603494e-04
3.84000000e-01	1.53671712e-02	1.39904552e-04
3.85000000e-01	1.54761049e-02	1.40852780e-04
3.86000000e-01	1.55605496e-02	1.40942419e-04
3.87000000e-01	1.53998736e-02	1.39975431e-04
3.88000000e-01	1.54352900e-02	1.40311509e-04
3.89000000e-01	1.52866956e-02	1.38441861e-04
3.90000000e-01	1.53912623e-02	1.39218541e-04
3.91000000e-01	1.53290204e-02	1.38933412e-04
3.92000000e-01	1.52838587e-02	1.38469286e-04
3.93000000e-01	1.53954031e-02	1.39812527e-04
3.94000000e-01	1.53960813e-02	1.39229960e-04
3.95000000e-01	1.52682420e-02	1.38234994e-04
3.96000000e-01	1.53103194e-02	1.38327856e-04
3.97000000e-01	1.51502283e-02	1.37269594e-04
3.98000000e-01	1.52794187e-02	1.38435256e-04
3.99000000e-01	1.52330976e-02	1.38060810e-04
4.00000000e-01	1.52285889e-02	1.38085899e-04
4.01000000e-01	1.51982536e-02	1.37945370e-04
4.02000000e-01	1.52630888e-02	1.38335536e-04
4.03000000e-01	1.52468636e-02	1.37825840e-04
4.04000000e-01	1.51812886e-02	1.37239983e-04
4.05000000e-01	1.50981764e-02	1.37033356e-04
4.06000000e-01	1.51328966e-02	1.36836911e-04
4.07000000e-01	1.51242412e-02	1.37166680e-04
4.08000000e-01	1.50940257e-02	1.36591344e-04
4.09000000e-01	1.51919049e-02	1.37230756e-04
4.10000000e-01	1.51070813e-02	1.36300722e-04
4.11000000e-01	1.49791301e-02	1.35618670e-04
4.12000000e-01	1.52014604e-02	1.37090129e-04
4.13000000e-01	1.51042104e-02	1.36325759e-04
4.14000000e-01	1.50496563e-02	1.35641972e-04
4.15000000e-01	1.50932526e-02	1.36217507e-04
4.16000000e-01	1.50425424e-02	1.35745814e-04
4.17000000e-01	1.51173872e-02	1.36265550e-04
4.18000000e-01	1.49934317e-02	1.36852478e-04
4.19000000e-01	1.50171551e-02	1.38656834e-04
4.20000000e-01	1.51964907e-02	1.40708825e-04
4.21000000e-01	1.51129172e-02	1.40355205e-04
4.22000000e-01	1.51373430e-02	1.41122681e-04
4.23000000e-01	1.49746835e-02	1.40456872e-04
4.24000000e-01	1.51461526e-02	1.42348028e-04
4.25000000e-01	1.52273159e-02	1.43383705e-04
4.26000000e-01	1.49597009e-02	1.40931196e-04
4.27000000e-01	1.50654841e-02	1.41462523e-04
4.28000000e-01	1.50082586e-02	1.41683928e-04
4.29000000e-01	1.49471055e-02	1.41718835e-04
4.30000000e-01	1.50926650e-02	1.42705379e-04
4.31000000e-01	1.51227113e-02	1.42027917e-04
4.32000000e-01	1.49668328e-02	1.41408752e-04
4.33000000e-01	1.49698907e-02	1.41707820e-04
4.34000000e-01	1.47919364e-02	1.40160431e-04
4.35000000e-01	1.49434008e-02	1.41495661e-04
4.36000000e-01	1.49089555e-02	1.41339673e-04
4.37000000e-01	1.48646489e-02	1.41400082e-04
4.38000000e-01	1.48790970e-02	1.41640389e-04
4.39000000e-01	1.47681480e-02	1.40923654e-04
4.40000000e-01	1.48355207e-02	1.41877353e-04
4.41000000e-01	1.49600166e-02	1.42738650e-04
4.42000000e-01	1.47857004e-02	1.41343629e-04
4.43000000e-01	1.47462805e-02	1.41634694e-04
4.44000000e-01	1.48619619e-02	1.42440682e-04
4.45000000e-01	1.48773886e-02	1.42980090e-04
4.46000000e-01	1.47869840e-02	1.41973451e-04
4.47000000e-01	1.49135137e-02	1.43503191e-04
4.48000000e-01	1.48962952e-02	1.43056260e-04
4.49000000e-01	1.46427794e-02	1.41329786e-04
4.50000000e-01	1.47169533e-02	1.42401034e-04
4.51000000e-01	1.46594402e-02	1.41706949e-04
4.52000000e-01	1.48989893e-02	1.44380455e-04
4.53000000e-01	1.48326905e-02	1.43589117e-04
4.54000000e-01	1.47773754e-02	1.43020264e-04
4.55000000e-01	1.46656207e-02	1.41974826e-04
4.56000000e-01	1.46621231e-02	1.42413431e-04
4.57000000e-01	1.47343736e-02	1.42931450e-04
4.58000000e-01	1.47808795e-02	1.43389044e-04
4.59000000e-01	1.45563323e-02	1.41934707e-04
4.60000000e-01	1.45675688e-02	1.42191326e-04
4.61000000e-01	1.45829216e-02	1.42091086e-04
4.62000000e-01	1.47900991e-02	1.44239163e-04
4.63000000e-01	1.47227558e-02	1.43665188e-04
4.64000000e-01	1.46143627e-02	1.42297058e-04
4.65000000e-01	1.45623000e-02	1.42660417e-04
4.66000000e-01	1.46615550e-02	1.43293160e-04
4.67000000e-01	1.46523016e-02	1.43428825e-04
4.68000000e-01	1.44790247e-02	1.42347105e-04
4.69000000e-01	1.45167035e-02	1.42655090e-04
4.70000000e-01	1.45708651e-02	1.43034169e-04
4.71000000e-01	1.46605160e-02	1.43327363e-04
4.72000000e-01	1.46157417e-02	1.43564729e-04
4.73000000e-01	1.45591670e-02	1.42705057e-04
4.74000000e-01	1.45063797e-02	1.41930453e-04
4.75000000e-01	1.45566977e-02	1.42698483e-04
4.76000000e-01	1.45980525e-02	1.42468156e-04
4.77000000e-01	1.45146875e-02	1.42278896e-04
4.78000000e-01	1.45684313e-02	1.42585976e-04
4.79000000e-01	1.45652703e-02	1.42723665e-04
4.80000000e-01	1.45797136e-02	1.43434907e-04
4.81000000e-01	1.45747191e-02	1.42817721e-04
4.82000000e-01	1.45601443e-02	1.42936791e-04
4.83000000e-01	1.44291568e-02	1.41837021e-04
4.84000000e-01	1.44716011e-02	1.42466872e-04
4.85000000e-01	1.45004289e-02	1.42543264e-04
4.86000000e-01	1.44360767e-02	1.42452830e-04
4.87000000e-01	1.44972666e-02	1.42399236e-04
4.88000000e-01	1.45293616e-02	1.43006399e-04
4.89000000e-01	1.44272452e-02	1.42549901e-04
4.90000000e-01	1.43932817e-02	1.42427818e-04
4.91000000e-01	1.44524331e-02	1.42345347e-04
4.92000000e-01	1.43958141e-02	1.42498466e-04
4.93000000e-01	1.45275191e-02	1.44011145e-04
4.94000000e-01	1.43898550e-02	1.42295925e-04
4.95000000e-01	1.45145718e-02	1.44589132e-04
4.96000000e-01	1.44436797e-02	1.48136080e-04
4.97000000e-01	1.42981417e-02	1.50093445e-04
4.98000000e-01	1.43395565e-02	1.51488391e-04
4.99000000e-01	1.43114777e-02	1.53414955e-04
5.00000000e-01	1.43711229e-02	1.55327635e-04
5.01000000e-01	1.43800911e-02	1.57066820e-04
5.02000000e-01	1.44590224e-02	1.59692358e-04
5.03000000e-01	1.44380330e-02	1.60383199e-04
5.04000000e-01	1.44423028e-02	1.62496961e-04
5.05000000e-01	1.44700921e-02	1.59942992e-04
5.06000000e-01	1.43339363e-02	1.54878716e-04
5.07000000e-01	1.44833144e-02	1.55442751e-04
5.08000000e-01	1.43695422e-02	1.53586158e-04
5.09000000e-01	1.44299205e-02	1.53048669e-04
5.10000000e-01	1.41322719e-02	1.49832542e-04
5.11000000e-01	1.43539897e-02	1.51216339e-04
5.12000000e-01	1.43207170e-02	1.51017526e-04
5.13000000e-01	1.42456656e-02	1.49484990e-04
5.14000000e-01	1.41995641e-02	1.48942182e-04
5.15000000e-01	1.41767905e-02	1.48133334e-04
5.16000000e-01	1.42293424e-02	1.48449350e-04
5.17000000e-01	1.42225549e-02	1.48315429e-04
5.18000000e-01	1.41991850e-02	1.47997315e-04
5.19000000e-01	1.41434995e-02	1.46595011e-04
5.20000000e-01	1.42004878e-02	1.46780910e-04
5.21000000e-01	1.41102061e-02	1.46209006e-04
5.22000000e-01	1.41614958e-02	1.46157627e-04
5.23000000e-01	1.42372669e-02	1.47016337e-04
5.24000000e-01	1.41022037e-02	1.45934936e-04
5.25000000e-01	1.41886278e-02	1.46761049e-04
5.26000000e-01	1.40581098e-02	1.45126184e-04
5.27000000e-01	1.40601276e-02	1.45047481e-04
5.28000000e-01	1.40088906e-02	1.45100740e-04
5.29000000e-01	1.40584923e-02	1.45174535e-04
5.30000000e-01	1.42356755e-02	1.46804875e-04
5.31000000e-01	1.41484659e-02	1.46326437e-04
5.32000000e-01	1.39249499e-02	1.44327126e-04
5.33000000e-01	1.40840381e-02	1.45364991e-04
5.34000000e-01	1.41541690e-02	1.46116164e-04
5.35000000e-01	1.40750668e-02	1.45035504e-04
5.36000000e-01	1.38295482e-02	1.43310104e-04
5.37000000e-01	1.39574034e-02	1.44381529e-04
5.38000000e-01	1.40954192e-02	1.45089566e-04
5.39000000e-01	1.41316054e-02	1.45775987e-04
5.40000000e-01	1.40684902e-02	1.45073937e-04
5.41000000e-01	1.39673656e-02	1.44300447e-04
5.42000000e-01	1.38865118e-02	1.43746425e-04
5.43000000e-01	1.39691248e-02	1.44334301e-04
5.44000000e-01	1.40431951e-02	1.44872797e-04
5.45000000e-01	1.38795994e-02	1.43269435e-04
5.46000000e-01	1.39242613e-02	1.43978260e-04
5.47000000e-01	1.40608753e-02	1.45673994e-04
5.48000000e-01	1.38550072e-02	1.43069714e-04
5.49000000e-01	1.39389870e-02	1.43682139e-04
5.50000000e-01	1.39500465e-02	1.44299592e-04
5.51000000e-01	1.38216642e-02	1.42361491e-04
5.52000000e-01	1.40010356e-02	1.43640571e-04
5.53000000e-01	1.38725918e-02	1.42683003e-04
5.54000000e-01	1.37301804e-02	1.40953585e-04
5.55000000e-01	1.38269242e-02	1.41557956e-04
5.56000000e-01	1.39307662e-02	1.42754132e-04
5.57000000e-01	1.37988948e-02	1.41954657e-04
5.58000000e-01	1.37982772e-02	1.41724968e-04
5.59000000e-01	1.36069890e-02	1.39850506e-04
5.60000000e-01	1.37988117e-02	1.41995584e-04
5.61000000e-01	1.37977476e-02	1.41832917e-04
5.62000000e-01	1.36545668e-02	1.41090713e-04
5.63000000e-01	1.36728487e-02	1.40612589e-04
5.64000000e-01	1.38232620e-02	1.42121183e-04
5.65000000e-01	1.37381215e-02	1.40942012e-04
5.66000000e-01	1.38505850e-02	1.42566404e-04
5.67000000e-01	1.38290800e-02	1.41934492e-04
5.68000000e-01	1.37110198e-02	1.41231564e-04
5.69000000e-01	1.36473590e-02	1.39850878e-04
5.70000000e-01	1.35807337e-02	1.39633205e-04
5.71000000e-01	1.35666027e-02	1.39418762e-04
5.72000000e-01	1.34990634e-02	1.38803017e-04
5.73000000e-01	1.37869329e-02	1.41536586e-04
5.74000000e-01	1.36374977e-02	1.39922886e-04
5.75000000e-01	1.36852919e-02	1.40675639e-04
5.76000000e-01	1.35590499e-02	1.39633562e-04
5.77000000e-01	1.34799273e-02	1.38994761e-04
5.78000000e-01	1.34729195e-02	1.39417061e-04
5.79000000e-01	1.35302004e-02	1.38977930e-04
5.80000000e-01	1.36356251e-02	1.40157889e-04
5.81000000e-01	1.35515659e-02	1.39374295e-04
5.82000000e-01	1.34724988e-02	1.38991603e-04
5.83000000e-01	1.35494174e-02	1.39525661e-04
5.84000000e-01	1.35468918e-02	1.39171949e-04
5.85000000e-01	1.34156767e-02	1.38488880e-04
5.86000000e-01	1.34046264e-02	1.38550948e-04
5.87000000e-01	1.36049444e-02	1.39912144e-04
5.88000000e-01	1.34465002e-02	1.38776668e-04
5.89000000e-01	1.34373459e-02	1.38895647e-04
5.90000000e-01	1.33857699e-02	1.38114274e-04
5.91000000e-01	1.33824520e-02	1.38555299e-04
5.92000000e-01	1.35393612e-02	1.40397697e-04
5.93000000e-01	1.34864218e-02	1.38744140e-04
5.94000000e-01	1.33086390e-02	1.37867363e-04
5.95000000e-01	1.35115703e-02	1.39396460e-04
5.96000000e-01	1.34404345e-02	1.38876782e-04
5.97000000e-01	1.33953863e-02	1.38253575e-04
5.98000000e-01	1.32005638e-02	1.36796916e-04
5.99000000e-01	1.34265988e-02	1.38789839e-04
6.00000000e-01	1.34871491e-02	1.39230339e-04
6.01000000e-01	1.33629203e-02	1.38778105e-04
6.02000000e-01	1.32948903e-02	1.38230548e-04
6.03000000e-01	1.33207155e-02	1.38082956e-04
6.04000000e-01	1.33709176e-02	1.38580254e-04
6.05000000e-01	1.33895093e-02	1.38655059e-04
6.06000000e-01	1.33823884e-02	1.39167017e-04
6.07000000e-01	1.32530193e-02	1.37099962e-04
6.08000000e-01	1.31794736e-02	1.36847693e-04
6.09000000e-01	1.33143677e-02	1.37899511e-04
6.10000000e-01	1.31353256e-02	1.36356530e-04
6.11000000e-01	1.32052366e-02	1.37152257e-04
6.12000000e-01	1.32911183e-02	1.37567998e-04
6.13000000e-01	1.32029850e-02	1.37185638e-04
6.14000000e-01	1.33290690e-02	1.37936291e-04
6.15000000e-01	1.33852055e-02	1.38723516e-04
6.16000000e-01	1.33888983e-02	1.38792683e-04
6.17000000e-01	1.32324703e-02	1.37146519e-04
6.18000000e-01	1.30371562e-02	1.36157345e-04
6.19000000e-01	1.31556323e-02	1.36104697e-04
6.20000000e-01	1.31736006e-02	1.36273289e-04
6.21000000e-01	1.31246511e-02	1.35391214e-04
6.22000000e-01	1.33884102e-02	1.38185231e-04
6.23000000e-01	1.32473898e-02	1.36584361e-04
6.24000000e-01	1.30930242e-02	1.35029946e-04
6.25000000e-01	1.31371741e-02	1.35163025e-04
6.26000000e-01	1.32872032e-02	1.36863788e-04
6.27000000e-01	1.31143726e-02	1.35029069e-04
6.28000000e-01	1.30921765e-02	1.34854059e-04
6.29000000e-01	1.31417712e-02	1.35873110e-04
6.30000000e-01	1.30922662e-02	1.35115994e-04
6.31000000e-01	1.31688085e-02	1.35537317e-04
6.32000000e-01	1.30928609e-02	1.34830873e-04
6.33000000e-01	1.31050934e-02	1.35127816e-04
6.34000000e-01	1.31796700e-02	1.38908555e-04
6.35000000e-01	1.31889884e-02	1.43496626e-04
6.36000000e-01	1.31763285e-02	1.45997545e-04
6.37000000e-01	1.33331724e-02	1.49325743e-04
6.38000000e-01	1.33020428e-02	1.50767402e-04
6.39000000e-01	1.31246322e-02	1.51586018e-04
6.40000000e-01	1.30797513e-02	1.53110950e-04
6.41000000e-01	1.32308856e-02	1.56245948e-04
6.42000000e-01	1.30747439e-02	1.56100090e-04
6.43000000e-01	1.33139000e-02	1.58166692e-04
6.44000000e-01	1.32452714e-02	1.52034171e-04
6.45000000e-01	1.32025752e-02	1.49782431e-04
6.46000000e-01	1.30944367e-02	1.46902699e-04
6.47000000e-01	1.31317802e-02	1.46595683e-04
6.48000000e-01	1.30825899e-02	1.44681729e-04
6.49000000e-01	1.31761231e-02	1.45478575e-04
6.50000000e-01	1.31721083e-02	1.43965046e-04
6.51000000e-01	1.30459541e-02	1.42606811e-04
6.52000000e-01	1.31685002e-02	1.43269502e-04
6.53000000e-01	1.32737309e-02	1.43340750e-04
6.54000000e-01	1.30745004e-02	1.41147426e-04
6.55000000e-01	1.30614592e-02	1.41177718e-04
6.56000000e-01	1.31919446e-02	1.41724432e-04
6.57000000e-01	1.30994292e-02	1.41410131e-04
6.58000000e-01	1.29906776e-02	1.39748943e-04
6.59000000e-01	1.30286656e-02	1.40458684e-04
6.60000000e-01	1.30047859e-02	1.40524321e-04
6.61000000e-01	1.30172363e-02	1.39347680e-04
6.62000000e-01	1.31516593e-02	1.41704144e-04
6.63000000e-01	1.30214288e-02	1.39964713e-04
6.64000000e-01	1.30506396e-02	1.40015911e-04
6.65000000e-01	1.30632158e-02	1.39858849e-04
6.66000000e-01	1.30820134e-02	1.40268201e-04
6.67000000e-01	1.28374282e-02	1.37759417e-04
6.68000000e-01	1.30532254e-02	1.39686988e-04
6.69000000e-01	1.29305236e-02	1.38529693e-04
6.70000000e-01	1.28396781e-02	1.37151587e-04
6.71000000e-01	1.30184466e-02	1.38853809e-04
6.72000000e-01	1.29952920e-02	1.38994520e-04
6.73000000e-01	1.29621391e-02	1.38175511e-04
6.74000000e-01	1.28991881e-02	1.37895737e-04
6.75000000e-01	1.30107894e-02	1.38626450e-04
6.76000000e-01	1.28068162e-02	1.36580504e-04
6.77000000e-01	1.28662339e-02	1.36488417e-04
6.78000000e-01	1.27866885e-02	1.36753097e-04
6.79000000e-01	1.30475780e-02	1.38872483e-04
6.80000000e-01	1.27566413e-02	1.36094579e-04
6.81000000e-01	1.27840921e-02	1.36783912e-04
6.82000000e-01	1.28445771e-02	1.36902809e-04
6.83000000e-01	1.29942163e-02	1.38429661e-04
6.84000000e-01	1.27999359e-02	1.36104778e-04
6.85000000e-01	1.27847752e-02	1.36352458e-04
6.86000000e-01	1.28909736e-02	1.36845085e-04
6.87000000e-01	1.29389928e-02	1.37578029e-04
6.88000000e-01	1.28034877e-02	1.36364512e-04
6.89000000e-01	1.27970664e-02	1.36018619e-04
6.90000000e-01	1.28253311e-02	1.36300190e-04
6.91000000e-01	1.28100603e-02	1.36313853e-04
6.92000000e-01	1.29747042e-02	1.37294948e-04
6.93000000e-01	1.27932878e-02	1.36223542e-04
6.94000000e-01	1.27488985e-02	1.35999875e-04
6.95000000e-01	1.26843625e-02	1.35205720e-04
6.96000000e-01	1.27014365e-02	1.35749732e-04
6.97000000e-01	1.26581921e-02	1.34433620e-04
6.98000000e-01	1.28627301e-02	1.36607913e-04
6.99000000e-01	1.27463642e-02	1.35296320e-04
7.00000000e-01	1.26932587e-02	1.35371538e-04
7.01000000e-01	1.27835124e-02	1.35780855e-04
7.02000000e-01	1.28194148e-02	1.36418605e-04
7.03000000e-01	1.27679864e-02	1.36014142e-04
7.04000000e-01	1.27994662e-02	1.36271690e-04
7.05000000e-01	1.26896390e-02	1.35289173e-04
7.06000000e-01	1.26805756e-02	1.34975160e-04
7.07000000e-01	1.26201892e-02	1.33684951e-04
7.08000000e-01	1.26111214e-02	1.33864663e-04
7.09000000e-01	1.24919634e-02	1.32951114e-04
7.10000000e-01	1.27180551e-02	1.34919900e-04
7.11000000e-01	1.25969905e-02	1.33970952e-04
7.12000000e-01	1.25480030e-02	1.33358608e-04
7.13000000e-01	1.24921113e-02	1.33071839e-04
7.14000000e-01	1.24521930e-02	1.32806319e-04
7.15000000e-01	1.25598913e-02	1.33695199e-04
7.16000000e-01	1.25255795e-02	1.32904303e-04
7.17000000e-01	1.25124020e-02	1.33451622e-04
7.18000000e-01	1.23561704e-02	1.31622803e-04
7.19000000e-01	1.25341871e-02	1.33611896e-04
7.20000000e-01	1.23931860e-02	1.32248340e-04
7.21000000e-01	1.25263804e-02	1.33506535e-04
7.22000000e-01	1.22588461e-02	1.30460778e-04
7.23000000e-01	1.25286751e-02	1.32928312e-04
7.24000000e-01	1.25546282e-02	1.33553160e-04
7.25000000e-01	1.23941066e-02	1.32084711e-04
7.26000000e-01	1.24742643e-02	1.32335340e-04
7.27000000e-01	1.22889842e-02	1.31138637e-04
7.28000000e-01	1.24826354e-02	1.32840400e-04
7.29000000e-01	1.25882357e-02	1.34093430e-04
7.30000000e-01	1.24041133e-02	1.32139108e-04
7.31000000e-01	1.24909613e-02	1.33157602e-04
7.32000000e-01	1.23788712e-02	1.31937181e-04
7.33000000e-01	1.22247572e-02	1.30499398e-04
7.34000000e-01	1.23754059e-02	1.32039843e-04
7.35000000e-01	1.22279004e-02	1.30163677e-04
7.36000000e-01	1.22917917e-02	1.30607049e-04
7.37000000e-01	1.22742734e-02	1.30020622e-04
7.38000000e-01	1.22837839e-02	1.29846759e-04
7.39000000e-01	1.21298532e-02	1.28401715e-04
7.40000000e-01	1.23270857e-02	1.30230582e-04
7.41000000e-01	1.22698343e-02	1.29008221e-04
7.42000000e-01	1.22340048e-02	1.29073340e-04
7.43000000e-01	1.22119901e-02	1.28686542e-04
7.44000000e-01	1.22597430e-02	1.29015864e-04
7.45000000e-01	1.22672100e-02	1.29307982e-04
7.46000000e-01	1.22475089e-02	1.28988571e-04
7.47000000e-01	1.21534264e-02	1.28475973e-04
7.48000000e-01	1.21778137e-02	1.28737300e-04
7.49000000e-01	1.22638234e-02	1.29406689e-04
7.50000000e-01	1.20713907e-02	1.27057390e-04
7.51000000e-01	1.22010442e-02	1.28607253e-04
7.52000000e-01	1.23096702e-02	1.29621995e-04
7.53000000e-01	1.21221644e-02	1.28262811e-04
7.54000000e-01	1.21576024e-02	1.28614726e-04
7.55000000e-01	1.21647079e-02	1.28553880e-04
7.56000000e-01	1.21486900e-02	1.28385949e-04
7.57000000e-01	1.20913227e-02	1.27338298e-04
7.58000000e-01	1.21223499e-02	1.28199085e-04
7.59000000e-01	1.21446811e-02	1.28241625e-04
7.60000000e-01	1.20439272e-02	1.26631717e-04
7.61000000e-01	1.20101804e-02	1.26097124e-04
7.62000000e-01	1.20181397e-02	1.26423137e-04
7.63000000e-01	1.22508083e-02	1.28174774e-04
7.64000000e-01	1.20786974e-02	1.27158636e-04
7.65000000e-01	1.18984157e-02	1.24747047e-04
7.66000000e-01	1.19822475e-02	1.25489010e-04
7.67000000e-01	1.20612839e-02	1.26599222e-04
7.68000000e-01	1.19880287e-02	1.25671044e-04
7.69000000e-01	1.20182042e-02	1.25752858e-04
7.70000000e-01	1.18514702e-02	1.24600182e-04
7.71000000e-01	1.19746716e-02	1.25193042e-04
7.72000000e-01	1.19185996e-02	1.28714624e-04
7.73000000e-01	1.18774552e-02	1.32359325e-04
7.74000000e-01	1.19060421e-02	1.34993426e-04
7.75000000e-01	1.19920477e-02	1.38840371e-04
7.76000000e-01	1.19117316e-02	1.39933703e-04
7.77000000e-01	1.18385716e-02	1.41254596e-04
7.78000000e-01	1.19148014e-02	1.43784552e-04
7.79000000e-01	1.17909909e-02	1.44320851e-04
7.80000000e-01	1.21388416e-02	1.49500466e-04
7.81000000e-01	1.18651526e-02	1.48422566e-04
7.82000000e-01	1.17901490e-02	1.48819196e-04
7.83000000e-01	1.18561209e-02	1.51218357e-04
7.84000000e-01	1.17697687e-02	1.51170199e-04
7.85000000e-01	1.19109246e-02	1.55610627e-04
7.86000000e-01	1.17617761e-02	1.55958889e-04
7.87000000e-01	1.17865371e-02	1.57009672e-04
7.88000000e-01	1.16714915e-02	1.57258143e-04
7.89000000e-01	1.18935211e-02	1.61704266e-04
7.90000000e-01	1.17327230e-02	1.60837938e-04
7.91000000e-01	1.16139017e-02	1.61386078e-04
7.92000000e-01	1.18708641e-02	1.65881376e-04
7.93000000e-01	1.17790020e-02	1.65651213e-04
7.94000000e-01	1.17073281e-02	1.67365285e-04
7.95000000e-01	1.17426015e-02	1.69593002e-04
7.96000000e-01	1.16155488e-02	1.69576426e-04
7.97000000e-01	1.17499556e-02	1.73423077e-04
7.98000000e-01	1.18380604e-02	1.76658718e-04
7.99000000e-01	1.16693886e-02	1.75340935e-04
8.00000000e-01	1.16055390e-02	1.76506524e-04
8.01000000e-01	1.17288642e-02	1.80302447e-04
8.02000000e-01	1.16103380e-02	1.80662703e-04
8.03000000e-01	1.16691836e-02	1.83373645e-04
8.04000000e-01	1.15249738e-02	1.83515397e-04
8.05000000e-01	1.17109974e-02	1.87417222e-04
8.06000000e-01	1.16387971e-02	1.89014120e-04
8.07000000e-01	1.13784365e-02	1.87023359e-04
8.08000000e-01	1.15908136e-02	1.92989839e-04
8.09000000e-01	1.12571024e-02	1.89321184e-04
8.10000000e-01	1.17253183e-02	1.98709189e-04
8.11000000e-01	1.14911746e-02	1.96927870e-04
8.12000000e-01	1.15460746e-02	1.99308271e-04
8.13000000e-01	1.13772237e-02	1.99862959e-04
8.14000000e-01	1.11863053e-02	1.97818487e-04
8.15000000e-01	1.15202742e-02	2.07111330e-04
8.16000000e-01	1.15451075e-02	2.09809121e-04
8.17000000e-01	1.15986096e-02	2.12201914e-04
8.18000000e-01	1.13892962e-02	2.12416462e-04
8.19000000e-01	1.13755806e-02	2.14948412e-04
8.20000000e-01	1.12749866e-02	2.16077149e-04
8.21000000e-01	1.12818591e-02	2.18819471e-04
8.22000000e-01	1.15951739e-02	2.25386020e-04
8.23000000e-01	1.10872970e-02	2.19530196e-04
8.24000000e-01	1.13762059e-02	2.29648979e-04
8.25000000e-01	1.12980461e-02	2.31072889e-04
8.26000000e-01	1.11727054e-02	2.32923259e-04
8.27000000e-01	1.12788720e-02	2.36725195e-04
8.28000000e-01	1.11926501e-02	2.38970187e-04
8.29000000e-01	1.13998357e-02	2.48115297e-04
8.30000000e-01	1.08471745e-02	2.39622937e-04
8.31000000e-01	1.12261359e-02	2.50605055e-04
8.32000000e-01	1.10886784e-02	2.54941728e-04
8.33000000e-01	1.12001629e-02	2.58831164e-04
8.34000000e-01	1.14282134e-02	2.68531374e-04
8.35000000e-01	1.12632608e-02	2.68900454e-04
8.36000000e-01	1.09772502e-02	2.67521929e-04
8.37000000e-01	1.09869779e-02	2.77968373e-04
8.38000000e-01	1.13457268e-02	2.87658837e-04
8.39000000e-01	1.11383410e-02	2.91916841e-04
8.40000000e-01	1.07971126e-02	2.88452895e-04
8.41000000e-01	1.10710066e-02	3.00735709e-04
8.42000000e-01	1.10313651e-02	3.08613345e-04
8.43000000e-01	1.12444706e-02	3.18377494e-04
8.44000000e-01	1.11405214e-02	3.24448898e-04
8.45000000e-01	1.08582807e-02	3.21211795e-04
8.46000000e-01	1.07613540e-02	3.31434096e-04
8.47000000e-01	1.13192110e-02	3.53050750e-04
8.48000000e-01	1.07641118e-02	3.51979166e-04
8.49000000e-01	1.08973756e-02	3.64931748e-04
8.50000000e-01	1.06324276e-02	3.71758234e-04
8.51000000e-01	1.08569152e-02	3.99137076e-04
8.52000000e-01	1.04336279e-02	3.98673910e-04
8.53000000e-01	1.05011608e-02	4.19403050e-04
8.54000000e-01	1.09796349e-02	4.51988395e-04
8.55000000e-01	1.02161107e-02	4.39177934e-04
8.56000000e-01	1.09485905e-02	4.77405156e-04
8.57000000e-01	1.06415327e-02	4.73942682e-04
8.58000000e-01	1.05413286e-02	4.86437241e-04
8.59000000e-01	1.07032001e-02	5.10519830e-04
8.60000000e-01	1.07692044e-02	5.24464955e-04
8.61000000e-01	1.05822173e-02	5.40700109e-04
8.62000000e-01	1.05822697e-02	5.52788334e-04
8.63000000e-01	1.01284969e-02	5.66577525e-04
8.64000000e-01	1.07147249e-02	6.13903138e-04
8.65000000e-01	1.10853159e-02	6.68875505e-04
8.66000000e-01	1.15665063e-02	7.11507041e-04
8.67000000e-01	1.00640714e-02	6.83520338e-04
8.68000000e-01	1.09447004e-02	7.82448710e-04
8.69000000e-01	1.10321601e-02	8.24559115e-04
8.70000000e-01	1.02859904e-02	8.48732528e-04
8.71000000e-01	9.63582031e-03	9.15323190e-04
8.72000000e-01	1.02386558e-02	1.05271833e-03
8.73000000e-01	1.21254173e-02	1.46102439e-03
8.74000000e-01	1.31790628e-02	2.04893737e-03
8.75000000e-01	1.02402911e-02	3.41343251e-03
