% Filename : SDL5_p7_00025_00043.h5
% Date & Time : 30-Oct-2025 16:57:56
% X-ray Energy (keV) : 13.30001
% Exposure Time (s) : 0.500
% Beam Center : 1461.24000, 208.98300
% Sample to Detector Distance (SDD) (mm) : 1990.750
% Detector Pixel Size (mm) : 0.075
% Photodiode Value : 144119.000
% I0 of Sample : 0
% I0 of Standard : 1
% 
% q(A^-1)   I(q)    I(q)_SE
0.00000000e+00	1.12823467e-02	6.26796119e-03
2.50000000e-04	0.00000000e+00	0.00000000e+00
5.00000000e-04	0.00000000e+00	0.00000000e+00
7.50000000e-04	0.00000000e+00	0.00000000e+00
1.00000000e-03	0.00000000e+00	0.00000000e+00
1.25000000e-03	0.00000000e+00	0.00000000e+00
1.50000000e-03	0.00000000e+00	0.00000000e+00
1.75000000e-03	0.00000000e+00	0.00000000e+00
2.00000000e-03	0.00000000e+00	0.00000000e+00
2.25000000e-03	0.00000000e+00	0.00000000e+00
2.50000000e-03	0.00000000e+00	0.00000000e+00
2.75000000e-03	0.00000000e+00	0.00000000e+00
3.00000000e-03	0.00000000e+00	0.00000000e+00
3.25000000e-03	1.86257951e+00	1.10003785e+00
3.50000000e-03	1.56103811e+00	3.60199072e-01
3.75000000e-03	1.19188260e+00	2.20227783e-01
4.00000000e-03	1.00271866e+00	1.64096831e-01
4.25000000e-03	8.01370084e-01	1.06511780e-01
4.50000000e-03	9.76436529e-01	1.41050165e-01
4.75000000e-03	9.28992431e-01	1.21895088e-01
5.00000000e-03	7.48898629e-01	9.19998702e-02
5.25000000e-03	6.36966569e-01	7.81651824e-02
5.50000000e-03	5.53111501e-01	6.44935272e-02
5.75000000e-03	4.80192929e-01	5.67177269e-02
6.00000000e-03	4.13931217e-01	4.70275164e-02
6.25000000e-03	3.68662826e-01	4.14549917e-02
6.50000000e-03	3.22275848e-01	3.56062053e-02
6.75000000e-03	2.76026701e-01	3.06768122e-02
7.00000000e-03	2.57766037e-01	2.78307523e-02
7.25000000e-03	2.22524870e-01	2.31953832e-02
7.50000000e-03	1.95607049e-01	2.04076136e-02
7.75000000e-03	1.75273125e-01	1.72943590e-02
8.00000000e-03	1.66046158e-01	1.64467714e-02
8.25000000e-03	1.45143806e-01	1.36913950e-02
8.50000000e-03	1.36680119e-01	1.28038052e-02
8.75000000e-03	1.23996744e-01	1.11061984e-02
9.00000000e-03	1.08235184e-01	9.34714734e-03
9.25000000e-03	9.96590729e-02	8.61107789e-03
9.50000000e-03	9.16962540e-02	7.35328048e-03
9.75000000e-03	8.33741072e-02	6.65695955e-03
1.00000000e-02	7.98339920e-02	6.24926646e-03
1.02500000e-02	7.17657527e-02	5.56065570e-03
1.05000000e-02	6.48202236e-02	4.73598603e-03
1.07500000e-02	6.16494220e-02	4.58910583e-03
1.10000000e-02	5.87791618e-02	4.16030151e-03
1.12500000e-02	5.36756970e-02	3.89492680e-03
1.15000000e-02	4.97584212e-02	3.48927955e-03
1.17500000e-02	4.83997414e-02	3.24874728e-03
1.20000000e-02	4.66860064e-02	3.12305989e-03
1.22500000e-02	4.62171187e-02	2.99743146e-03
1.25000000e-02	4.34087356e-02	2.87731789e-03
1.27500000e-02	4.10143773e-02	2.65520857e-03
1.30000000e-02	3.95045296e-02	2.51168080e-03
1.32500000e-02	3.92038084e-02	2.47197381e-03
1.35000000e-02	3.73274961e-02	2.31012425e-03
1.37500000e-02	3.54783622e-02	2.22020241e-03
1.40000000e-02	3.43736011e-02	2.14185509e-03
1.42500000e-02	3.37925231e-02	2.02917538e-03
1.45000000e-02	3.27864390e-02	1.96362411e-03
1.47500000e-02	3.06667593e-02	1.84386798e-03
1.50000000e-02	2.98896503e-02	1.76667804e-03
1.52500000e-02	2.77957277e-02	1.62698253e-03
1.55000000e-02	2.87482548e-02	1.65154114e-03
1.57500000e-02	2.66987752e-02	1.51740098e-03
1.60000000e-02	2.84326770e-02	1.58322767e-03
1.62500000e-02	2.87578500e-02	1.63421344e-03
1.65000000e-02	2.69835940e-02	1.49760987e-03
1.67500000e-02	2.71926362e-02	1.47605480e-03
1.70000000e-02	2.58049363e-02	1.42512224e-03
1.72500000e-02	2.59138194e-02	1.42143646e-03
1.75000000e-02	2.57480068e-02	1.39471780e-03
1.77500000e-02	2.57534391e-02	1.37141617e-03
1.80000000e-02	2.45498293e-02	1.31477758e-03
1.82500000e-02	2.47887771e-02	1.29331323e-03
1.85000000e-02	2.59477873e-02	1.38829494e-03
1.87500000e-02	2.48248052e-02	1.29921658e-03
1.90000000e-02	2.41880363e-02	1.26657328e-03
1.92500000e-02	2.46589526e-02	1.28045361e-03
1.95000000e-02	2.44329245e-02	1.25032393e-03
1.97500000e-02	2.39148043e-02	1.24429946e-03
2.00000000e-02	2.35920303e-02	1.22253959e-03
2.02500000e-02	2.37348094e-02	1.21188909e-03
2.05000000e-02	2.36738311e-02	1.17229846e-03
2.07500000e-02	2.37338237e-02	1.16905457e-03
2.10000000e-02	2.27295493e-02	1.14629243e-03
2.12500000e-02	2.38517009e-02	1.19123384e-03
2.15000000e-02	2.35100872e-02	1.16567296e-03
2.17500000e-02	2.27596624e-02	1.14445226e-03
2.20000000e-02	2.26078275e-02	1.14571305e-03
2.22500000e-02	2.20095068e-02	1.10302673e-03
2.25000000e-02	2.32811970e-02	1.18694363e-03
2.27500000e-02	2.29348383e-02	1.14196712e-03
2.30000000e-02	2.30410410e-02	1.17622608e-03
2.32500000e-02	2.18579450e-02	1.11061931e-03
2.35000000e-02	2.27140321e-02	1.15164211e-03
2.37500000e-02	2.19484477e-02	1.11982905e-03
2.40000000e-02	2.29237245e-02	1.15742499e-03
2.42500000e-02	2.26016272e-02	1.12977661e-03
2.45000000e-02	2.23151303e-02	1.12306781e-03
2.47500000e-02	2.22732173e-02	1.10672149e-03
2.50000000e-02	2.14245622e-02	1.07634188e-03
2.52500000e-02	2.17504136e-02	1.09928311e-03
2.55000000e-02	2.22375553e-02	1.09728130e-03
2.57500000e-02	2.20732180e-02	1.08692764e-03
2.60000000e-02	2.19024540e-02	1.08187984e-03
2.62500000e-02	2.21291649e-02	1.11314893e-03
2.65000000e-02	2.20091723e-02	1.08305420e-03
2.67500000e-02	2.21145122e-02	1.08658682e-03
2.70000000e-02	2.25875057e-02	1.10020727e-03
2.72500000e-02	2.26472411e-02	1.10133561e-03
2.75000000e-02	2.18326257e-02	1.07196886e-03
2.77500000e-02	2.23654484e-02	1.10520407e-03
2.80000000e-02	2.20181200e-02	1.05493008e-03
2.82500000e-02	2.21531896e-02	1.07548277e-03
2.85000000e-02	2.25521166e-02	1.09380023e-03
2.87500000e-02	2.21366758e-02	1.07994028e-03
2.90000000e-02	2.19853889e-02	1.07212948e-03
2.92500000e-02	2.26629997e-02	1.06966485e-03
2.95000000e-02	2.22091145e-02	1.06470793e-03
2.97500000e-02	2.25230802e-02	1.07841985e-03
3.00000000e-02	2.22394441e-02	1.07075744e-03
3.02500000e-02	2.25969435e-02	1.07155069e-03
3.05000000e-02	2.30221627e-02	1.09121526e-03
3.07500000e-02	2.27514278e-02	1.07555003e-03
3.10000000e-02	2.30357303e-02	1.10155868e-03
3.12500000e-02	2.24245875e-02	1.07657586e-03
3.15000000e-02	2.26987218e-02	1.07048483e-03
3.17500000e-02	2.24249962e-02	1.04469099e-03
3.20000000e-02	2.30119491e-02	1.07872813e-03
3.22500000e-02	2.24709831e-02	1.05097007e-03
3.25000000e-02	2.24815399e-02	1.06083016e-03
3.27500000e-02	2.18615411e-02	1.01029348e-03
3.30000000e-02	2.22514473e-02	1.02462140e-03
3.32500000e-02	2.23901934e-02	1.02822203e-03
3.35000000e-02	2.27012955e-02	1.05185962e-03
3.37500000e-02	2.08879175e-02	9.72447736e-04
3.40000000e-02	2.25056913e-02	1.04350409e-03
3.42500000e-02	2.11683778e-02	9.64968143e-04
3.45000000e-02	2.17714552e-02	1.00300353e-03
3.47500000e-02	2.28230055e-02	1.03360421e-03
3.50000000e-02	2.14511030e-02	9.79757282e-04
3.52500000e-02	2.19581511e-02	1.00557114e-03
3.55000000e-02	2.17659225e-02	9.85085567e-04
3.57500000e-02	2.15738731e-02	9.86022919e-04
3.60000000e-02	2.18276451e-02	1.00232014e-03
3.62500000e-02	2.17530043e-02	9.89671841e-04
3.65000000e-02	2.14233353e-02	9.64253104e-04
3.67500000e-02	2.14982114e-02	9.73043410e-04
3.70000000e-02	2.11878107e-02	9.50859188e-04
3.72500000e-02	2.11878106e-02	9.46314367e-04
3.75000000e-02	2.15271243e-02	9.57128450e-04
3.77500000e-02	2.21934995e-02	9.86085711e-04
3.80000000e-02	2.19333088e-02	9.74555934e-04
3.82500000e-02	2.14400808e-02	9.43137265e-04
3.85000000e-02	2.12903603e-02	9.55068020e-04
3.87500000e-02	2.08316367e-02	9.21280335e-04
3.90000000e-02	2.11435313e-02	9.47654703e-04
3.92500000e-02	2.09502929e-02	9.31224166e-04
3.95000000e-02	2.11112030e-02	9.30241952e-04
3.97500000e-02	2.11240841e-02	9.39626692e-04
4.00000000e-02	2.07703038e-02	9.16339761e-04
4.02500000e-02	2.12611163e-02	9.28786444e-04
4.05000000e-02	2.12399856e-02	9.21838982e-04
4.07500000e-02	2.03742134e-02	8.86929715e-04
4.10000000e-02	2.07723185e-02	9.08974312e-04
4.12500000e-02	2.14132290e-02	9.28837812e-04
4.15000000e-02	2.10026948e-02	9.00672999e-04
4.17500000e-02	2.09505013e-02	8.99893354e-04
4.20000000e-02	2.11613125e-02	8.95679524e-04
4.22500000e-02	2.10073046e-02	8.87479280e-04
4.25000000e-02	2.02739093e-02	8.62267731e-04
4.27500000e-02	2.14984910e-02	9.11365320e-04
4.30000000e-02	2.12666042e-02	8.92693936e-04
4.32500000e-02	2.06911585e-02	8.75568650e-04
4.35000000e-02	2.09114968e-02	8.86261449e-04
4.37500000e-02	2.05671390e-02	8.67926126e-04
4.40000000e-02	2.16562248e-02	9.09696001e-04
4.42500000e-02	2.07658307e-02	8.73694538e-04
4.45000000e-02	2.12386619e-02	8.83379240e-04
4.47500000e-02	2.14990715e-02	8.95206097e-04
4.50000000e-02	2.09000634e-02	8.78532111e-04
4.52500000e-02	2.11283966e-02	8.78141127e-04
4.55000000e-02	2.06826230e-02	8.64650947e-04
4.57500000e-02	2.06258757e-02	8.54010060e-04
4.60000000e-02	2.11016861e-02	8.77752127e-04
4.62500000e-02	2.02155879e-02	8.44508560e-04
4.65000000e-02	2.04748139e-02	8.53777047e-04
4.67500000e-02	2.03046329e-02	8.21593416e-04
4.70000000e-02	2.10884374e-02	8.62708738e-04
4.72500000e-02	2.09881445e-02	8.59861097e-04
4.75000000e-02	2.05970222e-02	8.49713982e-04
4.77500000e-02	2.08598458e-02	8.41190417e-04
4.80000000e-02	2.02284442e-02	8.25685139e-04
4.82500000e-02	2.03503605e-02	8.28233700e-04
4.85000000e-02	2.06986989e-02	8.43337031e-04
4.87500000e-02	2.07605255e-02	8.39997315e-04
4.90000000e-02	2.13584201e-02	8.56334202e-04
4.92500000e-02	2.09749828e-02	8.37136678e-04
4.95000000e-02	2.06504933e-02	8.39624261e-04
4.97500000e-02	2.06154199e-02	8.34167685e-04
5.00000000e-02	2.00732371e-02	8.12897105e-04
5.02500000e-02	2.11005084e-02	8.42769004e-04
5.05000000e-02	2.12423824e-02	8.46138757e-04
5.07500000e-02	2.09252373e-02	8.30446526e-04
5.10000000e-02	2.17187899e-02	8.55330361e-04
5.12500000e-02	2.05379211e-02	8.20988617e-04
5.15000000e-02	2.13269549e-02	8.38907126e-04
5.17500000e-02	2.07895346e-02	8.25222807e-04
5.20000000e-02	2.02863696e-02	8.00553230e-04
5.22500000e-02	2.07118883e-02	8.20685386e-04
5.25000000e-02	2.02305625e-02	7.98163872e-04
5.27500000e-02	2.03954250e-02	7.91490412e-04
5.30000000e-02	2.04386927e-02	7.93922815e-04
5.32500000e-02	2.00761970e-02	7.88982882e-04
5.35000000e-02	2.08271687e-02	8.11135506e-04
5.37500000e-02	2.05581729e-02	7.94358293e-04
5.40000000e-02	2.06668676e-02	8.09628305e-04
5.42500000e-02	2.06620570e-02	8.02690171e-04
5.45000000e-02	2.03110110e-02	7.93624472e-04
5.47500000e-02	2.09492690e-02	8.04934380e-04
5.50000000e-02	2.07493493e-02	8.03742616e-04
5.52500000e-02	2.02692405e-02	7.85299180e-04
5.55000000e-02	2.00263986e-02	7.69658883e-04
5.57500000e-02	2.05732562e-02	7.98433102e-04
5.60000000e-02	2.07616526e-02	7.93739111e-04
5.62500000e-02	2.11009312e-02	8.16436077e-04
5.65000000e-02	2.09380436e-02	7.96917915e-04
5.67500000e-02	2.05449507e-02	7.86837819e-04
5.70000000e-02	2.03242190e-02	7.64619029e-04
5.72500000e-02	2.07662099e-02	7.85220628e-04
5.75000000e-02	2.03344638e-02	7.80089001e-04
5.77500000e-02	2.06426558e-02	7.78145381e-04
5.80000000e-02	2.02415198e-02	7.73684122e-04
5.82500000e-02	2.05357838e-02	7.69360826e-04
5.85000000e-02	1.96354295e-02	7.42658667e-04
5.87500000e-02	2.00502180e-02	7.48226111e-04
5.90000000e-02	2.01798531e-02	7.56834382e-04
5.92500000e-02	2.02955201e-02	7.56984950e-04
5.95000000e-02	2.01810762e-02	7.58014285e-04
5.97500000e-02	2.01063530e-02	7.54200227e-04
6.00000000e-02	2.02687171e-02	7.58332078e-04
6.02500000e-02	1.98077075e-02	7.38358578e-04
6.05000000e-02	2.02298787e-02	7.53204922e-04
6.07500000e-02	2.02375914e-02	7.54485329e-04
6.10000000e-02	2.08374274e-02	7.69756169e-04
6.12500000e-02	1.97182398e-02	7.29991707e-04
6.15000000e-02	2.00390406e-02	7.40912292e-04
6.17500000e-02	1.98876678e-02	7.36678491e-04
6.20000000e-02	2.10233657e-02	7.60060224e-04
6.22500000e-02	2.03171000e-02	7.45822381e-04
6.25000000e-02	2.01245676e-02	7.34468278e-04
6.27500000e-02	1.98235796e-02	7.25968296e-04
6.30000000e-02	1.98925821e-02	7.30505863e-04
6.32500000e-02	2.03118360e-02	7.38916647e-04
6.35000000e-02	2.05455573e-02	7.46788730e-04
6.37500000e-02	1.97406723e-02	7.23994314e-04
6.40000000e-02	2.00202029e-02	7.30700039e-04
6.42500000e-02	2.02981056e-02	7.28549445e-04
6.45000000e-02	1.99314508e-02	7.19248498e-04
6.47500000e-02	2.07074692e-02	7.48872153e-04
6.50000000e-02	2.04869525e-02	7.38654050e-04
6.52500000e-02	1.96640037e-02	7.10064456e-04
6.55000000e-02	2.06388490e-02	7.42089086e-04
6.57500000e-02	1.98259595e-02	7.14582991e-04
6.60000000e-02	1.98044346e-02	7.12364176e-04
6.62500000e-02	1.99378644e-02	7.18447728e-04
6.65000000e-02	1.98864375e-02	7.07737879e-04
6.67500000e-02	1.99106599e-02	7.12245890e-04
6.70000000e-02	2.02962159e-02	7.22123976e-04
6.72500000e-02	1.98721926e-02	7.10398429e-04
6.75000000e-02	1.95526565e-02	6.94785863e-04
6.77500000e-02	2.01853237e-02	7.09420058e-04
6.80000000e-02	1.99341084e-02	7.01623795e-04
6.82500000e-02	2.01473187e-02	7.12205095e-04
6.85000000e-02	1.94932636e-02	6.94895124e-04
6.87500000e-02	1.98596217e-02	7.01508281e-04
6.90000000e-02	1.93253388e-02	6.82669189e-04
6.92500000e-02	2.08199869e-02	7.25644622e-04
6.95000000e-02	2.01774715e-02	7.13184699e-04
6.97500000e-02	1.99212117e-02	7.00536914e-04
7.00000000e-02	1.94572307e-02	6.83268018e-04
7.02500000e-02	2.02154658e-02	7.04044587e-04
7.05000000e-02	1.98945563e-02	6.89483635e-04
7.07500000e-02	2.02900812e-02	7.13239703e-04
7.10000000e-02	1.95720744e-02	6.81178526e-04
7.12500000e-02	2.01117050e-02	6.98908441e-04
7.15000000e-02	2.02611199e-02	6.98041296e-04
7.17500000e-02	2.04756194e-02	7.13554087e-04
7.20000000e-02	1.99406369e-02	6.92809109e-04
7.22500000e-02	1.97266075e-02	6.79500983e-04
7.25000000e-02	2.00190379e-02	6.88542310e-04
7.27500000e-02	2.00670833e-02	6.92093436e-04
7.30000000e-02	1.99349067e-02	6.87322252e-04
7.32500000e-02	1.96268998e-02	6.78830300e-04
7.35000000e-02	1.99192801e-02	6.85838006e-04
7.37500000e-02	2.04903560e-02	6.97558282e-04
7.40000000e-02	1.97783364e-02	6.75399408e-04
7.42500000e-02	1.96316511e-02	6.67626003e-04
7.45000000e-02	2.02007401e-02	6.87699555e-04
7.47500000e-02	1.97348087e-02	6.69454084e-04
7.50000000e-02	1.93818612e-02	6.54675823e-04
7.52500000e-02	1.97980190e-02	6.68101900e-04
7.55000000e-02	2.02485022e-02	6.76282566e-04
7.57500000e-02	2.02234660e-02	6.79189752e-04
7.60000000e-02	2.04114597e-02	6.89033107e-04
7.62500000e-02	2.02895841e-02	6.85692579e-04
7.65000000e-02	2.04076121e-02	6.86671604e-04
7.67500000e-02	2.07541686e-02	6.94759209e-04
7.70000000e-02	1.96421578e-02	6.59833130e-04
7.72500000e-02	1.99667197e-02	6.77727129e-04
7.75000000e-02	1.99694832e-02	6.92598011e-04
7.77500000e-02	1.96813679e-02	6.84255113e-04
7.80000000e-02	1.95633136e-02	6.85138462e-04
7.82500000e-02	1.97225398e-02	6.94119759e-04
7.85000000e-02	1.97397107e-02	6.99543710e-04
7.87500000e-02	2.03533890e-02	7.13636683e-04
7.90000000e-02	1.96128289e-02	7.00976144e-04
7.92500000e-02	1.97858856e-02	7.03846776e-04
7.95000000e-02	2.04680753e-02	7.28778117e-04
7.97500000e-02	2.03435044e-02	7.29202781e-04
8.00000000e-02	2.02180498e-02	7.15881689e-04
8.02500000e-02	2.00376801e-02	7.16467916e-04
8.05000000e-02	2.01806882e-02	7.26338962e-04
8.07500000e-02	1.96819847e-02	7.18430550e-04
8.10000000e-02	1.92832491e-02	6.99576824e-04
8.12500000e-02	1.97792927e-02	7.17990474e-04
8.15000000e-02	1.96963032e-02	7.09411968e-04
8.17500000e-02	2.02375038e-02	7.34382580e-04
8.20000000e-02	1.95486378e-02	7.09208621e-04
8.22500000e-02	1.92527437e-02	7.06504461e-04
8.25000000e-02	2.00329028e-02	7.26036844e-04
8.27500000e-02	1.96832395e-02	7.17240757e-04
8.30000000e-02	2.05664169e-02	7.50492938e-04
8.32500000e-02	1.94801568e-02	7.18287304e-04
8.35000000e-02	2.02698910e-02	7.46156960e-04
8.37500000e-02	1.97458353e-02	7.21975859e-04
8.40000000e-02	1.99118448e-02	7.25390629e-04
8.42500000e-02	1.98728022e-02	7.28388363e-04
8.45000000e-02	1.97354057e-02	7.27351080e-04
8.47500000e-02	1.96663868e-02	7.28187767e-04
8.50000000e-02	1.93214155e-02	7.09762894e-04
8.52500000e-02	2.03033141e-02	7.52494594e-04
8.55000000e-02	1.99477741e-02	7.38752093e-04
8.57500000e-02	1.96563169e-02	7.35048020e-04
8.60000000e-02	1.96997359e-02	7.29838715e-04
8.62500000e-02	1.99446339e-02	7.38642682e-04
8.65000000e-02	1.94255695e-02	7.27426434e-04
8.67500000e-02	1.99303396e-02	7.29097978e-04
8.70000000e-02	1.98343499e-02	7.26574018e-04
8.72500000e-02	1.98245430e-02	7.11689294e-04
8.75000000e-02	2.02798323e-02	7.18452835e-04
8.77500000e-02	2.00577858e-02	7.02021329e-04
8.80000000e-02	1.96809116e-02	6.98406741e-04
8.82500000e-02	1.99571776e-02	7.01977324e-04
8.85000000e-02	1.94734828e-02	6.84457775e-04
8.87500000e-02	1.97949898e-02	6.81200275e-04
8.90000000e-02	2.00482724e-02	6.88093042e-04
8.92500000e-02	2.04281717e-02	7.06670053e-04
8.95000000e-02	2.02457893e-02	6.88515766e-04
8.97500000e-02	2.01744942e-02	6.81177120e-04
9.00000000e-02	2.00547087e-02	6.76974085e-04
9.02500000e-02	2.01112581e-02	6.80043395e-04
9.05000000e-02	1.98759875e-02	6.74023824e-04
9.07500000e-02	1.97610936e-02	6.68369542e-04
9.10000000e-02	1.97896827e-02	6.58643008e-04
9.12500000e-02	1.95292284e-02	6.50753420e-04
9.15000000e-02	1.98898517e-02	6.67738402e-04
9.17500000e-02	2.00371441e-02	6.71496808e-04
9.20000000e-02	1.96690569e-02	6.55009323e-04
9.22500000e-02	1.95211815e-02	6.50459442e-04
9.25000000e-02	1.99898635e-02	6.56028380e-04
9.27500000e-02	1.94310500e-02	6.46839723e-04
9.30000000e-02	1.95002179e-02	6.45003651e-04
9.32500000e-02	1.98269012e-02	6.53304072e-04
9.35000000e-02	1.96829532e-02	6.48071617e-04
9.37500000e-02	1.99053919e-02	6.45124481e-04
9.40000000e-02	1.93991742e-02	6.43011563e-04
9.42500000e-02	1.97777067e-02	6.47090774e-04
9.45000000e-02	1.98063645e-02	6.47600835e-04
9.47500000e-02	2.03329928e-02	6.65349931e-04
9.50000000e-02	1.96556966e-02	6.39768285e-04
9.52500000e-02	2.01805417e-02	6.55729743e-04
9.55000000e-02	1.98315124e-02	6.44116625e-04
9.57500000e-02	2.00466841e-02	6.55208016e-04
9.60000000e-02	1.92460140e-02	6.21253092e-04
9.62500000e-02	1.97317713e-02	6.40093571e-04
9.65000000e-02	1.94712919e-02	6.26118459e-04
9.67500000e-02	2.00690626e-02	6.39740642e-04
9.70000000e-02	1.96697393e-02	6.31848251e-04
9.72500000e-02	1.96250327e-02	6.29875885e-04
9.75000000e-02	2.01408285e-02	6.45060147e-04
9.77500000e-02	1.93000986e-02	6.13980428e-04
9.80000000e-02	1.97361981e-02	6.27687854e-04
9.82500000e-02	1.98680020e-02	6.30059602e-04
9.85000000e-02	1.95885501e-02	6.24628244e-04
9.87500000e-02	1.98407107e-02	6.24438613e-04
9.90000000e-02	2.01742087e-02	6.38044132e-04
9.92500000e-02	2.00583083e-02	6.40668643e-04
9.95000000e-02	1.96392087e-02	6.23176214e-04
9.97500000e-02	1.97755445e-02	6.19689487e-04
1.00000000e-01	1.99434347e-02	5.11567828e-04
1.00500000e-01	1.98435499e-02	4.40916061e-04
1.01000000e-01	1.98904310e-02	4.39206723e-04
1.01500000e-01	2.00020283e-02	4.43747935e-04
1.02000000e-01	1.97830370e-02	4.35877936e-04
1.02500000e-01	1.95764367e-02	4.30093256e-04
1.03000000e-01	1.98362035e-02	4.34898075e-04
1.03500000e-01	1.97482075e-02	4.30807601e-04
1.04000000e-01	1.94409819e-02	4.23671123e-04
1.04500000e-01	1.95468943e-02	4.26305828e-04
1.05000000e-01	1.99161596e-02	4.29985987e-04
1.05500000e-01	1.95253120e-02	4.21720956e-04
1.06000000e-01	1.97941647e-02	4.24689334e-04
1.06500000e-01	1.94987971e-02	4.18073739e-04
1.07000000e-01	1.98426000e-02	4.32601152e-04
1.07500000e-01	1.97500461e-02	4.34180822e-04
1.08000000e-01	1.95621662e-02	4.39811938e-04
1.08500000e-01	1.98456032e-02	4.45381452e-04
1.09000000e-01	1.99329568e-02	4.51039827e-04
1.09500000e-01	2.00648079e-02	4.54919355e-04
1.10000000e-01	1.95584934e-02	4.38037947e-04
1.10500000e-01	1.95701226e-02	4.29830158e-04
1.11000000e-01	1.95331620e-02	4.23993115e-04
1.11500000e-01	1.96444467e-02	4.24315010e-04
1.12000000e-01	1.95769883e-02	4.16560355e-04
1.12500000e-01	1.96366159e-02	4.13929329e-04
1.13000000e-01	1.97908448e-02	4.20565576e-04
1.13500000e-01	1.96169080e-02	4.14127303e-04
1.14000000e-01	1.99592485e-02	4.16402894e-04
1.14500000e-01	1.95527895e-02	4.11702597e-04
1.15000000e-01	1.99653668e-02	4.15803002e-04
1.15500000e-01	1.96771071e-02	4.10536289e-04
1.16000000e-01	1.96038136e-02	4.07413808e-04
1.16500000e-01	1.95381969e-02	4.04443246e-04
1.17000000e-01	1.94998696e-02	4.03335764e-04
1.17500000e-01	1.98143219e-02	4.11907723e-04
1.18000000e-01	1.96550606e-02	4.07067706e-04
1.18500000e-01	1.95424017e-02	4.00756715e-04
1.19000000e-01	1.94572406e-02	3.99395415e-04
1.19500000e-01	1.95687374e-02	4.01575872e-04
1.20000000e-01	1.88945565e-02	3.85367936e-04
1.20500000e-01	1.94914447e-02	3.96249259e-04
1.21000000e-01	1.92396279e-02	3.90678134e-04
1.21500000e-01	1.96347043e-02	3.97580423e-04
1.22000000e-01	1.98566301e-02	4.00330598e-04
1.22500000e-01	1.97511655e-02	3.97111360e-04
1.23000000e-01	1.94601709e-02	3.90870300e-04
1.23500000e-01	1.92853504e-02	3.85712355e-04
1.24000000e-01	1.94640077e-02	3.89948564e-04
1.24500000e-01	1.96888252e-02	3.91630419e-04
1.25000000e-01	1.94466788e-02	3.89255508e-04
1.25500000e-01	1.97532266e-02	3.92047353e-04
1.26000000e-01	1.95510271e-02	3.87559323e-04
1.26500000e-01	1.95940656e-02	3.86500962e-04
1.27000000e-01	1.95025770e-02	3.85323989e-04
1.27500000e-01	1.94907005e-02	3.85376369e-04
1.28000000e-01	1.96455500e-02	3.86948242e-04
1.28500000e-01	1.97475184e-02	3.87116963e-04
1.29000000e-01	1.97080086e-02	3.86339018e-04
1.29500000e-01	1.96656248e-02	3.84170242e-04
1.30000000e-01	1.95536294e-02	3.80922928e-04
1.30500000e-01	1.96811431e-02	3.82180894e-04
1.31000000e-01	1.98413115e-02	3.84330930e-04
1.31500000e-01	1.93671428e-02	3.75967331e-04
1.32000000e-01	1.95688158e-02	3.79514470e-04
1.32500000e-01	1.93115111e-02	3.72278992e-04
1.33000000e-01	1.95820062e-02	3.75713552e-04
1.33500000e-01	1.95575730e-02	3.73791961e-04
1.34000000e-01	1.94787282e-02	3.73440281e-04
1.34500000e-01	1.97493264e-02	3.75229903e-04
1.35000000e-01	1.95282226e-02	3.71597598e-04
1.35500000e-01	1.94791166e-02	3.67890479e-04
1.36000000e-01	1.96043053e-02	3.69755120e-04
1.36500000e-01	1.94356042e-02	3.69893957e-04
1.37000000e-01	1.93710334e-02	3.64792301e-04
1.37500000e-01	1.94597482e-02	3.66117602e-04
1.38000000e-01	1.95599982e-02	3.68270756e-04
1.38500000e-01	1.93315767e-02	3.64437120e-04
1.39000000e-01	1.96919394e-02	3.70837778e-04
1.39500000e-01	1.94350298e-02	3.66122369e-04
1.40000000e-01	1.91940835e-02	3.60847040e-04
1.40500000e-01	1.94589516e-02	3.64373241e-04
1.41000000e-01	1.94306784e-02	3.64019454e-04
1.41500000e-01	1.96443673e-02	3.68315223e-04
1.42000000e-01	1.95514061e-02	3.64277525e-04
1.42500000e-01	1.94275923e-02	3.62256601e-04
1.43000000e-01	1.92803196e-02	3.58016752e-04
1.43500000e-01	1.96056070e-02	3.62942078e-04
1.44000000e-01	1.95626549e-02	3.63826680e-04
1.44500000e-01	1.93992015e-02	3.58902039e-04
1.45000000e-01	1.93811382e-02	3.59615780e-04
1.45500000e-01	1.93148124e-02	3.57644158e-04
1.46000000e-01	1.94705606e-02	3.60567604e-04
1.46500000e-01	1.94124782e-02	3.58215021e-04
1.47000000e-01	1.94093373e-02	3.56940159e-04
1.47500000e-01	1.94849036e-02	3.57362675e-04
1.48000000e-01	1.92787008e-02	3.54737930e-04
1.48500000e-01	1.93644930e-02	3.54368673e-04
1.49000000e-01	1.92208227e-02	3.50721111e-04
1.49500000e-01	1.90208887e-02	3.46540762e-04
1.50000000e-01	1.95344617e-02	3.54352981e-04
1.50500000e-01	1.89860154e-02	3.46435541e-04
1.51000000e-01	1.93580990e-02	3.51695155e-04
1.51500000e-01	1.93870322e-02	3.50691553e-04
1.52000000e-01	1.91759907e-02	3.45942390e-04
1.52500000e-01	1.92849329e-02	3.47097544e-04
1.53000000e-01	1.93203219e-02	3.47137786e-04
1.53500000e-01	1.92441936e-02	3.45358471e-04
1.54000000e-01	1.92678556e-02	3.44717993e-04
1.54500000e-01	1.91956066e-02	3.50581425e-04
1.55000000e-01	1.91247719e-02	3.53827341e-04
1.55500000e-01	1.91913103e-02	3.56613579e-04
1.56000000e-01	1.93763454e-02	3.61494764e-04
1.56500000e-01	1.92777702e-02	3.60309935e-04
1.57000000e-01	1.90981363e-02	3.57700995e-04
1.57500000e-01	1.92127882e-02	3.52910144e-04
1.58000000e-01	1.88586545e-02	3.41144498e-04
1.58500000e-01	1.91982055e-02	3.46746559e-04
1.59000000e-01	1.92592226e-02	3.45372053e-04
1.59500000e-01	1.91740542e-02	3.41648563e-04
1.60000000e-01	1.92602209e-02	3.45393860e-04
1.60500000e-01	1.89266092e-02	3.36300716e-04
1.61000000e-01	1.89739970e-02	3.38524071e-04
1.61500000e-01	1.91135778e-02	3.38089468e-04
1.62000000e-01	1.92427970e-02	3.38445327e-04
1.62500000e-01	1.89944036e-02	3.36506469e-04
1.63000000e-01	1.91900443e-02	3.37395563e-04
1.63500000e-01	1.90285101e-02	3.37275230e-04
1.64000000e-01	1.92431781e-02	3.37643847e-04
1.64500000e-01	1.90852109e-02	3.34581774e-04
1.65000000e-01	1.88940238e-02	3.30510247e-04
1.65500000e-01	1.90059613e-02	3.31786067e-04
1.66000000e-01	1.89292939e-02	3.30890807e-04
1.66500000e-01	1.89268808e-02	3.29787184e-04
1.67000000e-01	1.89962900e-02	3.31545656e-04
1.67500000e-01	1.88645038e-02	3.28684064e-04
1.68000000e-01	1.89411442e-02	3.28019197e-04
1.68500000e-01	1.92678039e-02	3.31600636e-04
1.69000000e-01	1.87837358e-02	3.25664936e-04
1.69500000e-01	1.85605891e-02	3.20247546e-04
1.70000000e-01	1.87924064e-02	3.25771981e-04
1.70500000e-01	1.88745289e-02	3.24678206e-04
1.71000000e-01	1.89308675e-02	3.25798147e-04
1.71500000e-01	1.89654027e-02	3.25529033e-04
1.72000000e-01	1.92868360e-02	3.29834325e-04
1.72500000e-01	1.88269736e-02	3.21069580e-04
1.73000000e-01	1.88072740e-02	3.22557140e-04
1.73500000e-01	1.89479453e-02	3.21750180e-04
1.74000000e-01	1.89549282e-02	3.22358299e-04
1.74500000e-01	1.88918963e-02	3.19961233e-04
1.75000000e-01	1.86799384e-02	3.15397037e-04
1.75500000e-01	1.87221230e-02	3.14427624e-04
1.76000000e-01	1.87669446e-02	3.15924770e-04
1.76500000e-01	1.87365358e-02	3.15445035e-04
1.77000000e-01	1.85672161e-02	3.11645672e-04
1.77500000e-01	1.85095571e-02	3.11242864e-04
1.78000000e-01	1.86544496e-02	3.11337614e-04
1.78500000e-01	1.86655581e-02	3.13120259e-04
1.79000000e-01	1.87602414e-02	3.15003785e-04
1.79500000e-01	1.86566930e-02	3.13317518e-04
1.80000000e-01	1.86361155e-02	3.12330887e-04
1.80500000e-01	1.85272982e-02	3.11298158e-04
1.81000000e-01	1.87283124e-02	3.13614739e-04
1.81500000e-01	1.84457931e-02	3.08542492e-04
1.82000000e-01	1.87569498e-02	3.12027725e-04
1.82500000e-01	1.86636693e-02	3.10272988e-04
1.83000000e-01	1.87230298e-02	3.12418375e-04
1.83500000e-01	1.85153798e-02	3.08451524e-04
1.84000000e-01	1.86717665e-02	3.09633508e-04
1.84500000e-01	1.85605587e-02	3.07281873e-04
1.85000000e-01	1.86042804e-02	3.07125886e-04
1.85500000e-01	1.89334466e-02	3.10498520e-04
1.86000000e-01	1.85796020e-02	3.06877113e-04
1.86500000e-01	1.83291147e-02	3.02025446e-04
1.87000000e-01	1.84505952e-02	3.03840597e-04
1.87500000e-01	1.86825404e-02	3.06162254e-04
1.88000000e-01	1.86469991e-02	3.05546408e-04
1.88500000e-01	1.86395957e-02	3.05279106e-04
1.89000000e-01	1.84187812e-02	3.01565516e-04
1.89500000e-01	1.82406332e-02	2.99331772e-04
1.90000000e-01	1.83996581e-02	2.99557573e-04
1.90500000e-01	1.82942245e-02	2.98044290e-04
1.91000000e-01	1.84208842e-02	2.99284668e-04
1.91500000e-01	1.86616230e-02	3.04109653e-04
1.92000000e-01	1.85997353e-02	3.01591306e-04
1.92500000e-01	1.82760546e-02	2.95184029e-04
1.93000000e-01	1.82354663e-02	2.95490936e-04
1.93500000e-01	1.82086755e-02	2.93574950e-04
1.94000000e-01	1.82103262e-02	2.94474631e-04
1.94500000e-01	1.84372013e-02	2.99146339e-04
1.95000000e-01	1.82663346e-02	2.95913424e-04
1.95500000e-01	1.81422612e-02	2.91345357e-04
1.96000000e-01	1.82037450e-02	2.92706287e-04
1.96500000e-01	1.82303377e-02	2.93493668e-04
1.97000000e-01	1.84360374e-02	2.96527752e-04
1.97500000e-01	1.84624367e-02	2.94591116e-04
1.98000000e-01	1.80218850e-02	2.88843566e-04
1.98500000e-01	1.82179593e-02	2.90075228e-04
1.99000000e-01	1.82403693e-02	2.92563649e-04
1.99500000e-01	1.82145101e-02	2.90487600e-04
2.00000000e-01	1.82924990e-02	2.90833876e-04
2.00500000e-01	1.83906138e-02	2.92135601e-04
2.01000000e-01	1.82758781e-02	2.89738020e-04
2.01500000e-01	1.80874650e-02	2.87470095e-04
2.02000000e-01	1.79978162e-02	2.85708212e-04
2.02500000e-01	1.83021767e-02	2.89264201e-04
2.03000000e-01	1.81932285e-02	2.87834799e-04
2.03500000e-01	1.80998834e-02	2.84802935e-04
2.04000000e-01	1.79913447e-02	2.82902376e-04
2.04500000e-01	1.82774984e-02	2.88704405e-04
2.05000000e-01	1.81375305e-02	2.85229569e-04
2.05500000e-01	1.82775466e-02	2.87365423e-04
2.06000000e-01	1.82835391e-02	2.85885062e-04
2.06500000e-01	1.82910379e-02	2.87700626e-04
2.07000000e-01	1.83728404e-02	2.87706254e-04
2.07500000e-01	1.81858670e-02	2.83799082e-04
2.08000000e-01	1.81041445e-02	2.83016929e-04
2.08500000e-01	1.80531794e-02	2.81081934e-04
2.09000000e-01	1.80052092e-02	2.81117337e-04
2.09500000e-01	1.82654515e-02	2.83842675e-04
2.10000000e-01	1.82223650e-02	2.83117312e-04
2.10500000e-01	1.80163855e-02	2.80414529e-04
2.11000000e-01	1.81191839e-02	2.81641520e-04
2.11500000e-01	1.79013391e-02	2.78636453e-04
2.12000000e-01	1.81648140e-02	2.81112959e-04
2.12500000e-01	1.79918256e-02	2.78938624e-04
2.13000000e-01	1.80055832e-02	2.78918369e-04
2.13500000e-01	1.80474925e-02	2.78547945e-04
2.14000000e-01	1.81597737e-02	2.79621590e-04
2.14500000e-01	1.80912491e-02	2.78476926e-04
2.15000000e-01	1.80799892e-02	2.79994715e-04
2.15500000e-01	1.81427391e-02	2.77774905e-04
2.16000000e-01	1.78245517e-02	2.73696350e-04
2.16500000e-01	1.79912708e-02	2.77018390e-04
2.17000000e-01	1.82477745e-02	2.83529624e-04
2.17500000e-01	1.78913329e-02	2.82577226e-04
2.18000000e-01	1.79644739e-02	2.83754785e-04
2.18500000e-01	1.78787054e-02	2.86379843e-04
2.19000000e-01	1.78725803e-02	2.86408030e-04
2.19500000e-01	1.81139657e-02	2.90858678e-04
2.20000000e-01	1.80300442e-02	2.90405489e-04
2.20500000e-01	1.78956312e-02	2.89555112e-04
2.21000000e-01	1.80919971e-02	2.92873937e-04
2.21500000e-01	1.81099211e-02	2.95504510e-04
2.22000000e-01	1.79031799e-02	2.90978142e-04
2.22500000e-01	1.76353793e-02	2.88497744e-04
2.23000000e-01	1.81326512e-02	2.96493906e-04
2.23500000e-01	1.80705743e-02	2.95315449e-04
2.24000000e-01	1.76042241e-02	2.89940321e-04
2.24500000e-01	1.78986942e-02	2.95068662e-04
2.25000000e-01	1.78700518e-02	2.94712769e-04
2.25500000e-01	1.77509112e-02	2.93564034e-04
2.26000000e-01	1.77318095e-02	2.95628183e-04
2.26500000e-01	1.78956943e-02	2.92051963e-04
2.27000000e-01	1.78679518e-02	2.88114853e-04
2.27500000e-01	1.79524502e-02	2.87225360e-04
2.28000000e-01	1.78256093e-02	2.83787861e-04
2.28500000e-01	1.79343400e-02	2.85638228e-04
2.29000000e-01	1.78721304e-02	2.82909031e-04
2.29500000e-01	1.78280291e-02	2.81340589e-04
2.30000000e-01	1.77669648e-02	2.80899469e-04
2.30500000e-01	1.76394891e-02	2.76017596e-04
2.31000000e-01	1.77904523e-02	2.78224447e-04
2.31500000e-01	1.79571483e-02	2.80729154e-04
2.32000000e-01	1.76914570e-02	2.75030879e-04
2.32500000e-01	1.78137619e-02	2.76234046e-04
2.33000000e-01	1.76028169e-02	2.72425621e-04
2.33500000e-01	1.77356927e-02	2.73516795e-04
2.34000000e-01	1.77704351e-02	2.72961739e-04
2.34500000e-01	1.77512217e-02	2.72805155e-04
2.35000000e-01	1.78090648e-02	2.73481129e-04
2.35500000e-01	1.77528645e-02	2.71995287e-04
2.36000000e-01	1.76137583e-02	2.69520911e-04
2.36500000e-01	1.76923618e-02	2.70067153e-04
2.37000000e-01	1.76938964e-02	2.68615164e-04
2.37500000e-01	1.75879887e-02	2.68956164e-04
2.38000000e-01	1.76596707e-02	2.68257141e-04
2.38500000e-01	1.77768622e-02	2.69576549e-04
2.39000000e-01	1.76664801e-02	2.66955997e-04
2.39500000e-01	1.77630038e-02	2.69542193e-04
2.40000000e-01	1.77081722e-02	2.66802285e-04
2.40500000e-01	1.77669368e-02	2.67563830e-04
2.41000000e-01	1.77136831e-02	2.65394519e-04
2.41500000e-01	1.76806169e-02	2.64743054e-04
2.42000000e-01	1.78944332e-02	2.68941279e-04
2.42500000e-01	1.75735887e-02	2.62275389e-04
2.43000000e-01	1.74682573e-02	2.60730766e-04
2.43500000e-01	1.75498964e-02	2.62443315e-04
2.44000000e-01	1.77487255e-02	2.62936600e-04
2.44500000e-01	1.76108317e-02	2.61280583e-04
2.45000000e-01	1.74873913e-02	2.59083498e-04
2.45500000e-01	1.76004286e-02	2.61783218e-04
2.46000000e-01	1.78083621e-02	2.63813388e-04
2.46500000e-01	1.73015306e-02	2.56396769e-04
2.47000000e-01	1.73829289e-02	2.57707148e-04
2.47500000e-01	1.73577944e-02	2.56238623e-04
2.48000000e-01	1.75188332e-02	2.58245100e-04
2.48500000e-01	1.75094843e-02	2.58068172e-04
2.49000000e-01	1.74983635e-02	2.56547558e-04
2.49500000e-01	1.75791758e-02	2.57820366e-04
2.50000000e-01	1.73762702e-02	2.54429134e-04
2.50500000e-01	1.73873061e-02	2.55793738e-04
2.51000000e-01	1.76289420e-02	2.57960760e-04
2.51500000e-01	1.74249201e-02	2.55165757e-04
2.52000000e-01	1.73504894e-02	2.53469466e-04
2.52500000e-01	1.73731329e-02	2.53568409e-04
2.53000000e-01	1.74740177e-02	2.56350713e-04
2.53500000e-01	1.74074561e-02	2.53659984e-04
2.54000000e-01	1.75520078e-02	2.56670530e-04
2.54500000e-01	1.73198875e-02	2.52492906e-04
2.55000000e-01	1.76008387e-02	2.55208057e-04
2.55500000e-01	1.74192361e-02	2.53662256e-04
2.56000000e-01	1.71529952e-02	2.48702766e-04
2.56500000e-01	1.72109987e-02	2.49015505e-04
2.57000000e-01	1.75612120e-02	2.53066495e-04
2.57500000e-01	1.74075083e-02	2.51529201e-04
2.58000000e-01	1.71495636e-02	2.48808714e-04
2.58500000e-01	1.73934429e-02	2.49874319e-04
2.59000000e-01	1.73275278e-02	2.49721982e-04
2.59500000e-01	1.72009820e-02	2.47226351e-04
2.60000000e-01	1.73849151e-02	2.49578687e-04
2.60500000e-01	1.72812076e-02	2.48580782e-04
2.61000000e-01	1.74008980e-02	2.49453892e-04
2.61500000e-01	1.72155061e-02	2.47102557e-04
2.62000000e-01	1.72765223e-02	2.46466154e-04
2.62500000e-01	1.73170081e-02	2.47513119e-04
2.63000000e-01	1.72208665e-02	2.47342542e-04
2.63500000e-01	1.71472642e-02	2.44161948e-04
2.64000000e-01	1.72789309e-02	2.45804551e-04
2.64500000e-01	1.72477967e-02	2.46155972e-04
2.65000000e-01	1.73415973e-02	2.47036254e-04
2.65500000e-01	1.71976248e-02	2.44408894e-04
2.66000000e-01	1.70333791e-02	2.42323878e-04
2.66500000e-01	1.70811246e-02	2.42089254e-04
2.67000000e-01	1.72795952e-02	2.44217847e-04
2.67500000e-01	1.73342291e-02	2.44706592e-04
2.68000000e-01	1.72076425e-02	2.43025988e-04
2.68500000e-01	1.73010300e-02	2.43527487e-04
2.69000000e-01	1.70949373e-02	2.40300266e-04
2.69500000e-01	1.70706106e-02	2.40669437e-04
2.70000000e-01	1.71960369e-02	2.41232631e-04
2.70500000e-01	1.69958697e-02	2.38785879e-04
2.71000000e-01	1.74368645e-02	2.44102119e-04
2.71500000e-01	1.71388804e-02	2.40114792e-04
2.72000000e-01	1.70973549e-02	2.39820421e-04
2.72500000e-01	1.70965758e-02	2.39774972e-04
2.73000000e-01	1.70559553e-02	2.38339966e-04
2.73500000e-01	1.71188531e-02	2.39344521e-04
2.74000000e-01	1.69842819e-02	2.36764011e-04
2.74500000e-01	1.72816026e-02	2.39980829e-04
2.75000000e-01	1.72740871e-02	2.40446741e-04
2.75500000e-01	1.71099146e-02	2.39596955e-04
2.76000000e-01	1.69329206e-02	2.35318336e-04
2.76500000e-01	1.69752899e-02	2.35992723e-04
2.77000000e-01	1.69033879e-02	2.36049398e-04
2.77500000e-01	1.70928413e-02	2.37913289e-04
2.78000000e-01	1.70314578e-02	2.35471658e-04
2.78500000e-01	1.70820257e-02	2.37390574e-04
2.79000000e-01	1.69326338e-02	2.34817333e-04
2.79500000e-01	1.68767270e-02	2.32974735e-04
2.80000000e-01	1.70702186e-02	2.35609843e-04
2.80500000e-01	1.68629803e-02	2.32648380e-04
2.81000000e-01	1.69071263e-02	2.33401043e-04
2.81500000e-01	1.69520683e-02	2.33233024e-04
2.82000000e-01	1.69542990e-02	2.33593846e-04
2.82500000e-01	1.71967031e-02	2.36533528e-04
2.83000000e-01	1.70304177e-02	2.34017111e-04
2.83500000e-01	1.70080398e-02	2.34486598e-04
2.84000000e-01	1.67945750e-02	2.30107987e-04
2.84500000e-01	1.70074896e-02	2.32624318e-04
2.85000000e-01	1.66930937e-02	2.28425615e-04
2.85500000e-01	1.68030617e-02	2.29716138e-04
2.86000000e-01	1.68798338e-02	2.31876036e-04
2.86500000e-01	1.68152273e-02	2.29293186e-04
2.87000000e-01	1.68303145e-02	2.30346516e-04
2.87500000e-01	1.69327278e-02	2.30677130e-04
2.88000000e-01	1.69074023e-02	2.28958381e-04
2.88500000e-01	1.69846841e-02	2.31121125e-04
2.89000000e-01	1.67127236e-02	2.27185906e-04
2.89500000e-01	1.68216169e-02	2.28185067e-04
2.90000000e-01	1.68569388e-02	2.29006335e-04
2.90500000e-01	1.68571370e-02	2.28238768e-04
2.91000000e-01	1.69919821e-02	2.29639068e-04
2.91500000e-01	1.69059314e-02	2.28490658e-04
2.92000000e-01	1.70225980e-02	2.29325368e-04
2.92500000e-01	1.68059813e-02	2.26649674e-04
2.93000000e-01	1.68135602e-02	2.26188807e-04
2.93500000e-01	1.70464481e-02	2.29373967e-04
2.94000000e-01	1.67240141e-02	2.24923176e-04
2.94500000e-01	1.69788661e-02	2.29512257e-04
2.95000000e-01	1.68387187e-02	2.25883401e-04
2.95500000e-01	1.66338449e-02	2.24313267e-04
2.96000000e-01	1.68964903e-02	2.27153687e-04
2.96500000e-01	1.65993391e-02	2.22670575e-04
2.97000000e-01	1.68464023e-02	2.25701768e-04
2.97500000e-01	1.68031146e-02	2.24846011e-04
2.98000000e-01	1.66796656e-02	2.23275133e-04
2.98500000e-01	1.67890508e-02	2.24279551e-04
2.99000000e-01	1.67297160e-02	2.23962215e-04
2.99500000e-01	1.69250129e-02	2.26735763e-04
3.00000000e-01	1.68365756e-02	2.23841296e-04
3.00500000e-01	1.66427290e-02	2.21821142e-04
3.01000000e-01	1.68012919e-02	2.23328041e-04
3.01500000e-01	1.67443989e-02	2.23021119e-04
3.02000000e-01	1.66595444e-02	2.20820278e-04
3.02500000e-01	1.67830900e-02	2.23062325e-04
3.03000000e-01	1.66642916e-02	2.21912758e-04
3.03500000e-01	1.65592262e-02	2.19007180e-04
3.04000000e-01	1.65226575e-02	2.20080974e-04
3.04500000e-01	1.66736216e-02	2.20261871e-04
3.05000000e-01	1.66930538e-02	2.20507637e-04
3.05500000e-01	1.64608940e-02	2.18343874e-04
3.06000000e-01	1.65622640e-02	2.17721395e-04
3.06500000e-01	1.67551090e-02	2.20288381e-04
3.07000000e-01	1.66006597e-02	2.17880555e-04
3.07500000e-01	1.67165865e-02	2.19880879e-04
3.08000000e-01	1.65070542e-02	2.17852033e-04
3.08500000e-01	1.66090036e-02	2.17797757e-04
3.09000000e-01	1.64262882e-02	2.15905995e-04
3.09500000e-01	1.65357737e-02	2.16498914e-04
3.10000000e-01	1.67368680e-02	2.19103557e-04
3.10500000e-01	1.66620794e-02	2.18870039e-04
3.11000000e-01	1.66395331e-02	2.18320168e-04
3.11500000e-01	1.66026481e-02	2.17235743e-04
3.12000000e-01	1.64773243e-02	2.15541752e-04
3.12500000e-01	1.64964524e-02	2.15638757e-04
3.13000000e-01	1.65809195e-02	2.16684698e-04
3.13500000e-01	1.65105690e-02	2.14582116e-04
3.14000000e-01	1.64988981e-02	2.15538395e-04
3.14500000e-01	1.64303186e-02	2.13825133e-04
3.15000000e-01	1.64599839e-02	2.14295694e-04
3.15500000e-01	1.66694041e-02	2.17002164e-04
3.16000000e-01	1.64413668e-02	2.14193728e-04
3.16500000e-01	1.64570837e-02	2.14164446e-04
3.17000000e-01	1.62806995e-02	2.11490047e-04
3.17500000e-01	1.64992196e-02	2.14586141e-04
3.18000000e-01	1.65281093e-02	2.13534258e-04
3.18500000e-01	1.64469700e-02	2.13760491e-04
3.19000000e-01	1.64821434e-02	2.12875897e-04
3.19500000e-01	1.62757676e-02	2.11043066e-04
3.20000000e-01	1.64056029e-02	2.11702333e-04
3.20500000e-01	1.63286705e-02	2.11535154e-04
3.21000000e-01	1.64232303e-02	2.11761413e-04
3.21500000e-01	1.64482286e-02	2.12407233e-04
3.22000000e-01	1.63497696e-02	2.10761738e-04
3.22500000e-01	1.62625593e-02	2.09286003e-04
3.23000000e-01	1.62517001e-02	2.08741635e-04
3.23500000e-01	1.60786693e-02	2.07202626e-04
3.24000000e-01	1.63136514e-02	2.09653788e-04
3.24500000e-01	1.62333111e-02	2.09211534e-04
3.25000000e-01	1.62512576e-02	2.08335255e-04
3.25500000e-01	1.64884059e-02	2.11239891e-04
3.26000000e-01	1.60616544e-02	2.06268793e-04
3.26500000e-01	1.61976302e-02	2.07999009e-04
3.27000000e-01	1.61196684e-02	2.06021642e-04
3.27500000e-01	1.63683588e-02	2.08826033e-04
3.28000000e-01	1.61795903e-02	2.07191671e-04
3.28500000e-01	1.61157189e-02	2.05715427e-04
3.29000000e-01	1.62274949e-02	2.07458085e-04
3.29500000e-01	1.62825428e-02	2.07711292e-04
3.30000000e-01	1.62316058e-02	2.06626067e-04
3.30500000e-01	1.61742650e-02	2.05976681e-04
3.31000000e-01	1.59325324e-02	2.03275193e-04
3.31500000e-01	1.60229631e-02	2.03496797e-04
3.32000000e-01	1.61051448e-02	2.04741904e-04
3.32500000e-01	1.60627490e-02	2.03487471e-04
3.33000000e-01	1.62500098e-02	2.05783036e-04
3.33500000e-01	1.61895465e-02	2.04715775e-04
3.34000000e-01	1.62544202e-02	2.05500926e-04
3.34500000e-01	1.59963764e-02	2.03009003e-04
3.35000000e-01	1.62638156e-02	2.05437173e-04
3.35500000e-01	1.60863126e-02	2.03895771e-04
3.36000000e-01	1.60302550e-02	2.02569637e-04
3.36500000e-01	1.60687133e-02	2.02979438e-04
3.37000000e-01	1.62138803e-02	2.03789858e-04
3.37500000e-01	1.62073293e-02	2.04107496e-04
3.38000000e-01	1.61350164e-02	2.03918018e-04
3.38500000e-01	1.59789904e-02	2.01178440e-04
3.39000000e-01	1.61342447e-02	2.03230955e-04
3.39500000e-01	1.61766515e-02	2.02734528e-04
3.40000000e-01	1.59340857e-02	2.00662174e-04
3.40500000e-01	1.59765197e-02	2.00690521e-04
3.41000000e-01	1.57388255e-02	1.97820903e-04
3.41500000e-01	1.60315856e-02	2.01260306e-04
3.42000000e-01	1.60397175e-02	2.00747470e-04
3.42500000e-01	1.59488058e-02	1.99664676e-04
3.43000000e-01	1.59434126e-02	1.98951546e-04
3.43500000e-01	1.60678043e-02	2.00086171e-04
3.44000000e-01	1.59242258e-02	1.99355195e-04
3.44500000e-01	1.59606427e-02	1.98603155e-04
3.45000000e-01	1.59365572e-02	1.98568278e-04
3.45500000e-01	1.58812489e-02	1.97926027e-04
3.46000000e-01	1.58325547e-02	1.97461569e-04
3.46500000e-01	1.57669110e-02	1.97113560e-04
3.47000000e-01	1.58038708e-02	1.96120065e-04
3.47500000e-01	1.61477540e-02	2.00842129e-04
3.48000000e-01	1.58131221e-02	1.95901830e-04
3.48500000e-01	1.60245133e-02	1.99263816e-04
3.49000000e-01	1.58944617e-02	1.97253037e-04
3.49500000e-01	1.58862889e-02	1.97535900e-04
3.50000000e-01	1.57160084e-02	1.59132673e-04
3.51000000e-01	1.58499860e-02	1.38622386e-04
3.52000000e-01	1.58692257e-02	1.38522135e-04
3.53000000e-01	1.57370985e-02	1.37022182e-04
3.54000000e-01	1.57511917e-02	1.36991943e-04
3.55000000e-01	1.58059124e-02	1.37199806e-04
3.56000000e-01	1.57192528e-02	1.37359923e-04
3.57000000e-01	1.56663099e-02	1.39226795e-04
3.58000000e-01	1.58358561e-02	1.41945252e-04
3.59000000e-01	1.57041151e-02	1.41672607e-04
3.60000000e-01	1.55759039e-02	1.41618194e-04
3.61000000e-01	1.56240445e-02	1.42364599e-04
3.62000000e-01	1.55537489e-02	1.42530434e-04
3.63000000e-01	1.55248895e-02	1.43080213e-04
3.64000000e-01	1.55415954e-02	1.43542033e-04
3.65000000e-01	1.54107293e-02	1.42792860e-04
3.66000000e-01	1.55729271e-02	1.42823277e-04
3.67000000e-01	1.54355040e-02	1.39317239e-04
3.68000000e-01	1.54479154e-02	1.38622482e-04
3.69000000e-01	1.54758214e-02	1.38020509e-04
3.70000000e-01	1.55706934e-02	1.38477560e-04
3.71000000e-01	1.54318002e-02	1.38545655e-04
3.72000000e-01	1.54306976e-02	1.39983136e-04
3.73000000e-01	1.56178512e-02	1.41707983e-04
3.74000000e-01	1.55430255e-02	1.41129807e-04
3.75000000e-01	1.55770100e-02	1.41490502e-04
3.76000000e-01	1.53539110e-02	1.39813094e-04
3.77000000e-01	1.55334578e-02	1.41106723e-04
3.78000000e-01	1.54451335e-02	1.40345809e-04
3.79000000e-01	1.53793298e-02	1.39840816e-04
3.80000000e-01	1.54437132e-02	1.40296925e-04
3.81000000e-01	1.53772120e-02	1.39229864e-04
3.82000000e-01	1.54702452e-02	1.40441942e-04
3.83000000e-01	1.52632312e-02	1.38357679e-04
3.84000000e-01	1.53587707e-02	1.39108391e-04
3.85000000e-01	1.54010728e-02	1.39916286e-04
3.86000000e-01	1.53181226e-02	1.39079139e-04
3.87000000e-01	1.53054256e-02	1.38593128e-04
3.88000000e-01	1.53886502e-02	1.39232226e-04
3.89000000e-01	1.51412692e-02	1.37629270e-04
3.90000000e-01	1.53437236e-02	1.38927995e-04
3.91000000e-01	1.50669047e-02	1.36601390e-04
3.92000000e-01	1.52827310e-02	1.38295439e-04
3.93000000e-01	1.51603181e-02	1.37086660e-04
3.94000000e-01	1.53273885e-02	1.38287412e-04
3.95000000e-01	1.52294796e-02	1.37703944e-04
3.96000000e-01	1.51222609e-02	1.36734903e-04
3.97000000e-01	1.52169848e-02	1.37442503e-04
3.98000000e-01	1.51970895e-02	1.37504738e-04
3.99000000e-01	1.50783057e-02	1.36476948e-04
4.00000000e-01	1.51162066e-02	1.36620247e-04
4.01000000e-01	1.51264218e-02	1.37092277e-04
4.02000000e-01	1.50961567e-02	1.36439958e-04
4.03000000e-01	1.51076848e-02	1.36408684e-04
4.04000000e-01	1.51684967e-02	1.36940112e-04
4.05000000e-01	1.50710721e-02	1.35949948e-04
4.06000000e-01	1.49677929e-02	1.35562656e-04
4.07000000e-01	1.49007366e-02	1.34949078e-04
4.08000000e-01	1.50136105e-02	1.35868859e-04
4.09000000e-01	1.50546841e-02	1.35800676e-04
4.10000000e-01	1.48673595e-02	1.34313476e-04
4.11000000e-01	1.50742479e-02	1.35730308e-04
4.12000000e-01	1.49893158e-02	1.35431532e-04
4.13000000e-01	1.48965680e-02	1.34442839e-04
4.14000000e-01	1.48968402e-02	1.34291303e-04
4.15000000e-01	1.50782029e-02	1.35729960e-04
4.16000000e-01	1.49147477e-02	1.33966464e-04
4.17000000e-01	1.49913822e-02	1.35252946e-04
4.18000000e-01	1.49162914e-02	1.35608273e-04
4.19000000e-01	1.49945480e-02	1.38211809e-04
4.20000000e-01	1.49962900e-02	1.38792452e-04
4.21000000e-01	1.49938684e-02	1.39063960e-04
4.22000000e-01	1.49679236e-02	1.39883216e-04
4.23000000e-01	1.50108846e-02	1.40520081e-04
4.24000000e-01	1.49618189e-02	1.40357414e-04
4.25000000e-01	1.49819932e-02	1.40867158e-04
4.26000000e-01	1.48684891e-02	1.39925842e-04
4.27000000e-01	1.49679061e-02	1.40904004e-04
4.28000000e-01	1.49503454e-02	1.40651881e-04
4.29000000e-01	1.49052037e-02	1.40975429e-04
4.30000000e-01	1.49970645e-02	1.41079422e-04
4.31000000e-01	1.49813758e-02	1.40864707e-04
4.32000000e-01	1.48408971e-02	1.40289146e-04
4.33000000e-01	1.47911675e-02	1.39633710e-04
4.34000000e-01	1.48531321e-02	1.40516222e-04
4.35000000e-01	1.47772069e-02	1.39959117e-04
4.36000000e-01	1.47803332e-02	1.39872633e-04
4.37000000e-01	1.48637843e-02	1.40988642e-04
4.38000000e-01	1.47863419e-02	1.40563156e-04
4.39000000e-01	1.50271228e-02	1.42986384e-04
4.40000000e-01	1.48349022e-02	1.40824933e-04
4.41000000e-01	1.47655980e-02	1.40940638e-04
4.42000000e-01	1.46580955e-02	1.40108561e-04
4.43000000e-01	1.48239462e-02	1.41397455e-04
4.44000000e-01	1.47073462e-02	1.41004483e-04
4.45000000e-01	1.47599118e-02	1.41387129e-04
4.46000000e-01	1.47562722e-02	1.41272185e-04
4.47000000e-01	1.48237801e-02	1.42084670e-04
4.48000000e-01	1.47813345e-02	1.42148487e-04
4.49000000e-01	1.47157812e-02	1.41560181e-04
4.50000000e-01	1.46574850e-02	1.41414207e-04
4.51000000e-01	1.46722871e-02	1.41879645e-04
4.52000000e-01	1.46989533e-02	1.42172370e-04
4.53000000e-01	1.46937871e-02	1.42208819e-04
4.54000000e-01	1.47465897e-02	1.42277721e-04
4.55000000e-01	1.47044829e-02	1.42063791e-04
4.56000000e-01	1.47436082e-02	1.42606139e-04
4.57000000e-01	1.45433681e-02	1.41045149e-04
4.58000000e-01	1.46507767e-02	1.42281655e-04
4.59000000e-01	1.47382465e-02	1.42656814e-04
4.60000000e-01	1.45989603e-02	1.41599459e-04
4.61000000e-01	1.46427545e-02	1.42291556e-04
4.62000000e-01	1.45135668e-02	1.41323814e-04
4.63000000e-01	1.45264309e-02	1.41717787e-04
4.64000000e-01	1.45279649e-02	1.41948589e-04
4.65000000e-01	1.45816478e-02	1.42092746e-04
4.66000000e-01	1.45102890e-02	1.41684260e-04
4.67000000e-01	1.45269481e-02	1.41838606e-04
4.68000000e-01	1.45082897e-02	1.41458086e-04
4.69000000e-01	1.46234879e-02	1.43161754e-04
4.70000000e-01	1.45252334e-02	1.42413352e-04
4.71000000e-01	1.46005411e-02	1.43034352e-04
4.72000000e-01	1.44684386e-02	1.41452303e-04
4.73000000e-01	1.44677681e-02	1.41594336e-04
4.74000000e-01	1.45393323e-02	1.42409456e-04
4.75000000e-01	1.45132814e-02	1.41491403e-04
4.76000000e-01	1.44524702e-02	1.40831732e-04
4.77000000e-01	1.43923246e-02	1.40934253e-04
4.78000000e-01	1.44102851e-02	1.41341439e-04
4.79000000e-01	1.43940717e-02	1.41205333e-04
4.80000000e-01	1.44412215e-02	1.41601998e-04
4.81000000e-01	1.43387143e-02	1.40559488e-04
4.82000000e-01	1.42915773e-02	1.40046290e-04
4.83000000e-01	1.43112976e-02	1.40775367e-04
4.84000000e-01	1.43010543e-02	1.40791205e-04
4.85000000e-01	1.45061517e-02	1.42513244e-04
4.86000000e-01	1.43366561e-02	1.41128534e-04
4.87000000e-01	1.42752869e-02	1.40646100e-04
4.88000000e-01	1.43871796e-02	1.41595315e-04
4.89000000e-01	1.43663534e-02	1.41419437e-04
4.90000000e-01	1.42810102e-02	1.41113637e-04
4.91000000e-01	1.41810545e-02	1.40040488e-04
4.92000000e-01	1.41645717e-02	1.40138392e-04
4.93000000e-01	1.44097568e-02	1.42039163e-04
4.94000000e-01	1.42645359e-02	1.41045781e-04
4.95000000e-01	1.41361802e-02	1.40892437e-04
4.96000000e-01	1.44497850e-02	1.47543101e-04
4.97000000e-01	1.42934056e-02	1.48905289e-04
4.98000000e-01	1.42977695e-02	1.50892410e-04
4.99000000e-01	1.42201261e-02	1.52304458e-04
5.00000000e-01	1.42992883e-02	1.54575364e-04
5.01000000e-01	1.42670830e-02	1.55561972e-04
5.02000000e-01	1.41872826e-02	1.56850424e-04
5.03000000e-01	1.43027081e-02	1.59497817e-04
5.04000000e-01	1.42964056e-02	1.59881088e-04
5.05000000e-01	1.43389282e-02	1.58022485e-04
5.06000000e-01	1.43224869e-02	1.55038412e-04
5.07000000e-01	1.41250378e-02	1.51424600e-04
5.08000000e-01	1.42321104e-02	1.51294861e-04
5.09000000e-01	1.41808479e-02	1.50154053e-04
5.10000000e-01	1.42820400e-02	1.50349328e-04
5.11000000e-01	1.41225071e-02	1.48083466e-04
5.12000000e-01	1.41687251e-02	1.48669220e-04
5.13000000e-01	1.42352108e-02	1.49544501e-04
5.14000000e-01	1.41900363e-02	1.48732773e-04
5.15000000e-01	1.42586060e-02	1.48311604e-04
5.16000000e-01	1.41697082e-02	1.47304344e-04
5.17000000e-01	1.40718994e-02	1.46548464e-04
5.18000000e-01	1.40148994e-02	1.45613055e-04
5.19000000e-01	1.42093766e-02	1.46621172e-04
5.20000000e-01	1.41848334e-02	1.46406488e-04
5.21000000e-01	1.39376996e-02	1.43812381e-04
5.22000000e-01	1.41894484e-02	1.46112052e-04
5.23000000e-01	1.39032634e-02	1.43473724e-04
5.24000000e-01	1.40324049e-02	1.44800333e-04
5.25000000e-01	1.39657548e-02	1.43895496e-04
5.26000000e-01	1.40056236e-02	1.44154848e-04
5.27000000e-01	1.40016850e-02	1.44430871e-04
5.28000000e-01	1.40169440e-02	1.44731609e-04
5.29000000e-01	1.39869034e-02	1.44006848e-04
5.30000000e-01	1.40636164e-02	1.45505051e-04
5.31000000e-01	1.38951958e-02	1.43902816e-04
5.32000000e-01	1.39923227e-02	1.44296344e-04
5.33000000e-01	1.38687253e-02	1.42774791e-04
5.34000000e-01	1.39601136e-02	1.43829330e-04
5.35000000e-01	1.38924868e-02	1.42966216e-04
5.36000000e-01	1.38948167e-02	1.43492913e-04
5.37000000e-01	1.39467258e-02	1.43681434e-04
5.38000000e-01	1.38430339e-02	1.42540073e-04
5.39000000e-01	1.38812912e-02	1.43038603e-04
5.40000000e-01	1.38236758e-02	1.42323622e-04
5.41000000e-01	1.38710313e-02	1.43325797e-04
5.42000000e-01	1.38194762e-02	1.42302871e-04
5.43000000e-01	1.38831636e-02	1.43071261e-04
5.44000000e-01	1.39680138e-02	1.43469978e-04
5.45000000e-01	1.38277895e-02	1.42255202e-04
5.46000000e-01	1.38740440e-02	1.42874328e-04
5.47000000e-01	1.38539364e-02	1.43105379e-04
5.48000000e-01	1.37669954e-02	1.41735962e-04
5.49000000e-01	1.36021347e-02	1.40728115e-04
5.50000000e-01	1.38538263e-02	1.42874064e-04
5.51000000e-01	1.37399225e-02	1.41272345e-04
5.52000000e-01	1.37724691e-02	1.41752751e-04
5.53000000e-01	1.38713467e-02	1.42301028e-04
5.54000000e-01	1.37655070e-02	1.40985346e-04
5.55000000e-01	1.38085651e-02	1.41068734e-04
5.56000000e-01	1.37056466e-02	1.40179031e-04
5.57000000e-01	1.36895569e-02	1.40301331e-04
5.58000000e-01	1.36987703e-02	1.40721855e-04
5.59000000e-01	1.36408103e-02	1.39528553e-04
5.60000000e-01	1.36757098e-02	1.40747159e-04
5.61000000e-01	1.38612078e-02	1.41478081e-04
5.62000000e-01	1.36197040e-02	1.39651532e-04
5.63000000e-01	1.35925657e-02	1.39457876e-04
5.64000000e-01	1.36076682e-02	1.39666339e-04
5.65000000e-01	1.35778243e-02	1.39716385e-04
5.66000000e-01	1.36111948e-02	1.39632621e-04
5.67000000e-01	1.34922213e-02	1.38719503e-04
5.68000000e-01	1.34806076e-02	1.38159764e-04
5.69000000e-01	1.36446917e-02	1.39326775e-04
5.70000000e-01	1.35246554e-02	1.38963410e-04
5.71000000e-01	1.34561804e-02	1.38112257e-04
5.72000000e-01	1.34343513e-02	1.37557172e-04
5.73000000e-01	1.33584651e-02	1.37472728e-04
5.74000000e-01	1.35895095e-02	1.39484827e-04
5.75000000e-01	1.35537835e-02	1.38566622e-04
5.76000000e-01	1.34961595e-02	1.38828414e-04
5.77000000e-01	1.34618094e-02	1.38467981e-04
5.78000000e-01	1.34762972e-02	1.38883755e-04
5.79000000e-01	1.34479125e-02	1.38142313e-04
5.80000000e-01	1.34142499e-02	1.37845338e-04
5.81000000e-01	1.35320064e-02	1.38713345e-04
5.82000000e-01	1.35917527e-02	1.39579778e-04
5.83000000e-01	1.33344693e-02	1.37511405e-04
5.84000000e-01	1.33825785e-02	1.37903966e-04
5.85000000e-01	1.32714697e-02	1.36678761e-04
5.86000000e-01	1.32957933e-02	1.37232940e-04
5.87000000e-01	1.32592245e-02	1.36506539e-04
5.88000000e-01	1.32003414e-02	1.36113758e-04
5.89000000e-01	1.34391757e-02	1.38262091e-04
5.90000000e-01	1.32640555e-02	1.36981515e-04
5.91000000e-01	1.33146227e-02	1.37905237e-04
5.92000000e-01	1.32813045e-02	1.36960542e-04
5.93000000e-01	1.32717898e-02	1.36918104e-04
5.94000000e-01	1.33473174e-02	1.37555774e-04
5.95000000e-01	1.32029540e-02	1.36556331e-04
5.96000000e-01	1.32735139e-02	1.37139457e-04
5.97000000e-01	1.31633739e-02	1.35592732e-04
5.98000000e-01	1.32721570e-02	1.36916620e-04
5.99000000e-01	1.31570581e-02	1.35915139e-04
6.00000000e-01	1.32867868e-02	1.37100097e-04
6.01000000e-01	1.32095929e-02	1.36780086e-04
6.02000000e-01	1.31404365e-02	1.35718098e-04
6.03000000e-01	1.32507320e-02	1.36692732e-04
6.04000000e-01	1.32508389e-02	1.36928486e-04
6.05000000e-01	1.32386759e-02	1.36786896e-04
6.06000000e-01	1.31735446e-02	1.35741599e-04
6.07000000e-01	1.32552139e-02	1.37209296e-04
6.08000000e-01	1.30839770e-02	1.34956437e-04
6.09000000e-01	1.32431630e-02	1.37294078e-04
6.10000000e-01	1.32301870e-02	1.36667298e-04
6.11000000e-01	1.31958738e-02	1.36193567e-04
6.12000000e-01	1.31286060e-02	1.36224927e-04
6.13000000e-01	1.30985068e-02	1.36027706e-04
6.14000000e-01	1.30634982e-02	1.35044402e-04
6.15000000e-01	1.31115258e-02	1.35782668e-04
6.16000000e-01	1.30753067e-02	1.35357612e-04
6.17000000e-01	1.32507752e-02	1.36955427e-04
6.18000000e-01	1.31381901e-02	1.35811711e-04
6.19000000e-01	1.30951748e-02	1.35393031e-04
6.20000000e-01	1.30642357e-02	1.35318050e-04
6.21000000e-01	1.30353925e-02	1.34811096e-04
6.22000000e-01	1.30545087e-02	1.34756061e-04
6.23000000e-01	1.29948350e-02	1.33875470e-04
6.24000000e-01	1.29824899e-02	1.33661809e-04
6.25000000e-01	1.30852608e-02	1.34428718e-04
6.26000000e-01	1.29623512e-02	1.33382864e-04
6.27000000e-01	1.30526395e-02	1.34929087e-04
6.28000000e-01	1.30091828e-02	1.33589742e-04
6.29000000e-01	1.30319064e-02	1.33630997e-04
6.30000000e-01	1.28801491e-02	1.32582304e-04
6.31000000e-01	1.29646023e-02	1.33516814e-04
6.32000000e-01	1.30970442e-02	1.34922256e-04
6.33000000e-01	1.30640140e-02	1.34543206e-04
6.34000000e-01	1.29672473e-02	1.36538059e-04
6.35000000e-01	1.30578993e-02	1.41858920e-04
6.36000000e-01	1.30754344e-02	1.44724731e-04
6.37000000e-01	1.30411438e-02	1.46648594e-04
6.38000000e-01	1.29972203e-02	1.47866660e-04
6.39000000e-01	1.28804691e-02	1.48331016e-04
6.40000000e-01	1.28895540e-02	1.50716059e-04
6.41000000e-01	1.29498171e-02	1.51763358e-04
6.42000000e-01	1.29904972e-02	1.54430720e-04
6.43000000e-01	1.31224565e-02	1.55932410e-04
6.44000000e-01	1.29875832e-02	1.49422440e-04
6.45000000e-01	1.30792181e-02	1.48106393e-04
6.46000000e-01	1.31171672e-02	1.46814885e-04
6.47000000e-01	1.30708748e-02	1.45798267e-04
6.48000000e-01	1.29803686e-02	1.43615287e-04
6.49000000e-01	1.30231692e-02	1.43107121e-04
6.50000000e-01	1.30216701e-02	1.42618543e-04
6.51000000e-01	1.29120810e-02	1.41530219e-04
6.52000000e-01	1.30971112e-02	1.42135733e-04
6.53000000e-01	1.29508163e-02	1.40357219e-04
6.54000000e-01	1.29643587e-02	1.39964969e-04
6.55000000e-01	1.30313207e-02	1.40554916e-04
6.56000000e-01	1.29699965e-02	1.39411579e-04
6.57000000e-01	1.30498054e-02	1.40057876e-04
6.58000000e-01	1.29285617e-02	1.38910409e-04
6.59000000e-01	1.28944470e-02	1.38845969e-04
6.60000000e-01	1.29228270e-02	1.38631549e-04
6.61000000e-01	1.29006775e-02	1.37967549e-04
6.62000000e-01	1.29824700e-02	1.38791889e-04
6.63000000e-01	1.28346748e-02	1.37673763e-04
6.64000000e-01	1.28296332e-02	1.36617897e-04
6.65000000e-01	1.28338311e-02	1.37604923e-04
6.66000000e-01	1.28820182e-02	1.38187416e-04
6.67000000e-01	1.27981807e-02	1.36770056e-04
6.68000000e-01	1.30055636e-02	1.38888293e-04
6.69000000e-01	1.27637692e-02	1.36573459e-04
6.70000000e-01	1.29027459e-02	1.37591503e-04
6.71000000e-01	1.28717885e-02	1.36959338e-04
6.72000000e-01	1.28824341e-02	1.37425094e-04
6.73000000e-01	1.27701976e-02	1.36275900e-04
6.74000000e-01	1.29994591e-02	1.38472140e-04
6.75000000e-01	1.28951248e-02	1.37267429e-04
6.76000000e-01	1.28703870e-02	1.37119040e-04
6.77000000e-01	1.27029555e-02	1.35375182e-04
6.78000000e-01	1.27902026e-02	1.35952429e-04
6.79000000e-01	1.27128373e-02	1.35369413e-04
6.80000000e-01	1.27490989e-02	1.35734352e-04
6.81000000e-01	1.27272718e-02	1.35220138e-04
6.82000000e-01	1.27379641e-02	1.36086018e-04
6.83000000e-01	1.27409126e-02	1.35540738e-04
6.84000000e-01	1.27700567e-02	1.36009311e-04
6.85000000e-01	1.27057676e-02	1.35461849e-04
6.86000000e-01	1.27594864e-02	1.35427151e-04
6.87000000e-01	1.26682120e-02	1.34345066e-04
6.88000000e-01	1.28727168e-02	1.36708310e-04
6.89000000e-01	1.26208284e-02	1.34258730e-04
6.90000000e-01	1.27008302e-02	1.35110338e-04
6.91000000e-01	1.26671232e-02	1.34370475e-04
6.92000000e-01	1.26583767e-02	1.34429983e-04
6.93000000e-01	1.26220314e-02	1.34254126e-04
6.94000000e-01	1.26774043e-02	1.34524046e-04
6.95000000e-01	1.27993899e-02	1.36085985e-04
6.96000000e-01	1.26361550e-02	1.34258838e-04
6.97000000e-01	1.26601501e-02	1.34645310e-04
6.98000000e-01	1.26330487e-02	1.34027231e-04
6.99000000e-01	1.26919188e-02	1.34859025e-04
7.00000000e-01	1.27228076e-02	1.35293504e-04
7.01000000e-01	1.25683247e-02	1.33476230e-04
7.02000000e-01	1.26171533e-02	1.34327512e-04
7.03000000e-01	1.24214576e-02	1.32296628e-04
7.04000000e-01	1.25658211e-02	1.33898708e-04
7.05000000e-01	1.26011752e-02	1.33922747e-04
7.06000000e-01	1.24232045e-02	1.32151186e-04
7.07000000e-01	1.25442415e-02	1.33275403e-04
7.08000000e-01	1.23813322e-02	1.31579040e-04
7.09000000e-01	1.25332825e-02	1.33237056e-04
7.10000000e-01	1.24607016e-02	1.31669711e-04
7.11000000e-01	1.24448493e-02	1.31901670e-04
7.12000000e-01	1.23415654e-02	1.30942883e-04
7.13000000e-01	1.24224760e-02	1.31980488e-04
7.14000000e-01	1.25372425e-02	1.32633277e-04
7.15000000e-01	1.25129366e-02	1.32234332e-04
7.16000000e-01	1.23417014e-02	1.30939208e-04
7.17000000e-01	1.23679155e-02	1.31764866e-04
7.18000000e-01	1.23730196e-02	1.31003257e-04
7.19000000e-01	1.23534335e-02	1.31452792e-04
7.20000000e-01	1.22955310e-02	1.30586750e-04
7.21000000e-01	1.24294248e-02	1.32234638e-04
7.22000000e-01	1.22817751e-02	1.30610639e-04
7.23000000e-01	1.23588598e-02	1.31178949e-04
7.24000000e-01	1.21921871e-02	1.29404720e-04
7.25000000e-01	1.23631398e-02	1.31449566e-04
7.26000000e-01	1.23575824e-02	1.31286566e-04
7.27000000e-01	1.22664066e-02	1.30415722e-04
7.28000000e-01	1.22438087e-02	1.30017918e-04
7.29000000e-01	1.21258409e-02	1.29222042e-04
7.30000000e-01	1.21926472e-02	1.29566516e-04
7.31000000e-01	1.23583454e-02	1.31418198e-04
7.32000000e-01	1.21988757e-02	1.29781080e-04
7.33000000e-01	1.22083238e-02	1.29977770e-04
7.34000000e-01	1.21447265e-02	1.29493382e-04
7.35000000e-01	1.22044761e-02	1.29462908e-04
7.36000000e-01	1.21450602e-02	1.28973877e-04
7.37000000e-01	1.20426821e-02	1.27713285e-04
7.38000000e-01	1.20823910e-02	1.27788329e-04
7.39000000e-01	1.21533952e-02	1.27933403e-04
7.40000000e-01	1.21682285e-02	1.28385164e-04
7.41000000e-01	1.21095023e-02	1.27413136e-04
7.42000000e-01	1.20917701e-02	1.27426154e-04
7.43000000e-01	1.21534520e-02	1.28022336e-04
7.44000000e-01	1.22206272e-02	1.28390121e-04
7.45000000e-01	1.21242277e-02	1.27849501e-04
7.46000000e-01	1.21519242e-02	1.27949881e-04
7.47000000e-01	1.19684293e-02	1.26390058e-04
7.48000000e-01	1.21108937e-02	1.27736944e-04
7.49000000e-01	1.20993834e-02	1.27611879e-04
7.50000000e-01	1.19352773e-02	1.25719251e-04
7.51000000e-01	1.20291849e-02	1.27106667e-04
7.52000000e-01	1.20296159e-02	1.26448244e-04
7.53000000e-01	1.20356182e-02	1.27263745e-04
7.54000000e-01	1.20184351e-02	1.26800780e-04
7.55000000e-01	1.19898196e-02	1.26441240e-04
7.56000000e-01	1.20777041e-02	1.26976331e-04
7.57000000e-01	1.19851161e-02	1.26515775e-04
7.58000000e-01	1.19513111e-02	1.25975799e-04
7.59000000e-01	1.19346394e-02	1.25652691e-04
7.60000000e-01	1.19306977e-02	1.25458904e-04
7.61000000e-01	1.18586766e-02	1.24622942e-04
7.62000000e-01	1.19702530e-02	1.25525937e-04
7.63000000e-01	1.19885841e-02	1.26021350e-04
7.64000000e-01	1.18100353e-02	1.24054340e-04
7.65000000e-01	1.20004580e-02	1.24988831e-04
7.66000000e-01	1.18637360e-02	1.23597786e-04
7.67000000e-01	1.19174395e-02	1.24255252e-04
7.68000000e-01	1.18434929e-02	1.23704682e-04
7.69000000e-01	1.18560075e-02	1.24054623e-04
7.70000000e-01	1.18645571e-02	1.23875924e-04
7.71000000e-01	1.18368447e-02	1.23798420e-04
7.72000000e-01	1.18123102e-02	1.27543224e-04
7.73000000e-01	1.18351011e-02	1.32038887e-04
7.74000000e-01	1.18204370e-02	1.34328283e-04
7.75000000e-01	1.18004178e-02	1.36330514e-04
7.76000000e-01	1.16935019e-02	1.37412415e-04
7.77000000e-01	1.18170845e-02	1.41155286e-04
7.78000000e-01	1.17758511e-02	1.41807589e-04
7.79000000e-01	1.17103305e-02	1.42816652e-04
7.80000000e-01	1.16822985e-02	1.44339755e-04
7.81000000e-01	1.19365572e-02	1.48991753e-04
7.82000000e-01	1.17130412e-02	1.48063352e-04
7.83000000e-01	1.16224219e-02	1.48491818e-04
7.84000000e-01	1.16411505e-02	1.50535482e-04
7.85000000e-01	1.16538903e-02	1.52339184e-04
7.86000000e-01	1.18331036e-02	1.56267329e-04
7.87000000e-01	1.14621375e-02	1.52886294e-04
7.88000000e-01	1.16570759e-02	1.56269924e-04
7.89000000e-01	1.16469485e-02	1.57988245e-04
7.90000000e-01	1.16280374e-02	1.59639090e-04
7.91000000e-01	1.14651858e-02	1.58693960e-04
7.92000000e-01	1.16336295e-02	1.62708502e-04
7.93000000e-01	1.14040511e-02	1.61459436e-04
7.94000000e-01	1.16745571e-02	1.66246298e-04
7.95000000e-01	1.15209373e-02	1.65722738e-04
7.96000000e-01	1.15864508e-02	1.68507026e-04
7.97000000e-01	1.15024441e-02	1.69667363e-04
7.98000000e-01	1.15359255e-02	1.72853024e-04
7.99000000e-01	1.14320468e-02	1.71898920e-04
8.00000000e-01	1.15412283e-02	1.75014471e-04
8.01000000e-01	1.14443170e-02	1.75666314e-04
8.02000000e-01	1.13702664e-02	1.76470274e-04
8.03000000e-01	1.14184601e-02	1.78873749e-04
8.04000000e-01	1.16360378e-02	1.83976975e-04
8.05000000e-01	1.13383449e-02	1.82476702e-04
8.06000000e-01	1.14814459e-02	1.87358307e-04
8.07000000e-01	1.15450589e-02	1.88188126e-04
8.08000000e-01	1.13807730e-02	1.88430586e-04
8.09000000e-01	1.13912623e-02	1.90190851e-04
8.10000000e-01	1.12642172e-02	1.91676585e-04
8.11000000e-01	1.14572522e-02	1.95388496e-04
8.12000000e-01	1.12521037e-02	1.95640005e-04
8.13000000e-01	1.11014222e-02	1.95340099e-04
8.14000000e-01	1.12821162e-02	1.99884031e-04
8.15000000e-01	1.12081948e-02	2.00593010e-04
8.16000000e-01	1.13864595e-02	2.05998717e-04
8.17000000e-01	1.13599570e-02	2.08783222e-04
8.18000000e-01	1.11104893e-02	2.07397176e-04
8.19000000e-01	1.13796223e-02	2.13459973e-04
8.20000000e-01	1.13107934e-02	2.16299935e-04
8.21000000e-01	1.12469867e-02	2.17004664e-04
8.22000000e-01	1.10305635e-02	2.18043293e-04
8.23000000e-01	1.13372550e-02	2.24744550e-04
8.24000000e-01	1.12339607e-02	2.25737423e-04
8.25000000e-01	1.13268415e-02	2.31453904e-04
8.26000000e-01	1.10579705e-02	2.30192474e-04
8.27000000e-01	1.11450265e-02	2.33882967e-04
8.28000000e-01	1.11773460e-02	2.39125871e-04
8.29000000e-01	1.10517100e-02	2.40928343e-04
8.30000000e-01	1.09779807e-02	2.42268418e-04
8.31000000e-01	1.09212954e-02	2.45349922e-04
8.32000000e-01	1.11510076e-02	2.53556407e-04
8.33000000e-01	1.09240959e-02	2.54020934e-04
8.34000000e-01	1.10751611e-02	2.60733721e-04
8.35000000e-01	1.10144496e-02	2.66640478e-04
8.36000000e-01	1.11797048e-02	2.71572494e-04
8.37000000e-01	1.11758637e-02	2.76778544e-04
8.38000000e-01	1.09553814e-02	2.80407329e-04
8.39000000e-01	1.11335825e-02	2.90356634e-04
8.40000000e-01	1.10279133e-02	2.92730727e-04
8.41000000e-01	1.08192320e-02	2.94528078e-04
8.42000000e-01	1.09147295e-02	3.02558520e-04
8.43000000e-01	1.11617862e-02	3.14987495e-04
8.44000000e-01	1.12331967e-02	3.25885378e-04
8.45000000e-01	1.07686364e-02	3.22796325e-04
8.46000000e-01	1.06034744e-02	3.25288089e-04
8.47000000e-01	1.07459225e-02	3.40670105e-04
8.48000000e-01	1.09715058e-02	3.58410604e-04
8.49000000e-01	1.09740884e-02	3.62551357e-04
8.50000000e-01	1.06241380e-02	3.69303629e-04
8.51000000e-01	1.06592743e-02	3.83749251e-04
8.52000000e-01	1.08155387e-02	4.06691729e-04
8.53000000e-01	1.09041168e-02	4.25135160e-04
8.54000000e-01	1.06433472e-02	4.37268782e-04
8.55000000e-01	1.08099256e-02	4.60091650e-04
8.56000000e-01	1.06187949e-02	4.55312768e-04
8.57000000e-01	1.04761651e-02	4.67950734e-04
8.58000000e-01	1.04683535e-02	4.77591047e-04
8.59000000e-01	1.06437338e-02	5.02629625e-04
8.60000000e-01	1.06123408e-02	5.18211794e-04
8.61000000e-01	1.04337238e-02	5.26886455e-04
8.62000000e-01	1.06677006e-02	5.64891938e-04
8.63000000e-01	1.10588316e-02	5.94757000e-04
8.64000000e-01	1.08855439e-02	6.16585902e-04
8.65000000e-01	1.08070902e-02	6.35028740e-04
8.66000000e-01	9.91483239e-03	6.43390193e-04
8.67000000e-01	1.08644766e-02	7.13619557e-04
8.68000000e-01	1.07183620e-02	7.66657884e-04
8.69000000e-01	1.04445944e-02	8.13416723e-04
8.70000000e-01	1.13562235e-02	9.39559426e-04
8.71000000e-01	1.12059394e-02	1.02493985e-03
8.72000000e-01	9.57460515e-03	1.00583576e-03
8.73000000e-01	1.08191890e-02	1.36506750e-03
8.74000000e-01	1.07709259e-02	1.72216010e-03
8.75000000e-01	6.68568709e-03	2.36374494e-03
