% Filename : SDL5_p7_00025_00056.h5
% Date & Time : 30-Oct-2025 16:58:44
% X-ray Energy (keV) : 13.30001
% Exposure Time (s) : 0.500
% Beam Center : 1461.24000, 208.98300
% Sample to Detector Distance (SDD) (mm) : 1990.750
% Detector Pixel Size (mm) : 0.075
% Photodiode Value : 143778.000
% I0 of Sample : 0
% I0 of Standard : 1
% 
% q(A^-1)   I(q)    I(q)_SE
0.00000000e+00	7.53942200e-03	4.70164950e-03
2.50000000e-04	0.00000000e+00	0.00000000e+00
5.00000000e-04	0.00000000e+00	0.00000000e+00
7.50000000e-04	0.00000000e+00	0.00000000e+00
1.00000000e-03	0.00000000e+00	0.00000000e+00
1.25000000e-03	0.00000000e+00	0.00000000e+00
1.50000000e-03	0.00000000e+00	0.00000000e+00
1.75000000e-03	0.00000000e+00	0.00000000e+00
2.00000000e-03	0.00000000e+00	0.00000000e+00
2.25000000e-03	0.00000000e+00	0.00000000e+00
2.50000000e-03	0.00000000e+00	0.00000000e+00
2.75000000e-03	0.00000000e+00	0.00000000e+00
3.00000000e-03	0.00000000e+00	0.00000000e+00
3.25000000e-03	1.02415322e+00	5.92813803e-01
3.50000000e-03	1.23441873e+00	2.66949333e-01
3.75000000e-03	9.79778775e-01	1.65856880e-01
4.00000000e-03	8.44804025e-01	1.31317543e-01
4.25000000e-03	7.12170496e-01	9.06635775e-02
4.50000000e-03	9.00761533e-01	1.35863586e-01
4.75000000e-03	8.52399611e-01	1.14178700e-01
5.00000000e-03	7.08176211e-01	8.96434921e-02
5.25000000e-03	6.03475433e-01	7.77847312e-02
5.50000000e-03	5.25879322e-01	6.55348534e-02
5.75000000e-03	4.68132726e-01	5.89905906e-02
6.00000000e-03	4.06026653e-01	4.89303641e-02
6.25000000e-03	3.54656255e-01	4.28767683e-02
6.50000000e-03	3.11629100e-01	3.70235787e-02
6.75000000e-03	2.75614634e-01	3.27720522e-02
7.00000000e-03	2.57422788e-01	2.94011860e-02
7.25000000e-03	2.18575854e-01	2.42981355e-02
7.50000000e-03	1.97522903e-01	2.22560129e-02
7.75000000e-03	1.72575715e-01	1.78837921e-02
8.00000000e-03	1.57934917e-01	1.62914737e-02
8.25000000e-03	1.46012138e-01	1.48913266e-02
8.50000000e-03	1.38426124e-01	1.38859235e-02
8.75000000e-03	1.24215440e-01	1.18678344e-02
9.00000000e-03	1.11089028e-01	1.03596882e-02
9.25000000e-03	9.87520397e-02	8.98918445e-03
9.50000000e-03	8.84970307e-02	7.56129740e-03
9.75000000e-03	8.18344785e-02	6.76805503e-03
1.00000000e-02	7.43675182e-02	6.04627323e-03
1.02500000e-02	7.14132649e-02	5.72157389e-03
1.05000000e-02	6.29775520e-02	4.76743446e-03
1.07500000e-02	6.06308180e-02	4.45903170e-03
1.10000000e-02	5.67662926e-02	4.08897135e-03
1.12500000e-02	5.36829937e-02	3.89698521e-03
1.15000000e-02	5.12249589e-02	3.62513594e-03
1.17500000e-02	4.74115177e-02	3.19098247e-03
1.20000000e-02	4.63627594e-02	3.10508800e-03
1.22500000e-02	4.57880496e-02	2.98199423e-03
1.25000000e-02	4.10267959e-02	2.71741173e-03
1.27500000e-02	4.10947540e-02	2.73322184e-03
1.30000000e-02	3.89547519e-02	2.52524927e-03
1.32500000e-02	3.76108397e-02	2.42010263e-03
1.35000000e-02	3.58510974e-02	2.26304901e-03
1.37500000e-02	3.49322451e-02	2.28697887e-03
1.40000000e-02	3.38579031e-02	2.10963818e-03
1.42500000e-02	3.23033935e-02	2.01852018e-03
1.45000000e-02	3.26001117e-02	1.96423073e-03
1.47500000e-02	2.99688235e-02	1.82631794e-03
1.50000000e-02	2.93730784e-02	1.78627802e-03
1.52500000e-02	2.93177374e-02	1.70384978e-03
1.55000000e-02	2.78499910e-02	1.58402064e-03
1.57500000e-02	2.61258712e-02	1.49958520e-03
1.60000000e-02	2.77944688e-02	1.56695033e-03
1.62500000e-02	2.66972384e-02	1.50943341e-03
1.65000000e-02	2.66125781e-02	1.47597843e-03
1.67500000e-02	2.60725789e-02	1.44602217e-03
1.70000000e-02	2.49481074e-02	1.37525682e-03
1.72500000e-02	2.43541272e-02	1.34115524e-03
1.75000000e-02	2.45992734e-02	1.34383371e-03
1.77500000e-02	2.50876796e-02	1.33829624e-03
1.80000000e-02	2.44778530e-02	1.32145235e-03
1.82500000e-02	2.43564219e-02	1.28460122e-03
1.85000000e-02	2.36180720e-02	1.27780017e-03
1.87500000e-02	2.47150940e-02	1.28898970e-03
1.90000000e-02	2.38667429e-02	1.24122143e-03
1.92500000e-02	2.34869616e-02	1.21781732e-03
1.95000000e-02	2.34637323e-02	1.21620428e-03
1.97500000e-02	2.34090145e-02	1.20943040e-03
2.00000000e-02	2.37533670e-02	1.21579484e-03
2.02500000e-02	2.25268402e-02	1.15245885e-03
2.05000000e-02	2.34994933e-02	1.16731905e-03
2.07500000e-02	2.41408523e-02	1.19217511e-03
2.10000000e-02	2.34341227e-02	1.18191377e-03
2.12500000e-02	2.35706695e-02	1.18105994e-03
2.15000000e-02	2.25596189e-02	1.14232298e-03
2.17500000e-02	2.35911471e-02	1.18283175e-03
2.20000000e-02	2.32714036e-02	1.18475638e-03
2.22500000e-02	2.29294743e-02	1.15158547e-03
2.25000000e-02	2.24312560e-02	1.15142969e-03
2.27500000e-02	2.26363281e-02	1.13428113e-03
2.30000000e-02	2.20515227e-02	1.12049832e-03
2.32500000e-02	2.25678893e-02	1.13491182e-03
2.35000000e-02	2.31001298e-02	1.17161218e-03
2.37500000e-02	2.26743002e-02	1.13108719e-03
2.40000000e-02	2.23089280e-02	1.13491030e-03
2.42500000e-02	2.25639208e-02	1.12172514e-03
2.45000000e-02	2.23680554e-02	1.12647183e-03
2.47500000e-02	2.26254535e-02	1.13341804e-03
2.50000000e-02	2.22870900e-02	1.10905011e-03
2.52500000e-02	2.19955684e-02	1.10579246e-03
2.55000000e-02	2.15498844e-02	1.05845994e-03
2.57500000e-02	2.23523466e-02	1.09684234e-03
2.60000000e-02	2.26641751e-02	1.11169403e-03
2.62500000e-02	2.21616474e-02	1.10687945e-03
2.65000000e-02	2.12835358e-02	1.05828395e-03
2.67500000e-02	2.16480988e-02	1.06195303e-03
2.70000000e-02	2.20467972e-02	1.08673463e-03
2.72500000e-02	2.20753746e-02	1.07650640e-03
2.75000000e-02	2.20024876e-02	1.09371404e-03
2.77500000e-02	2.27412721e-02	1.12287917e-03
2.80000000e-02	2.20982897e-02	1.07279253e-03
2.82500000e-02	2.19723789e-02	1.04874309e-03
2.85000000e-02	2.21925445e-02	1.07602969e-03
2.87500000e-02	2.32981624e-02	1.12702559e-03
2.90000000e-02	2.19901393e-02	1.07755258e-03
2.92500000e-02	2.28684922e-02	1.07402080e-03
2.95000000e-02	2.27004900e-02	1.10749594e-03
2.97500000e-02	2.33704175e-02	1.10960284e-03
3.00000000e-02	2.26158009e-02	1.08387823e-03
3.02500000e-02	2.30189882e-02	1.11311752e-03
3.05000000e-02	2.28568183e-02	1.06283000e-03
3.07500000e-02	2.27692889e-02	1.08787743e-03
3.10000000e-02	2.30274234e-02	1.08194467e-03
3.12500000e-02	2.22029829e-02	1.05650080e-03
3.15000000e-02	2.30471170e-02	1.08817564e-03
3.17500000e-02	2.29863095e-02	1.06092584e-03
3.20000000e-02	2.25791435e-02	1.06530022e-03
3.22500000e-02	2.21269464e-02	1.03956911e-03
3.25000000e-02	2.25348598e-02	1.06334616e-03
3.27500000e-02	2.24588443e-02	1.04593478e-03
3.30000000e-02	2.19792365e-02	1.01227508e-03
3.32500000e-02	2.14053578e-02	9.92742524e-04
3.35000000e-02	2.11740695e-02	1.00131195e-03
3.37500000e-02	2.15329970e-02	9.92050738e-04
3.40000000e-02	2.06841174e-02	9.59340244e-04
3.42500000e-02	2.14269353e-02	9.86137578e-04
3.45000000e-02	2.16874383e-02	9.96837981e-04
3.47500000e-02	2.20059443e-02	1.00287889e-03
3.50000000e-02	2.10936080e-02	9.60520882e-04
3.52500000e-02	2.15753771e-02	9.86000951e-04
3.55000000e-02	2.21167477e-02	9.85333589e-04
3.57500000e-02	2.16747910e-02	9.88570146e-04
3.60000000e-02	2.09256327e-02	9.54596082e-04
3.62500000e-02	2.14085988e-02	9.74925323e-04
3.65000000e-02	2.14008824e-02	9.83698788e-04
3.67500000e-02	2.17020872e-02	9.74653882e-04
3.70000000e-02	2.12380621e-02	9.57289677e-04
3.72500000e-02	2.17089548e-02	9.66223821e-04
3.75000000e-02	2.21244635e-02	9.92463480e-04
3.77500000e-02	2.19532154e-02	9.69117966e-04
3.80000000e-02	2.09706208e-02	9.32902909e-04
3.82500000e-02	2.10651375e-02	9.24183959e-04
3.85000000e-02	2.10405023e-02	9.34213751e-04
3.87500000e-02	2.12894178e-02	9.33472539e-04
3.90000000e-02	2.02919858e-02	9.07705747e-04
3.92500000e-02	2.09847856e-02	9.20479892e-04
3.95000000e-02	2.14531522e-02	9.45454923e-04
3.97500000e-02	2.14732764e-02	9.43196825e-04
4.00000000e-02	2.12152585e-02	9.30351588e-04
4.02500000e-02	2.13875184e-02	9.36183092e-04
4.05000000e-02	2.09691380e-02	9.06126402e-04
4.07500000e-02	2.12503760e-02	9.20671419e-04
4.10000000e-02	2.10323598e-02	9.10881335e-04
4.12500000e-02	2.06671207e-02	8.96780207e-04
4.15000000e-02	2.13601638e-02	9.22388491e-04
4.17500000e-02	2.09854734e-02	9.06338995e-04
4.20000000e-02	2.20234246e-02	9.33840330e-04
4.22500000e-02	2.14262972e-02	9.08496514e-04
4.25000000e-02	2.10199938e-02	9.02492360e-04
4.27500000e-02	2.12692429e-02	8.96266586e-04
4.30000000e-02	2.10156907e-02	8.92622208e-04
4.32500000e-02	2.16933152e-02	9.13680548e-04
4.35000000e-02	2.07731659e-02	8.81100260e-04
4.37500000e-02	2.09235143e-02	8.82256577e-04
4.40000000e-02	2.06691509e-02	8.74008189e-04
4.42500000e-02	2.04907269e-02	8.71498373e-04
4.45000000e-02	2.13515058e-02	8.89518944e-04
4.47500000e-02	2.02400059e-02	8.43937890e-04
4.50000000e-02	2.08239764e-02	8.80228275e-04
4.52500000e-02	2.12886328e-02	8.87139432e-04
4.55000000e-02	2.03963009e-02	8.50083936e-04
4.57500000e-02	2.07019445e-02	8.60169566e-04
4.60000000e-02	2.07831648e-02	8.62994190e-04
4.62500000e-02	2.06452211e-02	8.54214395e-04
4.65000000e-02	2.03889269e-02	8.40617976e-04
4.67500000e-02	2.07777744e-02	8.47709983e-04
4.70000000e-02	2.06197998e-02	8.48079197e-04
4.72500000e-02	2.06840632e-02	8.40189381e-04
4.75000000e-02	2.07805047e-02	8.51303522e-04
4.77500000e-02	2.10530710e-02	8.45814443e-04
4.80000000e-02	2.04923357e-02	8.30148270e-04
4.82500000e-02	2.03986259e-02	8.31632964e-04
4.85000000e-02	2.09342275e-02	8.55244028e-04
4.87500000e-02	2.00267055e-02	8.13228014e-04
4.90000000e-02	2.07940936e-02	8.34265724e-04
4.92500000e-02	2.07556743e-02	8.35691718e-04
4.95000000e-02	2.06866414e-02	8.31681498e-04
4.97500000e-02	2.10656881e-02	8.50803792e-04
5.00000000e-02	2.10165266e-02	8.41367732e-04
5.02500000e-02	2.02167949e-02	7.96750533e-04
5.05000000e-02	2.00990114e-02	8.05266410e-04
5.07500000e-02	2.04942839e-02	8.24063955e-04
5.10000000e-02	2.08781266e-02	8.32788478e-04
5.12500000e-02	2.09587547e-02	8.34623503e-04
5.15000000e-02	2.04502143e-02	8.03583253e-04
5.17500000e-02	2.08450842e-02	8.27533286e-04
5.20000000e-02	2.06296312e-02	8.13913745e-04
5.22500000e-02	2.10848179e-02	8.39568141e-04
5.25000000e-02	2.05951105e-02	8.07159226e-04
5.27500000e-02	2.03348925e-02	7.97096131e-04
5.30000000e-02	2.04626025e-02	8.13105382e-04
5.32500000e-02	2.07114127e-02	8.06043696e-04
5.35000000e-02	2.08401731e-02	8.23667966e-04
5.37500000e-02	2.01646709e-02	7.87037911e-04
5.40000000e-02	2.09971215e-02	8.12937106e-04
5.42500000e-02	2.01066184e-02	7.79274284e-04
5.45000000e-02	2.09129717e-02	8.11809649e-04
5.47500000e-02	2.02744465e-02	7.80238188e-04
5.50000000e-02	2.08044794e-02	7.97190539e-04
5.52500000e-02	2.01767899e-02	7.84413085e-04
5.55000000e-02	2.04924649e-02	7.82359380e-04
5.57500000e-02	2.00565782e-02	7.74640156e-04
5.60000000e-02	2.07531014e-02	7.93856578e-04
5.62500000e-02	2.00353076e-02	7.78612133e-04
5.65000000e-02	2.03097532e-02	7.70624618e-04
5.67500000e-02	2.06747777e-02	7.95482442e-04
5.70000000e-02	2.04408051e-02	7.75446671e-04
5.72500000e-02	2.05466904e-02	7.80930589e-04
5.75000000e-02	2.03941552e-02	7.75610983e-04
5.77500000e-02	2.02283277e-02	7.63662579e-04
5.80000000e-02	2.05674656e-02	7.80131171e-04
5.82500000e-02	2.10050382e-02	7.90771951e-04
5.85000000e-02	2.04584757e-02	7.70048863e-04
5.87500000e-02	2.08312262e-02	7.78442178e-04
5.90000000e-02	2.05566652e-02	7.73179721e-04
5.92500000e-02	2.05259857e-02	7.70894095e-04
5.95000000e-02	1.98502647e-02	7.41901906e-04
5.97500000e-02	2.01484767e-02	7.59317676e-04
6.00000000e-02	2.00808020e-02	7.52344409e-04
6.02500000e-02	2.04174356e-02	7.55932640e-04
6.05000000e-02	2.02506616e-02	7.50412059e-04
6.07500000e-02	2.05038899e-02	7.60516245e-04
6.10000000e-02	1.98200318e-02	7.35725117e-04
6.12500000e-02	1.97542351e-02	7.31762696e-04
6.15000000e-02	2.06287222e-02	7.56603055e-04
6.17500000e-02	2.06990935e-02	7.57613730e-04
6.20000000e-02	2.02288016e-02	7.43226660e-04
6.22500000e-02	2.07648145e-02	7.57939219e-04
6.25000000e-02	1.98852605e-02	7.34750398e-04
6.27500000e-02	1.99229554e-02	7.28066740e-04
6.30000000e-02	2.02549316e-02	7.37195665e-04
6.32500000e-02	1.94197513e-02	7.11851950e-04
6.35000000e-02	1.95931380e-02	7.15782099e-04
6.37500000e-02	2.06174420e-02	7.52772285e-04
6.40000000e-02	2.04899980e-02	7.41818279e-04
6.42500000e-02	2.00953115e-02	7.21370644e-04
6.45000000e-02	2.02664079e-02	7.32034029e-04
6.47500000e-02	2.08289576e-02	7.55616417e-04
6.50000000e-02	1.97581873e-02	7.13296552e-04
6.52500000e-02	1.95477853e-02	7.03807638e-04
6.55000000e-02	2.03162831e-02	7.29344646e-04
6.57500000e-02	1.99339255e-02	7.14005534e-04
6.60000000e-02	2.03465533e-02	7.28213680e-04
6.62500000e-02	2.01224188e-02	7.18552756e-04
6.65000000e-02	2.02083763e-02	7.18001734e-04
6.67500000e-02	1.97783959e-02	7.02846652e-04
6.70000000e-02	2.01126517e-02	7.17181427e-04
6.72500000e-02	2.00695069e-02	7.22945801e-04
6.75000000e-02	1.94511125e-02	6.88640688e-04
6.77500000e-02	1.99382530e-02	7.06978852e-04
6.80000000e-02	2.03885621e-02	7.26771128e-04
6.82500000e-02	2.01754000e-02	7.07853309e-04
6.85000000e-02	1.97530153e-02	7.03464698e-04
6.87500000e-02	2.03607017e-02	7.17811690e-04
6.90000000e-02	1.94779278e-02	6.92021364e-04
6.92500000e-02	1.94829228e-02	6.85140276e-04
6.95000000e-02	1.99563079e-02	7.02299303e-04
6.97500000e-02	2.00801777e-02	7.02853285e-04
7.00000000e-02	1.99497998e-02	6.92866130e-04
7.02500000e-02	2.04067166e-02	7.05972991e-04
7.05000000e-02	2.00035385e-02	6.99681547e-04
7.07500000e-02	1.97394530e-02	6.92062933e-04
7.10000000e-02	1.97796505e-02	6.88723968e-04
7.12500000e-02	2.03586735e-02	7.09664492e-04
7.15000000e-02	1.97217958e-02	6.75041968e-04
7.17500000e-02	2.06138067e-02	7.16505263e-04
7.20000000e-02	2.02057567e-02	7.03435243e-04
7.22500000e-02	2.01207890e-02	6.96818702e-04
7.25000000e-02	1.97071033e-02	6.72507788e-04
7.27500000e-02	1.99133894e-02	6.82862893e-04
7.30000000e-02	2.01220850e-02	6.90686223e-04
7.32500000e-02	1.95171282e-02	6.66345641e-04
7.35000000e-02	1.96230726e-02	6.77903968e-04
7.37500000e-02	2.01725135e-02	6.86952555e-04
7.40000000e-02	2.01746691e-02	6.90664428e-04
7.42500000e-02	2.02764735e-02	6.96350257e-04
7.45000000e-02	1.97005254e-02	6.77331214e-04
7.47500000e-02	2.02263485e-02	6.90613011e-04
7.50000000e-02	1.99356279e-02	6.74243750e-04
7.52500000e-02	1.99129831e-02	6.81718478e-04
7.55000000e-02	1.97170102e-02	6.68789980e-04
7.57500000e-02	1.93074110e-02	6.52211170e-04
7.60000000e-02	1.98477838e-02	6.77072060e-04
7.62500000e-02	2.00229497e-02	6.78436479e-04
7.65000000e-02	1.99139240e-02	6.71069453e-04
7.67500000e-02	1.97251261e-02	6.63800907e-04
7.70000000e-02	2.03466536e-02	6.83505561e-04
7.72500000e-02	1.96554491e-02	6.74807317e-04
7.75000000e-02	1.98389592e-02	6.83520480e-04
7.77500000e-02	1.97043691e-02	6.87233484e-04
7.80000000e-02	2.00002869e-02	6.97709848e-04
7.82500000e-02	1.98708211e-02	6.93596764e-04
7.85000000e-02	1.97669029e-02	6.93921973e-04
7.87500000e-02	1.99644829e-02	6.99418061e-04
7.90000000e-02	2.01874769e-02	7.12742394e-04
7.92500000e-02	2.00506462e-02	7.11535318e-04
7.95000000e-02	2.01828948e-02	7.15389534e-04
7.97500000e-02	2.09615525e-02	7.40659882e-04
8.00000000e-02	1.99405842e-02	7.07926675e-04
8.02500000e-02	2.03732177e-02	7.26842542e-04
8.05000000e-02	2.00174178e-02	7.13122192e-04
8.07500000e-02	2.05515496e-02	7.46395306e-04
8.10000000e-02	1.98713000e-02	7.14950442e-04
8.12500000e-02	2.02063898e-02	7.28043704e-04
8.15000000e-02	1.98195206e-02	7.16760229e-04
8.17500000e-02	1.99116704e-02	7.28467250e-04
8.20000000e-02	2.04395242e-02	7.45991535e-04
8.22500000e-02	2.02089531e-02	7.35318296e-04
8.25000000e-02	1.93705278e-02	7.07522958e-04
8.27500000e-02	2.00463068e-02	7.24068501e-04
8.30000000e-02	2.01839583e-02	7.39555207e-04
8.32500000e-02	1.97321208e-02	7.23750535e-04
8.35000000e-02	1.94287526e-02	7.14452112e-04
8.37500000e-02	2.01045261e-02	7.28895710e-04
8.40000000e-02	1.95580946e-02	7.12844613e-04
8.42500000e-02	1.99891938e-02	7.39713313e-04
8.45000000e-02	2.02370374e-02	7.45598964e-04
8.47500000e-02	1.99599797e-02	7.39875984e-04
8.50000000e-02	1.93142520e-02	7.12037981e-04
8.52500000e-02	1.98651075e-02	7.31997815e-04
8.55000000e-02	1.97337457e-02	7.23070356e-04
8.57500000e-02	1.99890335e-02	7.36692463e-04
8.60000000e-02	1.99033478e-02	7.34862859e-04
8.62500000e-02	1.92089907e-02	7.11435116e-04
8.65000000e-02	1.98313325e-02	7.30395708e-04
8.67500000e-02	1.97864352e-02	7.31367186e-04
8.70000000e-02	2.00893014e-02	7.28556875e-04
8.72500000e-02	2.03526883e-02	7.23620028e-04
8.75000000e-02	1.99350253e-02	7.10546871e-04
8.77500000e-02	1.92181419e-02	6.77461144e-04
8.80000000e-02	2.02235747e-02	7.06919765e-04
8.82500000e-02	2.02253424e-02	7.03117966e-04
8.85000000e-02	1.92172237e-02	6.71189438e-04
8.87500000e-02	2.02488570e-02	6.91311918e-04
8.90000000e-02	1.97991864e-02	6.82243310e-04
8.92500000e-02	2.04766215e-02	7.02047351e-04
8.95000000e-02	1.99639393e-02	6.86432453e-04
8.97500000e-02	2.02223422e-02	6.92425303e-04
9.00000000e-02	2.02646060e-02	6.85051146e-04
9.02500000e-02	1.98237286e-02	6.68493346e-04
9.05000000e-02	1.96606239e-02	6.66956328e-04
9.07500000e-02	1.94540075e-02	6.54540945e-04
9.10000000e-02	1.93672695e-02	6.52828958e-04
9.12500000e-02	2.00780477e-02	6.70452243e-04
9.15000000e-02	2.07833454e-02	6.91818872e-04
9.17500000e-02	1.94293466e-02	6.52741792e-04
9.20000000e-02	1.94797989e-02	6.54233209e-04
9.22500000e-02	1.98667833e-02	6.53975974e-04
9.25000000e-02	1.97314595e-02	6.49365304e-04
9.27500000e-02	1.99388215e-02	6.57115907e-04
9.30000000e-02	1.91340578e-02	6.36087360e-04
9.32500000e-02	1.92574450e-02	6.35188498e-04
9.35000000e-02	2.00306898e-02	6.56724230e-04
9.37500000e-02	2.03364680e-02	6.59717107e-04
9.40000000e-02	1.98320466e-02	6.57514825e-04
9.42500000e-02	1.95020240e-02	6.39921459e-04
9.45000000e-02	2.00288478e-02	6.50399849e-04
9.47500000e-02	1.97700730e-02	6.50111693e-04
9.50000000e-02	1.96566592e-02	6.40922899e-04
9.52500000e-02	1.93375590e-02	6.29220584e-04
9.55000000e-02	1.97797720e-02	6.42330182e-04
9.57500000e-02	2.04989216e-02	6.62629841e-04
9.60000000e-02	1.96561172e-02	6.33022432e-04
9.62500000e-02	1.92393767e-02	6.24372389e-04
9.65000000e-02	1.96518229e-02	6.32876465e-04
9.67500000e-02	1.93401428e-02	6.21359453e-04
9.70000000e-02	1.96111498e-02	6.33734731e-04
9.72500000e-02	1.98407437e-02	6.35110131e-04
9.75000000e-02	2.00876535e-02	6.48113685e-04
9.77500000e-02	1.95002915e-02	6.19511603e-04
9.80000000e-02	1.96272032e-02	6.26825790e-04
9.82500000e-02	1.92714100e-02	6.17566127e-04
9.85000000e-02	1.95874948e-02	6.21359202e-04
9.87500000e-02	1.94295783e-02	6.17007385e-04
9.90000000e-02	1.98280178e-02	6.31200008e-04
9.92500000e-02	1.96429949e-02	6.21943869e-04
9.95000000e-02	2.00110101e-02	6.31972782e-04
9.97500000e-02	1.95449088e-02	6.13822164e-04
1.00000000e-01	2.00010927e-02	5.10172265e-04
1.00500000e-01	1.98730441e-02	4.44193789e-04
1.01000000e-01	1.97783658e-02	4.35562298e-04
1.01500000e-01	1.95538974e-02	4.33287519e-04
1.02000000e-01	1.98280576e-02	4.35998484e-04
1.02500000e-01	1.93838842e-02	4.27339080e-04
1.03000000e-01	1.98059192e-02	4.35010510e-04
1.03500000e-01	1.96958823e-02	4.29402775e-04
1.04000000e-01	1.96098734e-02	4.26903073e-04
1.04500000e-01	1.96247600e-02	4.26476094e-04
1.05000000e-01	1.95074341e-02	4.21403470e-04
1.05500000e-01	1.95697904e-02	4.22035473e-04
1.06000000e-01	1.96228366e-02	4.24895283e-04
1.06500000e-01	1.94582163e-02	4.18354169e-04
1.07000000e-01	1.99064227e-02	4.32702171e-04
1.07500000e-01	1.98526376e-02	4.40389361e-04
1.08000000e-01	1.97046057e-02	4.41207855e-04
1.08500000e-01	1.97873982e-02	4.44049713e-04
1.09000000e-01	1.95123058e-02	4.40959452e-04
1.09500000e-01	1.98220003e-02	4.49591060e-04
1.10000000e-01	1.94185445e-02	4.35527451e-04
1.10500000e-01	1.98680312e-02	4.37944197e-04
1.11000000e-01	1.96790458e-02	4.25941399e-04
1.11500000e-01	1.97620850e-02	4.23558183e-04
1.12000000e-01	1.96859254e-02	4.22019595e-04
1.12500000e-01	1.97536489e-02	4.18240611e-04
1.13000000e-01	1.98043860e-02	4.19148554e-04
1.13500000e-01	1.97018147e-02	4.15849372e-04
1.14000000e-01	1.96854027e-02	4.13831911e-04
1.14500000e-01	1.99126670e-02	4.15516540e-04
1.15000000e-01	1.99889045e-02	4.13576325e-04
1.15500000e-01	1.97322933e-02	4.11252541e-04
1.16000000e-01	1.99462468e-02	4.11230715e-04
1.16500000e-01	1.96401123e-02	4.06300496e-04
1.17000000e-01	1.96652401e-02	4.08934165e-04
1.17500000e-01	1.95150620e-02	4.01036262e-04
1.18000000e-01	2.00899445e-02	4.11580376e-04
1.18500000e-01	1.97595592e-02	4.04197436e-04
1.19000000e-01	1.94705288e-02	4.00861494e-04
1.19500000e-01	1.95009838e-02	3.98643850e-04
1.20000000e-01	1.95568513e-02	3.98422531e-04
1.20500000e-01	1.94051263e-02	3.96075761e-04
1.21000000e-01	1.94430442e-02	3.94900651e-04
1.21500000e-01	1.93148995e-02	3.91153142e-04
1.22000000e-01	1.96791382e-02	3.96577106e-04
1.22500000e-01	1.95043884e-02	3.93172595e-04
1.23000000e-01	1.96503824e-02	3.93345376e-04
1.23500000e-01	1.94584126e-02	3.90800156e-04
1.24000000e-01	1.96802633e-02	3.95033149e-04
1.24500000e-01	1.97510810e-02	3.93839921e-04
1.25000000e-01	1.96625062e-02	3.92689847e-04
1.25500000e-01	1.99378555e-02	3.95242351e-04
1.26000000e-01	1.97610297e-02	3.92099258e-04
1.26500000e-01	1.94486599e-02	3.85897183e-04
1.27000000e-01	1.94846821e-02	3.86769031e-04
1.27500000e-01	1.93298486e-02	3.81525606e-04
1.28000000e-01	1.99200439e-02	3.92157060e-04
1.28500000e-01	1.96026445e-02	3.84569642e-04
1.29000000e-01	1.97713037e-02	3.86831070e-04
1.29500000e-01	1.97587180e-02	3.86231272e-04
1.30000000e-01	1.95477344e-02	3.81911057e-04
1.30500000e-01	1.95259412e-02	3.81068836e-04
1.31000000e-01	1.97258711e-02	3.82353944e-04
1.31500000e-01	1.97287356e-02	3.81512512e-04
1.32000000e-01	1.97546439e-02	3.83158944e-04
1.32500000e-01	1.94651680e-02	3.75075489e-04
1.33000000e-01	1.94555172e-02	3.76203475e-04
1.33500000e-01	1.96297338e-02	3.75039531e-04
1.34000000e-01	1.96787792e-02	3.76932161e-04
1.34500000e-01	1.94278586e-02	3.70783492e-04
1.35000000e-01	1.96099757e-02	3.73052992e-04
1.35500000e-01	1.95775830e-02	3.71628032e-04
1.36000000e-01	1.92796614e-02	3.64266407e-04
1.36500000e-01	1.96554542e-02	3.75968946e-04
1.37000000e-01	1.96270775e-02	3.69735384e-04
1.37500000e-01	1.96578662e-02	3.71353348e-04
1.38000000e-01	1.93727640e-02	3.64886765e-04
1.38500000e-01	1.96523027e-02	3.68395857e-04
1.39000000e-01	1.94133265e-02	3.67276335e-04
1.39500000e-01	1.94493830e-02	3.65026325e-04
1.40000000e-01	1.98076775e-02	3.73813403e-04
1.40500000e-01	1.92890980e-02	3.62660341e-04
1.41000000e-01	1.92916482e-02	3.61645250e-04
1.41500000e-01	1.97143275e-02	3.67637095e-04
1.42000000e-01	1.92380225e-02	3.58537965e-04
1.42500000e-01	1.93495460e-02	3.61356667e-04
1.43000000e-01	1.96251274e-02	3.66206644e-04
1.43500000e-01	1.91746937e-02	3.55504274e-04
1.44000000e-01	1.93155356e-02	3.58619388e-04
1.44500000e-01	1.92612243e-02	3.55623635e-04
1.45000000e-01	1.94016550e-02	3.58869972e-04
1.45500000e-01	1.92834611e-02	3.56348300e-04
1.46000000e-01	1.93577002e-02	3.56593765e-04
1.46500000e-01	1.93577937e-02	3.57309010e-04
1.47000000e-01	1.94144732e-02	3.56785648e-04
1.47500000e-01	1.92988528e-02	3.55612232e-04
1.48000000e-01	1.96505578e-02	3.59272557e-04
1.48500000e-01	1.92734058e-02	3.52907903e-04
1.49000000e-01	1.92287871e-02	3.50596539e-04
1.49500000e-01	1.93640698e-02	3.51987958e-04
1.50000000e-01	1.92354837e-02	3.49363958e-04
1.50500000e-01	1.91788230e-02	3.48445548e-04
1.51000000e-01	1.93680753e-02	3.51504529e-04
1.51500000e-01	1.93358290e-02	3.48308245e-04
1.52000000e-01	1.93343664e-02	3.47001753e-04
1.52500000e-01	1.95600098e-02	3.51069936e-04
1.53000000e-01	1.93267997e-02	3.48578534e-04
1.53500000e-01	1.91751418e-02	3.45016949e-04
1.54000000e-01	1.93726081e-02	3.46682767e-04
1.54500000e-01	1.90247945e-02	3.48681202e-04
1.55000000e-01	1.91741399e-02	3.54719390e-04
1.55500000e-01	1.94517552e-02	3.61533191e-04
1.56000000e-01	1.94579081e-02	3.64071678e-04
1.56500000e-01	1.92402531e-02	3.59523848e-04
1.57000000e-01	1.94838325e-02	3.64603948e-04
1.57500000e-01	1.94052846e-02	3.55946909e-04
1.58000000e-01	1.91635267e-02	3.46573650e-04
1.58500000e-01	1.91789403e-02	3.45526317e-04
1.59000000e-01	1.91517962e-02	3.44229457e-04
1.59500000e-01	1.88578649e-02	3.39904415e-04
1.60000000e-01	1.93234257e-02	3.45179614e-04
1.60500000e-01	1.91663426e-02	3.39870433e-04
1.61000000e-01	1.89979219e-02	3.38472059e-04
1.61500000e-01	1.89887770e-02	3.36515743e-04
1.62000000e-01	1.92176387e-02	3.40239140e-04
1.62500000e-01	1.89036579e-02	3.36244661e-04
1.63000000e-01	1.93248848e-02	3.39837673e-04
1.63500000e-01	1.88977789e-02	3.35293178e-04
1.64000000e-01	1.91270085e-02	3.35072378e-04
1.64500000e-01	1.91016249e-02	3.34888060e-04
1.65000000e-01	1.89232757e-02	3.31685181e-04
1.65500000e-01	1.90831727e-02	3.33727347e-04
1.66000000e-01	1.89741892e-02	3.32086340e-04
1.66500000e-01	1.90709746e-02	3.32332538e-04
1.67000000e-01	1.91763050e-02	3.32711332e-04
1.67500000e-01	1.91517768e-02	3.32299696e-04
1.68000000e-01	1.88897332e-02	3.29589578e-04
1.68500000e-01	1.89550657e-02	3.27717992e-04
1.69000000e-01	1.90383440e-02	3.28230483e-04
1.69500000e-01	1.88337679e-02	3.24823364e-04
1.70000000e-01	1.88809769e-02	3.26429619e-04
1.70500000e-01	1.86953972e-02	3.22227729e-04
1.71000000e-01	1.89608119e-02	3.26791602e-04
1.71500000e-01	1.88090753e-02	3.22878687e-04
1.72000000e-01	1.86923438e-02	3.20000888e-04
1.72500000e-01	1.89983037e-02	3.25078552e-04
1.73000000e-01	1.87315507e-02	3.19900370e-04
1.73500000e-01	1.89816364e-02	3.23738728e-04
1.74000000e-01	1.86602788e-02	3.17791709e-04
1.74500000e-01	1.88319811e-02	3.18775423e-04
1.75000000e-01	1.88009028e-02	3.16088439e-04
1.75500000e-01	1.87853415e-02	3.17023777e-04
1.76000000e-01	1.86201102e-02	3.13722478e-04
1.76500000e-01	1.87113245e-02	3.16160322e-04
1.77000000e-01	1.87133553e-02	3.13592127e-04
1.77500000e-01	1.87723280e-02	3.15276897e-04
1.78000000e-01	1.87534282e-02	3.14954302e-04
1.78500000e-01	1.87284585e-02	3.14564310e-04
1.79000000e-01	1.86223240e-02	3.10690528e-04
1.79500000e-01	1.86757852e-02	3.13112632e-04
1.80000000e-01	1.84328502e-02	3.10390860e-04
1.80500000e-01	1.85668788e-02	3.10975920e-04
1.81000000e-01	1.87542387e-02	3.13817991e-04
1.81500000e-01	1.87808341e-02	3.11987115e-04
1.82000000e-01	1.86748746e-02	3.11558906e-04
1.82500000e-01	1.86210807e-02	3.08378506e-04
1.83000000e-01	1.84812712e-02	3.07637255e-04
1.83500000e-01	1.84405289e-02	3.06316932e-04
1.84000000e-01	1.87875349e-02	3.10479719e-04
1.84500000e-01	1.84851342e-02	3.06452124e-04
1.85000000e-01	1.86079657e-02	3.08680839e-04
1.85500000e-01	1.87816955e-02	3.09104951e-04
1.86000000e-01	1.85972744e-02	3.06208637e-04
1.86500000e-01	1.84957865e-02	3.03719914e-04
1.87000000e-01	1.83577873e-02	3.02893448e-04
1.87500000e-01	1.86003596e-02	3.05508977e-04
1.88000000e-01	1.86169865e-02	3.04974325e-04
1.88500000e-01	1.84404270e-02	3.02200514e-04
1.89000000e-01	1.81865652e-02	2.98069566e-04
1.89500000e-01	1.83606652e-02	2.99851520e-04
1.90000000e-01	1.85021446e-02	3.01781762e-04
1.90500000e-01	1.85047974e-02	3.01769669e-04
1.91000000e-01	1.84635475e-02	2.99795952e-04
1.91500000e-01	1.86040135e-02	3.02902265e-04
1.92000000e-01	1.86051366e-02	3.00567926e-04
1.92500000e-01	1.84560811e-02	2.99421479e-04
1.93000000e-01	1.84470181e-02	2.99671719e-04
1.93500000e-01	1.81727429e-02	2.95199766e-04
1.94000000e-01	1.83658984e-02	2.96881903e-04
1.94500000e-01	1.80782047e-02	2.92259659e-04
1.95000000e-01	1.81490728e-02	2.93571683e-04
1.95500000e-01	1.81492272e-02	2.93257022e-04
1.96000000e-01	1.82128952e-02	2.93339067e-04
1.96500000e-01	1.83026488e-02	2.94006907e-04
1.97000000e-01	1.82345352e-02	2.92220697e-04
1.97500000e-01	1.83094447e-02	2.92999709e-04
1.98000000e-01	1.83652755e-02	2.95064369e-04
1.98500000e-01	1.83470578e-02	2.93570431e-04
1.99000000e-01	1.82263113e-02	2.91255825e-04
1.99500000e-01	1.81369084e-02	2.89060358e-04
2.00000000e-01	1.82504043e-02	2.90137858e-04
2.00500000e-01	1.81181089e-02	2.89841062e-04
2.01000000e-01	1.79707601e-02	2.85843896e-04
2.01500000e-01	1.81645403e-02	2.89032426e-04
2.02000000e-01	1.83647052e-02	2.91345572e-04
2.02500000e-01	1.85087288e-02	2.90273079e-04
2.03000000e-01	1.82257271e-02	2.87337216e-04
2.03500000e-01	1.81235005e-02	2.87554411e-04
2.04000000e-01	1.82457729e-02	2.88573712e-04
2.04500000e-01	1.84056839e-02	2.89848018e-04
2.05000000e-01	1.80488528e-02	2.83940310e-04
2.05500000e-01	1.80871793e-02	2.85117629e-04
2.06000000e-01	1.79791755e-02	2.82361858e-04
2.06500000e-01	1.82839082e-02	2.87052377e-04
2.07000000e-01	1.79276854e-02	2.81031230e-04
2.07500000e-01	1.78662701e-02	2.80428562e-04
2.08000000e-01	1.80331588e-02	2.81368971e-04
2.08500000e-01	1.83136814e-02	2.84803678e-04
2.09000000e-01	1.83949334e-02	2.87216361e-04
2.09500000e-01	1.80719683e-02	2.81828952e-04
2.10000000e-01	1.79688181e-02	2.79655956e-04
2.10500000e-01	1.80684748e-02	2.80954878e-04
2.11000000e-01	1.79507647e-02	2.77800404e-04
2.11500000e-01	1.81778860e-02	2.82479058e-04
2.12000000e-01	1.80571656e-02	2.79697772e-04
2.12500000e-01	1.81029530e-02	2.80837037e-04
2.13000000e-01	1.82602194e-02	2.82552404e-04
2.13500000e-01	1.80875377e-02	2.78658379e-04
2.14000000e-01	1.82065264e-02	2.81380241e-04
2.14500000e-01	1.82107682e-02	2.79256573e-04
2.15000000e-01	1.79938158e-02	2.77669691e-04
2.15500000e-01	1.77127520e-02	2.72236510e-04
2.16000000e-01	1.81568042e-02	2.79290238e-04
2.16500000e-01	1.79975527e-02	2.75067297e-04
2.17000000e-01	1.80659296e-02	2.80647473e-04
2.17500000e-01	1.80723691e-02	2.86127446e-04
2.18000000e-01	1.82213925e-02	2.88416842e-04
2.18500000e-01	1.80034635e-02	2.87132706e-04
2.19000000e-01	1.81088366e-02	2.89165399e-04
2.19500000e-01	1.80247061e-02	2.89734364e-04
2.20000000e-01	1.78232767e-02	2.87841705e-04
2.20500000e-01	1.79431086e-02	2.90261068e-04
2.21000000e-01	1.79122684e-02	2.90489471e-04
2.21500000e-01	1.79237757e-02	2.91657290e-04
2.22000000e-01	1.80347693e-02	2.93181040e-04
2.22500000e-01	1.81311019e-02	2.94154931e-04
2.23000000e-01	1.78607290e-02	2.91549990e-04
2.23500000e-01	1.80884647e-02	2.96162078e-04
2.24000000e-01	1.81996948e-02	2.99017062e-04
2.24500000e-01	1.77226195e-02	2.94001778e-04
2.25000000e-01	1.78061629e-02	2.94565417e-04
2.25500000e-01	1.77224083e-02	2.92855003e-04
2.26000000e-01	1.79408498e-02	2.97093761e-04
2.26500000e-01	1.77049344e-02	2.89034808e-04
2.27000000e-01	1.79254801e-02	2.90251585e-04
2.27500000e-01	1.81368621e-02	2.90791382e-04
2.28000000e-01	1.79840328e-02	2.87425589e-04
2.28500000e-01	1.79924430e-02	2.85912006e-04
2.29000000e-01	1.77843251e-02	2.80657517e-04
2.29500000e-01	1.77554637e-02	2.79521871e-04
2.30000000e-01	1.79394092e-02	2.81971837e-04
2.30500000e-01	1.77662045e-02	2.78275001e-04
2.31000000e-01	1.79475070e-02	2.80304593e-04
2.31500000e-01	1.77180240e-02	2.76390036e-04
2.32000000e-01	1.79672654e-02	2.79971245e-04
2.32500000e-01	1.77333783e-02	2.75470366e-04
2.33000000e-01	1.78610463e-02	2.75622046e-04
2.33500000e-01	1.79366178e-02	2.77109954e-04
2.34000000e-01	1.77057227e-02	2.72066690e-04
2.34500000e-01	1.78214997e-02	2.73483893e-04
2.35000000e-01	1.78549385e-02	2.74710991e-04
2.35500000e-01	1.79295057e-02	2.73763923e-04
2.36000000e-01	1.77439237e-02	2.72319564e-04
2.36500000e-01	1.78332457e-02	2.71283632e-04
2.37000000e-01	1.76590130e-02	2.69930507e-04
2.37500000e-01	1.77511208e-02	2.70343968e-04
2.38000000e-01	1.75024518e-02	2.66152201e-04
2.38500000e-01	1.75152904e-02	2.65955726e-04
2.39000000e-01	1.76097846e-02	2.65259261e-04
2.39500000e-01	1.75745708e-02	2.66440897e-04
2.40000000e-01	1.76342997e-02	2.67146774e-04
2.40500000e-01	1.76867062e-02	2.65006083e-04
2.41000000e-01	1.76027869e-02	2.65499692e-04
2.41500000e-01	1.76775234e-02	2.65630780e-04
2.42000000e-01	1.79325450e-02	2.68209072e-04
2.42500000e-01	1.76204352e-02	2.62423034e-04
2.43000000e-01	1.76968096e-02	2.63851848e-04
2.43500000e-01	1.76103701e-02	2.63589933e-04
2.44000000e-01	1.77959321e-02	2.64659523e-04
2.44500000e-01	1.76969095e-02	2.63869631e-04
2.45000000e-01	1.76380149e-02	2.62179532e-04
2.45500000e-01	1.75184689e-02	2.59836288e-04
2.46000000e-01	1.76795932e-02	2.63072352e-04
2.46500000e-01	1.75704136e-02	2.59652356e-04
2.47000000e-01	1.76004223e-02	2.59276192e-04
2.47500000e-01	1.75731345e-02	2.58677128e-04
2.48000000e-01	1.77309695e-02	2.60907829e-04
2.48500000e-01	1.76341798e-02	2.58907413e-04
2.49000000e-01	1.75332200e-02	2.56984277e-04
2.49500000e-01	1.74853934e-02	2.56843206e-04
2.50000000e-01	1.75124201e-02	2.56023415e-04
2.50500000e-01	1.73421776e-02	2.55600316e-04
2.51000000e-01	1.73164833e-02	2.53715204e-04
2.51500000e-01	1.73598917e-02	2.54600248e-04
2.52000000e-01	1.74467325e-02	2.54900901e-04
2.52500000e-01	1.73799976e-02	2.54004059e-04
2.53000000e-01	1.74007069e-02	2.54010755e-04
2.53500000e-01	1.72687657e-02	2.50960176e-04
2.54000000e-01	1.74662756e-02	2.54916092e-04
2.54500000e-01	1.74220036e-02	2.53989095e-04
2.55000000e-01	1.72338905e-02	2.49812055e-04
2.55500000e-01	1.73422557e-02	2.51911224e-04
2.56000000e-01	1.74331933e-02	2.52206422e-04
2.56500000e-01	1.72961112e-02	2.50722179e-04
2.57000000e-01	1.71831364e-02	2.49193339e-04
2.57500000e-01	1.73120439e-02	2.49413532e-04
2.58000000e-01	1.75930835e-02	2.53565154e-04
2.58500000e-01	1.73844766e-02	2.51187664e-04
2.59000000e-01	1.72729987e-02	2.49032388e-04
2.59500000e-01	1.73994862e-02	2.49961449e-04
2.60000000e-01	1.72835181e-02	2.47450283e-04
2.60500000e-01	1.73909766e-02	2.50520060e-04
2.61000000e-01	1.73736938e-02	2.48712842e-04
2.61500000e-01	1.73778376e-02	2.48601708e-04
2.62000000e-01	1.71514351e-02	2.46187389e-04
2.62500000e-01	1.71711117e-02	2.46107184e-04
2.63000000e-01	1.73117869e-02	2.47877324e-04
2.63500000e-01	1.73791685e-02	2.47295700e-04
2.64000000e-01	1.71272255e-02	2.44927163e-04
2.64500000e-01	1.71397500e-02	2.44492740e-04
2.65000000e-01	1.74052263e-02	2.46917521e-04
2.65500000e-01	1.71263092e-02	2.43135836e-04
2.66000000e-01	1.71331678e-02	2.43736018e-04
2.66500000e-01	1.73913110e-02	2.45325842e-04
2.67000000e-01	1.71602517e-02	2.43858965e-04
2.67500000e-01	1.70808436e-02	2.41944236e-04
2.68000000e-01	1.71042783e-02	2.42093957e-04
2.68500000e-01	1.72279206e-02	2.43380494e-04
2.69000000e-01	1.72544359e-02	2.42699575e-04
2.69500000e-01	1.68605762e-02	2.37204162e-04
2.70000000e-01	1.69904612e-02	2.39032677e-04
2.70500000e-01	1.72296520e-02	2.42402575e-04
2.71000000e-01	1.71669813e-02	2.40579015e-04
2.71500000e-01	1.72291855e-02	2.41983703e-04
2.72000000e-01	1.70601576e-02	2.39305732e-04
2.72500000e-01	1.71198720e-02	2.40084839e-04
2.73000000e-01	1.70381309e-02	2.38554492e-04
2.73500000e-01	1.71847568e-02	2.40048343e-04
2.74000000e-01	1.70297725e-02	2.37524933e-04
2.74500000e-01	1.69023466e-02	2.35293841e-04
2.75000000e-01	1.71451986e-02	2.38876590e-04
2.75500000e-01	1.73086765e-02	2.41608746e-04
2.76000000e-01	1.70137354e-02	2.36599210e-04
2.76500000e-01	1.69311941e-02	2.36617227e-04
2.77000000e-01	1.67543585e-02	2.32801228e-04
2.77500000e-01	1.72004652e-02	2.39084091e-04
2.78000000e-01	1.69552120e-02	2.35016781e-04
2.78500000e-01	1.70255901e-02	2.36470900e-04
2.79000000e-01	1.70422459e-02	2.35847233e-04
2.79500000e-01	1.68219948e-02	2.32396052e-04
2.80000000e-01	1.69698540e-02	2.35030425e-04
2.80500000e-01	1.72572222e-02	2.37712012e-04
2.81000000e-01	1.68017177e-02	2.32053205e-04
2.81500000e-01	1.68415909e-02	2.32541479e-04
2.82000000e-01	1.70393659e-02	2.33995817e-04
2.82500000e-01	1.68256399e-02	2.32680585e-04
2.83000000e-01	1.70053570e-02	2.34076495e-04
2.83500000e-01	1.68183149e-02	2.31861075e-04
2.84000000e-01	1.70641692e-02	2.33236458e-04
2.84500000e-01	1.70843544e-02	2.33796715e-04
2.85000000e-01	1.67828001e-02	2.29271622e-04
2.85500000e-01	1.70392254e-02	2.33114905e-04
2.86000000e-01	1.67096563e-02	2.28986833e-04
2.86500000e-01	1.71143514e-02	2.32782305e-04
2.87000000e-01	1.70566972e-02	2.32307847e-04
2.87500000e-01	1.69820802e-02	2.31404749e-04
2.88000000e-01	1.67777236e-02	2.28305707e-04
2.88500000e-01	1.69562778e-02	2.30757298e-04
2.89000000e-01	1.68600548e-02	2.30412100e-04
2.89500000e-01	1.68615131e-02	2.28615924e-04
2.90000000e-01	1.67559002e-02	2.27233752e-04
2.90500000e-01	1.68193407e-02	2.28508454e-04
2.91000000e-01	1.68943440e-02	2.28924682e-04
2.91500000e-01	1.68748204e-02	2.27762954e-04
2.92000000e-01	1.69082078e-02	2.28454738e-04
2.92500000e-01	1.68645779e-02	2.27827590e-04
2.93000000e-01	1.68929775e-02	2.27772396e-04
2.93500000e-01	1.67433808e-02	2.26280467e-04
2.94000000e-01	1.68678263e-02	2.26436705e-04
2.94500000e-01	1.68562032e-02	2.26780968e-04
2.95000000e-01	1.67193968e-02	2.24934519e-04
2.95500000e-01	1.69337612e-02	2.27254489e-04
2.96000000e-01	1.68535817e-02	2.26259550e-04
2.96500000e-01	1.68207012e-02	2.25084562e-04
2.97000000e-01	1.67855000e-02	2.25567121e-04
2.97500000e-01	1.67926306e-02	2.24113141e-04
2.98000000e-01	1.67751745e-02	2.24786435e-04
2.98500000e-01	1.66904749e-02	2.23574856e-04
2.99000000e-01	1.68012605e-02	2.24037357e-04
2.99500000e-01	1.68298417e-02	2.25118088e-04
3.00000000e-01	1.67817821e-02	2.23337382e-04
3.00500000e-01	1.67580233e-02	2.23822311e-04
3.01000000e-01	1.66265986e-02	2.20766154e-04
3.01500000e-01	1.68340438e-02	2.24150066e-04
3.02000000e-01	1.66339694e-02	2.20925595e-04
3.02500000e-01	1.66894384e-02	2.22764126e-04
3.03000000e-01	1.66615173e-02	2.21754108e-04
3.03500000e-01	1.67557435e-02	2.21313069e-04
3.04000000e-01	1.66899395e-02	2.21959705e-04
3.04500000e-01	1.65610175e-02	2.18241378e-04
3.05000000e-01	1.66727263e-02	2.19680916e-04
3.05500000e-01	1.66345845e-02	2.20471839e-04
3.06000000e-01	1.66641999e-02	2.19082210e-04
3.06500000e-01	1.65770601e-02	2.19056836e-04
3.07000000e-01	1.65701490e-02	2.18315698e-04
3.07500000e-01	1.64536255e-02	2.17589037e-04
3.08000000e-01	1.64803200e-02	2.16802685e-04
3.08500000e-01	1.66464275e-02	2.19376692e-04
3.09000000e-01	1.66346867e-02	2.19019191e-04
3.09500000e-01	1.65200449e-02	2.17449662e-04
3.10000000e-01	1.68230496e-02	2.20900936e-04
3.10500000e-01	1.64977760e-02	2.16155655e-04
3.11000000e-01	1.65721434e-02	2.17469962e-04
3.11500000e-01	1.65808835e-02	2.17766499e-04
3.12000000e-01	1.65547040e-02	2.16648003e-04
3.12500000e-01	1.64745716e-02	2.15171721e-04
3.13000000e-01	1.63364973e-02	2.12653092e-04
3.13500000e-01	1.65199994e-02	2.16113912e-04
3.14000000e-01	1.65354478e-02	2.16018751e-04
3.14500000e-01	1.65110763e-02	2.14184715e-04
3.15000000e-01	1.65453962e-02	2.15180204e-04
3.15500000e-01	1.65697362e-02	2.15768365e-04
3.16000000e-01	1.66350425e-02	2.16515871e-04
3.16500000e-01	1.66002859e-02	2.15779675e-04
3.17000000e-01	1.64591652e-02	2.13407557e-04
3.17500000e-01	1.65402699e-02	2.14953300e-04
3.18000000e-01	1.63759077e-02	2.12325104e-04
3.18500000e-01	1.62657317e-02	2.10945591e-04
3.19000000e-01	1.64020716e-02	2.12087122e-04
3.19500000e-01	1.65228530e-02	2.14193104e-04
3.20000000e-01	1.64749663e-02	2.13179064e-04
3.20500000e-01	1.64412558e-02	2.12325155e-04
3.21000000e-01	1.64008376e-02	2.11630564e-04
3.21500000e-01	1.64645690e-02	2.11923397e-04
3.22000000e-01	1.63055159e-02	2.09822079e-04
3.22500000e-01	1.61681666e-02	2.07874239e-04
3.23000000e-01	1.63672124e-02	2.11015414e-04
3.23500000e-01	1.63671177e-02	2.10263834e-04
3.24000000e-01	1.62901144e-02	2.09253576e-04
3.24500000e-01	1.63576736e-02	2.09665562e-04
3.25000000e-01	1.61158433e-02	2.06554624e-04
3.25500000e-01	1.61373769e-02	2.07131409e-04
3.26000000e-01	1.61785617e-02	2.06982334e-04
3.26500000e-01	1.62119406e-02	2.07589747e-04
3.27000000e-01	1.62062030e-02	2.07975828e-04
3.27500000e-01	1.61676862e-02	2.07537218e-04
3.28000000e-01	1.61221202e-02	2.05985142e-04
3.28500000e-01	1.59656240e-02	2.04124715e-04
3.29000000e-01	1.60338475e-02	2.05053610e-04
3.29500000e-01	1.61763000e-02	2.06897657e-04
3.30000000e-01	1.63857105e-02	2.08198099e-04
3.30500000e-01	1.60906572e-02	2.05201350e-04
3.31000000e-01	1.63078973e-02	2.07145898e-04
3.31500000e-01	1.61206665e-02	2.04526343e-04
3.32000000e-01	1.60578303e-02	2.04418788e-04
3.32500000e-01	1.61694656e-02	2.04856755e-04
3.33000000e-01	1.61608821e-02	2.04870534e-04
3.33500000e-01	1.62982042e-02	2.06555608e-04
3.34000000e-01	1.61276737e-02	2.04565827e-04
3.34500000e-01	1.63680234e-02	2.07975358e-04
3.35000000e-01	1.62000960e-02	2.04392545e-04
3.35500000e-01	1.61051667e-02	2.03548456e-04
3.36000000e-01	1.60472389e-02	2.02685963e-04
3.36500000e-01	1.60562530e-02	2.03635357e-04
3.37000000e-01	1.59021972e-02	2.01026727e-04
3.37500000e-01	1.60660116e-02	2.03098014e-04
3.38000000e-01	1.59909957e-02	2.02016488e-04
3.38500000e-01	1.59841437e-02	2.01378559e-04
3.39000000e-01	1.58882679e-02	2.00961859e-04
3.39500000e-01	1.60921193e-02	2.01987908e-04
3.40000000e-01	1.59659219e-02	1.99869884e-04
3.40500000e-01	1.59740276e-02	2.00676749e-04
3.41000000e-01	1.59516675e-02	1.99707185e-04
3.41500000e-01	1.59382796e-02	1.99595108e-04
3.42000000e-01	1.58845478e-02	1.98611401e-04
3.42500000e-01	1.60522696e-02	2.01413954e-04
3.43000000e-01	1.60365586e-02	1.99713366e-04
3.43500000e-01	1.59434565e-02	1.98669579e-04
3.44000000e-01	1.59802580e-02	1.99788937e-04
3.44500000e-01	1.59416809e-02	1.98522798e-04
3.45000000e-01	1.59485513e-02	1.99327561e-04
3.45500000e-01	1.59422440e-02	1.98386871e-04
3.46000000e-01	1.58835689e-02	1.98437390e-04
3.46500000e-01	1.57804206e-02	1.96329209e-04
3.47000000e-01	1.58448380e-02	1.97053079e-04
3.47500000e-01	1.57609446e-02	1.96359704e-04
3.48000000e-01	1.59498019e-02	1.98361354e-04
3.48500000e-01	1.59049917e-02	1.97652400e-04
3.49000000e-01	1.61175029e-02	1.99004073e-04
3.49500000e-01	1.60281314e-02	1.98625818e-04
3.50000000e-01	1.58646228e-02	1.60334111e-04
3.51000000e-01	1.56444851e-02	1.37165036e-04
3.52000000e-01	1.58420113e-02	1.38352224e-04
3.53000000e-01	1.58701511e-02	1.38132370e-04
3.54000000e-01	1.58616671e-02	1.37989257e-04
3.55000000e-01	1.58087209e-02	1.37406476e-04
3.56000000e-01	1.58944898e-02	1.38751300e-04
3.57000000e-01	1.56865468e-02	1.39853121e-04
3.58000000e-01	1.58024758e-02	1.41439472e-04
3.59000000e-01	1.57355425e-02	1.42010899e-04
3.60000000e-01	1.56829234e-02	1.42436188e-04
3.61000000e-01	1.56520365e-02	1.42744319e-04
3.62000000e-01	1.55966276e-02	1.43246845e-04
3.63000000e-01	1.55801453e-02	1.43504768e-04
3.64000000e-01	1.55086615e-02	1.43453684e-04
3.65000000e-01	1.56393280e-02	1.44840262e-04
3.66000000e-01	1.54644391e-02	1.41864031e-04
3.67000000e-01	1.55522655e-02	1.40581483e-04
3.68000000e-01	1.56072624e-02	1.39774072e-04
3.69000000e-01	1.54324819e-02	1.37802586e-04
3.70000000e-01	1.55304879e-02	1.37872536e-04
3.71000000e-01	1.54844675e-02	1.39288259e-04
3.72000000e-01	1.54765186e-02	1.40225506e-04
3.73000000e-01	1.55293219e-02	1.40822872e-04
3.74000000e-01	1.55382097e-02	1.41145798e-04
3.75000000e-01	1.53258873e-02	1.39346448e-04
3.76000000e-01	1.54088647e-02	1.40090868e-04
3.77000000e-01	1.54174118e-02	1.40656377e-04
3.78000000e-01	1.55099013e-02	1.40804674e-04
3.79000000e-01	1.54654764e-02	1.40503798e-04
3.80000000e-01	1.55556324e-02	1.40772305e-04
3.81000000e-01	1.54628241e-02	1.40311057e-04
3.82000000e-01	1.54506961e-02	1.40072505e-04
3.83000000e-01	1.52843934e-02	1.38852444e-04
3.84000000e-01	1.53776801e-02	1.39355999e-04
3.85000000e-01	1.53108223e-02	1.38814235e-04
3.86000000e-01	1.53839232e-02	1.39513730e-04
3.87000000e-01	1.54033751e-02	1.39621947e-04
3.88000000e-01	1.53785990e-02	1.39238847e-04
3.89000000e-01	1.52757195e-02	1.38709183e-04
3.90000000e-01	1.53331069e-02	1.38539088e-04
3.91000000e-01	1.52101501e-02	1.37925271e-04
3.92000000e-01	1.51712277e-02	1.37356522e-04
3.93000000e-01	1.52087617e-02	1.37386487e-04
3.94000000e-01	1.52652861e-02	1.38319806e-04
3.95000000e-01	1.52963425e-02	1.38293752e-04
3.96000000e-01	1.52263449e-02	1.37656776e-04
3.97000000e-01	1.51243755e-02	1.37015533e-04
3.98000000e-01	1.50190935e-02	1.36144475e-04
3.99000000e-01	1.50957856e-02	1.36723923e-04
4.00000000e-01	1.50069808e-02	1.35793734e-04
4.01000000e-01	1.50956924e-02	1.36702413e-04
4.02000000e-01	1.51721029e-02	1.36979765e-04
4.03000000e-01	1.51577953e-02	1.36813538e-04
4.04000000e-01	1.50426256e-02	1.36180130e-04
4.05000000e-01	1.51426505e-02	1.36711558e-04
4.06000000e-01	1.51396056e-02	1.36723003e-04
4.07000000e-01	1.50294536e-02	1.35818397e-04
4.08000000e-01	1.49823025e-02	1.35259951e-04
4.09000000e-01	1.51030789e-02	1.36087911e-04
4.10000000e-01	1.50512896e-02	1.35856723e-04
4.11000000e-01	1.49948759e-02	1.35146942e-04
4.12000000e-01	1.50387643e-02	1.36026147e-04
4.13000000e-01	1.50018453e-02	1.35192699e-04
4.14000000e-01	1.50101889e-02	1.35389813e-04
4.15000000e-01	1.48877272e-02	1.34285156e-04
4.16000000e-01	1.49299789e-02	1.34429805e-04
4.17000000e-01	1.48038304e-02	1.33103125e-04
4.18000000e-01	1.48347967e-02	1.35467041e-04
4.19000000e-01	1.50424117e-02	1.38579459e-04
4.20000000e-01	1.50242152e-02	1.39120161e-04
4.21000000e-01	1.49512270e-02	1.39155564e-04
4.22000000e-01	1.50085882e-02	1.40021789e-04
4.23000000e-01	1.50168930e-02	1.40252551e-04
4.24000000e-01	1.50188844e-02	1.40827020e-04
4.25000000e-01	1.49605868e-02	1.40853490e-04
4.26000000e-01	1.49423752e-02	1.40705343e-04
4.27000000e-01	1.49156639e-02	1.40335235e-04
4.28000000e-01	1.47663454e-02	1.39605408e-04
4.29000000e-01	1.50790829e-02	1.42008499e-04
4.30000000e-01	1.48836812e-02	1.40651807e-04
4.31000000e-01	1.48150805e-02	1.39601345e-04
4.32000000e-01	1.48976034e-02	1.40172299e-04
4.33000000e-01	1.49626692e-02	1.41111695e-04
4.34000000e-01	1.48180893e-02	1.40101804e-04
4.35000000e-01	1.47664231e-02	1.39745167e-04
4.36000000e-01	1.48277044e-02	1.40310632e-04
4.37000000e-01	1.48479440e-02	1.41232638e-04
4.38000000e-01	1.48036552e-02	1.40763045e-04
4.39000000e-01	1.47033353e-02	1.39940353e-04
4.40000000e-01	1.48052174e-02	1.40513614e-04
4.41000000e-01	1.47659267e-02	1.40672600e-04
4.42000000e-01	1.48189933e-02	1.41738851e-04
4.43000000e-01	1.48394547e-02	1.41938311e-04
4.44000000e-01	1.47748078e-02	1.41741688e-04
4.45000000e-01	1.46737516e-02	1.40703602e-04
4.46000000e-01	1.46231296e-02	1.40422598e-04
4.47000000e-01	1.46971316e-02	1.41098213e-04
4.48000000e-01	1.47705777e-02	1.41813786e-04
4.49000000e-01	1.47551420e-02	1.42314532e-04
4.50000000e-01	1.46716264e-02	1.41414166e-04
4.51000000e-01	1.45853506e-02	1.40832426e-04
4.52000000e-01	1.47141555e-02	1.42071116e-04
4.53000000e-01	1.46419481e-02	1.41968792e-04
4.54000000e-01	1.47290373e-02	1.42153030e-04
4.55000000e-01	1.46260908e-02	1.41245529e-04
4.56000000e-01	1.45694950e-02	1.40883621e-04
4.57000000e-01	1.45170732e-02	1.41164017e-04
4.58000000e-01	1.46170248e-02	1.41384120e-04
4.59000000e-01	1.45210797e-02	1.41240801e-04
4.60000000e-01	1.45298991e-02	1.41542757e-04
4.61000000e-01	1.46694402e-02	1.42626866e-04
4.62000000e-01	1.44511847e-02	1.41195684e-04
4.63000000e-01	1.47186894e-02	1.43105306e-04
4.64000000e-01	1.47702960e-02	1.43870890e-04
4.65000000e-01	1.45229960e-02	1.41796931e-04
4.66000000e-01	1.45679117e-02	1.42115177e-04
4.67000000e-01	1.46481293e-02	1.43020485e-04
4.68000000e-01	1.45691536e-02	1.42404248e-04
4.69000000e-01	1.46334270e-02	1.42969173e-04
4.70000000e-01	1.46301178e-02	1.43135415e-04
4.71000000e-01	1.45966635e-02	1.42968716e-04
4.72000000e-01	1.45803928e-02	1.42921614e-04
4.73000000e-01	1.44597711e-02	1.41139632e-04
4.74000000e-01	1.44625824e-02	1.41163004e-04
4.75000000e-01	1.44420309e-02	1.40886934e-04
4.76000000e-01	1.44364127e-02	1.41084550e-04
4.77000000e-01	1.44543312e-02	1.41460015e-04
4.78000000e-01	1.45426739e-02	1.42518092e-04
4.79000000e-01	1.44500987e-02	1.41509384e-04
4.80000000e-01	1.43478214e-02	1.40581352e-04
4.81000000e-01	1.42296450e-02	1.39531400e-04
4.82000000e-01	1.45184476e-02	1.42338097e-04
4.83000000e-01	1.45130390e-02	1.42556024e-04
4.84000000e-01	1.43125851e-02	1.40812955e-04
4.85000000e-01	1.43712302e-02	1.41094488e-04
4.86000000e-01	1.43141014e-02	1.40932310e-04
4.87000000e-01	1.44120359e-02	1.41936215e-04
4.88000000e-01	1.43197142e-02	1.41232523e-04
4.89000000e-01	1.42775017e-02	1.40732368e-04
4.90000000e-01	1.42294920e-02	1.40831053e-04
4.91000000e-01	1.42397076e-02	1.40809719e-04
4.92000000e-01	1.43073474e-02	1.41229973e-04
4.93000000e-01	1.44582614e-02	1.42529172e-04
4.94000000e-01	1.43565088e-02	1.41777876e-04
4.95000000e-01	1.42474305e-02	1.42081506e-04
4.96000000e-01	1.42434533e-02	1.46341384e-04
4.97000000e-01	1.42777054e-02	1.48786037e-04
4.98000000e-01	1.43185450e-02	1.51409516e-04
4.99000000e-01	1.43060642e-02	1.53161918e-04
5.00000000e-01	1.42811492e-02	1.54510792e-04
5.01000000e-01	1.42291138e-02	1.55613395e-04
5.02000000e-01	1.41757300e-02	1.56601458e-04
5.03000000e-01	1.41634552e-02	1.58087722e-04
5.04000000e-01	1.44376184e-02	1.61879322e-04
5.05000000e-01	1.42301011e-02	1.57527497e-04
5.06000000e-01	1.43229048e-02	1.54753495e-04
5.07000000e-01	1.44624984e-02	1.54637635e-04
5.08000000e-01	1.41041317e-02	1.49953180e-04
5.09000000e-01	1.42511310e-02	1.50831507e-04
5.10000000e-01	1.42356596e-02	1.50052603e-04
5.11000000e-01	1.41934167e-02	1.49633190e-04
5.12000000e-01	1.41460809e-02	1.48456488e-04
5.13000000e-01	1.41158783e-02	1.48169875e-04
5.14000000e-01	1.40682595e-02	1.47839827e-04
5.15000000e-01	1.41068966e-02	1.46932000e-04
5.16000000e-01	1.41607418e-02	1.47714258e-04
5.17000000e-01	1.42252126e-02	1.48253401e-04
5.18000000e-01	1.40592140e-02	1.45835036e-04
5.19000000e-01	1.40318876e-02	1.44761041e-04
5.20000000e-01	1.41168697e-02	1.45681050e-04
5.21000000e-01	1.41715503e-02	1.46411856e-04
5.22000000e-01	1.39502839e-02	1.44122997e-04
5.23000000e-01	1.39728322e-02	1.44245432e-04
5.24000000e-01	1.39915777e-02	1.44733349e-04
5.25000000e-01	1.40582941e-02	1.45052636e-04
5.26000000e-01	1.41626864e-02	1.45549035e-04
5.27000000e-01	1.40605456e-02	1.44618840e-04
5.28000000e-01	1.39867684e-02	1.44599836e-04
5.29000000e-01	1.39558253e-02	1.43993415e-04
5.30000000e-01	1.38977167e-02	1.43569620e-04
5.31000000e-01	1.40844863e-02	1.45522406e-04
5.32000000e-01	1.39558357e-02	1.43661679e-04
5.33000000e-01	1.39264637e-02	1.43763776e-04
5.34000000e-01	1.40006163e-02	1.44166769e-04
5.35000000e-01	1.40205592e-02	1.44620993e-04
5.36000000e-01	1.38186981e-02	1.42478178e-04
5.37000000e-01	1.39101576e-02	1.43200509e-04
5.38000000e-01	1.39150284e-02	1.43511801e-04
5.39000000e-01	1.39285992e-02	1.43533275e-04
5.40000000e-01	1.39736920e-02	1.44381967e-04
5.41000000e-01	1.38484167e-02	1.42848890e-04
5.42000000e-01	1.38538057e-02	1.42916174e-04
5.43000000e-01	1.38726228e-02	1.42553079e-04
5.44000000e-01	1.38025077e-02	1.42113136e-04
5.45000000e-01	1.38213587e-02	1.42616381e-04
5.46000000e-01	1.38716367e-02	1.42965353e-04
5.47000000e-01	1.36655155e-02	1.41153932e-04
5.48000000e-01	1.37736632e-02	1.42399370e-04
5.49000000e-01	1.38007530e-02	1.42052616e-04
5.50000000e-01	1.38766253e-02	1.43007902e-04
5.51000000e-01	1.38622578e-02	1.42437403e-04
5.52000000e-01	1.37997534e-02	1.41649935e-04
5.53000000e-01	1.37691632e-02	1.40918401e-04
5.54000000e-01	1.37036132e-02	1.40549958e-04
5.55000000e-01	1.36194252e-02	1.38967583e-04
5.56000000e-01	1.37844136e-02	1.41103717e-04
5.57000000e-01	1.36940906e-02	1.40804213e-04
5.58000000e-01	1.36807792e-02	1.40290408e-04
5.59000000e-01	1.37297687e-02	1.40560589e-04
5.60000000e-01	1.36782307e-02	1.40626752e-04
5.61000000e-01	1.36254942e-02	1.39083863e-04
5.62000000e-01	1.36374383e-02	1.39860908e-04
5.63000000e-01	1.35976197e-02	1.39812220e-04
5.64000000e-01	1.35450553e-02	1.38899549e-04
5.65000000e-01	1.35445462e-02	1.39116486e-04
5.66000000e-01	1.35051955e-02	1.38733411e-04
5.67000000e-01	1.37156806e-02	1.40592570e-04
5.68000000e-01	1.36906282e-02	1.40637315e-04
5.69000000e-01	1.36667182e-02	1.39773103e-04
5.70000000e-01	1.36189012e-02	1.39456776e-04
5.71000000e-01	1.35160652e-02	1.38870225e-04
5.72000000e-01	1.36048997e-02	1.39490972e-04
5.73000000e-01	1.35035186e-02	1.39094385e-04
5.74000000e-01	1.35719969e-02	1.39608132e-04
5.75000000e-01	1.34310275e-02	1.38297768e-04
5.76000000e-01	1.35258668e-02	1.39408325e-04
5.77000000e-01	1.34427175e-02	1.38154006e-04
5.78000000e-01	1.34125104e-02	1.38354939e-04
5.79000000e-01	1.34042333e-02	1.38016985e-04
5.80000000e-01	1.34502942e-02	1.38404594e-04
5.81000000e-01	1.33623864e-02	1.37692193e-04
5.82000000e-01	1.34065451e-02	1.38006440e-04
5.83000000e-01	1.35045333e-02	1.38789103e-04
5.84000000e-01	1.33186134e-02	1.37385767e-04
5.85000000e-01	1.33214140e-02	1.36922944e-04
5.86000000e-01	1.33146129e-02	1.37319196e-04
5.87000000e-01	1.34643656e-02	1.38690105e-04
5.88000000e-01	1.32905567e-02	1.36905697e-04
5.89000000e-01	1.34155968e-02	1.38503312e-04
5.90000000e-01	1.32508835e-02	1.37094917e-04
5.91000000e-01	1.33828327e-02	1.38017579e-04
5.92000000e-01	1.34248747e-02	1.38238738e-04
5.93000000e-01	1.32215322e-02	1.36502207e-04
5.94000000e-01	1.32787293e-02	1.37108983e-04
5.95000000e-01	1.33715191e-02	1.38480159e-04
5.96000000e-01	1.34139294e-02	1.38507219e-04
5.97000000e-01	1.33244289e-02	1.37653272e-04
5.98000000e-01	1.34035788e-02	1.38601155e-04
5.99000000e-01	1.32249238e-02	1.37027206e-04
6.00000000e-01	1.32330382e-02	1.36694966e-04
6.01000000e-01	1.31748417e-02	1.36280203e-04
6.02000000e-01	1.32684203e-02	1.37001774e-04
6.03000000e-01	1.30932184e-02	1.35647567e-04
6.04000000e-01	1.32034950e-02	1.36557337e-04
6.05000000e-01	1.31561107e-02	1.35812600e-04
6.06000000e-01	1.32890558e-02	1.38009818e-04
6.07000000e-01	1.31609699e-02	1.36461136e-04
6.08000000e-01	1.31803393e-02	1.36405790e-04
6.09000000e-01	1.31716988e-02	1.36762791e-04
6.10000000e-01	1.32004703e-02	1.36650459e-04
6.11000000e-01	1.31164900e-02	1.36138631e-04
6.12000000e-01	1.30796601e-02	1.35161482e-04
6.13000000e-01	1.31287987e-02	1.35838544e-04
6.14000000e-01	1.32883846e-02	1.37724976e-04
6.15000000e-01	1.31619738e-02	1.36735011e-04
6.16000000e-01	1.30939140e-02	1.36126540e-04
6.17000000e-01	1.30244722e-02	1.34902290e-04
6.18000000e-01	1.32015016e-02	1.36763392e-04
6.19000000e-01	1.31686477e-02	1.36447258e-04
6.20000000e-01	1.30867415e-02	1.35278219e-04
6.21000000e-01	1.32000532e-02	1.36172858e-04
6.22000000e-01	1.29941033e-02	1.34280125e-04
6.23000000e-01	1.30248903e-02	1.34345500e-04
6.24000000e-01	1.31734808e-02	1.34895458e-04
6.25000000e-01	1.30945751e-02	1.34710367e-04
6.26000000e-01	1.29542806e-02	1.33478088e-04
6.27000000e-01	1.31294015e-02	1.34755914e-04
6.28000000e-01	1.30476563e-02	1.34133949e-04
6.29000000e-01	1.30197747e-02	1.34185445e-04
6.30000000e-01	1.30174893e-02	1.34101887e-04
6.31000000e-01	1.29305305e-02	1.33405865e-04
6.32000000e-01	1.29914689e-02	1.33707273e-04
6.33000000e-01	1.30194545e-02	1.34461254e-04
6.34000000e-01	1.30152724e-02	1.37533764e-04
6.35000000e-01	1.29979131e-02	1.41110093e-04
6.36000000e-01	1.29238979e-02	1.43430345e-04
6.37000000e-01	1.31261941e-02	1.47577071e-04
6.38000000e-01	1.29319946e-02	1.47421660e-04
6.39000000e-01	1.29545736e-02	1.49707812e-04
6.40000000e-01	1.30486427e-02	1.52114757e-04
6.41000000e-01	1.32002010e-02	1.55289260e-04
6.42000000e-01	1.30658927e-02	1.56012955e-04
6.43000000e-01	1.29111613e-02	1.54121672e-04
6.44000000e-01	1.29749559e-02	1.49079495e-04
6.45000000e-01	1.30759803e-02	1.47710899e-04
6.46000000e-01	1.29523034e-02	1.45517885e-04
6.47000000e-01	1.30464096e-02	1.45039163e-04
6.48000000e-01	1.30283768e-02	1.44227263e-04
6.49000000e-01	1.30072838e-02	1.43774585e-04
6.50000000e-01	1.29933882e-02	1.42101674e-04
6.51000000e-01	1.30862105e-02	1.43234714e-04
6.52000000e-01	1.28850738e-02	1.40487677e-04
6.53000000e-01	1.29840662e-02	1.40635600e-04
6.54000000e-01	1.28950560e-02	1.39561893e-04
6.55000000e-01	1.29727143e-02	1.39632139e-04
6.56000000e-01	1.30095255e-02	1.40079327e-04
6.57000000e-01	1.30075296e-02	1.39959075e-04
6.58000000e-01	1.29210627e-02	1.38769489e-04
6.59000000e-01	1.29092831e-02	1.38393383e-04
6.60000000e-01	1.30432413e-02	1.39397428e-04
6.61000000e-01	1.30174480e-02	1.39115348e-04
6.62000000e-01	1.29826502e-02	1.39887540e-04
6.63000000e-01	1.29052194e-02	1.38092548e-04
6.64000000e-01	1.29933677e-02	1.38728892e-04
6.65000000e-01	1.30007683e-02	1.39218016e-04
6.66000000e-01	1.27539665e-02	1.36458243e-04
6.67000000e-01	1.30162461e-02	1.38727003e-04
6.68000000e-01	1.29654362e-02	1.38403515e-04
6.69000000e-01	1.29297443e-02	1.37996138e-04
6.70000000e-01	1.28061143e-02	1.36562298e-04
6.71000000e-01	1.27311894e-02	1.35581482e-04
6.72000000e-01	1.27727161e-02	1.36610507e-04
6.73000000e-01	1.27454284e-02	1.36080034e-04
6.74000000e-01	1.27861376e-02	1.36272320e-04
6.75000000e-01	1.29399779e-02	1.37775911e-04
6.76000000e-01	1.26141730e-02	1.34556718e-04
6.77000000e-01	1.26740488e-02	1.35680977e-04
6.78000000e-01	1.27289885e-02	1.35284192e-04
6.79000000e-01	1.27747267e-02	1.36025616e-04
6.80000000e-01	1.27195978e-02	1.35675205e-04
6.81000000e-01	1.28439948e-02	1.36475947e-04
6.82000000e-01	1.26982536e-02	1.34971608e-04
6.83000000e-01	1.27549006e-02	1.35791881e-04
6.84000000e-01	1.27086378e-02	1.35071209e-04
6.85000000e-01	1.28515126e-02	1.36251920e-04
6.86000000e-01	1.26154524e-02	1.34323577e-04
6.87000000e-01	1.27639613e-02	1.35906403e-04
6.88000000e-01	1.27052290e-02	1.34996379e-04
6.89000000e-01	1.26608726e-02	1.34412296e-04
6.90000000e-01	1.27552672e-02	1.35768674e-04
6.91000000e-01	1.27615189e-02	1.35825805e-04
6.92000000e-01	1.27017554e-02	1.35355785e-04
6.93000000e-01	1.25973265e-02	1.33977777e-04
6.94000000e-01	1.26653975e-02	1.34926835e-04
6.95000000e-01	1.25776135e-02	1.33512699e-04
6.96000000e-01	1.27312555e-02	1.35107030e-04
6.97000000e-01	1.24500682e-02	1.32740073e-04
6.98000000e-01	1.24500400e-02	1.32693262e-04
6.99000000e-01	1.26053012e-02	1.33541796e-04
7.00000000e-01	1.25644417e-02	1.33567116e-04
7.01000000e-01	1.25444345e-02	1.33454271e-04
7.02000000e-01	1.26797683e-02	1.35075475e-04
7.03000000e-01	1.25893164e-02	1.34398793e-04
7.04000000e-01	1.26020814e-02	1.33499111e-04
7.05000000e-01	1.26528535e-02	1.34115341e-04
7.06000000e-01	1.24938028e-02	1.32821407e-04
7.07000000e-01	1.25856859e-02	1.33489898e-04
7.08000000e-01	1.25272182e-02	1.31836211e-04
7.09000000e-01	1.24887324e-02	1.32514368e-04
7.10000000e-01	1.24395040e-02	1.32138082e-04
7.11000000e-01	1.23706209e-02	1.31624680e-04
7.12000000e-01	1.24948409e-02	1.32223024e-04
7.13000000e-01	1.22579876e-02	1.30079361e-04
7.14000000e-01	1.22998020e-02	1.30900175e-04
7.15000000e-01	1.24607806e-02	1.32284738e-04
7.16000000e-01	1.25457300e-02	1.32953386e-04
7.17000000e-01	1.24222507e-02	1.31890218e-04
7.18000000e-01	1.24104150e-02	1.31844940e-04
7.19000000e-01	1.23984535e-02	1.31619567e-04
7.20000000e-01	1.22888697e-02	1.30688980e-04
7.21000000e-01	1.24496323e-02	1.32208868e-04
7.22000000e-01	1.23568120e-02	1.31216115e-04
7.23000000e-01	1.22402872e-02	1.30411922e-04
7.24000000e-01	1.21872787e-02	1.29890276e-04
7.25000000e-01	1.24894844e-02	1.32512599e-04
7.26000000e-01	1.21845646e-02	1.29409102e-04
7.27000000e-01	1.22076648e-02	1.29934077e-04
7.28000000e-01	1.22986191e-02	1.30540113e-04
7.29000000e-01	1.22947567e-02	1.30875244e-04
7.30000000e-01	1.21401784e-02	1.29671181e-04
7.31000000e-01	1.21534414e-02	1.29351644e-04
7.32000000e-01	1.22596382e-02	1.30569041e-04
7.33000000e-01	1.23667924e-02	1.31032661e-04
7.34000000e-01	1.20941065e-02	1.28768729e-04
7.35000000e-01	1.21426373e-02	1.29028948e-04
7.36000000e-01	1.22679876e-02	1.29884909e-04
7.37000000e-01	1.20064392e-02	1.27079921e-04
7.38000000e-01	1.21106489e-02	1.27922549e-04
7.39000000e-01	1.20372085e-02	1.27390953e-04
7.40000000e-01	1.21379096e-02	1.27446341e-04
7.41000000e-01	1.21087269e-02	1.27616582e-04
7.42000000e-01	1.20747904e-02	1.27147284e-04
7.43000000e-01	1.21496099e-02	1.28058320e-04
7.44000000e-01	1.20547916e-02	1.27134302e-04
7.45000000e-01	1.20967320e-02	1.27595481e-04
7.46000000e-01	1.20403990e-02	1.26620409e-04
7.47000000e-01	1.20931627e-02	1.27566296e-04
7.48000000e-01	1.19948200e-02	1.26438653e-04
7.49000000e-01	1.21209957e-02	1.28034442e-04
7.50000000e-01	1.20860023e-02	1.27569975e-04
7.51000000e-01	1.20518139e-02	1.27135302e-04
7.52000000e-01	1.20050071e-02	1.26924594e-04
7.53000000e-01	1.18764466e-02	1.25187576e-04
7.54000000e-01	1.21267796e-02	1.27611040e-04
7.55000000e-01	1.19433996e-02	1.26091585e-04
7.56000000e-01	1.19504992e-02	1.26464407e-04
7.57000000e-01	1.20040896e-02	1.26378403e-04
7.58000000e-01	1.21376948e-02	1.27774778e-04
7.59000000e-01	1.21041153e-02	1.26995134e-04
7.60000000e-01	1.20059335e-02	1.26392402e-04
7.61000000e-01	1.18213123e-02	1.24383348e-04
7.62000000e-01	1.18663957e-02	1.24229981e-04
7.63000000e-01	1.19754702e-02	1.25749027e-04
7.64000000e-01	1.19107642e-02	1.24821719e-04
7.65000000e-01	1.18913712e-02	1.24253904e-04
7.66000000e-01	1.19643636e-02	1.25192154e-04
7.67000000e-01	1.17862280e-02	1.23459971e-04
7.68000000e-01	1.17930223e-02	1.23542749e-04
7.69000000e-01	1.18246500e-02	1.23791036e-04
7.70000000e-01	1.18301315e-02	1.23718449e-04
7.71000000e-01	1.18819084e-02	1.24412409e-04
7.72000000e-01	1.18456628e-02	1.27612496e-04
7.73000000e-01	1.18408764e-02	1.31474799e-04
7.74000000e-01	1.18507468e-02	1.34221679e-04
7.75000000e-01	1.17846411e-02	1.35740930e-04
7.76000000e-01	1.19036514e-02	1.39851284e-04
7.77000000e-01	1.18895765e-02	1.41676050e-04
7.78000000e-01	1.17161047e-02	1.42263137e-04
7.79000000e-01	1.17139911e-02	1.42622719e-04
7.80000000e-01	1.17116161e-02	1.44710967e-04
7.81000000e-01	1.17336109e-02	1.46500655e-04
7.82000000e-01	1.16825156e-02	1.47398710e-04
7.83000000e-01	1.17716626e-02	1.50590937e-04
7.84000000e-01	1.16077283e-02	1.49597449e-04
7.85000000e-01	1.17306106e-02	1.52421075e-04
7.86000000e-01	1.13885599e-02	1.51032257e-04
7.87000000e-01	1.17804754e-02	1.56121303e-04
7.88000000e-01	1.16523189e-02	1.56927598e-04
7.89000000e-01	1.16506447e-02	1.58007370e-04
7.90000000e-01	1.15352324e-02	1.58611603e-04
7.91000000e-01	1.14822712e-02	1.59188789e-04
7.92000000e-01	1.15719138e-02	1.61760781e-04
7.93000000e-01	1.15719080e-02	1.63803059e-04
7.94000000e-01	1.16614325e-02	1.66642142e-04
7.95000000e-01	1.14569191e-02	1.66694894e-04
7.96000000e-01	1.14612016e-02	1.67376582e-04
7.97000000e-01	1.12952903e-02	1.66750075e-04
7.98000000e-01	1.14770503e-02	1.69937409e-04
7.99000000e-01	1.14242988e-02	1.72215546e-04
8.00000000e-01	1.14878327e-02	1.73950745e-04
8.01000000e-01	1.14185945e-02	1.75205051e-04
8.02000000e-01	1.14081488e-02	1.77197436e-04
8.03000000e-01	1.14292071e-02	1.78899696e-04
8.04000000e-01	1.13906720e-02	1.80539961e-04
8.05000000e-01	1.14351204e-02	1.83212082e-04
8.06000000e-01	1.14334276e-02	1.85310851e-04
8.07000000e-01	1.15070119e-02	1.87701256e-04
8.08000000e-01	1.13225026e-02	1.87372473e-04
8.09000000e-01	1.12280420e-02	1.88040655e-04
8.10000000e-01	1.12769168e-02	1.91446930e-04
8.11000000e-01	1.11996152e-02	1.91996282e-04
8.12000000e-01	1.13383286e-02	1.97194205e-04
8.13000000e-01	1.13502219e-02	1.98875763e-04
8.14000000e-01	1.11394646e-02	1.97684054e-04
8.15000000e-01	1.12639480e-02	2.02267136e-04
8.16000000e-01	1.12047767e-02	2.02481604e-04
8.17000000e-01	1.12598251e-02	2.06394232e-04
8.18000000e-01	1.11271949e-02	2.06724881e-04
8.19000000e-01	1.12817535e-02	2.12867108e-04
8.20000000e-01	1.14211545e-02	2.16598687e-04
8.21000000e-01	1.11241797e-02	2.15729354e-04
8.22000000e-01	1.12061907e-02	2.19625213e-04
8.23000000e-01	1.10931780e-02	2.21064865e-04
8.24000000e-01	1.11885842e-02	2.26963563e-04
8.25000000e-01	1.08681116e-02	2.22565053e-04
8.26000000e-01	1.11185717e-02	2.31168865e-04
8.27000000e-01	1.11193579e-02	2.33645027e-04
8.28000000e-01	1.08686061e-02	2.34621093e-04
8.29000000e-01	1.10795559e-02	2.40587186e-04
8.30000000e-01	1.11282652e-02	2.44428266e-04
8.31000000e-01	1.13133760e-02	2.52940941e-04
8.32000000e-01	1.10698547e-02	2.53041753e-04
8.33000000e-01	1.09407140e-02	2.52875472e-04
8.34000000e-01	1.08251894e-02	2.56520099e-04
8.35000000e-01	1.09807586e-02	2.63663584e-04
8.36000000e-01	1.10641075e-02	2.69247371e-04
8.37000000e-01	1.08283091e-02	2.69886079e-04
8.38000000e-01	1.08430894e-02	2.75188877e-04
8.39000000e-01	1.08383324e-02	2.82674173e-04
8.40000000e-01	1.11315401e-02	2.95851927e-04
8.41000000e-01	1.07939912e-02	2.96212428e-04
8.42000000e-01	1.10071159e-02	3.02212605e-04
8.43000000e-01	1.06737544e-02	3.06624957e-04
8.44000000e-01	1.07610194e-02	3.14622987e-04
8.45000000e-01	1.10492089e-02	3.29188461e-04
8.46000000e-01	1.08327088e-02	3.31279972e-04
8.47000000e-01	1.06924042e-02	3.39068224e-04
8.48000000e-01	1.08441287e-02	3.52248664e-04
8.49000000e-01	1.07361726e-02	3.60873359e-04
8.50000000e-01	1.08489317e-02	3.75374684e-04
8.51000000e-01	1.05948520e-02	3.83769853e-04
8.52000000e-01	1.06624273e-02	3.99413432e-04
8.53000000e-01	1.07298120e-02	4.19383489e-04
8.54000000e-01	1.09740647e-02	4.47716567e-04
8.55000000e-01	1.05645236e-02	4.52461360e-04
8.56000000e-01	1.02617598e-02	4.46585761e-04
8.57000000e-01	1.03571669e-02	4.65395505e-04
8.58000000e-01	1.07547743e-02	4.95844745e-04
8.59000000e-01	1.10629780e-02	5.22145913e-04
8.60000000e-01	1.03488958e-02	5.14508529e-04
8.61000000e-01	1.04408533e-02	5.28136496e-04
8.62000000e-01	1.06262895e-02	5.54152453e-04
8.63000000e-01	1.07351201e-02	5.94210390e-04
8.64000000e-01	1.06978610e-02	6.16924294e-04
8.65000000e-01	1.02554643e-02	6.22516442e-04
8.66000000e-01	1.06462747e-02	6.68065700e-04
8.67000000e-01	1.02009924e-02	6.84645443e-04
8.68000000e-01	1.05525662e-02	7.56387765e-04
8.69000000e-01	1.02491702e-02	7.82493258e-04
8.70000000e-01	1.04782170e-02	8.52664507e-04
8.71000000e-01	1.04935320e-02	9.70965674e-04
8.72000000e-01	1.10709183e-02	1.13165093e-03
8.73000000e-01	1.03158113e-02	1.24177846e-03
8.74000000e-01	1.05172536e-02	1.71870344e-03
8.75000000e-01	1.29842460e-02	4.37288643e-03
