% Filename : SDL5_p7_00025_00003.h5
% Date & Time : 30-Oct-2025 16:55:29
% X-ray Energy (keV) : 13.30001
% Exposure Time (s) : 0.500
% Beam Center : 1461.24000, 208.98300
% Sample to Detector Distance (SDD) (mm) : 1990.750
% Detector Pixel Size (mm) : 0.075
% Photodiode Value : 141074.000
% I0 of Sample : 0
% I0 of Standard : 1
% 
% q(A^-1)   I(q)    I(q)_SE
0.00000000e+00	1.40872109e-02	7.99769249e-03
2.50000000e-04	0.00000000e+00	0.00000000e+00
5.00000000e-04	0.00000000e+00	0.00000000e+00
7.50000000e-04	0.00000000e+00	0.00000000e+00
1.00000000e-03	0.00000000e+00	0.00000000e+00
1.25000000e-03	0.00000000e+00	0.00000000e+00
1.50000000e-03	0.00000000e+00	0.00000000e+00
1.75000000e-03	0.00000000e+00	0.00000000e+00
2.00000000e-03	0.00000000e+00	0.00000000e+00
2.25000000e-03	0.00000000e+00	0.00000000e+00
2.50000000e-03	0.00000000e+00	0.00000000e+00
2.75000000e-03	0.00000000e+00	0.00000000e+00
3.00000000e-03	0.00000000e+00	0.00000000e+00
3.25000000e-03	4.98419064e+01	2.90531879e+01
3.50000000e-03	5.45895565e+01	1.21409316e+01
3.75000000e-03	4.77807020e+01	8.53203442e+00
4.00000000e-03	4.46103442e+01	7.16886855e+00
4.25000000e-03	3.85823114e+01	5.23211740e+00
4.50000000e-03	6.77932327e+01	1.16079730e+01
4.75000000e-03	6.61939221e+01	1.03931881e+01
5.00000000e-03	5.07658980e+01	7.60218706e+00
5.25000000e-03	4.18954322e+01	6.02353960e+00
5.50000000e-03	3.34202761e+01	4.57885191e+00
5.75000000e-03	2.79839355e+01	3.72604675e+00
6.00000000e-03	2.26082941e+01	2.82273387e+00
6.25000000e-03	1.88808048e+01	2.34798323e+00
6.50000000e-03	1.58062086e+01	1.88256691e+00
6.75000000e-03	1.31847834e+01	1.52696954e+00
7.00000000e-03	1.17065647e+01	1.31212002e+00
7.25000000e-03	9.94505786e+00	1.06492104e+00
7.50000000e-03	8.33270754e+00	8.84934532e-01
7.75000000e-03	7.30543802e+00	7.64116799e-01
8.00000000e-03	6.53050312e+00	6.67115998e-01
8.25000000e-03	5.58903088e+00	5.46556513e-01
8.50000000e-03	5.05326537e+00	4.76659003e-01
8.75000000e-03	4.48104316e+00	4.24011677e-01
9.00000000e-03	3.92033965e+00	3.60712732e-01
9.25000000e-03	3.50777723e+00	3.14769549e-01
9.50000000e-03	3.09248159e+00	2.69880456e-01
9.75000000e-03	2.79588535e+00	2.41500705e-01
1.00000000e-02	2.47025577e+00	2.06973257e-01
1.02500000e-02	2.25182678e+00	1.92553348e-01
1.05000000e-02	2.09351323e+00	1.69567370e-01
1.07500000e-02	1.85732928e+00	1.50254587e-01
1.10000000e-02	1.71539898e+00	1.32489135e-01
1.12500000e-02	1.54169873e+00	1.22329454e-01
1.15000000e-02	1.43147678e+00	1.11166094e-01
1.17500000e-02	1.30297016e+00	9.81166243e-02
1.20000000e-02	1.19365086e+00	9.00609074e-02
1.22500000e-02	1.11446854e+00	8.12183447e-02
1.25000000e-02	1.02115509e+00	7.46227861e-02
1.27500000e-02	9.51550833e-01	6.85120978e-02
1.30000000e-02	8.86530235e-01	6.20370054e-02
1.32500000e-02	8.04067175e-01	5.51240100e-02
1.35000000e-02	7.59071159e-01	5.17590554e-02
1.37500000e-02	6.98867991e-01	4.78653286e-02
1.40000000e-02	6.47358790e-01	4.32178741e-02
1.42500000e-02	6.09474752e-01	3.99144632e-02
1.45000000e-02	5.70895229e-01	3.67523317e-02
1.47500000e-02	5.37137241e-01	3.47192079e-02
1.50000000e-02	4.97070345e-01	3.15180544e-02
1.52500000e-02	4.67001954e-01	2.93259115e-02
1.55000000e-02	4.38034427e-01	2.69755525e-02
1.57500000e-02	4.07828949e-01	2.50589910e-02
1.60000000e-02	3.90041872e-01	2.35338846e-02
1.62500000e-02	3.72192249e-01	2.27571105e-02
1.65000000e-02	3.46765916e-01	2.05900286e-02
1.67500000e-02	3.34651092e-01	1.94935111e-02
1.70000000e-02	3.11500548e-01	1.82473973e-02
1.72500000e-02	2.98990180e-01	1.74233536e-02
1.75000000e-02	2.86975046e-01	1.64812671e-02
1.77500000e-02	2.65327382e-01	1.48807979e-02
1.80000000e-02	2.55127977e-01	1.43458092e-02
1.82500000e-02	2.42498978e-01	1.32450024e-02
1.85000000e-02	2.32123814e-01	1.30153652e-02
1.87500000e-02	2.19975439e-01	1.20616727e-02
1.90000000e-02	2.11051902e-01	1.15181174e-02
1.92500000e-02	2.00110547e-01	1.06855194e-02
1.95000000e-02	1.91972910e-01	1.01013330e-02
1.97500000e-02	1.85194852e-01	9.91395165e-03
2.00000000e-02	1.74809248e-01	9.21489608e-03
2.02500000e-02	1.67962094e-01	8.74541755e-03
2.05000000e-02	1.63227088e-01	8.36520150e-03
2.07500000e-02	1.60673847e-01	8.23154937e-03
2.10000000e-02	1.52904865e-01	7.85447198e-03
2.12500000e-02	1.46626639e-01	7.46843424e-03
2.15000000e-02	1.41674764e-01	7.15841852e-03
2.17500000e-02	1.38410724e-01	7.08698265e-03
2.20000000e-02	1.34107389e-01	6.85888541e-03
2.22500000e-02	1.30527034e-01	6.70357839e-03
2.25000000e-02	1.25885057e-01	6.41636853e-03
2.27500000e-02	1.21393462e-01	6.13931515e-03
2.30000000e-02	1.18218663e-01	6.08815620e-03
2.32500000e-02	1.13031390e-01	5.68004720e-03
2.35000000e-02	1.09376590e-01	5.55502496e-03
2.37500000e-02	1.08500519e-01	5.44271789e-03
2.40000000e-02	1.03431795e-01	5.22737472e-03
2.42500000e-02	1.01746702e-01	5.16028570e-03
2.45000000e-02	1.00530616e-01	5.10261101e-03
2.47500000e-02	9.67425240e-02	4.82968985e-03
2.50000000e-02	9.30120854e-02	4.67078487e-03
2.52500000e-02	9.03747040e-02	4.52787513e-03
2.55000000e-02	8.88247865e-02	4.34163953e-03
2.57500000e-02	8.60685388e-02	4.24539325e-03
2.60000000e-02	8.34561485e-02	4.12196029e-03
2.62500000e-02	8.17229050e-02	4.04561165e-03
2.65000000e-02	7.87592066e-02	3.89565767e-03
2.67500000e-02	7.89588266e-02	3.83736558e-03
2.70000000e-02	7.53612662e-02	3.71326784e-03
2.72500000e-02	7.43155646e-02	3.56867844e-03
2.75000000e-02	7.10233848e-02	3.47957513e-03
2.77500000e-02	7.13358081e-02	3.50057931e-03
2.80000000e-02	6.95025140e-02	3.33277012e-03
2.82500000e-02	6.89880507e-02	3.29964289e-03
2.85000000e-02	6.75954168e-02	3.25118396e-03
2.87500000e-02	6.60949561e-02	3.16768503e-03
2.90000000e-02	6.51482890e-02	3.13499427e-03
2.92500000e-02	6.30157413e-02	2.93704531e-03
2.95000000e-02	6.23100957e-02	2.96026816e-03
2.97500000e-02	6.21453760e-02	2.91585453e-03
3.00000000e-02	5.97999809e-02	2.81551995e-03
3.02500000e-02	5.90776431e-02	2.78774432e-03
3.05000000e-02	5.71254574e-02	2.63381158e-03
3.07500000e-02	5.73566505e-02	2.67194993e-03
3.10000000e-02	5.65597057e-02	2.62792043e-03
3.12500000e-02	5.66180582e-02	2.65597843e-03
3.15000000e-02	5.52288573e-02	2.54247309e-03
3.17500000e-02	5.33666215e-02	2.42974039e-03
3.20000000e-02	5.28334978e-02	2.44408219e-03
3.22500000e-02	5.15722742e-02	2.38536806e-03
3.25000000e-02	5.09911526e-02	2.33485104e-03
3.27500000e-02	4.94582229e-02	2.23284221e-03
3.30000000e-02	4.91329647e-02	2.21782898e-03
3.32500000e-02	4.75071104e-02	2.16305560e-03
3.35000000e-02	4.74686976e-02	2.16968045e-03
3.37500000e-02	4.62412299e-02	2.09357415e-03
3.40000000e-02	4.64172196e-02	2.09622680e-03
3.42500000e-02	4.47115082e-02	1.99754889e-03
3.45000000e-02	4.44741177e-02	2.02114949e-03
3.47500000e-02	4.40529600e-02	1.97271109e-03
3.50000000e-02	4.32166688e-02	1.94165590e-03
3.52500000e-02	4.23840649e-02	1.90143313e-03
3.55000000e-02	4.31198385e-02	1.89709883e-03
3.57500000e-02	4.17635621e-02	1.86046859e-03
3.60000000e-02	4.13629420e-02	1.82995674e-03
3.62500000e-02	4.07202851e-02	1.81907977e-03
3.65000000e-02	4.07516232e-02	1.80116585e-03
3.67500000e-02	4.09967235e-02	1.79822373e-03
3.70000000e-02	3.92685947e-02	1.71107339e-03
3.72500000e-02	4.00691264e-02	1.75476645e-03
3.75000000e-02	3.95704569e-02	1.74840263e-03
3.77500000e-02	3.80188526e-02	1.65952745e-03
3.80000000e-02	3.74460893e-02	1.62648519e-03
3.82500000e-02	3.72963914e-02	1.62177062e-03
3.85000000e-02	3.71359413e-02	1.61082178e-03
3.87500000e-02	3.51258833e-02	1.51901771e-03
3.90000000e-02	3.69987223e-02	1.60479605e-03
3.92500000e-02	3.64245029e-02	1.55198689e-03
3.95000000e-02	3.65110379e-02	1.56866442e-03
3.97500000e-02	3.46093429e-02	1.49639562e-03
4.00000000e-02	3.59305047e-02	1.53244089e-03
4.02500000e-02	3.50462864e-02	1.50754394e-03
4.05000000e-02	3.45576182e-02	1.45760007e-03
4.07500000e-02	3.39291208e-02	1.43864623e-03
4.10000000e-02	3.34881616e-02	1.42939788e-03
4.12500000e-02	3.42856618e-02	1.45031526e-03
4.15000000e-02	3.36547543e-02	1.41093199e-03
4.17500000e-02	3.32964303e-02	1.39851460e-03
4.20000000e-02	3.29147264e-02	1.37840182e-03
4.22500000e-02	3.31464703e-02	1.38208854e-03
4.25000000e-02	3.25826508e-02	1.36575037e-03
4.27500000e-02	3.19954203e-02	1.32935224e-03
4.30000000e-02	3.17950335e-02	1.32339248e-03
4.32500000e-02	3.14601853e-02	1.30177644e-03
4.35000000e-02	3.12634395e-02	1.31705989e-03
4.37500000e-02	3.03089476e-02	1.24033124e-03
4.40000000e-02	3.10760609e-02	1.29702764e-03
4.42500000e-02	3.06856331e-02	1.25836738e-03
4.45000000e-02	3.08654666e-02	1.25531661e-03
4.47500000e-02	3.10761496e-02	1.26211195e-03
4.50000000e-02	3.04437503e-02	1.25147747e-03
4.52500000e-02	3.00582804e-02	1.22204021e-03
4.55000000e-02	3.04344752e-02	1.23558455e-03
4.57500000e-02	2.98011106e-02	1.20921911e-03
4.60000000e-02	2.92715399e-02	1.18838491e-03
4.62500000e-02	2.93211551e-02	1.18626528e-03
4.65000000e-02	2.96863023e-02	1.19813970e-03
4.67500000e-02	2.89453078e-02	1.16220750e-03
4.70000000e-02	2.90455965e-02	1.16554009e-03
4.72500000e-02	2.82457191e-02	1.14880201e-03
4.75000000e-02	2.88421499e-02	1.15784431e-03
4.77500000e-02	2.93013786e-02	1.16076301e-03
4.80000000e-02	2.85203216e-02	1.14187712e-03
4.82500000e-02	2.84643429e-02	1.12730211e-03
4.85000000e-02	2.80537119e-02	1.13272896e-03
4.87500000e-02	2.79057414e-02	1.11863889e-03
4.90000000e-02	2.82503501e-02	1.12054990e-03
4.92500000e-02	2.73820349e-02	1.08959597e-03
4.95000000e-02	2.80062645e-02	1.10553769e-03
4.97500000e-02	2.74339311e-02	1.09202174e-03
5.00000000e-02	2.81744397e-02	1.11920465e-03
5.02500000e-02	2.69018261e-02	1.04975474e-03
5.05000000e-02	2.74254644e-02	1.07165431e-03
5.07500000e-02	2.68741808e-02	1.05621465e-03
5.10000000e-02	2.68364029e-02	1.05740473e-03
5.12500000e-02	2.67022024e-02	1.04336901e-03
5.15000000e-02	2.66880158e-02	1.03015742e-03
5.17500000e-02	2.62456084e-02	1.03067771e-03
5.20000000e-02	2.66588789e-02	1.02292574e-03
5.22500000e-02	2.62487660e-02	1.02025382e-03
5.25000000e-02	2.65677178e-02	1.02402637e-03
5.27500000e-02	2.54048154e-02	9.82501160e-04
5.30000000e-02	2.59183030e-02	9.98081418e-04
5.32500000e-02	2.58437363e-02	9.97492421e-04
5.35000000e-02	2.66298866e-02	1.02612840e-03
5.37500000e-02	2.59478344e-02	9.97853064e-04
5.40000000e-02	2.59673426e-02	9.96052436e-04
5.42500000e-02	2.51122206e-02	9.59766787e-04
5.45000000e-02	2.59686269e-02	9.90599861e-04
5.47500000e-02	2.52374986e-02	9.54529408e-04
5.50000000e-02	2.50337021e-02	9.52784865e-04
5.52500000e-02	2.54209545e-02	9.59613862e-04
5.55000000e-02	2.51156230e-02	9.56076600e-04
5.57500000e-02	2.50995163e-02	9.59484887e-04
5.60000000e-02	2.57038277e-02	9.65703593e-04
5.62500000e-02	2.51639956e-02	9.46289869e-04
5.65000000e-02	2.48798304e-02	9.37915302e-04
5.67500000e-02	2.54458539e-02	9.63369125e-04
5.70000000e-02	2.47296365e-02	9.25138049e-04
5.72500000e-02	2.46588684e-02	9.22964988e-04
5.75000000e-02	2.48217253e-02	9.31777726e-04
5.77500000e-02	2.46493762e-02	9.23104603e-04
5.80000000e-02	2.48291358e-02	9.28970201e-04
5.82500000e-02	2.39850224e-02	8.99042004e-04
5.85000000e-02	2.45378859e-02	9.15024208e-04
5.87500000e-02	2.38411362e-02	8.83497127e-04
5.90000000e-02	2.40759508e-02	8.98901340e-04
5.92500000e-02	2.40897030e-02	8.91666568e-04
5.95000000e-02	2.42131246e-02	8.88409656e-04
5.97500000e-02	2.46903579e-02	9.17063895e-04
6.00000000e-02	2.37992719e-02	8.76999233e-04
6.02500000e-02	2.36987354e-02	8.71436363e-04
6.05000000e-02	2.40093176e-02	8.81815317e-04
6.07500000e-02	2.38670664e-02	8.75340915e-04
6.10000000e-02	2.39529191e-02	8.78145056e-04
6.12500000e-02	2.34920064e-02	8.62560663e-04
6.15000000e-02	2.37868501e-02	8.69247983e-04
6.17500000e-02	2.35687299e-02	8.50571183e-04
6.20000000e-02	2.41025505e-02	8.77594121e-04
6.22500000e-02	2.29707252e-02	8.36881638e-04
6.25000000e-02	2.30075988e-02	8.34363949e-04
6.27500000e-02	2.34852899e-02	8.43059348e-04
6.30000000e-02	2.34216385e-02	8.48781572e-04
6.32500000e-02	2.34966125e-02	8.53630964e-04
6.35000000e-02	2.31952990e-02	8.42626946e-04
6.37500000e-02	2.37322170e-02	8.57117375e-04
6.40000000e-02	2.33110836e-02	8.43870845e-04
6.42500000e-02	2.36538098e-02	8.36259471e-04
6.45000000e-02	2.29062125e-02	8.22339208e-04
6.47500000e-02	2.31829346e-02	8.31777525e-04
6.50000000e-02	2.27025416e-02	8.09474987e-04
6.52500000e-02	2.28166915e-02	8.13069738e-04
6.55000000e-02	2.28115296e-02	8.11828880e-04
6.57500000e-02	2.27125158e-02	8.11799015e-04
6.60000000e-02	2.27036026e-02	8.12867912e-04
6.62500000e-02	2.29071133e-02	8.11535409e-04
6.65000000e-02	2.27087491e-02	7.98334004e-04
6.67500000e-02	2.21900109e-02	7.76274724e-04
6.70000000e-02	2.28390420e-02	8.02292555e-04
6.72500000e-02	2.29899113e-02	8.12430992e-04
6.75000000e-02	2.22007991e-02	7.78611629e-04
6.77500000e-02	2.23193899e-02	7.83110428e-04
6.80000000e-02	2.26366419e-02	8.02999163e-04
6.82500000e-02	2.24747441e-02	7.90669135e-04
6.85000000e-02	2.27328466e-02	7.98956146e-04
6.87500000e-02	2.27210827e-02	7.97670827e-04
6.90000000e-02	2.22102733e-02	7.71895315e-04
6.92500000e-02	2.25934608e-02	7.86676610e-04
6.95000000e-02	2.26817670e-02	7.97288971e-04
6.97500000e-02	2.27472059e-02	7.87273338e-04
7.00000000e-02	2.27147075e-02	7.90169997e-04
7.02500000e-02	2.23898280e-02	7.68114497e-04
7.05000000e-02	2.28287343e-02	7.81201780e-04
7.07500000e-02	2.22093074e-02	7.76908443e-04
7.10000000e-02	2.24920304e-02	7.76777005e-04
7.12500000e-02	2.19384125e-02	7.56944037e-04
7.15000000e-02	2.19771313e-02	7.56539718e-04
7.17500000e-02	2.20858039e-02	7.56632902e-04
7.20000000e-02	2.23063174e-02	7.63137303e-04
7.22500000e-02	2.21714619e-02	7.63157057e-04
7.25000000e-02	2.24824551e-02	7.67721771e-04
7.27500000e-02	2.17835704e-02	7.45317748e-04
7.30000000e-02	2.20191192e-02	7.52799494e-04
7.32500000e-02	2.20045132e-02	7.49581434e-04
7.35000000e-02	2.22507580e-02	7.60220723e-04
7.37500000e-02	2.27112485e-02	7.65898982e-04
7.40000000e-02	2.24638036e-02	7.52653553e-04
7.42500000e-02	2.15844013e-02	7.33566308e-04
7.45000000e-02	2.18378180e-02	7.36546653e-04
7.47500000e-02	2.19691837e-02	7.42150630e-04
7.50000000e-02	2.20089585e-02	7.42687867e-04
7.52500000e-02	2.15931118e-02	7.29490458e-04
7.55000000e-02	2.18805366e-02	7.33999811e-04
7.57500000e-02	2.16608389e-02	7.27020186e-04
7.60000000e-02	2.14483256e-02	7.19426520e-04
7.62500000e-02	2.15249117e-02	7.23499777e-04
7.65000000e-02	2.20261118e-02	7.35216174e-04
7.67500000e-02	2.24418402e-02	7.47826012e-04
7.70000000e-02	2.19201798e-02	7.30229972e-04
7.72500000e-02	2.15691626e-02	7.36490514e-04
7.75000000e-02	2.17172906e-02	7.44663147e-04
7.77500000e-02	2.09266422e-02	7.21843854e-04
7.80000000e-02	2.17817053e-02	7.51805798e-04
7.82500000e-02	2.24044480e-02	7.80708722e-04
7.85000000e-02	2.15258335e-02	7.56352636e-04
7.87500000e-02	2.17531299e-02	7.61627256e-04
7.90000000e-02	2.15251641e-02	7.54546117e-04
7.92500000e-02	2.17670186e-02	7.65812302e-04
7.95000000e-02	2.16561040e-02	7.64641008e-04
7.97500000e-02	2.18875182e-02	7.73928481e-04
8.00000000e-02	2.17208434e-02	7.78727934e-04
8.02500000e-02	2.16031225e-02	7.71789933e-04
8.05000000e-02	2.12259527e-02	7.59584308e-04
8.07500000e-02	2.13333451e-02	7.65346587e-04
8.10000000e-02	2.14462432e-02	7.67063256e-04
8.12500000e-02	2.11434839e-02	7.62679351e-04
8.15000000e-02	2.16496466e-02	7.75093994e-04
8.17500000e-02	2.17855563e-02	7.81565523e-04
8.20000000e-02	2.17131253e-02	7.86163538e-04
8.22500000e-02	2.15296063e-02	7.78527568e-04
8.25000000e-02	2.13537093e-02	7.76072292e-04
8.27500000e-02	2.13080216e-02	7.71707325e-04
8.30000000e-02	2.16588640e-02	7.88579850e-04
8.32500000e-02	2.13416857e-02	7.75886890e-04
8.35000000e-02	2.14935547e-02	7.93301686e-04
8.37500000e-02	2.09507380e-02	7.58103361e-04
8.40000000e-02	2.15084649e-02	7.85500805e-04
8.42500000e-02	2.14528470e-02	7.83443776e-04
8.45000000e-02	2.11375493e-02	7.82716477e-04
8.47500000e-02	2.09936504e-02	7.71851248e-04
8.50000000e-02	2.09751480e-02	7.66742487e-04
8.52500000e-02	2.14905803e-02	7.92441179e-04
8.55000000e-02	2.06827327e-02	7.62526199e-04
8.57500000e-02	2.12414099e-02	7.80228784e-04
8.60000000e-02	2.06432294e-02	7.66620076e-04
8.62500000e-02	2.12659923e-02	7.81633081e-04
8.65000000e-02	2.15300582e-02	7.92979236e-04
8.67500000e-02	2.08530306e-02	7.64839102e-04
8.70000000e-02	2.10729614e-02	7.63631026e-04
8.72500000e-02	2.14885326e-02	7.60376911e-04
8.75000000e-02	2.12831768e-02	7.52151225e-04
8.77500000e-02	2.11874155e-02	7.36339210e-04
8.80000000e-02	2.06260724e-02	7.22154910e-04
8.82500000e-02	2.13909482e-02	7.41242232e-04
8.85000000e-02	2.11414505e-02	7.37666034e-04
8.87500000e-02	2.07547897e-02	7.08507516e-04
8.90000000e-02	2.13927625e-02	7.33626057e-04
8.92500000e-02	2.09782153e-02	7.21127716e-04
8.95000000e-02	2.13598979e-02	7.29000794e-04
8.97500000e-02	2.13215993e-02	7.24201455e-04
9.00000000e-02	2.05519174e-02	6.93598820e-04
9.02500000e-02	2.11640166e-02	7.13372033e-04
9.05000000e-02	2.13244003e-02	7.17460166e-04
9.07500000e-02	2.08817032e-02	7.04173652e-04
9.10000000e-02	2.12005967e-02	7.11918157e-04
9.12500000e-02	2.11547186e-02	7.08162658e-04
9.15000000e-02	2.15725445e-02	7.20355952e-04
9.17500000e-02	2.17422176e-02	7.23301055e-04
9.20000000e-02	2.12245067e-02	7.03659548e-04
9.22500000e-02	2.12069030e-02	6.95004855e-04
9.25000000e-02	2.11017515e-02	6.98667514e-04
9.27500000e-02	2.11741151e-02	6.97795581e-04
9.30000000e-02	2.09981726e-02	6.91378265e-04
9.32500000e-02	2.03778762e-02	6.70752112e-04
9.35000000e-02	2.07516975e-02	6.82381824e-04
9.37500000e-02	2.11389815e-02	6.92939092e-04
9.40000000e-02	2.09617340e-02	6.85557382e-04
9.42500000e-02	2.09774274e-02	6.82777685e-04
9.45000000e-02	2.09451041e-02	6.77895935e-04
9.47500000e-02	2.12624750e-02	6.88371541e-04
9.50000000e-02	2.10444001e-02	6.83657153e-04
9.52500000e-02	2.08990600e-02	6.73507196e-04
9.55000000e-02	2.05489866e-02	6.66190685e-04
9.57500000e-02	2.10938455e-02	6.83698131e-04
9.60000000e-02	2.06547247e-02	6.68896083e-04
9.62500000e-02	2.11276697e-02	6.83088984e-04
9.65000000e-02	2.13396616e-02	6.84251150e-04
9.67500000e-02	2.09267953e-02	6.70727869e-04
9.70000000e-02	2.04160718e-02	6.50633274e-04
9.72500000e-02	2.06192174e-02	6.57626999e-04
9.75000000e-02	2.01558152e-02	6.50265719e-04
9.77500000e-02	2.06528795e-02	6.52254060e-04
9.80000000e-02	2.05367725e-02	6.52969051e-04
9.82500000e-02	2.04394611e-02	6.53096054e-04
9.85000000e-02	2.04148936e-02	6.52094934e-04
9.87500000e-02	2.02488329e-02	6.40667156e-04
9.90000000e-02	2.01036525e-02	6.37202521e-04
9.92500000e-02	2.06001227e-02	6.51995859e-04
9.95000000e-02	2.08418328e-02	6.62106849e-04
9.97500000e-02	2.09314430e-02	6.60343711e-04
1.00000000e-01	2.06430913e-02	5.28454317e-04
1.00500000e-01	2.05006639e-02	4.58140116e-04
1.01000000e-01	2.05935002e-02	4.53821157e-04
1.01500000e-01	2.05884136e-02	4.54056647e-04
1.02000000e-01	2.04674832e-02	4.49702695e-04
1.02500000e-01	2.03940526e-02	4.47430979e-04
1.03000000e-01	2.05334714e-02	4.50340072e-04
1.03500000e-01	2.03899350e-02	4.43902791e-04
1.04000000e-01	2.00521008e-02	4.37175119e-04
1.04500000e-01	2.03692368e-02	4.41301618e-04
1.05000000e-01	2.05307986e-02	4.44073412e-04
1.05500000e-01	2.01145938e-02	4.34737050e-04
1.06000000e-01	2.03419082e-02	4.38320353e-04
1.06500000e-01	2.05575395e-02	4.39614702e-04
1.07000000e-01	2.04037643e-02	4.42240133e-04
1.07500000e-01	2.04271233e-02	4.54452715e-04
1.08000000e-01	2.02720646e-02	4.51846875e-04
1.08500000e-01	2.05654667e-02	4.61771416e-04
1.09000000e-01	2.03898057e-02	4.60334084e-04
1.09500000e-01	2.02888593e-02	4.61190252e-04
1.10000000e-01	2.03584457e-02	4.57812669e-04
1.10500000e-01	2.04449657e-02	4.49507642e-04
1.11000000e-01	2.03249334e-02	4.40375496e-04
1.11500000e-01	1.99663449e-02	4.28719864e-04
1.12000000e-01	2.02343424e-02	4.31638615e-04
1.12500000e-01	2.01448392e-02	4.27272922e-04
1.13000000e-01	1.99564705e-02	4.22343312e-04
1.13500000e-01	2.01256731e-02	4.25576825e-04
1.14000000e-01	2.03794978e-02	4.27460711e-04
1.14500000e-01	2.02925824e-02	4.23746396e-04
1.15000000e-01	2.04327141e-02	4.23888960e-04
1.15500000e-01	2.04802875e-02	4.26932876e-04
1.16000000e-01	2.05491682e-02	4.24912761e-04
1.16500000e-01	2.02156600e-02	4.17905222e-04
1.17000000e-01	2.02371013e-02	4.19164758e-04
1.17500000e-01	2.01045794e-02	4.14586090e-04
1.18000000e-01	2.01862978e-02	4.15066043e-04
1.18500000e-01	2.03040080e-02	4.17870457e-04
1.19000000e-01	2.03845680e-02	4.15772630e-04
1.19500000e-01	2.01905793e-02	4.10721531e-04
1.20000000e-01	2.02042415e-02	4.09621403e-04
1.20500000e-01	1.99912315e-02	4.06347826e-04
1.21000000e-01	2.03014253e-02	4.11683814e-04
1.21500000e-01	2.01109144e-02	4.09836654e-04
1.22000000e-01	2.01894463e-02	4.07257120e-04
1.22500000e-01	2.02130693e-02	4.05656982e-04
1.23000000e-01	1.98721403e-02	4.00000659e-04
1.23500000e-01	2.03488285e-02	4.06470749e-04
1.24000000e-01	2.03447948e-02	4.06321679e-04
1.24500000e-01	2.02438297e-02	4.03992742e-04
1.25000000e-01	2.02996136e-02	4.05174870e-04
1.25500000e-01	1.98924353e-02	3.95499570e-04
1.26000000e-01	2.03396031e-02	4.04242816e-04
1.26500000e-01	1.96227536e-02	3.89180643e-04
1.27000000e-01	2.00869765e-02	3.96361647e-04
1.27500000e-01	2.01115812e-02	3.97380962e-04
1.28000000e-01	2.00974600e-02	3.95342742e-04
1.28500000e-01	1.98952966e-02	3.92206393e-04
1.29000000e-01	2.03726573e-02	4.00658345e-04
1.29500000e-01	2.02305964e-02	3.94714095e-04
1.30000000e-01	1.97991231e-02	3.87659726e-04
1.30500000e-01	2.00998973e-02	3.91150415e-04
1.31000000e-01	2.00693330e-02	3.90528045e-04
1.31500000e-01	1.99625625e-02	3.87550070e-04
1.32000000e-01	1.99897015e-02	3.87171976e-04
1.32500000e-01	2.03745114e-02	3.92334716e-04
1.33000000e-01	2.02831115e-02	3.88452889e-04
1.33500000e-01	1.99125780e-02	3.81307442e-04
1.34000000e-01	2.02450084e-02	3.88340738e-04
1.34500000e-01	2.01756043e-02	3.83953185e-04
1.35000000e-01	2.00754159e-02	3.80861570e-04
1.35500000e-01	2.00435322e-02	3.78978153e-04
1.36000000e-01	2.00502910e-02	3.79033729e-04
1.36500000e-01	2.01502520e-02	3.81369628e-04
1.37000000e-01	1.98458688e-02	3.75788158e-04
1.37500000e-01	2.00417578e-02	3.77635397e-04
1.38000000e-01	1.95683443e-02	3.68805342e-04
1.38500000e-01	2.01152910e-02	3.77475012e-04
1.39000000e-01	1.99143634e-02	3.75266790e-04
1.39500000e-01	1.98728082e-02	3.73148502e-04
1.40000000e-01	1.96620360e-02	3.71684697e-04
1.40500000e-01	1.98901794e-02	3.73198117e-04
1.41000000e-01	2.00093930e-02	3.74253299e-04
1.41500000e-01	1.97979798e-02	3.71305128e-04
1.42000000e-01	1.98143001e-02	3.68981270e-04
1.42500000e-01	1.97482258e-02	3.68801986e-04
1.43000000e-01	1.95606936e-02	3.64524628e-04
1.43500000e-01	1.98184886e-02	3.69210993e-04
1.44000000e-01	1.96665503e-02	3.64569791e-04
1.44500000e-01	1.97703643e-02	3.65733620e-04
1.45000000e-01	1.97325785e-02	3.65559966e-04
1.45500000e-01	1.98686526e-02	3.66029774e-04
1.46000000e-01	1.97773602e-02	3.65376307e-04
1.46500000e-01	1.96612926e-02	3.64558233e-04
1.47000000e-01	1.98390329e-02	3.64138452e-04
1.47500000e-01	2.01181164e-02	3.69006171e-04
1.48000000e-01	1.97068339e-02	3.60014447e-04
1.48500000e-01	1.96375043e-02	3.60423764e-04
1.49000000e-01	1.97388230e-02	3.59411672e-04
1.49500000e-01	1.95820134e-02	3.56769448e-04
1.50000000e-01	1.98904440e-02	3.62986199e-04
1.50500000e-01	1.96138069e-02	3.56661815e-04
1.51000000e-01	1.98282529e-02	3.60208925e-04
1.51500000e-01	1.95839380e-02	3.53843780e-04
1.52000000e-01	1.97683000e-02	3.55164239e-04
1.52500000e-01	1.96985903e-02	3.53732474e-04
1.53000000e-01	1.93053143e-02	3.49301733e-04
1.53500000e-01	1.95593756e-02	3.50400769e-04
1.54000000e-01	1.92112080e-02	3.43972459e-04
1.54500000e-01	1.98011974e-02	3.60407297e-04
1.55000000e-01	1.97391833e-02	3.64419852e-04
1.55500000e-01	1.96937138e-02	3.65875634e-04
1.56000000e-01	1.95126307e-02	3.65783240e-04
1.56500000e-01	1.95242027e-02	3.63689077e-04
1.57000000e-01	1.95117569e-02	3.66055791e-04
1.57500000e-01	1.95330502e-02	3.60158782e-04
1.58000000e-01	1.92343626e-02	3.48018122e-04
1.58500000e-01	1.95853951e-02	3.51753683e-04
1.59000000e-01	1.94574912e-02	3.48375493e-04
1.59500000e-01	1.96988768e-02	3.51643993e-04
1.60000000e-01	1.92957676e-02	3.45875035e-04
1.60500000e-01	1.94394460e-02	3.44713979e-04
1.61000000e-01	1.93709042e-02	3.45077625e-04
1.61500000e-01	1.94400605e-02	3.43165407e-04
1.62000000e-01	1.93421584e-02	3.41793356e-04
1.62500000e-01	1.92871844e-02	3.42074284e-04
1.63000000e-01	1.94098687e-02	3.40849624e-04
1.63500000e-01	1.93894424e-02	3.43257750e-04
1.64000000e-01	1.94154405e-02	3.41057544e-04
1.64500000e-01	1.93721880e-02	3.40642212e-04
1.65000000e-01	1.92933015e-02	3.38482525e-04
1.65500000e-01	1.92633582e-02	3.35956449e-04
1.66000000e-01	1.93913077e-02	3.39439283e-04
1.66500000e-01	1.91741173e-02	3.34860924e-04
1.67000000e-01	1.91300116e-02	3.34447945e-04
1.67500000e-01	1.92812819e-02	3.34683316e-04
1.68000000e-01	1.92901115e-02	3.35629373e-04
1.68500000e-01	1.91767813e-02	3.32523031e-04
1.69000000e-01	1.92272311e-02	3.34475240e-04
1.69500000e-01	1.91758866e-02	3.29646840e-04
1.70000000e-01	1.93089597e-02	3.33530908e-04
1.70500000e-01	1.90196251e-02	3.27351131e-04
1.71000000e-01	1.92398278e-02	3.30802702e-04
1.71500000e-01	1.90804928e-02	3.28561603e-04
1.72000000e-01	1.91425107e-02	3.26960927e-04
1.72500000e-01	1.90297971e-02	3.26799305e-04
1.73000000e-01	1.91796673e-02	3.27422808e-04
1.73500000e-01	1.91609034e-02	3.25196227e-04
1.74000000e-01	1.92013176e-02	3.27388129e-04
1.74500000e-01	1.88227953e-02	3.18873853e-04
1.75000000e-01	1.89053583e-02	3.18295135e-04
1.75500000e-01	1.90123022e-02	3.20192755e-04
1.76000000e-01	1.88766826e-02	3.18531247e-04
1.76500000e-01	1.90418007e-02	3.21362173e-04
1.77000000e-01	1.90183302e-02	3.20182052e-04
1.77500000e-01	1.88642375e-02	3.17960855e-04
1.78000000e-01	1.88417676e-02	3.16069203e-04
1.78500000e-01	1.89087206e-02	3.17359135e-04
1.79000000e-01	1.88723941e-02	3.16402876e-04
1.79500000e-01	1.90159129e-02	3.19378801e-04
1.80000000e-01	1.88564623e-02	3.16633334e-04
1.80500000e-01	1.90449658e-02	3.19229893e-04
1.81000000e-01	1.88155049e-02	3.15809803e-04
1.81500000e-01	1.88087497e-02	3.13174317e-04
1.82000000e-01	1.88288661e-02	3.13898433e-04
1.82500000e-01	1.87441304e-02	3.11338088e-04
1.83000000e-01	1.88892308e-02	3.14366640e-04
1.83500000e-01	1.88670436e-02	3.13330672e-04
1.84000000e-01	1.91411150e-02	3.18163530e-04
1.84500000e-01	1.88155317e-02	3.12337333e-04
1.85000000e-01	1.86848127e-02	3.09497230e-04
1.85500000e-01	1.88141122e-02	3.10694852e-04
1.86000000e-01	1.85868386e-02	3.07242164e-04
1.86500000e-01	1.87708846e-02	3.08826182e-04
1.87000000e-01	1.89634003e-02	3.11178898e-04
1.87500000e-01	1.90154751e-02	3.11665370e-04
1.88000000e-01	1.86072409e-02	3.05394445e-04
1.88500000e-01	1.86603182e-02	3.05660138e-04
1.89000000e-01	1.90119029e-02	3.10191105e-04
1.89500000e-01	1.87643983e-02	3.07446157e-04
1.90000000e-01	1.82706947e-02	2.98165675e-04
1.90500000e-01	1.85860199e-02	3.02223702e-04
1.91000000e-01	1.86102782e-02	3.03139415e-04
1.91500000e-01	1.87781266e-02	3.05801611e-04
1.92000000e-01	1.85547478e-02	3.01590907e-04
1.92500000e-01	1.86206334e-02	3.02314193e-04
1.93000000e-01	1.86269892e-02	3.03172839e-04
1.93500000e-01	1.88611759e-02	3.04941814e-04
1.94000000e-01	1.84785299e-02	2.98230435e-04
1.94500000e-01	1.85100944e-02	2.98523291e-04
1.95000000e-01	1.84269466e-02	2.99290705e-04
1.95500000e-01	1.85726465e-02	2.99108032e-04
1.96000000e-01	1.84865138e-02	2.97374255e-04
1.96500000e-01	1.87576811e-02	3.02102426e-04
1.97000000e-01	1.84793965e-02	2.96646267e-04
1.97500000e-01	1.84294480e-02	2.95229562e-04
1.98000000e-01	1.82864926e-02	2.93254723e-04
1.98500000e-01	1.84642825e-02	2.94777813e-04
1.99000000e-01	1.86370985e-02	2.97754588e-04
1.99500000e-01	1.85636182e-02	2.96419807e-04
2.00000000e-01	1.83498753e-02	2.95322372e-04
2.00500000e-01	1.87975707e-02	2.98826718e-04
2.01000000e-01	1.87807752e-02	2.97441019e-04
2.01500000e-01	1.84022372e-02	2.92685159e-04
2.02000000e-01	1.84150636e-02	2.91579755e-04
2.02500000e-01	1.84433839e-02	2.90832535e-04
2.03000000e-01	1.83342907e-02	2.89944161e-04
2.03500000e-01	1.82868582e-02	2.89102147e-04
2.04000000e-01	1.87034016e-02	2.94510309e-04
2.04500000e-01	1.84813967e-02	2.92705025e-04
2.05000000e-01	1.83568685e-02	2.88447905e-04
2.05500000e-01	1.82239744e-02	2.87129928e-04
2.06000000e-01	1.82337358e-02	2.87165674e-04
2.06500000e-01	1.83225735e-02	2.87983028e-04
2.07000000e-01	1.83089568e-02	2.87140784e-04
2.07500000e-01	1.84349544e-02	2.88436015e-04
2.08000000e-01	1.83884802e-02	2.88012926e-04
2.08500000e-01	1.83998141e-02	2.87277876e-04
2.09000000e-01	1.83919191e-02	2.86241190e-04
2.09500000e-01	1.81884629e-02	2.83196477e-04
2.10000000e-01	1.82884237e-02	2.85277973e-04
2.10500000e-01	1.81047684e-02	2.81615036e-04
2.11000000e-01	1.85102758e-02	2.86756934e-04
2.11500000e-01	1.81394500e-02	2.82672776e-04
2.12000000e-01	1.84862072e-02	2.85793207e-04
2.12500000e-01	1.83622552e-02	2.84492616e-04
2.13000000e-01	1.83763805e-02	2.84373246e-04
2.13500000e-01	1.81305813e-02	2.80044350e-04
2.14000000e-01	1.81708187e-02	2.80391365e-04
2.14500000e-01	1.83915740e-02	2.82618286e-04
2.15000000e-01	1.80493469e-02	2.78664017e-04
2.15500000e-01	1.83256221e-02	2.81431526e-04
2.16000000e-01	1.82092843e-02	2.78826209e-04
2.16500000e-01	1.82210612e-02	2.79493563e-04
2.17000000e-01	1.83807865e-02	2.86040963e-04
2.17500000e-01	1.80038148e-02	2.84913411e-04
2.18000000e-01	1.82695813e-02	2.89107053e-04
2.18500000e-01	1.83405470e-02	2.91942832e-04
2.19000000e-01	1.81121780e-02	2.90118772e-04
2.19500000e-01	1.81412089e-02	2.91653363e-04
2.20000000e-01	1.82920563e-02	2.94321505e-04
2.20500000e-01	1.79350788e-02	2.90043283e-04
2.21000000e-01	1.80008430e-02	2.91992573e-04
2.21500000e-01	1.81297336e-02	2.94515489e-04
2.22000000e-01	1.82060799e-02	2.95463602e-04
2.22500000e-01	1.80307478e-02	2.94698545e-04
2.23000000e-01	1.83572174e-02	2.99827130e-04
2.23500000e-01	1.80322621e-02	2.95142200e-04
2.24000000e-01	1.79395652e-02	2.94550435e-04
2.24500000e-01	1.79916444e-02	2.97058468e-04
2.25000000e-01	1.79018891e-02	2.95915490e-04
2.25500000e-01	1.77409800e-02	2.93808016e-04
2.26000000e-01	1.79660341e-02	2.98953096e-04
2.26500000e-01	1.81835426e-02	2.96657048e-04
2.27000000e-01	1.78418779e-02	2.90273735e-04
2.27500000e-01	1.83763343e-02	2.94949772e-04
2.28000000e-01	1.83237218e-02	2.91255216e-04
2.28500000e-01	1.79376797e-02	2.85165238e-04
2.29000000e-01	1.81261842e-02	2.86932228e-04
2.29500000e-01	1.78431563e-02	2.82584246e-04
2.30000000e-01	1.79449486e-02	2.82127849e-04
2.30500000e-01	1.81374911e-02	2.83514271e-04
2.31000000e-01	1.79307282e-02	2.79318704e-04
2.31500000e-01	1.77857775e-02	2.77746915e-04
2.32000000e-01	1.80087490e-02	2.80572279e-04
2.32500000e-01	1.79520832e-02	2.79383542e-04
2.33000000e-01	1.77508667e-02	2.73921106e-04
2.33500000e-01	1.77666187e-02	2.74837801e-04
2.34000000e-01	1.77481572e-02	2.74437372e-04
2.34500000e-01	1.75980108e-02	2.71147507e-04
2.35000000e-01	1.77922734e-02	2.74909699e-04
2.35500000e-01	1.77182621e-02	2.72753948e-04
2.36000000e-01	1.78670882e-02	2.74877667e-04
2.36500000e-01	1.80751570e-02	2.75517040e-04
2.37000000e-01	1.79619692e-02	2.74242227e-04
2.37500000e-01	1.76773608e-02	2.70079790e-04
2.38000000e-01	1.78316124e-02	2.70161441e-04
2.38500000e-01	1.75278784e-02	2.67311354e-04
2.39000000e-01	1.78378591e-02	2.71265006e-04
2.39500000e-01	1.79177052e-02	2.70245799e-04
2.40000000e-01	1.78381063e-02	2.69762928e-04
2.40500000e-01	1.79357393e-02	2.70826402e-04
2.41000000e-01	1.78377755e-02	2.68037136e-04
2.41500000e-01	1.78416166e-02	2.68196062e-04
2.42000000e-01	1.80424382e-02	2.70519816e-04
2.42500000e-01	1.76105930e-02	2.62865332e-04
2.43000000e-01	1.76729612e-02	2.63444944e-04
2.43500000e-01	1.79295736e-02	2.68171988e-04
2.44000000e-01	1.77827653e-02	2.65767615e-04
2.44500000e-01	1.76305416e-02	2.61604507e-04
2.45000000e-01	1.77458452e-02	2.63275638e-04
2.45500000e-01	1.76565019e-02	2.61670967e-04
2.46000000e-01	1.78959465e-02	2.65620991e-04
2.46500000e-01	1.77692314e-02	2.63510011e-04
2.47000000e-01	1.76627199e-02	2.61440559e-04
2.47500000e-01	1.74929395e-02	2.58692415e-04
2.48000000e-01	1.77512347e-02	2.62490229e-04
2.48500000e-01	1.76611007e-02	2.59973446e-04
2.49000000e-01	1.76644343e-02	2.60549462e-04
2.49500000e-01	1.79069411e-02	2.64126569e-04
2.50000000e-01	1.74282388e-02	2.55811165e-04
2.50500000e-01	1.75459325e-02	2.58340159e-04
2.51000000e-01	1.76132078e-02	2.58415326e-04
2.51500000e-01	1.74766848e-02	2.56490311e-04
2.52000000e-01	1.77492923e-02	2.59859597e-04
2.52500000e-01	1.74198076e-02	2.55416234e-04
2.53000000e-01	1.74719220e-02	2.56104199e-04
2.53500000e-01	1.75964398e-02	2.57910690e-04
2.54000000e-01	1.73584013e-02	2.54185309e-04
2.54500000e-01	1.75353032e-02	2.56317388e-04
2.55000000e-01	1.75650420e-02	2.55436587e-04
2.55500000e-01	1.76845674e-02	2.57150999e-04
2.56000000e-01	1.73389243e-02	2.52801344e-04
2.56500000e-01	1.74519858e-02	2.53771260e-04
2.57000000e-01	1.76284124e-02	2.55672265e-04
2.57500000e-01	1.75273183e-02	2.53402362e-04
2.58000000e-01	1.73360733e-02	2.51169229e-04
2.58500000e-01	1.74447214e-02	2.52144698e-04
2.59000000e-01	1.75585943e-02	2.53425957e-04
2.59500000e-01	1.73808315e-02	2.50619149e-04
2.60000000e-01	1.74548958e-02	2.51003431e-04
2.60500000e-01	1.74285997e-02	2.50833650e-04
2.61000000e-01	1.73689938e-02	2.49613625e-04
2.61500000e-01	1.74431604e-02	2.50669046e-04
2.62000000e-01	1.75336692e-02	2.49812773e-04
2.62500000e-01	1.72432326e-02	2.47543243e-04
2.63000000e-01	1.74633816e-02	2.48542623e-04
2.63500000e-01	1.74880637e-02	2.49863265e-04
2.64000000e-01	1.74173448e-02	2.48726243e-04
2.64500000e-01	1.73876232e-02	2.47848235e-04
2.65000000e-01	1.74162394e-02	2.48220912e-04
2.65500000e-01	1.74656050e-02	2.48256678e-04
2.66000000e-01	1.73593713e-02	2.46339401e-04
2.66500000e-01	1.74905283e-02	2.48795200e-04
2.67000000e-01	1.71146772e-02	2.43098712e-04
2.67500000e-01	1.73009321e-02	2.44132209e-04
2.68000000e-01	1.74157945e-02	2.46245043e-04
2.68500000e-01	1.72269783e-02	2.43255074e-04
2.69000000e-01	1.74469331e-02	2.45348513e-04
2.69500000e-01	1.73719609e-02	2.44518538e-04
2.70000000e-01	1.71613140e-02	2.41249420e-04
2.70500000e-01	1.71102925e-02	2.40291730e-04
2.71000000e-01	1.72968147e-02	2.43281768e-04
2.71500000e-01	1.72097665e-02	2.42127475e-04
2.72000000e-01	1.70869680e-02	2.39026762e-04
2.72500000e-01	1.71758649e-02	2.41556945e-04
2.73000000e-01	1.73669895e-02	2.42275282e-04
2.73500000e-01	1.73578998e-02	2.42727881e-04
2.74000000e-01	1.74282286e-02	2.43703024e-04
2.74500000e-01	1.72497349e-02	2.41062754e-04
2.75000000e-01	1.71820273e-02	2.39233342e-04
2.75500000e-01	1.73672053e-02	2.41832440e-04
2.76000000e-01	1.72524541e-02	2.40082180e-04
2.76500000e-01	1.71463670e-02	2.39069295e-04
2.77000000e-01	1.73244857e-02	2.40313745e-04
2.77500000e-01	1.72168442e-02	2.40350913e-04
2.78000000e-01	1.72510387e-02	2.38947800e-04
2.78500000e-01	1.69454660e-02	2.34731693e-04
2.79000000e-01	1.71334487e-02	2.38095881e-04
2.79500000e-01	1.71392257e-02	2.36975075e-04
2.80000000e-01	1.71999157e-02	2.37025590e-04
2.80500000e-01	1.70346025e-02	2.35834324e-04
2.81000000e-01	1.70622186e-02	2.35859731e-04
2.81500000e-01	1.72574258e-02	2.38505011e-04
2.82000000e-01	1.71912122e-02	2.37318773e-04
2.82500000e-01	1.72412524e-02	2.37234814e-04
2.83000000e-01	1.70703396e-02	2.34487391e-04
2.83500000e-01	1.71531319e-02	2.35580467e-04
2.84000000e-01	1.70187720e-02	2.34795527e-04
2.84500000e-01	1.70446426e-02	2.33544905e-04
2.85000000e-01	1.70227591e-02	2.34357738e-04
2.85500000e-01	1.70947048e-02	2.32941583e-04
2.86000000e-01	1.73272478e-02	2.36936977e-04
2.86500000e-01	1.68321639e-02	2.29779621e-04
2.87000000e-01	1.72342063e-02	2.34969359e-04
2.87500000e-01	1.70106274e-02	2.31570029e-04
2.88000000e-01	1.72206444e-02	2.33445869e-04
2.88500000e-01	1.69175426e-02	2.30794077e-04
2.89000000e-01	1.71301306e-02	2.34615811e-04
2.89500000e-01	1.68678476e-02	2.29712645e-04
2.90000000e-01	1.70463182e-02	2.30927054e-04
2.90500000e-01	1.69767598e-02	2.30987539e-04
2.91000000e-01	1.69070238e-02	2.29571948e-04
2.91500000e-01	1.68104996e-02	2.28095009e-04
2.92000000e-01	1.71157712e-02	2.31162519e-04
2.92500000e-01	1.70237338e-02	2.29783962e-04
2.93000000e-01	1.69304361e-02	2.28254660e-04
2.93500000e-01	1.70148978e-02	2.29463380e-04
2.94000000e-01	1.70322713e-02	2.29163231e-04
2.94500000e-01	1.69220811e-02	2.28175171e-04
2.95000000e-01	1.70475572e-02	2.28423468e-04
2.95500000e-01	1.68496129e-02	2.26777327e-04
2.96000000e-01	1.69816127e-02	2.28028133e-04
2.96500000e-01	1.66682465e-02	2.24649502e-04
2.97000000e-01	1.68848690e-02	2.27242255e-04
2.97500000e-01	1.69786211e-02	2.27411347e-04
2.98000000e-01	1.68595816e-02	2.26170857e-04
2.98500000e-01	1.69381259e-02	2.27667310e-04
2.99000000e-01	1.68151148e-02	2.24069864e-04
2.99500000e-01	1.71253963e-02	2.29574232e-04
3.00000000e-01	1.68179607e-02	2.24585525e-04
3.00500000e-01	1.68177343e-02	2.24847035e-04
3.01000000e-01	1.70049171e-02	2.27081301e-04
3.01500000e-01	1.68946931e-02	2.25390029e-04
3.02000000e-01	1.68502185e-02	2.24694403e-04
3.02500000e-01	1.66648498e-02	2.21355767e-04
3.03000000e-01	1.68529194e-02	2.24035182e-04
3.03500000e-01	1.70259759e-02	2.26305100e-04
3.04000000e-01	1.67712952e-02	2.22691222e-04
3.04500000e-01	1.67233815e-02	2.21628351e-04
3.05000000e-01	1.69760121e-02	2.24460474e-04
3.05500000e-01	1.68589924e-02	2.22713991e-04
3.06000000e-01	1.67859899e-02	2.21036198e-04
3.06500000e-01	1.68832920e-02	2.22625957e-04
3.07000000e-01	1.65874101e-02	2.19261631e-04
3.07500000e-01	1.66104229e-02	2.19053724e-04
3.08000000e-01	1.66269902e-02	2.19128382e-04
3.08500000e-01	1.68257915e-02	2.20552454e-04
3.09000000e-01	1.68484426e-02	2.21568329e-04
3.09500000e-01	1.65613544e-02	2.18200997e-04
3.10000000e-01	1.66463639e-02	2.18170049e-04
3.10500000e-01	1.70476864e-02	2.23361144e-04
3.11000000e-01	1.67403768e-02	2.19011489e-04
3.11500000e-01	1.66262411e-02	2.16935069e-04
3.12000000e-01	1.67562328e-02	2.19241856e-04
3.12500000e-01	1.67572725e-02	2.18872629e-04
3.13000000e-01	1.66436939e-02	2.17489562e-04
3.13500000e-01	1.67253286e-02	2.18012157e-04
3.14000000e-01	1.66024881e-02	2.17083145e-04
3.14500000e-01	1.66453947e-02	2.16173385e-04
3.15000000e-01	1.65389028e-02	2.16142922e-04
3.15500000e-01	1.66696206e-02	2.17068284e-04
3.16000000e-01	1.67700784e-02	2.18156970e-04
3.16500000e-01	1.65836810e-02	2.15354186e-04
3.17000000e-01	1.63600596e-02	2.12697879e-04
3.17500000e-01	1.64830858e-02	2.14090716e-04
3.18000000e-01	1.66748837e-02	2.15917797e-04
3.18500000e-01	1.65599841e-02	2.15418103e-04
3.19000000e-01	1.65110264e-02	2.14160284e-04
3.19500000e-01	1.65043613e-02	2.14115134e-04
3.20000000e-01	1.62579522e-02	2.10183738e-04
3.20500000e-01	1.64211963e-02	2.12640944e-04
3.21000000e-01	1.66610563e-02	2.15297533e-04
3.21500000e-01	1.66607728e-02	2.15041185e-04
3.22000000e-01	1.62026282e-02	2.10082251e-04
3.22500000e-01	1.64870145e-02	2.12432542e-04
3.23000000e-01	1.63888378e-02	2.10642152e-04
3.23500000e-01	1.64193236e-02	2.11676884e-04
3.24000000e-01	1.63803778e-02	2.10360896e-04
3.24500000e-01	1.63198969e-02	2.11127685e-04
3.25000000e-01	1.63614228e-02	2.09517239e-04
3.25500000e-01	1.64454176e-02	2.11352858e-04
3.26000000e-01	1.65114293e-02	2.11940945e-04
3.26500000e-01	1.64779530e-02	2.10737066e-04
3.27000000e-01	1.63792432e-02	2.09438298e-04
3.27500000e-01	1.64662524e-02	2.10451600e-04
3.28000000e-01	1.64002575e-02	2.10229175e-04
3.28500000e-01	1.62390267e-02	2.07512780e-04
3.29000000e-01	1.63543152e-02	2.08829211e-04
3.29500000e-01	1.62714961e-02	2.07597985e-04
3.30000000e-01	1.62714996e-02	2.07580829e-04
3.30500000e-01	1.66077060e-02	2.11341248e-04
3.31000000e-01	1.64056002e-02	2.08615198e-04
3.31500000e-01	1.61844091e-02	2.06774526e-04
3.32000000e-01	1.63724625e-02	2.08650116e-04
3.32500000e-01	1.62850554e-02	2.07012729e-04
3.33000000e-01	1.62878615e-02	2.06940358e-04
3.33500000e-01	1.63192255e-02	2.06717063e-04
3.34000000e-01	1.64040913e-02	2.07829134e-04
3.34500000e-01	1.63651040e-02	2.07052522e-04
3.35000000e-01	1.63468686e-02	2.06661663e-04
3.35500000e-01	1.60893423e-02	2.03599347e-04
3.36000000e-01	1.62102668e-02	2.04719149e-04
3.36500000e-01	1.61228727e-02	2.03797882e-04
3.37000000e-01	1.61710096e-02	2.04900754e-04
3.37500000e-01	1.62725816e-02	2.04968553e-04
3.38000000e-01	1.61728294e-02	2.04271437e-04
3.38500000e-01	1.61345758e-02	2.02735986e-04
3.39000000e-01	1.62983103e-02	2.05451087e-04
3.39500000e-01	1.60768328e-02	2.02306237e-04
3.40000000e-01	1.61663377e-02	2.03121330e-04
3.40500000e-01	1.59975508e-02	2.01104821e-04
3.41000000e-01	1.62538037e-02	2.02761857e-04
3.41500000e-01	1.60681382e-02	2.02258066e-04
3.42000000e-01	1.61313773e-02	2.01922637e-04
3.42500000e-01	1.61562466e-02	2.03161620e-04
3.43000000e-01	1.60697664e-02	2.01637697e-04
3.43500000e-01	1.62161742e-02	2.03029953e-04
3.44000000e-01	1.58716457e-02	1.99562987e-04
3.44500000e-01	1.61218789e-02	2.01514355e-04
3.45000000e-01	1.62410925e-02	2.03206141e-04
3.45500000e-01	1.60944535e-02	2.00659776e-04
3.46000000e-01	1.61134364e-02	2.01241369e-04
3.46500000e-01	1.58317408e-02	1.96957368e-04
3.47000000e-01	1.62124660e-02	2.01465790e-04
3.47500000e-01	1.59705796e-02	1.99157393e-04
3.48000000e-01	1.60486349e-02	2.00087500e-04
3.48500000e-01	1.60066453e-02	1.98795259e-04
3.49000000e-01	1.59291785e-02	1.97923167e-04
3.49500000e-01	1.59561139e-02	1.97882318e-04
3.50000000e-01	1.60747936e-02	1.63169112e-04
3.51000000e-01	1.60282003e-02	1.40358703e-04
3.52000000e-01	1.59637538e-02	1.39733030e-04
3.53000000e-01	1.58717449e-02	1.38292334e-04
3.54000000e-01	1.58963171e-02	1.38473957e-04
3.55000000e-01	1.59799168e-02	1.39108461e-04
3.56000000e-01	1.57843590e-02	1.37955614e-04
3.57000000e-01	1.58050943e-02	1.40858904e-04
3.58000000e-01	1.56937246e-02	1.40752503e-04
3.59000000e-01	1.57869058e-02	1.42816479e-04
3.60000000e-01	1.58056014e-02	1.43946564e-04
3.61000000e-01	1.58313325e-02	1.44744586e-04
3.62000000e-01	1.57217252e-02	1.44441976e-04
3.63000000e-01	1.56121847e-02	1.44195859e-04
3.64000000e-01	1.57638278e-02	1.45611891e-04
3.65000000e-01	1.56141846e-02	1.44929428e-04
3.66000000e-01	1.54875300e-02	1.41960685e-04
3.67000000e-01	1.56860454e-02	1.42063508e-04
3.68000000e-01	1.55773190e-02	1.39941873e-04
3.69000000e-01	1.55590383e-02	1.39208724e-04
3.70000000e-01	1.56890082e-02	1.39683036e-04
3.71000000e-01	1.54966891e-02	1.40004700e-04
3.72000000e-01	1.56785290e-02	1.42331504e-04
3.73000000e-01	1.55546728e-02	1.41472432e-04
3.74000000e-01	1.56629813e-02	1.42381924e-04
3.75000000e-01	1.57289504e-02	1.42760577e-04
3.76000000e-01	1.56450101e-02	1.42497260e-04
3.77000000e-01	1.55457482e-02	1.41674112e-04
3.78000000e-01	1.53751679e-02	1.40645404e-04
3.79000000e-01	1.57062516e-02	1.42653500e-04
3.80000000e-01	1.56379968e-02	1.41808687e-04
3.81000000e-01	1.55109721e-02	1.40770115e-04
3.82000000e-01	1.54261118e-02	1.40260171e-04
3.83000000e-01	1.55376305e-02	1.41245031e-04
3.84000000e-01	1.54744798e-02	1.40503473e-04
3.85000000e-01	1.52884845e-02	1.39559599e-04
3.86000000e-01	1.54284903e-02	1.40293632e-04
3.87000000e-01	1.53125664e-02	1.38903558e-04
3.88000000e-01	1.55569463e-02	1.40851048e-04
3.89000000e-01	1.54234853e-02	1.40015832e-04
3.90000000e-01	1.53759559e-02	1.39592232e-04
3.91000000e-01	1.53286134e-02	1.39024624e-04
3.92000000e-01	1.52653899e-02	1.38556848e-04
3.93000000e-01	1.53196209e-02	1.38635408e-04
3.94000000e-01	1.53472571e-02	1.39147844e-04
3.95000000e-01	1.52275028e-02	1.38556608e-04
3.96000000e-01	1.53403427e-02	1.38441014e-04
3.97000000e-01	1.53702355e-02	1.39242482e-04
3.98000000e-01	1.52609772e-02	1.38270857e-04
3.99000000e-01	1.51721120e-02	1.37448764e-04
4.00000000e-01	1.52303233e-02	1.38412912e-04
4.01000000e-01	1.52387321e-02	1.37862656e-04
4.02000000e-01	1.53277730e-02	1.38477695e-04
4.03000000e-01	1.53155022e-02	1.38590768e-04
4.04000000e-01	1.53065025e-02	1.38347641e-04
4.05000000e-01	1.51147269e-02	1.36847167e-04
4.06000000e-01	1.51114045e-02	1.36923751e-04
4.07000000e-01	1.50218294e-02	1.36064507e-04
4.08000000e-01	1.51697969e-02	1.37561724e-04
4.09000000e-01	1.50418844e-02	1.36040658e-04
4.10000000e-01	1.51399127e-02	1.37396656e-04
4.11000000e-01	1.50993598e-02	1.36585406e-04
4.12000000e-01	1.50840631e-02	1.36207753e-04
4.13000000e-01	1.51136280e-02	1.35936461e-04
4.14000000e-01	1.50882110e-02	1.36052317e-04
4.15000000e-01	1.51473622e-02	1.36433603e-04
4.16000000e-01	1.51132020e-02	1.36184571e-04
4.17000000e-01	1.50584658e-02	1.35775085e-04
4.18000000e-01	1.50457911e-02	1.37138892e-04
4.19000000e-01	1.50494681e-02	1.39005321e-04
4.20000000e-01	1.52427520e-02	1.41212318e-04
4.21000000e-01	1.51091018e-02	1.40293310e-04
4.22000000e-01	1.51308339e-02	1.40944270e-04
4.23000000e-01	1.49547337e-02	1.40280954e-04
4.24000000e-01	1.52394398e-02	1.43098546e-04
4.25000000e-01	1.50759122e-02	1.41725351e-04
4.26000000e-01	1.51363814e-02	1.41980354e-04
4.27000000e-01	1.51294830e-02	1.41959318e-04
4.28000000e-01	1.50051134e-02	1.41425180e-04
4.29000000e-01	1.49445564e-02	1.41692805e-04
4.30000000e-01	1.51554964e-02	1.43155529e-04
4.31000000e-01	1.49095060e-02	1.40654331e-04
4.32000000e-01	1.50030692e-02	1.41682380e-04
4.33000000e-01	1.49801642e-02	1.41803656e-04
4.34000000e-01	1.51162987e-02	1.43021925e-04
4.35000000e-01	1.47989932e-02	1.40270297e-04
4.36000000e-01	1.49629791e-02	1.41802618e-04
4.37000000e-01	1.49181226e-02	1.41862985e-04
4.38000000e-01	1.50361834e-02	1.42829892e-04
4.39000000e-01	1.49533177e-02	1.42386966e-04
4.40000000e-01	1.50115772e-02	1.43218355e-04
4.41000000e-01	1.48992863e-02	1.42125799e-04
4.42000000e-01	1.49455329e-02	1.42948395e-04
4.43000000e-01	1.49571245e-02	1.42931660e-04
4.44000000e-01	1.48867949e-02	1.42926251e-04
4.45000000e-01	1.47486120e-02	1.41416151e-04
4.46000000e-01	1.50133779e-02	1.43944511e-04
4.47000000e-01	1.48998584e-02	1.43087525e-04
4.48000000e-01	1.49132635e-02	1.43328590e-04
4.49000000e-01	1.48886684e-02	1.43448739e-04
4.50000000e-01	1.48067592e-02	1.42363675e-04
4.51000000e-01	1.46511251e-02	1.41392699e-04
4.52000000e-01	1.47670149e-02	1.42799265e-04
4.53000000e-01	1.48525493e-02	1.43494356e-04
4.54000000e-01	1.47693931e-02	1.43115661e-04
4.55000000e-01	1.48337088e-02	1.43997811e-04
4.56000000e-01	1.46611054e-02	1.42089383e-04
4.57000000e-01	1.48183359e-02	1.43513440e-04
4.58000000e-01	1.47710358e-02	1.43569334e-04
4.59000000e-01	1.48065074e-02	1.44268793e-04
4.60000000e-01	1.46984556e-02	1.43032065e-04
4.61000000e-01	1.47567635e-02	1.43982639e-04
4.62000000e-01	1.48040378e-02	1.43924475e-04
4.63000000e-01	1.47838638e-02	1.43940947e-04
4.64000000e-01	1.46869436e-02	1.43587102e-04
4.65000000e-01	1.46285326e-02	1.42997959e-04
4.66000000e-01	1.48388959e-02	1.44718048e-04
4.67000000e-01	1.47183396e-02	1.44266145e-04
4.68000000e-01	1.47100063e-02	1.44021434e-04
4.69000000e-01	1.46271457e-02	1.43544134e-04
4.70000000e-01	1.46569402e-02	1.43888131e-04
4.71000000e-01	1.45178613e-02	1.42621625e-04
4.72000000e-01	1.45451459e-02	1.42805730e-04
4.73000000e-01	1.46014501e-02	1.43092882e-04
4.74000000e-01	1.46192515e-02	1.42883103e-04
4.75000000e-01	1.46025344e-02	1.42721349e-04
4.76000000e-01	1.46288128e-02	1.43438784e-04
4.77000000e-01	1.45451081e-02	1.42936432e-04
4.78000000e-01	1.45128544e-02	1.42352822e-04
4.79000000e-01	1.45377983e-02	1.42967502e-04
4.80000000e-01	1.45057050e-02	1.42541139e-04
4.81000000e-01	1.44691833e-02	1.42226920e-04
4.82000000e-01	1.46372232e-02	1.43836675e-04
4.83000000e-01	1.43757875e-02	1.41520494e-04
4.84000000e-01	1.45220901e-02	1.42761915e-04
4.85000000e-01	1.45651164e-02	1.43177384e-04
4.86000000e-01	1.44927553e-02	1.42681570e-04
4.87000000e-01	1.44727414e-02	1.42383500e-04
4.88000000e-01	1.45956360e-02	1.43775335e-04
4.89000000e-01	1.43912840e-02	1.42260363e-04
4.90000000e-01	1.45080571e-02	1.42905504e-04
4.91000000e-01	1.44995290e-02	1.42827341e-04
4.92000000e-01	1.44436739e-02	1.42466547e-04
4.93000000e-01	1.44400141e-02	1.43109219e-04
4.94000000e-01	1.44937848e-02	1.43608850e-04
4.95000000e-01	1.44539453e-02	1.43322971e-04
4.96000000e-01	1.43208416e-02	1.47107412e-04
4.97000000e-01	1.43699570e-02	1.50230092e-04
4.98000000e-01	1.42340432e-02	1.50816114e-04
4.99000000e-01	1.43562639e-02	1.54047908e-04
5.00000000e-01	1.44281656e-02	1.56116893e-04
5.01000000e-01	1.43193349e-02	1.56990218e-04
5.02000000e-01	1.43425314e-02	1.58296814e-04
5.03000000e-01	1.46081726e-02	1.62864335e-04
5.04000000e-01	1.43018861e-02	1.60705013e-04
5.05000000e-01	1.44058037e-02	1.59334879e-04
5.06000000e-01	1.44654810e-02	1.56103602e-04
5.07000000e-01	1.45007153e-02	1.55310048e-04
5.08000000e-01	1.44087905e-02	1.53066259e-04
5.09000000e-01	1.44168441e-02	1.53069146e-04
5.10000000e-01	1.44229714e-02	1.52166720e-04
5.11000000e-01	1.43465113e-02	1.51212179e-04
5.12000000e-01	1.43652587e-02	1.50935089e-04
5.13000000e-01	1.44403709e-02	1.51513515e-04
5.14000000e-01	1.43379092e-02	1.49942270e-04
5.15000000e-01	1.42187003e-02	1.48695595e-04
5.16000000e-01	1.43514692e-02	1.49425653e-04
5.17000000e-01	1.42764653e-02	1.48885858e-04
5.18000000e-01	1.41017118e-02	1.46720138e-04
5.19000000e-01	1.42536320e-02	1.47946302e-04
5.20000000e-01	1.42791193e-02	1.47295602e-04
5.21000000e-01	1.42727765e-02	1.47768521e-04
5.22000000e-01	1.41553106e-02	1.46865572e-04
5.23000000e-01	1.42414465e-02	1.47305447e-04
5.24000000e-01	1.41611721e-02	1.46535840e-04
5.25000000e-01	1.42106019e-02	1.46515245e-04
5.26000000e-01	1.41338308e-02	1.45613536e-04
5.27000000e-01	1.41929797e-02	1.46253514e-04
5.28000000e-01	1.42152001e-02	1.46555000e-04
5.29000000e-01	1.40538575e-02	1.45324904e-04
5.30000000e-01	1.41569567e-02	1.45836816e-04
5.31000000e-01	1.40179057e-02	1.45160901e-04
5.32000000e-01	1.40983721e-02	1.45166951e-04
5.33000000e-01	1.41063524e-02	1.45342586e-04
5.34000000e-01	1.39830020e-02	1.44455788e-04
5.35000000e-01	1.40190303e-02	1.44653805e-04
5.36000000e-01	1.41136294e-02	1.45726551e-04
5.37000000e-01	1.41589310e-02	1.45985642e-04
5.38000000e-01	1.41220685e-02	1.45655319e-04
5.39000000e-01	1.40862062e-02	1.45234105e-04
5.40000000e-01	1.42189801e-02	1.46792119e-04
5.41000000e-01	1.40173192e-02	1.44268209e-04
5.42000000e-01	1.41605157e-02	1.45907029e-04
5.43000000e-01	1.40182796e-02	1.44504791e-04
5.44000000e-01	1.40287089e-02	1.44453865e-04
5.45000000e-01	1.40367988e-02	1.45291187e-04
5.46000000e-01	1.39350282e-02	1.43791928e-04
5.47000000e-01	1.39353731e-02	1.43717446e-04
5.48000000e-01	1.39048666e-02	1.43453951e-04
5.49000000e-01	1.40928753e-02	1.45537934e-04
5.50000000e-01	1.39186164e-02	1.44282023e-04
5.51000000e-01	1.38822082e-02	1.42681144e-04
5.52000000e-01	1.38477447e-02	1.42164558e-04
5.53000000e-01	1.38293125e-02	1.42213562e-04
5.54000000e-01	1.38266201e-02	1.41805730e-04
5.55000000e-01	1.38715030e-02	1.42359736e-04
5.56000000e-01	1.38035373e-02	1.41566937e-04
5.57000000e-01	1.37440237e-02	1.41331380e-04
5.58000000e-01	1.38892145e-02	1.42086217e-04
5.59000000e-01	1.37867239e-02	1.41690728e-04
5.60000000e-01	1.38888133e-02	1.42403667e-04
5.61000000e-01	1.38072235e-02	1.41935735e-04
5.62000000e-01	1.37593293e-02	1.41370824e-04
5.63000000e-01	1.37037307e-02	1.40787179e-04
5.64000000e-01	1.36619583e-02	1.40397028e-04
5.65000000e-01	1.36769361e-02	1.40424103e-04
5.66000000e-01	1.38639930e-02	1.42266173e-04
5.67000000e-01	1.36430589e-02	1.40471128e-04
5.68000000e-01	1.38043606e-02	1.41939148e-04
5.69000000e-01	1.36528671e-02	1.40055548e-04
5.70000000e-01	1.37219250e-02	1.40397133e-04
5.71000000e-01	1.37239754e-02	1.40449895e-04
5.72000000e-01	1.37649318e-02	1.41438941e-04
5.73000000e-01	1.36726501e-02	1.40637561e-04
5.74000000e-01	1.35022231e-02	1.38782301e-04
5.75000000e-01	1.37123599e-02	1.41376358e-04
5.76000000e-01	1.36587797e-02	1.40703466e-04
5.77000000e-01	1.36530723e-02	1.40329587e-04
5.78000000e-01	1.36006154e-02	1.40097644e-04
5.79000000e-01	1.36584185e-02	1.40406216e-04
5.80000000e-01	1.35671012e-02	1.40000775e-04
5.81000000e-01	1.37371549e-02	1.41625123e-04
5.82000000e-01	1.34873196e-02	1.39517886e-04
5.83000000e-01	1.35783915e-02	1.39611957e-04
5.84000000e-01	1.35112210e-02	1.39489893e-04
5.85000000e-01	1.35708685e-02	1.39603038e-04
5.86000000e-01	1.34504585e-02	1.39117117e-04
5.87000000e-01	1.35724414e-02	1.39749074e-04
5.88000000e-01	1.35405916e-02	1.39297878e-04
5.89000000e-01	1.35754059e-02	1.39930583e-04
5.90000000e-01	1.35287849e-02	1.39717690e-04
5.91000000e-01	1.34758605e-02	1.39138452e-04
5.92000000e-01	1.35357840e-02	1.39696300e-04
5.93000000e-01	1.35099235e-02	1.39683967e-04
5.94000000e-01	1.35556433e-02	1.39802728e-04
5.95000000e-01	1.34042405e-02	1.38387679e-04
5.96000000e-01	1.33741851e-02	1.38677234e-04
5.97000000e-01	1.33650413e-02	1.38766291e-04
5.98000000e-01	1.34996360e-02	1.39480969e-04
5.99000000e-01	1.33761463e-02	1.38624071e-04
6.00000000e-01	1.33325493e-02	1.37759436e-04
6.01000000e-01	1.32788876e-02	1.37790714e-04
6.02000000e-01	1.34071609e-02	1.38687057e-04
6.03000000e-01	1.34162425e-02	1.38868141e-04
6.04000000e-01	1.33896710e-02	1.38471983e-04
6.05000000e-01	1.33011844e-02	1.37504474e-04
6.06000000e-01	1.34181008e-02	1.38930395e-04
6.07000000e-01	1.32350859e-02	1.37180733e-04
6.08000000e-01	1.33088635e-02	1.38124716e-04
6.09000000e-01	1.32862094e-02	1.37760749e-04
6.10000000e-01	1.33250180e-02	1.37943101e-04
6.11000000e-01	1.32969077e-02	1.37753454e-04
6.12000000e-01	1.32250854e-02	1.36983149e-04
6.13000000e-01	1.33638545e-02	1.38849260e-04
6.14000000e-01	1.34326397e-02	1.39042767e-04
6.15000000e-01	1.32422646e-02	1.37271188e-04
6.16000000e-01	1.33942780e-02	1.38477273e-04
6.17000000e-01	1.33250692e-02	1.38313346e-04
6.18000000e-01	1.31880515e-02	1.37222697e-04
6.19000000e-01	1.32379327e-02	1.36955627e-04
6.20000000e-01	1.32676585e-02	1.37175509e-04
6.21000000e-01	1.31808373e-02	1.36448978e-04
6.22000000e-01	1.32775939e-02	1.36511187e-04
6.23000000e-01	1.31872336e-02	1.36808398e-04
6.24000000e-01	1.30835052e-02	1.35126791e-04
6.25000000e-01	1.31443911e-02	1.35162236e-04
6.26000000e-01	1.31796981e-02	1.35753735e-04
6.27000000e-01	1.30678980e-02	1.34774451e-04
6.28000000e-01	1.32612509e-02	1.36493046e-04
6.29000000e-01	1.31420034e-02	1.35248355e-04
6.30000000e-01	1.32020842e-02	1.36636316e-04
6.31000000e-01	1.31671020e-02	1.35319920e-04
6.32000000e-01	1.32544843e-02	1.36302290e-04
6.33000000e-01	1.32060085e-02	1.36082979e-04
6.34000000e-01	1.31791921e-02	1.39230260e-04
6.35000000e-01	1.31833699e-02	1.43195644e-04
6.36000000e-01	1.33064307e-02	1.47087135e-04
6.37000000e-01	1.31729089e-02	1.47970409e-04
6.38000000e-01	1.32002999e-02	1.50175935e-04
6.39000000e-01	1.31672653e-02	1.51959169e-04
6.40000000e-01	1.30752792e-02	1.52277353e-04
6.41000000e-01	1.32721705e-02	1.57095492e-04
6.42000000e-01	1.31329986e-02	1.57119416e-04
6.43000000e-01	1.31957192e-02	1.57307485e-04
6.44000000e-01	1.33160637e-02	1.53097165e-04
6.45000000e-01	1.32468761e-02	1.50289778e-04
6.46000000e-01	1.34619234e-02	1.50987634e-04
6.47000000e-01	1.32103132e-02	1.47459520e-04
6.48000000e-01	1.31907817e-02	1.46285811e-04
6.49000000e-01	1.30917533e-02	1.44039700e-04
6.50000000e-01	1.32613607e-02	1.45368054e-04
6.51000000e-01	1.31982256e-02	1.43873115e-04
6.52000000e-01	1.31671909e-02	1.42998196e-04
6.53000000e-01	1.31352388e-02	1.42234368e-04
6.54000000e-01	1.31413605e-02	1.42244627e-04
6.55000000e-01	1.30299631e-02	1.40480316e-04
6.56000000e-01	1.30903504e-02	1.41188734e-04
6.57000000e-01	1.31241225e-02	1.41149555e-04
6.58000000e-01	1.30917826e-02	1.40517808e-04
6.59000000e-01	1.30857702e-02	1.40254746e-04
6.60000000e-01	1.30778104e-02	1.39864674e-04
6.61000000e-01	1.31068549e-02	1.40546543e-04
6.62000000e-01	1.30274591e-02	1.40096795e-04
6.63000000e-01	1.30539766e-02	1.40064095e-04
6.64000000e-01	1.32512209e-02	1.41885130e-04
6.65000000e-01	1.30898289e-02	1.40582589e-04
6.66000000e-01	1.31181922e-02	1.40365309e-04
6.67000000e-01	1.30995400e-02	1.40501375e-04
6.68000000e-01	1.28526878e-02	1.37401020e-04
6.69000000e-01	1.30079324e-02	1.39494445e-04
6.70000000e-01	1.29706797e-02	1.38434540e-04
6.71000000e-01	1.30052507e-02	1.39024258e-04
6.72000000e-01	1.29954463e-02	1.38939866e-04
6.73000000e-01	1.29053494e-02	1.38111029e-04
6.74000000e-01	1.30049967e-02	1.38630338e-04
6.75000000e-01	1.28966811e-02	1.37834037e-04
6.76000000e-01	1.29536403e-02	1.37999384e-04
6.77000000e-01	1.29617909e-02	1.37981261e-04
6.78000000e-01	1.28871280e-02	1.37416840e-04
6.79000000e-01	1.28018654e-02	1.36407483e-04
6.80000000e-01	1.29124537e-02	1.38157208e-04
6.81000000e-01	1.29982574e-02	1.38480331e-04
6.82000000e-01	1.28442797e-02	1.36930149e-04
6.83000000e-01	1.30022701e-02	1.38390291e-04
6.84000000e-01	1.30432084e-02	1.38399861e-04
6.85000000e-01	1.28448244e-02	1.36631246e-04
6.86000000e-01	1.28531217e-02	1.36692284e-04
6.87000000e-01	1.29474329e-02	1.37846056e-04
6.88000000e-01	1.28205533e-02	1.36550771e-04
6.89000000e-01	1.27370083e-02	1.35643569e-04
6.90000000e-01	1.27895255e-02	1.35947673e-04
6.91000000e-01	1.28415348e-02	1.36803903e-04
6.92000000e-01	1.28268373e-02	1.36611225e-04
6.93000000e-01	1.28643590e-02	1.37152556e-04
6.94000000e-01	1.28508449e-02	1.36402629e-04
6.95000000e-01	1.28376331e-02	1.36299621e-04
6.96000000e-01	1.28866351e-02	1.37160465e-04
6.97000000e-01	1.27993346e-02	1.35851410e-04
6.98000000e-01	1.28299425e-02	1.36699423e-04
6.99000000e-01	1.27962808e-02	1.35764258e-04
7.00000000e-01	1.28060909e-02	1.36252789e-04
7.01000000e-01	1.28338444e-02	1.35943118e-04
7.02000000e-01	1.28133956e-02	1.36048836e-04
7.03000000e-01	1.27701673e-02	1.35372219e-04
7.04000000e-01	1.26732908e-02	1.35033805e-04
7.05000000e-01	1.28497204e-02	1.36599922e-04
7.06000000e-01	1.27994466e-02	1.36136886e-04
7.07000000e-01	1.26757185e-02	1.34514890e-04
7.08000000e-01	1.26477526e-02	1.34022798e-04
7.09000000e-01	1.27223473e-02	1.34990372e-04
7.10000000e-01	1.26323657e-02	1.34323077e-04
7.11000000e-01	1.26398224e-02	1.34161438e-04
7.12000000e-01	1.25004415e-02	1.32919356e-04
7.13000000e-01	1.24234872e-02	1.32305460e-04
7.14000000e-01	1.24640917e-02	1.32569498e-04
7.15000000e-01	1.24950115e-02	1.33324508e-04
7.16000000e-01	1.26864745e-02	1.34896976e-04
7.17000000e-01	1.25978888e-02	1.33927325e-04
7.18000000e-01	1.25469333e-02	1.33405539e-04
7.19000000e-01	1.24664226e-02	1.32423247e-04
7.20000000e-01	1.24645261e-02	1.32922060e-04
7.21000000e-01	1.24606684e-02	1.32995666e-04
7.22000000e-01	1.25546698e-02	1.33424137e-04
7.23000000e-01	1.24933797e-02	1.32603485e-04
7.24000000e-01	1.23092444e-02	1.31536208e-04
7.25000000e-01	1.25532706e-02	1.33091299e-04
7.26000000e-01	1.25025602e-02	1.33559664e-04
7.27000000e-01	1.25077621e-02	1.33337527e-04
7.28000000e-01	1.24362684e-02	1.32319318e-04
7.29000000e-01	1.25345167e-02	1.33177683e-04
7.30000000e-01	1.23991513e-02	1.32099158e-04
7.31000000e-01	1.23502942e-02	1.31562665e-04
7.32000000e-01	1.24556120e-02	1.32480558e-04
7.33000000e-01	1.23845215e-02	1.32252609e-04
7.34000000e-01	1.23201927e-02	1.31068661e-04
7.35000000e-01	1.23607052e-02	1.30957715e-04
7.36000000e-01	1.24632966e-02	1.32194588e-04
7.37000000e-01	1.23889252e-02	1.31298491e-04
7.38000000e-01	1.22587336e-02	1.29720422e-04
7.39000000e-01	1.22075228e-02	1.29194079e-04
7.40000000e-01	1.22410885e-02	1.29385300e-04
7.41000000e-01	1.23428224e-02	1.30078108e-04
7.42000000e-01	1.23956867e-02	1.30711339e-04
7.43000000e-01	1.24290146e-02	1.30814531e-04
7.44000000e-01	1.24294493e-02	1.30696228e-04
7.45000000e-01	1.22632406e-02	1.29010477e-04
7.46000000e-01	1.22623656e-02	1.29100840e-04
7.47000000e-01	1.22632312e-02	1.29005432e-04
7.48000000e-01	1.21986651e-02	1.28824124e-04
7.49000000e-01	1.22209316e-02	1.28971211e-04
7.50000000e-01	1.22077383e-02	1.28837611e-04
7.51000000e-01	1.22996478e-02	1.29364976e-04
7.52000000e-01	1.22740239e-02	1.29228611e-04
7.53000000e-01	1.21417859e-02	1.28375156e-04
7.54000000e-01	1.23159245e-02	1.30059436e-04
7.55000000e-01	1.22779240e-02	1.29656890e-04
7.56000000e-01	1.20074835e-02	1.27015512e-04
7.57000000e-01	1.22257464e-02	1.28747547e-04
7.58000000e-01	1.21403571e-02	1.27816202e-04
7.59000000e-01	1.20223891e-02	1.26945348e-04
7.60000000e-01	1.21391771e-02	1.27603215e-04
7.61000000e-01	1.20892134e-02	1.26983887e-04
7.62000000e-01	1.20886912e-02	1.27300010e-04
7.63000000e-01	1.20593794e-02	1.26759884e-04
7.64000000e-01	1.19829518e-02	1.25648252e-04
7.65000000e-01	1.18928752e-02	1.24579499e-04
7.66000000e-01	1.19637951e-02	1.25151933e-04
7.67000000e-01	1.21030463e-02	1.26702778e-04
7.68000000e-01	1.20037569e-02	1.25834281e-04
7.69000000e-01	1.20292503e-02	1.26225081e-04
7.70000000e-01	1.21666990e-02	1.27226733e-04
7.71000000e-01	1.21210635e-02	1.26294740e-04
7.72000000e-01	1.21095528e-02	1.30636677e-04
7.73000000e-01	1.19559994e-02	1.33632074e-04
7.74000000e-01	1.20310885e-02	1.36535831e-04
7.75000000e-01	1.19462568e-02	1.38041469e-04
7.76000000e-01	1.18707439e-02	1.39073097e-04
7.77000000e-01	1.19290653e-02	1.42510061e-04
7.78000000e-01	1.20378640e-02	1.45745052e-04
7.79000000e-01	1.18375572e-02	1.44911146e-04
7.80000000e-01	1.19421099e-02	1.48092677e-04
7.81000000e-01	1.17866450e-02	1.47871244e-04
7.82000000e-01	1.17515832e-02	1.49241517e-04
7.83000000e-01	1.18756248e-02	1.51735247e-04
7.84000000e-01	1.19091652e-02	1.53966059e-04
7.85000000e-01	1.18023421e-02	1.54006147e-04
7.86000000e-01	1.16586313e-02	1.54403052e-04
7.87000000e-01	1.19320897e-02	1.58730442e-04
7.88000000e-01	1.18924961e-02	1.59764930e-04
7.89000000e-01	1.19003207e-02	1.61321670e-04
7.90000000e-01	1.17819440e-02	1.62075587e-04
7.91000000e-01	1.17785896e-02	1.63507044e-04
7.92000000e-01	1.17643109e-02	1.64020682e-04
7.93000000e-01	1.17580110e-02	1.65618317e-04
7.94000000e-01	1.17119951e-02	1.67148005e-04
7.95000000e-01	1.15402315e-02	1.67852101e-04
7.96000000e-01	1.18137558e-02	1.72475301e-04
7.97000000e-01	1.16095315e-02	1.71784588e-04
7.98000000e-01	1.17097010e-02	1.75306525e-04
7.99000000e-01	1.16666913e-02	1.76119165e-04
8.00000000e-01	1.18109200e-02	1.79456001e-04
8.01000000e-01	1.15271753e-02	1.78219521e-04
8.02000000e-01	1.15840202e-02	1.79605544e-04
8.03000000e-01	1.16430142e-02	1.83148164e-04
8.04000000e-01	1.15240247e-02	1.83484431e-04
8.05000000e-01	1.16415181e-02	1.86433266e-04
8.06000000e-01	1.15590460e-02	1.88148117e-04
8.07000000e-01	1.15608644e-02	1.89734338e-04
8.08000000e-01	1.15727165e-02	1.91467302e-04
8.09000000e-01	1.14114309e-02	1.91680899e-04
8.10000000e-01	1.14981699e-02	1.95071293e-04
8.11000000e-01	1.14215639e-02	1.95994187e-04
8.12000000e-01	1.15311706e-02	1.99135718e-04
8.13000000e-01	1.14980090e-02	2.01641422e-04
8.14000000e-01	1.15412326e-02	2.04228838e-04
8.15000000e-01	1.15781765e-02	2.07143547e-04
8.16000000e-01	1.15095217e-02	2.09694117e-04
8.17000000e-01	1.15499929e-02	2.11441121e-04
8.18000000e-01	1.15026871e-02	2.12741530e-04
8.19000000e-01	1.15446091e-02	2.16504003e-04
8.20000000e-01	1.12634116e-02	2.17002526e-04
8.21000000e-01	1.13400480e-02	2.19552686e-04
8.22000000e-01	1.13448171e-02	2.22591667e-04
8.23000000e-01	1.13853020e-02	2.25996033e-04
8.24000000e-01	1.14908302e-02	2.29826943e-04
8.25000000e-01	1.14284494e-02	2.31802550e-04
8.26000000e-01	1.12616208e-02	2.33949534e-04
8.27000000e-01	1.12590805e-02	2.35760760e-04
8.28000000e-01	1.13138447e-02	2.41361710e-04
8.29000000e-01	1.14167374e-02	2.50346161e-04
8.30000000e-01	1.12046722e-02	2.45526025e-04
8.31000000e-01	1.12826029e-02	2.51499149e-04
8.32000000e-01	1.13514848e-02	2.58254315e-04
8.33000000e-01	1.12337279e-02	2.59178953e-04
8.34000000e-01	1.12320997e-02	2.63997650e-04
8.35000000e-01	1.10347476e-02	2.66099414e-04
8.36000000e-01	1.13496425e-02	2.74416062e-04
8.37000000e-01	1.10818656e-02	2.75973623e-04
8.38000000e-01	1.08031780e-02	2.73194870e-04
8.39000000e-01	1.10769534e-02	2.87827733e-04
8.40000000e-01	1.10192147e-02	2.91148068e-04
8.41000000e-01	1.09749423e-02	2.99180961e-04
8.42000000e-01	1.12235083e-02	3.08957971e-04
8.43000000e-01	1.11702879e-02	3.15177404e-04
8.44000000e-01	1.13240387e-02	3.25305877e-04
8.45000000e-01	1.11451265e-02	3.32223133e-04
8.46000000e-01	1.08521569e-02	3.33782250e-04
8.47000000e-01	1.09918691e-02	3.48234574e-04
8.48000000e-01	1.07616182e-02	3.50642368e-04
8.49000000e-01	1.08905255e-02	3.64262925e-04
8.50000000e-01	1.06288419e-02	3.71542537e-04
8.51000000e-01	1.06379196e-02	3.86151140e-04
8.52000000e-01	1.10489807e-02	4.07158825e-04
8.53000000e-01	1.08603211e-02	4.21993683e-04
8.54000000e-01	1.07262249e-02	4.39032440e-04
8.55000000e-01	1.11625445e-02	4.71822485e-04
8.56000000e-01	1.02273594e-02	4.49313444e-04
8.57000000e-01	1.06883352e-02	4.78663499e-04
8.58000000e-01	1.06276480e-02	4.81391564e-04
8.59000000e-01	1.05979049e-02	5.02310179e-04
8.60000000e-01	1.05976856e-02	5.11276283e-04
8.61000000e-01	1.10809780e-02	5.62649453e-04
8.62000000e-01	1.04220309e-02	5.47471189e-04
8.63000000e-01	1.00177781e-02	5.56553403e-04
8.64000000e-01	1.07998223e-02	6.17273387e-04
8.65000000e-01	1.05020949e-02	6.21220832e-04
8.66000000e-01	1.05311968e-02	6.73906391e-04
8.67000000e-01	1.13799790e-02	7.40631120e-04
8.68000000e-01	1.12154994e-02	7.85809337e-04
8.69000000e-01	1.06292285e-02	7.99836058e-04
8.70000000e-01	1.03149928e-02	8.55688118e-04
8.71000000e-01	1.08452901e-02	1.00459441e-03
8.72000000e-01	1.05899592e-02	1.11277095e-03
8.73000000e-01	1.11605273e-02	1.36503358e-03
8.74000000e-01	1.14776953e-02	1.86605694e-03
8.75000000e-01	8.11062073e-03	2.59657666e-03
