% Filename : SDL7c_00026_00012.h5
% Date & Time : 30-Oct-2025 17:01:32
% X-ray Energy (keV) : 13.30001
% Exposure Time (s) : 0.500
% Beam Center : 1461.24000, 208.98300
% Sample to Detector Distance (SDD) (mm) : 1990.750
% Detector Pixel Size (mm) : 0.075
% Photodiode Value : 140343.000
% I0 of Sample : 0
% I0 of Standard : 1
% 
% q(A^-1)   I(q)    I(q)_SE
0.00000000e+00	1.28732263e-02	8.34280388e-03
2.50000000e-04	0.00000000e+00	0.00000000e+00
5.00000000e-04	0.00000000e+00	0.00000000e+00
7.50000000e-04	0.00000000e+00	0.00000000e+00
1.00000000e-03	0.00000000e+00	0.00000000e+00
1.25000000e-03	0.00000000e+00	0.00000000e+00
1.50000000e-03	0.00000000e+00	0.00000000e+00
1.75000000e-03	0.00000000e+00	0.00000000e+00
2.00000000e-03	0.00000000e+00	0.00000000e+00
2.25000000e-03	0.00000000e+00	0.00000000e+00
2.50000000e-03	0.00000000e+00	0.00000000e+00
2.75000000e-03	0.00000000e+00	0.00000000e+00
3.00000000e-03	0.00000000e+00	0.00000000e+00
3.25000000e-03	2.77856835e+03	2.73785567e+03
3.50000000e-03	1.27871824e+01	3.83904628e+00
3.75000000e-03	1.19212358e+01	3.63450918e+00
4.00000000e-03	1.25201330e+02	1.16074419e+02
4.25000000e-03	6.44515558e+00	1.50387694e+00
4.50000000e-03	6.07543185e+01	5.46770418e+01
4.75000000e-03	1.86675655e+02	1.04780910e+02
5.00000000e-03	1.58924607e+02	8.79950382e+01
5.25000000e-03	1.34726291e+02	7.36852041e+01
5.50000000e-03	1.09739791e+02	5.90426255e+01
5.75000000e-03	8.62961899e+01	4.60516404e+01
6.00000000e-03	7.56714754e+01	4.12498871e+01
6.25000000e-03	6.44970860e+01	3.42142887e+01
6.50000000e-03	5.09463644e+01	2.65247111e+01
6.75000000e-03	4.67776895e+01	2.42025967e+01
7.00000000e-03	3.53386096e+01	1.80482502e+01
7.25000000e-03	3.24082034e+01	1.62370114e+01
7.50000000e-03	2.75612359e+01	1.34170378e+01
7.75000000e-03	2.63518276e+01	1.27601771e+01
8.00000000e-03	2.34112158e+01	1.13543673e+01
8.25000000e-03	1.93616552e+01	9.03787492e+00
8.50000000e-03	1.78223939e+01	8.33721940e+00
8.75000000e-03	1.66282506e+01	7.79966337e+00
9.00000000e-03	1.47328418e+01	6.78863063e+00
9.25000000e-03	1.23089196e+01	5.60029640e+00
9.50000000e-03	1.04478530e+01	4.61991670e+00
9.75000000e-03	9.50149287e+00	4.21675566e+00
1.00000000e-02	7.56363817e+00	3.63010553e+00
1.02500000e-02	8.14148260e+00	3.51699853e+00
1.05000000e-02	7.31163400e+00	3.11855170e+00
1.07500000e-02	6.59523824e+00	2.85576709e+00
1.10000000e-02	6.06388238e+00	2.55590039e+00
1.12500000e-02	4.89071007e+00	2.32802317e+00
1.15000000e-02	5.06741746e+00	2.10267415e+00
1.17500000e-02	4.10531147e+00	1.72500301e+00
1.20000000e-02	4.19084116e+00	1.68627121e+00
1.22500000e-02	3.97595675e+00	1.57488813e+00
1.25000000e-02	3.72373624e+00	1.45600374e+00
1.27500000e-02	3.42501704e+00	1.32717187e+00
1.30000000e-02	3.17737543e+00	1.22445604e+00
1.32500000e-02	2.88005612e+00	1.11821940e+00
1.35000000e-02	2.78265950e+00	1.07040076e+00
1.37500000e-02	2.52283074e+00	9.49737573e-01
1.40000000e-02	2.39571296e+00	8.97944126e-01
1.42500000e-02	2.21836256e+00	8.15724450e-01
1.45000000e-02	2.02540525e+00	7.27071051e-01
1.47500000e-02	1.93150596e+00	6.94513969e-01
1.50000000e-02	1.73495830e+00	6.11791202e-01
1.52500000e-02	1.59544302e+00	5.55480481e-01
1.55000000e-02	1.49488505e+00	5.21385325e-01
1.57500000e-02	1.53822939e+00	5.37360886e-01
1.60000000e-02	1.42351040e+00	4.94704960e-01
1.62500000e-02	1.39024819e+00	4.81607294e-01
1.65000000e-02	1.19948235e+00	4.03719799e-01
1.67500000e-02	1.11841423e+00	3.73003997e-01
1.70000000e-02	1.07666952e+00	3.59207658e-01
1.72500000e-02	9.52650239e-01	3.08379522e-01
1.75000000e-02	9.32024660e-01	3.08942703e-01
1.77500000e-02	9.03187279e-01	2.93602718e-01
1.80000000e-02	9.11489583e-01	2.94709856e-01
1.82500000e-02	7.96034845e-01	2.55880833e-01
1.85000000e-02	6.65049986e-01	2.10709906e-01
1.87500000e-02	7.51413742e-01	2.36087612e-01
1.90000000e-02	7.13902373e-01	2.16379144e-01
1.92500000e-02	6.51681738e-01	1.96278134e-01
1.95000000e-02	5.50287706e-01	1.73645056e-01
1.97500000e-02	5.97975503e-01	1.78146549e-01
2.00000000e-02	5.28346883e-01	1.62630090e-01
2.02500000e-02	5.34127608e-01	1.55554104e-01
2.05000000e-02	5.21326753e-01	1.51497412e-01
2.07500000e-02	5.06995062e-01	1.45820354e-01
2.10000000e-02	4.93600182e-01	1.41369644e-01
2.12500000e-02	4.72963448e-01	1.32286168e-01
2.15000000e-02	4.78615935e-01	1.35822533e-01
2.17500000e-02	4.61141528e-01	1.26955971e-01
2.20000000e-02	4.30038050e-01	1.16842851e-01
2.22500000e-02	4.18460603e-01	1.14765625e-01
2.25000000e-02	4.11214803e-01	1.09656326e-01
2.27500000e-02	3.88224342e-01	1.02369357e-01
2.30000000e-02	3.78353134e-01	9.89507347e-02
2.32500000e-02	3.59302670e-01	9.26885228e-02
2.35000000e-02	3.77021033e-01	9.97847321e-02
2.37500000e-02	3.58197245e-01	9.32070524e-02
2.40000000e-02	3.43826291e-01	9.01678391e-02
2.42500000e-02	3.28064889e-01	8.17082355e-02
2.45000000e-02	3.23547217e-01	8.01004993e-02
2.47500000e-02	3.07137568e-01	7.52193936e-02
2.50000000e-02	2.95180962e-01	7.25683736e-02
2.52500000e-02	2.63925618e-01	6.42618535e-02
2.55000000e-02	2.69529114e-01	6.46505248e-02
2.57500000e-02	2.74783144e-01	6.56927516e-02
2.60000000e-02	2.54411783e-01	6.00487539e-02
2.62500000e-02	2.39519743e-01	5.81869269e-02
2.65000000e-02	2.46254000e-01	5.67184094e-02
2.67500000e-02	2.35265446e-01	5.37411880e-02
2.70000000e-02	2.18019226e-01	4.94302046e-02
2.72500000e-02	2.28477652e-01	5.13616307e-02
2.75000000e-02	2.12637571e-01	4.88511149e-02
2.77500000e-02	2.15312501e-01	4.67902425e-02
2.80000000e-02	2.03704728e-01	4.43863644e-02
2.82500000e-02	2.00267825e-01	4.29045608e-02
2.85000000e-02	1.88502609e-01	3.93920473e-02
2.87500000e-02	1.94540098e-01	4.06958506e-02
2.90000000e-02	1.86548450e-01	3.85429632e-02
2.92500000e-02	1.72785375e-01	3.49721969e-02
2.95000000e-02	1.72919440e-01	3.45272949e-02
2.97500000e-02	1.65568278e-01	3.30777743e-02
3.00000000e-02	1.66438457e-01	3.30875556e-02
3.02500000e-02	1.63019559e-01	3.19223777e-02
3.05000000e-02	1.54143501e-01	2.93564646e-02
3.07500000e-02	1.53938816e-01	2.96817678e-02
3.10000000e-02	1.52222527e-01	2.97097077e-02
3.12500000e-02	1.47654657e-01	2.78123681e-02
3.15000000e-02	1.40332175e-01	2.56615568e-02
3.17500000e-02	1.35011439e-01	2.42879466e-02
3.20000000e-02	1.37356326e-01	2.51095374e-02
3.22500000e-02	1.33116502e-01	2.39258347e-02
3.25000000e-02	1.26943526e-01	2.24110935e-02
3.27500000e-02	1.24622211e-01	2.14813732e-02
3.30000000e-02	1.24072376e-01	2.12662652e-02
3.32500000e-02	1.21273400e-01	2.07595992e-02
3.35000000e-02	1.12551288e-01	1.91067751e-02
3.37500000e-02	1.14754010e-01	1.91288084e-02
3.40000000e-02	1.14892529e-01	1.93731233e-02
3.42500000e-02	1.11507183e-01	1.84101201e-02
3.45000000e-02	1.07339012e-01	1.76113154e-02
3.47500000e-02	1.08998253e-01	1.76235945e-02
3.50000000e-02	9.84697185e-02	1.52006638e-02
3.52500000e-02	1.03080896e-01	1.63372261e-02
3.55000000e-02	9.72681596e-02	1.48608980e-02
3.57500000e-02	9.62625971e-02	1.52058108e-02
3.60000000e-02	9.50591755e-02	1.50896071e-02
3.62500000e-02	9.77711744e-02	1.51013468e-02
3.65000000e-02	9.20269658e-02	1.38573483e-02
3.67500000e-02	9.11011388e-02	1.33636188e-02
3.70000000e-02	8.83297583e-02	1.26259226e-02
3.72500000e-02	8.54452600e-02	1.20786658e-02
3.75000000e-02	8.77997942e-02	1.25399274e-02
3.77500000e-02	8.34899332e-02	1.17478920e-02
3.80000000e-02	8.30989865e-02	1.13299399e-02
3.82500000e-02	8.23335095e-02	1.13238298e-02
3.85000000e-02	7.92743019e-02	1.05558190e-02
3.87500000e-02	7.92140040e-02	1.06764754e-02
3.90000000e-02	7.57644990e-02	1.02639589e-02
3.92500000e-02	7.73849138e-02	1.01450381e-02
3.95000000e-02	7.37958762e-02	9.63062755e-03
3.97500000e-02	7.42854060e-02	9.42924780e-03
4.00000000e-02	7.33267137e-02	9.28234474e-03
4.02500000e-02	6.68616127e-02	8.19700751e-03
4.05000000e-02	7.00492204e-02	8.42019308e-03
4.07500000e-02	6.62958891e-02	7.89500123e-03
4.10000000e-02	6.56902501e-02	8.07673975e-03
4.12500000e-02	6.73033199e-02	8.14662523e-03
4.15000000e-02	6.45082335e-02	7.50071692e-03
4.17500000e-02	6.42937930e-02	7.44094680e-03
4.20000000e-02	6.13746560e-02	6.88609836e-03
4.22500000e-02	6.27746142e-02	7.16978994e-03
4.25000000e-02	6.19739950e-02	6.94317392e-03
4.27500000e-02	6.09673360e-02	6.64589638e-03
4.30000000e-02	5.97167122e-02	6.57414779e-03
4.32500000e-02	5.84826333e-02	6.27703110e-03
4.35000000e-02	5.84096362e-02	6.10637589e-03
4.37500000e-02	5.70805183e-02	5.91850395e-03
4.40000000e-02	5.76229328e-02	6.11308041e-03
4.42500000e-02	5.54423735e-02	5.60784975e-03
4.45000000e-02	5.61146031e-02	5.75660269e-03
4.47500000e-02	5.45227271e-02	5.53018742e-03
4.50000000e-02	5.46250366e-02	5.43015844e-03
4.52500000e-02	5.41117184e-02	5.21350472e-03
4.55000000e-02	5.34448387e-02	5.01125053e-03
4.57500000e-02	5.19298770e-02	4.78439609e-03
4.60000000e-02	5.20514020e-02	4.88033247e-03
4.62500000e-02	5.14064684e-02	4.74312460e-03
4.65000000e-02	4.92344336e-02	4.46343807e-03
4.67500000e-02	4.92054960e-02	4.39295165e-03
4.70000000e-02	4.92518630e-02	4.35598691e-03
4.72500000e-02	4.85571632e-02	4.19937607e-03
4.75000000e-02	4.67712453e-02	3.90352144e-03
4.77500000e-02	4.69925182e-02	4.05647561e-03
4.80000000e-02	4.67603627e-02	3.97935581e-03
4.82500000e-02	4.64353157e-02	3.94235692e-03
4.85000000e-02	4.64676519e-02	3.94728652e-03
4.87500000e-02	4.56732767e-02	3.73262836e-03
4.90000000e-02	4.44108764e-02	3.54410873e-03
4.92500000e-02	4.34396087e-02	3.41055033e-03
4.95000000e-02	4.31810718e-02	3.37775021e-03
4.97500000e-02	4.45619745e-02	3.51252354e-03
5.00000000e-02	4.24719558e-02	3.27078012e-03
5.02500000e-02	4.22064992e-02	3.06847369e-03
5.05000000e-02	4.20057949e-02	3.14745247e-03
5.07500000e-02	4.23221830e-02	3.13916836e-03
5.10000000e-02	4.09953044e-02	2.99180269e-03
5.12500000e-02	4.11536220e-02	3.01404189e-03
5.15000000e-02	3.97246325e-02	2.86467862e-03
5.17500000e-02	3.92249029e-02	2.79158726e-03
5.20000000e-02	4.11226192e-02	2.89288163e-03
5.22500000e-02	3.96165070e-02	2.79709007e-03
5.25000000e-02	3.93419145e-02	2.69087166e-03
5.27500000e-02	3.87395939e-02	2.61211103e-03
5.30000000e-02	3.84413615e-02	2.52964069e-03
5.32500000e-02	3.86882511e-02	2.61135058e-03
5.35000000e-02	3.88790817e-02	2.51221568e-03
5.37500000e-02	3.80285064e-02	2.42961247e-03
5.40000000e-02	3.69286165e-02	2.35326498e-03
5.42500000e-02	3.71542312e-02	2.29347067e-03
5.45000000e-02	3.72128350e-02	2.31893103e-03
5.47500000e-02	3.69129118e-02	2.26078860e-03
5.50000000e-02	3.66971322e-02	2.34415854e-03
5.52500000e-02	3.55467687e-02	2.13519266e-03
5.55000000e-02	3.66934012e-02	2.22781028e-03
5.57500000e-02	3.64483899e-02	2.17881442e-03
5.60000000e-02	3.53107479e-02	2.07149944e-03
5.62500000e-02	3.61443577e-02	2.15818562e-03
5.65000000e-02	3.57159728e-02	2.05828388e-03
5.67500000e-02	3.54596054e-02	2.07194508e-03
5.70000000e-02	3.45729712e-02	1.99448036e-03
5.72500000e-02	3.49342282e-02	1.93310042e-03
5.75000000e-02	3.42467195e-02	1.92156748e-03
5.77500000e-02	3.41502016e-02	1.81779926e-03
5.80000000e-02	3.42677658e-02	1.85361583e-03
5.82500000e-02	3.32782834e-02	1.75284649e-03
5.85000000e-02	3.30586038e-02	1.79321626e-03
5.87500000e-02	3.34945184e-02	1.80906073e-03
5.90000000e-02	3.33461191e-02	1.78449367e-03
5.92500000e-02	3.30001138e-02	1.78741315e-03
5.95000000e-02	3.24129671e-02	1.69673608e-03
5.97500000e-02	3.25809426e-02	1.71977326e-03
6.00000000e-02	3.21431563e-02	1.62475155e-03
6.02500000e-02	3.19830600e-02	1.67822414e-03
6.05000000e-02	3.17686603e-02	1.55603725e-03
6.07500000e-02	3.24674793e-02	1.61319277e-03
6.10000000e-02	3.24161046e-02	1.61100898e-03
6.12500000e-02	3.17856021e-02	1.52817367e-03
6.15000000e-02	3.10432775e-02	1.55731789e-03
6.17500000e-02	3.10009766e-02	1.50327814e-03
6.20000000e-02	3.11871675e-02	1.50978670e-03
6.22500000e-02	3.05397596e-02	1.42195033e-03
6.25000000e-02	3.05062178e-02	1.48779374e-03
6.27500000e-02	3.05166403e-02	1.41225918e-03
6.30000000e-02	3.01089448e-02	1.40124317e-03
6.32500000e-02	3.05717772e-02	1.41065781e-03
6.35000000e-02	3.00875623e-02	1.35388644e-03
6.37500000e-02	3.06364180e-02	1.40292053e-03
6.40000000e-02	3.02801140e-02	1.36286094e-03
6.42500000e-02	3.08754927e-02	1.36043583e-03
6.45000000e-02	2.97516078e-02	1.32732443e-03
6.47500000e-02	2.96804228e-02	1.30336151e-03
6.50000000e-02	2.97245162e-02	1.31231545e-03
6.52500000e-02	2.98490443e-02	1.31628748e-03
6.55000000e-02	2.97395863e-02	1.29397120e-03
6.57500000e-02	2.99017117e-02	1.26736881e-03
6.60000000e-02	2.99184260e-02	1.28288290e-03
6.62500000e-02	2.99536291e-02	1.26016884e-03
6.65000000e-02	2.93578145e-02	1.23901968e-03
6.67500000e-02	2.85115206e-02	1.17609449e-03
6.70000000e-02	2.88045790e-02	1.21058452e-03
6.72500000e-02	2.88742508e-02	1.19994862e-03
6.75000000e-02	2.91204735e-02	1.20923451e-03
6.77500000e-02	2.94256948e-02	1.19901583e-03
6.80000000e-02	2.90727132e-02	1.17865774e-03
6.82500000e-02	2.86522859e-02	1.16635857e-03
6.85000000e-02	2.86403749e-02	1.17018790e-03
6.87500000e-02	2.93056829e-02	1.21060661e-03
6.90000000e-02	2.82318237e-02	1.12138158e-03
6.92500000e-02	2.85466099e-02	1.12461357e-03
6.95000000e-02	2.86827862e-02	1.13327691e-03
6.97500000e-02	2.85584730e-02	1.11294817e-03
7.00000000e-02	2.85769295e-02	1.12652519e-03
7.02500000e-02	2.82125852e-02	1.10779867e-03
7.05000000e-02	2.82365078e-02	1.07723756e-03
7.07500000e-02	2.82265418e-02	1.08888434e-03
7.10000000e-02	2.79264211e-02	1.07091574e-03
7.12500000e-02	2.72632788e-02	1.03829949e-03
7.15000000e-02	2.78058615e-02	1.06314977e-03
7.17500000e-02	2.77051425e-02	1.03418197e-03
7.20000000e-02	2.74823629e-02	1.04315532e-03
7.22500000e-02	2.69232459e-02	1.00350324e-03
7.25000000e-02	2.74197778e-02	1.03926047e-03
7.27500000e-02	2.77765265e-02	1.01253414e-03
7.30000000e-02	2.76469578e-02	1.03997636e-03
7.32500000e-02	2.75735461e-02	1.02818523e-03
7.35000000e-02	2.69978454e-02	1.00640485e-03
7.37500000e-02	2.65179344e-02	9.71687413e-04
7.40000000e-02	2.66881248e-02	9.71745427e-04
7.42500000e-02	2.64256230e-02	9.53584217e-04
7.45000000e-02	2.65655572e-02	9.82105633e-04
7.47500000e-02	2.68118319e-02	9.71634517e-04
7.50000000e-02	2.62714801e-02	9.44066835e-04
7.52500000e-02	2.60439126e-02	9.50729065e-04
7.55000000e-02	2.59386965e-02	9.24253873e-04
7.57500000e-02	2.63748376e-02	9.40343544e-04
7.60000000e-02	2.58204108e-02	9.32200481e-04
7.62500000e-02	2.59257382e-02	9.26663760e-04
7.65000000e-02	2.56336203e-02	8.97675811e-04
7.67500000e-02	2.61602778e-02	9.32997672e-04
7.70000000e-02	2.60648639e-02	9.21234451e-04
7.72500000e-02	2.56287406e-02	9.16186597e-04
7.75000000e-02	2.54943877e-02	9.35509845e-04
7.77500000e-02	2.64692029e-02	9.53122900e-04
7.80000000e-02	2.58721047e-02	9.33309653e-04
7.82500000e-02	2.58884227e-02	9.49986687e-04
7.85000000e-02	2.61364372e-02	9.68773944e-04
7.87500000e-02	2.61859764e-02	9.56536711e-04
7.90000000e-02	2.55359368e-02	9.43192021e-04
7.92500000e-02	2.55727763e-02	9.51203797e-04
7.95000000e-02	2.57032271e-02	9.56365433e-04
7.97500000e-02	2.58707742e-02	9.47542977e-04
8.00000000e-02	2.55063145e-02	9.38795714e-04
8.02500000e-02	2.54634714e-02	9.52275000e-04
8.05000000e-02	2.53329229e-02	9.36750742e-04
8.07500000e-02	2.57386253e-02	9.59997719e-04
8.10000000e-02	2.52112176e-02	9.31115332e-04
8.12500000e-02	2.56643437e-02	9.67950781e-04
8.15000000e-02	2.50437559e-02	9.20250225e-04
8.17500000e-02	2.53352150e-02	9.34798089e-04
8.20000000e-02	2.56957050e-02	9.62728002e-04
8.22500000e-02	2.54477091e-02	9.54795865e-04
8.25000000e-02	2.51119400e-02	9.42407897e-04
8.27500000e-02	2.59249169e-02	9.74182195e-04
8.30000000e-02	2.51605386e-02	9.50832895e-04
8.32500000e-02	2.47769849e-02	9.34879456e-04
8.35000000e-02	2.48268521e-02	9.38367370e-04
8.37500000e-02	2.40098412e-02	8.99304254e-04
8.40000000e-02	2.50257231e-02	9.37473500e-04
8.42500000e-02	2.44191259e-02	9.18276325e-04
8.45000000e-02	2.43832652e-02	9.26124290e-04
8.47500000e-02	2.49694077e-02	9.40332943e-04
8.50000000e-02	2.48735128e-02	9.31874363e-04
8.52500000e-02	2.49408868e-02	9.44140646e-04
8.55000000e-02	2.40797810e-02	9.07202486e-04
8.57500000e-02	2.41835044e-02	9.10198758e-04
8.60000000e-02	2.40207703e-02	9.05398485e-04
8.62500000e-02	2.41841419e-02	9.12714992e-04
8.65000000e-02	2.47936573e-02	9.33368043e-04
8.67500000e-02	2.42802570e-02	9.13605370e-04
8.70000000e-02	2.39889815e-02	8.93310019e-04
8.72500000e-02	2.42703520e-02	8.77082716e-04
8.75000000e-02	2.43022536e-02	8.66094423e-04
8.77500000e-02	2.47199206e-02	8.73640107e-04
8.80000000e-02	2.46640058e-02	8.82253375e-04
8.82500000e-02	2.39909752e-02	8.53587418e-04
8.85000000e-02	2.38041180e-02	8.49583639e-04
8.87500000e-02	2.40179099e-02	8.27950599e-04
8.90000000e-02	2.36266314e-02	8.22838478e-04
8.92500000e-02	2.35386298e-02	8.18423643e-04
8.95000000e-02	2.37701057e-02	8.19089033e-04
8.97500000e-02	2.37517221e-02	8.10366265e-04
9.00000000e-02	2.30334532e-02	7.87805330e-04
9.02500000e-02	2.30239023e-02	7.89307791e-04
9.05000000e-02	2.35961753e-02	8.06586229e-04
9.07500000e-02	2.35287874e-02	8.01703125e-04
9.10000000e-02	2.37968561e-02	7.98884866e-04
9.12500000e-02	2.35724810e-02	7.95499067e-04
9.15000000e-02	2.30622301e-02	7.79039000e-04
9.17500000e-02	2.35610808e-02	7.95817451e-04
9.20000000e-02	2.29552161e-02	7.75308332e-04
9.22500000e-02	2.30238184e-02	7.69564016e-04
9.25000000e-02	2.29017127e-02	7.65593576e-04
9.27500000e-02	2.29951130e-02	7.65871796e-04
9.30000000e-02	2.29780011e-02	7.60443742e-04
9.32500000e-02	2.29440432e-02	7.57656152e-04
9.35000000e-02	2.30057117e-02	7.58095865e-04
9.37500000e-02	2.27054515e-02	7.39806842e-04
9.40000000e-02	2.26693101e-02	7.46815617e-04
9.42500000e-02	2.33872142e-02	7.62301807e-04
9.45000000e-02	2.28907699e-02	7.48987881e-04
9.47500000e-02	2.29170367e-02	7.49741089e-04
9.50000000e-02	2.34756399e-02	7.68424382e-04
9.52500000e-02	2.24384414e-02	7.33738471e-04
9.55000000e-02	2.26334991e-02	7.35971788e-04
9.57500000e-02	2.27521122e-02	7.37458680e-04
9.60000000e-02	2.25075338e-02	7.22789911e-04
9.62500000e-02	2.30873855e-02	7.48349043e-04
9.65000000e-02	2.21139816e-02	7.16177084e-04
9.67500000e-02	2.29873146e-02	7.37260486e-04
9.70000000e-02	2.30395077e-02	7.37963679e-04
9.72500000e-02	2.24307954e-02	7.19546992e-04
9.75000000e-02	2.29950567e-02	7.36874250e-04
9.77500000e-02	2.29022118e-02	7.24216575e-04
9.80000000e-02	2.26573663e-02	7.25903515e-04
9.82500000e-02	2.22662758e-02	7.12175799e-04
9.85000000e-02	2.26711095e-02	7.17773025e-04
9.87500000e-02	2.29441139e-02	7.24326677e-04
9.90000000e-02	2.26304630e-02	7.18827640e-04
9.92500000e-02	2.18706691e-02	6.98832308e-04
9.95000000e-02	2.24477078e-02	7.08148980e-04
9.97500000e-02	2.21857998e-02	6.99589621e-04
1.00000000e-01	2.25333312e-02	5.78114987e-04
1.00500000e-01	2.21114043e-02	4.91685852e-04
1.01000000e-01	2.22751393e-02	4.93202351e-04
1.01500000e-01	2.23564991e-02	4.93328749e-04
1.02000000e-01	2.23485918e-02	4.90044535e-04
1.02500000e-01	2.26632758e-02	4.95869528e-04
1.03000000e-01	2.21630458e-02	4.87190670e-04
1.03500000e-01	2.20717331e-02	4.81142570e-04
1.04000000e-01	2.19728455e-02	4.77051870e-04
1.04500000e-01	2.17892177e-02	4.73483003e-04
1.05000000e-01	2.22454578e-02	4.77747344e-04
1.05500000e-01	2.20827098e-02	4.76390206e-04
1.06000000e-01	2.19442291e-02	4.72785644e-04
1.06500000e-01	2.20859925e-02	4.71089837e-04
1.07000000e-01	2.17960920e-02	4.73117387e-04
1.07500000e-01	2.14493171e-02	4.75046701e-04
1.08000000e-01	2.15081848e-02	4.78635877e-04
1.08500000e-01	2.13400343e-02	4.77465763e-04
1.09000000e-01	2.16378773e-02	4.89107871e-04
1.09500000e-01	2.12808041e-02	4.80725338e-04
1.10000000e-01	2.14961385e-02	4.80230000e-04
1.10500000e-01	2.18045704e-02	4.80002408e-04
1.11000000e-01	2.16584979e-02	4.69255169e-04
1.11500000e-01	2.12909124e-02	4.57326957e-04
1.12000000e-01	2.20449295e-02	4.68561487e-04
1.12500000e-01	2.16501606e-02	4.56593091e-04
1.13000000e-01	2.19782218e-02	4.63795069e-04
1.13500000e-01	2.13958238e-02	4.50241157e-04
1.14000000e-01	2.18690481e-02	4.57025831e-04
1.14500000e-01	2.22565190e-02	4.62885749e-04
1.15000000e-01	2.16492241e-02	4.47446301e-04
1.15500000e-01	2.14403169e-02	4.43118343e-04
1.16000000e-01	2.17182042e-02	4.47774814e-04
1.16500000e-01	2.17340034e-02	4.49947852e-04
1.17000000e-01	2.15199175e-02	4.44379996e-04
1.17500000e-01	2.19232507e-02	4.49317445e-04
1.18000000e-01	2.17561950e-02	4.46411505e-04
1.18500000e-01	2.15539235e-02	4.38900166e-04
1.19000000e-01	2.10848978e-02	4.30108161e-04
1.19500000e-01	2.14469574e-02	4.36464703e-04
1.20000000e-01	2.19233447e-02	4.41548650e-04
1.20500000e-01	2.09929025e-02	4.24755724e-04
1.21000000e-01	2.14446811e-02	4.33382333e-04
1.21500000e-01	2.12494960e-02	4.28872906e-04
1.22000000e-01	2.13895398e-02	4.29772211e-04
1.22500000e-01	2.20175107e-02	4.38007033e-04
1.23000000e-01	2.14790521e-02	4.29919456e-04
1.23500000e-01	2.15112165e-02	4.27271265e-04
1.24000000e-01	2.13268792e-02	4.25608231e-04
1.24500000e-01	2.17759221e-02	4.30913765e-04
1.25000000e-01	2.17212552e-02	4.30873423e-04
1.25500000e-01	2.18627484e-02	4.31599610e-04
1.26000000e-01	2.15035646e-02	4.23860866e-04
1.26500000e-01	2.18306560e-02	4.28765839e-04
1.27000000e-01	2.14997385e-02	4.21044234e-04
1.27500000e-01	2.16732839e-02	4.23133409e-04
1.28000000e-01	2.13555263e-02	4.17485487e-04
1.28500000e-01	2.14402329e-02	4.18444648e-04
1.29000000e-01	2.14454351e-02	4.19780542e-04
1.29500000e-01	2.14305238e-02	4.15220015e-04
1.30000000e-01	2.13725803e-02	4.16393569e-04
1.30500000e-01	2.15504487e-02	4.16508711e-04
1.31000000e-01	2.14466527e-02	4.14226251e-04
1.31500000e-01	2.18300511e-02	4.20419871e-04
1.32000000e-01	2.17641719e-02	4.18503972e-04
1.32500000e-01	2.18961827e-02	4.18317966e-04
1.33000000e-01	2.15723349e-02	4.11419129e-04
1.33500000e-01	2.19703931e-02	4.16174228e-04
1.34000000e-01	2.13801335e-02	4.07510818e-04
1.34500000e-01	2.14884142e-02	4.06534531e-04
1.35000000e-01	2.15842741e-02	4.07550160e-04
1.35500000e-01	2.13563453e-02	4.03405817e-04
1.36000000e-01	2.11949606e-02	3.98772953e-04
1.36500000e-01	2.13406178e-02	4.04133051e-04
1.37000000e-01	2.12834650e-02	3.98482813e-04
1.37500000e-01	2.13587744e-02	4.02298707e-04
1.38000000e-01	2.14097776e-02	4.01177531e-04
1.38500000e-01	2.10577676e-02	3.97216664e-04
1.39000000e-01	2.12515071e-02	3.98354885e-04
1.39500000e-01	2.10155009e-02	3.92037562e-04
1.40000000e-01	2.09099466e-02	3.91874148e-04
1.40500000e-01	2.10156693e-02	3.92672077e-04
1.41000000e-01	2.07570038e-02	3.87555888e-04
1.41500000e-01	2.09024235e-02	3.91008624e-04
1.42000000e-01	2.08465541e-02	3.86707210e-04
1.42500000e-01	2.07146646e-02	3.84722068e-04
1.43000000e-01	2.10692371e-02	3.89247806e-04
1.43500000e-01	2.08750411e-02	3.86241458e-04
1.44000000e-01	2.08793714e-02	3.86927055e-04
1.44500000e-01	2.06600796e-02	3.80603727e-04
1.45000000e-01	2.07053432e-02	3.82227615e-04
1.45500000e-01	2.07190182e-02	3.79947559e-04
1.46000000e-01	2.09231362e-02	3.83062613e-04
1.46500000e-01	2.07670940e-02	3.81861833e-04
1.47000000e-01	2.07451982e-02	3.79679612e-04
1.47500000e-01	2.07646741e-02	3.79685001e-04
1.48000000e-01	2.05756665e-02	3.74368988e-04
1.48500000e-01	2.06234412e-02	3.76365178e-04
1.49000000e-01	2.07467307e-02	3.77267700e-04
1.49500000e-01	2.04819386e-02	3.72701342e-04
1.50000000e-01	2.06184071e-02	3.74075185e-04
1.50500000e-01	2.06907447e-02	3.75427032e-04
1.51000000e-01	2.04942794e-02	3.69388104e-04
1.51500000e-01	2.03579940e-02	3.65554660e-04
1.52000000e-01	2.07523549e-02	3.71156922e-04
1.52500000e-01	2.04264260e-02	3.66032178e-04
1.53000000e-01	2.04200459e-02	3.68491881e-04
1.53500000e-01	2.01893583e-02	3.61072711e-04
1.54000000e-01	2.05032635e-02	3.66646151e-04
1.54500000e-01	2.03929979e-02	3.71126962e-04
1.55000000e-01	2.05485872e-02	3.78666503e-04
1.55500000e-01	2.03890032e-02	3.76505952e-04
1.56000000e-01	2.02540439e-02	3.76784242e-04
1.56500000e-01	2.03276717e-02	3.77600704e-04
1.57000000e-01	1.99888376e-02	3.73125363e-04
1.57500000e-01	2.05379463e-02	3.76418750e-04
1.58000000e-01	2.04097840e-02	3.68084553e-04
1.58500000e-01	2.01286663e-02	3.62040365e-04
1.59000000e-01	2.01991005e-02	3.62427897e-04
1.59500000e-01	2.03886666e-02	3.62905696e-04
1.60000000e-01	2.02657378e-02	3.61852209e-04
1.60500000e-01	2.01951303e-02	3.58143175e-04
1.61000000e-01	2.00649344e-02	3.55762185e-04
1.61500000e-01	2.00102882e-02	3.52857278e-04
1.62000000e-01	2.02607379e-02	3.56660268e-04
1.62500000e-01	2.00907593e-02	3.54089666e-04
1.63000000e-01	2.00897300e-02	3.52095401e-04
1.63500000e-01	2.01147605e-02	3.53323465e-04
1.64000000e-01	1.99623041e-02	3.48346566e-04
1.64500000e-01	2.02169408e-02	3.53861195e-04
1.65000000e-01	2.02950043e-02	3.53697222e-04
1.65500000e-01	2.03074323e-02	3.52698034e-04
1.66000000e-01	2.00636398e-02	3.50901512e-04
1.66500000e-01	1.99987296e-02	3.46427560e-04
1.67000000e-01	1.99173369e-02	3.45871347e-04
1.67500000e-01	1.99715216e-02	3.46193916e-04
1.68000000e-01	1.99947759e-02	3.46640492e-04
1.68500000e-01	2.01617957e-02	3.47867347e-04
1.69000000e-01	2.01212293e-02	3.47140102e-04
1.69500000e-01	1.97678288e-02	3.40691560e-04
1.70000000e-01	1.95957758e-02	3.37324791e-04
1.70500000e-01	1.97701705e-02	3.39887695e-04
1.71000000e-01	1.97572236e-02	3.39322549e-04
1.71500000e-01	2.00660988e-02	3.43231185e-04
1.72000000e-01	1.99215058e-02	3.38650154e-04
1.72500000e-01	1.98888821e-02	3.38389601e-04
1.73000000e-01	1.98401147e-02	3.38035780e-04
1.73500000e-01	1.96305948e-02	3.32677817e-04
1.74000000e-01	1.98681361e-02	3.36372929e-04
1.74500000e-01	1.99936798e-02	3.36842791e-04
1.75000000e-01	2.00669330e-02	3.36449422e-04
1.75500000e-01	1.98766909e-02	3.33877183e-04
1.76000000e-01	1.96492033e-02	3.30480815e-04
1.76500000e-01	1.97933617e-02	3.33123797e-04
1.77000000e-01	1.95627916e-02	3.28540864e-04
1.77500000e-01	1.96453211e-02	3.29008638e-04
1.78000000e-01	1.94277609e-02	3.26918973e-04
1.78500000e-01	1.94372270e-02	3.26057024e-04
1.79000000e-01	1.98110759e-02	3.31334853e-04
1.79500000e-01	1.98332144e-02	3.31454457e-04
1.80000000e-01	1.97309497e-02	3.30757090e-04
1.80500000e-01	1.95149419e-02	3.25990484e-04
1.81000000e-01	1.96055071e-02	3.27461123e-04
1.81500000e-01	1.96605112e-02	3.27338582e-04
1.82000000e-01	1.96827311e-02	3.26546729e-04
1.82500000e-01	1.90065399e-02	3.15452285e-04
1.83000000e-01	1.98230386e-02	3.28159369e-04
1.83500000e-01	1.95670935e-02	3.25112403e-04
1.84000000e-01	1.97294048e-02	3.24841285e-04
1.84500000e-01	1.95887457e-02	3.23259541e-04
1.85000000e-01	1.95583650e-02	3.23279854e-04
1.85500000e-01	1.94970188e-02	3.19617076e-04
1.86000000e-01	1.94493828e-02	3.19425177e-04
1.86500000e-01	1.95072838e-02	3.19669188e-04
1.87000000e-01	1.93301550e-02	3.18110887e-04
1.87500000e-01	1.92901578e-02	3.15623080e-04
1.88000000e-01	1.96125344e-02	3.20266222e-04
1.88500000e-01	1.92924084e-02	3.14736171e-04
1.89000000e-01	1.95380962e-02	3.19055530e-04
1.89500000e-01	1.93382857e-02	3.15354138e-04
1.90000000e-01	1.96393292e-02	3.18863820e-04
1.90500000e-01	1.93816765e-02	3.14921304e-04
1.91000000e-01	1.93971512e-02	3.14788742e-04
1.91500000e-01	1.95548200e-02	3.17862739e-04
1.92000000e-01	1.95270307e-02	3.15988509e-04
1.92500000e-01	1.93822269e-02	3.13287412e-04
1.93000000e-01	1.95286477e-02	3.14409750e-04
1.93500000e-01	1.95049741e-02	3.15236414e-04
1.94000000e-01	1.92572783e-02	3.10702961e-04
1.94500000e-01	1.93996153e-02	3.12333000e-04
1.95000000e-01	1.95017382e-02	3.14125249e-04
1.95500000e-01	1.92646051e-02	3.08610452e-04
1.96000000e-01	1.91179596e-02	3.06752937e-04
1.96500000e-01	1.93802290e-02	3.10642763e-04
1.97000000e-01	1.92088290e-02	3.07903583e-04
1.97500000e-01	1.93969869e-02	3.08946047e-04
1.98000000e-01	1.92742467e-02	3.07122147e-04
1.98500000e-01	1.92815949e-02	3.07393301e-04
1.99000000e-01	1.91371239e-02	3.05974442e-04
1.99500000e-01	1.92066568e-02	3.05222682e-04
2.00000000e-01	1.92648041e-02	3.04612729e-04
2.00500000e-01	1.92203453e-02	3.04312769e-04
2.01000000e-01	1.92185904e-02	3.03889883e-04
2.01500000e-01	1.91383336e-02	3.02580818e-04
2.02000000e-01	1.90116830e-02	3.00042225e-04
2.02500000e-01	1.91466839e-02	3.01365272e-04
2.03000000e-01	1.90348571e-02	3.00381742e-04
2.03500000e-01	1.89716653e-02	2.98386190e-04
2.04000000e-01	1.90493166e-02	2.99401818e-04
2.04500000e-01	1.90616078e-02	3.00566475e-04
2.05000000e-01	1.93754004e-02	3.03385615e-04
2.05500000e-01	1.91549641e-02	3.00251961e-04
2.06000000e-01	1.90333981e-02	2.97454347e-04
2.06500000e-01	1.89198575e-02	2.95254154e-04
2.07000000e-01	1.89991365e-02	2.96931673e-04
2.07500000e-01	1.91706424e-02	2.99244762e-04
2.08000000e-01	1.87877113e-02	2.93052904e-04
2.08500000e-01	1.89032280e-02	2.94584235e-04
2.09000000e-01	1.89514310e-02	2.95193044e-04
2.09500000e-01	1.88834663e-02	2.94089312e-04
2.10000000e-01	1.89274814e-02	2.93493167e-04
2.10500000e-01	1.92020851e-02	2.98743348e-04
2.11000000e-01	1.91053630e-02	2.96129066e-04
2.11500000e-01	1.89361928e-02	2.94248029e-04
2.12000000e-01	1.91376499e-02	2.95805959e-04
2.12500000e-01	1.88095040e-02	2.90692236e-04
2.13000000e-01	1.90885257e-02	2.94902942e-04
2.13500000e-01	1.91727257e-02	2.95204969e-04
2.14000000e-01	1.87577742e-02	2.89089902e-04
2.14500000e-01	1.90554644e-02	2.92033912e-04
2.15000000e-01	1.89451352e-02	2.90832667e-04
2.15500000e-01	1.88620365e-02	2.88061152e-04
2.16000000e-01	1.87753533e-02	2.88082005e-04
2.16500000e-01	1.87987277e-02	2.87056751e-04
2.17000000e-01	1.87320413e-02	2.90473190e-04
2.17500000e-01	1.86606444e-02	2.93945524e-04
2.18000000e-01	1.88661640e-02	2.97296100e-04
2.18500000e-01	1.87484502e-02	2.98611035e-04
2.19000000e-01	1.88418767e-02	3.00496633e-04
2.19500000e-01	1.87164178e-02	3.00934965e-04
2.20000000e-01	1.86934799e-02	3.01977401e-04
2.20500000e-01	1.86091954e-02	3.01268042e-04
2.21000000e-01	1.87353220e-02	3.02370281e-04
2.21500000e-01	1.87459634e-02	3.04480946e-04
2.22000000e-01	1.87154800e-02	3.03835466e-04
2.22500000e-01	1.88887531e-02	3.05943198e-04
2.23000000e-01	1.86459907e-02	3.03815732e-04
2.23500000e-01	1.87795261e-02	3.06563694e-04
2.24000000e-01	1.84699431e-02	3.03001802e-04
2.24500000e-01	1.85966079e-02	3.07789071e-04
2.25000000e-01	1.85330263e-02	3.05639304e-04
2.25500000e-01	1.87218716e-02	3.08888587e-04
2.26000000e-01	1.88681217e-02	3.12518286e-04
2.26500000e-01	1.86539868e-02	3.04009161e-04
2.27000000e-01	1.88474332e-02	3.03236651e-04
2.27500000e-01	1.89608042e-02	3.01922831e-04
2.28000000e-01	1.86924369e-02	2.97992770e-04
2.28500000e-01	1.85534342e-02	2.94795007e-04
2.29000000e-01	1.85871437e-02	2.93447721e-04
2.29500000e-01	1.85028186e-02	2.91614481e-04
2.30000000e-01	1.87497428e-02	2.93459886e-04
2.30500000e-01	1.83913838e-02	2.87260136e-04
2.31000000e-01	1.84755220e-02	2.88429168e-04
2.31500000e-01	1.85620662e-02	2.88395505e-04
2.32000000e-01	1.83554862e-02	2.83559062e-04
2.32500000e-01	1.85214751e-02	2.86101972e-04
2.33000000e-01	1.86926926e-02	2.88635351e-04
2.33500000e-01	1.85158015e-02	2.86213200e-04
2.34000000e-01	1.86799061e-02	2.86327110e-04
2.34500000e-01	1.85174942e-02	2.83422333e-04
2.35000000e-01	1.86160658e-02	2.84771483e-04
2.35500000e-01	1.84127455e-02	2.82243669e-04
2.36000000e-01	1.85247262e-02	2.82054335e-04
2.36500000e-01	1.86198293e-02	2.83954226e-04
2.37000000e-01	1.86542354e-02	2.82629720e-04
2.37500000e-01	1.86008347e-02	2.81959890e-04
2.38000000e-01	1.85608957e-02	2.80500647e-04
2.38500000e-01	1.83716176e-02	2.79042618e-04
2.39000000e-01	1.85413298e-02	2.79848334e-04
2.39500000e-01	1.81498712e-02	2.73989110e-04
2.40000000e-01	1.84472128e-02	2.76770705e-04
2.40500000e-01	1.83819705e-02	2.75009260e-04
2.41000000e-01	1.83326068e-02	2.75879544e-04
2.41500000e-01	1.83914051e-02	2.74724000e-04
2.42000000e-01	1.84637006e-02	2.75959293e-04
2.42500000e-01	1.81911102e-02	2.72409913e-04
2.43000000e-01	1.82319587e-02	2.71574171e-04
2.43500000e-01	1.83556645e-02	2.73001636e-04
2.44000000e-01	1.81965887e-02	2.71821988e-04
2.44500000e-01	1.83238564e-02	2.72347466e-04
2.45000000e-01	1.84155787e-02	2.71939640e-04
2.45500000e-01	1.82710187e-02	2.71069326e-04
2.46000000e-01	1.82875053e-02	2.71000256e-04
2.46500000e-01	1.82407782e-02	2.69552549e-04
2.47000000e-01	1.83699006e-02	2.72113758e-04
2.47500000e-01	1.81953466e-02	2.67160237e-04
2.48000000e-01	1.81889356e-02	2.68602973e-04
2.48500000e-01	1.80913512e-02	2.65446836e-04
2.49000000e-01	1.81699770e-02	2.66499480e-04
2.49500000e-01	1.82181906e-02	2.68281309e-04
2.50000000e-01	1.81381115e-02	2.66527644e-04
2.50500000e-01	1.82796545e-02	2.69456614e-04
2.51000000e-01	1.82716761e-02	2.67214787e-04
2.51500000e-01	1.81184217e-02	2.65482507e-04
2.52000000e-01	1.81972300e-02	2.65438600e-04
2.52500000e-01	1.81479743e-02	2.64649608e-04
2.53000000e-01	1.81977632e-02	2.65536276e-04
2.53500000e-01	1.82570895e-02	2.66171958e-04
2.54000000e-01	1.82576075e-02	2.66123947e-04
2.54500000e-01	1.82211142e-02	2.65069296e-04
2.55000000e-01	1.82418768e-02	2.63390605e-04
2.55500000e-01	1.81701322e-02	2.63446081e-04
2.56000000e-01	1.82287735e-02	2.63711605e-04
2.56500000e-01	1.79471587e-02	2.58841362e-04
2.57000000e-01	1.79713391e-02	2.59117636e-04
2.57500000e-01	1.80257941e-02	2.60074562e-04
2.58000000e-01	1.79793809e-02	2.59812811e-04
2.58500000e-01	1.81905256e-02	2.61798436e-04
2.59000000e-01	1.79668052e-02	2.58607020e-04
2.59500000e-01	1.79633761e-02	2.58360309e-04
2.60000000e-01	1.80580460e-02	2.58705767e-04
2.60500000e-01	1.80750101e-02	2.59444425e-04
2.61000000e-01	1.80480840e-02	2.58082286e-04
2.61500000e-01	1.79874607e-02	2.58818741e-04
2.62000000e-01	1.79756817e-02	2.56890732e-04
2.62500000e-01	1.80452969e-02	2.58250292e-04
2.63000000e-01	1.80048447e-02	2.56742633e-04
2.63500000e-01	1.81613283e-02	2.58594135e-04
2.64000000e-01	1.78493243e-02	2.55126250e-04
2.64500000e-01	1.77635185e-02	2.53389179e-04
2.65000000e-01	1.80211879e-02	2.55635125e-04
2.65500000e-01	1.78092419e-02	2.52763224e-04
2.66000000e-01	1.80440145e-02	2.56220624e-04
2.66500000e-01	1.77721111e-02	2.51669092e-04
2.67000000e-01	1.78843986e-02	2.52543330e-04
2.67500000e-01	1.81070110e-02	2.54570682e-04
2.68000000e-01	1.79965106e-02	2.54199632e-04
2.68500000e-01	1.78538352e-02	2.52916647e-04
2.69000000e-01	1.78630428e-02	2.51562027e-04
2.69500000e-01	1.80145198e-02	2.52138469e-04
2.70000000e-01	1.76378008e-02	2.47465280e-04
2.70500000e-01	1.78187205e-02	2.49467121e-04
2.71000000e-01	1.78451680e-02	2.48930405e-04
2.71500000e-01	1.79776942e-02	2.51633710e-04
2.72000000e-01	1.77250909e-02	2.47601860e-04
2.72500000e-01	1.78869972e-02	2.49385987e-04
2.73000000e-01	1.78225488e-02	2.49409436e-04
2.73500000e-01	1.76655962e-02	2.47002668e-04
2.74000000e-01	1.78658502e-02	2.48199691e-04
2.74500000e-01	1.76425473e-02	2.44922804e-04
2.75000000e-01	1.79242683e-02	2.48668475e-04
2.75500000e-01	1.77597090e-02	2.47213433e-04
2.76000000e-01	1.77042921e-02	2.45406784e-04
2.76500000e-01	1.77814935e-02	2.48561966e-04
2.77000000e-01	1.77290930e-02	2.45660980e-04
2.77500000e-01	1.79817130e-02	2.49596793e-04
2.78000000e-01	1.76497740e-02	2.44682868e-04
2.78500000e-01	1.75897824e-02	2.44283460e-04
2.79000000e-01	1.78555751e-02	2.46186304e-04
2.79500000e-01	1.77833408e-02	2.44495173e-04
2.80000000e-01	1.78442632e-02	2.46568375e-04
2.80500000e-01	1.78461912e-02	2.45563376e-04
2.81000000e-01	1.78554385e-02	2.46265685e-04
2.81500000e-01	1.78423374e-02	2.45415875e-04
2.82000000e-01	1.79063168e-02	2.45650392e-04
2.82500000e-01	1.76541888e-02	2.44355069e-04
2.83000000e-01	1.77819003e-02	2.43948448e-04
2.83500000e-01	1.75658189e-02	2.40635551e-04
2.84000000e-01	1.77613487e-02	2.43729550e-04
2.84500000e-01	1.75465324e-02	2.40553098e-04
2.85000000e-01	1.74224089e-02	2.39132211e-04
2.85500000e-01	1.79903955e-02	2.44722799e-04
2.86000000e-01	1.75200506e-02	2.40569583e-04
2.86500000e-01	1.75026778e-02	2.38273284e-04
2.87000000e-01	1.73064748e-02	2.35830592e-04
2.87500000e-01	1.75339381e-02	2.37784887e-04
2.88000000e-01	1.75903666e-02	2.37687698e-04
2.88500000e-01	1.77913408e-02	2.40929165e-04
2.89000000e-01	1.74940978e-02	2.37919987e-04
2.89500000e-01	1.74435523e-02	2.37283031e-04
2.90000000e-01	1.75433593e-02	2.37856694e-04
2.90500000e-01	1.74700472e-02	2.37196641e-04
2.91000000e-01	1.74075548e-02	2.35107392e-04
2.91500000e-01	1.74616379e-02	2.35446806e-04
2.92000000e-01	1.74006109e-02	2.35826660e-04
2.92500000e-01	1.72666863e-02	2.32428321e-04
2.93000000e-01	1.73625894e-02	2.33815425e-04
2.93500000e-01	1.75504976e-02	2.35645788e-04
2.94000000e-01	1.72799719e-02	2.31745256e-04
2.94500000e-01	1.74861223e-02	2.35851099e-04
2.95000000e-01	1.73466280e-02	2.32931156e-04
2.95500000e-01	1.75360055e-02	2.35758407e-04
2.96000000e-01	1.75077759e-02	2.33708287e-04
2.96500000e-01	1.73501568e-02	2.33009903e-04
2.97000000e-01	1.74571119e-02	2.33437505e-04
2.97500000e-01	1.74816951e-02	2.33167524e-04
2.98000000e-01	1.74604680e-02	2.33579911e-04
2.98500000e-01	1.74544884e-02	2.32671877e-04
2.99000000e-01	1.74257208e-02	2.32128237e-04
2.99500000e-01	1.73378963e-02	2.31853546e-04
3.00000000e-01	1.73235373e-02	2.30841070e-04
3.00500000e-01	1.73998352e-02	2.32285085e-04
3.01000000e-01	1.72815883e-02	2.29486817e-04
3.01500000e-01	1.73691178e-02	2.31726514e-04
3.02000000e-01	1.74741722e-02	2.31179084e-04
3.02500000e-01	1.72848024e-02	2.28763913e-04
3.03000000e-01	1.73609515e-02	2.30427867e-04
3.03500000e-01	1.74279692e-02	2.30502335e-04
3.04000000e-01	1.73505934e-02	2.31083603e-04
3.04500000e-01	1.74394263e-02	2.30552024e-04
3.05000000e-01	1.75957581e-02	2.32747071e-04
3.05500000e-01	1.70792874e-02	2.26201246e-04
3.06000000e-01	1.74166580e-02	2.27462936e-04
3.06500000e-01	1.72086352e-02	2.26319660e-04
3.07000000e-01	1.72026529e-02	2.26291055e-04
3.07500000e-01	1.72588869e-02	2.26465651e-04
3.08000000e-01	1.72211724e-02	2.26620949e-04
3.08500000e-01	1.72702178e-02	2.26479037e-04
3.09000000e-01	1.72060014e-02	2.25863864e-04
3.09500000e-01	1.72386808e-02	2.25135119e-04
3.10000000e-01	1.71160798e-02	2.25022640e-04
3.10500000e-01	1.71819923e-02	2.25028719e-04
3.11000000e-01	1.69256941e-02	2.21868858e-04
3.11500000e-01	1.72385951e-02	2.25401296e-04
3.12000000e-01	1.71780261e-02	2.24046998e-04
3.12500000e-01	1.70606401e-02	2.21770771e-04
3.13000000e-01	1.73779884e-02	2.26299434e-04
3.13500000e-01	1.73368203e-02	2.25797844e-04
3.14000000e-01	1.71669061e-02	2.23200379e-04
3.14500000e-01	1.71635047e-02	2.23096318e-04
3.15000000e-01	1.69952268e-02	2.20989379e-04
3.15500000e-01	1.71908519e-02	2.22882400e-04
3.16000000e-01	1.71401718e-02	2.22431336e-04
3.16500000e-01	1.70537311e-02	2.21010622e-04
3.17000000e-01	1.70308055e-02	2.20455640e-04
3.17500000e-01	1.71633338e-02	2.22381230e-04
3.18000000e-01	1.68998433e-02	2.18969606e-04
3.18500000e-01	1.69103520e-02	2.18616877e-04
3.19000000e-01	1.71983354e-02	2.21586410e-04
3.19500000e-01	1.69947795e-02	2.20024501e-04
3.20000000e-01	1.68255562e-02	2.18374530e-04
3.20500000e-01	1.70241005e-02	2.18744278e-04
3.21000000e-01	1.69098092e-02	2.17872603e-04
3.21500000e-01	1.69056161e-02	2.17590096e-04
3.22000000e-01	1.70429250e-02	2.20401350e-04
3.22500000e-01	1.69828272e-02	2.17415079e-04
3.23000000e-01	1.70620627e-02	2.18702405e-04
3.23500000e-01	1.68609087e-02	2.16184494e-04
3.24000000e-01	1.69992965e-02	2.17485548e-04
3.24500000e-01	1.70379827e-02	2.18933798e-04
3.25000000e-01	1.68966343e-02	2.16005028e-04
3.25500000e-01	1.67191262e-02	2.14673249e-04
3.26000000e-01	1.68167729e-02	2.15331159e-04
3.26500000e-01	1.68930558e-02	2.15382480e-04
3.27000000e-01	1.69213422e-02	2.15912861e-04
3.27500000e-01	1.68663019e-02	2.15496507e-04
3.28000000e-01	1.68549999e-02	2.15207032e-04
3.28500000e-01	1.68588832e-02	2.14661461e-04
3.29000000e-01	1.69528810e-02	2.15164990e-04
3.29500000e-01	1.66764263e-02	2.13568931e-04
3.30000000e-01	1.67197109e-02	2.13097734e-04
3.30500000e-01	1.69321865e-02	2.15545612e-04
3.31000000e-01	1.69798462e-02	2.15399225e-04
3.31500000e-01	1.68491315e-02	2.14055601e-04
3.32000000e-01	1.68375685e-02	2.14023365e-04
3.32500000e-01	1.67711472e-02	2.12299313e-04
3.33000000e-01	1.67034166e-02	2.12432838e-04
3.33500000e-01	1.67082847e-02	2.11212339e-04
3.34000000e-01	1.66725243e-02	2.11462634e-04
3.34500000e-01	1.66482727e-02	2.11043290e-04
3.35000000e-01	1.68795547e-02	2.12635835e-04
3.35500000e-01	1.66890220e-02	2.10108702e-04
3.36000000e-01	1.65619169e-02	2.09044264e-04
3.36500000e-01	1.65867811e-02	2.09579131e-04
3.37000000e-01	1.66507354e-02	2.09415690e-04
3.37500000e-01	1.68840259e-02	2.11508651e-04
3.38000000e-01	1.65826517e-02	2.08577511e-04
3.38500000e-01	1.66144594e-02	2.09382418e-04
3.39000000e-01	1.66167760e-02	2.08732296e-04
3.39500000e-01	1.64896348e-02	2.07322868e-04
3.40000000e-01	1.65903670e-02	2.07960753e-04
3.40500000e-01	1.66138442e-02	2.08512403e-04
3.41000000e-01	1.66357249e-02	2.07917406e-04
3.41500000e-01	1.67484467e-02	2.10417195e-04
3.42000000e-01	1.66185222e-02	2.07227014e-04
3.42500000e-01	1.66123627e-02	2.06940441e-04
3.43000000e-01	1.66757154e-02	2.08126991e-04
3.43500000e-01	1.66527286e-02	2.07588102e-04
3.44000000e-01	1.66713631e-02	2.07851860e-04
3.44500000e-01	1.66180946e-02	2.06539628e-04
3.45000000e-01	1.66591218e-02	2.07852813e-04
3.45500000e-01	1.66401621e-02	2.07066770e-04
3.46000000e-01	1.64876318e-02	2.05468512e-04
3.46500000e-01	1.64913290e-02	2.04757096e-04
3.47000000e-01	1.64486354e-02	2.03603939e-04
3.47500000e-01	1.66334538e-02	2.06235551e-04
3.48000000e-01	1.67252048e-02	2.07268893e-04
3.48500000e-01	1.64747167e-02	2.04606031e-04
3.49000000e-01	1.65338781e-02	2.03873997e-04
3.49500000e-01	1.64524469e-02	2.03703143e-04
3.50000000e-01	1.63925558e-02	1.65511525e-04
3.51000000e-01	1.64921752e-02	1.44140307e-04
3.52000000e-01	1.64399484e-02	1.43362341e-04
3.53000000e-01	1.64995206e-02	1.43552553e-04
3.54000000e-01	1.63763931e-02	1.42211496e-04
3.55000000e-01	1.63167940e-02	1.41686509e-04
3.56000000e-01	1.63910618e-02	1.42821152e-04
3.57000000e-01	1.62620688e-02	1.44438364e-04
3.58000000e-01	1.64403685e-02	1.46843289e-04
3.59000000e-01	1.63540376e-02	1.47478002e-04
3.60000000e-01	1.63199578e-02	1.48094016e-04
3.61000000e-01	1.61606345e-02	1.47312174e-04
3.62000000e-01	1.62006023e-02	1.47984870e-04
3.63000000e-01	1.63069541e-02	1.49593989e-04
3.64000000e-01	1.61722894e-02	1.49412765e-04
3.65000000e-01	1.61031848e-02	1.49408742e-04
3.66000000e-01	1.60586759e-02	1.47190088e-04
3.67000000e-01	1.63143485e-02	1.47391461e-04
3.68000000e-01	1.61600697e-02	1.45043063e-04
3.69000000e-01	1.63471966e-02	1.45715089e-04
3.70000000e-01	1.60411023e-02	1.41964664e-04
3.71000000e-01	1.60181357e-02	1.44276687e-04
3.72000000e-01	1.61117150e-02	1.45753610e-04
3.73000000e-01	1.60292066e-02	1.45339342e-04
3.74000000e-01	1.60415538e-02	1.45286830e-04
3.75000000e-01	1.61699575e-02	1.46520218e-04
3.76000000e-01	1.61845281e-02	1.46389989e-04
3.77000000e-01	1.60278050e-02	1.45568102e-04
3.78000000e-01	1.59395642e-02	1.44782074e-04
3.79000000e-01	1.60440743e-02	1.45481103e-04
3.80000000e-01	1.58598634e-02	1.43814828e-04
3.81000000e-01	1.59561400e-02	1.44825734e-04
3.82000000e-01	1.60423281e-02	1.45465822e-04
3.83000000e-01	1.58839161e-02	1.43997260e-04
3.84000000e-01	1.59719302e-02	1.44208587e-04
3.85000000e-01	1.59459584e-02	1.44153141e-04
3.86000000e-01	1.59126768e-02	1.44170797e-04
3.87000000e-01	1.59604316e-02	1.44611003e-04
3.88000000e-01	1.60803480e-02	1.45253083e-04
3.89000000e-01	1.58223495e-02	1.43195275e-04
3.90000000e-01	1.59379218e-02	1.43868529e-04
3.91000000e-01	1.59585437e-02	1.44344209e-04
3.92000000e-01	1.59828929e-02	1.44380945e-04
3.93000000e-01	1.58524590e-02	1.43189622e-04
3.94000000e-01	1.57263526e-02	1.42439026e-04
3.95000000e-01	1.57284199e-02	1.41905916e-04
3.96000000e-01	1.57016686e-02	1.41851568e-04
3.97000000e-01	1.58071891e-02	1.42586167e-04
3.98000000e-01	1.57880838e-02	1.42930644e-04
3.99000000e-01	1.57830242e-02	1.42659726e-04
4.00000000e-01	1.56393836e-02	1.41631998e-04
4.01000000e-01	1.58695982e-02	1.43056341e-04
4.02000000e-01	1.57964451e-02	1.42748004e-04
4.03000000e-01	1.57124182e-02	1.41862255e-04
4.04000000e-01	1.58401006e-02	1.42724643e-04
4.05000000e-01	1.56094120e-02	1.40653161e-04
4.06000000e-01	1.56031534e-02	1.41001730e-04
4.07000000e-01	1.56367763e-02	1.41308633e-04
4.08000000e-01	1.57094582e-02	1.41483507e-04
4.09000000e-01	1.55371103e-02	1.40289901e-04
4.10000000e-01	1.55308172e-02	1.40015669e-04
4.11000000e-01	1.55058314e-02	1.39969479e-04
4.12000000e-01	1.55436622e-02	1.39927708e-04
4.13000000e-01	1.55558967e-02	1.40139300e-04
4.14000000e-01	1.54932998e-02	1.39299985e-04
4.15000000e-01	1.55085128e-02	1.39258072e-04
4.16000000e-01	1.54192092e-02	1.38570780e-04
4.17000000e-01	1.54852972e-02	1.39165685e-04
4.18000000e-01	1.56298732e-02	1.42027204e-04
4.19000000e-01	1.56060744e-02	1.43450232e-04
4.20000000e-01	1.55778531e-02	1.43897181e-04
4.21000000e-01	1.55696699e-02	1.44539374e-04
4.22000000e-01	1.56172688e-02	1.45206516e-04
4.23000000e-01	1.54820569e-02	1.44907975e-04
4.24000000e-01	1.54859712e-02	1.44951645e-04
4.25000000e-01	1.56013305e-02	1.46200256e-04
4.26000000e-01	1.54606659e-02	1.44825019e-04
4.27000000e-01	1.55212212e-02	1.45961875e-04
4.28000000e-01	1.55207898e-02	1.45876002e-04
4.29000000e-01	1.54701700e-02	1.46025371e-04
4.30000000e-01	1.56276052e-02	1.46880787e-04
4.31000000e-01	1.56179628e-02	1.46435409e-04
4.32000000e-01	1.54741009e-02	1.45780385e-04
4.33000000e-01	1.54930772e-02	1.46111042e-04
4.34000000e-01	1.54707718e-02	1.45672043e-04
4.35000000e-01	1.54197577e-02	1.45657591e-04
4.36000000e-01	1.53294177e-02	1.45136499e-04
4.37000000e-01	1.54265477e-02	1.45866061e-04
4.38000000e-01	1.54745350e-02	1.46452294e-04
4.39000000e-01	1.54190483e-02	1.46770610e-04
4.40000000e-01	1.53218474e-02	1.45548396e-04
4.41000000e-01	1.54927416e-02	1.47509552e-04
4.42000000e-01	1.51972863e-02	1.44789574e-04
4.43000000e-01	1.53623089e-02	1.46742381e-04
4.44000000e-01	1.53387748e-02	1.46665318e-04
4.45000000e-01	1.53641548e-02	1.47213688e-04
4.46000000e-01	1.52659256e-02	1.45925973e-04
4.47000000e-01	1.53716018e-02	1.47268334e-04
4.48000000e-01	1.53159866e-02	1.46676921e-04
4.49000000e-01	1.52958718e-02	1.47097014e-04
4.50000000e-01	1.52430642e-02	1.46740810e-04
4.51000000e-01	1.52840675e-02	1.46943044e-04
4.52000000e-01	1.53512956e-02	1.47880594e-04
4.53000000e-01	1.52922242e-02	1.47214125e-04
4.54000000e-01	1.51387512e-02	1.46259672e-04
4.55000000e-01	1.52392212e-02	1.47264153e-04
4.56000000e-01	1.53100900e-02	1.47774274e-04
4.57000000e-01	1.52599208e-02	1.47553858e-04
4.58000000e-01	1.51853142e-02	1.46938598e-04
4.59000000e-01	1.52817720e-02	1.47828727e-04
4.60000000e-01	1.53004078e-02	1.48090930e-04
4.61000000e-01	1.52147480e-02	1.47457731e-04
4.62000000e-01	1.51475222e-02	1.46986799e-04
4.63000000e-01	1.52273142e-02	1.48215003e-04
4.64000000e-01	1.52551981e-02	1.48137077e-04
4.65000000e-01	1.51646439e-02	1.47910321e-04
4.66000000e-01	1.51622330e-02	1.47978003e-04
4.67000000e-01	1.51550979e-02	1.47729101e-04
4.68000000e-01	1.51114762e-02	1.47705975e-04
4.69000000e-01	1.52588464e-02	1.48538212e-04
4.70000000e-01	1.50429527e-02	1.47186009e-04
4.71000000e-01	1.50737178e-02	1.47459439e-04
4.72000000e-01	1.48689284e-02	1.45648637e-04
4.73000000e-01	1.51095260e-02	1.47547746e-04
4.74000000e-01	1.50026422e-02	1.46488925e-04
4.75000000e-01	1.50961057e-02	1.47122734e-04
4.76000000e-01	1.50879814e-02	1.46852557e-04
4.77000000e-01	1.51001826e-02	1.47394222e-04
4.78000000e-01	1.49869249e-02	1.46166797e-04
4.79000000e-01	1.50399696e-02	1.47272637e-04
4.80000000e-01	1.50304612e-02	1.47140671e-04
4.81000000e-01	1.49189737e-02	1.45797682e-04
4.82000000e-01	1.49760935e-02	1.46671321e-04
4.83000000e-01	1.50281690e-02	1.47092369e-04
4.84000000e-01	1.50171178e-02	1.47715150e-04
4.85000000e-01	1.50214472e-02	1.47328533e-04
4.86000000e-01	1.49271946e-02	1.46478794e-04
4.87000000e-01	1.49467873e-02	1.46499900e-04
4.88000000e-01	1.49459072e-02	1.46875069e-04
4.89000000e-01	1.49589934e-02	1.47147316e-04
4.90000000e-01	1.49020617e-02	1.46887769e-04
4.91000000e-01	1.49811551e-02	1.47291276e-04
4.92000000e-01	1.49787861e-02	1.47352195e-04
4.93000000e-01	1.48070007e-02	1.45896802e-04
4.94000000e-01	1.48656319e-02	1.47000778e-04
4.95000000e-01	1.49561545e-02	1.48372420e-04
4.96000000e-01	1.49821860e-02	1.53579062e-04
4.97000000e-01	1.49222153e-02	1.55294924e-04
4.98000000e-01	1.47278764e-02	1.55364856e-04
4.99000000e-01	1.48744887e-02	1.58923276e-04
5.00000000e-01	1.47919986e-02	1.59990385e-04
5.01000000e-01	1.48967588e-02	1.62332517e-04
5.02000000e-01	1.47904482e-02	1.63286378e-04
5.03000000e-01	1.48845514e-02	1.65677375e-04
5.04000000e-01	1.47113857e-02	1.65062529e-04
5.05000000e-01	1.49386996e-02	1.64422780e-04
5.06000000e-01	1.49413951e-02	1.60652264e-04
5.07000000e-01	1.47642904e-02	1.57706364e-04
5.08000000e-01	1.48135247e-02	1.57157066e-04
5.09000000e-01	1.48188917e-02	1.56511675e-04
5.10000000e-01	1.48903089e-02	1.56851594e-04
5.11000000e-01	1.49436923e-02	1.56660715e-04
5.12000000e-01	1.48840793e-02	1.56031879e-04
5.13000000e-01	1.47961647e-02	1.55002210e-04
5.14000000e-01	1.47680928e-02	1.54579474e-04
5.15000000e-01	1.48188216e-02	1.54009281e-04
5.16000000e-01	1.47963313e-02	1.54069943e-04
5.17000000e-01	1.48647080e-02	1.54562581e-04
5.18000000e-01	1.47238841e-02	1.52728493e-04
5.19000000e-01	1.45699713e-02	1.50219831e-04
5.20000000e-01	1.47630574e-02	1.52309875e-04
5.21000000e-01	1.47549341e-02	1.52120792e-04
5.22000000e-01	1.46910048e-02	1.50868686e-04
5.23000000e-01	1.46622001e-02	1.50931977e-04
5.24000000e-01	1.47887624e-02	1.52095701e-04
5.25000000e-01	1.46820673e-02	1.50779533e-04
5.26000000e-01	1.44981929e-02	1.49062657e-04
5.27000000e-01	1.46268931e-02	1.50465283e-04
5.28000000e-01	1.45626879e-02	1.50074132e-04
5.29000000e-01	1.46225368e-02	1.50417803e-04
5.30000000e-01	1.45456661e-02	1.49924408e-04
5.31000000e-01	1.46924202e-02	1.51087153e-04
5.32000000e-01	1.45757461e-02	1.49787605e-04
5.33000000e-01	1.46849154e-02	1.50670420e-04
5.34000000e-01	1.46020422e-02	1.50255581e-04
5.35000000e-01	1.44679395e-02	1.48724576e-04
5.36000000e-01	1.46869965e-02	1.50897445e-04
5.37000000e-01	1.45962107e-02	1.49932593e-04
5.38000000e-01	1.45555307e-02	1.49621949e-04
5.39000000e-01	1.44423855e-02	1.48462744e-04
5.40000000e-01	1.45197175e-02	1.48828741e-04
5.41000000e-01	1.46789205e-02	1.50626150e-04
5.42000000e-01	1.46449336e-02	1.50820896e-04
5.43000000e-01	1.44578827e-02	1.48486505e-04
5.44000000e-01	1.45123536e-02	1.48849168e-04
5.45000000e-01	1.43430687e-02	1.47241919e-04
5.46000000e-01	1.44878494e-02	1.48900245e-04
5.47000000e-01	1.44031767e-02	1.48882384e-04
5.48000000e-01	1.44178952e-02	1.48083500e-04
5.49000000e-01	1.44369876e-02	1.48493149e-04
5.50000000e-01	1.45072195e-02	1.49084127e-04
5.51000000e-01	1.44884343e-02	1.48485297e-04
5.52000000e-01	1.43508237e-02	1.47022457e-04
5.53000000e-01	1.43994623e-02	1.47373587e-04
5.54000000e-01	1.43786053e-02	1.46783261e-04
5.55000000e-01	1.42729784e-02	1.46129589e-04
5.56000000e-01	1.43489694e-02	1.46769028e-04
5.57000000e-01	1.43366082e-02	1.46512667e-04
5.58000000e-01	1.42565811e-02	1.46064908e-04
5.59000000e-01	1.43318735e-02	1.46750589e-04
5.60000000e-01	1.42605348e-02	1.45542969e-04
5.61000000e-01	1.44255514e-02	1.47234500e-04
5.62000000e-01	1.43184518e-02	1.46224746e-04
5.63000000e-01	1.42457843e-02	1.45579064e-04
5.64000000e-01	1.41392019e-02	1.44600894e-04
5.65000000e-01	1.42777660e-02	1.45793456e-04
5.66000000e-01	1.43513907e-02	1.46644813e-04
5.67000000e-01	1.41205638e-02	1.44909585e-04
5.68000000e-01	1.43077621e-02	1.46115200e-04
5.69000000e-01	1.42765008e-02	1.46033211e-04
5.70000000e-01	1.41692537e-02	1.45100817e-04
5.71000000e-01	1.43041771e-02	1.45804070e-04
5.72000000e-01	1.40411131e-02	1.43956032e-04
5.73000000e-01	1.41155362e-02	1.44656530e-04
5.74000000e-01	1.41346767e-02	1.44605425e-04
5.75000000e-01	1.41149497e-02	1.44940570e-04
5.76000000e-01	1.40409330e-02	1.44308638e-04
5.77000000e-01	1.42252400e-02	1.45407308e-04
5.78000000e-01	1.41595566e-02	1.45281254e-04
5.79000000e-01	1.40785581e-02	1.44203582e-04
5.80000000e-01	1.40094203e-02	1.43770055e-04
5.81000000e-01	1.40346474e-02	1.44116218e-04
5.82000000e-01	1.39920814e-02	1.44038159e-04
5.83000000e-01	1.40355890e-02	1.44172412e-04
5.84000000e-01	1.40564707e-02	1.44197087e-04
5.85000000e-01	1.40073463e-02	1.44237308e-04
5.86000000e-01	1.40154447e-02	1.44035111e-04
5.87000000e-01	1.41135885e-02	1.45035211e-04
5.88000000e-01	1.40540682e-02	1.44585107e-04
5.89000000e-01	1.38473138e-02	1.42483240e-04
5.90000000e-01	1.39208852e-02	1.43102827e-04
5.91000000e-01	1.39339760e-02	1.43352125e-04
5.92000000e-01	1.39633620e-02	1.43359338e-04
5.93000000e-01	1.39318171e-02	1.43369080e-04
5.94000000e-01	1.40635002e-02	1.44536511e-04
5.95000000e-01	1.40029253e-02	1.44187318e-04
5.96000000e-01	1.39765342e-02	1.44072721e-04
5.97000000e-01	1.39296038e-02	1.43402271e-04
5.98000000e-01	1.39296989e-02	1.43775816e-04
5.99000000e-01	1.38641226e-02	1.42982700e-04
6.00000000e-01	1.39197512e-02	1.43235712e-04
6.01000000e-01	1.39296255e-02	1.43786835e-04
6.02000000e-01	1.38452944e-02	1.42608854e-04
6.03000000e-01	1.38206066e-02	1.42546526e-04
6.04000000e-01	1.38965227e-02	1.43084184e-04
6.05000000e-01	1.38236266e-02	1.42817176e-04
6.06000000e-01	1.38285545e-02	1.42653675e-04
6.07000000e-01	1.38253898e-02	1.42509779e-04
6.08000000e-01	1.37104610e-02	1.41908432e-04
6.09000000e-01	1.38546359e-02	1.43168017e-04
6.10000000e-01	1.36523064e-02	1.41178830e-04
6.11000000e-01	1.38351726e-02	1.42425331e-04
6.12000000e-01	1.36804100e-02	1.41093848e-04
6.13000000e-01	1.37946635e-02	1.42699212e-04
6.14000000e-01	1.37865056e-02	1.42364906e-04
6.15000000e-01	1.37676363e-02	1.42057243e-04
6.16000000e-01	1.38576260e-02	1.42981183e-04
6.17000000e-01	1.38169367e-02	1.42687901e-04
6.18000000e-01	1.36730388e-02	1.41364073e-04
6.19000000e-01	1.37390282e-02	1.41843494e-04
6.20000000e-01	1.38105825e-02	1.41869006e-04
6.21000000e-01	1.36341669e-02	1.40377619e-04
6.22000000e-01	1.35744678e-02	1.39983720e-04
6.23000000e-01	1.37233314e-02	1.41319995e-04
6.24000000e-01	1.37491196e-02	1.40769603e-04
6.25000000e-01	1.37593904e-02	1.40804969e-04
6.26000000e-01	1.38108707e-02	1.41411871e-04
6.27000000e-01	1.37311345e-02	1.40845507e-04
6.28000000e-01	1.36323567e-02	1.39986996e-04
6.29000000e-01	1.37368452e-02	1.40711676e-04
6.30000000e-01	1.35107594e-02	1.39016338e-04
6.31000000e-01	1.37317844e-02	1.40631352e-04
6.32000000e-01	1.36648721e-02	1.39986663e-04
6.33000000e-01	1.36852091e-02	1.40762747e-04
6.34000000e-01	1.37674854e-02	1.44514378e-04
6.35000000e-01	1.36508967e-02	1.48227205e-04
6.36000000e-01	1.37556460e-02	1.51446996e-04
6.37000000e-01	1.37042021e-02	1.52921777e-04
6.38000000e-01	1.36779502e-02	1.55219493e-04
6.39000000e-01	1.38375251e-02	1.58359599e-04
6.40000000e-01	1.36916533e-02	1.59890083e-04
6.41000000e-01	1.36657976e-02	1.60335643e-04
6.42000000e-01	1.37920643e-02	1.63842781e-04
6.43000000e-01	1.37165224e-02	1.62861696e-04
6.44000000e-01	1.37188606e-02	1.56967281e-04
6.45000000e-01	1.38147981e-02	1.55748191e-04
6.46000000e-01	1.37495836e-02	1.53396033e-04
6.47000000e-01	1.38326870e-02	1.53508454e-04
6.48000000e-01	1.37358675e-02	1.51365216e-04
6.49000000e-01	1.35907717e-02	1.48987286e-04
6.50000000e-01	1.36135828e-02	1.48411289e-04
6.51000000e-01	1.35275524e-02	1.46989140e-04
6.52000000e-01	1.36025875e-02	1.47862817e-04
6.53000000e-01	1.37349189e-02	1.48332339e-04
6.54000000e-01	1.37158440e-02	1.47063373e-04
6.55000000e-01	1.37478822e-02	1.47349463e-04
6.56000000e-01	1.35940411e-02	1.46170324e-04
6.57000000e-01	1.35322045e-02	1.45245442e-04
6.58000000e-01	1.36928661e-02	1.46254561e-04
6.59000000e-01	1.36000920e-02	1.45686815e-04
6.60000000e-01	1.35591220e-02	1.45175339e-04
6.61000000e-01	1.36634220e-02	1.45412327e-04
6.62000000e-01	1.36906907e-02	1.45869157e-04
6.63000000e-01	1.36505756e-02	1.45791700e-04
6.64000000e-01	1.34711440e-02	1.43503462e-04
6.65000000e-01	1.36083665e-02	1.45060584e-04
6.66000000e-01	1.36773606e-02	1.45837048e-04
6.67000000e-01	1.36702101e-02	1.45770464e-04
6.68000000e-01	1.36328850e-02	1.45642671e-04
6.69000000e-01	1.35087128e-02	1.43592948e-04
6.70000000e-01	1.36899852e-02	1.45416959e-04
6.71000000e-01	1.34680889e-02	1.43408904e-04
6.72000000e-01	1.35311130e-02	1.44000618e-04
6.73000000e-01	1.35478922e-02	1.43970406e-04
6.74000000e-01	1.34199051e-02	1.42760813e-04
6.75000000e-01	1.35495311e-02	1.43696083e-04
6.76000000e-01	1.36278527e-02	1.45217190e-04
6.77000000e-01	1.34305507e-02	1.42508353e-04
6.78000000e-01	1.34686377e-02	1.43319687e-04
6.79000000e-01	1.34867528e-02	1.42450520e-04
6.80000000e-01	1.35509218e-02	1.43816389e-04
6.81000000e-01	1.35354551e-02	1.43548044e-04
6.82000000e-01	1.34800874e-02	1.42746907e-04
6.83000000e-01	1.34025123e-02	1.41891310e-04
6.84000000e-01	1.33655542e-02	1.41458652e-04
6.85000000e-01	1.33231535e-02	1.41342595e-04
6.86000000e-01	1.34383199e-02	1.42413376e-04
6.87000000e-01	1.34092010e-02	1.42355621e-04
6.88000000e-01	1.34589254e-02	1.42966901e-04
6.89000000e-01	1.33246338e-02	1.40745971e-04
6.90000000e-01	1.33917107e-02	1.42071751e-04
6.91000000e-01	1.34711001e-02	1.42511249e-04
6.92000000e-01	1.34197776e-02	1.41999186e-04
6.93000000e-01	1.33269450e-02	1.40674336e-04
6.94000000e-01	1.33973215e-02	1.41690487e-04
6.95000000e-01	1.34397389e-02	1.42057504e-04
6.96000000e-01	1.34477722e-02	1.42111472e-04
6.97000000e-01	1.31644908e-02	1.39414063e-04
6.98000000e-01	1.33956486e-02	1.41566592e-04
6.99000000e-01	1.32340755e-02	1.40521540e-04
7.00000000e-01	1.33372747e-02	1.41088961e-04
7.01000000e-01	1.33759520e-02	1.41850219e-04
7.02000000e-01	1.32650558e-02	1.40902584e-04
7.03000000e-01	1.32802267e-02	1.40452801e-04
7.04000000e-01	1.32562857e-02	1.40408941e-04
7.05000000e-01	1.33243014e-02	1.41089855e-04
7.06000000e-01	1.30970694e-02	1.39044275e-04
7.07000000e-01	1.32274402e-02	1.39975942e-04
7.08000000e-01	1.31143013e-02	1.37964528e-04
7.09000000e-01	1.31938951e-02	1.39531289e-04
7.10000000e-01	1.31669524e-02	1.39018436e-04
7.11000000e-01	1.30542887e-02	1.38045776e-04
7.12000000e-01	1.31982834e-02	1.39460723e-04
7.13000000e-01	1.32668772e-02	1.40137629e-04
7.14000000e-01	1.30004816e-02	1.37762774e-04
7.15000000e-01	1.30185194e-02	1.38367216e-04
7.16000000e-01	1.30833906e-02	1.38625364e-04
7.17000000e-01	1.30997096e-02	1.39191334e-04
7.18000000e-01	1.32157559e-02	1.39462365e-04
7.19000000e-01	1.30248632e-02	1.38084270e-04
7.20000000e-01	1.30972276e-02	1.38790312e-04
7.21000000e-01	1.30264822e-02	1.37505901e-04
7.22000000e-01	1.30738862e-02	1.38244952e-04
7.23000000e-01	1.31054420e-02	1.38460953e-04
7.24000000e-01	1.29480302e-02	1.37090490e-04
7.25000000e-01	1.29927254e-02	1.37998361e-04
7.26000000e-01	1.29698739e-02	1.37138566e-04
7.27000000e-01	1.30822683e-02	1.38538864e-04
7.28000000e-01	1.29329534e-02	1.37131511e-04
7.29000000e-01	1.30181905e-02	1.37993119e-04
7.30000000e-01	1.30585231e-02	1.38032025e-04
7.31000000e-01	1.28817387e-02	1.36461461e-04
7.32000000e-01	1.30645149e-02	1.38390529e-04
7.33000000e-01	1.28895160e-02	1.36432779e-04
7.34000000e-01	1.27501108e-02	1.35005433e-04
7.35000000e-01	1.28466857e-02	1.35290478e-04
7.36000000e-01	1.29237316e-02	1.36044233e-04
7.37000000e-01	1.28978272e-02	1.35977562e-04
7.38000000e-01	1.26430498e-02	1.33651780e-04
7.39000000e-01	1.28499732e-02	1.34970320e-04
7.40000000e-01	1.29951886e-02	1.36429686e-04
7.41000000e-01	1.28027531e-02	1.34283332e-04
7.42000000e-01	1.28953378e-02	1.35561319e-04
7.43000000e-01	1.28252003e-02	1.34316874e-04
7.44000000e-01	1.27417602e-02	1.33657672e-04
7.45000000e-01	1.27728399e-02	1.34192799e-04
7.46000000e-01	1.28187900e-02	1.34678233e-04
7.47000000e-01	1.27348286e-02	1.33939502e-04
7.48000000e-01	1.27584171e-02	1.34162231e-04
7.49000000e-01	1.27136708e-02	1.33736856e-04
7.50000000e-01	1.29201716e-02	1.35534444e-04
7.51000000e-01	1.27561090e-02	1.33717398e-04
7.52000000e-01	1.27770832e-02	1.34220390e-04
7.53000000e-01	1.28335631e-02	1.34986397e-04
7.54000000e-01	1.26983885e-02	1.33147390e-04
7.55000000e-01	1.26498359e-02	1.33301374e-04
7.56000000e-01	1.26780443e-02	1.33221438e-04
7.57000000e-01	1.27175400e-02	1.33627644e-04
7.58000000e-01	1.27352346e-02	1.33846894e-04
7.59000000e-01	1.26546697e-02	1.32942292e-04
7.60000000e-01	1.25899304e-02	1.32073392e-04
7.61000000e-01	1.26378058e-02	1.31881965e-04
7.62000000e-01	1.26497563e-02	1.31690959e-04
7.63000000e-01	1.26158496e-02	1.31700318e-04
7.64000000e-01	1.26889058e-02	1.32496477e-04
7.65000000e-01	1.25845821e-02	1.30945133e-04
7.66000000e-01	1.26328675e-02	1.31320375e-04
7.67000000e-01	1.25802749e-02	1.31009632e-04
7.68000000e-01	1.25069551e-02	1.30518715e-04
7.69000000e-01	1.24345540e-02	1.29778616e-04
7.70000000e-01	1.24393709e-02	1.29760139e-04
7.71000000e-01	1.25449388e-02	1.30489652e-04
7.72000000e-01	1.25417004e-02	1.34819410e-04
7.73000000e-01	1.24863036e-02	1.38750887e-04
7.74000000e-01	1.24775937e-02	1.40723923e-04
7.75000000e-01	1.25411742e-02	1.44356221e-04
7.76000000e-01	1.24340718e-02	1.45079350e-04
7.77000000e-01	1.25660095e-02	1.48726767e-04
7.78000000e-01	1.25454647e-02	1.50688317e-04
7.79000000e-01	1.24871924e-02	1.51403092e-04
7.80000000e-01	1.23099321e-02	1.51054182e-04
7.81000000e-01	1.23443801e-02	1.53360226e-04
7.82000000e-01	1.23561598e-02	1.55119950e-04
7.83000000e-01	1.25072464e-02	1.58960022e-04
7.84000000e-01	1.25297147e-02	1.61126299e-04
7.85000000e-01	1.24733192e-02	1.61470369e-04
7.86000000e-01	1.22035360e-02	1.60296471e-04
7.87000000e-01	1.23530685e-02	1.63635783e-04
7.88000000e-01	1.22733844e-02	1.64429441e-04
7.89000000e-01	1.24068756e-02	1.66670014e-04
7.90000000e-01	1.23332580e-02	1.68052139e-04
7.91000000e-01	1.22286230e-02	1.68989824e-04
7.92000000e-01	1.23133056e-02	1.71612265e-04
7.93000000e-01	1.22735651e-02	1.72269925e-04
7.94000000e-01	1.22461479e-02	1.73980378e-04
7.95000000e-01	1.24230558e-02	1.77481911e-04
7.96000000e-01	1.21783008e-02	1.76657320e-04
7.97000000e-01	1.23515201e-02	1.81580421e-04
7.98000000e-01	1.23739945e-02	1.82485429e-04
7.99000000e-01	1.19596071e-02	1.79520031e-04
8.00000000e-01	1.21579169e-02	1.83590596e-04
8.01000000e-01	1.21507979e-02	1.85695489e-04
8.02000000e-01	1.19661144e-02	1.85782108e-04
8.03000000e-01	1.21397050e-02	1.89529000e-04
8.04000000e-01	1.22880977e-02	1.93904714e-04
8.05000000e-01	1.21803726e-02	1.93837395e-04
8.06000000e-01	1.20442003e-02	1.94759913e-04
8.07000000e-01	1.20462402e-02	1.95536785e-04
8.08000000e-01	1.19990780e-02	1.98861991e-04
8.09000000e-01	1.21415133e-02	2.02317192e-04
8.10000000e-01	1.21281160e-02	2.03707195e-04
8.11000000e-01	1.19621334e-02	2.03734424e-04
8.12000000e-01	1.22108128e-02	2.10231431e-04
8.13000000e-01	1.19512700e-02	2.07911270e-04
8.14000000e-01	1.19786866e-02	2.10833295e-04
8.15000000e-01	1.19281253e-02	2.14035407e-04
8.16000000e-01	1.21615160e-02	2.19225930e-04
8.17000000e-01	1.18934135e-02	2.18910398e-04
8.18000000e-01	1.21679084e-02	2.24909780e-04
8.19000000e-01	1.20796684e-02	2.25994434e-04
8.20000000e-01	1.21558063e-02	2.31093048e-04
8.21000000e-01	1.19637449e-02	2.28505070e-04
8.22000000e-01	1.20410267e-02	2.34766456e-04
8.23000000e-01	1.21456066e-02	2.39029191e-04
8.24000000e-01	1.19818061e-02	2.39135035e-04
8.25000000e-01	1.17707758e-02	2.39784255e-04
8.26000000e-01	1.17795826e-02	2.45257880e-04
8.27000000e-01	1.17337637e-02	2.46696151e-04
8.28000000e-01	1.19608516e-02	2.53428286e-04
8.29000000e-01	1.17856979e-02	2.54695838e-04
8.30000000e-01	1.16792902e-02	2.55429344e-04
8.31000000e-01	1.19583112e-02	2.65750457e-04
8.32000000e-01	1.19195058e-02	2.67847894e-04
8.33000000e-01	1.16652828e-02	2.68107653e-04
8.34000000e-01	1.15637786e-02	2.72077578e-04
8.35000000e-01	1.17683792e-02	2.80648179e-04
8.36000000e-01	1.16471861e-02	2.82708125e-04
8.37000000e-01	1.16417309e-02	2.91379488e-04
8.38000000e-01	1.16522555e-02	2.93979780e-04
8.39000000e-01	1.16886408e-02	3.02506934e-04
8.40000000e-01	1.15776112e-02	3.02626118e-04
8.41000000e-01	1.20125130e-02	3.22196744e-04
8.42000000e-01	1.15572054e-02	3.20673031e-04
8.43000000e-01	1.18039936e-02	3.32178612e-04
8.44000000e-01	1.17476070e-02	3.37112667e-04
8.45000000e-01	1.15651836e-02	3.45919515e-04
8.46000000e-01	1.15392387e-02	3.49949441e-04
8.47000000e-01	1.16543600e-02	3.65822647e-04
8.48000000e-01	1.12667075e-02	3.66032418e-04
8.49000000e-01	1.18340074e-02	3.94213537e-04
8.50000000e-01	1.12124465e-02	3.89509054e-04
8.51000000e-01	1.16215817e-02	4.17112872e-04
8.52000000e-01	1.16212721e-02	4.31992501e-04
8.53000000e-01	1.15482671e-02	4.50073025e-04
8.54000000e-01	1.13017133e-02	4.66812454e-04
8.55000000e-01	1.16056491e-02	4.94546892e-04
8.56000000e-01	1.12894506e-02	4.91716745e-04
8.57000000e-01	1.11790980e-02	4.93983982e-04
8.58000000e-01	1.18071347e-02	5.37765773e-04
8.59000000e-01	1.16740902e-02	5.46453790e-04
8.60000000e-01	1.12357844e-02	5.47229643e-04
8.61000000e-01	1.08408265e-02	5.46457295e-04
8.62000000e-01	1.12671498e-02	5.88411518e-04
8.63000000e-01	1.10611289e-02	6.10940918e-04
8.64000000e-01	1.11553972e-02	6.36931864e-04
8.65000000e-01	1.14375863e-02	6.76541975e-04
8.66000000e-01	1.21063210e-02	7.63419501e-04
8.67000000e-01	1.13294062e-02	7.64235500e-04
8.68000000e-01	1.07395974e-02	7.77352758e-04
8.69000000e-01	1.07256098e-02	8.05047926e-04
8.70000000e-01	1.02955393e-02	8.50052884e-04
8.71000000e-01	1.04172706e-02	9.68101971e-04
8.72000000e-01	1.18064018e-02	1.22471619e-03
8.73000000e-01	1.17064292e-02	1.39654342e-03
8.74000000e-01	1.12514171e-02	1.78385484e-03
8.75000000e-01	1.20147229e-02	3.97927390e-03
