% Filename : SDL7_00012_00215.h5
% Date & Time : 30-Oct-2025 14:59:04
% X-ray Energy (keV) : 13.30001
% Exposure Time (s) : 0.500
% Beam Center : 1461.24000, 208.98300
% Sample to Detector Distance (SDD) (mm) : 1990.750
% Detector Pixel Size (mm) : 0.075
% Photodiode Value : 136312.000
% I0 of Sample : 0
% I0 of Standard : 1
% 
% q(A^-1)   I(q)    I(q)_SE
0.00000000e+00	1.06031509e-02	5.62316631e-03
2.50000000e-04	0.00000000e+00	0.00000000e+00
5.00000000e-04	0.00000000e+00	0.00000000e+00
7.50000000e-04	0.00000000e+00	0.00000000e+00
1.00000000e-03	0.00000000e+00	0.00000000e+00
1.25000000e-03	0.00000000e+00	0.00000000e+00
1.50000000e-03	0.00000000e+00	0.00000000e+00
1.75000000e-03	0.00000000e+00	0.00000000e+00
2.00000000e-03	0.00000000e+00	0.00000000e+00
2.25000000e-03	0.00000000e+00	0.00000000e+00
2.50000000e-03	0.00000000e+00	0.00000000e+00
2.75000000e-03	0.00000000e+00	0.00000000e+00
3.00000000e-03	0.00000000e+00	0.00000000e+00
3.25000000e-03	1.89372388e+02	1.67085371e+02
3.50000000e-03	3.39864498e+01	2.82973257e+01
3.75000000e-03	1.56305690e+01	1.33441309e+01
4.00000000e-03	1.23211411e+01	8.60766421e+00
4.25000000e-03	2.94315432e+00	1.64512928e+00
4.50000000e-03	5.87339213e+00	3.47931248e+00
4.75000000e-03	7.55982299e+00	3.47201633e+00
5.00000000e-03	5.78762014e+00	2.62901015e+00
5.25000000e-03	4.84224161e+00	2.19823485e+00
5.50000000e-03	3.97495153e+00	1.74709942e+00
5.75000000e-03	3.47566845e+00	1.55453565e+00
6.00000000e-03	2.81301990e+00	1.24626455e+00
6.25000000e-03	2.49091076e+00	1.10462554e+00
6.50000000e-03	2.16400325e+00	9.74430730e-01
6.75000000e-03	1.79489430e+00	8.01754300e-01
7.00000000e-03	1.55945701e+00	6.87161849e-01
7.25000000e-03	1.36985323e+00	6.08969153e-01
7.50000000e-03	1.18454750e+00	5.11569941e-01
7.75000000e-03	1.04923732e+00	4.55781367e-01
8.00000000e-03	9.54508445e-01	4.07093560e-01
8.25000000e-03	7.98433303e-01	3.31698791e-01
8.50000000e-03	6.95974645e-01	2.85887151e-01
8.75000000e-03	6.31557193e-01	2.48817516e-01
9.00000000e-03	5.63228921e-01	2.23121061e-01
9.25000000e-03	5.03476823e-01	1.96617419e-01
9.50000000e-03	4.43082363e-01	1.70759451e-01
9.75000000e-03	3.95755114e-01	1.51190750e-01
1.00000000e-02	3.59893823e-01	1.36772314e-01
1.02500000e-02	3.43314185e-01	1.29378030e-01
1.05000000e-02	2.94018363e-01	1.06343770e-01
1.07500000e-02	2.81946513e-01	1.01845521e-01
1.10000000e-02	2.48501416e-01	8.63322446e-02
1.12500000e-02	1.94025475e-01	6.93662300e-02
1.15000000e-02	2.12316103e-01	6.91991887e-02
1.17500000e-02	1.70394456e-01	5.72366583e-02
1.20000000e-02	1.78633845e-01	5.74332924e-02
1.22500000e-02	1.73993628e-01	5.33916271e-02
1.25000000e-02	1.58029428e-01	4.83023150e-02
1.27500000e-02	1.46505177e-01	4.34557026e-02
1.30000000e-02	1.38892919e-01	4.00318277e-02
1.32500000e-02	1.24430482e-01	3.57517011e-02
1.35000000e-02	1.19446470e-01	3.32870556e-02
1.37500000e-02	1.16918504e-01	3.23823601e-02
1.40000000e-02	1.04843441e-01	2.82721751e-02
1.42500000e-02	9.77208653e-02	2.59256865e-02
1.45000000e-02	9.46611676e-02	2.51445086e-02
1.47500000e-02	9.03676079e-02	2.33645739e-02
1.50000000e-02	8.63865579e-02	2.17176758e-02
1.52500000e-02	8.15323327e-02	1.95510797e-02
1.55000000e-02	7.60227789e-02	1.79707354e-02
1.57500000e-02	7.21046375e-02	1.66701255e-02
1.60000000e-02	6.85299408e-02	1.51076415e-02
1.62500000e-02	6.72777237e-02	1.46981911e-02
1.65000000e-02	6.40621038e-02	1.31189345e-02
1.67500000e-02	5.83286512e-02	1.20312522e-02
1.70000000e-02	5.85044037e-02	1.14334956e-02
1.72500000e-02	5.78272310e-02	1.14549811e-02
1.75000000e-02	5.37235335e-02	1.02796678e-02
1.77500000e-02	5.23176348e-02	9.56048161e-03
1.80000000e-02	5.10502952e-02	9.40901659e-03
1.82500000e-02	4.88613199e-02	8.46110416e-03
1.85000000e-02	4.80838668e-02	8.31140168e-03
1.87500000e-02	4.75378753e-02	8.01442760e-03
1.90000000e-02	4.59427682e-02	7.36166148e-03
1.92500000e-02	4.30346331e-02	6.91890136e-03
1.95000000e-02	3.97245952e-02	5.98949498e-03
1.97500000e-02	4.10530458e-02	6.44904161e-03
2.00000000e-02	3.85930704e-02	5.47400484e-03
2.02500000e-02	3.77349360e-02	5.44570635e-03
2.05000000e-02	3.83795817e-02	5.52609593e-03
2.07500000e-02	3.74494369e-02	4.81461093e-03
2.10000000e-02	3.76823402e-02	5.30928577e-03
2.12500000e-02	3.68285037e-02	4.92454766e-03
2.15000000e-02	3.61916907e-02	4.66282248e-03
2.17500000e-02	3.48970015e-02	4.55020593e-03
2.20000000e-02	3.45127163e-02	4.31383937e-03
2.22500000e-02	3.43074517e-02	3.94921043e-03
2.25000000e-02	3.29108916e-02	3.75391069e-03
2.27500000e-02	3.43731501e-02	3.78889875e-03
2.30000000e-02	3.28552825e-02	3.33237541e-03
2.32500000e-02	3.23152965e-02	3.45989990e-03
2.35000000e-02	3.25564965e-02	3.39520062e-03
2.37500000e-02	3.23261788e-02	3.23233020e-03
2.40000000e-02	3.10776213e-02	3.33798863e-03
2.42500000e-02	3.04346089e-02	2.99885824e-03
2.45000000e-02	3.08078974e-02	3.02326489e-03
2.47500000e-02	3.03071982e-02	2.73302590e-03
2.50000000e-02	2.99238044e-02	2.66216258e-03
2.52500000e-02	2.97122839e-02	2.58148862e-03
2.55000000e-02	2.81044770e-02	2.48474048e-03
2.57500000e-02	2.92757720e-02	2.52854960e-03
2.60000000e-02	2.85410012e-02	2.46837724e-03
2.62500000e-02	2.82277816e-02	2.47321249e-03
2.65000000e-02	2.80179958e-02	2.25644076e-03
2.67500000e-02	2.74958225e-02	2.33899751e-03
2.70000000e-02	2.63165457e-02	1.77451801e-03
2.72500000e-02	2.69536028e-02	2.03156106e-03
2.75000000e-02	2.76083193e-02	2.21373601e-03
2.77500000e-02	2.78969566e-02	2.09202135e-03
2.80000000e-02	2.72884082e-02	2.06257510e-03
2.82500000e-02	2.57356150e-02	1.79151999e-03
2.85000000e-02	2.73094047e-02	1.88047232e-03
2.87500000e-02	2.67237313e-02	1.73472991e-03
2.90000000e-02	2.69136993e-02	1.68412341e-03
2.92500000e-02	2.68796039e-02	1.59295925e-03
2.95000000e-02	2.68088169e-02	1.64257653e-03
2.97500000e-02	2.62675019e-02	1.46965134e-03
3.00000000e-02	2.62536035e-02	1.56920573e-03
3.02500000e-02	2.65046872e-02	1.57910802e-03
3.05000000e-02	2.60481803e-02	1.44295951e-03
3.07500000e-02	2.71957354e-02	1.53048556e-03
3.10000000e-02	2.64415483e-02	1.44294854e-03
3.12500000e-02	2.58730501e-02	1.47473849e-03
3.15000000e-02	2.58440792e-02	1.48699829e-03
3.17500000e-02	2.50992017e-02	1.35851198e-03
3.20000000e-02	2.48439911e-02	1.34737710e-03
3.22500000e-02	2.60490106e-02	1.36345325e-03
3.25000000e-02	2.65358034e-02	1.46316802e-03
3.27500000e-02	2.47208863e-02	1.33057867e-03
3.30000000e-02	2.42835895e-02	1.28251944e-03
3.32500000e-02	2.45070991e-02	1.25801158e-03
3.35000000e-02	2.44990027e-02	1.30075234e-03
3.37500000e-02	2.44622577e-02	1.29494930e-03
3.40000000e-02	2.45857181e-02	1.26321170e-03
3.42500000e-02	2.34444122e-02	1.20494765e-03
3.45000000e-02	2.43776546e-02	1.25796057e-03
3.47500000e-02	2.41124768e-02	1.20731914e-03
3.50000000e-02	2.45169019e-02	1.21102676e-03
3.52500000e-02	2.33833518e-02	1.15677430e-03
3.55000000e-02	2.32001711e-02	1.13323306e-03
3.57500000e-02	2.38240058e-02	1.17019560e-03
3.60000000e-02	2.41358369e-02	1.17548082e-03
3.62500000e-02	2.32338132e-02	1.15173214e-03
3.65000000e-02	2.28048653e-02	1.08770191e-03
3.67500000e-02	2.32132651e-02	1.10144504e-03
3.70000000e-02	2.35941189e-02	1.12233864e-03
3.72500000e-02	2.39839553e-02	1.13223254e-03
3.75000000e-02	2.22855269e-02	1.07717889e-03
3.77500000e-02	2.45584887e-02	1.16538022e-03
3.80000000e-02	2.36126313e-02	1.08189481e-03
3.82500000e-02	2.31334643e-02	1.06226476e-03
3.85000000e-02	2.25430714e-02	1.03994697e-03
3.87500000e-02	2.24717237e-02	1.02360857e-03
3.90000000e-02	2.25447008e-02	1.03817167e-03
3.92500000e-02	2.24947735e-02	1.01901551e-03
3.95000000e-02	2.21258634e-02	1.01866345e-03
3.97500000e-02	2.22287662e-02	1.02229981e-03
4.00000000e-02	2.23772480e-02	1.04094288e-03
4.02500000e-02	2.16613934e-02	9.82046241e-04
4.05000000e-02	2.19127810e-02	1.00743154e-03
4.07500000e-02	2.18295683e-02	9.69061554e-04
4.10000000e-02	2.24304715e-02	9.98893657e-04
4.12500000e-02	2.27417512e-02	1.03350202e-03
4.15000000e-02	2.17497271e-02	9.61769963e-04
4.17500000e-02	2.22202503e-02	9.73370449e-04
4.20000000e-02	2.22662358e-02	9.74964936e-04
4.22500000e-02	2.24547793e-02	9.76783500e-04
4.25000000e-02	2.19872306e-02	9.56299809e-04
4.27500000e-02	2.24720847e-02	9.67607317e-04
4.30000000e-02	2.22272939e-02	9.61556414e-04
4.32500000e-02	2.13585568e-02	9.26899915e-04
4.35000000e-02	2.16593543e-02	9.44465321e-04
4.37500000e-02	2.17229599e-02	9.15588383e-04
4.40000000e-02	2.20112892e-02	9.49073044e-04
4.42500000e-02	2.24088326e-02	9.54335246e-04
4.45000000e-02	2.18620220e-02	9.34001726e-04
4.47500000e-02	2.15094250e-02	9.11640045e-04
4.50000000e-02	2.23400598e-02	9.54498151e-04
4.52500000e-02	2.18883746e-02	9.29512872e-04
4.55000000e-02	2.22353622e-02	9.37783330e-04
4.57500000e-02	2.21365090e-02	9.14821030e-04
4.60000000e-02	2.12231681e-02	9.05380350e-04
4.62500000e-02	2.21210689e-02	9.27402622e-04
4.65000000e-02	2.19240000e-02	9.11405440e-04
4.67500000e-02	2.15305774e-02	9.00236950e-04
4.70000000e-02	2.19455559e-02	9.08010741e-04
4.72500000e-02	2.14155492e-02	8.96251903e-04
4.75000000e-02	2.13648572e-02	8.97031834e-04
4.77500000e-02	2.17857623e-02	8.96575660e-04
4.80000000e-02	2.15595197e-02	8.91518171e-04
4.82500000e-02	2.11855090e-02	8.74640651e-04
4.85000000e-02	2.19333382e-02	9.00910593e-04
4.87500000e-02	2.15778673e-02	8.86718501e-04
4.90000000e-02	2.14870575e-02	8.74807998e-04
4.92500000e-02	2.13924782e-02	8.67944918e-04
4.95000000e-02	2.22526886e-02	9.06843259e-04
4.97500000e-02	2.05738506e-02	8.40054887e-04
5.00000000e-02	2.07437742e-02	8.40244719e-04
5.02500000e-02	2.03986870e-02	8.23372158e-04
5.05000000e-02	2.16571277e-02	8.78225009e-04
5.07500000e-02	2.11965883e-02	8.53785056e-04
5.10000000e-02	2.16836720e-02	8.78676416e-04
5.12500000e-02	2.08693056e-02	8.41209423e-04
5.15000000e-02	2.05986662e-02	8.25426197e-04
5.17500000e-02	2.06500752e-02	8.26811187e-04
5.20000000e-02	2.12601457e-02	8.42642785e-04
5.22500000e-02	2.11230821e-02	8.47924012e-04
5.25000000e-02	2.13314365e-02	8.54196973e-04
5.27500000e-02	2.12891224e-02	8.33236783e-04
5.30000000e-02	2.15509800e-02	8.57028534e-04
5.32500000e-02	2.09321029e-02	8.26648244e-04
5.35000000e-02	2.04526294e-02	8.04477029e-04
5.37500000e-02	2.04748358e-02	8.02296884e-04
5.40000000e-02	2.07081344e-02	8.02458539e-04
5.42500000e-02	2.08016049e-02	8.09527941e-04
5.45000000e-02	2.17694845e-02	8.44677348e-04
5.47500000e-02	2.08133170e-02	8.08731695e-04
5.50000000e-02	2.10449854e-02	8.19825603e-04
5.52500000e-02	2.10842747e-02	8.16284600e-04
5.55000000e-02	2.10752610e-02	8.11379633e-04
5.57500000e-02	2.05897264e-02	8.06966694e-04
5.60000000e-02	2.10119922e-02	8.12609468e-04
5.62500000e-02	2.09478356e-02	8.20610462e-04
5.65000000e-02	2.11858064e-02	8.13352211e-04
5.67500000e-02	2.07256659e-02	8.05429538e-04
5.70000000e-02	2.10314351e-02	8.09438290e-04
5.72500000e-02	2.13041250e-02	8.19651851e-04
5.75000000e-02	2.03080454e-02	7.80478206e-04
5.77500000e-02	2.02235260e-02	7.67476637e-04
5.80000000e-02	2.03717549e-02	7.78627198e-04
5.82500000e-02	2.04580680e-02	7.73979300e-04
5.85000000e-02	2.03742463e-02	7.71595424e-04
5.87500000e-02	2.12864669e-02	7.98103940e-04
5.90000000e-02	2.09298376e-02	7.98644772e-04
5.92500000e-02	2.06012214e-02	7.77414342e-04
5.95000000e-02	1.98434397e-02	7.46082930e-04
5.97500000e-02	2.07063608e-02	7.80155127e-04
6.00000000e-02	2.02197405e-02	7.51566018e-04
6.02500000e-02	2.04811277e-02	7.61480108e-04
6.05000000e-02	2.11934382e-02	7.91076403e-04
6.07500000e-02	2.07461827e-02	7.67485955e-04
6.10000000e-02	2.01573421e-02	7.52304741e-04
6.12500000e-02	2.02511069e-02	7.56194203e-04
6.15000000e-02	2.06035640e-02	7.58501124e-04
6.17500000e-02	1.98428861e-02	7.35949371e-04
6.20000000e-02	2.06941220e-02	7.61563206e-04
6.22500000e-02	2.10761672e-02	7.77896184e-04
6.25000000e-02	2.01782628e-02	7.40648395e-04
6.27500000e-02	2.04342723e-02	7.50691384e-04
6.30000000e-02	2.00179716e-02	7.40009609e-04
6.32500000e-02	2.06939389e-02	7.54389625e-04
6.35000000e-02	2.00581246e-02	7.37662056e-04
6.37500000e-02	2.04834411e-02	7.53943464e-04
6.40000000e-02	2.12493099e-02	7.75850228e-04
6.42500000e-02	2.04991509e-02	7.41951500e-04
6.45000000e-02	2.00001000e-02	7.28818537e-04
6.47500000e-02	2.07374308e-02	7.51691623e-04
6.50000000e-02	2.02213500e-02	7.36762257e-04
6.52500000e-02	2.04413014e-02	7.36334675e-04
6.55000000e-02	2.02266037e-02	7.33630294e-04
6.57500000e-02	1.99329320e-02	7.23059081e-04
6.60000000e-02	2.05389993e-02	7.32808279e-04
6.62500000e-02	1.98732161e-02	7.19167467e-04
6.65000000e-02	1.94129201e-02	6.97410874e-04
6.67500000e-02	2.02201121e-02	7.20610060e-04
6.70000000e-02	1.99444763e-02	7.22822357e-04
6.72500000e-02	2.08994467e-02	7.45327706e-04
6.75000000e-02	2.09065245e-02	7.40756390e-04
6.77500000e-02	1.99984871e-02	7.17760006e-04
6.80000000e-02	2.04525298e-02	7.34542856e-04
6.82500000e-02	2.07089390e-02	7.36247845e-04
6.85000000e-02	2.04997135e-02	7.29805028e-04
6.87500000e-02	2.02864997e-02	7.16080065e-04
6.90000000e-02	2.00431702e-02	7.08691852e-04
6.92500000e-02	2.09795406e-02	7.41064151e-04
6.95000000e-02	2.03425388e-02	7.22852330e-04
6.97500000e-02	1.99350193e-02	7.04849378e-04
7.00000000e-02	2.04399630e-02	7.17165343e-04
7.02500000e-02	1.98163739e-02	6.99515654e-04
7.05000000e-02	2.01866018e-02	7.02970365e-04
7.07500000e-02	2.00719240e-02	7.04672898e-04
7.10000000e-02	2.05330416e-02	7.19566698e-04
7.12500000e-02	2.04228291e-02	7.15134631e-04
7.15000000e-02	2.01031345e-02	6.99993065e-04
7.17500000e-02	2.04741060e-02	7.11389451e-04
7.20000000e-02	1.96941664e-02	6.90410008e-04
7.22500000e-02	1.96135423e-02	6.85246659e-04
7.25000000e-02	2.01119866e-02	6.92902711e-04
7.27500000e-02	2.01696382e-02	7.01244979e-04
7.30000000e-02	1.98420449e-02	6.89004674e-04
7.32500000e-02	1.99799217e-02	6.88423427e-04
7.35000000e-02	2.08594051e-02	7.25564055e-04
7.37500000e-02	2.06299857e-02	7.07759831e-04
7.40000000e-02	2.01157812e-02	7.02326062e-04
7.42500000e-02	1.98434494e-02	6.81336159e-04
7.45000000e-02	2.02110400e-02	6.93424471e-04
7.47500000e-02	2.00226273e-02	6.83723034e-04
7.50000000e-02	1.98128402e-02	6.75414840e-04
7.52500000e-02	2.01428400e-02	6.83443697e-04
7.55000000e-02	2.07163850e-02	7.03938930e-04
7.57500000e-02	2.03506504e-02	6.92822619e-04
7.60000000e-02	2.02038161e-02	6.87925550e-04
7.62500000e-02	2.02279907e-02	6.85968492e-04
7.65000000e-02	2.05982489e-02	6.94384357e-04
7.67500000e-02	2.06974062e-02	6.96346574e-04
7.70000000e-02	2.03759059e-02	6.88232780e-04
7.72500000e-02	1.94905102e-02	6.68980076e-04
7.75000000e-02	2.00565486e-02	6.90735370e-04
7.77500000e-02	2.05088881e-02	7.13303542e-04
7.80000000e-02	2.04225164e-02	7.07526826e-04
7.82500000e-02	1.96693001e-02	6.95840654e-04
7.85000000e-02	2.04562735e-02	7.25091875e-04
7.87500000e-02	2.06070897e-02	7.24041783e-04
7.90000000e-02	1.95907604e-02	6.98032560e-04
7.92500000e-02	2.06162108e-02	7.38013365e-04
7.95000000e-02	2.01272536e-02	7.25992615e-04
7.97500000e-02	2.00406897e-02	7.21457378e-04
8.00000000e-02	2.01350502e-02	7.25563456e-04
8.02500000e-02	2.04817864e-02	7.34813430e-04
8.05000000e-02	1.98783617e-02	7.19455330e-04
8.07500000e-02	2.04240759e-02	7.45006028e-04
8.10000000e-02	1.95512145e-02	7.12919424e-04
8.12500000e-02	1.98662359e-02	7.21934570e-04
8.15000000e-02	2.00819873e-02	7.28392497e-04
8.17500000e-02	2.03560374e-02	7.39607299e-04
8.20000000e-02	2.03786077e-02	7.46573987e-04
8.22500000e-02	1.93620585e-02	7.07604716e-04
8.25000000e-02	1.97047324e-02	7.25013200e-04
8.27500000e-02	2.00884253e-02	7.28857119e-04
8.30000000e-02	1.95033216e-02	7.23540642e-04
8.32500000e-02	1.94661611e-02	7.21427492e-04
8.35000000e-02	2.06510959e-02	7.65102931e-04
8.37500000e-02	1.97035191e-02	7.22878926e-04
8.40000000e-02	1.98780492e-02	7.30686268e-04
8.42500000e-02	1.99376702e-02	7.39075392e-04
8.45000000e-02	1.96974125e-02	7.32889154e-04
8.47500000e-02	1.92978373e-02	7.22497350e-04
8.50000000e-02	1.99361741e-02	7.40017606e-04
8.52500000e-02	2.00582496e-02	7.50127642e-04
8.55000000e-02	1.93463183e-02	7.15420617e-04
8.57500000e-02	2.00020535e-02	7.47267434e-04
8.60000000e-02	1.94299554e-02	7.24969777e-04
8.62500000e-02	1.97916157e-02	7.39730368e-04
8.65000000e-02	1.92357399e-02	7.17762466e-04
8.67500000e-02	2.01476082e-02	7.34187999e-04
8.70000000e-02	1.92488380e-02	7.02843359e-04
8.72500000e-02	2.01405867e-02	7.19201119e-04
8.75000000e-02	1.95090624e-02	6.94896201e-04
8.77500000e-02	2.01838138e-02	7.09995884e-04
8.80000000e-02	1.95617651e-02	6.96176425e-04
8.82500000e-02	2.01786029e-02	7.04428490e-04
8.85000000e-02	2.04824512e-02	7.17484982e-04
8.87500000e-02	1.97532674e-02	6.82480524e-04
8.90000000e-02	2.01088610e-02	6.96834216e-04
8.92500000e-02	1.96440593e-02	6.79912491e-04
8.95000000e-02	1.98077682e-02	6.86593018e-04
8.97500000e-02	1.98232291e-02	6.77806312e-04
9.00000000e-02	1.98763123e-02	6.74866216e-04
9.02500000e-02	1.94521441e-02	6.62279577e-04
9.05000000e-02	2.00213911e-02	6.72244378e-04
9.07500000e-02	1.98909960e-02	6.74602149e-04
9.10000000e-02	1.98489205e-02	6.63713487e-04
9.12500000e-02	2.01037529e-02	6.80171818e-04
9.15000000e-02	2.00991340e-02	6.74091416e-04
9.17500000e-02	1.96154925e-02	6.61346062e-04
9.20000000e-02	2.00030001e-02	6.75009825e-04
9.22500000e-02	2.00947569e-02	6.73177070e-04
9.25000000e-02	1.99262650e-02	6.65908947e-04
9.27500000e-02	2.00023373e-02	6.66631954e-04
9.30000000e-02	1.96564353e-02	6.53187674e-04
9.32500000e-02	1.99939008e-02	6.63777623e-04
9.35000000e-02	1.99247130e-02	6.54368329e-04
9.37500000e-02	1.99019506e-02	6.57917573e-04
9.40000000e-02	1.92681306e-02	6.41788910e-04
9.42500000e-02	1.97924434e-02	6.49734823e-04
9.45000000e-02	2.04779316e-02	6.69527353e-04
9.47500000e-02	1.97976794e-02	6.48295586e-04
9.50000000e-02	1.98839877e-02	6.46434373e-04
9.52500000e-02	1.91598781e-02	6.29672822e-04
9.55000000e-02	2.03725982e-02	6.58340153e-04
9.57500000e-02	1.94960968e-02	6.34258790e-04
9.60000000e-02	1.98299737e-02	6.47277801e-04
9.62500000e-02	1.91255347e-02	6.22145384e-04
9.65000000e-02	1.97963358e-02	6.44389998e-04
9.67500000e-02	1.96699645e-02	6.38329919e-04
9.70000000e-02	1.93617637e-02	6.28415618e-04
9.72500000e-02	2.00225472e-02	6.43329382e-04
9.75000000e-02	1.95482175e-02	6.30082647e-04
9.77500000e-02	1.97581450e-02	6.30236195e-04
9.80000000e-02	1.97119789e-02	6.28203951e-04
9.82500000e-02	1.99811214e-02	6.41486783e-04
9.85000000e-02	1.94074290e-02	6.18563020e-04
9.87500000e-02	2.02937840e-02	6.44476641e-04
9.90000000e-02	1.92640125e-02	6.18465159e-04
9.92500000e-02	1.95087035e-02	6.21830726e-04
9.95000000e-02	1.97886264e-02	6.30381858e-04
9.97500000e-02	2.01041489e-02	6.38612071e-04
1.00000000e-01	1.97527801e-02	5.12190238e-04
1.00500000e-01	1.99402107e-02	4.46883822e-04
1.01000000e-01	1.98984044e-02	4.42167752e-04
1.01500000e-01	2.00616578e-02	4.46865050e-04
1.02000000e-01	1.95278105e-02	4.33270247e-04
1.02500000e-01	1.96159147e-02	4.32602902e-04
1.03000000e-01	1.94941567e-02	4.29282488e-04
1.03500000e-01	1.96280710e-02	4.31570868e-04
1.04000000e-01	1.93888571e-02	4.27033293e-04
1.04500000e-01	1.95814762e-02	4.27570645e-04
1.05000000e-01	1.95869746e-02	4.26949637e-04
1.05500000e-01	1.96168104e-02	4.26322295e-04
1.06000000e-01	1.96423899e-02	4.24556395e-04
1.06500000e-01	2.01328373e-02	4.34178187e-04
1.07000000e-01	2.00694751e-02	4.38478473e-04
1.07500000e-01	1.99646732e-02	4.42557818e-04
1.08000000e-01	1.96157575e-02	4.39288328e-04
1.08500000e-01	1.95491863e-02	4.42538106e-04
1.09000000e-01	2.00175651e-02	4.56248017e-04
1.09500000e-01	1.96739101e-02	4.52349469e-04
1.10000000e-01	1.94492376e-02	4.41048876e-04
1.10500000e-01	1.97002237e-02	4.36964643e-04
1.11000000e-01	1.93781578e-02	4.23191018e-04
1.11500000e-01	1.93995102e-02	4.20892844e-04
1.12000000e-01	1.99974806e-02	4.29246542e-04
1.12500000e-01	1.94383701e-02	4.14562513e-04
1.13000000e-01	1.97655714e-02	4.20679922e-04
1.13500000e-01	1.93216649e-02	4.12129786e-04
1.14000000e-01	1.99239494e-02	4.22412218e-04
1.14500000e-01	1.98023438e-02	4.18757952e-04
1.15000000e-01	1.93881992e-02	4.06386861e-04
1.15500000e-01	1.99829796e-02	4.17980718e-04
1.16000000e-01	1.95118841e-02	4.09626012e-04
1.16500000e-01	1.99040348e-02	4.13691968e-04
1.17000000e-01	1.96999959e-02	4.09280566e-04
1.17500000e-01	1.97042446e-02	4.08024657e-04
1.18000000e-01	2.00794606e-02	4.13254769e-04
1.18500000e-01	1.97331183e-02	4.07792933e-04
1.19000000e-01	1.95162614e-02	4.04066451e-04
1.19500000e-01	1.93666228e-02	3.99091588e-04
1.20000000e-01	1.95493405e-02	3.98988675e-04
1.20500000e-01	1.96717591e-02	4.00769374e-04
1.21000000e-01	1.96452606e-02	4.01927587e-04
1.21500000e-01	1.96728065e-02	4.00124143e-04
1.22000000e-01	1.96431204e-02	3.99519497e-04
1.22500000e-01	1.94711316e-02	3.94431402e-04
1.23000000e-01	1.95511548e-02	3.95992402e-04
1.23500000e-01	1.98593263e-02	3.99467375e-04
1.24000000e-01	1.93478312e-02	3.90428141e-04
1.24500000e-01	1.95823123e-02	3.93679864e-04
1.25000000e-01	1.96933623e-02	3.94095781e-04
1.25500000e-01	1.98035859e-02	3.94488739e-04
1.26000000e-01	1.97605759e-02	3.92711454e-04
1.26500000e-01	1.95748170e-02	3.88399784e-04
1.27000000e-01	1.97463715e-02	3.91725057e-04
1.27500000e-01	1.98039758e-02	3.91611630e-04
1.28000000e-01	1.96665501e-02	3.89014977e-04
1.28500000e-01	1.97178043e-02	3.87863303e-04
1.29000000e-01	1.98081622e-02	3.91353982e-04
1.29500000e-01	1.97709084e-02	3.90935594e-04
1.30000000e-01	1.98087151e-02	3.87878474e-04
1.30500000e-01	1.97358275e-02	3.86388956e-04
1.31000000e-01	1.96423294e-02	3.83728388e-04
1.31500000e-01	1.96579876e-02	3.82105838e-04
1.32000000e-01	1.95781697e-02	3.78910054e-04
1.32500000e-01	1.97026716e-02	3.81962524e-04
1.33000000e-01	1.94803524e-02	3.79165836e-04
1.33500000e-01	1.96944090e-02	3.77403368e-04
1.34000000e-01	1.97435041e-02	3.77692923e-04
1.34500000e-01	1.99909760e-02	3.82595100e-04
1.35000000e-01	1.96060318e-02	3.76925634e-04
1.35500000e-01	1.99555357e-02	3.79920128e-04
1.36000000e-01	1.95556544e-02	3.71153970e-04
1.36500000e-01	1.95861928e-02	3.73339166e-04
1.37000000e-01	1.96013740e-02	3.70657502e-04
1.37500000e-01	1.97051799e-02	3.73938487e-04
1.38000000e-01	1.97063101e-02	3.72162837e-04
1.38500000e-01	1.94986715e-02	3.69306631e-04
1.39000000e-01	1.92140628e-02	3.63507134e-04
1.39500000e-01	1.97184055e-02	3.73138321e-04
1.40000000e-01	1.94559885e-02	3.69203638e-04
1.40500000e-01	1.95372797e-02	3.68934614e-04
1.41000000e-01	1.96034239e-02	3.68791791e-04
1.41500000e-01	1.95558288e-02	3.67982699e-04
1.42000000e-01	1.94511801e-02	3.64450667e-04
1.42500000e-01	1.98971719e-02	3.70787556e-04
1.43000000e-01	1.94969669e-02	3.66485684e-04
1.43500000e-01	1.93600470e-02	3.62563987e-04
1.44000000e-01	1.98096748e-02	3.69836658e-04
1.44500000e-01	1.93782160e-02	3.61076754e-04
1.45000000e-01	1.96957520e-02	3.67486531e-04
1.45500000e-01	1.91006022e-02	3.55260859e-04
1.46000000e-01	1.95037122e-02	3.59266911e-04
1.46500000e-01	1.95135918e-02	3.61413505e-04
1.47000000e-01	1.92866768e-02	3.57101640e-04
1.47500000e-01	1.94534487e-02	3.58234579e-04
1.48000000e-01	1.94033569e-02	3.56722192e-04
1.48500000e-01	1.93903501e-02	3.57157651e-04
1.49000000e-01	1.92433821e-02	3.53751998e-04
1.49500000e-01	1.92723444e-02	3.52712938e-04
1.50000000e-01	1.94002287e-02	3.53571249e-04
1.50500000e-01	1.95743352e-02	3.57424033e-04
1.51000000e-01	1.92619906e-02	3.51598270e-04
1.51500000e-01	1.93752034e-02	3.51286260e-04
1.52000000e-01	1.94594337e-02	3.52254712e-04
1.52500000e-01	1.92619195e-02	3.47578419e-04
1.53000000e-01	1.91792095e-02	3.49502103e-04
1.53500000e-01	1.94849190e-02	3.53421173e-04
1.54000000e-01	1.94635448e-02	3.49500866e-04
1.54500000e-01	1.93657493e-02	3.54707121e-04
1.55000000e-01	1.91641255e-02	3.55945187e-04
1.55500000e-01	1.91783360e-02	3.59110136e-04
1.56000000e-01	1.92669182e-02	3.61076311e-04
1.56500000e-01	1.93268625e-02	3.63814543e-04
1.57000000e-01	1.89338382e-02	3.57054744e-04
1.57500000e-01	1.89393117e-02	3.49987160e-04
1.58000000e-01	1.94156441e-02	3.53594925e-04
1.58500000e-01	1.90098714e-02	3.44723236e-04
1.59000000e-01	1.89644444e-02	3.42445945e-04
1.59500000e-01	1.91528697e-02	3.44971444e-04
1.60000000e-01	1.91050462e-02	3.43674281e-04
1.60500000e-01	1.88542350e-02	3.38280095e-04
1.61000000e-01	1.90864937e-02	3.42185409e-04
1.61500000e-01	1.89417839e-02	3.37239426e-04
1.62000000e-01	1.91552509e-02	3.39657858e-04
1.62500000e-01	1.92215831e-02	3.42407153e-04
1.63000000e-01	1.91584770e-02	3.37567725e-04
1.63500000e-01	1.91895739e-02	3.40965842e-04
1.64000000e-01	1.90469268e-02	3.36224060e-04
1.64500000e-01	1.89775225e-02	3.37055014e-04
1.65000000e-01	1.90924650e-02	3.35835087e-04
1.65500000e-01	1.89094342e-02	3.32551017e-04
1.66000000e-01	1.92781518e-02	3.37782713e-04
1.66500000e-01	1.91463660e-02	3.35363338e-04
1.67000000e-01	1.88967415e-02	3.30922519e-04
1.67500000e-01	1.90831047e-02	3.31999184e-04
1.68000000e-01	1.89590502e-02	3.29954757e-04
1.68500000e-01	1.90376243e-02	3.30179794e-04
1.69000000e-01	1.87664868e-02	3.26486547e-04
1.69500000e-01	1.88325619e-02	3.26617112e-04
1.70000000e-01	1.89221681e-02	3.26955708e-04
1.70500000e-01	1.90814945e-02	3.28877031e-04
1.71000000e-01	1.88345253e-02	3.26606776e-04
1.71500000e-01	1.89268452e-02	3.26572553e-04
1.72000000e-01	1.88326007e-02	3.22722841e-04
1.72500000e-01	1.85149173e-02	3.19602523e-04
1.73000000e-01	1.87158084e-02	3.21731392e-04
1.73500000e-01	1.86320406e-02	3.19364496e-04
1.74000000e-01	1.87097184e-02	3.19946777e-04
1.74500000e-01	1.89022261e-02	3.21201468e-04
1.75000000e-01	1.89095525e-02	3.21015492e-04
1.75500000e-01	1.85861393e-02	3.14697606e-04
1.76000000e-01	1.88618283e-02	3.18799777e-04
1.76500000e-01	1.89234015e-02	3.21648014e-04
1.77000000e-01	1.89080176e-02	3.18354289e-04
1.77500000e-01	1.86589800e-02	3.15362591e-04
1.78000000e-01	1.89272820e-02	3.18227237e-04
1.78500000e-01	1.90040227e-02	3.20174468e-04
1.79000000e-01	1.85823553e-02	3.13659246e-04
1.79500000e-01	1.88311349e-02	3.18198039e-04
1.80000000e-01	1.85300317e-02	3.13198317e-04
1.80500000e-01	1.90652413e-02	3.22305899e-04
1.81000000e-01	1.87385557e-02	3.14520596e-04
1.81500000e-01	1.87944325e-02	3.14758717e-04
1.82000000e-01	1.87952156e-02	3.14790160e-04
1.82500000e-01	1.87565397e-02	3.12876989e-04
1.83000000e-01	1.84836078e-02	3.09889199e-04
1.83500000e-01	1.86481441e-02	3.09847854e-04
1.84000000e-01	1.85336383e-02	3.09692224e-04
1.84500000e-01	1.85740627e-02	3.09140187e-04
1.85000000e-01	1.87550075e-02	3.12341594e-04
1.85500000e-01	1.87130393e-02	3.10101532e-04
1.86000000e-01	1.89778231e-02	3.13913616e-04
1.86500000e-01	1.90034742e-02	3.13483045e-04
1.87000000e-01	1.86541138e-02	3.08606876e-04
1.87500000e-01	1.85716278e-02	3.06279691e-04
1.88000000e-01	1.85095284e-02	3.04770507e-04
1.88500000e-01	1.86035240e-02	3.05933220e-04
1.89000000e-01	1.83490206e-02	3.01895952e-04
1.89500000e-01	1.86068850e-02	3.05877945e-04
1.90000000e-01	1.84820953e-02	3.03216671e-04
1.90500000e-01	1.85887311e-02	3.03842630e-04
1.91000000e-01	1.83681624e-02	3.01003338e-04
1.91500000e-01	1.86298936e-02	3.05123942e-04
1.92000000e-01	1.86022867e-02	3.02739552e-04
1.92500000e-01	1.83222115e-02	2.97930946e-04
1.93000000e-01	1.84718768e-02	3.01687562e-04
1.93500000e-01	1.84534052e-02	3.00171383e-04
1.94000000e-01	1.84555604e-02	3.00865488e-04
1.94500000e-01	1.85179653e-02	2.99390567e-04
1.95000000e-01	1.85731969e-02	3.00403942e-04
1.95500000e-01	1.83941650e-02	2.97491386e-04
1.96000000e-01	1.85095762e-02	2.98082669e-04
1.96500000e-01	1.81979436e-02	2.94908092e-04
1.97000000e-01	1.83574018e-02	2.97610851e-04
1.97500000e-01	1.84443107e-02	2.95900080e-04
1.98000000e-01	1.84564558e-02	2.97426099e-04
1.98500000e-01	1.84553731e-02	2.95135722e-04
1.99000000e-01	1.82603920e-02	2.92928849e-04
1.99500000e-01	1.84206888e-02	2.94914696e-04
2.00000000e-01	1.83929521e-02	2.94546551e-04
2.00500000e-01	1.84218451e-02	2.93900777e-04
2.01000000e-01	1.82528909e-02	2.91329889e-04
2.01500000e-01	1.82479180e-02	2.91349501e-04
2.02000000e-01	1.81475184e-02	2.89624471e-04
2.02500000e-01	1.83627169e-02	2.91689781e-04
2.03000000e-01	1.81026451e-02	2.87448250e-04
2.03500000e-01	1.82901937e-02	2.89626258e-04
2.04000000e-01	1.85912970e-02	2.93886995e-04
2.04500000e-01	1.84294736e-02	2.92730532e-04
2.05000000e-01	1.82583229e-02	2.88737114e-04
2.05500000e-01	1.80867173e-02	2.86574418e-04
2.06000000e-01	1.83245742e-02	2.88551854e-04
2.06500000e-01	1.80599675e-02	2.85556186e-04
2.07000000e-01	1.82252756e-02	2.85853096e-04
2.07500000e-01	1.80746580e-02	2.84997642e-04
2.08000000e-01	1.79614196e-02	2.82783109e-04
2.08500000e-01	1.80390585e-02	2.82741116e-04
2.09000000e-01	1.82964098e-02	2.86558298e-04
2.09500000e-01	1.83983645e-02	2.87345317e-04
2.10000000e-01	1.80129484e-02	2.81561747e-04
2.10500000e-01	1.81044151e-02	2.84358949e-04
2.11000000e-01	1.81701801e-02	2.82877502e-04
2.11500000e-01	1.81543900e-02	2.84186999e-04
2.12000000e-01	1.80581249e-02	2.81321381e-04
2.12500000e-01	1.81958097e-02	2.83068783e-04
2.13000000e-01	1.81368276e-02	2.81087291e-04
2.13500000e-01	1.79763950e-02	2.78701520e-04
2.14000000e-01	1.81521159e-02	2.82018667e-04
2.14500000e-01	1.81711643e-02	2.80825741e-04
2.15000000e-01	1.80177544e-02	2.80264671e-04
2.15500000e-01	1.78418058e-02	2.75396400e-04
2.16000000e-01	1.80102933e-02	2.77373070e-04
2.16500000e-01	1.81034164e-02	2.79014861e-04
2.17000000e-01	1.77873629e-02	2.78208465e-04
2.17500000e-01	1.81627121e-02	2.87505867e-04
2.18000000e-01	1.77826577e-02	2.82713357e-04
2.18500000e-01	1.81167414e-02	2.89913361e-04
2.19000000e-01	1.81711059e-02	2.92203293e-04
2.19500000e-01	1.78721297e-02	2.89353225e-04
2.20000000e-01	1.80926716e-02	2.92628115e-04
2.20500000e-01	1.81559726e-02	2.94750762e-04
2.21000000e-01	1.78760959e-02	2.90544410e-04
2.21500000e-01	1.77134420e-02	2.89906896e-04
2.22000000e-01	1.80197788e-02	2.94905739e-04
2.22500000e-01	1.81111615e-02	2.97019093e-04
2.23000000e-01	1.79156669e-02	2.94368666e-04
2.23500000e-01	1.77558209e-02	2.93593484e-04
2.24000000e-01	1.77259537e-02	2.92651386e-04
2.24500000e-01	1.77325503e-02	2.94520912e-04
2.25000000e-01	1.80556114e-02	2.99364752e-04
2.25500000e-01	1.80239709e-02	2.97954769e-04
2.26000000e-01	1.80495676e-02	3.01228693e-04
2.26500000e-01	1.79811591e-02	2.94833174e-04
2.27000000e-01	1.79282551e-02	2.91354545e-04
2.27500000e-01	1.80861668e-02	2.91162147e-04
2.28000000e-01	1.77564205e-02	2.85578099e-04
2.28500000e-01	1.79290593e-02	2.86990803e-04
2.29000000e-01	1.82711530e-02	2.90010544e-04
2.29500000e-01	1.78194200e-02	2.82778212e-04
2.30000000e-01	1.79799405e-02	2.83235242e-04
2.30500000e-01	1.78559376e-02	2.80366995e-04
2.31000000e-01	1.77577249e-02	2.78670503e-04
2.31500000e-01	1.80122409e-02	2.81637794e-04
2.32000000e-01	1.78055305e-02	2.77516470e-04
2.32500000e-01	1.77845179e-02	2.77506952e-04
2.33000000e-01	1.77267817e-02	2.76454480e-04
2.33500000e-01	1.78652301e-02	2.78471201e-04
2.34000000e-01	1.77834288e-02	2.74664404e-04
2.34500000e-01	1.77995810e-02	2.75507938e-04
2.35000000e-01	1.77838380e-02	2.75086885e-04
2.35500000e-01	1.77172382e-02	2.72610428e-04
2.36000000e-01	1.78453038e-02	2.74762135e-04
2.36500000e-01	1.79060178e-02	2.75330013e-04
2.37000000e-01	1.78505226e-02	2.72950743e-04
2.37500000e-01	1.78118311e-02	2.72545315e-04
2.38000000e-01	1.78235948e-02	2.71643755e-04
2.38500000e-01	1.77270995e-02	2.71441645e-04
2.39000000e-01	1.76281262e-02	2.68351349e-04
2.39500000e-01	1.75699663e-02	2.65950982e-04
2.40000000e-01	1.77075993e-02	2.69519159e-04
2.40500000e-01	1.78146237e-02	2.69327664e-04
2.41000000e-01	1.77116547e-02	2.67866025e-04
2.41500000e-01	1.75661839e-02	2.65101858e-04
2.42000000e-01	1.76965513e-02	2.67387699e-04
2.42500000e-01	1.75817676e-02	2.64014834e-04
2.43000000e-01	1.75226012e-02	2.63088551e-04
2.43500000e-01	1.75129490e-02	2.62511749e-04
2.44000000e-01	1.76087085e-02	2.63268717e-04
2.44500000e-01	1.73899043e-02	2.60303481e-04
2.45000000e-01	1.75126039e-02	2.61247972e-04
2.45500000e-01	1.75288789e-02	2.62063718e-04
2.46000000e-01	1.75281960e-02	2.61888630e-04
2.46500000e-01	1.76592520e-02	2.63033042e-04
2.47000000e-01	1.77095456e-02	2.62520926e-04
2.47500000e-01	1.75221443e-02	2.60874397e-04
2.48000000e-01	1.75837325e-02	2.61098509e-04
2.48500000e-01	1.73403188e-02	2.56721510e-04
2.49000000e-01	1.74484039e-02	2.58587867e-04
2.49500000e-01	1.76488429e-02	2.61516995e-04
2.50000000e-01	1.72856146e-02	2.55274653e-04
2.50500000e-01	1.72671956e-02	2.56357156e-04
2.51000000e-01	1.76831787e-02	2.60094855e-04
2.51500000e-01	1.72932619e-02	2.55573591e-04
2.52000000e-01	1.72115146e-02	2.53228530e-04
2.52500000e-01	1.72030494e-02	2.52450488e-04
2.53000000e-01	1.73837311e-02	2.54646653e-04
2.53500000e-01	1.73341490e-02	2.53818518e-04
2.54000000e-01	1.75419968e-02	2.57168313e-04
2.54500000e-01	1.73358245e-02	2.55196773e-04
2.55000000e-01	1.72866374e-02	2.53309184e-04
2.55500000e-01	1.75075819e-02	2.55978779e-04
2.56000000e-01	1.73486726e-02	2.52420654e-04
2.56500000e-01	1.73251974e-02	2.53045013e-04
2.57000000e-01	1.75666628e-02	2.54808228e-04
2.57500000e-01	1.72227348e-02	2.50000006e-04
2.58000000e-01	1.74559685e-02	2.54243879e-04
2.58500000e-01	1.73008033e-02	2.50664926e-04
2.59000000e-01	1.73751855e-02	2.52015235e-04
2.59500000e-01	1.70827286e-02	2.47839547e-04
2.60000000e-01	1.73835095e-02	2.51396545e-04
2.60500000e-01	1.72494153e-02	2.49143589e-04
2.61000000e-01	1.74477805e-02	2.51751058e-04
2.61500000e-01	1.74150782e-02	2.50890191e-04
2.62000000e-01	1.74422629e-02	2.51092437e-04
2.62500000e-01	1.73385113e-02	2.50236632e-04
2.63000000e-01	1.72077075e-02	2.47086201e-04
2.63500000e-01	1.70756900e-02	2.45970568e-04
2.64000000e-01	1.73765959e-02	2.50503775e-04
2.64500000e-01	1.72193115e-02	2.46946537e-04
2.65000000e-01	1.72562860e-02	2.47191269e-04
2.65500000e-01	1.72268516e-02	2.46786480e-04
2.66000000e-01	1.72466274e-02	2.46527034e-04
2.66500000e-01	1.72166130e-02	2.45152952e-04
2.67000000e-01	1.72991079e-02	2.45790498e-04
2.67500000e-01	1.70804798e-02	2.42382627e-04
2.68000000e-01	1.72477524e-02	2.44719750e-04
2.68500000e-01	1.71329160e-02	2.43290563e-04
2.69000000e-01	1.70646650e-02	2.42124604e-04
2.69500000e-01	1.70288480e-02	2.41026223e-04
2.70000000e-01	1.72100454e-02	2.43181451e-04
2.70500000e-01	1.69759222e-02	2.40318173e-04
2.71000000e-01	1.73919909e-02	2.44865471e-04
2.71500000e-01	1.71681870e-02	2.42595035e-04
2.72000000e-01	1.71540155e-02	2.41467956e-04
2.72500000e-01	1.70994503e-02	2.41253452e-04
2.73000000e-01	1.70461704e-02	2.40694094e-04
2.73500000e-01	1.70670964e-02	2.39213068e-04
2.74000000e-01	1.69940307e-02	2.38436163e-04
2.74500000e-01	1.72363174e-02	2.41568655e-04
2.75000000e-01	1.73903122e-02	2.42483846e-04
2.75500000e-01	1.71710243e-02	2.40334447e-04
2.76000000e-01	1.68836946e-02	2.36681345e-04
2.76500000e-01	1.72278988e-02	2.40647457e-04
2.77000000e-01	1.70363280e-02	2.37729736e-04
2.77500000e-01	1.71348122e-02	2.39300996e-04
2.78000000e-01	1.74033691e-02	2.42165301e-04
2.78500000e-01	1.70501683e-02	2.38215828e-04
2.79000000e-01	1.70742295e-02	2.37310850e-04
2.79500000e-01	1.70959924e-02	2.37538886e-04
2.80000000e-01	1.69371121e-02	2.35941069e-04
2.80500000e-01	1.69329328e-02	2.34965350e-04
2.81000000e-01	1.68394798e-02	2.34015705e-04
2.81500000e-01	1.70159650e-02	2.36431230e-04
2.82000000e-01	1.69760213e-02	2.35189731e-04
2.82500000e-01	1.69449274e-02	2.34520910e-04
2.83000000e-01	1.70354877e-02	2.35026071e-04
2.83500000e-01	1.69166957e-02	2.33812391e-04
2.84000000e-01	1.69771545e-02	2.34928598e-04
2.84500000e-01	1.70704699e-02	2.34201222e-04
2.85000000e-01	1.70004911e-02	2.34584053e-04
2.85500000e-01	1.69731827e-02	2.33578017e-04
2.86000000e-01	1.69340515e-02	2.33859679e-04
2.86500000e-01	1.69602053e-02	2.33310947e-04
2.87000000e-01	1.68603848e-02	2.31415615e-04
2.87500000e-01	1.69589044e-02	2.31912408e-04
2.88000000e-01	1.68882165e-02	2.30589870e-04
2.88500000e-01	1.67623763e-02	2.29835396e-04
2.89000000e-01	1.70143429e-02	2.31935240e-04
2.89500000e-01	1.70245857e-02	2.32058654e-04
2.90000000e-01	1.66798116e-02	2.28283000e-04
2.90500000e-01	1.68381591e-02	2.30243928e-04
2.91000000e-01	1.68625132e-02	2.29782008e-04
2.91500000e-01	1.69353379e-02	2.29778106e-04
2.92000000e-01	1.66960289e-02	2.26986891e-04
2.92500000e-01	1.68784012e-02	2.29340825e-04
2.93000000e-01	1.69226352e-02	2.28752619e-04
2.93500000e-01	1.68182129e-02	2.27766722e-04
2.94000000e-01	1.68932400e-02	2.28368454e-04
2.94500000e-01	1.69435618e-02	2.29977094e-04
2.95000000e-01	1.69038442e-02	2.28325052e-04
2.95500000e-01	1.67477815e-02	2.26613047e-04
2.96000000e-01	1.66532910e-02	2.25471587e-04
2.96500000e-01	1.68622917e-02	2.26559646e-04
2.97000000e-01	1.66497376e-02	2.24976465e-04
2.97500000e-01	1.68937442e-02	2.27247026e-04
2.98000000e-01	1.68541108e-02	2.27350673e-04
2.98500000e-01	1.65058746e-02	2.22356581e-04
2.99000000e-01	1.68325892e-02	2.25378682e-04
2.99500000e-01	1.68787918e-02	2.25794366e-04
3.00000000e-01	1.67011046e-02	2.23511645e-04
3.00500000e-01	1.67675979e-02	2.25225087e-04
3.01000000e-01	1.67363722e-02	2.23123011e-04
3.01500000e-01	1.68486214e-02	2.25636425e-04
3.02000000e-01	1.68111020e-02	2.24527482e-04
3.02500000e-01	1.70779686e-02	2.27525002e-04
3.03000000e-01	1.66329640e-02	2.21863805e-04
3.03500000e-01	1.68364702e-02	2.24424227e-04
3.04000000e-01	1.69044638e-02	2.25155224e-04
3.04500000e-01	1.68065349e-02	2.22769970e-04
3.05000000e-01	1.67755429e-02	2.23347385e-04
3.05500000e-01	1.66541620e-02	2.21630459e-04
3.06000000e-01	1.65139727e-02	2.17824292e-04
3.06500000e-01	1.65416337e-02	2.20484379e-04
3.07000000e-01	1.66884608e-02	2.21222047e-04
3.07500000e-01	1.65565070e-02	2.19906678e-04
3.08000000e-01	1.66109037e-02	2.20106291e-04
3.08500000e-01	1.66381028e-02	2.20016752e-04
3.09000000e-01	1.67006795e-02	2.20626372e-04
3.09500000e-01	1.68687649e-02	2.21708294e-04
3.10000000e-01	1.64551073e-02	2.17604963e-04
3.10500000e-01	1.65386859e-02	2.17885086e-04
3.11000000e-01	1.66840044e-02	2.19578837e-04
3.11500000e-01	1.64695571e-02	2.17001130e-04
3.12000000e-01	1.67109879e-02	2.19657973e-04
3.12500000e-01	1.67498737e-02	2.20348870e-04
3.13000000e-01	1.64356665e-02	2.16094812e-04
3.13500000e-01	1.64807110e-02	2.17011762e-04
3.14000000e-01	1.66019351e-02	2.18488223e-04
3.14500000e-01	1.66599882e-02	2.18326424e-04
3.15000000e-01	1.65500894e-02	2.16803633e-04
3.15500000e-01	1.63209275e-02	2.14089205e-04
3.16000000e-01	1.67947106e-02	2.19813633e-04
3.16500000e-01	1.65037636e-02	2.15018040e-04
3.17000000e-01	1.66076032e-02	2.16653840e-04
3.17500000e-01	1.63983662e-02	2.13789001e-04
3.18000000e-01	1.63801218e-02	2.13930757e-04
3.18500000e-01	1.65704851e-02	2.15836207e-04
3.19000000e-01	1.64961530e-02	2.14926494e-04
3.19500000e-01	1.63931518e-02	2.12544554e-04
3.20000000e-01	1.63615045e-02	2.13528898e-04
3.20500000e-01	1.63410100e-02	2.11866434e-04
3.21000000e-01	1.64686644e-02	2.14623623e-04
3.21500000e-01	1.63979054e-02	2.12648791e-04
3.22000000e-01	1.63858354e-02	2.12981590e-04
3.22500000e-01	1.63412461e-02	2.12238437e-04
3.23000000e-01	1.63323689e-02	2.10693405e-04
3.23500000e-01	1.64913426e-02	2.13776988e-04
3.24000000e-01	1.63435116e-02	2.09920154e-04
3.24500000e-01	1.64728980e-02	2.13177551e-04
3.25000000e-01	1.63353658e-02	2.10681348e-04
3.25500000e-01	1.63176857e-02	2.10436272e-04
3.26000000e-01	1.62333782e-02	2.08643122e-04
3.26500000e-01	1.62680084e-02	2.09706822e-04
3.27000000e-01	1.63420233e-02	2.10668969e-04
3.27500000e-01	1.63624381e-02	2.10965518e-04
3.28000000e-01	1.63620694e-02	2.10189764e-04
3.28500000e-01	1.61896678e-02	2.07658119e-04
3.29000000e-01	1.63497985e-02	2.10049091e-04
3.29500000e-01	1.62326555e-02	2.09431997e-04
3.30000000e-01	1.61005571e-02	2.06530323e-04
3.30500000e-01	1.63119122e-02	2.09472569e-04
3.31000000e-01	1.62685172e-02	2.07161177e-04
3.31500000e-01	1.60931002e-02	2.06190052e-04
3.32000000e-01	1.65205106e-02	2.10742734e-04
3.32500000e-01	1.61096839e-02	2.05514672e-04
3.33000000e-01	1.63054060e-02	2.07858142e-04
3.33500000e-01	1.62862316e-02	2.08116792e-04
3.34000000e-01	1.61788519e-02	2.06553783e-04
3.34500000e-01	1.60999694e-02	2.05700315e-04
3.35000000e-01	1.60097172e-02	2.03612521e-04
3.35500000e-01	1.64211545e-02	2.08130859e-04
3.36000000e-01	1.58751378e-02	2.02582270e-04
3.36500000e-01	1.60542848e-02	2.03731865e-04
3.37000000e-01	1.60604385e-02	2.03410064e-04
3.37500000e-01	1.62191625e-02	2.05086576e-04
3.38000000e-01	1.59902345e-02	2.03025479e-04
3.38500000e-01	1.62756093e-02	2.05464701e-04
3.39000000e-01	1.62011574e-02	2.04847207e-04
3.39500000e-01	1.60829989e-02	2.03045448e-04
3.40000000e-01	1.60721842e-02	2.03358862e-04
3.40500000e-01	1.60139552e-02	2.01984146e-04
3.41000000e-01	1.61316041e-02	2.02766946e-04
3.41500000e-01	1.60910558e-02	2.02602862e-04
3.42000000e-01	1.61220601e-02	2.03157993e-04
3.42500000e-01	1.61119079e-02	2.03529348e-04
3.43000000e-01	1.60071617e-02	2.00902726e-04
3.43500000e-01	1.59321013e-02	2.00013354e-04
3.44000000e-01	1.60153531e-02	2.02851097e-04
3.44500000e-01	1.61228865e-02	2.02209556e-04
3.45000000e-01	1.59493021e-02	1.99887258e-04
3.45500000e-01	1.60150701e-02	2.00665824e-04
3.46000000e-01	1.59279905e-02	1.99436616e-04
3.46500000e-01	1.60130623e-02	2.00412999e-04
3.47000000e-01	1.59444943e-02	1.99486271e-04
3.47500000e-01	1.58580651e-02	1.98078653e-04
3.48000000e-01	1.57987338e-02	1.97643305e-04
3.48500000e-01	1.58172137e-02	1.97703639e-04
3.49000000e-01	1.60465510e-02	1.99510743e-04
3.49500000e-01	1.58274529e-02	1.97438785e-04
3.50000000e-01	1.57980826e-02	1.60840380e-04
3.51000000e-01	1.58632215e-02	1.39570393e-04
3.52000000e-01	1.59100517e-02	1.39641241e-04
3.53000000e-01	1.58004916e-02	1.38383427e-04
3.54000000e-01	1.57452314e-02	1.38074327e-04
3.55000000e-01	1.57451393e-02	1.37694592e-04
3.56000000e-01	1.58348051e-02	1.39079935e-04
3.57000000e-01	1.58519051e-02	1.41246297e-04
3.58000000e-01	1.57424057e-02	1.42079855e-04
3.59000000e-01	1.56848136e-02	1.42640614e-04
3.60000000e-01	1.57455002e-02	1.44266610e-04
3.61000000e-01	1.57228330e-02	1.44503712e-04
3.62000000e-01	1.56104738e-02	1.44389886e-04
3.63000000e-01	1.55461102e-02	1.44181896e-04
3.64000000e-01	1.57401176e-02	1.46248298e-04
3.65000000e-01	1.56072622e-02	1.45670121e-04
3.66000000e-01	1.55292428e-02	1.43316596e-04
3.67000000e-01	1.55873664e-02	1.41434223e-04
3.68000000e-01	1.55869301e-02	1.40670341e-04
3.69000000e-01	1.54129929e-02	1.38872092e-04
3.70000000e-01	1.56339109e-02	1.39892008e-04
3.71000000e-01	1.56194718e-02	1.41230005e-04
3.72000000e-01	1.55530094e-02	1.41936996e-04
3.73000000e-01	1.54719528e-02	1.41213714e-04
3.74000000e-01	1.54908301e-02	1.41561048e-04
3.75000000e-01	1.55181742e-02	1.41990878e-04
3.76000000e-01	1.54944665e-02	1.42104721e-04
3.77000000e-01	1.55381311e-02	1.42676637e-04
3.78000000e-01	1.54615966e-02	1.41577058e-04
3.79000000e-01	1.55149590e-02	1.41847970e-04
3.80000000e-01	1.56627618e-02	1.42528307e-04
3.81000000e-01	1.55076057e-02	1.41646157e-04
3.82000000e-01	1.52910967e-02	1.39999468e-04
3.83000000e-01	1.53906271e-02	1.40472258e-04
3.84000000e-01	1.54111777e-02	1.40361735e-04
3.85000000e-01	1.52364151e-02	1.39285234e-04
3.86000000e-01	1.53072393e-02	1.39803959e-04
3.87000000e-01	1.52160122e-02	1.39024659e-04
3.88000000e-01	1.54059366e-02	1.40856567e-04
3.89000000e-01	1.52673445e-02	1.39462337e-04
3.90000000e-01	1.53117037e-02	1.39311399e-04
3.91000000e-01	1.54150204e-02	1.39890413e-04
3.92000000e-01	1.52847857e-02	1.39108636e-04
3.93000000e-01	1.51606059e-02	1.37917179e-04
3.94000000e-01	1.52471445e-02	1.38973586e-04
3.95000000e-01	1.51745004e-02	1.37980389e-04
3.96000000e-01	1.51329340e-02	1.37731218e-04
3.97000000e-01	1.50955916e-02	1.37433598e-04
3.98000000e-01	1.51608816e-02	1.37774857e-04
3.99000000e-01	1.52162311e-02	1.38571263e-04
4.00000000e-01	1.52033377e-02	1.38350623e-04
4.01000000e-01	1.50509131e-02	1.37027325e-04
4.02000000e-01	1.50186259e-02	1.36863581e-04
4.03000000e-01	1.51478334e-02	1.37810447e-04
4.04000000e-01	1.50600565e-02	1.37067546e-04
4.05000000e-01	1.51677301e-02	1.37872229e-04
4.06000000e-01	1.49867028e-02	1.36607937e-04
4.07000000e-01	1.51190682e-02	1.37181834e-04
4.08000000e-01	1.49773242e-02	1.36681268e-04
4.09000000e-01	1.50438440e-02	1.36509777e-04
4.10000000e-01	1.51081811e-02	1.37232298e-04
4.11000000e-01	1.50056769e-02	1.36288759e-04
4.12000000e-01	1.48713543e-02	1.35380384e-04
4.13000000e-01	1.51156286e-02	1.37020415e-04
4.14000000e-01	1.50370491e-02	1.36709252e-04
4.15000000e-01	1.50214921e-02	1.36373760e-04
4.16000000e-01	1.49771996e-02	1.35776886e-04
4.17000000e-01	1.51395624e-02	1.37322002e-04
4.18000000e-01	1.49037858e-02	1.36914031e-04
4.19000000e-01	1.49304884e-02	1.38520214e-04
4.20000000e-01	1.50717504e-02	1.40301695e-04
4.21000000e-01	1.51254479e-02	1.41155843e-04
4.22000000e-01	1.48255158e-02	1.39411939e-04
4.23000000e-01	1.49702081e-02	1.41119028e-04
4.24000000e-01	1.50482609e-02	1.41872547e-04
4.25000000e-01	1.49298532e-02	1.41083403e-04
4.26000000e-01	1.50527390e-02	1.42651295e-04
4.27000000e-01	1.49376802e-02	1.41358205e-04
4.28000000e-01	1.50236759e-02	1.42481067e-04
4.29000000e-01	1.48521846e-02	1.41154692e-04
4.30000000e-01	1.49168121e-02	1.41949260e-04
4.31000000e-01	1.49390949e-02	1.41677436e-04
4.32000000e-01	1.49457396e-02	1.41767185e-04
4.33000000e-01	1.50033536e-02	1.42394673e-04
4.34000000e-01	1.48343151e-02	1.41026783e-04
4.35000000e-01	1.50150922e-02	1.42555136e-04
4.36000000e-01	1.48284414e-02	1.41655618e-04
4.37000000e-01	1.47707499e-02	1.41173790e-04
4.38000000e-01	1.47907794e-02	1.41972095e-04
4.39000000e-01	1.48662862e-02	1.42525664e-04
4.40000000e-01	1.48344098e-02	1.42231589e-04
4.41000000e-01	1.47664760e-02	1.41696814e-04
4.42000000e-01	1.48887620e-02	1.42877018e-04
4.43000000e-01	1.49279363e-02	1.43579015e-04
4.44000000e-01	1.49053715e-02	1.43801693e-04
4.45000000e-01	1.47109936e-02	1.41984247e-04
4.46000000e-01	1.46647578e-02	1.41664034e-04
4.47000000e-01	1.48680440e-02	1.43762206e-04
4.48000000e-01	1.47205818e-02	1.42565618e-04
4.49000000e-01	1.46192711e-02	1.42063483e-04
4.50000000e-01	1.46699815e-02	1.42691669e-04
4.51000000e-01	1.47033950e-02	1.43030883e-04
4.52000000e-01	1.46925037e-02	1.42511747e-04
4.53000000e-01	1.46443000e-02	1.42789916e-04
4.54000000e-01	1.47032474e-02	1.43554239e-04
4.55000000e-01	1.46518966e-02	1.42719829e-04
4.56000000e-01	1.47559916e-02	1.43452244e-04
4.57000000e-01	1.46376868e-02	1.42745120e-04
4.58000000e-01	1.47020827e-02	1.43665236e-04
4.59000000e-01	1.46886884e-02	1.43744131e-04
4.60000000e-01	1.46069383e-02	1.42835184e-04
4.61000000e-01	1.46405488e-02	1.43440843e-04
4.62000000e-01	1.45176242e-02	1.42011943e-04
4.63000000e-01	1.44640201e-02	1.41950457e-04
4.64000000e-01	1.44707650e-02	1.42714952e-04
4.65000000e-01	1.45628913e-02	1.43334546e-04
4.66000000e-01	1.45847104e-02	1.43134301e-04
4.67000000e-01	1.44884263e-02	1.42626786e-04
4.68000000e-01	1.45263358e-02	1.42993667e-04
4.69000000e-01	1.44662763e-02	1.42696781e-04
4.70000000e-01	1.45798533e-02	1.43765997e-04
4.71000000e-01	1.45842523e-02	1.43770903e-04
4.72000000e-01	1.45589442e-02	1.43432642e-04
4.73000000e-01	1.45934844e-02	1.43334817e-04
4.74000000e-01	1.43985497e-02	1.41899774e-04
4.75000000e-01	1.43562347e-02	1.41524095e-04
4.76000000e-01	1.44110530e-02	1.41845162e-04
4.77000000e-01	1.45020634e-02	1.42965223e-04
4.78000000e-01	1.44080002e-02	1.42134655e-04
4.79000000e-01	1.45492609e-02	1.43261408e-04
4.80000000e-01	1.44168217e-02	1.42419266e-04
4.81000000e-01	1.43698888e-02	1.41845189e-04
4.82000000e-01	1.44109519e-02	1.42460483e-04
4.83000000e-01	1.45771550e-02	1.43966249e-04
4.84000000e-01	1.45009191e-02	1.43347756e-04
4.85000000e-01	1.43835621e-02	1.42267808e-04
4.86000000e-01	1.45109282e-02	1.43590270e-04
4.87000000e-01	1.43759921e-02	1.42648547e-04
4.88000000e-01	1.43648590e-02	1.42160647e-04
4.89000000e-01	1.43618377e-02	1.42277001e-04
4.90000000e-01	1.43475041e-02	1.42628083e-04
4.91000000e-01	1.43621196e-02	1.42238233e-04
4.92000000e-01	1.42380356e-02	1.41754245e-04
4.93000000e-01	1.43825881e-02	1.43023396e-04
4.94000000e-01	1.44175118e-02	1.43332870e-04
4.95000000e-01	1.42071899e-02	1.42134662e-04
4.96000000e-01	1.43005352e-02	1.47677687e-04
4.97000000e-01	1.43276993e-02	1.50336199e-04
4.98000000e-01	1.42208349e-02	1.51510974e-04
4.99000000e-01	1.42262460e-02	1.53447972e-04
5.00000000e-01	1.42982912e-02	1.55794504e-04
5.01000000e-01	1.43281889e-02	1.57323167e-04
5.02000000e-01	1.43923045e-02	1.59081944e-04
5.03000000e-01	1.42998972e-02	1.60643026e-04
5.04000000e-01	1.42990256e-02	1.61614764e-04
5.05000000e-01	1.42827399e-02	1.59228262e-04
5.06000000e-01	1.43492538e-02	1.56282616e-04
5.07000000e-01	1.43380986e-02	1.54300705e-04
5.08000000e-01	1.41412006e-02	1.51753007e-04
5.09000000e-01	1.44040438e-02	1.52776539e-04
5.10000000e-01	1.42850481e-02	1.52033542e-04
5.11000000e-01	1.42930683e-02	1.51205602e-04
5.12000000e-01	1.42780866e-02	1.50763444e-04
5.13000000e-01	1.42929508e-02	1.50940739e-04
5.14000000e-01	1.44401642e-02	1.52403788e-04
5.15000000e-01	1.40778555e-02	1.47727760e-04
5.16000000e-01	1.41024672e-02	1.47828626e-04
5.17000000e-01	1.41895776e-02	1.49009604e-04
5.18000000e-01	1.40652844e-02	1.47366783e-04
5.19000000e-01	1.41541120e-02	1.48132497e-04
5.20000000e-01	1.41135000e-02	1.47110877e-04
5.21000000e-01	1.41636230e-02	1.46618427e-04
5.22000000e-01	1.40636142e-02	1.46768704e-04
5.23000000e-01	1.40840373e-02	1.46290190e-04
5.24000000e-01	1.41173602e-02	1.46122913e-04
5.25000000e-01	1.40766530e-02	1.45841823e-04
5.26000000e-01	1.41411091e-02	1.46585097e-04
5.27000000e-01	1.40918559e-02	1.46173141e-04
5.28000000e-01	1.40945711e-02	1.45959563e-04
5.29000000e-01	1.40671432e-02	1.46155223e-04
5.30000000e-01	1.40600126e-02	1.45464352e-04
5.31000000e-01	1.39434301e-02	1.44543766e-04
5.32000000e-01	1.39997029e-02	1.45509167e-04
5.33000000e-01	1.38768510e-02	1.44674752e-04
5.34000000e-01	1.38738332e-02	1.44474587e-04
5.35000000e-01	1.39698392e-02	1.44921062e-04
5.36000000e-01	1.38283871e-02	1.43605928e-04
5.37000000e-01	1.38885915e-02	1.44428755e-04
5.38000000e-01	1.39634794e-02	1.45095078e-04
5.39000000e-01	1.40279450e-02	1.45751846e-04
5.40000000e-01	1.38763581e-02	1.44184207e-04
5.41000000e-01	1.38911875e-02	1.44093448e-04
5.42000000e-01	1.40844998e-02	1.45904395e-04
5.43000000e-01	1.39324463e-02	1.44465708e-04
5.44000000e-01	1.38243656e-02	1.43447483e-04
5.45000000e-01	1.39655492e-02	1.44893231e-04
5.46000000e-01	1.38995697e-02	1.44081556e-04
5.47000000e-01	1.37868179e-02	1.43441992e-04
5.48000000e-01	1.39599017e-02	1.45074501e-04
5.49000000e-01	1.37792689e-02	1.42958781e-04
5.50000000e-01	1.37498294e-02	1.42851594e-04
5.51000000e-01	1.37605874e-02	1.42535497e-04
5.52000000e-01	1.36896739e-02	1.41471591e-04
5.53000000e-01	1.37368422e-02	1.42328277e-04
5.54000000e-01	1.37210141e-02	1.41835828e-04
5.55000000e-01	1.38073083e-02	1.42271647e-04
5.56000000e-01	1.37462005e-02	1.42061886e-04
5.57000000e-01	1.36603174e-02	1.41275877e-04
5.58000000e-01	1.37499955e-02	1.42041685e-04
5.59000000e-01	1.37188903e-02	1.41706356e-04
5.60000000e-01	1.36499535e-02	1.41206320e-04
5.61000000e-01	1.37149095e-02	1.41136348e-04
5.62000000e-01	1.35513002e-02	1.40405243e-04
5.63000000e-01	1.36005476e-02	1.40906141e-04
5.64000000e-01	1.36037042e-02	1.40557563e-04
5.65000000e-01	1.35783824e-02	1.40340642e-04
5.66000000e-01	1.37168253e-02	1.41583611e-04
5.67000000e-01	1.35599694e-02	1.40038831e-04
5.68000000e-01	1.36303139e-02	1.41011871e-04
5.69000000e-01	1.35561216e-02	1.40091650e-04
5.70000000e-01	1.37204191e-02	1.41411363e-04
5.71000000e-01	1.35899364e-02	1.40280020e-04
5.72000000e-01	1.34667162e-02	1.39173786e-04
5.73000000e-01	1.35191528e-02	1.39579779e-04
5.74000000e-01	1.35743631e-02	1.40147643e-04
5.75000000e-01	1.35305561e-02	1.40122447e-04
5.76000000e-01	1.34671979e-02	1.39815775e-04
5.77000000e-01	1.34511070e-02	1.39093070e-04
5.78000000e-01	1.34835814e-02	1.39651766e-04
5.79000000e-01	1.35601765e-02	1.40501517e-04
5.80000000e-01	1.32753686e-02	1.37596266e-04
5.81000000e-01	1.35264882e-02	1.40746775e-04
5.82000000e-01	1.35646235e-02	1.40159833e-04
5.83000000e-01	1.34966562e-02	1.39822367e-04
5.84000000e-01	1.32607964e-02	1.37563161e-04
5.85000000e-01	1.33822400e-02	1.39055227e-04
5.86000000e-01	1.33762411e-02	1.38963513e-04
5.87000000e-01	1.33372659e-02	1.38242442e-04
5.88000000e-01	1.34560539e-02	1.39760818e-04
5.89000000e-01	1.32836070e-02	1.38018863e-04
5.90000000e-01	1.32340131e-02	1.37762486e-04
5.91000000e-01	1.33288354e-02	1.38747343e-04
5.92000000e-01	1.33172572e-02	1.38296019e-04
5.93000000e-01	1.33458856e-02	1.38863499e-04
5.94000000e-01	1.34427898e-02	1.39943141e-04
5.95000000e-01	1.34699265e-02	1.39859764e-04
5.96000000e-01	1.33993129e-02	1.39372072e-04
5.97000000e-01	1.33772186e-02	1.39149359e-04
5.98000000e-01	1.32581501e-02	1.37866244e-04
5.99000000e-01	1.33386758e-02	1.38507099e-04
6.00000000e-01	1.31399175e-02	1.36719124e-04
6.01000000e-01	1.33543325e-02	1.38882985e-04
6.02000000e-01	1.30988402e-02	1.36520000e-04
6.03000000e-01	1.31701059e-02	1.37227107e-04
6.04000000e-01	1.31161959e-02	1.36765178e-04
6.05000000e-01	1.32846238e-02	1.38601519e-04
6.06000000e-01	1.31081160e-02	1.36949378e-04
6.07000000e-01	1.31578035e-02	1.37427767e-04
6.08000000e-01	1.31242570e-02	1.36770278e-04
6.09000000e-01	1.32420825e-02	1.37702557e-04
6.10000000e-01	1.31599917e-02	1.37291791e-04
6.11000000e-01	1.31254817e-02	1.37009185e-04
6.12000000e-01	1.30896807e-02	1.36920310e-04
6.13000000e-01	1.31433492e-02	1.37266242e-04
6.14000000e-01	1.31193245e-02	1.37253724e-04
6.15000000e-01	1.31125109e-02	1.37260524e-04
6.16000000e-01	1.31871008e-02	1.37680522e-04
6.17000000e-01	1.31663534e-02	1.37436630e-04
6.18000000e-01	1.29472315e-02	1.34943096e-04
6.19000000e-01	1.32180479e-02	1.37760925e-04
6.20000000e-01	1.30778738e-02	1.35963856e-04
6.21000000e-01	1.31102606e-02	1.36322661e-04
6.22000000e-01	1.30579325e-02	1.35971900e-04
6.23000000e-01	1.31021527e-02	1.35833344e-04
6.24000000e-01	1.30843525e-02	1.35755287e-04
6.25000000e-01	1.31514193e-02	1.36130736e-04
6.26000000e-01	1.29586193e-02	1.34246028e-04
6.27000000e-01	1.29893528e-02	1.34794453e-04
6.28000000e-01	1.31130490e-02	1.36023542e-04
6.29000000e-01	1.30049230e-02	1.34668877e-04
6.30000000e-01	1.30888277e-02	1.36115948e-04
6.31000000e-01	1.28935131e-02	1.33909282e-04
6.32000000e-01	1.31515138e-02	1.36242569e-04
6.33000000e-01	1.29884544e-02	1.34526903e-04
6.34000000e-01	1.29838661e-02	1.38319954e-04
6.35000000e-01	1.30830871e-02	1.43084556e-04
6.36000000e-01	1.31941116e-02	1.46939461e-04
6.37000000e-01	1.30670335e-02	1.48086797e-04
6.38000000e-01	1.30073412e-02	1.49210083e-04
6.39000000e-01	1.31794458e-02	1.52574707e-04
6.40000000e-01	1.29965527e-02	1.53007679e-04
6.41000000e-01	1.29805550e-02	1.54139206e-04
6.42000000e-01	1.30750205e-02	1.57059831e-04
6.43000000e-01	1.29761141e-02	1.56440180e-04
6.44000000e-01	1.31736867e-02	1.51845020e-04
6.45000000e-01	1.31261465e-02	1.49804852e-04
6.46000000e-01	1.31111458e-02	1.48277617e-04
6.47000000e-01	1.31603810e-02	1.46783565e-04
6.48000000e-01	1.31117553e-02	1.46748596e-04
6.49000000e-01	1.30538968e-02	1.44697567e-04
6.50000000e-01	1.32071936e-02	1.45202760e-04
6.51000000e-01	1.30225581e-02	1.43046745e-04
6.52000000e-01	1.30173584e-02	1.42577874e-04
6.53000000e-01	1.30640667e-02	1.42321564e-04
6.54000000e-01	1.30484151e-02	1.42114103e-04
6.55000000e-01	1.30011836e-02	1.40777076e-04
6.56000000e-01	1.29614029e-02	1.41089445e-04
6.57000000e-01	1.30156048e-02	1.41133127e-04
6.58000000e-01	1.28683573e-02	1.39439418e-04
6.59000000e-01	1.29078582e-02	1.39615594e-04
6.60000000e-01	1.30564682e-02	1.40876931e-04
6.61000000e-01	1.29702381e-02	1.40102941e-04
6.62000000e-01	1.29254307e-02	1.39743951e-04
6.63000000e-01	1.29487648e-02	1.39701416e-04
6.64000000e-01	1.30571032e-02	1.40835793e-04
6.65000000e-01	1.29203244e-02	1.39661011e-04
6.66000000e-01	1.28349117e-02	1.38417715e-04
6.67000000e-01	1.28626718e-02	1.38833208e-04
6.68000000e-01	1.29260825e-02	1.38791749e-04
6.69000000e-01	1.29581456e-02	1.39629475e-04
6.70000000e-01	1.28313256e-02	1.37975946e-04
6.71000000e-01	1.29072787e-02	1.38830542e-04
6.72000000e-01	1.29059368e-02	1.38470147e-04
6.73000000e-01	1.28709633e-02	1.38380107e-04
6.74000000e-01	1.28874271e-02	1.38466336e-04
6.75000000e-01	1.28526071e-02	1.38156432e-04
6.76000000e-01	1.27225458e-02	1.36974415e-04
6.77000000e-01	1.27554260e-02	1.37175886e-04
6.78000000e-01	1.27566663e-02	1.37452553e-04
6.79000000e-01	1.27220473e-02	1.36696815e-04
6.80000000e-01	1.28234454e-02	1.38103302e-04
6.81000000e-01	1.29861069e-02	1.38864183e-04
6.82000000e-01	1.28539045e-02	1.37714419e-04
6.83000000e-01	1.27414153e-02	1.36268399e-04
6.84000000e-01	1.25983714e-02	1.35323987e-04
6.85000000e-01	1.26958125e-02	1.36047066e-04
6.86000000e-01	1.28416787e-02	1.37769691e-04
6.87000000e-01	1.27785726e-02	1.36967504e-04
6.88000000e-01	1.28096156e-02	1.37226609e-04
6.89000000e-01	1.27143847e-02	1.36158041e-04
6.90000000e-01	1.26883329e-02	1.35710166e-04
6.91000000e-01	1.27155277e-02	1.36176410e-04
6.92000000e-01	1.28408215e-02	1.37004315e-04
6.93000000e-01	1.25098870e-02	1.34185118e-04
6.94000000e-01	1.27121822e-02	1.36244100e-04
6.95000000e-01	1.27128816e-02	1.36268858e-04
6.96000000e-01	1.25162893e-02	1.34104288e-04
6.97000000e-01	1.26710043e-02	1.35847233e-04
6.98000000e-01	1.26899228e-02	1.35717322e-04
6.99000000e-01	1.26269004e-02	1.35098024e-04
7.00000000e-01	1.26411063e-02	1.35422307e-04
7.01000000e-01	1.25475793e-02	1.33892615e-04
7.02000000e-01	1.25825007e-02	1.34566205e-04
7.03000000e-01	1.25936501e-02	1.34724121e-04
7.04000000e-01	1.25637407e-02	1.34923625e-04
7.05000000e-01	1.25643483e-02	1.34829631e-04
7.06000000e-01	1.26059755e-02	1.34969818e-04
7.07000000e-01	1.25742535e-02	1.34098875e-04
7.08000000e-01	1.24874053e-02	1.33042360e-04
7.09000000e-01	1.25072673e-02	1.32973423e-04
7.10000000e-01	1.25119930e-02	1.33554501e-04
7.11000000e-01	1.24508026e-02	1.33219655e-04
7.12000000e-01	1.24746729e-02	1.33298267e-04
7.13000000e-01	1.24160239e-02	1.33026299e-04
7.14000000e-01	1.24600138e-02	1.33539834e-04
7.15000000e-01	1.24153121e-02	1.33136559e-04
7.16000000e-01	1.24140231e-02	1.33033762e-04
7.17000000e-01	1.25157390e-02	1.34141812e-04
7.18000000e-01	1.24140494e-02	1.33091354e-04
7.19000000e-01	1.23776732e-02	1.32959087e-04
7.20000000e-01	1.23251645e-02	1.32107047e-04
7.21000000e-01	1.23258366e-02	1.31586401e-04
7.22000000e-01	1.23484611e-02	1.32332425e-04
7.23000000e-01	1.22897361e-02	1.31621368e-04
7.24000000e-01	1.23476525e-02	1.31807420e-04
7.25000000e-01	1.23684628e-02	1.33057302e-04
7.26000000e-01	1.24306328e-02	1.32940894e-04
7.27000000e-01	1.23786511e-02	1.32219606e-04
7.28000000e-01	1.24014050e-02	1.32995731e-04
7.29000000e-01	1.22765669e-02	1.31734063e-04
7.30000000e-01	1.22819803e-02	1.31765239e-04
7.31000000e-01	1.22579470e-02	1.31519682e-04
7.32000000e-01	1.21840125e-02	1.30741617e-04
7.33000000e-01	1.23606863e-02	1.32318322e-04
7.34000000e-01	1.23384932e-02	1.31923642e-04
7.35000000e-01	1.22213576e-02	1.30487746e-04
7.36000000e-01	1.23034426e-02	1.31291303e-04
7.37000000e-01	1.22774065e-02	1.31130227e-04
7.38000000e-01	1.20902519e-02	1.29570577e-04
7.39000000e-01	1.22501403e-02	1.30541061e-04
7.40000000e-01	1.20694958e-02	1.28874702e-04
7.41000000e-01	1.22160963e-02	1.29405484e-04
7.42000000e-01	1.22188609e-02	1.29968244e-04
7.43000000e-01	1.21026738e-02	1.28712513e-04
7.44000000e-01	1.22401403e-02	1.29861737e-04
7.45000000e-01	1.21008029e-02	1.28308406e-04
7.46000000e-01	1.22367091e-02	1.29844778e-04
7.47000000e-01	1.21200459e-02	1.28177255e-04
7.48000000e-01	1.21010675e-02	1.28509282e-04
7.49000000e-01	1.21770234e-02	1.29356364e-04
7.50000000e-01	1.20504539e-02	1.27469202e-04
7.51000000e-01	1.19988946e-02	1.27304475e-04
7.52000000e-01	1.21033118e-02	1.29113696e-04
7.53000000e-01	1.21853171e-02	1.29080947e-04
7.54000000e-01	1.19816130e-02	1.27391162e-04
7.55000000e-01	1.20041423e-02	1.27722893e-04
7.56000000e-01	1.20421426e-02	1.27824482e-04
7.57000000e-01	1.20263718e-02	1.28413171e-04
7.58000000e-01	1.19615477e-02	1.26997155e-04
7.59000000e-01	1.20420064e-02	1.28032610e-04
7.60000000e-01	1.18271779e-02	1.25436499e-04
7.61000000e-01	1.19227463e-02	1.26327442e-04
7.62000000e-01	1.18812451e-02	1.25887543e-04
7.63000000e-01	1.17569904e-02	1.25202861e-04
7.64000000e-01	1.18989318e-02	1.25497542e-04
7.65000000e-01	1.19456386e-02	1.26011738e-04
7.66000000e-01	1.18741765e-02	1.25108086e-04
7.67000000e-01	1.18464975e-02	1.25330843e-04
7.68000000e-01	1.19620858e-02	1.26000522e-04
7.69000000e-01	1.18025890e-02	1.24563809e-04
7.70000000e-01	1.18886415e-02	1.25918659e-04
7.71000000e-01	1.19177506e-02	1.25378629e-04
7.72000000e-01	1.18722777e-02	1.28937442e-04
7.73000000e-01	1.18899625e-02	1.33408608e-04
7.74000000e-01	1.18259903e-02	1.35267766e-04
7.75000000e-01	1.18593231e-02	1.38441541e-04
7.76000000e-01	1.16161079e-02	1.37795083e-04
7.77000000e-01	1.18625517e-02	1.42119428e-04
7.78000000e-01	1.17602277e-02	1.43059616e-04
7.79000000e-01	1.16844256e-02	1.43860357e-04
7.80000000e-01	1.15828496e-02	1.44544487e-04
7.81000000e-01	1.18432434e-02	1.49660179e-04
7.82000000e-01	1.16517663e-02	1.48013940e-04
7.83000000e-01	1.17698625e-02	1.50795133e-04
7.84000000e-01	1.17538858e-02	1.53396932e-04
7.85000000e-01	1.17960935e-02	1.54888136e-04
7.86000000e-01	1.17908442e-02	1.56522805e-04
7.87000000e-01	1.17996975e-02	1.58644555e-04
7.88000000e-01	1.16244037e-02	1.57936334e-04
7.89000000e-01	1.16332286e-02	1.59270708e-04
7.90000000e-01	1.17177179e-02	1.62319218e-04
7.91000000e-01	1.16640831e-02	1.63120001e-04
7.92000000e-01	1.15796784e-02	1.62781435e-04
7.93000000e-01	1.14726943e-02	1.63636813e-04
7.94000000e-01	1.15864270e-02	1.67038652e-04
7.95000000e-01	1.14131171e-02	1.66208413e-04
7.96000000e-01	1.16080291e-02	1.70468868e-04
7.97000000e-01	1.15125356e-02	1.70773897e-04
7.98000000e-01	1.15074689e-02	1.72759185e-04
7.99000000e-01	1.13781173e-02	1.73321610e-04
8.00000000e-01	1.15232388e-02	1.77316586e-04
8.01000000e-01	1.14933815e-02	1.78112376e-04
8.02000000e-01	1.15546807e-02	1.80222381e-04
8.03000000e-01	1.13713571e-02	1.80157167e-04
8.04000000e-01	1.14433621e-02	1.83018119e-04
8.05000000e-01	1.14320482e-02	1.84334489e-04
8.06000000e-01	1.14440368e-02	1.87644451e-04
8.07000000e-01	1.12765858e-02	1.86210130e-04
8.08000000e-01	1.14778398e-02	1.90891776e-04
8.09000000e-01	1.12029633e-02	1.89432354e-04
8.10000000e-01	1.15061085e-02	1.94895899e-04
8.11000000e-01	1.14598565e-02	1.97121815e-04
8.12000000e-01	1.13192364e-02	1.98893093e-04
8.13000000e-01	1.14202284e-02	2.01427094e-04
8.14000000e-01	1.15501495e-02	2.05871978e-04
8.15000000e-01	1.11921773e-02	2.02447249e-04
8.16000000e-01	1.12754484e-02	2.06903229e-04
8.17000000e-01	1.14012373e-02	2.10933029e-04
8.18000000e-01	1.13563618e-02	2.12810057e-04
8.19000000e-01	1.12398836e-02	2.14178389e-04
8.20000000e-01	1.10948786e-02	2.13840117e-04
8.21000000e-01	1.12453730e-02	2.19745128e-04
8.22000000e-01	1.14047150e-02	2.24252907e-04
8.23000000e-01	1.09689263e-02	2.19497586e-04
8.24000000e-01	1.15466907e-02	2.31837979e-04
8.25000000e-01	1.13200768e-02	2.34646180e-04
8.26000000e-01	1.10292573e-02	2.31778064e-04
8.27000000e-01	1.13275214e-02	2.40963894e-04
8.28000000e-01	1.12854225e-02	2.42709699e-04
8.29000000e-01	1.11662378e-02	2.44997187e-04
8.30000000e-01	1.11480546e-02	2.46822032e-04
8.31000000e-01	1.12905223e-02	2.54459200e-04
8.32000000e-01	1.08231045e-02	2.49275039e-04
8.33000000e-01	1.12322997e-02	2.61366922e-04
8.34000000e-01	1.09911586e-02	2.62435413e-04
8.35000000e-01	1.11720661e-02	2.71382926e-04
8.36000000e-01	1.10878979e-02	2.73600845e-04
8.37000000e-01	1.07910260e-02	2.72788565e-04
8.38000000e-01	1.11029607e-02	2.82063071e-04
8.39000000e-01	1.09943524e-02	2.86558656e-04
8.40000000e-01	1.09802752e-02	2.92869335e-04
8.41000000e-01	1.11945870e-02	3.07307979e-04
8.42000000e-01	1.11274092e-02	3.09594742e-04
8.43000000e-01	1.08917049e-02	3.11865871e-04
8.44000000e-01	1.08488971e-02	3.17793311e-04
8.45000000e-01	1.12557577e-02	3.34036266e-04
8.46000000e-01	1.08212434e-02	3.38029010e-04
8.47000000e-01	1.08867751e-02	3.44174300e-04
8.48000000e-01	1.08101138e-02	3.53968978e-04
8.49000000e-01	1.06609659e-02	3.58973498e-04
8.50000000e-01	1.07940120e-02	3.78140667e-04
8.51000000e-01	1.08959996e-02	3.97168914e-04
8.52000000e-01	1.08795319e-02	4.12256018e-04
8.53000000e-01	1.08174732e-02	4.20605882e-04
8.54000000e-01	1.08577641e-02	4.46161518e-04
8.55000000e-01	1.06233698e-02	4.58751452e-04
8.56000000e-01	1.05983161e-02	4.63300002e-04
8.57000000e-01	1.08521892e-02	4.92371812e-04
8.58000000e-01	1.06463462e-02	4.94064763e-04
8.59000000e-01	1.03732796e-02	5.00928974e-04
8.60000000e-01	1.01590103e-02	5.07461594e-04
8.61000000e-01	1.03249981e-02	5.28582473e-04
8.62000000e-01	1.00824397e-02	5.38430556e-04
8.63000000e-01	1.10733956e-02	6.10466047e-04
8.64000000e-01	9.82591611e-03	5.77874282e-04
8.65000000e-01	1.08948898e-02	6.51737718e-04
8.66000000e-01	1.06693639e-02	6.72771069e-04
8.67000000e-01	9.90345799e-03	6.79116730e-04
8.68000000e-01	1.00119911e-02	7.31183933e-04
8.69000000e-01	1.01771001e-02	7.97327861e-04
8.70000000e-01	1.03739468e-02	8.82015699e-04
8.71000000e-01	1.09435643e-02	9.98190234e-04
8.72000000e-01	1.14780029e-02	1.18226669e-03
8.73000000e-01	9.82066381e-03	1.23264741e-03
8.74000000e-01	1.12896477e-02	1.76980150e-03
8.75000000e-01	1.28118319e-02	4.21437916e-03
