% Filename : SDL7_00012_00012.h5
% Date & Time : 30-Oct-2025 14:46:47
% X-ray Energy (keV) : 13.30001
% Exposure Time (s) : 0.500
% Beam Center : 1461.24000, 208.98300
% Sample to Detector Distance (SDD) (mm) : 1990.750
% Detector Pixel Size (mm) : 0.075
% Photodiode Value : 136005.000
% I0 of Sample : 0
% I0 of Standard : 1
% 
% q(A^-1)   I(q)    I(q)_SE
0.00000000e+00	5.31356151e-03	3.25388394e-03
2.50000000e-04	0.00000000e+00	0.00000000e+00
5.00000000e-04	0.00000000e+00	0.00000000e+00
7.50000000e-04	0.00000000e+00	0.00000000e+00
1.00000000e-03	0.00000000e+00	0.00000000e+00
1.25000000e-03	0.00000000e+00	0.00000000e+00
1.50000000e-03	0.00000000e+00	0.00000000e+00
1.75000000e-03	0.00000000e+00	0.00000000e+00
2.00000000e-03	0.00000000e+00	0.00000000e+00
2.25000000e-03	0.00000000e+00	0.00000000e+00
2.50000000e-03	0.00000000e+00	0.00000000e+00
2.75000000e-03	0.00000000e+00	0.00000000e+00
3.00000000e-03	0.00000000e+00	0.00000000e+00
3.25000000e-03	1.86543161e+01	1.11003148e+01
3.50000000e-03	8.73071568e+00	3.46528633e+00
3.75000000e-03	4.70761210e+00	1.58846960e+00
4.00000000e-03	4.36009949e+00	1.45539338e+00
4.25000000e-03	2.48584554e+00	8.10481368e-01
4.50000000e-03	3.76253291e+00	1.13574640e+00
4.75000000e-03	4.87587016e+00	1.36948586e+00
5.00000000e-03	3.80103466e+00	1.04308913e+00
5.25000000e-03	3.11674774e+00	8.40847740e-01
5.50000000e-03	2.50308684e+00	6.60109437e-01
5.75000000e-03	2.17527452e+00	5.78340109e-01
6.00000000e-03	1.72407999e+00	4.39581735e-01
6.25000000e-03	1.49524611e+00	3.81635916e-01
6.50000000e-03	1.26823672e+00	3.20750205e-01
6.75000000e-03	1.09336497e+00	2.65628933e-01
7.00000000e-03	9.40531180e-01	2.25682259e-01
7.25000000e-03	8.08290206e-01	1.91953371e-01
7.50000000e-03	6.76959517e-01	1.64740385e-01
7.75000000e-03	6.19170584e-01	1.44037757e-01
8.00000000e-03	5.58135305e-01	1.27664170e-01
8.25000000e-03	4.72462278e-01	1.05349162e-01
8.50000000e-03	4.19794285e-01	9.08708833e-02
8.75000000e-03	3.92801589e-01	8.53017406e-02
9.00000000e-03	3.44880298e-01	7.34525451e-02
9.25000000e-03	3.11288388e-01	6.58143144e-02
9.50000000e-03	2.74842594e-01	5.67735972e-02
9.75000000e-03	2.46395325e-01	4.98763619e-02
1.00000000e-02	2.17482605e-01	4.52183302e-02
1.02500000e-02	2.12923137e-01	4.28553180e-02
1.05000000e-02	1.91224616e-01	3.71447936e-02
1.07500000e-02	1.78636576e-01	3.48724723e-02
1.10000000e-02	1.61809265e-01	2.98676984e-02
1.12500000e-02	1.41602877e-01	2.63206881e-02
1.15000000e-02	1.38483636e-01	2.53865003e-02
1.17500000e-02	1.19835916e-01	2.14992429e-02
1.20000000e-02	1.21403420e-01	2.16318679e-02
1.22500000e-02	1.14022570e-01	2.00445786e-02
1.25000000e-02	1.07519613e-01	1.83453954e-02
1.27500000e-02	9.84800734e-02	1.63876267e-02
1.30000000e-02	9.38217559e-02	1.55952555e-02
1.32500000e-02	8.81158105e-02	1.45797080e-02
1.35000000e-02	8.46234367e-02	1.30577467e-02
1.37500000e-02	7.72554467e-02	1.19089942e-02
1.40000000e-02	7.54226149e-02	1.11630236e-02
1.42500000e-02	6.87530810e-02	1.02265495e-02
1.45000000e-02	6.60106809e-02	9.45603050e-03
1.47500000e-02	6.18875137e-02	8.62362872e-03
1.50000000e-02	6.04525875e-02	8.52872329e-03
1.52500000e-02	5.78571461e-02	7.96543236e-03
1.55000000e-02	5.49261493e-02	6.98567247e-03
1.57500000e-02	5.19609742e-02	6.48799981e-03
1.60000000e-02	5.04359594e-02	6.15694228e-03
1.62500000e-02	4.91709462e-02	6.00699550e-03
1.65000000e-02	4.64879840e-02	5.53196338e-03
1.67500000e-02	4.52919146e-02	5.00813374e-03
1.70000000e-02	4.40134136e-02	4.92528279e-03
1.72500000e-02	4.30398706e-02	4.80716168e-03
1.75000000e-02	4.16367073e-02	4.50459837e-03
1.77500000e-02	4.01912245e-02	4.04355399e-03
1.80000000e-02	3.89778976e-02	3.95320712e-03
1.82500000e-02	3.77966449e-02	3.56100073e-03
1.85000000e-02	3.83297731e-02	3.67950745e-03
1.87500000e-02	3.72131436e-02	3.29242308e-03
1.90000000e-02	3.64980992e-02	3.25632637e-03
1.92500000e-02	3.45396503e-02	3.08609806e-03
1.95000000e-02	3.36611505e-02	2.82807959e-03
1.97500000e-02	3.40098257e-02	2.92874975e-03
2.00000000e-02	3.15390569e-02	2.59054442e-03
2.02500000e-02	3.20432686e-02	2.58445659e-03
2.05000000e-02	3.25230739e-02	2.49074558e-03
2.07500000e-02	3.25548665e-02	2.43241088e-03
2.10000000e-02	3.16304661e-02	2.33195260e-03
2.12500000e-02	3.07903392e-02	2.33911986e-03
2.15000000e-02	3.06036745e-02	2.26150797e-03
2.17500000e-02	3.09634017e-02	2.19890923e-03
2.20000000e-02	3.11151653e-02	2.23010013e-03
2.22500000e-02	2.96146099e-02	2.07726818e-03
2.25000000e-02	2.98725409e-02	2.04108627e-03
2.27500000e-02	2.87373745e-02	1.96812846e-03
2.30000000e-02	2.97709296e-02	2.04605317e-03
2.32500000e-02	2.76680777e-02	1.81000045e-03
2.35000000e-02	2.86239495e-02	1.91281500e-03
2.37500000e-02	2.73698330e-02	1.75702772e-03
2.40000000e-02	2.79807551e-02	1.76136751e-03
2.42500000e-02	2.81973265e-02	1.70791513e-03
2.45000000e-02	2.76504715e-02	1.73528375e-03
2.47500000e-02	2.72842399e-02	1.68554634e-03
2.50000000e-02	2.73958432e-02	1.66880098e-03
2.52500000e-02	2.62252161e-02	1.59190086e-03
2.55000000e-02	2.69629265e-02	1.57295944e-03
2.57500000e-02	2.58917114e-02	1.51802702e-03
2.60000000e-02	2.64674706e-02	1.54258224e-03
2.62500000e-02	2.61558926e-02	1.44643716e-03
2.65000000e-02	2.58404965e-02	1.44509027e-03
2.67500000e-02	2.49168813e-02	1.36940953e-03
2.70000000e-02	2.60669765e-02	1.49471578e-03
2.72500000e-02	2.50605065e-02	1.37159587e-03
2.75000000e-02	2.56941645e-02	1.37832085e-03
2.77500000e-02	2.51784113e-02	1.36604308e-03
2.80000000e-02	2.52522198e-02	1.36929638e-03
2.82500000e-02	2.57147671e-02	1.34452026e-03
2.85000000e-02	2.50587019e-02	1.34615257e-03
2.87500000e-02	2.50004545e-02	1.31150124e-03
2.90000000e-02	2.68141273e-02	1.45986141e-03
2.92500000e-02	2.49681180e-02	1.27440768e-03
2.95000000e-02	2.54780075e-02	1.31034193e-03
2.97500000e-02	2.53524429e-02	1.29938255e-03
3.00000000e-02	2.51692523e-02	1.28871073e-03
3.02500000e-02	2.51914962e-02	1.30161742e-03
3.05000000e-02	2.50281005e-02	1.23936431e-03
3.07500000e-02	2.60359432e-02	1.29634594e-03
3.10000000e-02	2.42484391e-02	1.20539630e-03
3.12500000e-02	2.43337342e-02	1.21865325e-03
3.15000000e-02	2.47228890e-02	1.21811294e-03
3.17500000e-02	2.42180892e-02	1.18687791e-03
3.20000000e-02	2.45159838e-02	1.19620608e-03
3.22500000e-02	2.43529772e-02	1.17762928e-03
3.25000000e-02	2.37759391e-02	1.15594981e-03
3.27500000e-02	2.33122367e-02	1.13166044e-03
3.30000000e-02	2.40852557e-02	1.15172698e-03
3.32500000e-02	2.34471710e-02	1.11897625e-03
3.35000000e-02	2.33538299e-02	1.12701459e-03
3.37500000e-02	2.38339363e-02	1.12478180e-03
3.40000000e-02	2.39024288e-02	1.13137574e-03
3.42500000e-02	2.34356596e-02	1.10140553e-03
3.45000000e-02	2.25056726e-02	1.06710418e-03
3.47500000e-02	2.31573678e-02	1.08851737e-03
3.50000000e-02	2.34268895e-02	1.10137217e-03
3.52500000e-02	2.27819382e-02	1.05483734e-03
3.55000000e-02	2.24147648e-02	1.04469514e-03
3.57500000e-02	2.20457505e-02	1.02858006e-03
3.60000000e-02	2.35731740e-02	1.08565211e-03
3.62500000e-02	2.26670357e-02	1.07053740e-03
3.65000000e-02	2.28821588e-02	1.04637974e-03
3.67500000e-02	2.23469465e-02	1.02111589e-03
3.70000000e-02	2.25027390e-02	1.01893887e-03
3.72500000e-02	2.23084310e-02	1.02450772e-03
3.75000000e-02	2.24462368e-02	1.03718925e-03
3.77500000e-02	2.19022915e-02	9.99309252e-04
3.80000000e-02	2.21774557e-02	9.92824110e-04
3.82500000e-02	2.20644551e-02	9.81960996e-04
3.85000000e-02	2.28279181e-02	1.02867434e-03
3.87500000e-02	2.18219311e-02	9.69731181e-04
3.90000000e-02	2.23469230e-02	1.00982021e-03
3.92500000e-02	2.25616138e-02	9.91574046e-04
3.95000000e-02	2.18672463e-02	9.73083449e-04
3.97500000e-02	2.19141126e-02	9.82259139e-04
4.00000000e-02	2.13498114e-02	9.52844344e-04
4.02500000e-02	2.22885876e-02	9.78346302e-04
4.05000000e-02	2.15199983e-02	9.44736549e-04
4.07500000e-02	2.23476759e-02	9.79823494e-04
4.10000000e-02	2.17648910e-02	9.60536869e-04
4.12500000e-02	2.22577037e-02	9.71287071e-04
4.15000000e-02	2.22789380e-02	9.60887794e-04
4.17500000e-02	2.18659151e-02	9.48203610e-04
4.20000000e-02	2.18949968e-02	9.33359912e-04
4.22500000e-02	2.22605915e-02	9.45270309e-04
4.25000000e-02	2.11298686e-02	9.09107817e-04
4.27500000e-02	2.16036669e-02	9.19237515e-04
4.30000000e-02	2.19816476e-02	9.33739008e-04
4.32500000e-02	2.20609270e-02	9.40393865e-04
4.35000000e-02	2.13796799e-02	9.21436810e-04
4.37500000e-02	2.11659855e-02	9.01381351e-04
4.40000000e-02	2.10985328e-02	9.04167177e-04
4.42500000e-02	2.10505772e-02	8.94376199e-04
4.45000000e-02	2.14123843e-02	8.99320942e-04
4.47500000e-02	2.16239266e-02	9.09781519e-04
4.50000000e-02	2.16229822e-02	9.20679722e-04
4.52500000e-02	2.10864657e-02	8.86026477e-04
4.55000000e-02	2.15041121e-02	8.99658017e-04
4.57500000e-02	2.10742831e-02	8.73490755e-04
4.60000000e-02	2.12349971e-02	8.88669798e-04
4.62500000e-02	2.11046037e-02	8.84210970e-04
4.65000000e-02	2.12415126e-02	8.83360191e-04
4.67500000e-02	2.10948044e-02	8.62419981e-04
4.70000000e-02	2.19950930e-02	9.06360705e-04
4.72500000e-02	2.10262832e-02	8.75810323e-04
4.75000000e-02	2.14700144e-02	8.90112316e-04
4.77500000e-02	2.14619279e-02	8.78950293e-04
4.80000000e-02	2.10963399e-02	8.55229383e-04
4.82500000e-02	2.15851496e-02	8.83347737e-04
4.85000000e-02	2.10748145e-02	8.67257069e-04
4.87500000e-02	2.10126143e-02	8.58015926e-04
4.90000000e-02	2.14610657e-02	8.74923792e-04
4.92500000e-02	2.03504435e-02	8.22452245e-04
4.95000000e-02	2.13806943e-02	8.64073587e-04
4.97500000e-02	2.04971033e-02	8.41004881e-04
5.00000000e-02	2.13925386e-02	8.65209227e-04
5.02500000e-02	2.15643563e-02	8.55342944e-04
5.05000000e-02	2.11414446e-02	8.50926419e-04
5.07500000e-02	2.14516648e-02	8.56677835e-04
5.10000000e-02	2.10551340e-02	8.41150781e-04
5.12500000e-02	2.14031516e-02	8.55072299e-04
5.15000000e-02	2.06971004e-02	8.22230112e-04
5.17500000e-02	2.04260998e-02	8.17964655e-04
5.20000000e-02	2.07361051e-02	8.27001446e-04
5.22500000e-02	2.04663871e-02	8.20917697e-04
5.25000000e-02	2.07360116e-02	8.15844951e-04
5.27500000e-02	2.14331182e-02	8.43088835e-04
5.30000000e-02	2.03401351e-02	8.05323581e-04
5.32500000e-02	2.13059542e-02	8.30615267e-04
5.35000000e-02	2.06077985e-02	8.20069816e-04
5.37500000e-02	2.09885894e-02	8.17840853e-04
5.40000000e-02	2.08940452e-02	8.18962312e-04
5.42500000e-02	2.02534236e-02	7.92142638e-04
5.45000000e-02	2.05470252e-02	8.04387468e-04
5.47500000e-02	2.05115889e-02	7.92659791e-04
5.50000000e-02	2.11237748e-02	8.24173850e-04
5.52500000e-02	2.05809783e-02	8.00253454e-04
5.55000000e-02	2.06188849e-02	7.96742074e-04
5.57500000e-02	2.09849140e-02	8.06676033e-04
5.60000000e-02	2.09922178e-02	8.13687225e-04
5.62500000e-02	2.03961422e-02	7.87722531e-04
5.65000000e-02	2.07052172e-02	7.94865121e-04
5.67500000e-02	2.01171863e-02	7.79908944e-04
5.70000000e-02	2.03559969e-02	7.78763173e-04
5.72500000e-02	2.10559917e-02	8.06075817e-04
5.75000000e-02	2.03114697e-02	7.81699973e-04
5.77500000e-02	2.06940322e-02	7.88256624e-04
5.80000000e-02	2.05256747e-02	7.77291572e-04
5.82500000e-02	2.07235756e-02	7.87482678e-04
5.85000000e-02	2.06105796e-02	7.82750393e-04
5.87500000e-02	2.01303378e-02	7.59343322e-04
5.90000000e-02	2.13248335e-02	8.06694615e-04
5.92500000e-02	2.06477240e-02	7.77152425e-04
5.95000000e-02	2.04858067e-02	7.66285910e-04
5.97500000e-02	2.10883022e-02	7.92743506e-04
6.00000000e-02	2.05728728e-02	7.70208755e-04
6.02500000e-02	1.98631367e-02	7.40368024e-04
6.05000000e-02	2.01487375e-02	7.51013592e-04
6.07500000e-02	2.04756939e-02	7.69845574e-04
6.10000000e-02	2.13134551e-02	7.88091942e-04
6.12500000e-02	2.05928738e-02	7.62676172e-04
6.15000000e-02	2.01053045e-02	7.45585815e-04
6.17500000e-02	1.98255277e-02	7.40094837e-04
6.20000000e-02	1.99441963e-02	7.35444337e-04
6.22500000e-02	2.09942173e-02	7.76983198e-04
6.25000000e-02	2.06340181e-02	7.61325106e-04
6.27500000e-02	2.00873956e-02	7.31301717e-04
6.30000000e-02	2.01464533e-02	7.38659581e-04
6.32500000e-02	1.95522977e-02	7.22217122e-04
6.35000000e-02	2.03860015e-02	7.44685955e-04
6.37500000e-02	2.07906718e-02	7.70176151e-04
6.40000000e-02	1.99634399e-02	7.33120553e-04
6.42500000e-02	2.01664560e-02	7.32066931e-04
6.45000000e-02	2.01430007e-02	7.30948036e-04
6.47500000e-02	2.05164447e-02	7.43270236e-04
6.50000000e-02	2.02071303e-02	7.31595103e-04
6.52500000e-02	2.02722388e-02	7.37329723e-04
6.55000000e-02	2.05466463e-02	7.36564591e-04
6.57500000e-02	2.01443641e-02	7.27529695e-04
6.60000000e-02	2.07562828e-02	7.43457987e-04
6.62500000e-02	2.01008100e-02	7.22951644e-04
6.65000000e-02	2.02859225e-02	7.26631613e-04
6.67500000e-02	2.02868371e-02	7.22659653e-04
6.70000000e-02	2.06018545e-02	7.41647024e-04
6.72500000e-02	1.98881776e-02	7.18924817e-04
6.75000000e-02	1.96297749e-02	7.00477000e-04
6.77500000e-02	2.01423660e-02	7.19023451e-04
6.80000000e-02	2.00525021e-02	7.15799870e-04
6.82500000e-02	1.99069200e-02	7.14214731e-04
6.85000000e-02	2.02782695e-02	7.29471892e-04
6.87500000e-02	2.05954765e-02	7.28505561e-04
6.90000000e-02	2.01858798e-02	7.12714091e-04
6.92500000e-02	1.99865700e-02	7.07885223e-04
6.95000000e-02	2.05746062e-02	7.26915663e-04
6.97500000e-02	2.09094405e-02	7.35783879e-04
7.00000000e-02	2.05165489e-02	7.16631362e-04
7.02500000e-02	2.10478221e-02	7.31097153e-04
7.05000000e-02	2.00110519e-02	6.93465633e-04
7.07500000e-02	2.09748050e-02	7.32914748e-04
7.10000000e-02	2.01534713e-02	7.04049785e-04
7.12500000e-02	2.00024722e-02	6.96148289e-04
7.15000000e-02	2.07843635e-02	7.18258097e-04
7.17500000e-02	2.03009066e-02	7.01284984e-04
7.20000000e-02	2.04444661e-02	7.14647913e-04
7.22500000e-02	1.95635213e-02	6.81952937e-04
7.25000000e-02	2.01475157e-02	6.97754792e-04
7.27500000e-02	1.97895840e-02	6.84362151e-04
7.30000000e-02	2.01086749e-02	6.90683107e-04
7.32500000e-02	2.04138572e-02	7.01690307e-04
7.35000000e-02	2.01214544e-02	6.93481268e-04
7.37500000e-02	1.97419921e-02	6.75094978e-04
7.40000000e-02	1.99181651e-02	6.84652344e-04
7.42500000e-02	2.00098672e-02	6.86038188e-04
7.45000000e-02	1.99283061e-02	6.86279225e-04
7.47500000e-02	1.96456464e-02	6.75149322e-04
7.50000000e-02	1.91769514e-02	6.60692303e-04
7.52500000e-02	2.04039948e-02	6.97729809e-04
7.55000000e-02	1.97278397e-02	6.68091480e-04
7.57500000e-02	2.04918321e-02	6.94713058e-04
7.60000000e-02	1.94643756e-02	6.61957371e-04
7.62500000e-02	1.97555199e-02	6.71505655e-04
7.65000000e-02	2.02753273e-02	6.88564013e-04
7.67500000e-02	2.04803497e-02	6.91370752e-04
7.70000000e-02	1.99784530e-02	6.69411242e-04
7.72500000e-02	2.00400018e-02	6.87401189e-04
7.75000000e-02	2.03839000e-02	7.06805505e-04
7.77500000e-02	1.99744706e-02	6.94753150e-04
7.80000000e-02	1.98996228e-02	6.95823522e-04
7.82500000e-02	1.98210053e-02	6.99859300e-04
7.85000000e-02	2.01030842e-02	7.08453690e-04
7.87500000e-02	2.05354967e-02	7.19637013e-04
7.90000000e-02	1.99063134e-02	7.08195064e-04
7.92500000e-02	1.96683393e-02	7.07192289e-04
7.95000000e-02	1.99567948e-02	7.14150385e-04
7.97500000e-02	1.99579910e-02	7.18512850e-04
8.00000000e-02	2.00376019e-02	7.10898303e-04
8.02500000e-02	1.97267696e-02	7.05484144e-04
8.05000000e-02	2.00720322e-02	7.23347370e-04
8.07500000e-02	2.04266830e-02	7.39287499e-04
8.10000000e-02	1.96332073e-02	7.22123664e-04
8.12500000e-02	2.03021316e-02	7.41365000e-04
8.15000000e-02	1.93832592e-02	7.05204107e-04
8.17500000e-02	1.97103937e-02	7.20543721e-04
8.20000000e-02	1.99207021e-02	7.20271969e-04
8.22500000e-02	1.98568047e-02	7.24856532e-04
8.25000000e-02	1.98540550e-02	7.24404439e-04
8.27500000e-02	2.03092278e-02	7.34769996e-04
8.30000000e-02	2.00477046e-02	7.42443326e-04
8.32500000e-02	2.02686417e-02	7.43755222e-04
8.35000000e-02	2.04032426e-02	7.60489117e-04
8.37500000e-02	2.01271303e-02	7.33312500e-04
8.40000000e-02	2.01850627e-02	7.44364526e-04
8.42500000e-02	1.96616455e-02	7.29372682e-04
8.45000000e-02	1.94137866e-02	7.21578262e-04
8.47500000e-02	2.01416140e-02	7.45323907e-04
8.50000000e-02	1.95890582e-02	7.27894531e-04
8.52500000e-02	1.97379039e-02	7.35938644e-04
8.55000000e-02	1.96606244e-02	7.30911194e-04
8.57500000e-02	1.96249166e-02	7.38445113e-04
8.60000000e-02	2.02459039e-02	7.54064975e-04
8.62500000e-02	2.03861966e-02	7.54569689e-04
8.65000000e-02	1.97615647e-02	7.34952192e-04
8.67500000e-02	2.03446614e-02	7.48352124e-04
8.70000000e-02	2.03527863e-02	7.40557256e-04
8.72500000e-02	1.98522643e-02	7.10172969e-04
8.75000000e-02	1.93194594e-02	6.87994856e-04
8.77500000e-02	2.01627454e-02	7.06355811e-04
8.80000000e-02	2.04489658e-02	7.26796732e-04
8.82500000e-02	2.03002775e-02	7.11596385e-04
8.85000000e-02	1.98080247e-02	6.94840844e-04
8.87500000e-02	1.98174093e-02	6.83776478e-04
8.90000000e-02	2.01642073e-02	7.00249458e-04
8.92500000e-02	1.98065021e-02	6.82938056e-04
8.95000000e-02	1.99850918e-02	6.88826107e-04
8.97500000e-02	2.01333319e-02	6.87561480e-04
9.00000000e-02	1.97400336e-02	6.65552008e-04
9.02500000e-02	1.97977602e-02	6.75097304e-04
9.05000000e-02	1.98704164e-02	6.77708561e-04
9.07500000e-02	1.92585771e-02	6.55075877e-04
9.10000000e-02	1.91213803e-02	6.45027496e-04
9.12500000e-02	2.02236894e-02	6.78738371e-04
9.15000000e-02	2.04334135e-02	6.88317402e-04
9.17500000e-02	2.00014757e-02	6.70251590e-04
9.20000000e-02	1.98310906e-02	6.62918788e-04
9.22500000e-02	1.97640941e-02	6.61031898e-04
9.25000000e-02	1.99803507e-02	6.64735072e-04
9.27500000e-02	2.03120507e-02	6.72203841e-04
9.30000000e-02	1.98415901e-02	6.60979758e-04
9.32500000e-02	2.00299173e-02	6.65182263e-04
9.35000000e-02	1.97007363e-02	6.55661566e-04
9.37500000e-02	1.94162067e-02	6.40602639e-04
9.40000000e-02	2.03497869e-02	6.68233389e-04
9.42500000e-02	1.95846722e-02	6.44647125e-04
9.45000000e-02	1.98747692e-02	6.53610327e-04
9.47500000e-02	1.97361644e-02	6.42058461e-04
9.50000000e-02	1.97402009e-02	6.47075898e-04
9.52500000e-02	1.98163656e-02	6.52087514e-04
9.55000000e-02	2.00052529e-02	6.52773969e-04
9.57500000e-02	1.96623392e-02	6.44799013e-04
9.60000000e-02	1.97535215e-02	6.42731237e-04
9.62500000e-02	2.00496289e-02	6.46108723e-04
9.65000000e-02	1.97334239e-02	6.35566597e-04
9.67500000e-02	1.97528446e-02	6.37896546e-04
9.70000000e-02	1.97991406e-02	6.40900365e-04
9.72500000e-02	2.02295458e-02	6.48538461e-04
9.75000000e-02	2.01130981e-02	6.48950011e-04
9.77500000e-02	2.00329599e-02	6.40897061e-04
9.80000000e-02	2.03012767e-02	6.45498071e-04
9.82500000e-02	1.98106611e-02	6.36666047e-04
9.85000000e-02	1.95307660e-02	6.24141898e-04
9.87500000e-02	1.99303789e-02	6.40210405e-04
9.90000000e-02	2.00364742e-02	6.37430114e-04
9.92500000e-02	1.95067335e-02	6.23500956e-04
9.95000000e-02	1.96883141e-02	6.26555046e-04
9.97500000e-02	1.91494911e-02	6.13823247e-04
1.00000000e-01	1.94059095e-02	5.06594291e-04
1.00500000e-01	1.96983615e-02	4.44796173e-04
1.01000000e-01	1.96005544e-02	4.37104822e-04
1.01500000e-01	1.98815467e-02	4.40245725e-04
1.02000000e-01	1.95056326e-02	4.31019606e-04
1.02500000e-01	1.95965357e-02	4.32665736e-04
1.03000000e-01	1.93886183e-02	4.28329866e-04
1.03500000e-01	1.96130392e-02	4.31286012e-04
1.04000000e-01	1.99006901e-02	4.35894935e-04
1.04500000e-01	1.98078864e-02	4.34950623e-04
1.05000000e-01	1.96098931e-02	4.28372870e-04
1.05500000e-01	1.95605027e-02	4.23458066e-04
1.06000000e-01	1.97386465e-02	4.27357290e-04
1.06500000e-01	1.97518467e-02	4.26024623e-04
1.07000000e-01	1.98489694e-02	4.34477826e-04
1.07500000e-01	1.95484136e-02	4.33712511e-04
1.08000000e-01	1.97429197e-02	4.42381339e-04
1.08500000e-01	1.93749343e-02	4.40644734e-04
1.09000000e-01	1.96593719e-02	4.46121869e-04
1.09500000e-01	1.95208141e-02	4.46590283e-04
1.10000000e-01	1.96712647e-02	4.46182661e-04
1.10500000e-01	1.99400646e-02	4.42159374e-04
1.11000000e-01	1.98955095e-02	4.34161719e-04
1.11500000e-01	1.97418062e-02	4.27020456e-04
1.12000000e-01	1.99576620e-02	4.26592020e-04
1.12500000e-01	1.94505905e-02	4.15285411e-04
1.13000000e-01	1.97823153e-02	4.22656047e-04
1.13500000e-01	1.98208242e-02	4.17495434e-04
1.14000000e-01	1.99068569e-02	4.19784944e-04
1.14500000e-01	1.98142655e-02	4.17572467e-04
1.15000000e-01	1.95992014e-02	4.11117067e-04
1.15500000e-01	1.93419958e-02	4.05947271e-04
1.16000000e-01	1.98169359e-02	4.14594292e-04
1.16500000e-01	1.95893306e-02	4.08293487e-04
1.17000000e-01	1.96806118e-02	4.08305751e-04
1.17500000e-01	1.99546220e-02	4.14874087e-04
1.18000000e-01	1.94870771e-02	4.04667531e-04
1.18500000e-01	1.96977939e-02	4.04047450e-04
1.19000000e-01	1.96558410e-02	4.03594402e-04
1.19500000e-01	1.94517176e-02	3.99836333e-04
1.20000000e-01	1.96757080e-02	4.03259148e-04
1.20500000e-01	1.95452833e-02	3.96773496e-04
1.21000000e-01	1.96334362e-02	3.99487568e-04
1.21500000e-01	1.92772409e-02	3.95684862e-04
1.22000000e-01	1.97564978e-02	4.01195928e-04
1.22500000e-01	1.96946133e-02	3.98841777e-04
1.23000000e-01	1.97224742e-02	4.00881356e-04
1.23500000e-01	1.96399400e-02	3.95145038e-04
1.24000000e-01	1.97761050e-02	3.99140312e-04
1.24500000e-01	1.97120473e-02	3.95452066e-04
1.25000000e-01	1.95386599e-02	3.90560809e-04
1.25500000e-01	1.98973856e-02	3.96238614e-04
1.26000000e-01	1.99863256e-02	3.98817356e-04
1.26500000e-01	1.99354380e-02	3.96152875e-04
1.27000000e-01	1.91321609e-02	3.81077953e-04
1.27500000e-01	1.94414361e-02	3.86733264e-04
1.28000000e-01	1.93768588e-02	3.85742183e-04
1.28500000e-01	1.96202870e-02	3.86673093e-04
1.29000000e-01	1.94981033e-02	3.85379552e-04
1.29500000e-01	1.95921788e-02	3.85975265e-04
1.30000000e-01	1.95534562e-02	3.85547715e-04
1.30500000e-01	1.95653893e-02	3.82459028e-04
1.31000000e-01	1.94243033e-02	3.78567371e-04
1.31500000e-01	1.94403905e-02	3.77764705e-04
1.32000000e-01	1.98566277e-02	3.86048104e-04
1.32500000e-01	1.98318910e-02	3.85460628e-04
1.33000000e-01	1.95980654e-02	3.80239028e-04
1.33500000e-01	2.00537413e-02	3.84200466e-04
1.34000000e-01	1.98686331e-02	3.84213149e-04
1.34500000e-01	1.94753662e-02	3.73659199e-04
1.35000000e-01	1.97986425e-02	3.78124027e-04
1.35500000e-01	1.93942764e-02	3.71198548e-04
1.36000000e-01	1.94191672e-02	3.70030166e-04
1.36500000e-01	1.99335592e-02	3.80754796e-04
1.37000000e-01	1.96088466e-02	3.73327145e-04
1.37500000e-01	1.97083916e-02	3.75002743e-04
1.38000000e-01	1.99757183e-02	3.77269019e-04
1.38500000e-01	1.97378775e-02	3.73796949e-04
1.39000000e-01	1.94705403e-02	3.69236224e-04
1.39500000e-01	1.96301509e-02	3.70650435e-04
1.40000000e-01	1.91732717e-02	3.62755747e-04
1.40500000e-01	1.95057486e-02	3.68586981e-04
1.41000000e-01	1.93041226e-02	3.63285192e-04
1.41500000e-01	1.94996979e-02	3.64617883e-04
1.42000000e-01	1.93185629e-02	3.61740530e-04
1.42500000e-01	1.95642962e-02	3.67749444e-04
1.43000000e-01	1.97450525e-02	3.67672632e-04
1.43500000e-01	1.95092492e-02	3.64527264e-04
1.44000000e-01	1.92096102e-02	3.58888948e-04
1.44500000e-01	1.97743151e-02	3.66452026e-04
1.45000000e-01	1.94740058e-02	3.62643563e-04
1.45500000e-01	1.92520085e-02	3.56986460e-04
1.46000000e-01	1.93501866e-02	3.59906116e-04
1.46500000e-01	1.93404725e-02	3.57766150e-04
1.47000000e-01	1.93957619e-02	3.58122325e-04
1.47500000e-01	1.95694960e-02	3.60738253e-04
1.48000000e-01	1.93253072e-02	3.55850391e-04
1.48500000e-01	1.94920576e-02	3.57559606e-04
1.49000000e-01	1.96118554e-02	3.59484337e-04
1.49500000e-01	1.90130745e-02	3.49265286e-04
1.50000000e-01	1.93214309e-02	3.52226765e-04
1.50500000e-01	1.91978095e-02	3.54258695e-04
1.51000000e-01	1.94614989e-02	3.54275309e-04
1.51500000e-01	1.94027158e-02	3.52597833e-04
1.52000000e-01	1.93209845e-02	3.49213995e-04
1.52500000e-01	1.97566169e-02	3.56463236e-04
1.53000000e-01	1.93553297e-02	3.50570970e-04
1.53500000e-01	1.92677529e-02	3.47959034e-04
1.54000000e-01	1.92736974e-02	3.48866456e-04
1.54500000e-01	1.94659496e-02	3.56299777e-04
1.55000000e-01	1.91452102e-02	3.55408482e-04
1.55500000e-01	1.91015902e-02	3.56838106e-04
1.56000000e-01	1.88644946e-02	3.55940461e-04
1.56500000e-01	1.88309768e-02	3.52695506e-04
1.57000000e-01	1.91158760e-02	3.60264897e-04
1.57500000e-01	1.89582741e-02	3.50170971e-04
1.58000000e-01	1.93510912e-02	3.52664330e-04
1.58500000e-01	1.91454601e-02	3.46734097e-04
1.59000000e-01	1.89276519e-02	3.42068312e-04
1.59500000e-01	1.91802277e-02	3.45005220e-04
1.60000000e-01	1.91256749e-02	3.45163577e-04
1.60500000e-01	1.86464881e-02	3.34389900e-04
1.61000000e-01	1.91872441e-02	3.43103040e-04
1.61500000e-01	1.88603231e-02	3.36337173e-04
1.62000000e-01	1.87700785e-02	3.34841834e-04
1.62500000e-01	1.92714377e-02	3.41629095e-04
1.63000000e-01	1.91915143e-02	3.39732294e-04
1.63500000e-01	1.95582369e-02	3.45871029e-04
1.64000000e-01	1.90911876e-02	3.36661241e-04
1.64500000e-01	1.90750055e-02	3.36899107e-04
1.65000000e-01	1.92734735e-02	3.37806137e-04
1.65500000e-01	1.91383297e-02	3.35979165e-04
1.66000000e-01	1.91327093e-02	3.37234856e-04
1.66500000e-01	1.90110481e-02	3.32457603e-04
1.67000000e-01	1.89706846e-02	3.31114137e-04
1.67500000e-01	1.89793145e-02	3.32096191e-04
1.68000000e-01	1.87733267e-02	3.28485976e-04
1.68500000e-01	1.87917777e-02	3.28002759e-04
1.69000000e-01	1.89544232e-02	3.28768722e-04
1.69500000e-01	1.90720575e-02	3.29775952e-04
1.70000000e-01	1.88008520e-02	3.24777176e-04
1.70500000e-01	1.86035978e-02	3.21991660e-04
1.71000000e-01	1.87748901e-02	3.26461884e-04
1.71500000e-01	1.88090466e-02	3.26141958e-04
1.72000000e-01	1.88835554e-02	3.25525918e-04
1.72500000e-01	1.89970715e-02	3.27182472e-04
1.73000000e-01	1.89776645e-02	3.25809866e-04
1.73500000e-01	1.88084612e-02	3.20603966e-04
1.74000000e-01	1.89100595e-02	3.23614796e-04
1.74500000e-01	1.87340801e-02	3.18933206e-04
1.75000000e-01	1.89616327e-02	3.20920118e-04
1.75500000e-01	1.86737241e-02	3.16281318e-04
1.76000000e-01	1.87500638e-02	3.18177331e-04
1.76500000e-01	1.89158608e-02	3.20190912e-04
1.77000000e-01	1.87429455e-02	3.17288423e-04
1.77500000e-01	1.87127260e-02	3.17887065e-04
1.78000000e-01	1.86401836e-02	3.15345529e-04
1.78500000e-01	1.86854454e-02	3.15965261e-04
1.79000000e-01	1.86820365e-02	3.13492319e-04
1.79500000e-01	1.88632348e-02	3.17178097e-04
1.80000000e-01	1.89434356e-02	3.18900390e-04
1.80500000e-01	1.87890570e-02	3.15123159e-04
1.81000000e-01	1.85842258e-02	3.11481535e-04
1.81500000e-01	1.88699317e-02	3.15434161e-04
1.82000000e-01	1.86432386e-02	3.13479864e-04
1.82500000e-01	1.86481154e-02	3.11533868e-04
1.83000000e-01	1.85810566e-02	3.10603240e-04
1.83500000e-01	1.90340909e-02	3.16327041e-04
1.84000000e-01	1.87931591e-02	3.13719937e-04
1.84500000e-01	1.84615324e-02	3.07703556e-04
1.85000000e-01	1.85982209e-02	3.09740362e-04
1.85500000e-01	1.84210831e-02	3.06704705e-04
1.86000000e-01	1.85173277e-02	3.06380805e-04
1.86500000e-01	1.87424734e-02	3.08505271e-04
1.87000000e-01	1.87661859e-02	3.10352393e-04
1.87500000e-01	1.84411500e-02	3.04522436e-04
1.88000000e-01	1.86297899e-02	3.07914560e-04
1.88500000e-01	1.85608546e-02	3.05361499e-04
1.89000000e-01	1.86261864e-02	3.06044341e-04
1.89500000e-01	1.85775978e-02	3.05772844e-04
1.90000000e-01	1.84845226e-02	3.02423678e-04
1.90500000e-01	1.84921362e-02	3.03053369e-04
1.91000000e-01	1.84204769e-02	3.00246516e-04
1.91500000e-01	1.85773083e-02	3.05384833e-04
1.92000000e-01	1.85333505e-02	3.00621470e-04
1.92500000e-01	1.83872931e-02	3.00459019e-04
1.93000000e-01	1.80596024e-02	2.96683350e-04
1.93500000e-01	1.85240118e-02	3.02090436e-04
1.94000000e-01	1.82885072e-02	2.97569307e-04
1.94500000e-01	1.84263880e-02	2.99091556e-04
1.95000000e-01	1.84197348e-02	2.99672158e-04
1.95500000e-01	1.83022540e-02	2.96189278e-04
1.96000000e-01	1.83344876e-02	2.96829463e-04
1.96500000e-01	1.82188838e-02	2.94932715e-04
1.97000000e-01	1.84968463e-02	2.98265904e-04
1.97500000e-01	1.84628307e-02	2.97641744e-04
1.98000000e-01	1.81718951e-02	2.92472803e-04
1.98500000e-01	1.82507250e-02	2.92495071e-04
1.99000000e-01	1.82744477e-02	2.92718852e-04
1.99500000e-01	1.84155480e-02	2.94497093e-04
2.00000000e-01	1.82932094e-02	2.93253413e-04
2.00500000e-01	1.82942576e-02	2.92816569e-04
2.01000000e-01	1.82848060e-02	2.92484848e-04
2.01500000e-01	1.84893729e-02	2.94546979e-04
2.02000000e-01	1.81874534e-02	2.90644765e-04
2.02500000e-01	1.82347591e-02	2.89840171e-04
2.03000000e-01	1.82356280e-02	2.88583993e-04
2.03500000e-01	1.83825168e-02	2.91680085e-04
2.04000000e-01	1.83432626e-02	2.90071389e-04
2.04500000e-01	1.81347542e-02	2.88140207e-04
2.05000000e-01	1.83045808e-02	2.89358967e-04
2.05500000e-01	1.80759014e-02	2.87073102e-04
2.06000000e-01	1.80415262e-02	2.84073857e-04
2.06500000e-01	1.81208838e-02	2.86647296e-04
2.07000000e-01	1.82574033e-02	2.87931254e-04
2.07500000e-01	1.80345716e-02	2.84470807e-04
2.08000000e-01	1.82769556e-02	2.88189764e-04
2.08500000e-01	1.80748181e-02	2.83099710e-04
2.09000000e-01	1.83327251e-02	2.88077503e-04
2.09500000e-01	1.82776203e-02	2.85408828e-04
2.10000000e-01	1.82020595e-02	2.85952031e-04
2.10500000e-01	1.82927159e-02	2.86325532e-04
2.11000000e-01	1.79975221e-02	2.80586784e-04
2.11500000e-01	1.80050842e-02	2.80836544e-04
2.12000000e-01	1.81076855e-02	2.81027875e-04
2.12500000e-01	1.80520501e-02	2.81128992e-04
2.13000000e-01	1.81047101e-02	2.81126694e-04
2.13500000e-01	1.79897541e-02	2.79144506e-04
2.14000000e-01	1.80218063e-02	2.80647696e-04
2.14500000e-01	1.81687941e-02	2.79386066e-04
2.15000000e-01	1.81373599e-02	2.81412392e-04
2.15500000e-01	1.81742549e-02	2.80010375e-04
2.16000000e-01	1.82892697e-02	2.81563933e-04
2.16500000e-01	1.79865635e-02	2.78892929e-04
2.17000000e-01	1.81129046e-02	2.82182542e-04
2.17500000e-01	1.79737471e-02	2.84597235e-04
2.18000000e-01	1.78125923e-02	2.83605022e-04
2.18500000e-01	1.83048128e-02	2.93429970e-04
2.19000000e-01	1.80584116e-02	2.91055903e-04
2.19500000e-01	1.78073765e-02	2.87170370e-04
2.20000000e-01	1.78835487e-02	2.90904603e-04
2.20500000e-01	1.80192107e-02	2.93417223e-04
2.21000000e-01	1.80523151e-02	2.93515870e-04
2.21500000e-01	1.78496537e-02	2.90784503e-04
2.22000000e-01	1.80279642e-02	2.94955702e-04
2.22500000e-01	1.78837698e-02	2.93663274e-04
2.23000000e-01	1.80086748e-02	2.94394218e-04
2.23500000e-01	1.77519086e-02	2.93531856e-04
2.24000000e-01	1.79324254e-02	2.97399729e-04
2.24500000e-01	1.77070493e-02	2.93906314e-04
2.25000000e-01	1.79150595e-02	2.96987910e-04
2.25500000e-01	1.79866757e-02	2.99353701e-04
2.26000000e-01	1.78092132e-02	2.98527127e-04
2.26500000e-01	1.79370359e-02	2.94699300e-04
2.27000000e-01	1.78608844e-02	2.89418169e-04
2.27500000e-01	1.80651285e-02	2.90306585e-04
2.28000000e-01	1.79463409e-02	2.87068850e-04
2.28500000e-01	1.78769561e-02	2.85612105e-04
2.29000000e-01	1.76864183e-02	2.81472742e-04
2.29500000e-01	1.77837605e-02	2.81337466e-04
2.30000000e-01	1.79893555e-02	2.84523807e-04
2.30500000e-01	1.78743090e-02	2.82027374e-04
2.31000000e-01	1.78396109e-02	2.80259053e-04
2.31500000e-01	1.78945927e-02	2.80558563e-04
2.32000000e-01	1.78900437e-02	2.79557030e-04
2.32500000e-01	1.78403766e-02	2.78774211e-04
2.33000000e-01	1.77755603e-02	2.75576982e-04
2.33500000e-01	1.77094644e-02	2.74733666e-04
2.34000000e-01	1.77685347e-02	2.74984498e-04
2.34500000e-01	1.77801850e-02	2.75272525e-04
2.35000000e-01	1.78201368e-02	2.75851856e-04
2.35500000e-01	1.78526838e-02	2.74463497e-04
2.36000000e-01	1.80162141e-02	2.77065873e-04
2.36500000e-01	1.74691834e-02	2.69542571e-04
2.37000000e-01	1.76291461e-02	2.70408956e-04
2.37500000e-01	1.76481752e-02	2.70769540e-04
2.38000000e-01	1.77861834e-02	2.71466684e-04
2.38500000e-01	1.78356519e-02	2.72774326e-04
2.39000000e-01	1.75004051e-02	2.66303536e-04
2.39500000e-01	1.76384663e-02	2.68245668e-04
2.40000000e-01	1.76547726e-02	2.68095580e-04
2.40500000e-01	1.75351254e-02	2.65026240e-04
2.41000000e-01	1.74264927e-02	2.64597255e-04
2.41500000e-01	1.77312443e-02	2.68500226e-04
2.42000000e-01	1.76596167e-02	2.65453651e-04
2.42500000e-01	1.75968722e-02	2.63674065e-04
2.43000000e-01	1.74877467e-02	2.63185446e-04
2.43500000e-01	1.74981298e-02	2.63823749e-04
2.44000000e-01	1.76187345e-02	2.63975183e-04
2.44500000e-01	1.77525537e-02	2.66017990e-04
2.45000000e-01	1.75378220e-02	2.61718460e-04
2.45500000e-01	1.74054268e-02	2.59940999e-04
2.46000000e-01	1.78720429e-02	2.66528248e-04
2.46500000e-01	1.75044620e-02	2.60450662e-04
2.47000000e-01	1.76576883e-02	2.62849018e-04
2.47500000e-01	1.73678781e-02	2.56938742e-04
2.48000000e-01	1.75085038e-02	2.58919960e-04
2.48500000e-01	1.75394770e-02	2.60353311e-04
2.49000000e-01	1.74860348e-02	2.58247815e-04
2.49500000e-01	1.74198189e-02	2.57645412e-04
2.50000000e-01	1.73935788e-02	2.55774954e-04
2.50500000e-01	1.73711376e-02	2.57762406e-04
2.51000000e-01	1.74754440e-02	2.58028264e-04
2.51500000e-01	1.74055099e-02	2.56896737e-04
2.52000000e-01	1.75572130e-02	2.58202400e-04
2.52500000e-01	1.74043776e-02	2.56501217e-04
2.53000000e-01	1.71283564e-02	2.52732211e-04
2.53500000e-01	1.72906292e-02	2.53895678e-04
2.54000000e-01	1.75462080e-02	2.57299026e-04
2.54500000e-01	1.74102302e-02	2.55107756e-04
2.55000000e-01	1.75609323e-02	2.56107015e-04
2.55500000e-01	1.71950625e-02	2.51591359e-04
2.56000000e-01	1.72901203e-02	2.52546296e-04
2.56500000e-01	1.73430214e-02	2.53731927e-04
2.57000000e-01	1.76224040e-02	2.55811211e-04
2.57500000e-01	1.73782783e-02	2.52403119e-04
2.58000000e-01	1.71567075e-02	2.50299232e-04
2.58500000e-01	1.72429473e-02	2.50053550e-04
2.59000000e-01	1.73369042e-02	2.52277678e-04
2.59500000e-01	1.73399554e-02	2.50751590e-04
2.60000000e-01	1.75190813e-02	2.53937742e-04
2.60500000e-01	1.73159330e-02	2.51029869e-04
2.61000000e-01	1.74189374e-02	2.50125773e-04
2.61500000e-01	1.72100089e-02	2.47927970e-04
2.62000000e-01	1.70791867e-02	2.45764571e-04
2.62500000e-01	1.74092076e-02	2.50856494e-04
2.63000000e-01	1.73069336e-02	2.48659992e-04
2.63500000e-01	1.74585732e-02	2.49971362e-04
2.64000000e-01	1.72030502e-02	2.46509446e-04
2.64500000e-01	1.71860083e-02	2.45796846e-04
2.65000000e-01	1.71443311e-02	2.46109387e-04
2.65500000e-01	1.72493908e-02	2.47192256e-04
2.66000000e-01	1.73589432e-02	2.48211096e-04
2.66500000e-01	1.71677569e-02	2.45055735e-04
2.67000000e-01	1.71694787e-02	2.44431790e-04
2.67500000e-01	1.73561613e-02	2.47156095e-04
2.68000000e-01	1.70858838e-02	2.42854018e-04
2.68500000e-01	1.71804383e-02	2.43631313e-04
2.69000000e-01	1.70022620e-02	2.41388185e-04
2.69500000e-01	1.73537281e-02	2.45257587e-04
2.70000000e-01	1.72265249e-02	2.43717299e-04
2.70500000e-01	1.74973155e-02	2.46538016e-04
2.71000000e-01	1.72905786e-02	2.43600886e-04
2.71500000e-01	1.70820680e-02	2.41182092e-04
2.72000000e-01	1.71271427e-02	2.41052382e-04
2.72500000e-01	1.70936425e-02	2.41246100e-04
2.73000000e-01	1.73002699e-02	2.43882520e-04
2.73500000e-01	1.71638386e-02	2.41355970e-04
2.74000000e-01	1.70481233e-02	2.39396047e-04
2.74500000e-01	1.72109749e-02	2.41557990e-04
2.75000000e-01	1.73213567e-02	2.43256244e-04
2.75500000e-01	1.72199899e-02	2.41927596e-04
2.76000000e-01	1.70976280e-02	2.39764498e-04
2.76500000e-01	1.70633990e-02	2.38368084e-04
2.77000000e-01	1.71074566e-02	2.39047360e-04
2.77500000e-01	1.72420715e-02	2.40619863e-04
2.78000000e-01	1.71890637e-02	2.39100849e-04
2.78500000e-01	1.69830587e-02	2.36327282e-04
2.79000000e-01	1.69968414e-02	2.36511769e-04
2.79500000e-01	1.71376654e-02	2.38481284e-04
2.80000000e-01	1.71365877e-02	2.37479588e-04
2.80500000e-01	1.71568670e-02	2.37368828e-04
2.81000000e-01	1.70559260e-02	2.36365384e-04
2.81500000e-01	1.68843599e-02	2.34526828e-04
2.82000000e-01	1.71237113e-02	2.37354052e-04
2.82500000e-01	1.70904898e-02	2.35813949e-04
2.83000000e-01	1.68937358e-02	2.33952091e-04
2.83500000e-01	1.70544457e-02	2.35732457e-04
2.84000000e-01	1.68773311e-02	2.32776493e-04
2.84500000e-01	1.70643300e-02	2.34396267e-04
2.85000000e-01	1.70782230e-02	2.35452016e-04
2.85500000e-01	1.70739049e-02	2.35029624e-04
2.86000000e-01	1.70372809e-02	2.34531340e-04
2.86500000e-01	1.69136426e-02	2.32288217e-04
2.87000000e-01	1.67494724e-02	2.30608918e-04
2.87500000e-01	1.67138362e-02	2.29299442e-04
2.88000000e-01	1.69784690e-02	2.31915312e-04
2.88500000e-01	1.68091965e-02	2.31221074e-04
2.89000000e-01	1.70408438e-02	2.32363503e-04
2.89500000e-01	1.69403232e-02	2.30664403e-04
2.90000000e-01	1.69125241e-02	2.29759179e-04
2.90500000e-01	1.68672787e-02	2.29569330e-04
2.91000000e-01	1.68206325e-02	2.29464077e-04
2.91500000e-01	1.67772545e-02	2.28251397e-04
2.92000000e-01	1.69017464e-02	2.29252021e-04
2.92500000e-01	1.69253040e-02	2.28534014e-04
2.93000000e-01	1.68632992e-02	2.28117865e-04
2.93500000e-01	1.67295207e-02	2.26594677e-04
2.94000000e-01	1.70516806e-02	2.30038926e-04
2.94500000e-01	1.69246372e-02	2.29505859e-04
2.95000000e-01	1.68425809e-02	2.27551538e-04
2.95500000e-01	1.68380335e-02	2.27996668e-04
2.96000000e-01	1.68264571e-02	2.27236566e-04
2.96500000e-01	1.65871713e-02	2.24353503e-04
2.97000000e-01	1.67032776e-02	2.25337273e-04
2.97500000e-01	1.68074742e-02	2.26344547e-04
2.98000000e-01	1.69397611e-02	2.28404365e-04
2.98500000e-01	1.67629486e-02	2.25496412e-04
2.99000000e-01	1.69107226e-02	2.27634086e-04
2.99500000e-01	1.67601881e-02	2.24900064e-04
3.00000000e-01	1.68668378e-02	2.26438785e-04
3.00500000e-01	1.68999146e-02	2.26376930e-04
3.01000000e-01	1.66326651e-02	2.22410616e-04
3.01500000e-01	1.69729663e-02	2.27007010e-04
3.02000000e-01	1.67022149e-02	2.23957338e-04
3.02500000e-01	1.66606546e-02	2.23408060e-04
3.03000000e-01	1.67535497e-02	2.24906563e-04
3.03500000e-01	1.67188096e-02	2.22162155e-04
3.04000000e-01	1.67625396e-02	2.24593966e-04
3.04500000e-01	1.66414843e-02	2.21258560e-04
3.05000000e-01	1.67986295e-02	2.23830514e-04
3.05500000e-01	1.67579953e-02	2.22255904e-04
3.06000000e-01	1.67074255e-02	2.21369604e-04
3.06500000e-01	1.64687694e-02	2.19225940e-04
3.07000000e-01	1.66424970e-02	2.19924260e-04
3.07500000e-01	1.68113310e-02	2.22224806e-04
3.08000000e-01	1.66609360e-02	2.21033717e-04
3.08500000e-01	1.65709642e-02	2.19533470e-04
3.09000000e-01	1.64481683e-02	2.19081116e-04
3.09500000e-01	1.64850192e-02	2.17695387e-04
3.10000000e-01	1.66867498e-02	2.19306485e-04
3.10500000e-01	1.65463220e-02	2.18395480e-04
3.11000000e-01	1.64482163e-02	2.17737093e-04
3.11500000e-01	1.65789320e-02	2.18522199e-04
3.12000000e-01	1.63808774e-02	2.16022832e-04
3.12500000e-01	1.64748304e-02	2.18019008e-04
3.13000000e-01	1.64604669e-02	2.15735908e-04
3.13500000e-01	1.65807679e-02	2.18003224e-04
3.14000000e-01	1.66673773e-02	2.18365374e-04
3.14500000e-01	1.63326227e-02	2.13940208e-04
3.15000000e-01	1.65527214e-02	2.17033628e-04
3.15500000e-01	1.64384680e-02	2.15574244e-04
3.16000000e-01	1.64641872e-02	2.16333794e-04
3.16500000e-01	1.65916884e-02	2.17570266e-04
3.17000000e-01	1.65181730e-02	2.15630629e-04
3.17500000e-01	1.65557526e-02	2.16847040e-04
3.18000000e-01	1.64325575e-02	2.13775175e-04
3.18500000e-01	1.64813783e-02	2.14692845e-04
3.19000000e-01	1.64690619e-02	2.14496733e-04
3.19500000e-01	1.64951371e-02	2.14218635e-04
3.20000000e-01	1.65600728e-02	2.15663928e-04
3.20500000e-01	1.63124971e-02	2.12208321e-04
3.21000000e-01	1.62638228e-02	2.11624415e-04
3.21500000e-01	1.65274574e-02	2.14475189e-04
3.22000000e-01	1.63649700e-02	2.12370977e-04
3.22500000e-01	1.61155737e-02	2.09470879e-04
3.23000000e-01	1.64380340e-02	2.12680527e-04
3.23500000e-01	1.62593044e-02	2.10421178e-04
3.24000000e-01	1.63146181e-02	2.10694082e-04
3.24500000e-01	1.64100367e-02	2.12382137e-04
3.25000000e-01	1.64372610e-02	2.11582431e-04
3.25500000e-01	1.63663595e-02	2.11881462e-04
3.26000000e-01	1.62260666e-02	2.08878301e-04
3.26500000e-01	1.62694448e-02	2.09582107e-04
3.27000000e-01	1.64201552e-02	2.12099393e-04
3.27500000e-01	1.63915422e-02	2.11618859e-04
3.28000000e-01	1.64434536e-02	2.10925717e-04
3.28500000e-01	1.63374616e-02	2.10381155e-04
3.29000000e-01	1.63107465e-02	2.10380027e-04
3.29500000e-01	1.61559085e-02	2.08078020e-04
3.30000000e-01	1.63056732e-02	2.08931763e-04
3.30500000e-01	1.63273506e-02	2.09175128e-04
3.31000000e-01	1.62762521e-02	2.08561029e-04
3.31500000e-01	1.61925406e-02	2.07524700e-04
3.32000000e-01	1.59850617e-02	2.04524303e-04
3.32500000e-01	1.61935532e-02	2.05934557e-04
3.33000000e-01	1.62625193e-02	2.08353126e-04
3.33500000e-01	1.59509690e-02	2.03700737e-04
3.34000000e-01	1.59734173e-02	2.03563349e-04
3.34500000e-01	1.60671635e-02	2.04890146e-04
3.35000000e-01	1.60712999e-02	2.04107819e-04
3.35500000e-01	1.61311736e-02	2.05274573e-04
3.36000000e-01	1.61676519e-02	2.05075116e-04
3.36500000e-01	1.61401666e-02	2.05228588e-04
3.37000000e-01	1.61631282e-02	2.04886850e-04
3.37500000e-01	1.61138851e-02	2.05076592e-04
3.38000000e-01	1.61733941e-02	2.04969284e-04
3.38500000e-01	1.59718526e-02	2.02543047e-04
3.39000000e-01	1.60707202e-02	2.04179858e-04
3.39500000e-01	1.60207614e-02	2.02367186e-04
3.40000000e-01	1.59636661e-02	2.02571517e-04
3.40500000e-01	1.61248126e-02	2.03841927e-04
3.41000000e-01	1.59955919e-02	2.01628219e-04
3.41500000e-01	1.60212104e-02	2.02849219e-04
3.42000000e-01	1.60183400e-02	2.01145773e-04
3.42500000e-01	1.57882044e-02	1.99913587e-04
3.43000000e-01	1.60974336e-02	2.02956685e-04
3.43500000e-01	1.60716049e-02	2.01761703e-04
3.44000000e-01	1.58173216e-02	1.99456497e-04
3.44500000e-01	1.60781648e-02	2.01821425e-04
3.45000000e-01	1.59016114e-02	1.99807311e-04
3.45500000e-01	1.58724144e-02	1.98894908e-04
3.46000000e-01	1.60313997e-02	2.00957850e-04
3.46500000e-01	1.59488236e-02	1.98995844e-04
3.47000000e-01	1.59596102e-02	1.99481661e-04
3.47500000e-01	1.60444816e-02	1.99650583e-04
3.48000000e-01	1.58080314e-02	1.97816922e-04
3.48500000e-01	1.58400127e-02	1.98556356e-04
3.49000000e-01	1.59258994e-02	1.99155442e-04
3.49500000e-01	1.58105674e-02	1.97494460e-04
3.50000000e-01	1.59218181e-02	1.61952291e-04
3.51000000e-01	1.59358290e-02	1.40486847e-04
3.52000000e-01	1.59174503e-02	1.40118105e-04
3.53000000e-01	1.59319195e-02	1.39544283e-04
3.54000000e-01	1.58800269e-02	1.38971127e-04
3.55000000e-01	1.57407141e-02	1.38106459e-04
3.56000000e-01	1.59320981e-02	1.39999638e-04
3.57000000e-01	1.57467912e-02	1.40849302e-04
3.58000000e-01	1.57393273e-02	1.42227761e-04
3.59000000e-01	1.56784669e-02	1.42560118e-04
3.60000000e-01	1.56571317e-02	1.43186047e-04
3.61000000e-01	1.55908274e-02	1.43121592e-04
3.62000000e-01	1.55070502e-02	1.43478329e-04
3.63000000e-01	1.55267695e-02	1.44279039e-04
3.64000000e-01	1.54981157e-02	1.44436317e-04
3.65000000e-01	1.55095229e-02	1.44795878e-04
3.66000000e-01	1.56175375e-02	1.44111091e-04
3.67000000e-01	1.55963538e-02	1.41824656e-04
3.68000000e-01	1.56052216e-02	1.40969504e-04
3.69000000e-01	1.56100732e-02	1.40605777e-04
3.70000000e-01	1.54967395e-02	1.38537399e-04
3.71000000e-01	1.55444783e-02	1.40757787e-04
3.72000000e-01	1.55832407e-02	1.42294870e-04
3.73000000e-01	1.54008757e-02	1.40816997e-04
3.74000000e-01	1.55979257e-02	1.42166722e-04
3.75000000e-01	1.54950424e-02	1.41810882e-04
3.76000000e-01	1.54530099e-02	1.41166711e-04
3.77000000e-01	1.54439724e-02	1.41358572e-04
3.78000000e-01	1.55844215e-02	1.42369798e-04
3.79000000e-01	1.53601631e-02	1.40820227e-04
3.80000000e-01	1.54164545e-02	1.40917134e-04
3.81000000e-01	1.52922685e-02	1.39708528e-04
3.82000000e-01	1.55221691e-02	1.41627650e-04
3.83000000e-01	1.53718367e-02	1.40204617e-04
3.84000000e-01	1.52974918e-02	1.39648763e-04
3.85000000e-01	1.53872641e-02	1.40757631e-04
3.86000000e-01	1.54209791e-02	1.40779459e-04
3.87000000e-01	1.53586543e-02	1.40175714e-04
3.88000000e-01	1.53435873e-02	1.39707275e-04
3.89000000e-01	1.53251004e-02	1.39512586e-04
3.90000000e-01	1.52985092e-02	1.39651954e-04
3.91000000e-01	1.53112969e-02	1.39397416e-04
3.92000000e-01	1.52560360e-02	1.39327007e-04
3.93000000e-01	1.52968904e-02	1.39193658e-04
3.94000000e-01	1.53379510e-02	1.39972522e-04
3.95000000e-01	1.52525156e-02	1.38721704e-04
3.96000000e-01	1.50763033e-02	1.37342034e-04
3.97000000e-01	1.52338779e-02	1.38626484e-04
3.98000000e-01	1.50600499e-02	1.37265963e-04
3.99000000e-01	1.51616804e-02	1.38003553e-04
4.00000000e-01	1.51622601e-02	1.38370626e-04
4.01000000e-01	1.50241209e-02	1.37026565e-04
4.02000000e-01	1.51653754e-02	1.38011284e-04
4.03000000e-01	1.51707849e-02	1.37906658e-04
4.04000000e-01	1.51373868e-02	1.37460557e-04
4.05000000e-01	1.51069432e-02	1.37673115e-04
4.06000000e-01	1.50869668e-02	1.37343315e-04
4.07000000e-01	1.49573709e-02	1.36409536e-04
4.08000000e-01	1.49989701e-02	1.36605586e-04
4.09000000e-01	1.50021144e-02	1.36165221e-04
4.10000000e-01	1.50496466e-02	1.36680242e-04
4.11000000e-01	1.50044117e-02	1.36215656e-04
4.12000000e-01	1.50381132e-02	1.36359843e-04
4.13000000e-01	1.49750861e-02	1.35955060e-04
4.14000000e-01	1.50451980e-02	1.36597196e-04
4.15000000e-01	1.50636577e-02	1.36289851e-04
4.16000000e-01	1.49611122e-02	1.35698749e-04
4.17000000e-01	1.49022777e-02	1.35225001e-04
4.18000000e-01	1.50037549e-02	1.37462447e-04
4.19000000e-01	1.49565216e-02	1.39466053e-04
4.20000000e-01	1.51602921e-02	1.41364713e-04
4.21000000e-01	1.51189310e-02	1.41420901e-04
4.22000000e-01	1.49091276e-02	1.40376831e-04
4.23000000e-01	1.50559107e-02	1.41980096e-04
4.24000000e-01	1.49671221e-02	1.41537945e-04
4.25000000e-01	1.48078772e-02	1.40046231e-04
4.26000000e-01	1.49005675e-02	1.40852486e-04
4.27000000e-01	1.49987399e-02	1.41807000e-04
4.28000000e-01	1.49229793e-02	1.41375209e-04
4.29000000e-01	1.51405061e-02	1.43607723e-04
4.30000000e-01	1.49431510e-02	1.42042850e-04
4.31000000e-01	1.49668795e-02	1.41672676e-04
4.32000000e-01	1.48913265e-02	1.41507307e-04
4.33000000e-01	1.49175058e-02	1.41131853e-04
4.34000000e-01	1.47006559e-02	1.39852208e-04
4.35000000e-01	1.48502744e-02	1.41695351e-04
4.36000000e-01	1.47866085e-02	1.41089963e-04
4.37000000e-01	1.48305691e-02	1.41396000e-04
4.38000000e-01	1.49017273e-02	1.42715498e-04
4.39000000e-01	1.48575851e-02	1.42312734e-04
4.40000000e-01	1.48121095e-02	1.41992248e-04
4.41000000e-01	1.48037239e-02	1.41780351e-04
4.42000000e-01	1.47350486e-02	1.41686022e-04
4.43000000e-01	1.48853502e-02	1.43273821e-04
4.44000000e-01	1.48909434e-02	1.43303256e-04
4.45000000e-01	1.47805414e-02	1.42704029e-04
4.46000000e-01	1.49249037e-02	1.43970940e-04
4.47000000e-01	1.47132267e-02	1.42353547e-04
4.48000000e-01	1.48188695e-02	1.43212549e-04
4.49000000e-01	1.47886282e-02	1.43878222e-04
4.50000000e-01	1.47517866e-02	1.43321784e-04
4.51000000e-01	1.47445825e-02	1.42769919e-04
4.52000000e-01	1.48273889e-02	1.44154861e-04
4.53000000e-01	1.47343118e-02	1.43037661e-04
4.54000000e-01	1.47532422e-02	1.43778071e-04
4.55000000e-01	1.46794756e-02	1.42821025e-04
4.56000000e-01	1.46082211e-02	1.42268221e-04
4.57000000e-01	1.47125885e-02	1.43718037e-04
4.58000000e-01	1.46110256e-02	1.43128315e-04
4.59000000e-01	1.45517658e-02	1.42453782e-04
4.60000000e-01	1.47008045e-02	1.44051529e-04
4.61000000e-01	1.45671458e-02	1.42803508e-04
4.62000000e-01	1.45910338e-02	1.43041328e-04
4.63000000e-01	1.46894437e-02	1.43823451e-04
4.64000000e-01	1.46600789e-02	1.43667664e-04
4.65000000e-01	1.46913499e-02	1.44414424e-04
4.66000000e-01	1.46499739e-02	1.43535897e-04
4.67000000e-01	1.46489653e-02	1.44124030e-04
4.68000000e-01	1.45005854e-02	1.42829107e-04
4.69000000e-01	1.45934726e-02	1.44163979e-04
4.70000000e-01	1.45165987e-02	1.43190337e-04
4.71000000e-01	1.44943110e-02	1.43266051e-04
4.72000000e-01	1.45884488e-02	1.43925236e-04
4.73000000e-01	1.44914930e-02	1.42775557e-04
4.74000000e-01	1.45244542e-02	1.42884045e-04
4.75000000e-01	1.44180572e-02	1.41849904e-04
4.76000000e-01	1.44160451e-02	1.42267564e-04
4.77000000e-01	1.44948877e-02	1.42836210e-04
4.78000000e-01	1.44308135e-02	1.42298758e-04
4.79000000e-01	1.44212363e-02	1.42305682e-04
4.80000000e-01	1.43360974e-02	1.41640535e-04
4.81000000e-01	1.44517450e-02	1.42926448e-04
4.82000000e-01	1.45756167e-02	1.43832626e-04
4.83000000e-01	1.43985417e-02	1.42154328e-04
4.84000000e-01	1.42361296e-02	1.41287302e-04
4.85000000e-01	1.42321390e-02	1.41094933e-04
4.86000000e-01	1.43308459e-02	1.41460653e-04
4.87000000e-01	1.43429526e-02	1.42167691e-04
4.88000000e-01	1.43354845e-02	1.42500464e-04
4.89000000e-01	1.44256100e-02	1.43187870e-04
4.90000000e-01	1.43814021e-02	1.42894163e-04
4.91000000e-01	1.43306756e-02	1.42354277e-04
4.92000000e-01	1.41956241e-02	1.41185936e-04
4.93000000e-01	1.42923494e-02	1.42656198e-04
4.94000000e-01	1.43438182e-02	1.42672989e-04
4.95000000e-01	1.44518148e-02	1.44437480e-04
4.96000000e-01	1.40751954e-02	1.45819602e-04
4.97000000e-01	1.42911139e-02	1.49631751e-04
4.98000000e-01	1.42420865e-02	1.51595440e-04
4.99000000e-01	1.43024266e-02	1.53914752e-04
5.00000000e-01	1.43646752e-02	1.56625609e-04
5.01000000e-01	1.41587212e-02	1.55893653e-04
5.02000000e-01	1.40718472e-02	1.56955010e-04
5.03000000e-01	1.42637646e-02	1.60399018e-04
5.04000000e-01	1.40609094e-02	1.59389932e-04
5.05000000e-01	1.41207713e-02	1.56852289e-04
5.06000000e-01	1.43543612e-02	1.55969978e-04
5.07000000e-01	1.42044586e-02	1.53151554e-04
5.08000000e-01	1.42205911e-02	1.52419121e-04
5.09000000e-01	1.44461347e-02	1.53294565e-04
5.10000000e-01	1.42947852e-02	1.51759435e-04
5.11000000e-01	1.41838877e-02	1.50017698e-04
5.12000000e-01	1.41871129e-02	1.49722851e-04
5.13000000e-01	1.42299853e-02	1.50190839e-04
5.14000000e-01	1.41339439e-02	1.49189427e-04
5.15000000e-01	1.41138485e-02	1.48551794e-04
5.16000000e-01	1.41637417e-02	1.48464077e-04
5.17000000e-01	1.41489740e-02	1.48143711e-04
5.18000000e-01	1.40869968e-02	1.47480216e-04
5.19000000e-01	1.40756765e-02	1.46760112e-04
5.20000000e-01	1.41247007e-02	1.47024461e-04
5.21000000e-01	1.40378389e-02	1.45993449e-04
5.22000000e-01	1.40092484e-02	1.45621792e-04
5.23000000e-01	1.40582120e-02	1.46338264e-04
5.24000000e-01	1.39991356e-02	1.45509338e-04
5.25000000e-01	1.40480808e-02	1.45740918e-04
5.26000000e-01	1.40601619e-02	1.45880990e-04
5.27000000e-01	1.39699819e-02	1.45024983e-04
5.28000000e-01	1.41905522e-02	1.46944434e-04
5.29000000e-01	1.40729621e-02	1.46086052e-04
5.30000000e-01	1.41131438e-02	1.45918041e-04
5.31000000e-01	1.39081367e-02	1.45324251e-04
5.32000000e-01	1.40765673e-02	1.45931650e-04
5.33000000e-01	1.38667262e-02	1.43744348e-04
5.34000000e-01	1.39820823e-02	1.45682278e-04
5.35000000e-01	1.38909601e-02	1.44327195e-04
5.36000000e-01	1.39125339e-02	1.44698361e-04
5.37000000e-01	1.40009724e-02	1.45250072e-04
5.38000000e-01	1.40675545e-02	1.45763642e-04
5.39000000e-01	1.39367126e-02	1.44441557e-04
5.40000000e-01	1.39499487e-02	1.44931494e-04
5.41000000e-01	1.38618067e-02	1.43932758e-04
5.42000000e-01	1.39914647e-02	1.45383819e-04
5.43000000e-01	1.37747556e-02	1.43539522e-04
5.44000000e-01	1.38317838e-02	1.43680000e-04
5.45000000e-01	1.38484479e-02	1.43402782e-04
5.46000000e-01	1.37319832e-02	1.42405369e-04
5.47000000e-01	1.37632599e-02	1.43014330e-04
5.48000000e-01	1.38450548e-02	1.43856971e-04
5.49000000e-01	1.38435006e-02	1.44161939e-04
5.50000000e-01	1.38054108e-02	1.43476437e-04
5.51000000e-01	1.36198078e-02	1.41100729e-04
5.52000000e-01	1.37575311e-02	1.42126108e-04
5.53000000e-01	1.38595369e-02	1.43241380e-04
5.54000000e-01	1.38272490e-02	1.42887797e-04
5.55000000e-01	1.37211906e-02	1.41659471e-04
5.56000000e-01	1.37008415e-02	1.41536212e-04
5.57000000e-01	1.38719753e-02	1.42685599e-04
5.58000000e-01	1.35914232e-02	1.40481339e-04
5.59000000e-01	1.37429838e-02	1.42032550e-04
5.60000000e-01	1.36110315e-02	1.40899988e-04
5.61000000e-01	1.36424700e-02	1.41152469e-04
5.62000000e-01	1.37926553e-02	1.42410662e-04
5.63000000e-01	1.35960371e-02	1.40461819e-04
5.64000000e-01	1.35676731e-02	1.40389154e-04
5.65000000e-01	1.36543710e-02	1.41164452e-04
5.66000000e-01	1.36603210e-02	1.41061784e-04
5.67000000e-01	1.35658358e-02	1.40468022e-04
5.68000000e-01	1.35967207e-02	1.40690520e-04
5.69000000e-01	1.35818654e-02	1.39958174e-04
5.70000000e-01	1.36868837e-02	1.41040816e-04
5.71000000e-01	1.35659297e-02	1.39741612e-04
5.72000000e-01	1.35756848e-02	1.40194070e-04
5.73000000e-01	1.36321422e-02	1.41077391e-04
5.74000000e-01	1.35601030e-02	1.39952234e-04
5.75000000e-01	1.36244872e-02	1.40939871e-04
5.76000000e-01	1.35264045e-02	1.40123773e-04
5.77000000e-01	1.34968811e-02	1.40250298e-04
5.78000000e-01	1.34660481e-02	1.39870130e-04
5.79000000e-01	1.34869655e-02	1.39765914e-04
5.80000000e-01	1.35807800e-02	1.40824926e-04
5.81000000e-01	1.34810664e-02	1.39330500e-04
5.82000000e-01	1.35737181e-02	1.40916420e-04
5.83000000e-01	1.34657374e-02	1.39643595e-04
5.84000000e-01	1.34114086e-02	1.38883657e-04
5.85000000e-01	1.35169800e-02	1.40632948e-04
5.86000000e-01	1.33811839e-02	1.39086499e-04
5.87000000e-01	1.31861880e-02	1.36852676e-04
5.88000000e-01	1.34200837e-02	1.38839096e-04
5.89000000e-01	1.33795418e-02	1.38886410e-04
5.90000000e-01	1.33582488e-02	1.38611589e-04
5.91000000e-01	1.34221071e-02	1.38997825e-04
5.92000000e-01	1.33750042e-02	1.38882980e-04
5.93000000e-01	1.32818616e-02	1.38204992e-04
5.94000000e-01	1.33537100e-02	1.38866920e-04
5.95000000e-01	1.33723552e-02	1.38747342e-04
5.96000000e-01	1.33482923e-02	1.38661535e-04
5.97000000e-01	1.32139529e-02	1.37592405e-04
5.98000000e-01	1.32020029e-02	1.37337274e-04
5.99000000e-01	1.32557739e-02	1.38089411e-04
6.00000000e-01	1.32886654e-02	1.37962840e-04
6.01000000e-01	1.33522024e-02	1.39031494e-04
6.02000000e-01	1.32258661e-02	1.37711839e-04
6.03000000e-01	1.32075954e-02	1.37742327e-04
6.04000000e-01	1.33294901e-02	1.38521292e-04
6.05000000e-01	1.31345047e-02	1.36662239e-04
6.06000000e-01	1.31299392e-02	1.37119131e-04
6.07000000e-01	1.32639542e-02	1.37784711e-04
6.08000000e-01	1.30807295e-02	1.37173387e-04
6.09000000e-01	1.29665648e-02	1.35554014e-04
6.10000000e-01	1.31827460e-02	1.37461330e-04
6.11000000e-01	1.32258867e-02	1.37747459e-04
6.12000000e-01	1.32611486e-02	1.38329946e-04
6.13000000e-01	1.31304206e-02	1.36944219e-04
6.14000000e-01	1.31677584e-02	1.37676654e-04
6.15000000e-01	1.31384272e-02	1.37270070e-04
6.16000000e-01	1.31197392e-02	1.37007375e-04
6.17000000e-01	1.32005792e-02	1.37937435e-04
6.18000000e-01	1.30448442e-02	1.36728102e-04
6.19000000e-01	1.29686706e-02	1.35047870e-04
6.20000000e-01	1.29892361e-02	1.35722686e-04
6.21000000e-01	1.31248210e-02	1.37404426e-04
6.22000000e-01	1.32018542e-02	1.37081390e-04
6.23000000e-01	1.31046404e-02	1.35823230e-04
6.24000000e-01	1.31546132e-02	1.36252204e-04
6.25000000e-01	1.30139282e-02	1.35033852e-04
6.26000000e-01	1.29810331e-02	1.34371551e-04
6.27000000e-01	1.31356920e-02	1.36008005e-04
6.28000000e-01	1.30568808e-02	1.35469767e-04
6.29000000e-01	1.30858157e-02	1.35209230e-04
6.30000000e-01	1.31490160e-02	1.36053298e-04
6.31000000e-01	1.29020603e-02	1.33644403e-04
6.32000000e-01	1.31670767e-02	1.36417078e-04
6.33000000e-01	1.30891632e-02	1.35644355e-04
6.34000000e-01	1.31706878e-02	1.39410804e-04
6.35000000e-01	1.30002878e-02	1.42215802e-04
6.36000000e-01	1.30803223e-02	1.46017597e-04
6.37000000e-01	1.30186389e-02	1.47795162e-04
6.38000000e-01	1.30007190e-02	1.49180041e-04
6.39000000e-01	1.30325999e-02	1.51180456e-04
6.40000000e-01	1.31249338e-02	1.54127005e-04
6.41000000e-01	1.29564294e-02	1.53679920e-04
6.42000000e-01	1.30552318e-02	1.57215615e-04
6.43000000e-01	1.29896928e-02	1.55960772e-04
6.44000000e-01	1.30752776e-02	1.51628122e-04
6.45000000e-01	1.30534930e-02	1.48944222e-04
6.46000000e-01	1.29398185e-02	1.46237953e-04
6.47000000e-01	1.30713972e-02	1.46280348e-04
6.48000000e-01	1.29807619e-02	1.44629390e-04
6.49000000e-01	1.30450071e-02	1.45127969e-04
6.50000000e-01	1.30676339e-02	1.44078979e-04
6.51000000e-01	1.29810975e-02	1.42649774e-04
6.52000000e-01	1.30417920e-02	1.42738737e-04
6.53000000e-01	1.30172177e-02	1.41671993e-04
6.54000000e-01	1.30636492e-02	1.41979405e-04
6.55000000e-01	1.31260400e-02	1.42197721e-04
6.56000000e-01	1.30639434e-02	1.41380376e-04
6.57000000e-01	1.30924892e-02	1.41629404e-04
6.58000000e-01	1.29706334e-02	1.40319174e-04
6.59000000e-01	1.30294259e-02	1.40931686e-04
6.60000000e-01	1.30177221e-02	1.40486176e-04
6.61000000e-01	1.30317708e-02	1.40194428e-04
6.62000000e-01	1.28671511e-02	1.39449164e-04
6.63000000e-01	1.28932044e-02	1.39538487e-04
6.64000000e-01	1.30074145e-02	1.39898968e-04
6.65000000e-01	1.29861103e-02	1.39565634e-04
6.66000000e-01	1.28982002e-02	1.39090790e-04
6.67000000e-01	1.28769429e-02	1.38593984e-04
6.68000000e-01	1.28286183e-02	1.38113018e-04
6.69000000e-01	1.28708102e-02	1.38728001e-04
6.70000000e-01	1.28014710e-02	1.38013911e-04
6.71000000e-01	1.30143203e-02	1.39259683e-04
6.72000000e-01	1.30025110e-02	1.39703513e-04
6.73000000e-01	1.29534813e-02	1.38818449e-04
6.74000000e-01	1.28845805e-02	1.38068357e-04
6.75000000e-01	1.28130803e-02	1.37431800e-04
6.76000000e-01	1.28599250e-02	1.38120732e-04
6.77000000e-01	1.27063151e-02	1.36864995e-04
6.78000000e-01	1.27639562e-02	1.36914130e-04
6.79000000e-01	1.28634683e-02	1.37692486e-04
6.80000000e-01	1.27441292e-02	1.37440885e-04
6.81000000e-01	1.29106211e-02	1.38837880e-04
6.82000000e-01	1.27767689e-02	1.37197860e-04
6.83000000e-01	1.27907642e-02	1.37107026e-04
6.84000000e-01	1.28048280e-02	1.37100944e-04
6.85000000e-01	1.27583511e-02	1.36442519e-04
6.86000000e-01	1.27335417e-02	1.36517259e-04
6.87000000e-01	1.28031286e-02	1.37589678e-04
6.88000000e-01	1.26995448e-02	1.36110783e-04
6.89000000e-01	1.26562810e-02	1.35697480e-04
6.90000000e-01	1.27259706e-02	1.36281393e-04
6.91000000e-01	1.26916020e-02	1.36390544e-04
6.92000000e-01	1.26648790e-02	1.35914154e-04
6.93000000e-01	1.28034112e-02	1.36940527e-04
6.94000000e-01	1.26617539e-02	1.35915863e-04
6.95000000e-01	1.26352185e-02	1.35736921e-04
6.96000000e-01	1.25620734e-02	1.34214263e-04
6.97000000e-01	1.27785267e-02	1.36609554e-04
6.98000000e-01	1.26305630e-02	1.35712053e-04
6.99000000e-01	1.27425002e-02	1.36102546e-04
7.00000000e-01	1.26397641e-02	1.35721277e-04
7.01000000e-01	1.26838878e-02	1.36185855e-04
7.02000000e-01	1.25840238e-02	1.35021674e-04
7.03000000e-01	1.25559622e-02	1.35167618e-04
7.04000000e-01	1.25886889e-02	1.35150095e-04
7.05000000e-01	1.26579818e-02	1.35641433e-04
7.06000000e-01	1.25188951e-02	1.33692507e-04
7.07000000e-01	1.25664121e-02	1.34522491e-04
7.08000000e-01	1.25552306e-02	1.34022828e-04
7.09000000e-01	1.24680719e-02	1.33355487e-04
7.10000000e-01	1.24457041e-02	1.33170165e-04
7.11000000e-01	1.24865883e-02	1.33928916e-04
7.12000000e-01	1.23951479e-02	1.32423075e-04
7.13000000e-01	1.24474628e-02	1.33019628e-04
7.14000000e-01	1.24591708e-02	1.33486874e-04
7.15000000e-01	1.24778576e-02	1.33598301e-04
7.16000000e-01	1.22458088e-02	1.31342529e-04
7.17000000e-01	1.23530317e-02	1.32364950e-04
7.18000000e-01	1.22875620e-02	1.31867983e-04
7.19000000e-01	1.24571786e-02	1.33524021e-04
7.20000000e-01	1.24993535e-02	1.33980574e-04
7.21000000e-01	1.24333420e-02	1.33060146e-04
7.22000000e-01	1.23303557e-02	1.32033970e-04
7.23000000e-01	1.22616707e-02	1.31712632e-04
7.24000000e-01	1.22627126e-02	1.31573643e-04
7.25000000e-01	1.22576403e-02	1.31307340e-04
7.26000000e-01	1.23268739e-02	1.32178258e-04
7.27000000e-01	1.21497547e-02	1.30663065e-04
7.28000000e-01	1.23374529e-02	1.33202137e-04
7.29000000e-01	1.23362112e-02	1.32237898e-04
7.30000000e-01	1.23097027e-02	1.32839227e-04
7.31000000e-01	1.22388170e-02	1.31745105e-04
7.32000000e-01	1.23635700e-02	1.32990147e-04
7.33000000e-01	1.21776884e-02	1.30828570e-04
7.34000000e-01	1.22412473e-02	1.31044527e-04
7.35000000e-01	1.22210411e-02	1.30903884e-04
7.36000000e-01	1.21861749e-02	1.30643999e-04
7.37000000e-01	1.21802907e-02	1.29287128e-04
7.38000000e-01	1.20894649e-02	1.29388139e-04
7.39000000e-01	1.21683532e-02	1.29309192e-04
7.40000000e-01	1.21864123e-02	1.29615323e-04
7.41000000e-01	1.21060601e-02	1.28654587e-04
7.42000000e-01	1.19435261e-02	1.27495598e-04
7.43000000e-01	1.21428890e-02	1.28984873e-04
7.44000000e-01	1.21629182e-02	1.29272696e-04
7.45000000e-01	1.23248169e-02	1.31153939e-04
7.46000000e-01	1.21600157e-02	1.28811229e-04
7.47000000e-01	1.21257888e-02	1.28707234e-04
7.48000000e-01	1.20560074e-02	1.28378227e-04
7.49000000e-01	1.20226593e-02	1.27925227e-04
7.50000000e-01	1.20951326e-02	1.28544704e-04
7.51000000e-01	1.20754501e-02	1.28170930e-04
7.52000000e-01	1.20340965e-02	1.27947916e-04
7.53000000e-01	1.21936866e-02	1.29552830e-04
7.54000000e-01	1.18277912e-02	1.26214062e-04
7.55000000e-01	1.20045842e-02	1.27914962e-04
7.56000000e-01	1.22428231e-02	1.30249688e-04
7.57000000e-01	1.20493544e-02	1.27714572e-04
7.58000000e-01	1.20970194e-02	1.28459647e-04
7.59000000e-01	1.20861841e-02	1.28025952e-04
7.60000000e-01	1.20755265e-02	1.28096622e-04
7.61000000e-01	1.21536496e-02	1.28539501e-04
7.62000000e-01	1.20067511e-02	1.27127575e-04
7.63000000e-01	1.20113442e-02	1.26893470e-04
7.64000000e-01	1.19903989e-02	1.26682871e-04
7.65000000e-01	1.18566034e-02	1.25397383e-04
7.66000000e-01	1.18479909e-02	1.25247330e-04
7.67000000e-01	1.17287316e-02	1.23956542e-04
7.68000000e-01	1.18934191e-02	1.25878113e-04
7.69000000e-01	1.18574064e-02	1.25060521e-04
7.70000000e-01	1.18668955e-02	1.25202443e-04
7.71000000e-01	1.19911814e-02	1.26288466e-04
7.72000000e-01	1.17970277e-02	1.28465251e-04
7.73000000e-01	1.18761283e-02	1.33244037e-04
7.74000000e-01	1.16781974e-02	1.33775964e-04
7.75000000e-01	1.16592574e-02	1.36025377e-04
7.76000000e-01	1.17643946e-02	1.39382077e-04
7.77000000e-01	1.17282336e-02	1.41049747e-04
7.78000000e-01	1.17851491e-02	1.43966388e-04
7.79000000e-01	1.17313045e-02	1.44169165e-04
7.80000000e-01	1.15068983e-02	1.44318989e-04
7.81000000e-01	1.16992512e-02	1.47737361e-04
7.82000000e-01	1.17183712e-02	1.49930950e-04
7.83000000e-01	1.16920685e-02	1.50733048e-04
7.84000000e-01	1.16085694e-02	1.50633812e-04
7.85000000e-01	1.16949056e-02	1.53669482e-04
7.86000000e-01	1.17430326e-02	1.56524600e-04
7.87000000e-01	1.14863133e-02	1.54713345e-04
7.88000000e-01	1.15801191e-02	1.57631698e-04
7.89000000e-01	1.16512867e-02	1.59348963e-04
7.90000000e-01	1.15008252e-02	1.59283803e-04
7.91000000e-01	1.15906786e-02	1.61451610e-04
7.92000000e-01	1.17517886e-02	1.65091457e-04
7.93000000e-01	1.16089437e-02	1.65363451e-04
7.94000000e-01	1.16186358e-02	1.67976043e-04
7.95000000e-01	1.16358662e-02	1.68989644e-04
7.96000000e-01	1.13711778e-02	1.67224506e-04
7.97000000e-01	1.15522015e-02	1.70911446e-04
7.98000000e-01	1.16533555e-02	1.75563226e-04
7.99000000e-01	1.13460073e-02	1.72523398e-04
8.00000000e-01	1.14109290e-02	1.74809112e-04
8.01000000e-01	1.11255111e-02	1.72967447e-04
8.02000000e-01	1.13632655e-02	1.79370476e-04
8.03000000e-01	1.12870391e-02	1.79188103e-04
8.04000000e-01	1.13801186e-02	1.82150132e-04
8.05000000e-01	1.12674724e-02	1.83143599e-04
8.06000000e-01	1.14077807e-02	1.85711204e-04
8.07000000e-01	1.13455175e-02	1.86604382e-04
8.08000000e-01	1.15624870e-02	1.92769970e-04
8.09000000e-01	1.13107595e-02	1.90910282e-04
8.10000000e-01	1.15172701e-02	1.95970872e-04
8.11000000e-01	1.14328433e-02	1.96114173e-04
8.12000000e-01	1.12597632e-02	1.96926664e-04
8.13000000e-01	1.12639641e-02	1.98950570e-04
8.14000000e-01	1.12792806e-02	2.02387867e-04
8.15000000e-01	1.12257427e-02	2.03717173e-04
8.16000000e-01	1.11760510e-02	2.05058198e-04
8.17000000e-01	1.12578119e-02	2.08520718e-04
8.18000000e-01	1.11436226e-02	2.10000570e-04
8.19000000e-01	1.13920211e-02	2.17346188e-04
8.20000000e-01	1.13942058e-02	2.17642323e-04
8.21000000e-01	1.11223515e-02	2.17584524e-04
8.22000000e-01	1.11906192e-02	2.21458172e-04
8.23000000e-01	1.09329208e-02	2.17918674e-04
8.24000000e-01	1.12398431e-02	2.28741145e-04
8.25000000e-01	1.11134004e-02	2.28480069e-04
8.26000000e-01	1.11505258e-02	2.32510707e-04
8.27000000e-01	1.10485290e-02	2.33642512e-04
8.28000000e-01	1.08779244e-02	2.36021480e-04
8.29000000e-01	1.09445850e-02	2.39809390e-04
8.30000000e-01	1.10880232e-02	2.46166414e-04
8.31000000e-01	1.10444816e-02	2.48983229e-04
8.32000000e-01	1.07337906e-02	2.47510980e-04
8.33000000e-01	1.11948021e-02	2.61765165e-04
8.34000000e-01	1.11903744e-02	2.65750043e-04
8.35000000e-01	1.12773879e-02	2.70422771e-04
8.36000000e-01	1.08189967e-02	2.67542063e-04
8.37000000e-01	1.09926494e-02	2.75905465e-04
8.38000000e-01	1.12553282e-02	2.88152184e-04
8.39000000e-01	1.09969958e-02	2.89007439e-04
8.40000000e-01	1.09154868e-02	2.90333047e-04
8.41000000e-01	1.08431735e-02	2.98087919e-04
8.42000000e-01	1.11778315e-02	3.08594166e-04
8.43000000e-01	1.09104047e-02	3.15377636e-04
8.44000000e-01	1.05835072e-02	3.13697152e-04
8.45000000e-01	1.05145768e-02	3.14945961e-04
8.46000000e-01	1.08696414e-02	3.36795605e-04
8.47000000e-01	1.06172351e-02	3.39771571e-04
8.48000000e-01	1.11549980e-02	3.65755433e-04
8.49000000e-01	1.08655756e-02	3.64109873e-04
8.50000000e-01	1.06425348e-02	3.74376825e-04
8.51000000e-01	1.09443063e-02	3.99334446e-04
8.52000000e-01	1.07815104e-02	4.10017890e-04
8.53000000e-01	1.04075374e-02	4.15404324e-04
8.54000000e-01	1.07360344e-02	4.46254020e-04
8.55000000e-01	1.04324458e-02	4.49101497e-04
8.56000000e-01	1.09852137e-02	4.82330641e-04
8.57000000e-01	1.07753089e-02	4.89536319e-04
8.58000000e-01	1.04629585e-02	4.84152116e-04
8.59000000e-01	1.01925191e-02	4.95035535e-04
8.60000000e-01	1.06875525e-02	5.19107100e-04
8.61000000e-01	1.07301898e-02	5.48364224e-04
8.62000000e-01	1.05082086e-02	5.61764807e-04
8.63000000e-01	1.10004684e-02	5.97254527e-04
8.64000000e-01	1.05252124e-02	6.01528365e-04
8.65000000e-01	1.02962651e-02	6.30891140e-04
8.66000000e-01	1.00601760e-02	6.39280773e-04
8.67000000e-01	1.03792000e-02	7.11167780e-04
8.68000000e-01	1.09902706e-02	7.86629702e-04
8.69000000e-01	9.69218931e-03	7.41575892e-04
8.70000000e-01	9.96937609e-03	8.44777439e-04
8.71000000e-01	9.81207745e-03	9.00265379e-04
8.72000000e-01	1.02257055e-02	1.04924759e-03
8.73000000e-01	1.05139161e-02	1.29958259e-03
8.74000000e-01	1.22990409e-02	2.00922748e-03
8.75000000e-01	6.64175380e-03	2.76517607e-03
