% Filename : SDL7c_00027_00011.h5
% Date & Time : 30-Oct-2025 17:06:57
% X-ray Energy (keV) : 13.30001
% Exposure Time (s) : 0.500
% Beam Center : 1461.24000, 208.98300
% Sample to Detector Distance (SDD) (mm) : 1990.750
% Detector Pixel Size (mm) : 0.075
% Photodiode Value : 140938.000
% I0 of Sample : 0
% I0 of Standard : 1
% 
% q(A^-1)   I(q)    I(q)_SE
0.00000000e+00	3.84567903e-03	2.22030382e-03
2.50000000e-04	0.00000000e+00	0.00000000e+00
5.00000000e-04	0.00000000e+00	0.00000000e+00
7.50000000e-04	0.00000000e+00	0.00000000e+00
1.00000000e-03	0.00000000e+00	0.00000000e+00
1.25000000e-03	0.00000000e+00	0.00000000e+00
1.50000000e-03	0.00000000e+00	0.00000000e+00
1.75000000e-03	0.00000000e+00	0.00000000e+00
2.00000000e-03	0.00000000e+00	0.00000000e+00
2.25000000e-03	0.00000000e+00	0.00000000e+00
2.50000000e-03	0.00000000e+00	0.00000000e+00
2.75000000e-03	0.00000000e+00	0.00000000e+00
3.00000000e-03	0.00000000e+00	0.00000000e+00
3.25000000e-03	1.87757540e+03	1.35104240e+03
3.50000000e-03	3.43537538e+02	2.35640467e+02
3.75000000e-03	8.63338196e+01	7.39427208e+01
4.00000000e-03	1.44560384e+02	9.85528702e+01
4.25000000e-03	5.49828556e+01	4.77327694e+01
4.50000000e-03	5.96604694e+01	3.85339163e+01
4.75000000e-03	6.19032666e+01	2.98656277e+01
5.00000000e-03	5.00032738e+01	2.38056792e+01
5.25000000e-03	4.41291707e+01	2.00361287e+01
5.50000000e-03	3.35869980e+01	1.56892023e+01
5.75000000e-03	3.19735747e+01	1.53591146e+01
6.00000000e-03	2.43260775e+01	1.11232425e+01
6.25000000e-03	2.13553721e+01	9.51559010e+00
6.50000000e-03	1.98929217e+01	8.89539528e+00
6.75000000e-03	1.58542216e+01	6.72380676e+00
7.00000000e-03	1.29099938e+01	5.29224160e+00
7.25000000e-03	1.27927932e+01	5.32921127e+00
7.50000000e-03	9.98971041e+00	4.16010446e+00
7.75000000e-03	8.74587902e+00	3.48164962e+00
8.00000000e-03	7.83361618e+00	3.14117157e+00
8.25000000e-03	6.58126031e+00	2.57626118e+00
8.50000000e-03	6.11730975e+00	2.34027236e+00
8.75000000e-03	5.87337414e+00	2.29823740e+00
9.00000000e-03	4.98171318e+00	1.92324874e+00
9.25000000e-03	4.42355299e+00	1.71090135e+00
9.50000000e-03	4.03335366e+00	1.54308344e+00
9.75000000e-03	3.54366335e+00	1.33499513e+00
1.00000000e-02	2.51313811e+00	9.78825273e-01
1.02500000e-02	2.90442691e+00	1.08746170e+00
1.05000000e-02	2.52398801e+00	9.18200195e-01
1.07500000e-02	2.36785329e+00	8.53928301e-01
1.10000000e-02	2.13438390e+00	7.74722313e-01
1.12500000e-02	1.92680484e+00	7.30958314e-01
1.15000000e-02	1.88025082e+00	6.67447938e-01
1.17500000e-02	1.65039568e+00	6.00925797e-01
1.20000000e-02	1.64659601e+00	5.70823681e-01
1.22500000e-02	1.37329487e+00	4.54669589e-01
1.25000000e-02	1.27951918e+00	4.24988796e-01
1.27500000e-02	1.19993791e+00	3.98225177e-01
1.30000000e-02	1.08009218e+00	3.49905166e-01
1.32500000e-02	1.03126193e+00	3.34142226e-01
1.35000000e-02	1.02034966e+00	3.36683845e-01
1.37500000e-02	9.71274068e-01	3.14326141e-01
1.40000000e-02	8.97575591e-01	2.89936830e-01
1.42500000e-02	8.37480971e-01	2.69972986e-01
1.45000000e-02	7.85775834e-01	2.44971577e-01
1.47500000e-02	7.15796147e-01	2.21307083e-01
1.50000000e-02	6.48091071e-01	2.01366563e-01
1.52500000e-02	5.67176198e-01	1.66809613e-01
1.55000000e-02	5.71806404e-01	1.70563014e-01
1.57500000e-02	5.63372175e-01	1.64753084e-01
1.60000000e-02	5.33030830e-01	1.54833989e-01
1.62500000e-02	5.31100198e-01	1.55536044e-01
1.65000000e-02	4.98181233e-01	1.40767901e-01
1.67500000e-02	4.41760196e-01	1.23897117e-01
1.70000000e-02	4.18603509e-01	1.16138890e-01
1.72500000e-02	3.81468528e-01	1.06157057e-01
1.75000000e-02	3.45270842e-01	1.00424740e-01
1.77500000e-02	3.44611440e-01	9.39967146e-02
1.80000000e-02	3.35829897e-01	9.19251320e-02
1.82500000e-02	3.10316974e-01	8.42699062e-02
1.85000000e-02	2.78372742e-01	7.39957786e-02
1.87500000e-02	3.10216546e-01	8.27382164e-02
1.90000000e-02	2.92978759e-01	7.86725220e-02
1.92500000e-02	2.74452661e-01	7.28074729e-02
1.95000000e-02	2.32074222e-01	6.09262221e-02
1.97500000e-02	2.44060101e-01	6.25798415e-02
2.00000000e-02	2.09347826e-01	5.50352008e-02
2.02500000e-02	2.16057621e-01	5.61869270e-02
2.05000000e-02	2.09245139e-01	5.17260540e-02
2.07500000e-02	2.01506370e-01	4.80083462e-02
2.10000000e-02	2.04692169e-01	4.93413385e-02
2.12500000e-02	2.00328107e-01	4.66960486e-02
2.15000000e-02	1.84144481e-01	4.18061394e-02
2.17500000e-02	1.81594767e-01	4.27218661e-02
2.20000000e-02	1.78796073e-01	4.11771117e-02
2.22500000e-02	1.64365519e-01	3.71080711e-02
2.25000000e-02	1.66009786e-01	3.75274277e-02
2.27500000e-02	1.62675882e-01	3.68932551e-02
2.30000000e-02	1.57819175e-01	3.47226138e-02
2.32500000e-02	1.54589494e-01	3.35055410e-02
2.35000000e-02	1.54664569e-01	3.35196679e-02
2.37500000e-02	1.41828337e-01	2.97781389e-02
2.40000000e-02	1.31919303e-01	2.80255716e-02
2.42500000e-02	1.37231842e-01	2.93019530e-02
2.45000000e-02	1.27174906e-01	2.65173552e-02
2.47500000e-02	1.25079252e-01	2.49935179e-02
2.50000000e-02	1.26296270e-01	2.58165998e-02
2.52500000e-02	1.09928268e-01	2.14269672e-02
2.55000000e-02	1.12365536e-01	2.10738345e-02
2.57500000e-02	1.13772404e-01	2.20821463e-02
2.60000000e-02	1.11468203e-01	2.13472126e-02
2.62500000e-02	1.05613850e-01	1.98398986e-02
2.65000000e-02	1.06280729e-01	1.96258411e-02
2.67500000e-02	1.02981757e-01	1.84118699e-02
2.70000000e-02	9.49534001e-02	1.75338619e-02
2.72500000e-02	9.37358957e-02	1.65783487e-02
2.75000000e-02	9.07370588e-02	1.61362486e-02
2.77500000e-02	9.40254262e-02	1.68954428e-02
2.80000000e-02	8.86156782e-02	1.51150110e-02
2.82500000e-02	8.93939294e-02	1.52913844e-02
2.85000000e-02	8.98694226e-02	1.52308975e-02
2.87500000e-02	8.41246698e-02	1.39579592e-02
2.90000000e-02	8.47628978e-02	1.40712892e-02
2.92500000e-02	7.98587175e-02	1.30928997e-02
2.95000000e-02	7.76913961e-02	1.22107473e-02
2.97500000e-02	7.66907545e-02	1.18931894e-02
3.00000000e-02	7.42514505e-02	1.14772195e-02
3.02500000e-02	7.57953438e-02	1.14033232e-02
3.05000000e-02	7.38922826e-02	1.10520721e-02
3.07500000e-02	7.33853494e-02	1.08459755e-02
3.10000000e-02	7.09237931e-02	1.05655805e-02
3.12500000e-02	6.94462422e-02	1.00146241e-02
3.15000000e-02	6.71745073e-02	9.19173570e-03
3.17500000e-02	6.61137083e-02	8.97234010e-03
3.20000000e-02	6.43925052e-02	8.76743045e-03
3.22500000e-02	6.40884347e-02	8.63978973e-03
3.25000000e-02	5.96917259e-02	7.80717009e-03
3.27500000e-02	6.08821593e-02	7.75912027e-03
3.30000000e-02	5.92921478e-02	7.78120696e-03
3.32500000e-02	5.74211241e-02	7.27481945e-03
3.35000000e-02	5.79495149e-02	7.35166176e-03
3.37500000e-02	5.72215664e-02	7.32669968e-03
3.40000000e-02	5.43563794e-02	6.60639697e-03
3.42500000e-02	5.50676081e-02	6.71396677e-03
3.45000000e-02	5.46711036e-02	6.51167482e-03
3.47500000e-02	5.37520358e-02	6.50486090e-03
3.50000000e-02	5.17689122e-02	5.92348077e-03
3.52500000e-02	5.24404290e-02	6.02378059e-03
3.55000000e-02	4.94640754e-02	5.64043473e-03
3.57500000e-02	4.89600882e-02	5.51056632e-03
3.60000000e-02	4.87423003e-02	5.53304442e-03
3.62500000e-02	4.77702590e-02	5.26816797e-03
3.65000000e-02	4.79991185e-02	5.37954981e-03
3.67500000e-02	4.64541568e-02	4.91282533e-03
3.70000000e-02	4.54593762e-02	4.56484133e-03
3.72500000e-02	4.55792564e-02	4.72528636e-03
3.75000000e-02	4.56978655e-02	4.53495441e-03
3.77500000e-02	4.22713694e-02	3.99194918e-03
3.80000000e-02	4.43912775e-02	4.23440305e-03
3.82500000e-02	4.27501962e-02	4.24122131e-03
3.85000000e-02	4.30337889e-02	4.25745635e-03
3.87500000e-02	4.26114825e-02	4.06068741e-03
3.90000000e-02	4.05938887e-02	3.68786117e-03
3.92500000e-02	4.10946147e-02	3.64930690e-03
3.95000000e-02	4.11537322e-02	3.72917569e-03
3.97500000e-02	4.04008820e-02	3.68040235e-03
4.00000000e-02	4.03589358e-02	3.57379315e-03
4.02500000e-02	3.91957772e-02	3.38757664e-03
4.05000000e-02	3.85614191e-02	3.19631970e-03
4.07500000e-02	3.77471307e-02	3.14374962e-03
4.10000000e-02	3.82125750e-02	3.21548586e-03
4.12500000e-02	3.81403819e-02	3.11760728e-03
4.15000000e-02	3.75581228e-02	2.96891783e-03
4.17500000e-02	3.72168925e-02	3.10216438e-03
4.20000000e-02	3.54683179e-02	2.69168022e-03
4.22500000e-02	3.67156204e-02	2.74148153e-03
4.25000000e-02	3.53807639e-02	2.67703693e-03
4.27500000e-02	3.49511040e-02	2.64634738e-03
4.30000000e-02	3.64370766e-02	2.83223015e-03
4.32500000e-02	3.38341942e-02	2.42636421e-03
4.35000000e-02	3.50025344e-02	2.48965059e-03
4.37500000e-02	3.38327210e-02	2.43484176e-03
4.40000000e-02	3.48138137e-02	2.54523942e-03
4.42500000e-02	3.35853568e-02	2.38587731e-03
4.45000000e-02	3.34161558e-02	2.31082494e-03
4.47500000e-02	3.25062315e-02	2.17974904e-03
4.50000000e-02	3.21823002e-02	2.15992152e-03
4.52500000e-02	3.21726822e-02	2.16163011e-03
4.55000000e-02	3.22582986e-02	2.12883927e-03
4.57500000e-02	3.15055474e-02	1.99611981e-03
4.60000000e-02	3.19247908e-02	2.11977019e-03
4.62500000e-02	3.25062012e-02	1.97975763e-03
4.65000000e-02	2.96463705e-02	1.82579169e-03
4.67500000e-02	3.18319500e-02	2.01385147e-03
4.70000000e-02	3.21397184e-02	1.99200915e-03
4.72500000e-02	3.10927804e-02	1.85181173e-03
4.75000000e-02	3.04151158e-02	1.80854344e-03
4.77500000e-02	3.03561912e-02	1.74639660e-03
4.80000000e-02	3.09774460e-02	1.83659548e-03
4.82500000e-02	3.04156728e-02	1.78328397e-03
4.85000000e-02	2.99487593e-02	1.78217236e-03
4.87500000e-02	3.00029886e-02	1.72163592e-03
4.90000000e-02	3.01009185e-02	1.72871803e-03
4.92500000e-02	2.90945287e-02	1.65714935e-03
4.95000000e-02	2.88643421e-02	1.51386351e-03
4.97500000e-02	2.89991904e-02	1.63983267e-03
5.00000000e-02	2.91740973e-02	1.57577565e-03
5.02500000e-02	2.90055470e-02	1.51524838e-03
5.05000000e-02	2.88620212e-02	1.53706666e-03
5.07500000e-02	2.83193041e-02	1.48854360e-03
5.10000000e-02	2.78429557e-02	1.46852165e-03
5.12500000e-02	2.80920351e-02	1.47548415e-03
5.15000000e-02	2.73715890e-02	1.39966729e-03
5.17500000e-02	2.74173026e-02	1.41544520e-03
5.20000000e-02	2.79203504e-02	1.43258225e-03
5.22500000e-02	2.78368191e-02	1.36453924e-03
5.25000000e-02	2.71150365e-02	1.30718823e-03
5.27500000e-02	2.66637631e-02	1.34198872e-03
5.30000000e-02	2.69457111e-02	1.30056976e-03
5.32500000e-02	2.73394687e-02	1.32268092e-03
5.35000000e-02	2.68783317e-02	1.31013554e-03
5.37500000e-02	2.68142474e-02	1.28750403e-03
5.40000000e-02	2.67554463e-02	1.21507598e-03
5.42500000e-02	2.67324181e-02	1.24917493e-03
5.45000000e-02	2.64189152e-02	1.23029005e-03
5.47500000e-02	2.60430221e-02	1.19502148e-03
5.50000000e-02	2.60903632e-02	1.18371729e-03
5.52500000e-02	2.57262215e-02	1.16405337e-03
5.55000000e-02	2.63912172e-02	1.21353102e-03
5.57500000e-02	2.62594423e-02	1.17884159e-03
5.60000000e-02	2.56814658e-02	1.13042907e-03
5.62500000e-02	2.58854694e-02	1.16337543e-03
5.65000000e-02	2.59471156e-02	1.15618393e-03
5.67500000e-02	2.55708718e-02	1.11907122e-03
5.70000000e-02	2.53697213e-02	1.12028499e-03
5.72500000e-02	2.47643361e-02	1.07456955e-03
5.75000000e-02	2.51146585e-02	1.10997786e-03
5.77500000e-02	2.53621658e-02	1.07589586e-03
5.80000000e-02	2.54838257e-02	1.07529639e-03
5.82500000e-02	2.48604946e-02	1.07151772e-03
5.85000000e-02	2.48944857e-02	1.03165662e-03
5.87500000e-02	2.47370821e-02	1.02154705e-03
5.90000000e-02	2.44518264e-02	1.01795625e-03
5.92500000e-02	2.52289753e-02	1.02171576e-03
5.95000000e-02	2.48411419e-02	1.00801859e-03
5.97500000e-02	2.41523683e-02	9.71850200e-04
6.00000000e-02	2.41301628e-02	9.67383763e-04
6.02500000e-02	2.39724194e-02	9.61149622e-04
6.05000000e-02	2.53586839e-02	1.01170542e-03
6.07500000e-02	2.42631189e-02	9.85807292e-04
6.10000000e-02	2.42688277e-02	9.60536451e-04
6.12500000e-02	2.33388648e-02	9.44311262e-04
6.15000000e-02	2.38974202e-02	9.31473526e-04
6.17500000e-02	2.37223245e-02	9.33752075e-04
6.20000000e-02	2.42075908e-02	9.55793353e-04
6.22500000e-02	2.34711172e-02	9.18893603e-04
6.25000000e-02	2.38919943e-02	9.49281030e-04
6.27500000e-02	2.35667089e-02	9.32455601e-04
6.30000000e-02	2.35246197e-02	9.01852218e-04
6.32500000e-02	2.36854051e-02	9.20041794e-04
6.35000000e-02	2.36240713e-02	9.11824589e-04
6.37500000e-02	2.39641070e-02	9.13465850e-04
6.40000000e-02	2.33548530e-02	8.96545320e-04
6.42500000e-02	2.33892973e-02	8.80806112e-04
6.45000000e-02	2.38716526e-02	9.07559474e-04
6.47500000e-02	2.36746854e-02	8.96615159e-04
6.50000000e-02	2.31655982e-02	8.79308472e-04
6.52500000e-02	2.36019031e-02	8.77490285e-04
6.55000000e-02	2.31865843e-02	8.65864202e-04
6.57500000e-02	2.37965473e-02	8.96470806e-04
6.60000000e-02	2.38285408e-02	8.90777748e-04
6.62500000e-02	2.33233869e-02	8.60557159e-04
6.65000000e-02	2.29600075e-02	8.45491685e-04
6.67500000e-02	2.33253005e-02	8.60514826e-04
6.70000000e-02	2.32156358e-02	8.62499028e-04
6.72500000e-02	2.28588860e-02	8.38106647e-04
6.75000000e-02	2.31225793e-02	8.45611538e-04
6.77500000e-02	2.28724961e-02	8.32834088e-04
6.80000000e-02	2.28611099e-02	8.39716018e-04
6.82500000e-02	2.37828032e-02	8.65900912e-04
6.85000000e-02	2.19189551e-02	8.01473920e-04
6.87500000e-02	2.29173025e-02	8.41846270e-04
6.90000000e-02	2.27366338e-02	8.11438243e-04
6.92500000e-02	2.26053720e-02	8.05825269e-04
6.95000000e-02	2.28832873e-02	8.30890189e-04
6.97500000e-02	2.28137526e-02	8.12683428e-04
7.00000000e-02	2.31185897e-02	8.29700280e-04
7.02500000e-02	2.28938714e-02	8.25729783e-04
7.05000000e-02	2.26470849e-02	8.06590146e-04
7.07500000e-02	2.22602941e-02	7.93778703e-04
7.10000000e-02	2.30069479e-02	8.09958796e-04
7.12500000e-02	2.20757450e-02	7.72555059e-04
7.15000000e-02	2.26406956e-02	7.98825535e-04
7.17500000e-02	2.26268305e-02	8.00933871e-04
7.20000000e-02	2.23230114e-02	7.89665503e-04
7.22500000e-02	2.30022203e-02	8.06013152e-04
7.25000000e-02	2.27850945e-02	7.98715931e-04
7.27500000e-02	2.27644511e-02	7.89362011e-04
7.30000000e-02	2.22972586e-02	7.81421826e-04
7.32500000e-02	2.23540694e-02	7.83044830e-04
7.35000000e-02	2.20212876e-02	7.71298138e-04
7.37500000e-02	2.26116713e-02	7.78059519e-04
7.40000000e-02	2.27575199e-02	7.82091883e-04
7.42500000e-02	2.16850401e-02	7.50939545e-04
7.45000000e-02	2.24879571e-02	7.75060981e-04
7.47500000e-02	2.23607476e-02	7.60826108e-04
7.50000000e-02	2.26592343e-02	7.82574534e-04
7.52500000e-02	2.25297544e-02	7.72837628e-04
7.55000000e-02	2.22957792e-02	7.58313171e-04
7.57500000e-02	2.19207085e-02	7.50635536e-04
7.60000000e-02	2.18363282e-02	7.48737528e-04
7.62500000e-02	2.19218261e-02	7.47193145e-04
7.65000000e-02	2.17045899e-02	7.39309659e-04
7.67500000e-02	2.15998647e-02	7.33181596e-04
7.70000000e-02	2.23016905e-02	7.45501976e-04
7.72500000e-02	2.22466340e-02	7.66893457e-04
7.75000000e-02	2.17143690e-02	7.51824922e-04
7.77500000e-02	2.17391052e-02	7.64475642e-04
7.80000000e-02	2.19047647e-02	7.65240650e-04
7.82500000e-02	2.18590057e-02	7.69911161e-04
7.85000000e-02	2.23073678e-02	7.90301783e-04
7.87500000e-02	2.18831404e-02	7.74061547e-04
7.90000000e-02	2.19235809e-02	7.82171034e-04
7.92500000e-02	2.17728714e-02	7.72237077e-04
7.95000000e-02	2.15499679e-02	7.76381716e-04
7.97500000e-02	2.18366217e-02	7.84181281e-04
8.00000000e-02	2.17928759e-02	7.85911389e-04
8.02500000e-02	2.17579904e-02	7.80439336e-04
8.05000000e-02	2.15028484e-02	7.71715626e-04
8.07500000e-02	2.14116443e-02	7.77834838e-04
8.10000000e-02	2.18061917e-02	7.85568088e-04
8.12500000e-02	2.18662047e-02	7.96486995e-04
8.15000000e-02	2.14936356e-02	7.77375713e-04
8.17500000e-02	2.17271279e-02	7.90436118e-04
8.20000000e-02	2.18503591e-02	7.96098986e-04
8.22500000e-02	2.16618490e-02	7.86422777e-04
8.25000000e-02	2.16458867e-02	7.90121538e-04
8.27500000e-02	2.21487100e-02	8.02859596e-04
8.30000000e-02	2.20553103e-02	8.06618069e-04
8.32500000e-02	2.14107200e-02	7.81599353e-04
8.35000000e-02	2.14213963e-02	7.91939554e-04
8.37500000e-02	2.13898431e-02	7.80658831e-04
8.40000000e-02	2.10663414e-02	7.79895802e-04
8.42500000e-02	2.15713776e-02	7.91958568e-04
8.45000000e-02	2.19876694e-02	8.12925825e-04
8.47500000e-02	2.20051822e-02	8.21351531e-04
8.50000000e-02	2.18981251e-02	8.11183741e-04
8.52500000e-02	2.13624697e-02	7.88189825e-04
8.55000000e-02	2.16657329e-02	8.03157538e-04
8.57500000e-02	2.17079611e-02	8.03508079e-04
8.60000000e-02	2.12592019e-02	7.90817564e-04
8.62500000e-02	2.13029255e-02	7.91647129e-04
8.65000000e-02	2.13755793e-02	7.90108415e-04
8.67500000e-02	2.12794561e-02	7.83705520e-04
8.70000000e-02	2.10932959e-02	7.62378979e-04
8.72500000e-02	2.11207005e-02	7.54799419e-04
8.75000000e-02	2.11534057e-02	7.49200347e-04
8.77500000e-02	2.01939588e-02	7.05804291e-04
8.80000000e-02	2.12263650e-02	7.45954664e-04
8.82500000e-02	2.12842564e-02	7.39950542e-04
8.85000000e-02	2.08680047e-02	7.34077541e-04
8.87500000e-02	2.12276744e-02	7.23542347e-04
8.90000000e-02	2.10099231e-02	7.31248401e-04
8.92500000e-02	2.15587973e-02	7.40391048e-04
8.95000000e-02	2.10866521e-02	7.20565371e-04
8.97500000e-02	2.12676809e-02	7.18955164e-04
9.00000000e-02	2.13169692e-02	7.21999499e-04
9.02500000e-02	2.09949623e-02	7.12788128e-04
9.05000000e-02	2.01860790e-02	6.81929493e-04
9.07500000e-02	2.10069798e-02	7.08091239e-04
9.10000000e-02	2.11261968e-02	7.04875407e-04
9.12500000e-02	2.08783475e-02	6.95280388e-04
9.15000000e-02	2.10357653e-02	7.05802516e-04
9.17500000e-02	2.12301848e-02	7.09538063e-04
9.20000000e-02	2.10176974e-02	7.03477974e-04
9.22500000e-02	2.08733564e-02	6.88886899e-04
9.25000000e-02	2.10869616e-02	6.97959929e-04
9.27500000e-02	2.12165562e-02	7.05328667e-04
9.30000000e-02	2.06722180e-02	6.82473863e-04
9.32500000e-02	2.09076983e-02	6.92389174e-04
9.35000000e-02	2.06246504e-02	6.76184809e-04
9.37500000e-02	2.10604035e-02	6.86887141e-04
9.40000000e-02	2.04008157e-02	6.70020723e-04
9.42500000e-02	2.08010704e-02	6.78635533e-04
9.45000000e-02	2.07479035e-02	6.76686155e-04
9.47500000e-02	2.12061282e-02	6.85826109e-04
9.50000000e-02	2.09715568e-02	6.78105959e-04
9.52500000e-02	2.11474829e-02	6.85719297e-04
9.55000000e-02	2.06653831e-02	6.70327093e-04
9.57500000e-02	2.14006662e-02	6.91298532e-04
9.60000000e-02	2.03613399e-02	6.51910751e-04
9.62500000e-02	2.13022401e-02	6.85485591e-04
9.65000000e-02	2.08743210e-02	6.73316215e-04
9.67500000e-02	2.09676181e-02	6.72654300e-04
9.70000000e-02	2.04151263e-02	6.60993315e-04
9.72500000e-02	2.07705997e-02	6.61740555e-04
9.75000000e-02	2.06942692e-02	6.67875877e-04
9.77500000e-02	2.08747705e-02	6.59794046e-04
9.80000000e-02	2.04261753e-02	6.51486526e-04
9.82500000e-02	2.06672024e-02	6.56126756e-04
9.85000000e-02	2.08344796e-02	6.60958468e-04
9.87500000e-02	2.06592336e-02	6.50748253e-04
9.90000000e-02	2.08827914e-02	6.61141866e-04
9.92500000e-02	2.04948847e-02	6.49660538e-04
9.95000000e-02	2.11057801e-02	6.65404525e-04
9.97500000e-02	2.08479595e-02	6.53650570e-04
1.00000000e-01	2.06048947e-02	5.30189733e-04
1.00500000e-01	2.08112055e-02	4.60429273e-04
1.01000000e-01	2.08952114e-02	4.62051646e-04
1.01500000e-01	2.04005713e-02	4.51876715e-04
1.02000000e-01	2.03089820e-02	4.47761917e-04
1.02500000e-01	2.01641754e-02	4.41498222e-04
1.03000000e-01	2.02627457e-02	4.45109072e-04
1.03500000e-01	2.05775752e-02	4.49604632e-04
1.04000000e-01	2.01986046e-02	4.40390621e-04
1.04500000e-01	2.03435160e-02	4.42455147e-04
1.05000000e-01	2.06533539e-02	4.46096701e-04
1.05500000e-01	2.01956040e-02	4.36990393e-04
1.06000000e-01	2.01704100e-02	4.35367441e-04
1.06500000e-01	2.06198195e-02	4.43096633e-04
1.07000000e-01	2.04842544e-02	4.46378331e-04
1.07500000e-01	2.05488141e-02	4.53315906e-04
1.08000000e-01	2.03996029e-02	4.55919264e-04
1.08500000e-01	2.03239174e-02	4.55203854e-04
1.09000000e-01	2.01329022e-02	4.56545863e-04
1.09500000e-01	2.06274720e-02	4.66490594e-04
1.10000000e-01	2.01293561e-02	4.54909149e-04
1.10500000e-01	2.04199902e-02	4.48001904e-04
1.11000000e-01	2.07000164e-02	4.47668433e-04
1.11500000e-01	2.03684495e-02	4.39786028e-04
1.12000000e-01	2.03832213e-02	4.34242925e-04
1.12500000e-01	2.07177576e-02	4.36555700e-04
1.13000000e-01	2.06768512e-02	4.37172850e-04
1.13500000e-01	2.00507668e-02	4.22347014e-04
1.14000000e-01	2.06017456e-02	4.29180284e-04
1.14500000e-01	2.04035414e-02	4.26666826e-04
1.15000000e-01	2.07751996e-02	4.30463238e-04
1.15500000e-01	2.01768314e-02	4.19571944e-04
1.16000000e-01	2.04309850e-02	4.22197453e-04
1.16500000e-01	2.02282954e-02	4.18914894e-04
1.17000000e-01	2.00307004e-02	4.15570324e-04
1.17500000e-01	2.01103935e-02	4.13426508e-04
1.18000000e-01	2.03281741e-02	4.20479235e-04
1.18500000e-01	1.98209560e-02	4.07338669e-04
1.19000000e-01	1.97539302e-02	4.03381845e-04
1.19500000e-01	2.02450027e-02	4.10703574e-04
1.20000000e-01	2.04618198e-02	4.16045925e-04
1.20500000e-01	2.03023941e-02	4.10920158e-04
1.21000000e-01	2.03670052e-02	4.12611011e-04
1.21500000e-01	2.01876951e-02	4.10287791e-04
1.22000000e-01	2.01033099e-02	4.06017907e-04
1.22500000e-01	2.03588657e-02	4.09142103e-04
1.23000000e-01	2.00738058e-02	4.04137355e-04
1.23500000e-01	2.03812932e-02	4.08244747e-04
1.24000000e-01	2.01523471e-02	4.04741434e-04
1.24500000e-01	2.02601896e-02	4.03040800e-04
1.25000000e-01	2.04192652e-02	4.06159444e-04
1.25500000e-01	2.03980516e-02	4.04901218e-04
1.26000000e-01	2.03104108e-02	4.01491785e-04
1.26500000e-01	2.03510634e-02	4.02677129e-04
1.27000000e-01	2.00642901e-02	3.94618068e-04
1.27500000e-01	1.99663359e-02	3.93022950e-04
1.28000000e-01	2.00006067e-02	3.95308166e-04
1.28500000e-01	2.05874486e-02	4.02725781e-04
1.29000000e-01	2.03078794e-02	3.96776205e-04
1.29500000e-01	2.03815826e-02	3.98052985e-04
1.30000000e-01	2.05495282e-02	3.98999210e-04
1.30500000e-01	2.00102620e-02	3.89307630e-04
1.31000000e-01	2.04112038e-02	3.96225473e-04
1.31500000e-01	2.00254639e-02	3.87483093e-04
1.32000000e-01	2.02530213e-02	3.91432837e-04
1.32500000e-01	2.05711120e-02	3.94659157e-04
1.33000000e-01	2.01247851e-02	3.87088573e-04
1.33500000e-01	2.00471996e-02	3.82203402e-04
1.34000000e-01	2.03070827e-02	3.88457992e-04
1.34500000e-01	2.04300848e-02	3.87904641e-04
1.35000000e-01	1.99863317e-02	3.81034306e-04
1.35500000e-01	2.03424450e-02	3.85086988e-04
1.36000000e-01	2.00096308e-02	3.78311064e-04
1.36500000e-01	1.99362370e-02	3.79992729e-04
1.37000000e-01	2.03362721e-02	3.82613943e-04
1.37500000e-01	2.05204899e-02	3.87416122e-04
1.38000000e-01	2.02766882e-02	3.82516170e-04
1.38500000e-01	2.01955997e-02	3.80059619e-04
1.39000000e-01	2.01548282e-02	3.80222099e-04
1.39500000e-01	1.99483006e-02	3.73980601e-04
1.40000000e-01	1.99651144e-02	3.74524074e-04
1.40500000e-01	1.98532305e-02	3.72200480e-04
1.41000000e-01	2.01713845e-02	3.77160076e-04
1.41500000e-01	2.00807323e-02	3.75448787e-04
1.42000000e-01	2.00356176e-02	3.72748980e-04
1.42500000e-01	2.00970613e-02	3.73887319e-04
1.43000000e-01	1.99207341e-02	3.69855361e-04
1.43500000e-01	1.96697655e-02	3.64123770e-04
1.44000000e-01	1.99931999e-02	3.69059871e-04
1.44500000e-01	1.96697527e-02	3.62894208e-04
1.45000000e-01	1.95111296e-02	3.62658091e-04
1.45500000e-01	1.97303943e-02	3.63896116e-04
1.46000000e-01	1.98329494e-02	3.66215879e-04
1.46500000e-01	1.96126630e-02	3.61527972e-04
1.47000000e-01	1.99308531e-02	3.64544482e-04
1.47500000e-01	1.99461006e-02	3.64726495e-04
1.48000000e-01	1.95521483e-02	3.59468958e-04
1.48500000e-01	1.97842485e-02	3.62814057e-04
1.49000000e-01	2.00463834e-02	3.64436060e-04
1.49500000e-01	1.96180960e-02	3.58844577e-04
1.50000000e-01	1.97282467e-02	3.57492951e-04
1.50500000e-01	1.96128977e-02	3.56650680e-04
1.51000000e-01	1.95789838e-02	3.54851304e-04
1.51500000e-01	1.99328763e-02	3.59613735e-04
1.52000000e-01	1.96243251e-02	3.52422416e-04
1.52500000e-01	1.98085824e-02	3.56015186e-04
1.53000000e-01	1.95013226e-02	3.52957639e-04
1.53500000e-01	1.93905287e-02	3.47457142e-04
1.54000000e-01	1.95642996e-02	3.50895948e-04
1.54500000e-01	1.98335998e-02	3.62192717e-04
1.55000000e-01	1.95359684e-02	3.60595883e-04
1.55500000e-01	1.95127634e-02	3.62788104e-04
1.56000000e-01	1.94755757e-02	3.65137937e-04
1.56500000e-01	1.95945490e-02	3.64893385e-04
1.57000000e-01	1.98344380e-02	3.71534292e-04
1.57500000e-01	1.94060599e-02	3.57922495e-04
1.58000000e-01	1.98987399e-02	3.59732011e-04
1.58500000e-01	1.94422749e-02	3.51111188e-04
1.59000000e-01	1.94340187e-02	3.47833957e-04
1.59500000e-01	1.96259665e-02	3.50623970e-04
1.60000000e-01	1.96987592e-02	3.50368738e-04
1.60500000e-01	1.95236227e-02	3.47601207e-04
1.61000000e-01	1.95641292e-02	3.48370926e-04
1.61500000e-01	1.92877555e-02	3.43130968e-04
1.62000000e-01	1.94380270e-02	3.41755857e-04
1.62500000e-01	1.92221779e-02	3.39537913e-04
1.63000000e-01	1.94212099e-02	3.42026448e-04
1.63500000e-01	1.95688698e-02	3.46519687e-04
1.64000000e-01	1.94011622e-02	3.40941865e-04
1.64500000e-01	1.94534248e-02	3.41990462e-04
1.65000000e-01	1.93461061e-02	3.38919143e-04
1.65500000e-01	1.94106465e-02	3.39626303e-04
1.66000000e-01	1.91899907e-02	3.34743185e-04
1.66500000e-01	1.93552688e-02	3.36314610e-04
1.67000000e-01	1.91653796e-02	3.33334137e-04
1.67500000e-01	1.89996219e-02	3.30833565e-04
1.68000000e-01	1.93039319e-02	3.33115170e-04
1.68500000e-01	1.93799019e-02	3.34898327e-04
1.69000000e-01	1.93505499e-02	3.34958839e-04
1.69500000e-01	1.92475211e-02	3.30789827e-04
1.70000000e-01	1.91882043e-02	3.30825569e-04
1.70500000e-01	1.92086970e-02	3.30537535e-04
1.71000000e-01	1.91868099e-02	3.30999209e-04
1.71500000e-01	1.93429952e-02	3.31551878e-04
1.72000000e-01	1.90084673e-02	3.26100163e-04
1.72500000e-01	1.89166006e-02	3.23793201e-04
1.73000000e-01	1.92583936e-02	3.30018220e-04
1.73500000e-01	1.87915595e-02	3.18691964e-04
1.74000000e-01	1.91234827e-02	3.24872651e-04
1.74500000e-01	1.92853317e-02	3.26243881e-04
1.75000000e-01	1.92602270e-02	3.23712317e-04
1.75500000e-01	1.89516123e-02	3.18782768e-04
1.76000000e-01	1.91476421e-02	3.21356225e-04
1.76500000e-01	1.88255887e-02	3.16634627e-04
1.77000000e-01	1.90557219e-02	3.19717051e-04
1.77500000e-01	1.92818795e-02	3.22183325e-04
1.78000000e-01	1.92441166e-02	3.22341391e-04
1.78500000e-01	1.91460995e-02	3.22379790e-04
1.79000000e-01	1.91368637e-02	3.20823439e-04
1.79500000e-01	1.90800102e-02	3.20447445e-04
1.80000000e-01	1.89930650e-02	3.18078563e-04
1.80500000e-01	1.88909703e-02	3.17696133e-04
1.81000000e-01	1.89191019e-02	3.16268356e-04
1.81500000e-01	1.89138469e-02	3.15807601e-04
1.82000000e-01	1.91880233e-02	3.19255327e-04
1.82500000e-01	1.89700548e-02	3.16953299e-04
1.83000000e-01	1.87560057e-02	3.11194360e-04
1.83500000e-01	1.88492296e-02	3.12725724e-04
1.84000000e-01	1.88842137e-02	3.12967805e-04
1.84500000e-01	1.91644278e-02	3.18334038e-04
1.85000000e-01	1.89709875e-02	3.12935595e-04
1.85500000e-01	1.88225596e-02	3.11792290e-04
1.86000000e-01	1.89181743e-02	3.11222073e-04
1.86500000e-01	1.88072592e-02	3.08700212e-04
1.87000000e-01	1.87577167e-02	3.08785024e-04
1.87500000e-01	1.89111836e-02	3.09622309e-04
1.88000000e-01	1.89003978e-02	3.09190159e-04
1.88500000e-01	1.88746152e-02	3.09239869e-04
1.89000000e-01	1.88672983e-02	3.08780090e-04
1.89500000e-01	1.88057887e-02	3.07906574e-04
1.90000000e-01	1.89666073e-02	3.09345643e-04
1.90500000e-01	1.88829457e-02	3.09543454e-04
1.91000000e-01	1.88397898e-02	3.07539385e-04
1.91500000e-01	1.87962466e-02	3.06323404e-04
1.92000000e-01	1.86932065e-02	3.02017843e-04
1.92500000e-01	1.86302768e-02	3.02419783e-04
1.93000000e-01	1.86158278e-02	3.02231904e-04
1.93500000e-01	1.87293345e-02	3.03157555e-04
1.94000000e-01	1.87349513e-02	3.02047758e-04
1.94500000e-01	1.88337695e-02	3.05671041e-04
1.95000000e-01	1.86353360e-02	3.01703368e-04
1.95500000e-01	1.86600581e-02	3.00941354e-04
1.96000000e-01	1.89351615e-02	3.03128953e-04
1.96500000e-01	1.89629464e-02	3.04446922e-04
1.97000000e-01	1.85684148e-02	2.98495707e-04
1.97500000e-01	1.84076916e-02	2.96516282e-04
1.98000000e-01	1.85329022e-02	2.96842104e-04
1.98500000e-01	1.83944779e-02	2.94675252e-04
1.99000000e-01	1.88788951e-02	3.01007700e-04
1.99500000e-01	1.88700832e-02	3.00815120e-04
2.00000000e-01	1.82122217e-02	2.90210359e-04
2.00500000e-01	1.87315809e-02	2.98325971e-04
2.01000000e-01	1.85798313e-02	2.94937464e-04
2.01500000e-01	1.84199947e-02	2.92608326e-04
2.02000000e-01	1.86443859e-02	2.96230685e-04
2.02500000e-01	1.85212536e-02	2.92729452e-04
2.03000000e-01	1.84892772e-02	2.92969140e-04
2.03500000e-01	1.85586373e-02	2.92519123e-04
2.04000000e-01	1.84219619e-02	2.90752021e-04
2.04500000e-01	1.84559573e-02	2.91763441e-04
2.05000000e-01	1.85965487e-02	2.92959324e-04
2.05500000e-01	1.85483874e-02	2.92612331e-04
2.06000000e-01	1.84519590e-02	2.89343422e-04
2.06500000e-01	1.83645599e-02	2.88072301e-04
2.07000000e-01	1.86957267e-02	2.91507582e-04
2.07500000e-01	1.83448157e-02	2.88121929e-04
2.08000000e-01	1.84459331e-02	2.88672903e-04
2.08500000e-01	1.86195392e-02	2.89161275e-04
2.09000000e-01	1.83307831e-02	2.86294453e-04
2.09500000e-01	1.84103500e-02	2.85460072e-04
2.10000000e-01	1.84541014e-02	2.87242725e-04
2.10500000e-01	1.85633828e-02	2.88665575e-04
2.11000000e-01	1.84174742e-02	2.85162166e-04
2.11500000e-01	1.83881495e-02	2.84882435e-04
2.12000000e-01	1.83351840e-02	2.83718381e-04
2.12500000e-01	1.82799392e-02	2.83208497e-04
2.13000000e-01	1.84194932e-02	2.83915662e-04
2.13500000e-01	1.81940428e-02	2.81068579e-04
2.14000000e-01	1.83141972e-02	2.82603559e-04
2.14500000e-01	1.83106965e-02	2.80703730e-04
2.15000000e-01	1.83977808e-02	2.84796779e-04
2.15500000e-01	1.83996951e-02	2.81085096e-04
2.16000000e-01	1.83130980e-02	2.81214808e-04
2.16500000e-01	1.82896858e-02	2.80478098e-04
2.17000000e-01	1.81431336e-02	2.82732742e-04
2.17500000e-01	1.82185539e-02	2.88069456e-04
2.18000000e-01	1.80341103e-02	2.86060651e-04
2.18500000e-01	1.80381882e-02	2.87364207e-04
2.19000000e-01	1.80771847e-02	2.89910954e-04
2.19500000e-01	1.83595199e-02	2.95384744e-04
2.20000000e-01	1.83251045e-02	2.95446532e-04
2.20500000e-01	1.82543476e-02	2.95965706e-04
2.21000000e-01	1.82195279e-02	2.95099580e-04
2.21500000e-01	1.81221876e-02	2.94777538e-04
2.22000000e-01	1.82999417e-02	2.98829428e-04
2.22500000e-01	1.80534082e-02	2.94680522e-04
2.23000000e-01	1.82153509e-02	2.97952043e-04
2.23500000e-01	1.80645214e-02	2.97088488e-04
2.24000000e-01	1.79855983e-02	2.96031687e-04
2.24500000e-01	1.79822116e-02	2.97130653e-04
2.25000000e-01	1.81628235e-02	2.99371775e-04
2.25500000e-01	1.83192550e-02	3.03086261e-04
2.26000000e-01	1.83067106e-02	3.03689652e-04
2.26500000e-01	1.83383806e-02	2.99827387e-04
2.27000000e-01	1.82609318e-02	2.95146892e-04
2.27500000e-01	1.82716344e-02	2.93500600e-04
2.28000000e-01	1.83765484e-02	2.94976199e-04
2.28500000e-01	1.81157891e-02	2.86824628e-04
2.29000000e-01	1.80551317e-02	2.85569969e-04
2.29500000e-01	1.81952625e-02	2.86614921e-04
2.30000000e-01	1.79991366e-02	2.83348665e-04
2.30500000e-01	1.80183736e-02	2.81051068e-04
2.31000000e-01	1.81804610e-02	2.84270480e-04
2.31500000e-01	1.78650014e-02	2.78128040e-04
2.32000000e-01	1.79852577e-02	2.80458384e-04
2.32500000e-01	1.80461737e-02	2.80158548e-04
2.33000000e-01	1.79221155e-02	2.78350714e-04
2.33500000e-01	1.80732273e-02	2.79236384e-04
2.34000000e-01	1.81193405e-02	2.78851820e-04
2.34500000e-01	1.79664206e-02	2.77051137e-04
2.35000000e-01	1.80746864e-02	2.77084406e-04
2.35500000e-01	1.78505000e-02	2.74098050e-04
2.36000000e-01	1.79551775e-02	2.75141357e-04
2.36500000e-01	1.77770033e-02	2.72386531e-04
2.37000000e-01	1.80330863e-02	2.75556839e-04
2.37500000e-01	1.79558090e-02	2.73393045e-04
2.38000000e-01	1.81079032e-02	2.74170603e-04
2.38500000e-01	1.81336956e-02	2.76251392e-04
2.39000000e-01	1.79924742e-02	2.73065442e-04
2.39500000e-01	1.78874157e-02	2.71219208e-04
2.40000000e-01	1.77227856e-02	2.67651820e-04
2.40500000e-01	1.76694929e-02	2.66660952e-04
2.41000000e-01	1.75813384e-02	2.64926748e-04
2.41500000e-01	1.78314486e-02	2.68485373e-04
2.42000000e-01	1.77445424e-02	2.67667558e-04
2.42500000e-01	1.80062496e-02	2.69305081e-04
2.43000000e-01	1.80770548e-02	2.69597012e-04
2.43500000e-01	1.80447771e-02	2.69683158e-04
2.44000000e-01	1.75756877e-02	2.62511017e-04
2.44500000e-01	1.79083430e-02	2.65803873e-04
2.45000000e-01	1.76378111e-02	2.62984890e-04
2.45500000e-01	1.77271301e-02	2.63530159e-04
2.46000000e-01	1.77422180e-02	2.64219860e-04
2.46500000e-01	1.77271960e-02	2.61595198e-04
2.47000000e-01	1.77623593e-02	2.63235564e-04
2.47500000e-01	1.78413800e-02	2.62872945e-04
2.48000000e-01	1.75568054e-02	2.59134811e-04
2.48500000e-01	1.78656486e-02	2.62580198e-04
2.49000000e-01	1.77950182e-02	2.61306895e-04
2.49500000e-01	1.77953425e-02	2.61565682e-04
2.50000000e-01	1.77777203e-02	2.60943383e-04
2.50500000e-01	1.75103385e-02	2.58308974e-04
2.51000000e-01	1.76201415e-02	2.57839708e-04
2.51500000e-01	1.76659694e-02	2.59725160e-04
2.52000000e-01	1.76322070e-02	2.58824940e-04
2.52500000e-01	1.76342962e-02	2.58026015e-04
2.53000000e-01	1.75590215e-02	2.57497062e-04
2.53500000e-01	1.77330527e-02	2.58781747e-04
2.54000000e-01	1.75567154e-02	2.56277786e-04
2.54500000e-01	1.76651378e-02	2.56986199e-04
2.55000000e-01	1.76761093e-02	2.57433867e-04
2.55500000e-01	1.75388003e-02	2.55682758e-04
2.56000000e-01	1.76778916e-02	2.54931249e-04
2.56500000e-01	1.75181196e-02	2.54326835e-04
2.57000000e-01	1.74983372e-02	2.53675735e-04
2.57500000e-01	1.75597317e-02	2.53763614e-04
2.58000000e-01	1.74287853e-02	2.53148689e-04
2.58500000e-01	1.75485658e-02	2.52035361e-04
2.59000000e-01	1.76430115e-02	2.54379437e-04
2.59500000e-01	1.76991650e-02	2.53817815e-04
2.60000000e-01	1.77829550e-02	2.55220703e-04
2.60500000e-01	1.75171999e-02	2.52247928e-04
2.61000000e-01	1.75439301e-02	2.51722055e-04
2.61500000e-01	1.73666279e-02	2.50365573e-04
2.62000000e-01	1.74874593e-02	2.50113829e-04
2.62500000e-01	1.75708160e-02	2.51627289e-04
2.63000000e-01	1.76007647e-02	2.52012803e-04
2.63500000e-01	1.75533148e-02	2.50585459e-04
2.64000000e-01	1.75933172e-02	2.51441859e-04
2.64500000e-01	1.76085920e-02	2.50821832e-04
2.65000000e-01	1.75272264e-02	2.49984755e-04
2.65500000e-01	1.75140067e-02	2.49313468e-04
2.66000000e-01	1.73116008e-02	2.46225334e-04
2.66500000e-01	1.75371906e-02	2.48115945e-04
2.67000000e-01	1.75303022e-02	2.48414452e-04
2.67500000e-01	1.72724842e-02	2.44422320e-04
2.68000000e-01	1.75944666e-02	2.47412092e-04
2.68500000e-01	1.74493175e-02	2.46144548e-04
2.69000000e-01	1.73416448e-02	2.44698172e-04
2.69500000e-01	1.75029965e-02	2.46238224e-04
2.70000000e-01	1.73698362e-02	2.44110019e-04
2.70500000e-01	1.73810065e-02	2.44759183e-04
2.71000000e-01	1.72115033e-02	2.41524137e-04
2.71500000e-01	1.73430375e-02	2.43384699e-04
2.72000000e-01	1.74657048e-02	2.44262478e-04
2.72500000e-01	1.73493045e-02	2.44239224e-04
2.73000000e-01	1.74233814e-02	2.42887259e-04
2.73500000e-01	1.74444953e-02	2.43563924e-04
2.74000000e-01	1.74518786e-02	2.43305536e-04
2.74500000e-01	1.73427469e-02	2.41287086e-04
2.75000000e-01	1.73098402e-02	2.41813829e-04
2.75500000e-01	1.72089573e-02	2.40446839e-04
2.76000000e-01	1.74116220e-02	2.42519663e-04
2.76500000e-01	1.71425311e-02	2.38800595e-04
2.77000000e-01	1.70957240e-02	2.38343866e-04
2.77500000e-01	1.71379468e-02	2.37739055e-04
2.78000000e-01	1.74585173e-02	2.42174333e-04
2.78500000e-01	1.73371983e-02	2.39720860e-04
2.79000000e-01	1.72976534e-02	2.40011787e-04
2.79500000e-01	1.73706665e-02	2.39942152e-04
2.80000000e-01	1.72745841e-02	2.38809807e-04
2.80500000e-01	1.72095160e-02	2.37903906e-04
2.81000000e-01	1.72605201e-02	2.38269324e-04
2.81500000e-01	1.71373582e-02	2.36002833e-04
2.82000000e-01	1.71812311e-02	2.36543556e-04
2.82500000e-01	1.72697251e-02	2.38677232e-04
2.83000000e-01	1.70376508e-02	2.33896793e-04
2.83500000e-01	1.70611357e-02	2.34772128e-04
2.84000000e-01	1.72146505e-02	2.37197848e-04
2.84500000e-01	1.71926104e-02	2.36323280e-04
2.85000000e-01	1.70442982e-02	2.34177653e-04
2.85500000e-01	1.70371895e-02	2.33344694e-04
2.86000000e-01	1.73592859e-02	2.37081472e-04
2.86500000e-01	1.69889730e-02	2.32333754e-04
2.87000000e-01	1.71934787e-02	2.35112031e-04
2.87500000e-01	1.73062453e-02	2.35563383e-04
2.88000000e-01	1.69792603e-02	2.31333115e-04
2.88500000e-01	1.70949631e-02	2.32963737e-04
2.89000000e-01	1.71215280e-02	2.33237225e-04
2.89500000e-01	1.71898034e-02	2.33650590e-04
2.90000000e-01	1.68301587e-02	2.28384265e-04
2.90500000e-01	1.71618361e-02	2.32143328e-04
2.91000000e-01	1.69561973e-02	2.30137397e-04
2.91500000e-01	1.72953363e-02	2.33029341e-04
2.92000000e-01	1.72105170e-02	2.32456357e-04
2.92500000e-01	1.71130823e-02	2.31165364e-04
2.93000000e-01	1.71272317e-02	2.30933139e-04
2.93500000e-01	1.70108284e-02	2.29004708e-04
2.94000000e-01	1.72056136e-02	2.30869852e-04
2.94500000e-01	1.70805779e-02	2.29946354e-04
2.95000000e-01	1.69477593e-02	2.27383538e-04
2.95500000e-01	1.69895916e-02	2.28486776e-04
2.96000000e-01	1.70063949e-02	2.28003569e-04
2.96500000e-01	1.72434065e-02	2.30126675e-04
2.97000000e-01	1.70264494e-02	2.28682672e-04
2.97500000e-01	1.70678674e-02	2.28295123e-04
2.98000000e-01	1.71354785e-02	2.29068680e-04
2.98500000e-01	1.70553150e-02	2.28530269e-04
2.99000000e-01	1.71038511e-02	2.28503707e-04
2.99500000e-01	1.67617911e-02	2.24296199e-04
3.00000000e-01	1.70343588e-02	2.27259949e-04
3.00500000e-01	1.69727781e-02	2.26147501e-04
3.01000000e-01	1.69108656e-02	2.25365191e-04
3.01500000e-01	1.67767652e-02	2.24158911e-04
3.02000000e-01	1.67638007e-02	2.22811854e-04
3.02500000e-01	1.69956396e-02	2.25829419e-04
3.03000000e-01	1.68520595e-02	2.23464513e-04
3.03500000e-01	1.70043415e-02	2.25119986e-04
3.04000000e-01	1.69297855e-02	2.25449312e-04
3.04500000e-01	1.67950980e-02	2.21715847e-04
3.05000000e-01	1.68918751e-02	2.23848155e-04
3.05500000e-01	1.68548605e-02	2.22671548e-04
3.06000000e-01	1.67537451e-02	2.20614313e-04
3.06500000e-01	1.69016174e-02	2.24135240e-04
3.07000000e-01	1.68603328e-02	2.22687492e-04
3.07500000e-01	1.69943444e-02	2.23898125e-04
3.08000000e-01	1.68150979e-02	2.21508147e-04
3.08500000e-01	1.68420271e-02	2.21156280e-04
3.09000000e-01	1.70074065e-02	2.23484817e-04
3.09500000e-01	1.68769583e-02	2.21236437e-04
3.10000000e-01	1.66838009e-02	2.20075783e-04
3.10500000e-01	1.68442126e-02	2.21025340e-04
3.11000000e-01	1.66927219e-02	2.19057518e-04
3.11500000e-01	1.66874053e-02	2.18975729e-04
3.12000000e-01	1.69333245e-02	2.22137821e-04
3.12500000e-01	1.68449464e-02	2.20318835e-04
3.13000000e-01	1.66195334e-02	2.17122512e-04
3.13500000e-01	1.67645433e-02	2.18311153e-04
3.14000000e-01	1.66244330e-02	2.17592527e-04
3.14500000e-01	1.66555540e-02	2.16966638e-04
3.15000000e-01	1.66606511e-02	2.17397635e-04
3.15500000e-01	1.68754881e-02	2.18950657e-04
3.16000000e-01	1.66278074e-02	2.17040196e-04
3.16500000e-01	1.65918603e-02	2.15652683e-04
3.17000000e-01	1.67250313e-02	2.16964850e-04
3.17500000e-01	1.66614826e-02	2.16944810e-04
3.18000000e-01	1.65995078e-02	2.15223748e-04
3.18500000e-01	1.68564948e-02	2.17838211e-04
3.19000000e-01	1.66666289e-02	2.15923622e-04
3.19500000e-01	1.64873180e-02	2.13994884e-04
3.20000000e-01	1.66451434e-02	2.15996219e-04
3.20500000e-01	1.66109183e-02	2.14826282e-04
3.21000000e-01	1.64216539e-02	2.12114171e-04
3.21500000e-01	1.65753455e-02	2.13742088e-04
3.22000000e-01	1.65436039e-02	2.13640952e-04
3.22500000e-01	1.64395823e-02	2.11389238e-04
3.23000000e-01	1.64991297e-02	2.12071051e-04
3.23500000e-01	1.66130874e-02	2.13377926e-04
3.24000000e-01	1.64215761e-02	2.10732218e-04
3.24500000e-01	1.64590412e-02	2.12031437e-04
3.25000000e-01	1.66402338e-02	2.14121671e-04
3.25500000e-01	1.63019621e-02	2.09051772e-04
3.26000000e-01	1.65672466e-02	2.12586147e-04
3.26500000e-01	1.65361003e-02	2.11549294e-04
3.27000000e-01	1.62731217e-02	2.09183950e-04
3.27500000e-01	1.64689186e-02	2.11089984e-04
3.28000000e-01	1.65144893e-02	2.10672061e-04
3.28500000e-01	1.64763144e-02	2.10776807e-04
3.29000000e-01	1.65004066e-02	2.09930082e-04
3.29500000e-01	1.64211420e-02	2.10190938e-04
3.30000000e-01	1.64881313e-02	2.10004940e-04
3.30500000e-01	1.62341954e-02	2.07008515e-04
3.31000000e-01	1.64823504e-02	2.09352466e-04
3.31500000e-01	1.64486168e-02	2.09277059e-04
3.32000000e-01	1.63035189e-02	2.07742393e-04
3.32500000e-01	1.64488288e-02	2.08489254e-04
3.33000000e-01	1.64127330e-02	2.08470898e-04
3.33500000e-01	1.64190091e-02	2.08301382e-04
3.34000000e-01	1.62957661e-02	2.06748324e-04
3.34500000e-01	1.61220198e-02	2.05642744e-04
3.35000000e-01	1.62251415e-02	2.04547545e-04
3.35500000e-01	1.63386462e-02	2.07014825e-04
3.36000000e-01	1.64257821e-02	2.07807504e-04
3.36500000e-01	1.64663955e-02	2.07844950e-04
3.37000000e-01	1.63581881e-02	2.06651292e-04
3.37500000e-01	1.63347397e-02	2.06413679e-04
3.38000000e-01	1.61388867e-02	2.03173321e-04
3.38500000e-01	1.62048072e-02	2.04003085e-04
3.39000000e-01	1.61223519e-02	2.03081805e-04
3.39500000e-01	1.63037291e-02	2.04142451e-04
3.40000000e-01	1.61880129e-02	2.03222913e-04
3.40500000e-01	1.61408211e-02	2.03440003e-04
3.41000000e-01	1.61862928e-02	2.02848246e-04
3.41500000e-01	1.62370178e-02	2.04047115e-04
3.42000000e-01	1.60297626e-02	2.00746935e-04
3.42500000e-01	1.60475683e-02	2.01104755e-04
3.43000000e-01	1.60576491e-02	2.01014081e-04
3.43500000e-01	1.61618220e-02	2.01142927e-04
3.44000000e-01	1.62752246e-02	2.03677407e-04
3.44500000e-01	1.61374368e-02	2.02020124e-04
3.45000000e-01	1.61448925e-02	2.01999419e-04
3.45500000e-01	1.62147027e-02	2.00745867e-04
3.46000000e-01	1.62078140e-02	2.02644699e-04
3.46500000e-01	1.60877096e-02	2.00255397e-04
3.47000000e-01	1.60539206e-02	1.99997915e-04
3.47500000e-01	1.62399061e-02	2.01436103e-04
3.48000000e-01	1.61481364e-02	2.00962816e-04
3.48500000e-01	1.61489922e-02	1.99946122e-04
3.49000000e-01	1.62437782e-02	2.01634537e-04
3.49500000e-01	1.61043409e-02	1.99600818e-04
3.50000000e-01	1.58506022e-02	1.60159657e-04
3.51000000e-01	1.60923852e-02	1.41066191e-04
3.52000000e-01	1.59446168e-02	1.39951182e-04
3.53000000e-01	1.59275818e-02	1.39193818e-04
3.54000000e-01	1.60347193e-02	1.39493905e-04
3.55000000e-01	1.59202314e-02	1.38977624e-04
3.56000000e-01	1.57861311e-02	1.38252310e-04
3.57000000e-01	1.60516966e-02	1.42678309e-04
3.58000000e-01	1.57408952e-02	1.41365427e-04
3.59000000e-01	1.57602874e-02	1.42633209e-04
3.60000000e-01	1.58996183e-02	1.44536506e-04
3.61000000e-01	1.58494785e-02	1.44919687e-04
3.62000000e-01	1.57365739e-02	1.44403416e-04
3.63000000e-01	1.57822342e-02	1.45599003e-04
3.64000000e-01	1.57231890e-02	1.45294615e-04
3.65000000e-01	1.58264838e-02	1.46760608e-04
3.66000000e-01	1.57484435e-02	1.44120113e-04
3.67000000e-01	1.57866945e-02	1.42432586e-04
3.68000000e-01	1.56366400e-02	1.40461316e-04
3.69000000e-01	1.57711831e-02	1.40978671e-04
3.70000000e-01	1.57792203e-02	1.40443479e-04
3.71000000e-01	1.57961817e-02	1.41507150e-04
3.72000000e-01	1.57021259e-02	1.42747878e-04
3.73000000e-01	1.56836194e-02	1.42515463e-04
3.74000000e-01	1.57127397e-02	1.42902282e-04
3.75000000e-01	1.56993535e-02	1.42794628e-04
3.76000000e-01	1.56478138e-02	1.42499220e-04
3.77000000e-01	1.57104030e-02	1.42853650e-04
3.78000000e-01	1.56454891e-02	1.42610811e-04
3.79000000e-01	1.55602667e-02	1.41796397e-04
3.80000000e-01	1.57239380e-02	1.42412129e-04
3.81000000e-01	1.54867731e-02	1.40721540e-04
3.82000000e-01	1.55015058e-02	1.40729415e-04
3.83000000e-01	1.55285171e-02	1.40970658e-04
3.84000000e-01	1.55558755e-02	1.41077948e-04
3.85000000e-01	1.54721218e-02	1.40587271e-04
3.86000000e-01	1.55705278e-02	1.41145167e-04
3.87000000e-01	1.55989335e-02	1.41252087e-04
3.88000000e-01	1.54766721e-02	1.40358008e-04
3.89000000e-01	1.54202619e-02	1.39888536e-04
3.90000000e-01	1.55654806e-02	1.40709901e-04
3.91000000e-01	1.53767434e-02	1.39846698e-04
3.92000000e-01	1.54897064e-02	1.40321806e-04
3.93000000e-01	1.54524679e-02	1.40086018e-04
3.94000000e-01	1.53088931e-02	1.38508337e-04
3.95000000e-01	1.52856701e-02	1.38747321e-04
3.96000000e-01	1.54253599e-02	1.39403116e-04
3.97000000e-01	1.53940684e-02	1.39216741e-04
3.98000000e-01	1.53170736e-02	1.38904958e-04
3.99000000e-01	1.53744892e-02	1.39268973e-04
4.00000000e-01	1.53274151e-02	1.39225486e-04
4.01000000e-01	1.52162058e-02	1.37895907e-04
4.02000000e-01	1.52910617e-02	1.38618261e-04
4.03000000e-01	1.53169544e-02	1.38262963e-04
4.04000000e-01	1.52921545e-02	1.38327229e-04
4.05000000e-01	1.50410212e-02	1.36397517e-04
4.06000000e-01	1.51681065e-02	1.37443052e-04
4.07000000e-01	1.52107596e-02	1.37484804e-04
4.08000000e-01	1.51047413e-02	1.36778127e-04
4.09000000e-01	1.51454640e-02	1.36831203e-04
4.10000000e-01	1.50925600e-02	1.36448112e-04
4.11000000e-01	1.52301406e-02	1.37428770e-04
4.12000000e-01	1.52326958e-02	1.37511402e-04
4.13000000e-01	1.52352468e-02	1.37695194e-04
4.14000000e-01	1.52468931e-02	1.37605654e-04
4.15000000e-01	1.51248924e-02	1.36584858e-04
4.16000000e-01	1.51256388e-02	1.36214860e-04
4.17000000e-01	1.51116466e-02	1.35964251e-04
4.18000000e-01	1.52608007e-02	1.38826873e-04
4.19000000e-01	1.51795005e-02	1.40261797e-04
4.20000000e-01	1.51847109e-02	1.40549341e-04
4.21000000e-01	1.52348486e-02	1.41442086e-04
4.22000000e-01	1.52116037e-02	1.41983433e-04
4.23000000e-01	1.50806333e-02	1.41624450e-04
4.24000000e-01	1.52181225e-02	1.42817358e-04
4.25000000e-01	1.51992916e-02	1.42629156e-04
4.26000000e-01	1.53095853e-02	1.43979580e-04
4.27000000e-01	1.50672656e-02	1.41734747e-04
4.28000000e-01	1.52615953e-02	1.43487615e-04
4.29000000e-01	1.52463386e-02	1.44152542e-04
4.30000000e-01	1.50326550e-02	1.41876521e-04
4.31000000e-01	1.50290332e-02	1.41804326e-04
4.32000000e-01	1.50580531e-02	1.42376398e-04
4.33000000e-01	1.50179273e-02	1.42075074e-04
4.34000000e-01	1.51745049e-02	1.43327952e-04
4.35000000e-01	1.49857180e-02	1.41813253e-04
4.36000000e-01	1.49454976e-02	1.41719116e-04
4.37000000e-01	1.49628389e-02	1.42015025e-04
4.38000000e-01	1.49450888e-02	1.41949817e-04
4.39000000e-01	1.50359414e-02	1.43007616e-04
4.40000000e-01	1.51059531e-02	1.43952750e-04
4.41000000e-01	1.49260338e-02	1.42147560e-04
4.42000000e-01	1.49602985e-02	1.42789508e-04
4.43000000e-01	1.49936758e-02	1.43651931e-04
4.44000000e-01	1.49430509e-02	1.43210299e-04
4.45000000e-01	1.49631880e-02	1.43590945e-04
4.46000000e-01	1.51136304e-02	1.44436529e-04
4.47000000e-01	1.49111036e-02	1.43268384e-04
4.48000000e-01	1.50396142e-02	1.44254582e-04
4.49000000e-01	1.48078466e-02	1.43225053e-04
4.50000000e-01	1.47600344e-02	1.42595085e-04
4.51000000e-01	1.48575059e-02	1.42975633e-04
4.52000000e-01	1.47731726e-02	1.42677453e-04
4.53000000e-01	1.48443305e-02	1.43745089e-04
4.54000000e-01	1.48467491e-02	1.43783299e-04
4.55000000e-01	1.48398966e-02	1.43539963e-04
4.56000000e-01	1.48736918e-02	1.44319363e-04
4.57000000e-01	1.48110196e-02	1.43743246e-04
4.58000000e-01	1.47058329e-02	1.42789991e-04
4.59000000e-01	1.46424569e-02	1.42217871e-04
4.60000000e-01	1.48757519e-02	1.44735800e-04
4.61000000e-01	1.47620865e-02	1.43770256e-04
4.62000000e-01	1.46799934e-02	1.42703501e-04
4.63000000e-01	1.46754229e-02	1.43465181e-04
4.64000000e-01	1.47999827e-02	1.44627224e-04
4.65000000e-01	1.48461528e-02	1.44931393e-04
4.66000000e-01	1.48180596e-02	1.44524180e-04
4.67000000e-01	1.47311011e-02	1.44519031e-04
4.68000000e-01	1.47443510e-02	1.44555032e-04
4.69000000e-01	1.47945162e-02	1.45124785e-04
4.70000000e-01	1.46169220e-02	1.42965754e-04
4.71000000e-01	1.47581820e-02	1.44474617e-04
4.72000000e-01	1.47172307e-02	1.43992893e-04
4.73000000e-01	1.45432402e-02	1.42466056e-04
4.74000000e-01	1.46527508e-02	1.43507928e-04
4.75000000e-01	1.46791473e-02	1.43560494e-04
4.76000000e-01	1.46730939e-02	1.43600566e-04
4.77000000e-01	1.45721027e-02	1.42960227e-04
4.78000000e-01	1.46364201e-02	1.43439605e-04
4.79000000e-01	1.45795598e-02	1.42514551e-04
4.80000000e-01	1.47047576e-02	1.44150860e-04
4.81000000e-01	1.45514282e-02	1.43074322e-04
4.82000000e-01	1.45310619e-02	1.42538686e-04
4.83000000e-01	1.45894294e-02	1.43518942e-04
4.84000000e-01	1.45332036e-02	1.43006313e-04
4.85000000e-01	1.44358305e-02	1.42767324e-04
4.86000000e-01	1.45687925e-02	1.43716769e-04
4.87000000e-01	1.44936081e-02	1.42385236e-04
4.88000000e-01	1.43686311e-02	1.41851734e-04
4.89000000e-01	1.46537867e-02	1.44252938e-04
4.90000000e-01	1.43769973e-02	1.41866590e-04
4.91000000e-01	1.44095976e-02	1.42441063e-04
4.92000000e-01	1.44528632e-02	1.42915541e-04
4.93000000e-01	1.44407919e-02	1.42846761e-04
4.94000000e-01	1.44656631e-02	1.43060762e-04
4.95000000e-01	1.44183812e-02	1.43779194e-04
4.96000000e-01	1.45072237e-02	1.48858672e-04
4.97000000e-01	1.43585224e-02	1.50205522e-04
4.98000000e-01	1.44450142e-02	1.52846214e-04
4.99000000e-01	1.44109254e-02	1.54261782e-04
5.00000000e-01	1.44969461e-02	1.56986305e-04
5.01000000e-01	1.45046734e-02	1.58572441e-04
5.02000000e-01	1.44577287e-02	1.59542977e-04
5.03000000e-01	1.44246840e-02	1.60429450e-04
5.04000000e-01	1.43557922e-02	1.61541627e-04
5.05000000e-01	1.43940453e-02	1.58888534e-04
5.06000000e-01	1.44640821e-02	1.56716297e-04
5.07000000e-01	1.43214419e-02	1.53422396e-04
5.08000000e-01	1.44379651e-02	1.53549419e-04
5.09000000e-01	1.44975519e-02	1.53791129e-04
5.10000000e-01	1.43391436e-02	1.51671821e-04
5.11000000e-01	1.42516599e-02	1.50458217e-04
5.12000000e-01	1.43077018e-02	1.50681424e-04
5.13000000e-01	1.42313664e-02	1.49617621e-04
5.14000000e-01	1.44369691e-02	1.50814502e-04
5.15000000e-01	1.43777277e-02	1.49934193e-04
5.16000000e-01	1.44270117e-02	1.49982299e-04
5.17000000e-01	1.44004432e-02	1.49758003e-04
5.18000000e-01	1.43505885e-02	1.49313499e-04
5.19000000e-01	1.43374653e-02	1.48497269e-04
5.20000000e-01	1.42602096e-02	1.47852209e-04
5.21000000e-01	1.43016931e-02	1.48124648e-04
5.22000000e-01	1.42675742e-02	1.47134141e-04
5.23000000e-01	1.42297712e-02	1.46788263e-04
5.24000000e-01	1.42333298e-02	1.47219752e-04
5.25000000e-01	1.42579884e-02	1.47078202e-04
5.26000000e-01	1.41054878e-02	1.45204166e-04
5.27000000e-01	1.41852611e-02	1.46360232e-04
5.28000000e-01	1.42543227e-02	1.47228187e-04
5.29000000e-01	1.42008945e-02	1.46724610e-04
5.30000000e-01	1.41070961e-02	1.45845753e-04
5.31000000e-01	1.41948935e-02	1.46813352e-04
5.32000000e-01	1.41671685e-02	1.46389668e-04
5.33000000e-01	1.41274896e-02	1.45710680e-04
5.34000000e-01	1.42466104e-02	1.47175198e-04
5.35000000e-01	1.41905968e-02	1.46284738e-04
5.36000000e-01	1.41102211e-02	1.45206190e-04
5.37000000e-01	1.42273702e-02	1.46789172e-04
5.38000000e-01	1.41550793e-02	1.45441816e-04
5.39000000e-01	1.41009883e-02	1.45812420e-04
5.40000000e-01	1.41257779e-02	1.45376863e-04
5.41000000e-01	1.40217364e-02	1.44363422e-04
5.42000000e-01	1.39986419e-02	1.44502834e-04
5.43000000e-01	1.40060711e-02	1.44682677e-04
5.44000000e-01	1.40473918e-02	1.44459421e-04
5.45000000e-01	1.39802183e-02	1.44610401e-04
5.46000000e-01	1.41048439e-02	1.45563895e-04
5.47000000e-01	1.39698470e-02	1.44566082e-04
5.48000000e-01	1.39930572e-02	1.44437369e-04
5.49000000e-01	1.39489995e-02	1.43867026e-04
5.50000000e-01	1.39620450e-02	1.44217183e-04
5.51000000e-01	1.39329339e-02	1.43733259e-04
5.52000000e-01	1.39187172e-02	1.43173856e-04
5.53000000e-01	1.38743665e-02	1.42599808e-04
5.54000000e-01	1.38508934e-02	1.42113224e-04
5.55000000e-01	1.38548386e-02	1.42270871e-04
5.56000000e-01	1.38539094e-02	1.42076094e-04
5.57000000e-01	1.39196774e-02	1.42634906e-04
5.58000000e-01	1.39568467e-02	1.42940166e-04
5.59000000e-01	1.38515305e-02	1.42165171e-04
5.60000000e-01	1.38623095e-02	1.42581862e-04
5.61000000e-01	1.37959912e-02	1.41078530e-04
5.62000000e-01	1.38437939e-02	1.42104930e-04
5.63000000e-01	1.38306100e-02	1.42016961e-04
5.64000000e-01	1.38796674e-02	1.42994537e-04
5.65000000e-01	1.38709975e-02	1.42802514e-04
5.66000000e-01	1.38730723e-02	1.42235526e-04
5.67000000e-01	1.37227668e-02	1.41139606e-04
5.68000000e-01	1.38098688e-02	1.42055709e-04
5.69000000e-01	1.37874814e-02	1.41199117e-04
5.70000000e-01	1.38385220e-02	1.41975740e-04
5.71000000e-01	1.37278379e-02	1.41119089e-04
5.72000000e-01	1.37277984e-02	1.40956413e-04
5.73000000e-01	1.36885886e-02	1.40776015e-04
5.74000000e-01	1.36163505e-02	1.39851407e-04
5.75000000e-01	1.37153957e-02	1.41114519e-04
5.76000000e-01	1.37612272e-02	1.41580667e-04
5.77000000e-01	1.37926443e-02	1.41481193e-04
5.78000000e-01	1.35862816e-02	1.40094527e-04
5.79000000e-01	1.36058515e-02	1.39893985e-04
5.80000000e-01	1.36531118e-02	1.40708292e-04
5.81000000e-01	1.36238075e-02	1.40118540e-04
5.82000000e-01	1.35320804e-02	1.39559579e-04
5.83000000e-01	1.35840394e-02	1.40105750e-04
5.84000000e-01	1.35803287e-02	1.39474110e-04
5.85000000e-01	1.34622850e-02	1.38835160e-04
5.86000000e-01	1.35754456e-02	1.40087947e-04
5.87000000e-01	1.35537832e-02	1.39848187e-04
5.88000000e-01	1.35595493e-02	1.39793065e-04
5.89000000e-01	1.36289676e-02	1.40478711e-04
5.90000000e-01	1.37110044e-02	1.40959024e-04
5.91000000e-01	1.36049079e-02	1.40217794e-04
5.92000000e-01	1.34411949e-02	1.39163867e-04
5.93000000e-01	1.34753700e-02	1.39195039e-04
5.94000000e-01	1.36359811e-02	1.40971301e-04
5.95000000e-01	1.34730238e-02	1.39125175e-04
5.96000000e-01	1.35061025e-02	1.39267872e-04
5.97000000e-01	1.33378487e-02	1.38078147e-04
5.98000000e-01	1.33524449e-02	1.38009689e-04
5.99000000e-01	1.34516531e-02	1.39419245e-04
6.00000000e-01	1.35445593e-02	1.39722426e-04
6.01000000e-01	1.34513611e-02	1.38837285e-04
6.02000000e-01	1.34614167e-02	1.39084442e-04
6.03000000e-01	1.33980513e-02	1.38640110e-04
6.04000000e-01	1.33143570e-02	1.38090830e-04
6.05000000e-01	1.31914540e-02	1.37005475e-04
6.06000000e-01	1.34322299e-02	1.38997869e-04
6.07000000e-01	1.34549709e-02	1.39389106e-04
6.08000000e-01	1.33315664e-02	1.38593403e-04
6.09000000e-01	1.33688617e-02	1.38276364e-04
6.10000000e-01	1.34159786e-02	1.39165013e-04
6.11000000e-01	1.33401358e-02	1.37715017e-04
6.12000000e-01	1.33167816e-02	1.37855167e-04
6.13000000e-01	1.33676606e-02	1.38705918e-04
6.14000000e-01	1.32391028e-02	1.36779979e-04
6.15000000e-01	1.32625473e-02	1.37967017e-04
6.16000000e-01	1.33419471e-02	1.37937293e-04
6.17000000e-01	1.32280143e-02	1.37130813e-04
6.18000000e-01	1.32142142e-02	1.37256184e-04
6.19000000e-01	1.33773619e-02	1.38211752e-04
6.20000000e-01	1.32989410e-02	1.37428852e-04
6.21000000e-01	1.33013742e-02	1.37825923e-04
6.22000000e-01	1.33115545e-02	1.37601496e-04
6.23000000e-01	1.32124452e-02	1.36123285e-04
6.24000000e-01	1.31731768e-02	1.35119487e-04
6.25000000e-01	1.32445409e-02	1.36540692e-04
6.26000000e-01	1.33220686e-02	1.36594791e-04
6.27000000e-01	1.31825296e-02	1.36233227e-04
6.28000000e-01	1.30852013e-02	1.34855037e-04
6.29000000e-01	1.33287590e-02	1.37335325e-04
6.30000000e-01	1.32700722e-02	1.36832319e-04
6.31000000e-01	1.32350436e-02	1.36266849e-04
6.32000000e-01	1.31948554e-02	1.36045489e-04
6.33000000e-01	1.32627332e-02	1.36652330e-04
6.34000000e-01	1.32398455e-02	1.39663631e-04
6.35000000e-01	1.32082333e-02	1.43122504e-04
6.36000000e-01	1.31397917e-02	1.45779575e-04
6.37000000e-01	1.31837669e-02	1.48447149e-04
6.38000000e-01	1.31982929e-02	1.50408903e-04
6.39000000e-01	1.34001921e-02	1.53347715e-04
6.40000000e-01	1.33521162e-02	1.55359803e-04
6.41000000e-01	1.33304108e-02	1.56743366e-04
6.42000000e-01	1.31869724e-02	1.57325732e-04
6.43000000e-01	1.31624436e-02	1.57099540e-04
6.44000000e-01	1.34029156e-02	1.53379433e-04
6.45000000e-01	1.31996819e-02	1.49708838e-04
6.46000000e-01	1.32054175e-02	1.48511777e-04
6.47000000e-01	1.31683036e-02	1.46613850e-04
6.48000000e-01	1.31372880e-02	1.45436115e-04
6.49000000e-01	1.32265778e-02	1.45764522e-04
6.50000000e-01	1.32468435e-02	1.44928307e-04
6.51000000e-01	1.32552300e-02	1.44828055e-04
6.52000000e-01	1.31481926e-02	1.42756832e-04
6.53000000e-01	1.33383283e-02	1.44224938e-04
6.54000000e-01	1.32891310e-02	1.43523720e-04
6.55000000e-01	1.30886209e-02	1.41229595e-04
6.56000000e-01	1.30654939e-02	1.40907033e-04
6.57000000e-01	1.32195571e-02	1.42144548e-04
6.58000000e-01	1.30989145e-02	1.40511383e-04
6.59000000e-01	1.32053461e-02	1.41931292e-04
6.60000000e-01	1.31541521e-02	1.40794295e-04
6.61000000e-01	1.32099356e-02	1.41456606e-04
6.62000000e-01	1.29796893e-02	1.40001326e-04
6.63000000e-01	1.32057579e-02	1.41763899e-04
6.64000000e-01	1.32237123e-02	1.41453998e-04
6.65000000e-01	1.29484856e-02	1.39889483e-04
6.66000000e-01	1.30264740e-02	1.39310736e-04
6.67000000e-01	1.30484909e-02	1.39419454e-04
6.68000000e-01	1.30191092e-02	1.39589168e-04
6.69000000e-01	1.30505959e-02	1.39197416e-04
6.70000000e-01	1.31380350e-02	1.40019321e-04
6.71000000e-01	1.28766341e-02	1.37410100e-04
6.72000000e-01	1.31164545e-02	1.39730643e-04
6.73000000e-01	1.30971175e-02	1.39724461e-04
6.74000000e-01	1.30000560e-02	1.38801668e-04
6.75000000e-01	1.30426551e-02	1.38696929e-04
6.76000000e-01	1.30680869e-02	1.39502689e-04
6.77000000e-01	1.29734656e-02	1.38441202e-04
6.78000000e-01	1.30610314e-02	1.39272894e-04
6.79000000e-01	1.28138033e-02	1.36438734e-04
6.80000000e-01	1.30380913e-02	1.38684519e-04
6.81000000e-01	1.28781688e-02	1.37332770e-04
6.82000000e-01	1.29868953e-02	1.38206934e-04
6.83000000e-01	1.29088619e-02	1.37256681e-04
6.84000000e-01	1.29270587e-02	1.37819766e-04
6.85000000e-01	1.29341888e-02	1.37655459e-04
6.86000000e-01	1.28336860e-02	1.36901054e-04
6.87000000e-01	1.29086212e-02	1.37698394e-04
6.88000000e-01	1.29413767e-02	1.37337824e-04
6.89000000e-01	1.29391049e-02	1.37918129e-04
6.90000000e-01	1.29068738e-02	1.36857844e-04
6.91000000e-01	1.29484793e-02	1.37804019e-04
6.92000000e-01	1.28549058e-02	1.36399878e-04
6.93000000e-01	1.30002302e-02	1.38364189e-04
6.94000000e-01	1.29428993e-02	1.37808931e-04
6.95000000e-01	1.27894256e-02	1.36470341e-04
6.96000000e-01	1.28119929e-02	1.36443535e-04
6.97000000e-01	1.29574183e-02	1.37158906e-04
6.98000000e-01	1.27928510e-02	1.36102746e-04
6.99000000e-01	1.29272880e-02	1.37235253e-04
7.00000000e-01	1.27937341e-02	1.36470026e-04
7.01000000e-01	1.27168978e-02	1.35562185e-04
7.02000000e-01	1.27924130e-02	1.35920393e-04
7.03000000e-01	1.27512075e-02	1.35757694e-04
7.04000000e-01	1.28399585e-02	1.36765203e-04
7.05000000e-01	1.28180690e-02	1.36205756e-04
7.06000000e-01	1.27389790e-02	1.35215244e-04
7.07000000e-01	1.28960496e-02	1.36834009e-04
7.08000000e-01	1.26986209e-02	1.34612898e-04
7.09000000e-01	1.27885706e-02	1.35197799e-04
7.10000000e-01	1.26503073e-02	1.34584466e-04
7.11000000e-01	1.25836597e-02	1.33973560e-04
7.12000000e-01	1.26192943e-02	1.34230475e-04
7.13000000e-01	1.27077893e-02	1.34970589e-04
7.14000000e-01	1.26438489e-02	1.34800031e-04
7.15000000e-01	1.25679319e-02	1.34142048e-04
7.16000000e-01	1.26999491e-02	1.34989030e-04
7.17000000e-01	1.25845417e-02	1.33944171e-04
7.18000000e-01	1.26099730e-02	1.34184633e-04
7.19000000e-01	1.24036074e-02	1.31964112e-04
7.20000000e-01	1.26071204e-02	1.33904096e-04
7.21000000e-01	1.25586353e-02	1.33612764e-04
7.22000000e-01	1.25618544e-02	1.33666576e-04
7.23000000e-01	1.24676163e-02	1.32830701e-04
7.24000000e-01	1.25770505e-02	1.34037915e-04
7.25000000e-01	1.24150706e-02	1.32920576e-04
7.26000000e-01	1.24904133e-02	1.32502480e-04
7.27000000e-01	1.25120213e-02	1.32692420e-04
7.28000000e-01	1.24359447e-02	1.32366702e-04
7.29000000e-01	1.24475958e-02	1.32206960e-04
7.30000000e-01	1.23778253e-02	1.31485496e-04
7.31000000e-01	1.24976929e-02	1.33131859e-04
7.32000000e-01	1.25633990e-02	1.34005584e-04
7.33000000e-01	1.23599546e-02	1.31710226e-04
7.34000000e-01	1.24577119e-02	1.32326913e-04
7.35000000e-01	1.23334657e-02	1.30882020e-04
7.36000000e-01	1.23854061e-02	1.31513393e-04
7.37000000e-01	1.23891178e-02	1.31210351e-04
7.38000000e-01	1.23817864e-02	1.31062537e-04
7.39000000e-01	1.23603834e-02	1.30506900e-04
7.40000000e-01	1.22323749e-02	1.29419447e-04
7.41000000e-01	1.23374788e-02	1.30017374e-04
7.42000000e-01	1.23189091e-02	1.29741712e-04
7.43000000e-01	1.22498856e-02	1.29156891e-04
7.44000000e-01	1.21736411e-02	1.28993857e-04
7.45000000e-01	1.22461800e-02	1.29032670e-04
7.46000000e-01	1.23391695e-02	1.29665302e-04
7.47000000e-01	1.23336409e-02	1.29833520e-04
7.48000000e-01	1.23220212e-02	1.29565395e-04
7.49000000e-01	1.22813102e-02	1.29499056e-04
7.50000000e-01	1.22765374e-02	1.29688815e-04
7.51000000e-01	1.22284753e-02	1.29320052e-04
7.52000000e-01	1.23412795e-02	1.30075481e-04
7.53000000e-01	1.21816044e-02	1.28702042e-04
7.54000000e-01	1.23205877e-02	1.29887833e-04
7.55000000e-01	1.21788410e-02	1.28941570e-04
7.56000000e-01	1.22888724e-02	1.29750944e-04
7.57000000e-01	1.20840556e-02	1.27663490e-04
7.58000000e-01	1.23149033e-02	1.29713786e-04
7.59000000e-01	1.22524120e-02	1.29176237e-04
7.60000000e-01	1.21465021e-02	1.28223470e-04
7.61000000e-01	1.21748482e-02	1.28365601e-04
7.62000000e-01	1.21281305e-02	1.27474705e-04
7.63000000e-01	1.22294604e-02	1.27687154e-04
7.64000000e-01	1.22364026e-02	1.27870843e-04
7.65000000e-01	1.20998488e-02	1.26929725e-04
7.66000000e-01	1.20461456e-02	1.26345199e-04
7.67000000e-01	1.20087609e-02	1.25677693e-04
7.68000000e-01	1.19442351e-02	1.25013000e-04
7.69000000e-01	1.20140669e-02	1.26072637e-04
7.70000000e-01	1.21291911e-02	1.26736757e-04
7.71000000e-01	1.21599365e-02	1.27222172e-04
7.72000000e-01	1.20877129e-02	1.30220378e-04
7.73000000e-01	1.22034587e-02	1.35982685e-04
7.74000000e-01	1.19703375e-02	1.35993703e-04
7.75000000e-01	1.18867395e-02	1.37966058e-04
7.76000000e-01	1.18718046e-02	1.39120167e-04
7.77000000e-01	1.19609633e-02	1.43397742e-04
7.78000000e-01	1.19218546e-02	1.44263858e-04
7.79000000e-01	1.19468291e-02	1.45612609e-04
7.80000000e-01	1.18950662e-02	1.46663931e-04
7.81000000e-01	1.18484526e-02	1.48511662e-04
7.82000000e-01	1.19236438e-02	1.50926935e-04
7.83000000e-01	1.19099183e-02	1.51941436e-04
7.84000000e-01	1.17823669e-02	1.52617858e-04
7.85000000e-01	1.18979955e-02	1.54295068e-04
7.86000000e-01	1.18547398e-02	1.56891376e-04
7.87000000e-01	1.18008063e-02	1.57829317e-04
7.88000000e-01	1.17996198e-02	1.58895254e-04
7.89000000e-01	1.19381939e-02	1.61905363e-04
7.90000000e-01	1.17109920e-02	1.61091363e-04
7.91000000e-01	1.17830803e-02	1.63025392e-04
7.92000000e-01	1.17006754e-02	1.64443438e-04
7.93000000e-01	1.17579229e-02	1.66380927e-04
7.94000000e-01	1.16999205e-02	1.67427236e-04
7.95000000e-01	1.17772372e-02	1.70412995e-04
7.96000000e-01	1.18715188e-02	1.73361311e-04
7.97000000e-01	1.15958878e-02	1.70697530e-04
7.98000000e-01	1.16853386e-02	1.74184095e-04
7.99000000e-01	1.18299036e-02	1.77989302e-04
8.00000000e-01	1.16509295e-02	1.77603167e-04
8.01000000e-01	1.17000876e-02	1.79621194e-04
8.02000000e-01	1.18530571e-02	1.83081653e-04
8.03000000e-01	1.15419680e-02	1.81061172e-04
8.04000000e-01	1.17222756e-02	1.86057552e-04
8.05000000e-01	1.17925938e-02	1.88596989e-04
8.06000000e-01	1.17752248e-02	1.90511301e-04
8.07000000e-01	1.17312576e-02	1.92005164e-04
8.08000000e-01	1.16562057e-02	1.93457614e-04
8.09000000e-01	1.15806872e-02	1.92785165e-04
8.10000000e-01	1.15082394e-02	1.96581454e-04
8.11000000e-01	1.15596336e-02	1.97752463e-04
8.12000000e-01	1.15156537e-02	1.98994218e-04
8.13000000e-01	1.15080125e-02	2.02363194e-04
8.14000000e-01	1.14966185e-02	2.04267730e-04
8.15000000e-01	1.15092363e-02	2.06450859e-04
8.16000000e-01	1.15685874e-02	2.10212419e-04
8.17000000e-01	1.12490622e-02	2.08137643e-04
8.18000000e-01	1.13747875e-02	2.12402605e-04
8.19000000e-01	1.13312695e-02	2.13972870e-04
8.20000000e-01	1.13013963e-02	2.16839407e-04
8.21000000e-01	1.14769655e-02	2.22448587e-04
8.22000000e-01	1.14034134e-02	2.23259383e-04
8.23000000e-01	1.14130378e-02	2.28485787e-04
8.24000000e-01	1.14572586e-02	2.33820369e-04
8.25000000e-01	1.15559502e-02	2.35748415e-04
8.26000000e-01	1.13395696e-02	2.36092983e-04
8.27000000e-01	1.16435777e-02	2.43756980e-04
8.28000000e-01	1.12989512e-02	2.39408787e-04
8.29000000e-01	1.12161907e-02	2.44733111e-04
8.30000000e-01	1.10818854e-02	2.45356839e-04
8.31000000e-01	1.14262742e-02	2.55946289e-04
8.32000000e-01	1.12929205e-02	2.54852665e-04
8.33000000e-01	1.11270595e-02	2.58707887e-04
8.34000000e-01	1.10041859e-02	2.60883062e-04
8.35000000e-01	1.12915281e-02	2.71030049e-04
8.36000000e-01	1.11504853e-02	2.74069417e-04
8.37000000e-01	1.12811643e-02	2.81243839e-04
8.38000000e-01	1.11503208e-02	2.81038414e-04
8.39000000e-01	1.08546202e-02	2.80085295e-04
8.40000000e-01	1.09063560e-02	2.90023107e-04
8.41000000e-01	1.08349373e-02	2.95572283e-04
8.42000000e-01	1.13808761e-02	3.16504948e-04
8.43000000e-01	1.10250176e-02	3.16156545e-04
8.44000000e-01	1.11147572e-02	3.23546446e-04
8.45000000e-01	1.08612336e-02	3.18970831e-04
8.46000000e-01	1.08394914e-02	3.31264401e-04
8.47000000e-01	1.09884587e-02	3.47900501e-04
8.48000000e-01	1.11222657e-02	3.61772778e-04
8.49000000e-01	1.08891587e-02	3.62306593e-04
8.50000000e-01	1.08469566e-02	3.78638229e-04
8.51000000e-01	1.11927232e-02	4.03979706e-04
8.52000000e-01	1.11483597e-02	4.19360785e-04
8.53000000e-01	1.10373779e-02	4.33166892e-04
8.54000000e-01	1.08424172e-02	4.52785627e-04
8.55000000e-01	1.07648473e-02	4.58488850e-04
8.56000000e-01	1.11228183e-02	4.86777365e-04
8.57000000e-01	1.08593681e-02	4.84042521e-04
8.58000000e-01	1.11271824e-02	5.14508936e-04
8.59000000e-01	1.03795847e-02	4.98889244e-04
8.60000000e-01	1.08013948e-02	5.29239993e-04
8.61000000e-01	1.10737001e-02	5.58004828e-04
8.62000000e-01	1.08890219e-02	5.67238474e-04
8.63000000e-01	1.06259362e-02	5.80448275e-04
8.64000000e-01	1.07529234e-02	6.13707828e-04
8.65000000e-01	1.06876393e-02	6.41209792e-04
8.66000000e-01	1.02635879e-02	6.49796884e-04
8.67000000e-01	1.02815539e-02	6.88939487e-04
8.68000000e-01	1.01267378e-02	7.40851893e-04
8.69000000e-01	1.02923194e-02	7.90385208e-04
8.70000000e-01	1.06164915e-02	8.70187468e-04
8.71000000e-01	1.05542368e-02	9.99218370e-04
8.72000000e-01	1.15638295e-02	1.16278906e-03
8.73000000e-01	1.04157508e-02	1.28052214e-03
8.74000000e-01	1.02544347e-02	1.66092143e-03
8.75000000e-01	1.49550371e-02	5.10960060e-03
