% Filename : SDL7c_00026_00052.h5
% Date & Time : 30-Oct-2025 17:04:00
% X-ray Energy (keV) : 13.30001
% Exposure Time (s) : 0.500
% Beam Center : 1461.24000, 208.98300
% Sample to Detector Distance (SDD) (mm) : 1990.750
% Detector Pixel Size (mm) : 0.075
% Photodiode Value : 140617.000
% I0 of Sample : 0
% I0 of Standard : 1
% 
% q(A^-1)   I(q)    I(q)_SE
0.00000000e+00	7.70888803e-03	4.45072054e-03
2.50000000e-04	0.00000000e+00	0.00000000e+00
5.00000000e-04	0.00000000e+00	0.00000000e+00
7.50000000e-04	0.00000000e+00	0.00000000e+00
1.00000000e-03	0.00000000e+00	0.00000000e+00
1.25000000e-03	0.00000000e+00	0.00000000e+00
1.50000000e-03	0.00000000e+00	0.00000000e+00
1.75000000e-03	0.00000000e+00	0.00000000e+00
2.00000000e-03	0.00000000e+00	0.00000000e+00
2.25000000e-03	0.00000000e+00	0.00000000e+00
2.50000000e-03	0.00000000e+00	0.00000000e+00
2.75000000e-03	0.00000000e+00	0.00000000e+00
3.00000000e-03	0.00000000e+00	0.00000000e+00
3.25000000e-03	7.66108374e+01	7.29999166e+01
3.50000000e-03	1.72267011e+01	1.51719364e+01
3.75000000e-03	7.83906552e+00	6.24855848e+00
4.00000000e-03	6.14610390e+00	4.73251707e+00
4.25000000e-03	1.10289774e+00	1.80284189e-01
4.50000000e-03	3.16482930e+00	1.93679140e+00
4.75000000e-03	3.52727973e+00	1.57413210e+00
5.00000000e-03	3.00260332e+00	1.35714854e+00
5.25000000e-03	2.37676971e+00	1.02378717e+00
5.50000000e-03	1.97426972e+00	8.39516011e-01
5.75000000e-03	1.76063504e+00	7.47682599e-01
6.00000000e-03	1.35853261e+00	5.39510699e-01
6.25000000e-03	1.25090891e+00	5.12956890e-01
6.50000000e-03	1.07380551e+00	4.23486356e-01
6.75000000e-03	8.72562159e-01	3.41794103e-01
7.00000000e-03	8.25254574e-01	3.28973635e-01
7.25000000e-03	6.65117353e-01	2.43457821e-01
7.50000000e-03	6.07095564e-01	2.35467054e-01
7.75000000e-03	5.26565453e-01	1.95479358e-01
8.00000000e-03	4.53327700e-01	1.63600768e-01
8.25000000e-03	4.07424788e-01	1.46828595e-01
8.50000000e-03	3.41824869e-01	1.13658275e-01
8.75000000e-03	3.27630124e-01	1.11336701e-01
9.00000000e-03	2.94211947e-01	1.00375268e-01
9.25000000e-03	2.51833364e-01	8.18975886e-02
9.50000000e-03	2.41580533e-01	8.30948192e-02
9.75000000e-03	2.11986476e-01	6.79204167e-02
1.00000000e-02	1.93596627e-01	6.42560072e-02
1.02500000e-02	1.84918102e-01	6.17661309e-02
1.05000000e-02	1.56292311e-01	4.77327844e-02
1.07500000e-02	1.51483285e-01	4.89253926e-02
1.10000000e-02	1.35576291e-01	4.14726541e-02
1.12500000e-02	1.21579594e-01	3.69569832e-02
1.15000000e-02	1.23202200e-01	3.76076353e-02
1.17500000e-02	8.75068975e-02	2.25752927e-02
1.20000000e-02	1.03148334e-01	3.02784654e-02
1.22500000e-02	9.66729233e-02	2.59405924e-02
1.25000000e-02	8.89085477e-02	2.44749036e-02
1.27500000e-02	8.74580034e-02	2.33743861e-02
1.30000000e-02	8.06562083e-02	2.09611172e-02
1.32500000e-02	7.54626585e-02	1.97897608e-02
1.35000000e-02	7.22634475e-02	1.85237200e-02
1.37500000e-02	7.24338737e-02	1.85507700e-02
1.40000000e-02	6.67641181e-02	1.63191677e-02
1.42500000e-02	6.34403643e-02	1.45899325e-02
1.45000000e-02	6.10553954e-02	1.36165436e-02
1.47500000e-02	5.79992343e-02	1.20285167e-02
1.50000000e-02	5.76054694e-02	1.36155497e-02
1.52500000e-02	5.17937010e-02	1.11515006e-02
1.55000000e-02	5.05776865e-02	1.06101040e-02
1.57500000e-02	4.96754189e-02	1.08948518e-02
1.60000000e-02	4.65103408e-02	8.91993015e-03
1.62500000e-02	4.67642160e-02	9.50181675e-03
1.65000000e-02	4.43614789e-02	8.19029711e-03
1.67500000e-02	4.36024282e-02	8.06978044e-03
1.70000000e-02	4.25064244e-02	7.52444289e-03
1.72500000e-02	4.03724817e-02	6.94620247e-03
1.75000000e-02	3.98337717e-02	6.72072824e-03
1.77500000e-02	3.77822261e-02	5.59458863e-03
1.80000000e-02	3.61019498e-02	5.53830863e-03
1.82500000e-02	3.51417225e-02	5.29726044e-03
1.85000000e-02	3.73255533e-02	5.17293436e-03
1.87500000e-02	3.41309283e-02	4.85513188e-03
1.90000000e-02	3.42078304e-02	4.41277126e-03
1.92500000e-02	3.23031804e-02	3.79867614e-03
1.95000000e-02	3.22726845e-02	4.00704864e-03
1.97500000e-02	3.23855715e-02	3.71891109e-03
2.00000000e-02	3.12588944e-02	3.79478803e-03
2.02500000e-02	2.88022236e-02	2.81123536e-03
2.05000000e-02	3.09338065e-02	3.32483412e-03
2.07500000e-02	3.03805129e-02	3.37336240e-03
2.10000000e-02	2.96678682e-02	2.84247104e-03
2.12500000e-02	2.91423898e-02	3.07212366e-03
2.15000000e-02	2.92192522e-02	2.73820208e-03
2.17500000e-02	2.89122839e-02	2.56748820e-03
2.20000000e-02	2.94498307e-02	2.75096967e-03
2.22500000e-02	2.96036444e-02	2.76520324e-03
2.25000000e-02	3.01161403e-02	2.84133827e-03
2.27500000e-02	2.80113399e-02	2.70292012e-03
2.30000000e-02	2.77902800e-02	2.61103996e-03
2.32500000e-02	2.76302019e-02	2.40388919e-03
2.35000000e-02	2.72923600e-02	2.32924198e-03
2.37500000e-02	2.72341624e-02	2.24598567e-03
2.40000000e-02	2.67788243e-02	2.22729449e-03
2.42500000e-02	2.73866128e-02	2.18262611e-03
2.45000000e-02	2.71506865e-02	2.17525604e-03
2.47500000e-02	2.60832218e-02	1.99871563e-03
2.50000000e-02	2.64153342e-02	2.01607749e-03
2.52500000e-02	2.64692616e-02	2.14498974e-03
2.55000000e-02	2.62379684e-02	1.91323699e-03
2.57500000e-02	2.57179693e-02	2.03609367e-03
2.60000000e-02	2.48438278e-02	1.68756912e-03
2.62500000e-02	2.60956169e-02	1.80149791e-03
2.65000000e-02	2.57087612e-02	1.84280433e-03
2.67500000e-02	2.46596498e-02	1.55922948e-03
2.70000000e-02	2.46541918e-02	1.65402412e-03
2.72500000e-02	2.48006744e-02	1.61127659e-03
2.75000000e-02	2.50023593e-02	1.62952879e-03
2.77500000e-02	2.40525702e-02	1.61773282e-03
2.80000000e-02	2.44430411e-02	1.37276413e-03
2.82500000e-02	2.38692581e-02	1.47201862e-03
2.85000000e-02	2.45631760e-02	1.50198043e-03
2.87500000e-02	2.44421543e-02	1.43971284e-03
2.90000000e-02	2.49170533e-02	1.42630958e-03
2.92500000e-02	2.55090817e-02	1.42863943e-03
2.95000000e-02	2.42033521e-02	1.34984744e-03
2.97500000e-02	2.50900948e-02	1.41225966e-03
3.00000000e-02	2.54687552e-02	1.46226812e-03
3.02500000e-02	2.47137364e-02	1.31107957e-03
3.05000000e-02	2.55025907e-02	1.36760094e-03
3.07500000e-02	2.48498161e-02	1.35513230e-03
3.10000000e-02	2.36553927e-02	1.21874635e-03
3.12500000e-02	2.49966546e-02	1.34964699e-03
3.15000000e-02	2.45143839e-02	1.28151702e-03
3.17500000e-02	2.44452649e-02	1.23295617e-03
3.20000000e-02	2.46723371e-02	1.25859222e-03
3.22500000e-02	2.38070265e-02	1.22306225e-03
3.25000000e-02	2.49894887e-02	1.30096411e-03
3.27500000e-02	2.38932336e-02	1.18058968e-03
3.30000000e-02	2.34002339e-02	1.15922945e-03
3.32500000e-02	2.38785976e-02	1.17757468e-03
3.35000000e-02	2.37311008e-02	1.18291492e-03
3.37500000e-02	2.39308176e-02	1.17776875e-03
3.40000000e-02	2.39811638e-02	1.14873995e-03
3.42500000e-02	2.33487242e-02	1.11236519e-03
3.45000000e-02	2.23916830e-02	1.10917468e-03
3.47500000e-02	2.28860583e-02	1.09110627e-03
3.50000000e-02	2.30419923e-02	1.10365076e-03
3.52500000e-02	2.28812322e-02	1.09165927e-03
3.55000000e-02	2.29529234e-02	1.07418491e-03
3.57500000e-02	2.29759373e-02	1.12156122e-03
3.60000000e-02	2.26402791e-02	1.07120251e-03
3.62500000e-02	2.17801934e-02	1.04189953e-03
3.65000000e-02	2.23980084e-02	1.03714501e-03
3.67500000e-02	2.24120855e-02	1.04778894e-03
3.70000000e-02	2.21419198e-02	1.03120475e-03
3.72500000e-02	2.24907443e-02	1.07262077e-03
3.75000000e-02	2.20961038e-02	1.02561998e-03
3.77500000e-02	2.22362493e-02	1.01164813e-03
3.80000000e-02	2.18441685e-02	9.95420956e-04
3.82500000e-02	2.29714163e-02	1.02855621e-03
3.85000000e-02	2.25560212e-02	1.05183238e-03
3.87500000e-02	2.17837502e-02	9.79046560e-04
3.90000000e-02	2.15979474e-02	9.97600068e-04
3.92500000e-02	2.23809608e-02	9.95849924e-04
3.95000000e-02	2.10243783e-02	9.49259679e-04
3.97500000e-02	2.24343116e-02	1.00886543e-03
4.00000000e-02	2.18944611e-02	9.91096402e-04
4.02500000e-02	2.24198620e-02	9.91388383e-04
4.05000000e-02	2.15016194e-02	9.39253943e-04
4.07500000e-02	2.17356315e-02	9.55908288e-04
4.10000000e-02	2.18976989e-02	9.58658893e-04
4.12500000e-02	2.16647593e-02	9.56558074e-04
4.15000000e-02	2.16306146e-02	9.43777400e-04
4.17500000e-02	2.23299502e-02	9.63016722e-04
4.20000000e-02	2.20070529e-02	9.50073604e-04
4.22500000e-02	2.12862376e-02	9.13277876e-04
4.25000000e-02	2.15742898e-02	9.29671905e-04
4.27500000e-02	2.15783820e-02	9.19207852e-04
4.30000000e-02	2.11653145e-02	9.09261188e-04
4.32500000e-02	2.24209611e-02	9.58778050e-04
4.35000000e-02	2.13362119e-02	9.12023914e-04
4.37500000e-02	2.13295328e-02	8.97575173e-04
4.40000000e-02	2.16792178e-02	9.32266458e-04
4.42500000e-02	2.14488166e-02	9.00171985e-04
4.45000000e-02	2.17037244e-02	9.09514874e-04
4.47500000e-02	2.09997463e-02	8.92130768e-04
4.50000000e-02	2.16132905e-02	9.22463649e-04
4.52500000e-02	2.11760352e-02	8.88602405e-04
4.55000000e-02	2.10577487e-02	8.83860457e-04
4.57500000e-02	2.13408164e-02	8.83085481e-04
4.60000000e-02	2.17877252e-02	9.14937982e-04
4.62500000e-02	2.16389650e-02	9.07291662e-04
4.65000000e-02	2.10053499e-02	8.81575517e-04
4.67500000e-02	2.12244794e-02	8.81558417e-04
4.70000000e-02	2.09677416e-02	8.65035405e-04
4.72500000e-02	2.13743107e-02	8.82596576e-04
4.75000000e-02	2.14885429e-02	8.89045846e-04
4.77500000e-02	2.08315045e-02	8.53606697e-04
4.80000000e-02	2.06051146e-02	8.50389949e-04
4.82500000e-02	2.07837829e-02	8.47837200e-04
4.85000000e-02	2.10712193e-02	8.73276072e-04
4.87500000e-02	2.16111652e-02	8.78930462e-04
4.90000000e-02	2.09471310e-02	8.39636484e-04
4.92500000e-02	2.09995488e-02	8.54327002e-04
4.95000000e-02	2.14533650e-02	8.67851759e-04
4.97500000e-02	2.12148879e-02	8.66168997e-04
5.00000000e-02	2.13908443e-02	8.65166926e-04
5.02500000e-02	2.10557207e-02	8.39384977e-04
5.05000000e-02	2.07242789e-02	8.30778299e-04
5.07500000e-02	2.07933456e-02	8.38684803e-04
5.10000000e-02	2.10904905e-02	8.39796625e-04
5.12500000e-02	2.16749575e-02	8.63221775e-04
5.15000000e-02	2.09538796e-02	8.28457439e-04
5.17500000e-02	2.11923896e-02	8.43265727e-04
5.20000000e-02	2.10619393e-02	8.38668520e-04
5.22500000e-02	2.11131013e-02	8.35854248e-04
5.25000000e-02	2.00496808e-02	7.95420046e-04
5.27500000e-02	2.04146491e-02	8.04784284e-04
5.30000000e-02	2.03762935e-02	8.01070950e-04
5.32500000e-02	2.13752002e-02	8.43805821e-04
5.35000000e-02	2.08001196e-02	8.17339868e-04
5.37500000e-02	2.05996302e-02	8.05309967e-04
5.40000000e-02	2.06003273e-02	8.01731225e-04
5.42500000e-02	2.07161425e-02	8.06273310e-04
5.45000000e-02	2.11090988e-02	8.27352352e-04
5.47500000e-02	2.10554329e-02	8.13936837e-04
5.50000000e-02	2.05701425e-02	8.02522692e-04
5.52500000e-02	2.05944334e-02	7.96305780e-04
5.55000000e-02	2.07391362e-02	8.00343865e-04
5.57500000e-02	2.04893719e-02	7.94819555e-04
5.60000000e-02	2.02918902e-02	7.80181814e-04
5.62500000e-02	2.12441994e-02	8.18886812e-04
5.65000000e-02	2.00202466e-02	7.65488517e-04
5.67500000e-02	2.13646142e-02	8.17194346e-04
5.70000000e-02	2.11508514e-02	7.90111666e-04
5.72500000e-02	2.05700386e-02	7.88077500e-04
5.75000000e-02	2.07588333e-02	7.94258143e-04
5.77500000e-02	2.07743661e-02	7.79743973e-04
5.80000000e-02	2.06006322e-02	7.83070616e-04
5.82500000e-02	2.07433493e-02	7.81297206e-04
5.85000000e-02	2.06364690e-02	7.74709435e-04
5.87500000e-02	2.07256820e-02	7.79985692e-04
5.90000000e-02	2.03517778e-02	7.70385870e-04
5.92500000e-02	2.06145412e-02	7.77624683e-04
5.95000000e-02	2.00551980e-02	7.50882011e-04
5.97500000e-02	2.06184680e-02	7.77656644e-04
6.00000000e-02	2.10091798e-02	7.77299009e-04
6.02500000e-02	2.04909469e-02	7.65195252e-04
6.05000000e-02	2.09728438e-02	7.76417956e-04
6.07500000e-02	2.03677260e-02	7.58496635e-04
6.10000000e-02	2.01437612e-02	7.49241873e-04
6.12500000e-02	2.05286976e-02	7.55632541e-04
6.15000000e-02	2.05600573e-02	7.60355446e-04
6.17500000e-02	2.02518104e-02	7.47752294e-04
6.20000000e-02	2.02572957e-02	7.47293665e-04
6.22500000e-02	2.03383233e-02	7.50511881e-04
6.25000000e-02	2.03920560e-02	7.46672509e-04
6.27500000e-02	1.99960548e-02	7.30166423e-04
6.30000000e-02	2.04202230e-02	7.51390964e-04
6.32500000e-02	2.03611641e-02	7.38750703e-04
6.35000000e-02	2.02693971e-02	7.34888294e-04
6.37500000e-02	1.92923911e-02	7.15322776e-04
6.40000000e-02	2.01296378e-02	7.33929618e-04
6.42500000e-02	1.98453865e-02	7.16811799e-04
6.45000000e-02	2.03648015e-02	7.35099568e-04
6.47500000e-02	2.05148584e-02	7.40356982e-04
6.50000000e-02	1.98812517e-02	7.24547679e-04
6.52500000e-02	1.99872099e-02	7.19817009e-04
6.55000000e-02	2.04243383e-02	7.34747708e-04
6.57500000e-02	2.00185290e-02	7.22892077e-04
6.60000000e-02	2.02614921e-02	7.21260325e-04
6.62500000e-02	2.02836574e-02	7.25452337e-04
6.65000000e-02	1.97840409e-02	7.08751761e-04
6.67500000e-02	2.00547769e-02	7.15402490e-04
6.70000000e-02	2.02300109e-02	7.22719136e-04
6.72500000e-02	1.98194047e-02	7.10072888e-04
6.75000000e-02	2.00295234e-02	7.08582742e-04
6.77500000e-02	2.00999590e-02	7.20122718e-04
6.80000000e-02	2.00294609e-02	7.11873725e-04
6.82500000e-02	2.02360968e-02	7.15340517e-04
6.85000000e-02	2.01005867e-02	7.14802417e-04
6.87500000e-02	1.97752340e-02	7.01404779e-04
6.90000000e-02	2.02482079e-02	7.18401833e-04
6.92500000e-02	1.99555858e-02	7.04197260e-04
6.95000000e-02	1.97847661e-02	7.00668604e-04
6.97500000e-02	1.96077986e-02	6.88753659e-04
7.00000000e-02	2.01086808e-02	7.06381180e-04
7.02500000e-02	2.01670040e-02	7.07775958e-04
7.05000000e-02	2.00303401e-02	6.97908429e-04
7.07500000e-02	2.02128089e-02	7.10816551e-04
7.10000000e-02	1.96572511e-02	6.78608560e-04
7.12500000e-02	2.04864473e-02	7.15130699e-04
7.15000000e-02	2.00594294e-02	6.95713199e-04
7.17500000e-02	2.00064540e-02	6.92286823e-04
7.20000000e-02	1.95463572e-02	6.89119666e-04
7.22500000e-02	2.04338924e-02	7.09582645e-04
7.25000000e-02	2.00355656e-02	6.90369399e-04
7.27500000e-02	1.99781263e-02	6.94726661e-04
7.30000000e-02	2.00451588e-02	6.90340182e-04
7.32500000e-02	1.99605646e-02	6.79977327e-04
7.35000000e-02	1.98411488e-02	6.86072765e-04
7.37500000e-02	1.96799216e-02	6.77631256e-04
7.40000000e-02	2.00546584e-02	6.91485223e-04
7.42500000e-02	1.97535420e-02	6.74606811e-04
7.45000000e-02	1.97323891e-02	6.79328753e-04
7.47500000e-02	1.98922059e-02	6.77664462e-04
7.50000000e-02	1.98784647e-02	6.74382692e-04
7.52500000e-02	2.00500157e-02	6.83672722e-04
7.55000000e-02	2.05185205e-02	6.96026046e-04
7.57500000e-02	2.03494274e-02	6.91487237e-04
7.60000000e-02	1.96589034e-02	6.63649597e-04
7.62500000e-02	1.99305403e-02	6.71892963e-04
7.65000000e-02	2.03203521e-02	6.85864183e-04
7.67500000e-02	2.01320908e-02	6.78722818e-04
7.70000000e-02	2.02442056e-02	6.77666050e-04
7.72500000e-02	1.96647907e-02	6.71405060e-04
7.75000000e-02	2.00121019e-02	6.88465665e-04
7.77500000e-02	2.00456329e-02	6.88169022e-04
7.80000000e-02	2.02258554e-02	7.05571199e-04
7.82500000e-02	1.98776487e-02	7.00298460e-04
7.85000000e-02	2.04620751e-02	7.19663046e-04
7.87500000e-02	2.02493722e-02	7.12185234e-04
7.90000000e-02	1.98186580e-02	7.06241050e-04
7.92500000e-02	2.04355679e-02	7.20647181e-04
7.95000000e-02	1.94957775e-02	6.95480185e-04
7.97500000e-02	1.98189850e-02	7.12586267e-04
8.00000000e-02	1.94469489e-02	6.93709503e-04
8.02500000e-02	2.02267208e-02	7.27371856e-04
8.05000000e-02	2.02926399e-02	7.24135397e-04
8.07500000e-02	1.97041360e-02	7.13607764e-04
8.10000000e-02	1.97896454e-02	7.09768584e-04
8.12500000e-02	1.94156238e-02	7.06855500e-04
8.15000000e-02	1.95401843e-02	7.15086432e-04
8.17500000e-02	1.94036897e-02	7.09416343e-04
8.20000000e-02	2.01096535e-02	7.30606682e-04
8.22500000e-02	1.95566611e-02	7.18508030e-04
8.25000000e-02	2.01261935e-02	7.34175872e-04
8.27500000e-02	1.99507063e-02	7.27063265e-04
8.30000000e-02	2.01591130e-02	7.37774212e-04
8.32500000e-02	1.99599061e-02	7.30799891e-04
8.35000000e-02	2.01284033e-02	7.41517434e-04
8.37500000e-02	2.05192646e-02	7.47116678e-04
8.40000000e-02	2.01703779e-02	7.43103762e-04
8.42500000e-02	2.01770669e-02	7.45036441e-04
8.45000000e-02	1.93788756e-02	7.18620738e-04
8.47500000e-02	1.98981787e-02	7.38428774e-04
8.50000000e-02	1.96238139e-02	7.21747365e-04
8.52500000e-02	1.99027795e-02	7.41114997e-04
8.55000000e-02	2.00464703e-02	7.38922265e-04
8.57500000e-02	1.92517036e-02	7.15908173e-04
8.60000000e-02	1.99414266e-02	7.41915536e-04
8.62500000e-02	2.03316818e-02	7.53375636e-04
8.65000000e-02	2.01453900e-02	7.44470871e-04
8.67500000e-02	2.02203649e-02	7.42426833e-04
8.70000000e-02	1.90793860e-02	6.93712069e-04
8.72500000e-02	1.94009956e-02	6.91661757e-04
8.75000000e-02	1.90323122e-02	6.74519765e-04
8.77500000e-02	1.98038280e-02	6.99310117e-04
8.80000000e-02	1.91319255e-02	6.74349931e-04
8.82500000e-02	1.98749848e-02	6.98697939e-04
8.85000000e-02	1.99830034e-02	7.00765002e-04
8.87500000e-02	1.94180171e-02	6.66048304e-04
8.90000000e-02	1.99939170e-02	6.98011594e-04
8.92500000e-02	2.04514592e-02	7.00289900e-04
8.95000000e-02	2.00659355e-02	6.89225840e-04
8.97500000e-02	2.00282975e-02	6.81074329e-04
9.00000000e-02	1.98948426e-02	6.72029099e-04
9.02500000e-02	1.97366833e-02	6.73672195e-04
9.05000000e-02	1.94500839e-02	6.66207257e-04
9.07500000e-02	2.00287584e-02	6.77420838e-04
9.10000000e-02	2.01331325e-02	6.79902098e-04
9.12500000e-02	2.00831992e-02	6.72887946e-04
9.15000000e-02	2.01328066e-02	6.70999564e-04
9.17500000e-02	2.03143188e-02	6.85280258e-04
9.20000000e-02	1.98060241e-02	6.65306163e-04
9.22500000e-02	1.98964664e-02	6.66555542e-04
9.25000000e-02	1.95452320e-02	6.45221546e-04
9.27500000e-02	2.00605615e-02	6.61905872e-04
9.30000000e-02	2.02757665e-02	6.70744521e-04
9.32500000e-02	1.98181737e-02	6.54548189e-04
9.35000000e-02	1.98870041e-02	6.51410123e-04
9.37500000e-02	1.96290752e-02	6.51111906e-04
9.40000000e-02	2.05560569e-02	6.77920967e-04
9.42500000e-02	1.96748333e-02	6.42134219e-04
9.45000000e-02	2.03637231e-02	6.61952551e-04
9.47500000e-02	1.94697726e-02	6.38841010e-04
9.50000000e-02	1.96656658e-02	6.39474075e-04
9.52500000e-02	1.93909624e-02	6.34855635e-04
9.55000000e-02	1.93322816e-02	6.28383940e-04
9.57500000e-02	1.98956961e-02	6.47961666e-04
9.60000000e-02	2.00435448e-02	6.52714368e-04
9.62500000e-02	1.98681694e-02	6.38421634e-04
9.65000000e-02	2.02309568e-02	6.51227354e-04
9.67500000e-02	1.96756529e-02	6.36241784e-04
9.70000000e-02	2.00768309e-02	6.45225763e-04
9.72500000e-02	1.97390195e-02	6.28887707e-04
9.75000000e-02	2.00314106e-02	6.46552962e-04
9.77500000e-02	1.97929038e-02	6.33851765e-04
9.80000000e-02	1.96395136e-02	6.27432563e-04
9.82500000e-02	1.99417313e-02	6.40305959e-04
9.85000000e-02	1.91816804e-02	6.14515487e-04
9.87500000e-02	1.97249912e-02	6.25072197e-04
9.90000000e-02	1.98748744e-02	6.31956685e-04
9.92500000e-02	1.99025243e-02	6.37017541e-04
9.95000000e-02	1.93710985e-02	6.12800767e-04
9.97500000e-02	1.99203185e-02	6.32185505e-04
1.00000000e-01	1.91480471e-02	4.97200842e-04
1.00500000e-01	1.97389298e-02	4.39788106e-04
1.01000000e-01	1.98365224e-02	4.42131834e-04
1.01500000e-01	1.95829847e-02	4.35107806e-04
1.02000000e-01	1.95649768e-02	4.30684706e-04
1.02500000e-01	1.98157766e-02	4.35069044e-04
1.03000000e-01	1.99329445e-02	4.37433106e-04
1.03500000e-01	2.00410705e-02	4.36929003e-04
1.04000000e-01	1.96074898e-02	4.27093702e-04
1.04500000e-01	1.95447962e-02	4.26062377e-04
1.05000000e-01	1.96669739e-02	4.26447985e-04
1.05500000e-01	1.94035252e-02	4.23184271e-04
1.06000000e-01	1.96752422e-02	4.23974078e-04
1.06500000e-01	1.94776286e-02	4.18591590e-04
1.07000000e-01	1.97654592e-02	4.32057091e-04
1.07500000e-01	1.98743416e-02	4.40556731e-04
1.08000000e-01	1.97166665e-02	4.39513400e-04
1.08500000e-01	1.99072589e-02	4.48529442e-04
1.09000000e-01	1.95094495e-02	4.46110133e-04
1.09500000e-01	1.97007368e-02	4.50197342e-04
1.10000000e-01	1.95652238e-02	4.42007601e-04
1.10500000e-01	1.97652941e-02	4.37110166e-04
1.11000000e-01	1.98857857e-02	4.30663038e-04
1.11500000e-01	1.97108544e-02	4.27605223e-04
1.12000000e-01	1.99988062e-02	4.27746068e-04
1.12500000e-01	1.97942518e-02	4.21006500e-04
1.13000000e-01	1.99404528e-02	4.20505824e-04
1.13500000e-01	1.95328510e-02	4.13469782e-04
1.14000000e-01	1.98154085e-02	4.17613664e-04
1.14500000e-01	1.93898332e-02	4.07927257e-04
1.15000000e-01	1.95651280e-02	4.09203522e-04
1.15500000e-01	1.96132958e-02	4.11074668e-04
1.16000000e-01	2.00954951e-02	4.18275633e-04
1.16500000e-01	1.96201240e-02	4.07732492e-04
1.17000000e-01	1.95823634e-02	4.06470711e-04
1.17500000e-01	1.96439689e-02	4.04832208e-04
1.18000000e-01	1.96027375e-02	4.06434014e-04
1.18500000e-01	1.97335383e-02	4.02589158e-04
1.19000000e-01	1.98175034e-02	4.06811162e-04
1.19500000e-01	1.95458056e-02	3.99960613e-04
1.20000000e-01	1.99633369e-02	4.05832289e-04
1.20500000e-01	1.98330806e-02	4.03881809e-04
1.21000000e-01	1.96084833e-02	3.96766736e-04
1.21500000e-01	1.94599176e-02	3.94940223e-04
1.22000000e-01	1.97827640e-02	3.98165114e-04
1.22500000e-01	1.96117818e-02	3.95465660e-04
1.23000000e-01	1.96259464e-02	3.96439966e-04
1.23500000e-01	1.96724240e-02	3.94625086e-04
1.24000000e-01	1.94720926e-02	3.89320026e-04
1.24500000e-01	1.98228016e-02	3.95072619e-04
1.25000000e-01	1.95966836e-02	3.91103729e-04
1.25500000e-01	1.98272882e-02	3.95228493e-04
1.26000000e-01	1.97080483e-02	3.91891367e-04
1.26500000e-01	1.93820395e-02	3.85154037e-04
1.27000000e-01	1.95728653e-02	3.87362983e-04
1.27500000e-01	1.97379073e-02	3.90546119e-04
1.28000000e-01	1.96454631e-02	3.87377553e-04
1.28500000e-01	1.96250262e-02	3.86434328e-04
1.29000000e-01	1.97141289e-02	3.86351443e-04
1.29500000e-01	1.93693964e-02	3.81876574e-04
1.30000000e-01	1.95886058e-02	3.82901468e-04
1.30500000e-01	1.95398965e-02	3.81135018e-04
1.31000000e-01	1.95152651e-02	3.79575882e-04
1.31500000e-01	1.94392403e-02	3.78096224e-04
1.32000000e-01	1.97830701e-02	3.84418531e-04
1.32500000e-01	1.95510283e-02	3.77918355e-04
1.33000000e-01	1.93237785e-02	3.73019239e-04
1.33500000e-01	1.97078837e-02	3.77946077e-04
1.34000000e-01	1.97447772e-02	3.78975070e-04
1.34500000e-01	1.94720066e-02	3.70956005e-04
1.35000000e-01	1.96754074e-02	3.75586641e-04
1.35500000e-01	1.98587953e-02	3.76673425e-04
1.36000000e-01	1.95111448e-02	3.69000550e-04
1.36500000e-01	1.97477554e-02	3.76812483e-04
1.37000000e-01	1.96286769e-02	3.71067915e-04
1.37500000e-01	1.95594949e-02	3.70444765e-04
1.38000000e-01	1.96774405e-02	3.72270068e-04
1.38500000e-01	1.95348035e-02	3.69990237e-04
1.39000000e-01	1.93223543e-02	3.64875399e-04
1.39500000e-01	1.93094559e-02	3.62660245e-04
1.40000000e-01	1.96834364e-02	3.70283913e-04
1.40500000e-01	1.94230679e-02	3.65087506e-04
1.41000000e-01	1.95710904e-02	3.68427460e-04
1.41500000e-01	1.95559052e-02	3.68941317e-04
1.42000000e-01	1.96232887e-02	3.67107172e-04
1.42500000e-01	1.93689080e-02	3.62109965e-04
1.43000000e-01	1.93142907e-02	3.61978760e-04
1.43500000e-01	1.94002700e-02	3.59532638e-04
1.44000000e-01	1.96313451e-02	3.63363223e-04
1.44500000e-01	1.95238066e-02	3.61513871e-04
1.45000000e-01	1.96186685e-02	3.65159170e-04
1.45500000e-01	1.94925013e-02	3.60260497e-04
1.46000000e-01	1.94798199e-02	3.58030774e-04
1.46500000e-01	1.94406148e-02	3.58434884e-04
1.47000000e-01	1.93396553e-02	3.55558430e-04
1.47500000e-01	1.91772087e-02	3.53112133e-04
1.48000000e-01	1.92351930e-02	3.54801881e-04
1.48500000e-01	1.95865813e-02	3.58524824e-04
1.49000000e-01	1.92551383e-02	3.52513562e-04
1.49500000e-01	1.91924767e-02	3.51229024e-04
1.50000000e-01	1.94557814e-02	3.53449100e-04
1.50500000e-01	1.91553264e-02	3.50890045e-04
1.51000000e-01	1.91866931e-02	3.49682283e-04
1.51500000e-01	1.95599834e-02	3.53780551e-04
1.52000000e-01	1.93785939e-02	3.48702193e-04
1.52500000e-01	1.94577683e-02	3.51706818e-04
1.53000000e-01	1.94472152e-02	3.50232672e-04
1.53500000e-01	1.93278314e-02	3.48814953e-04
1.54000000e-01	1.89935712e-02	3.40351403e-04
1.54500000e-01	1.94164838e-02	3.54118135e-04
1.55000000e-01	1.91582575e-02	3.56692942e-04
1.55500000e-01	1.91426647e-02	3.57149315e-04
1.56000000e-01	1.91867656e-02	3.60454190e-04
1.56500000e-01	1.92876813e-02	3.61798375e-04
1.57000000e-01	1.88860807e-02	3.54842592e-04
1.57500000e-01	1.90903437e-02	3.51231400e-04
1.58000000e-01	1.91016381e-02	3.46515810e-04
1.58500000e-01	1.93996176e-02	3.49842053e-04
1.59000000e-01	1.90947172e-02	3.41824519e-04
1.59500000e-01	1.90604156e-02	3.41234135e-04
1.60000000e-01	1.89847470e-02	3.41282226e-04
1.60500000e-01	1.91760457e-02	3.41282864e-04
1.61000000e-01	1.88304724e-02	3.35961935e-04
1.61500000e-01	1.92241571e-02	3.41069826e-04
1.62000000e-01	1.93026775e-02	3.41552332e-04
1.62500000e-01	1.89758545e-02	3.36684381e-04
1.63000000e-01	1.90212105e-02	3.36174980e-04
1.63500000e-01	1.92801356e-02	3.42388944e-04
1.64000000e-01	1.88547467e-02	3.31914492e-04
1.64500000e-01	1.89963449e-02	3.34662328e-04
1.65000000e-01	1.91063598e-02	3.34718816e-04
1.65500000e-01	1.88416281e-02	3.32193397e-04
1.66000000e-01	1.92167395e-02	3.37773962e-04
1.66500000e-01	1.87835973e-02	3.28547343e-04
1.67000000e-01	1.92188143e-02	3.35609127e-04
1.67500000e-01	1.89081682e-02	3.28422677e-04
1.68000000e-01	1.90561033e-02	3.30441616e-04
1.68500000e-01	1.91030132e-02	3.31254422e-04
1.69000000e-01	1.90928361e-02	3.31036276e-04
1.69500000e-01	1.90571501e-02	3.29319986e-04
1.70000000e-01	1.88543288e-02	3.25955004e-04
1.70500000e-01	1.85952575e-02	3.21602564e-04
1.71000000e-01	1.88601110e-02	3.26019463e-04
1.71500000e-01	1.88978559e-02	3.25341657e-04
1.72000000e-01	1.91790512e-02	3.28322262e-04
1.72500000e-01	1.89002717e-02	3.24244831e-04
1.73000000e-01	1.86395995e-02	3.18937759e-04
1.73500000e-01	1.86952997e-02	3.18584012e-04
1.74000000e-01	1.88566923e-02	3.22452326e-04
1.74500000e-01	1.87677807e-02	3.18002246e-04
1.75000000e-01	1.89247678e-02	3.19711257e-04
1.75500000e-01	1.87708066e-02	3.17556541e-04
1.76000000e-01	1.88441669e-02	3.18140551e-04
1.76500000e-01	1.88855198e-02	3.18581112e-04
1.77000000e-01	1.87534743e-02	3.15413175e-04
1.77500000e-01	1.87141246e-02	3.13882559e-04
1.78000000e-01	1.87720426e-02	3.15180288e-04
1.78500000e-01	1.85902996e-02	3.12589551e-04
1.79000000e-01	1.88801200e-02	3.16801833e-04
1.79500000e-01	1.86896506e-02	3.13681109e-04
1.80000000e-01	1.83579492e-02	3.08818688e-04
1.80500000e-01	1.87122849e-02	3.14299869e-04
1.81000000e-01	1.88310558e-02	3.15660864e-04
1.81500000e-01	1.85852733e-02	3.10090957e-04
1.82000000e-01	1.86201853e-02	3.11622756e-04
1.82500000e-01	1.88642525e-02	3.13471632e-04
1.83000000e-01	1.86184236e-02	3.10173654e-04
1.83500000e-01	1.87959866e-02	3.13130167e-04
1.84000000e-01	1.85247764e-02	3.07391440e-04
1.84500000e-01	1.86073415e-02	3.08940401e-04
1.85000000e-01	1.86552270e-02	3.10310487e-04
1.85500000e-01	1.85985065e-02	3.07316982e-04
1.86000000e-01	1.84950441e-02	3.05348564e-04
1.86500000e-01	1.86930000e-02	3.08019343e-04
1.87000000e-01	1.84170718e-02	3.03080462e-04
1.87500000e-01	1.85353550e-02	3.03581089e-04
1.88000000e-01	1.84645831e-02	3.03214492e-04
1.88500000e-01	1.85274166e-02	3.03763316e-04
1.89000000e-01	1.83885868e-02	3.02397083e-04
1.89500000e-01	1.82748453e-02	2.99627868e-04
1.90000000e-01	1.85295894e-02	3.02713810e-04
1.90500000e-01	1.85556764e-02	3.03106743e-04
1.91000000e-01	1.84251346e-02	3.01475537e-04
1.91500000e-01	1.84382997e-02	3.00921188e-04
1.92000000e-01	1.85983842e-02	3.01784727e-04
1.92500000e-01	1.85017636e-02	3.01140810e-04
1.93000000e-01	1.84174027e-02	2.99307648e-04
1.93500000e-01	1.83437539e-02	2.96106187e-04
1.94000000e-01	1.84474864e-02	2.98977538e-04
1.94500000e-01	1.84474397e-02	2.99050375e-04
1.95000000e-01	1.82978550e-02	2.95052411e-04
1.95500000e-01	1.84353280e-02	2.96625435e-04
1.96000000e-01	1.81291273e-02	2.92725749e-04
1.96500000e-01	1.82630435e-02	2.95294194e-04
1.97000000e-01	1.81664018e-02	2.92330775e-04
1.97500000e-01	1.81712799e-02	2.91442731e-04
1.98000000e-01	1.82272224e-02	2.93154615e-04
1.98500000e-01	1.81679566e-02	2.90947340e-04
1.99000000e-01	1.81115983e-02	2.90512143e-04
1.99500000e-01	1.82704697e-02	2.91073400e-04
2.00000000e-01	1.82427456e-02	2.92107184e-04
2.00500000e-01	1.82342894e-02	2.90959044e-04
2.01000000e-01	1.82819169e-02	2.91103357e-04
2.01500000e-01	1.82124357e-02	2.90643796e-04
2.02000000e-01	1.83196189e-02	2.91094315e-04
2.02500000e-01	1.81746348e-02	2.88522296e-04
2.03000000e-01	1.84453555e-02	2.92083452e-04
2.03500000e-01	1.81942512e-02	2.88731519e-04
2.04000000e-01	1.81441599e-02	2.87808762e-04
2.04500000e-01	1.82289862e-02	2.88072551e-04
2.05000000e-01	1.82018596e-02	2.86578421e-04
2.05500000e-01	1.83018099e-02	2.88633585e-04
2.06000000e-01	1.82551097e-02	2.86220889e-04
2.06500000e-01	1.78890471e-02	2.81649563e-04
2.07000000e-01	1.81563714e-02	2.84491604e-04
2.07500000e-01	1.83036312e-02	2.86441142e-04
2.08000000e-01	1.80677259e-02	2.83776336e-04
2.08500000e-01	1.82399122e-02	2.84607367e-04
2.09000000e-01	1.81354378e-02	2.84170995e-04
2.09500000e-01	1.80877508e-02	2.81120763e-04
2.10000000e-01	1.82071503e-02	2.83847176e-04
2.10500000e-01	1.81674359e-02	2.83381586e-04
2.11000000e-01	1.81087564e-02	2.81545766e-04
2.11500000e-01	1.80229412e-02	2.80940090e-04
2.12000000e-01	1.81605166e-02	2.81056778e-04
2.12500000e-01	1.80369585e-02	2.80377609e-04
2.13000000e-01	1.77803625e-02	2.76024289e-04
2.13500000e-01	1.79224825e-02	2.77255062e-04
2.14000000e-01	1.80105531e-02	2.78289529e-04
2.14500000e-01	1.79328511e-02	2.77566674e-04
2.15000000e-01	1.80891566e-02	2.79950740e-04
2.15500000e-01	1.80507019e-02	2.77276307e-04
2.16000000e-01	1.82136255e-02	2.79669054e-04
2.16500000e-01	1.80961080e-02	2.78059455e-04
2.17000000e-01	1.80212257e-02	2.80626886e-04
2.17500000e-01	1.79432429e-02	2.84996074e-04
2.18000000e-01	1.80802135e-02	2.86188155e-04
2.18500000e-01	1.81395136e-02	2.89151941e-04
2.19000000e-01	1.78201016e-02	2.86008331e-04
2.19500000e-01	1.81137652e-02	2.90544095e-04
2.20000000e-01	1.81786683e-02	2.93256664e-04
2.20500000e-01	1.81024864e-02	2.94212900e-04
2.21000000e-01	1.79103420e-02	2.90194741e-04
2.21500000e-01	1.77463047e-02	2.89095271e-04
2.22000000e-01	1.80903166e-02	2.95357711e-04
2.22500000e-01	1.79954723e-02	2.93516846e-04
2.23000000e-01	1.81764312e-02	2.98913854e-04
2.23500000e-01	1.78770566e-02	2.95004545e-04
2.24000000e-01	1.78421991e-02	2.94049924e-04
2.24500000e-01	1.77686714e-02	2.94737833e-04
2.25000000e-01	1.79084294e-02	2.96803126e-04
2.25500000e-01	1.80281375e-02	2.98619077e-04
2.26000000e-01	1.77862577e-02	2.96707459e-04
2.26500000e-01	1.77300340e-02	2.89948183e-04
2.27000000e-01	1.80010681e-02	2.90487428e-04
2.27500000e-01	1.77788937e-02	2.86363124e-04
2.28000000e-01	1.79142809e-02	2.87117425e-04
2.28500000e-01	1.76995091e-02	2.81069687e-04
2.29000000e-01	1.78123595e-02	2.82566986e-04
2.29500000e-01	1.78923391e-02	2.81793388e-04
2.30000000e-01	1.79186600e-02	2.82394085e-04
2.30500000e-01	1.77692503e-02	2.78116362e-04
2.31000000e-01	1.79543468e-02	2.79991582e-04
2.31500000e-01	1.77335302e-02	2.77722910e-04
2.32000000e-01	1.78329335e-02	2.76966671e-04
2.32500000e-01	1.76409095e-02	2.75139997e-04
2.33000000e-01	1.76079307e-02	2.73288182e-04
2.33500000e-01	1.78835111e-02	2.76944870e-04
2.34000000e-01	1.77143202e-02	2.73313753e-04
2.34500000e-01	1.77657988e-02	2.73887767e-04
2.35000000e-01	1.78129151e-02	2.73383327e-04
2.35500000e-01	1.79281783e-02	2.75408579e-04
2.36000000e-01	1.75986901e-02	2.69746867e-04
2.36500000e-01	1.77844828e-02	2.71564408e-04
2.37000000e-01	1.77179203e-02	2.69537777e-04
2.37500000e-01	1.74299204e-02	2.66207524e-04
2.38000000e-01	1.78099425e-02	2.70785620e-04
2.38500000e-01	1.75312671e-02	2.66485157e-04
2.39000000e-01	1.77626165e-02	2.69586238e-04
2.39500000e-01	1.77248966e-02	2.68951929e-04
2.40000000e-01	1.76716939e-02	2.67706697e-04
2.40500000e-01	1.76928478e-02	2.65877914e-04
2.41000000e-01	1.74034825e-02	2.62584384e-04
2.41500000e-01	1.74454044e-02	2.63386413e-04
2.42000000e-01	1.76044633e-02	2.64501510e-04
2.42500000e-01	1.76502150e-02	2.63284108e-04
2.43000000e-01	1.72766499e-02	2.59603638e-04
2.43500000e-01	1.74831923e-02	2.61429302e-04
2.44000000e-01	1.75992584e-02	2.62652746e-04
2.44500000e-01	1.76956816e-02	2.64024932e-04
2.45000000e-01	1.75768540e-02	2.60668535e-04
2.45500000e-01	1.73188373e-02	2.58566273e-04
2.46000000e-01	1.74884189e-02	2.59651603e-04
2.46500000e-01	1.75037445e-02	2.59587651e-04
2.47000000e-01	1.74752200e-02	2.60049429e-04
2.47500000e-01	1.74603206e-02	2.58089778e-04
2.48000000e-01	1.74045078e-02	2.57287287e-04
2.48500000e-01	1.75033526e-02	2.57950968e-04
2.49000000e-01	1.73430845e-02	2.57230015e-04
2.49500000e-01	1.74374015e-02	2.56415389e-04
2.50000000e-01	1.73759898e-02	2.55670383e-04
2.50500000e-01	1.73940741e-02	2.55895862e-04
2.51000000e-01	1.73964634e-02	2.55622395e-04
2.51500000e-01	1.76675187e-02	2.60449049e-04
2.52000000e-01	1.76606872e-02	2.58509571e-04
2.52500000e-01	1.72548835e-02	2.54072934e-04
2.53000000e-01	1.72772775e-02	2.54729119e-04
2.53500000e-01	1.73197236e-02	2.53068676e-04
2.54000000e-01	1.74290064e-02	2.53955827e-04
2.54500000e-01	1.73318320e-02	2.53375647e-04
2.55000000e-01	1.73763646e-02	2.54005649e-04
2.55500000e-01	1.73062781e-02	2.52930464e-04
2.56000000e-01	1.72728255e-02	2.50076451e-04
2.56500000e-01	1.73374298e-02	2.51582057e-04
2.57000000e-01	1.74408203e-02	2.52623137e-04
2.57500000e-01	1.74403695e-02	2.51510436e-04
2.58000000e-01	1.70984335e-02	2.47900757e-04
2.58500000e-01	1.72748345e-02	2.49348524e-04
2.59000000e-01	1.73158185e-02	2.50699809e-04
2.59500000e-01	1.74057160e-02	2.50851918e-04
2.60000000e-01	1.72774763e-02	2.48941879e-04
2.60500000e-01	1.75094938e-02	2.51207017e-04
2.61000000e-01	1.72612716e-02	2.47932336e-04
2.61500000e-01	1.73191479e-02	2.49094227e-04
2.62000000e-01	1.71709687e-02	2.45974370e-04
2.62500000e-01	1.71289858e-02	2.47040133e-04
2.63000000e-01	1.73409281e-02	2.47554768e-04
2.63500000e-01	1.74821048e-02	2.49747337e-04
2.64000000e-01	1.72091333e-02	2.46063279e-04
2.64500000e-01	1.72251983e-02	2.46580163e-04
2.65000000e-01	1.73665467e-02	2.47763547e-04
2.65500000e-01	1.72954922e-02	2.45857699e-04
2.66000000e-01	1.70419677e-02	2.42200735e-04
2.66500000e-01	1.73077718e-02	2.45579610e-04
2.67000000e-01	1.71985362e-02	2.44453168e-04
2.67500000e-01	1.71348316e-02	2.43151385e-04
2.68000000e-01	1.72344999e-02	2.43499586e-04
2.68500000e-01	1.72261673e-02	2.42741107e-04
2.69000000e-01	1.73169312e-02	2.43982173e-04
2.69500000e-01	1.72070904e-02	2.43549127e-04
2.70000000e-01	1.69837355e-02	2.40024564e-04
2.70500000e-01	1.71335714e-02	2.41803968e-04
2.71000000e-01	1.70078900e-02	2.40058256e-04
2.71500000e-01	1.74180147e-02	2.43823816e-04
2.72000000e-01	1.71210985e-02	2.40700969e-04
2.72500000e-01	1.71826015e-02	2.41581099e-04
2.73000000e-01	1.68772306e-02	2.37625023e-04
2.73500000e-01	1.71304913e-02	2.39741532e-04
2.74000000e-01	1.70337108e-02	2.38572181e-04
2.74500000e-01	1.70231261e-02	2.37602246e-04
2.75000000e-01	1.72128408e-02	2.41407529e-04
2.75500000e-01	1.71897734e-02	2.40570687e-04
2.76000000e-01	1.69721929e-02	2.37192868e-04
2.76500000e-01	1.73397936e-02	2.41269297e-04
2.77000000e-01	1.70790711e-02	2.37421255e-04
2.77500000e-01	1.71363640e-02	2.38827160e-04
2.78000000e-01	1.69658229e-02	2.35355764e-04
2.78500000e-01	1.69937791e-02	2.36830648e-04
2.79000000e-01	1.71816567e-02	2.37828787e-04
2.79500000e-01	1.69154381e-02	2.34996867e-04
2.80000000e-01	1.72341751e-02	2.38992947e-04
2.80500000e-01	1.70825409e-02	2.34922966e-04
2.81000000e-01	1.70745239e-02	2.35681912e-04
2.81500000e-01	1.70912966e-02	2.36403526e-04
2.82000000e-01	1.70488329e-02	2.35339119e-04
2.82500000e-01	1.68709884e-02	2.32903902e-04
2.83000000e-01	1.67779621e-02	2.30883304e-04
2.83500000e-01	1.70971419e-02	2.35512358e-04
2.84000000e-01	1.68890769e-02	2.32676309e-04
2.84500000e-01	1.69447820e-02	2.32979437e-04
2.85000000e-01	1.67618493e-02	2.30288250e-04
2.85500000e-01	1.66629974e-02	2.29222143e-04
2.86000000e-01	1.69332171e-02	2.32549306e-04
2.86500000e-01	1.69587640e-02	2.32400499e-04
2.87000000e-01	1.68244864e-02	2.30930684e-04
2.87500000e-01	1.67593172e-02	2.28029256e-04
2.88000000e-01	1.69625570e-02	2.29523282e-04
2.88500000e-01	1.69732482e-02	2.31225822e-04
2.89000000e-01	1.67345484e-02	2.28992449e-04
2.89500000e-01	1.70571566e-02	2.32155326e-04
2.90000000e-01	1.69230977e-02	2.29341339e-04
2.90500000e-01	1.69266165e-02	2.29471224e-04
2.91000000e-01	1.67779758e-02	2.28141278e-04
2.91500000e-01	1.69636388e-02	2.29700823e-04
2.92000000e-01	1.66759990e-02	2.25892958e-04
2.92500000e-01	1.67058174e-02	2.25781538e-04
2.93000000e-01	1.67428808e-02	2.25879737e-04
2.93500000e-01	1.69795593e-02	2.29288168e-04
2.94000000e-01	1.68725316e-02	2.26788005e-04
2.94500000e-01	1.67126528e-02	2.26310256e-04
2.95000000e-01	1.67576313e-02	2.25440133e-04
2.95500000e-01	1.70044201e-02	2.29250995e-04
2.96000000e-01	1.65634795e-02	2.23259612e-04
2.96500000e-01	1.69238936e-02	2.27174742e-04
2.97000000e-01	1.66598351e-02	2.24249170e-04
2.97500000e-01	1.67688103e-02	2.24963678e-04
2.98000000e-01	1.68529812e-02	2.25981667e-04
2.98500000e-01	1.67471078e-02	2.25125566e-04
2.99000000e-01	1.69071974e-02	2.26026080e-04
2.99500000e-01	1.67256636e-02	2.25004886e-04
3.00000000e-01	1.67681545e-02	2.24303111e-04
3.00500000e-01	1.68322438e-02	2.25443926e-04
3.01000000e-01	1.68573230e-02	2.24472628e-04
3.01500000e-01	1.66687979e-02	2.22152224e-04
3.02000000e-01	1.66902381e-02	2.21993926e-04
3.02500000e-01	1.68150102e-02	2.23325106e-04
3.03000000e-01	1.67752025e-02	2.24010394e-04
3.03500000e-01	1.67965417e-02	2.22633403e-04
3.04000000e-01	1.65336788e-02	2.20851410e-04
3.04500000e-01	1.66208029e-02	2.20599272e-04
3.05000000e-01	1.66846913e-02	2.21376474e-04
3.05500000e-01	1.66711449e-02	2.20560597e-04
3.06000000e-01	1.66483539e-02	2.18830485e-04
3.06500000e-01	1.68594090e-02	2.22534927e-04
3.07000000e-01	1.68637689e-02	2.22782177e-04
3.07500000e-01	1.65808183e-02	2.19585677e-04
3.08000000e-01	1.66534084e-02	2.19967477e-04
3.08500000e-01	1.66953871e-02	2.20195543e-04
3.09000000e-01	1.66063928e-02	2.18544648e-04
3.09500000e-01	1.66352434e-02	2.18934669e-04
3.10000000e-01	1.65933495e-02	2.18536869e-04
3.10500000e-01	1.66522185e-02	2.18978520e-04
3.11000000e-01	1.64816707e-02	2.16338123e-04
3.11500000e-01	1.65738670e-02	2.17371687e-04
3.12000000e-01	1.66646656e-02	2.18063473e-04
3.12500000e-01	1.64832628e-02	2.16655740e-04
3.13000000e-01	1.64823393e-02	2.15740524e-04
3.13500000e-01	1.63052313e-02	2.13763322e-04
3.14000000e-01	1.65119569e-02	2.16118348e-04
3.14500000e-01	1.63859328e-02	2.14139969e-04
3.15000000e-01	1.66150452e-02	2.16815383e-04
3.15500000e-01	1.65493233e-02	2.15334113e-04
3.16000000e-01	1.64708557e-02	2.14174698e-04
3.16500000e-01	1.65434794e-02	2.14532835e-04
3.17000000e-01	1.64883182e-02	2.14364906e-04
3.17500000e-01	1.64823685e-02	2.14715795e-04
3.18000000e-01	1.62882555e-02	2.12133416e-04
3.18500000e-01	1.65252873e-02	2.14071974e-04
3.19000000e-01	1.64071997e-02	2.12997932e-04
3.19500000e-01	1.64711765e-02	2.12958079e-04
3.20000000e-01	1.62245136e-02	2.10793979e-04
3.20500000e-01	1.64048562e-02	2.12255239e-04
3.21000000e-01	1.62451087e-02	2.10424862e-04
3.21500000e-01	1.63781610e-02	2.12366912e-04
3.22000000e-01	1.66482585e-02	2.14946177e-04
3.22500000e-01	1.63385926e-02	2.11060833e-04
3.23000000e-01	1.64325042e-02	2.12089567e-04
3.23500000e-01	1.62494576e-02	2.09895579e-04
3.24000000e-01	1.63394450e-02	2.10410571e-04
3.24500000e-01	1.62172167e-02	2.08860926e-04
3.25000000e-01	1.65302100e-02	2.11764596e-04
3.25500000e-01	1.61165018e-02	2.07311151e-04
3.26000000e-01	1.61761229e-02	2.07856433e-04
3.26500000e-01	1.63804606e-02	2.09643395e-04
3.27000000e-01	1.63666237e-02	2.09769498e-04
3.27500000e-01	1.62452269e-02	2.07910366e-04
3.28000000e-01	1.63106692e-02	2.09318132e-04
3.28500000e-01	1.61162436e-02	2.06152686e-04
3.29000000e-01	1.61977419e-02	2.07136420e-04
3.29500000e-01	1.60514643e-02	2.05624580e-04
3.30000000e-01	1.62718451e-02	2.07794775e-04
3.30500000e-01	1.62587212e-02	2.07772379e-04
3.31000000e-01	1.61050293e-02	2.04819998e-04
3.31500000e-01	1.61778322e-02	2.06433117e-04
3.32000000e-01	1.62314444e-02	2.07145196e-04
3.32500000e-01	1.63162491e-02	2.07110177e-04
3.33000000e-01	1.60909106e-02	2.04705945e-04
3.33500000e-01	1.60793257e-02	2.04313590e-04
3.34000000e-01	1.61379508e-02	2.05114893e-04
3.34500000e-01	1.61743040e-02	2.05225593e-04
3.35000000e-01	1.61280569e-02	2.03435327e-04
3.35500000e-01	1.61138848e-02	2.04068297e-04
3.36000000e-01	1.61554109e-02	2.04687388e-04
3.36500000e-01	1.61001725e-02	2.03425324e-04
3.37000000e-01	1.60026403e-02	2.01952163e-04
3.37500000e-01	1.59940197e-02	2.01847894e-04
3.38000000e-01	1.60543322e-02	2.03302730e-04
3.38500000e-01	1.63355455e-02	2.05217713e-04
3.39000000e-01	1.61591562e-02	2.04006536e-04
3.39500000e-01	1.60465217e-02	2.01885962e-04
3.40000000e-01	1.60666507e-02	2.01933630e-04
3.40500000e-01	1.59432785e-02	2.01120504e-04
3.41000000e-01	1.60546600e-02	2.01604426e-04
3.41500000e-01	1.59739267e-02	2.00509541e-04
3.42000000e-01	1.60380471e-02	2.00962552e-04
3.42500000e-01	1.58774198e-02	1.99316855e-04
3.43000000e-01	1.60461553e-02	2.00839050e-04
3.43500000e-01	1.59198724e-02	1.99025132e-04
3.44000000e-01	1.60220212e-02	2.01097720e-04
3.44500000e-01	1.59730471e-02	1.99166460e-04
3.45000000e-01	1.58585562e-02	1.98691771e-04
3.45500000e-01	1.57305080e-02	1.96183586e-04
3.46000000e-01	1.58042773e-02	1.97612405e-04
3.46500000e-01	1.60755908e-02	2.00302005e-04
3.47000000e-01	1.57948379e-02	1.96465348e-04
3.47500000e-01	1.58666940e-02	1.98209201e-04
3.48000000e-01	1.59347491e-02	1.98449077e-04
3.48500000e-01	1.59415806e-02	1.98634714e-04
3.49000000e-01	1.59957068e-02	1.98921533e-04
3.49500000e-01	1.57949577e-02	1.96887376e-04
3.50000000e-01	1.58856073e-02	1.60888210e-04
3.51000000e-01	1.58661497e-02	1.39472637e-04
3.52000000e-01	1.57181265e-02	1.38040524e-04
3.53000000e-01	1.57635041e-02	1.37533271e-04
3.54000000e-01	1.56279834e-02	1.36176967e-04
3.55000000e-01	1.58603716e-02	1.38363019e-04
3.56000000e-01	1.57887360e-02	1.38108493e-04
3.57000000e-01	1.57065272e-02	1.40022711e-04
3.58000000e-01	1.56863924e-02	1.41080015e-04
3.59000000e-01	1.56253462e-02	1.41664973e-04
3.60000000e-01	1.56546898e-02	1.42904370e-04
3.61000000e-01	1.55159582e-02	1.42168095e-04
3.62000000e-01	1.54907308e-02	1.42496110e-04
3.63000000e-01	1.56249004e-02	1.44037844e-04
3.64000000e-01	1.55777284e-02	1.44408510e-04
3.65000000e-01	1.55498075e-02	1.44661937e-04
3.66000000e-01	1.54738160e-02	1.42173441e-04
3.67000000e-01	1.56031415e-02	1.41640933e-04
3.68000000e-01	1.55829357e-02	1.40208363e-04
3.69000000e-01	1.54654647e-02	1.38661962e-04
3.70000000e-01	1.55242406e-02	1.38446344e-04
3.71000000e-01	1.55526332e-02	1.40036982e-04
3.72000000e-01	1.55084809e-02	1.40815821e-04
3.73000000e-01	1.54733619e-02	1.41197602e-04
3.74000000e-01	1.55491071e-02	1.41579213e-04
3.75000000e-01	1.54605617e-02	1.41164798e-04
3.76000000e-01	1.55040920e-02	1.41357191e-04
3.77000000e-01	1.53152698e-02	1.39612544e-04
3.78000000e-01	1.53944705e-02	1.40389920e-04
3.79000000e-01	1.54345930e-02	1.40390300e-04
3.80000000e-01	1.54606980e-02	1.40309438e-04
3.81000000e-01	1.54860107e-02	1.40586467e-04
3.82000000e-01	1.54036583e-02	1.40103832e-04
3.83000000e-01	1.52875159e-02	1.39074649e-04
3.84000000e-01	1.52815578e-02	1.39343929e-04
3.85000000e-01	1.52887739e-02	1.39365086e-04
3.86000000e-01	1.53584113e-02	1.39789014e-04
3.87000000e-01	1.53491608e-02	1.39581360e-04
3.88000000e-01	1.52928139e-02	1.38927903e-04
3.89000000e-01	1.53716049e-02	1.39549217e-04
3.90000000e-01	1.53672538e-02	1.39331879e-04
3.91000000e-01	1.53012928e-02	1.38875534e-04
3.92000000e-01	1.51910863e-02	1.38046813e-04
3.93000000e-01	1.51859914e-02	1.37713695e-04
3.94000000e-01	1.52204201e-02	1.38112494e-04
3.95000000e-01	1.51699278e-02	1.37658274e-04
3.96000000e-01	1.51697329e-02	1.37467837e-04
3.97000000e-01	1.52727321e-02	1.38567495e-04
3.98000000e-01	1.51531396e-02	1.37876587e-04
3.99000000e-01	1.51591134e-02	1.37415316e-04
4.00000000e-01	1.52022243e-02	1.37832602e-04
4.01000000e-01	1.51355715e-02	1.37074303e-04
4.02000000e-01	1.50041250e-02	1.36066535e-04
4.03000000e-01	1.50673888e-02	1.36598199e-04
4.04000000e-01	1.50827171e-02	1.37001095e-04
4.05000000e-01	1.50315740e-02	1.36721903e-04
4.06000000e-01	1.50543526e-02	1.36526512e-04
4.07000000e-01	1.49643244e-02	1.35542079e-04
4.08000000e-01	1.49773045e-02	1.35725440e-04
4.09000000e-01	1.50799588e-02	1.36494324e-04
4.10000000e-01	1.49799447e-02	1.35524105e-04
4.11000000e-01	1.49608962e-02	1.35583560e-04
4.12000000e-01	1.50265062e-02	1.36053750e-04
4.13000000e-01	1.49716164e-02	1.35432144e-04
4.14000000e-01	1.50275996e-02	1.35655125e-04
4.15000000e-01	1.49686486e-02	1.35272885e-04
4.16000000e-01	1.49038145e-02	1.34721506e-04
4.17000000e-01	1.48396231e-02	1.34120959e-04
4.18000000e-01	1.50597841e-02	1.37166005e-04
4.19000000e-01	1.50729015e-02	1.39744275e-04
4.20000000e-01	1.51086976e-02	1.39975228e-04
4.21000000e-01	1.49707560e-02	1.39612354e-04
4.22000000e-01	1.49315550e-02	1.39872308e-04
4.23000000e-01	1.49800626e-02	1.40635515e-04
4.24000000e-01	1.50024529e-02	1.41292118e-04
4.25000000e-01	1.48963770e-02	1.40299036e-04
4.26000000e-01	1.48857231e-02	1.40478359e-04
4.27000000e-01	1.49684302e-02	1.41139504e-04
4.28000000e-01	1.49583386e-02	1.41486237e-04
4.29000000e-01	1.49042189e-02	1.41328106e-04
4.30000000e-01	1.50521122e-02	1.42298189e-04
4.31000000e-01	1.47958423e-02	1.39838154e-04
4.32000000e-01	1.47365063e-02	1.39663470e-04
4.33000000e-01	1.49689226e-02	1.41539521e-04
4.34000000e-01	1.48546411e-02	1.40611704e-04
4.35000000e-01	1.47717055e-02	1.40206555e-04
4.36000000e-01	1.47505578e-02	1.40124197e-04
4.37000000e-01	1.47555939e-02	1.40516174e-04
4.38000000e-01	1.47325720e-02	1.39964001e-04
4.39000000e-01	1.47645809e-02	1.41072647e-04
4.40000000e-01	1.47727166e-02	1.40597415e-04
4.41000000e-01	1.47355717e-02	1.40879892e-04
4.42000000e-01	1.47043602e-02	1.40955312e-04
4.43000000e-01	1.47310515e-02	1.41045393e-04
4.44000000e-01	1.48435709e-02	1.42468342e-04
4.45000000e-01	1.48786753e-02	1.42896448e-04
4.46000000e-01	1.46800483e-02	1.41147332e-04
4.47000000e-01	1.46173941e-02	1.40947283e-04
4.48000000e-01	1.47418449e-02	1.42167466e-04
4.49000000e-01	1.46097984e-02	1.40784916e-04
4.50000000e-01	1.46773955e-02	1.42100199e-04
4.51000000e-01	1.46699086e-02	1.41584406e-04
4.52000000e-01	1.46919410e-02	1.42357400e-04
4.53000000e-01	1.46991793e-02	1.42621766e-04
4.54000000e-01	1.46866571e-02	1.42400305e-04
4.55000000e-01	1.46648126e-02	1.42390925e-04
4.56000000e-01	1.46527385e-02	1.42170647e-04
4.57000000e-01	1.47581704e-02	1.43503790e-04
4.58000000e-01	1.46210138e-02	1.42448037e-04
4.59000000e-01	1.46473988e-02	1.42372575e-04
4.60000000e-01	1.45520404e-02	1.41681104e-04
4.61000000e-01	1.45912958e-02	1.42012366e-04
4.62000000e-01	1.46206003e-02	1.43002508e-04
4.63000000e-01	1.47103574e-02	1.43517022e-04
4.64000000e-01	1.47414977e-02	1.43666231e-04
4.65000000e-01	1.44037553e-02	1.41492178e-04
4.66000000e-01	1.45545467e-02	1.42460055e-04
4.67000000e-01	1.46172954e-02	1.43141137e-04
4.68000000e-01	1.44065493e-02	1.40972113e-04
4.69000000e-01	1.44556588e-02	1.42325412e-04
4.70000000e-01	1.45420802e-02	1.42882504e-04
4.71000000e-01	1.46224734e-02	1.43611630e-04
4.72000000e-01	1.45061768e-02	1.42050946e-04
4.73000000e-01	1.45753584e-02	1.43017300e-04
4.74000000e-01	1.43770365e-02	1.41297359e-04
4.75000000e-01	1.44724367e-02	1.41578636e-04
4.76000000e-01	1.45399526e-02	1.42452490e-04
4.77000000e-01	1.43420051e-02	1.40981701e-04
4.78000000e-01	1.44776619e-02	1.42166214e-04
4.79000000e-01	1.43222375e-02	1.41199627e-04
4.80000000e-01	1.42914458e-02	1.40754932e-04
4.81000000e-01	1.44629767e-02	1.42008880e-04
4.82000000e-01	1.43325269e-02	1.41612665e-04
4.83000000e-01	1.43775302e-02	1.41608340e-04
4.84000000e-01	1.43698121e-02	1.41577080e-04
4.85000000e-01	1.43549387e-02	1.41698244e-04
4.86000000e-01	1.43896459e-02	1.41936521e-04
4.87000000e-01	1.43348482e-02	1.41262209e-04
4.88000000e-01	1.42487210e-02	1.40517303e-04
4.89000000e-01	1.43120004e-02	1.41475547e-04
4.90000000e-01	1.43053403e-02	1.41929305e-04
4.91000000e-01	1.42857029e-02	1.41547075e-04
4.92000000e-01	1.43010168e-02	1.41670805e-04
4.93000000e-01	1.42554464e-02	1.41445627e-04
4.94000000e-01	1.41673116e-02	1.40304209e-04
4.95000000e-01	1.43244383e-02	1.43003860e-04
4.96000000e-01	1.42019270e-02	1.46347826e-04
4.97000000e-01	1.42951880e-02	1.49649643e-04
4.98000000e-01	1.42442080e-02	1.51011416e-04
4.99000000e-01	1.42720411e-02	1.53311907e-04
5.00000000e-01	1.43074644e-02	1.55023068e-04
5.01000000e-01	1.42638002e-02	1.56485513e-04
5.02000000e-01	1.43941789e-02	1.58920037e-04
5.03000000e-01	1.43341313e-02	1.59490700e-04
5.04000000e-01	1.42637130e-02	1.60663783e-04
5.05000000e-01	1.43694940e-02	1.58656061e-04
5.06000000e-01	1.43000627e-02	1.54745255e-04
5.07000000e-01	1.41927134e-02	1.52007430e-04
5.08000000e-01	1.41495373e-02	1.50710429e-04
5.09000000e-01	1.42451703e-02	1.50942596e-04
5.10000000e-01	1.42831203e-02	1.51027851e-04
5.11000000e-01	1.41457257e-02	1.49499869e-04
5.12000000e-01	1.40809391e-02	1.48596540e-04
5.13000000e-01	1.41758802e-02	1.49299641e-04
5.14000000e-01	1.41073130e-02	1.48328062e-04
5.15000000e-01	1.41009130e-02	1.47258794e-04
5.16000000e-01	1.40803842e-02	1.46997647e-04
5.17000000e-01	1.41953541e-02	1.47621835e-04
5.18000000e-01	1.40767590e-02	1.46949468e-04
5.19000000e-01	1.40767949e-02	1.46322880e-04
5.20000000e-01	1.40334375e-02	1.45370809e-04
5.21000000e-01	1.40619290e-02	1.45603562e-04
5.22000000e-01	1.41809907e-02	1.46249724e-04
5.23000000e-01	1.39852193e-02	1.44729340e-04
5.24000000e-01	1.40612329e-02	1.45160162e-04
5.25000000e-01	1.40745304e-02	1.45120129e-04
5.26000000e-01	1.39225364e-02	1.43784055e-04
5.27000000e-01	1.40189235e-02	1.44778077e-04
5.28000000e-01	1.39598465e-02	1.44554077e-04
5.29000000e-01	1.39952166e-02	1.44703630e-04
5.30000000e-01	1.39713776e-02	1.44752751e-04
5.31000000e-01	1.38410305e-02	1.43591059e-04
5.32000000e-01	1.38703813e-02	1.43758210e-04
5.33000000e-01	1.39775496e-02	1.43947787e-04
5.34000000e-01	1.38569486e-02	1.43623183e-04
5.35000000e-01	1.40201288e-02	1.44655106e-04
5.36000000e-01	1.40396417e-02	1.44719915e-04
5.37000000e-01	1.39117470e-02	1.43830569e-04
5.38000000e-01	1.38876582e-02	1.42909711e-04
5.39000000e-01	1.38421741e-02	1.43581482e-04
5.40000000e-01	1.38956690e-02	1.43443933e-04
5.41000000e-01	1.38921987e-02	1.43978576e-04
5.42000000e-01	1.38999340e-02	1.43240999e-04
5.43000000e-01	1.38916178e-02	1.43542283e-04
5.44000000e-01	1.38763575e-02	1.43740973e-04
5.45000000e-01	1.37210559e-02	1.42039790e-04
5.46000000e-01	1.38521595e-02	1.43205042e-04
5.47000000e-01	1.37540126e-02	1.42522385e-04
5.48000000e-01	1.38215847e-02	1.42948979e-04
5.49000000e-01	1.37490343e-02	1.42105398e-04
5.50000000e-01	1.37173801e-02	1.41735753e-04
5.51000000e-01	1.38639158e-02	1.42992537e-04
5.52000000e-01	1.37179566e-02	1.41428942e-04
5.53000000e-01	1.37455546e-02	1.41680551e-04
5.54000000e-01	1.37161825e-02	1.41098480e-04
5.55000000e-01	1.39068049e-02	1.42406639e-04
5.56000000e-01	1.37608333e-02	1.41121427e-04
5.57000000e-01	1.36779640e-02	1.40702006e-04
5.58000000e-01	1.36797941e-02	1.40149218e-04
5.59000000e-01	1.35976660e-02	1.39513380e-04
5.60000000e-01	1.37033847e-02	1.41031554e-04
5.61000000e-01	1.35497323e-02	1.39277397e-04
5.62000000e-01	1.35241384e-02	1.39602253e-04
5.63000000e-01	1.36680175e-02	1.40868307e-04
5.64000000e-01	1.36054261e-02	1.40184557e-04
5.65000000e-01	1.36552170e-02	1.40804811e-04
5.66000000e-01	1.35025066e-02	1.39406508e-04
5.67000000e-01	1.36583676e-02	1.40538338e-04
5.68000000e-01	1.34150411e-02	1.38679720e-04
5.69000000e-01	1.35023346e-02	1.38618635e-04
5.70000000e-01	1.36374267e-02	1.39859022e-04
5.71000000e-01	1.34798455e-02	1.38722366e-04
5.72000000e-01	1.35166624e-02	1.38996856e-04
5.73000000e-01	1.36176695e-02	1.40248890e-04
5.74000000e-01	1.34705962e-02	1.38860709e-04
5.75000000e-01	1.36288034e-02	1.40315059e-04
5.76000000e-01	1.36070281e-02	1.40174955e-04
5.77000000e-01	1.35233005e-02	1.39496957e-04
5.78000000e-01	1.36302709e-02	1.40530432e-04
5.79000000e-01	1.33576296e-02	1.38202898e-04
5.80000000e-01	1.33278910e-02	1.38165524e-04
5.81000000e-01	1.34415860e-02	1.38707276e-04
5.82000000e-01	1.34455210e-02	1.38570957e-04
5.83000000e-01	1.34797933e-02	1.38989271e-04
5.84000000e-01	1.33323038e-02	1.37695294e-04
5.85000000e-01	1.33462763e-02	1.38178262e-04
5.86000000e-01	1.33740307e-02	1.38292146e-04
5.87000000e-01	1.33462220e-02	1.37845662e-04
5.88000000e-01	1.32759640e-02	1.37394219e-04
5.89000000e-01	1.32907505e-02	1.37176465e-04
5.90000000e-01	1.33697634e-02	1.38183636e-04
5.91000000e-01	1.33256796e-02	1.37804206e-04
5.92000000e-01	1.33931229e-02	1.38322762e-04
5.93000000e-01	1.33543644e-02	1.38207402e-04
5.94000000e-01	1.32835385e-02	1.37407148e-04
5.95000000e-01	1.33386101e-02	1.37821359e-04
5.96000000e-01	1.33125834e-02	1.38171469e-04
5.97000000e-01	1.32966031e-02	1.37776408e-04
5.98000000e-01	1.31339622e-02	1.35992905e-04
5.99000000e-01	1.32373131e-02	1.37047895e-04
6.00000000e-01	1.32551739e-02	1.37832855e-04
6.01000000e-01	1.30691616e-02	1.35555012e-04
6.02000000e-01	1.32543200e-02	1.37288627e-04
6.03000000e-01	1.31746093e-02	1.36547221e-04
6.04000000e-01	1.32417092e-02	1.37382551e-04
6.05000000e-01	1.30999049e-02	1.35823872e-04
6.06000000e-01	1.32553959e-02	1.37251906e-04
6.07000000e-01	1.31274473e-02	1.36341936e-04
6.08000000e-01	1.32576478e-02	1.37890385e-04
6.09000000e-01	1.30351836e-02	1.35681549e-04
6.10000000e-01	1.31492942e-02	1.36809003e-04
6.11000000e-01	1.30113072e-02	1.34985403e-04
6.12000000e-01	1.31339640e-02	1.36820638e-04
6.13000000e-01	1.31505844e-02	1.36930329e-04
6.14000000e-01	1.30223910e-02	1.35386444e-04
6.15000000e-01	1.32263358e-02	1.37127555e-04
6.16000000e-01	1.31983901e-02	1.37728949e-04
6.17000000e-01	1.30783022e-02	1.35551358e-04
6.18000000e-01	1.32570568e-02	1.37448633e-04
6.19000000e-01	1.31449398e-02	1.35554039e-04
6.20000000e-01	1.32102882e-02	1.36822897e-04
6.21000000e-01	1.30609850e-02	1.35395190e-04
6.22000000e-01	1.30459783e-02	1.35298933e-04
6.23000000e-01	1.31037888e-02	1.35608319e-04
6.24000000e-01	1.30722078e-02	1.34834728e-04
6.25000000e-01	1.29206094e-02	1.32929848e-04
6.26000000e-01	1.31353816e-02	1.34997097e-04
6.27000000e-01	1.30323118e-02	1.34500873e-04
6.28000000e-01	1.29705833e-02	1.33647864e-04
6.29000000e-01	1.30928044e-02	1.35097540e-04
6.30000000e-01	1.29119552e-02	1.33386209e-04
6.31000000e-01	1.28395220e-02	1.32798561e-04
6.32000000e-01	1.30782428e-02	1.35271697e-04
6.33000000e-01	1.29879430e-02	1.33770291e-04
6.34000000e-01	1.30142437e-02	1.37934724e-04
6.35000000e-01	1.31532038e-02	1.43333280e-04
6.36000000e-01	1.30913392e-02	1.44407978e-04
6.37000000e-01	1.29148486e-02	1.45853868e-04
6.38000000e-01	1.30176954e-02	1.48546871e-04
6.39000000e-01	1.29022239e-02	1.49130923e-04
6.40000000e-01	1.30721322e-02	1.53305673e-04
6.41000000e-01	1.31444180e-02	1.54910588e-04
6.42000000e-01	1.29650283e-02	1.55111947e-04
6.43000000e-01	1.29996465e-02	1.56016216e-04
6.44000000e-01	1.30324086e-02	1.50034504e-04
6.45000000e-01	1.30305372e-02	1.47847662e-04
6.46000000e-01	1.30542470e-02	1.47413575e-04
6.47000000e-01	1.30392037e-02	1.45746477e-04
6.48000000e-01	1.30349823e-02	1.44426992e-04
6.49000000e-01	1.29917151e-02	1.43222561e-04
6.50000000e-01	1.29441524e-02	1.42237250e-04
6.51000000e-01	1.28571513e-02	1.40609983e-04
6.52000000e-01	1.29679515e-02	1.41799590e-04
6.53000000e-01	1.29974442e-02	1.41318141e-04
6.54000000e-01	1.30577032e-02	1.41554000e-04
6.55000000e-01	1.30094428e-02	1.40369260e-04
6.56000000e-01	1.29612492e-02	1.40496148e-04
6.57000000e-01	1.29719331e-02	1.39702675e-04
6.58000000e-01	1.29163321e-02	1.39384605e-04
6.59000000e-01	1.30944043e-02	1.41020249e-04
6.60000000e-01	1.28534241e-02	1.38303757e-04
6.61000000e-01	1.29858789e-02	1.39458369e-04
6.62000000e-01	1.27010031e-02	1.37532820e-04
6.63000000e-01	1.29911401e-02	1.39602552e-04
6.64000000e-01	1.26779736e-02	1.36650453e-04
6.65000000e-01	1.27857714e-02	1.36950128e-04
6.66000000e-01	1.28705108e-02	1.37878286e-04
6.67000000e-01	1.28922241e-02	1.37921481e-04
6.68000000e-01	1.27979788e-02	1.37576706e-04
6.69000000e-01	1.28963637e-02	1.38040691e-04
6.70000000e-01	1.27384230e-02	1.36700229e-04
6.71000000e-01	1.28679366e-02	1.38066261e-04
6.72000000e-01	1.28277727e-02	1.37737146e-04
6.73000000e-01	1.28409550e-02	1.37251646e-04
6.74000000e-01	1.27888565e-02	1.36821494e-04
6.75000000e-01	1.28514566e-02	1.37003294e-04
6.76000000e-01	1.27530148e-02	1.36267360e-04
6.77000000e-01	1.27837010e-02	1.36382168e-04
6.78000000e-01	1.26760650e-02	1.35528624e-04
6.79000000e-01	1.28064428e-02	1.36721094e-04
6.80000000e-01	1.28688179e-02	1.37001143e-04
6.81000000e-01	1.27871009e-02	1.36754561e-04
6.82000000e-01	1.27197546e-02	1.35674245e-04
6.83000000e-01	1.27782022e-02	1.35872027e-04
6.84000000e-01	1.26765184e-02	1.35272902e-04
6.85000000e-01	1.28007114e-02	1.36721546e-04
6.86000000e-01	1.26371041e-02	1.35059096e-04
6.87000000e-01	1.26386684e-02	1.35055102e-04
6.88000000e-01	1.25618319e-02	1.34237564e-04
6.89000000e-01	1.27945320e-02	1.35964305e-04
6.90000000e-01	1.27129962e-02	1.35660518e-04
6.91000000e-01	1.26866959e-02	1.35616005e-04
6.92000000e-01	1.25813527e-02	1.34612273e-04
6.93000000e-01	1.27017273e-02	1.35444292e-04
6.94000000e-01	1.24599190e-02	1.32775257e-04
6.95000000e-01	1.26355996e-02	1.34748326e-04
6.96000000e-01	1.27365914e-02	1.35720841e-04
6.97000000e-01	1.25929520e-02	1.34143051e-04
6.98000000e-01	1.26914817e-02	1.34963857e-04
6.99000000e-01	1.26016591e-02	1.34133951e-04
7.00000000e-01	1.25480113e-02	1.34228677e-04
7.01000000e-01	1.26844155e-02	1.34976230e-04
7.02000000e-01	1.25422554e-02	1.34548510e-04
7.03000000e-01	1.24552197e-02	1.32998335e-04
7.04000000e-01	1.26059179e-02	1.34415199e-04
7.05000000e-01	1.24998925e-02	1.33436241e-04
7.06000000e-01	1.25367292e-02	1.33586045e-04
7.07000000e-01	1.25264740e-02	1.33330701e-04
7.08000000e-01	1.24687125e-02	1.32565470e-04
7.09000000e-01	1.24970604e-02	1.33190341e-04
7.10000000e-01	1.23760553e-02	1.31457695e-04
7.11000000e-01	1.24349033e-02	1.32725099e-04
7.12000000e-01	1.23747533e-02	1.32255174e-04
7.13000000e-01	1.23665626e-02	1.32184899e-04
7.14000000e-01	1.23257736e-02	1.31026217e-04
7.15000000e-01	1.23645592e-02	1.32338412e-04
7.16000000e-01	1.22262372e-02	1.30385117e-04
7.17000000e-01	1.25229860e-02	1.33535947e-04
7.18000000e-01	1.24975516e-02	1.32827928e-04
7.19000000e-01	1.23107453e-02	1.31249368e-04
7.20000000e-01	1.22877504e-02	1.31876554e-04
7.21000000e-01	1.22580011e-02	1.31209615e-04
7.22000000e-01	1.22780002e-02	1.30661186e-04
7.23000000e-01	1.22060168e-02	1.30465181e-04
7.24000000e-01	1.21969082e-02	1.30519582e-04
7.25000000e-01	1.22894634e-02	1.30996241e-04
7.26000000e-01	1.24613471e-02	1.32747620e-04
7.27000000e-01	1.22003037e-02	1.30505381e-04
7.28000000e-01	1.22988212e-02	1.31570590e-04
7.29000000e-01	1.21049741e-02	1.29347718e-04
7.30000000e-01	1.21926863e-02	1.30698125e-04
7.31000000e-01	1.22636979e-02	1.30958729e-04
7.32000000e-01	1.21401567e-02	1.29771176e-04
7.33000000e-01	1.21163323e-02	1.29476104e-04
7.34000000e-01	1.22257044e-02	1.30428470e-04
7.35000000e-01	1.22066420e-02	1.30227083e-04
7.36000000e-01	1.22244637e-02	1.30386607e-04
7.37000000e-01	1.22080446e-02	1.29707513e-04
7.38000000e-01	1.22150688e-02	1.29499015e-04
7.39000000e-01	1.21239717e-02	1.28307089e-04
7.40000000e-01	1.20868416e-02	1.28008880e-04
7.41000000e-01	1.20676814e-02	1.27596474e-04
7.42000000e-01	1.21409797e-02	1.28552251e-04
7.43000000e-01	1.20673778e-02	1.27842249e-04
7.44000000e-01	1.21885510e-02	1.28708281e-04
7.45000000e-01	1.20601534e-02	1.28054991e-04
7.46000000e-01	1.20815476e-02	1.27745066e-04
7.47000000e-01	1.20019136e-02	1.27039768e-04
7.48000000e-01	1.20922700e-02	1.28217431e-04
7.49000000e-01	1.20207645e-02	1.27310311e-04
7.50000000e-01	1.20059256e-02	1.27250609e-04
7.51000000e-01	1.20376573e-02	1.27658437e-04
7.52000000e-01	1.20587569e-02	1.27651810e-04
7.53000000e-01	1.20142589e-02	1.27335278e-04
7.54000000e-01	1.20020605e-02	1.27239153e-04
7.55000000e-01	1.20704849e-02	1.27477353e-04
7.56000000e-01	1.19446978e-02	1.26936194e-04
7.57000000e-01	1.21055986e-02	1.28097399e-04
7.58000000e-01	1.20338952e-02	1.27234121e-04
7.59000000e-01	1.20462253e-02	1.27115314e-04
7.60000000e-01	1.20722375e-02	1.27248326e-04
7.61000000e-01	1.18271707e-02	1.24556548e-04
7.62000000e-01	1.19366812e-02	1.25708367e-04
7.63000000e-01	1.20513282e-02	1.26562485e-04
7.64000000e-01	1.19435859e-02	1.25405937e-04
7.65000000e-01	1.20239674e-02	1.25809502e-04
7.66000000e-01	1.17152652e-02	1.23203660e-04
7.67000000e-01	1.19031181e-02	1.24968754e-04
7.68000000e-01	1.18021884e-02	1.23693136e-04
7.69000000e-01	1.18420718e-02	1.24461063e-04
7.70000000e-01	1.18164885e-02	1.24033602e-04
7.71000000e-01	1.18304179e-02	1.24124110e-04
7.72000000e-01	1.18233998e-02	1.27916231e-04
7.73000000e-01	1.18518162e-02	1.32076879e-04
7.74000000e-01	1.17015074e-02	1.33233508e-04
7.75000000e-01	1.18551764e-02	1.37144686e-04
7.76000000e-01	1.16821269e-02	1.37008543e-04
7.77000000e-01	1.18288786e-02	1.41717275e-04
7.78000000e-01	1.15847206e-02	1.40649604e-04
7.79000000e-01	1.17527661e-02	1.44815977e-04
7.80000000e-01	1.16161010e-02	1.44279229e-04
7.81000000e-01	1.17182397e-02	1.47143408e-04
7.82000000e-01	1.16831495e-02	1.47789122e-04
7.83000000e-01	1.16372252e-02	1.48814655e-04
7.84000000e-01	1.16382512e-02	1.50858045e-04
7.85000000e-01	1.16185466e-02	1.52372082e-04
7.86000000e-01	1.15869794e-02	1.53312010e-04
7.87000000e-01	1.15879320e-02	1.55119741e-04
7.88000000e-01	1.17622423e-02	1.58219786e-04
7.89000000e-01	1.14952949e-02	1.56755626e-04
7.90000000e-01	1.15706734e-02	1.59413421e-04
7.91000000e-01	1.15322974e-02	1.60007869e-04
7.92000000e-01	1.14717080e-02	1.60809743e-04
7.93000000e-01	1.14395002e-02	1.63215365e-04
7.94000000e-01	1.14330443e-02	1.63720499e-04
7.95000000e-01	1.16427422e-02	1.68104028e-04
7.96000000e-01	1.14849862e-02	1.68785134e-04
7.97000000e-01	1.15577682e-02	1.70844621e-04
7.98000000e-01	1.14077751e-02	1.69827363e-04
7.99000000e-01	1.15352940e-02	1.74717519e-04
8.00000000e-01	1.14438131e-02	1.73701740e-04
8.01000000e-01	1.15815324e-02	1.78810804e-04
8.02000000e-01	1.15383794e-02	1.80011202e-04
8.03000000e-01	1.15560059e-02	1.81882889e-04
8.04000000e-01	1.13407085e-02	1.79683746e-04
8.05000000e-01	1.13266541e-02	1.82038927e-04
8.06000000e-01	1.14202139e-02	1.85958996e-04
8.07000000e-01	1.14560382e-02	1.87875719e-04
8.08000000e-01	1.13527158e-02	1.89406142e-04
8.09000000e-01	1.14265742e-02	1.90672211e-04
8.10000000e-01	1.16266087e-02	1.96066030e-04
8.11000000e-01	1.13522134e-02	1.93925142e-04
8.12000000e-01	1.12386337e-02	1.95602798e-04
8.13000000e-01	1.13286885e-02	1.98883430e-04
8.14000000e-01	1.10590863e-02	1.97243432e-04
8.15000000e-01	1.14724157e-02	2.05278017e-04
8.16000000e-01	1.13687273e-02	2.06531545e-04
8.17000000e-01	1.13529395e-02	2.10116359e-04
8.18000000e-01	1.13760963e-02	2.11691762e-04
8.19000000e-01	1.13887370e-02	2.16385941e-04
8.20000000e-01	1.11576732e-02	2.13599953e-04
8.21000000e-01	1.12798800e-02	2.17656455e-04
8.22000000e-01	1.10637476e-02	2.18191042e-04
8.23000000e-01	1.11144608e-02	2.21240742e-04
8.24000000e-01	1.11238803e-02	2.25416515e-04
8.25000000e-01	1.12232476e-02	2.31058184e-04
8.26000000e-01	1.11118033e-02	2.31837332e-04
8.27000000e-01	1.10700344e-02	2.33192016e-04
8.28000000e-01	1.10288502e-02	2.36238490e-04
8.29000000e-01	1.07993381e-02	2.36325724e-04
8.30000000e-01	1.09337936e-02	2.43272133e-04
8.31000000e-01	1.10318089e-02	2.47363604e-04
8.32000000e-01	1.10234942e-02	2.50362864e-04
8.33000000e-01	1.08390287e-02	2.54161291e-04
8.34000000e-01	1.11273780e-02	2.62594368e-04
8.35000000e-01	1.11542032e-02	2.68493742e-04
8.36000000e-01	1.09485038e-02	2.65082533e-04
8.37000000e-01	1.08826891e-02	2.72251265e-04
8.38000000e-01	1.05988585e-02	2.70713633e-04
8.39000000e-01	1.12249641e-02	2.92757780e-04
8.40000000e-01	1.11911705e-02	2.95462868e-04
8.41000000e-01	1.10236244e-02	3.00773251e-04
8.42000000e-01	1.08193800e-02	3.00412139e-04
8.43000000e-01	1.08255457e-02	3.11356776e-04
8.44000000e-01	1.09999401e-02	3.18681142e-04
8.45000000e-01	1.09959834e-02	3.31446550e-04
8.46000000e-01	1.06489402e-02	3.28582973e-04
8.47000000e-01	1.07325934e-02	3.41619730e-04
8.48000000e-01	1.07144423e-02	3.51147639e-04
8.49000000e-01	1.09656083e-02	3.71219711e-04
8.50000000e-01	1.06336255e-02	3.68335031e-04
8.51000000e-01	1.03468574e-02	3.77143682e-04
8.52000000e-01	1.04871743e-02	3.99573655e-04
8.53000000e-01	1.04216558e-02	4.11693239e-04
8.54000000e-01	1.10793261e-02	4.54736827e-04
8.55000000e-01	1.07138357e-02	4.55285523e-04
8.56000000e-01	1.07574015e-02	4.62069661e-04
8.57000000e-01	1.05409600e-02	4.71871328e-04
8.58000000e-01	1.07587877e-02	4.98094075e-04
8.59000000e-01	1.08772286e-02	5.15753330e-04
8.60000000e-01	1.04044738e-02	5.17696778e-04
8.61000000e-01	1.10359077e-02	5.56586635e-04
8.62000000e-01	1.09918506e-02	5.86295394e-04
8.63000000e-01	1.05765324e-02	5.89433246e-04
8.64000000e-01	1.07315172e-02	6.17252266e-04
8.65000000e-01	1.01092551e-02	6.20195750e-04
8.66000000e-01	1.02591829e-02	6.49194351e-04
8.67000000e-01	1.02580324e-02	6.97051596e-04
8.68000000e-01	1.07364502e-02	7.47420208e-04
8.69000000e-01	1.06023804e-02	8.16155039e-04
8.70000000e-01	1.02998353e-02	8.65350011e-04
8.71000000e-01	9.39958174e-03	8.73356499e-04
8.72000000e-01	1.03152789e-02	1.07691085e-03
8.73000000e-01	9.35773668e-03	1.10457083e-03
8.74000000e-01	1.19908241e-02	1.83548042e-03
8.75000000e-01	1.07065415e-02	3.60859275e-03
