% Filename : SDL7c_00026_00062.h5
% Date & Time : 30-Oct-2025 17:04:37
% X-ray Energy (keV) : 13.30001
% Exposure Time (s) : 0.500
% Beam Center : 1461.24000, 208.98300
% Sample to Detector Distance (SDD) (mm) : 1990.750
% Detector Pixel Size (mm) : 0.075
% Photodiode Value : 141167.000
% I0 of Sample : 0
% I0 of Standard : 1
% 
% q(A^-1)   I(q)    I(q)_SE
0.00000000e+00	7.67886982e-03	4.78861509e-03
2.50000000e-04	0.00000000e+00	0.00000000e+00
5.00000000e-04	0.00000000e+00	0.00000000e+00
7.50000000e-04	0.00000000e+00	0.00000000e+00
1.00000000e-03	0.00000000e+00	0.00000000e+00
1.25000000e-03	0.00000000e+00	0.00000000e+00
1.50000000e-03	0.00000000e+00	0.00000000e+00
1.75000000e-03	0.00000000e+00	0.00000000e+00
2.00000000e-03	0.00000000e+00	0.00000000e+00
2.25000000e-03	0.00000000e+00	0.00000000e+00
2.50000000e-03	0.00000000e+00	0.00000000e+00
2.75000000e-03	0.00000000e+00	0.00000000e+00
3.00000000e-03	0.00000000e+00	0.00000000e+00
3.25000000e-03	3.28899576e+00	1.91177683e+00
3.50000000e-03	1.91967741e+00	5.15820075e-01
3.75000000e-03	1.37429683e+00	2.82537782e-01
4.00000000e-03	1.20956982e+00	2.30842723e-01
4.25000000e-03	8.80665217e-01	1.34663567e-01
4.50000000e-03	1.17760960e+00	2.13600852e-01
4.75000000e-03	1.32932375e+00	2.61709048e-01
5.00000000e-03	1.06283295e+00	2.02750610e-01
5.25000000e-03	8.83120437e-01	1.63829332e-01
5.50000000e-03	7.31498404e-01	1.29295213e-01
5.75000000e-03	6.12229558e-01	1.01180068e-01
6.00000000e-03	5.34174527e-01	8.78451447e-02
6.25000000e-03	4.48152874e-01	7.14558177e-02
6.50000000e-03	3.81751038e-01	5.64957137e-02
6.75000000e-03	3.32760254e-01	4.84535446e-02
7.00000000e-03	3.00847267e-01	4.25289109e-02
7.25000000e-03	2.62823032e-01	3.71053534e-02
7.50000000e-03	2.29858501e-01	3.07932878e-02
7.75000000e-03	2.04421265e-01	2.66929168e-02
8.00000000e-03	1.91289055e-01	2.44986279e-02
8.25000000e-03	1.65340184e-01	2.07730350e-02
8.50000000e-03	1.49959703e-01	1.81304797e-02
8.75000000e-03	1.34959045e-01	1.58102915e-02
9.00000000e-03	1.20230790e-01	1.35255243e-02
9.25000000e-03	1.11748653e-01	1.25622727e-02
9.50000000e-03	1.00939846e-01	1.08230739e-02
9.75000000e-03	9.50540105e-02	9.77960593e-03
1.00000000e-02	8.52631004e-02	8.66418795e-03
1.02500000e-02	8.14071948e-02	8.49779988e-03
1.05000000e-02	7.64450577e-02	7.15832050e-03
1.07500000e-02	6.99749574e-02	6.64010356e-03
1.10000000e-02	6.33943044e-02	5.66218251e-03
1.12500000e-02	6.31095207e-02	5.51638176e-03
1.15000000e-02	5.72793833e-02	5.08888210e-03
1.17500000e-02	5.16586779e-02	4.40527429e-03
1.20000000e-02	5.11246052e-02	4.30673919e-03
1.22500000e-02	4.91657893e-02	4.06729143e-03
1.25000000e-02	4.85994547e-02	3.91999733e-03
1.27500000e-02	4.62433972e-02	3.59261533e-03
1.30000000e-02	4.61281518e-02	3.54390176e-03
1.32500000e-02	4.19975141e-02	3.02200614e-03
1.35000000e-02	4.07806218e-02	3.02799107e-03
1.37500000e-02	3.81620685e-02	2.73701375e-03
1.40000000e-02	3.81181459e-02	2.70878805e-03
1.42500000e-02	3.54189490e-02	2.38432843e-03
1.45000000e-02	3.47123082e-02	2.35761507e-03
1.47500000e-02	3.45217838e-02	2.24705158e-03
1.50000000e-02	3.41922078e-02	2.19943546e-03
1.52500000e-02	3.21843383e-02	2.12298482e-03
1.55000000e-02	3.28985244e-02	2.03144381e-03
1.57500000e-02	3.02350962e-02	1.82942835e-03
1.60000000e-02	2.89473894e-02	1.76038279e-03
1.62500000e-02	2.89092150e-02	1.76147530e-03
1.65000000e-02	2.84079150e-02	1.64750068e-03
1.67500000e-02	2.87518394e-02	1.65221431e-03
1.70000000e-02	2.65719888e-02	1.56580610e-03
1.72500000e-02	2.82694625e-02	1.62660055e-03
1.75000000e-02	2.79542284e-02	1.61561438e-03
1.77500000e-02	2.61367592e-02	1.46054625e-03
1.80000000e-02	2.62446311e-02	1.47446112e-03
1.82500000e-02	2.67851007e-02	1.46080261e-03
1.85000000e-02	2.51346791e-02	1.40616171e-03
1.87500000e-02	2.59964128e-02	1.41208491e-03
1.90000000e-02	2.52496520e-02	1.34882294e-03
1.92500000e-02	2.49107673e-02	1.33901553e-03
1.95000000e-02	2.42028368e-02	1.29191261e-03
1.97500000e-02	2.44259139e-02	1.29852969e-03
2.00000000e-02	2.52767616e-02	1.29667928e-03
2.02500000e-02	2.38906034e-02	1.22453490e-03
2.05000000e-02	2.51384975e-02	1.25895696e-03
2.07500000e-02	2.44852926e-02	1.22880836e-03
2.10000000e-02	2.38054278e-02	1.20857442e-03
2.12500000e-02	2.30480305e-02	1.17126052e-03
2.15000000e-02	2.40734547e-02	1.22711296e-03
2.17500000e-02	2.34752485e-02	1.20114423e-03
2.20000000e-02	2.19012888e-02	1.13961708e-03
2.22500000e-02	2.33847673e-02	1.19004304e-03
2.25000000e-02	2.44992009e-02	1.23739281e-03
2.27500000e-02	2.28290770e-02	1.14120794e-03
2.30000000e-02	2.32490949e-02	1.19387790e-03
2.32500000e-02	2.37277603e-02	1.20596735e-03
2.35000000e-02	2.32736072e-02	1.17086441e-03
2.37500000e-02	2.35511867e-02	1.17477582e-03
2.40000000e-02	2.34135768e-02	1.18594689e-03
2.42500000e-02	2.22062617e-02	1.12357711e-03
2.45000000e-02	2.24698345e-02	1.12638447e-03
2.47500000e-02	2.29524454e-02	1.15567868e-03
2.50000000e-02	2.31381888e-02	1.16143780e-03
2.52500000e-02	2.22259978e-02	1.13789555e-03
2.55000000e-02	2.27819535e-02	1.13359419e-03
2.57500000e-02	2.25147157e-02	1.11419162e-03
2.60000000e-02	2.28060900e-02	1.11743499e-03
2.62500000e-02	2.18789168e-02	1.10542000e-03
2.65000000e-02	2.21624287e-02	1.09639508e-03
2.67500000e-02	2.27139656e-02	1.12150134e-03
2.70000000e-02	2.27621679e-02	1.11873481e-03
2.72500000e-02	2.26477912e-02	1.10290061e-03
2.75000000e-02	2.24695745e-02	1.12131263e-03
2.77500000e-02	2.19664382e-02	1.09333802e-03
2.80000000e-02	2.21464479e-02	1.07426978e-03
2.82500000e-02	2.20555483e-02	1.07480402e-03
2.85000000e-02	2.22970509e-02	1.07462004e-03
2.87500000e-02	2.29374682e-02	1.13044502e-03
2.90000000e-02	2.33429395e-02	1.13118729e-03
2.92500000e-02	2.28278164e-02	1.07824735e-03
2.95000000e-02	2.28826862e-02	1.11439739e-03
2.97500000e-02	2.24550008e-02	1.07589167e-03
3.00000000e-02	2.26856682e-02	1.08598611e-03
3.02500000e-02	2.33227818e-02	1.12086181e-03
3.05000000e-02	2.30645202e-02	1.07780485e-03
3.07500000e-02	2.27859949e-02	1.08488228e-03
3.10000000e-02	2.31053351e-02	1.08539249e-03
3.12500000e-02	2.39383720e-02	1.14682970e-03
3.15000000e-02	2.19824409e-02	1.03981646e-03
3.17500000e-02	2.26746439e-02	1.05460294e-03
3.20000000e-02	2.26989245e-02	1.06511397e-03
3.22500000e-02	2.22214510e-02	1.05116938e-03
3.25000000e-02	2.27892028e-02	1.06923695e-03
3.27500000e-02	2.26537858e-02	1.05357327e-03
3.30000000e-02	2.19850816e-02	1.01639730e-03
3.32500000e-02	2.22171900e-02	1.03531946e-03
3.35000000e-02	2.27667614e-02	1.06497377e-03
3.37500000e-02	2.16626508e-02	1.00372672e-03
3.40000000e-02	2.21256636e-02	1.03991493e-03
3.42500000e-02	2.22221910e-02	1.01745543e-03
3.45000000e-02	2.12509614e-02	9.84286862e-04
3.47500000e-02	2.13550227e-02	9.83154724e-04
3.50000000e-02	2.16365401e-02	9.89709147e-04
3.52500000e-02	2.17018804e-02	9.98151500e-04
3.55000000e-02	2.18998693e-02	9.83553922e-04
3.57500000e-02	2.18730000e-02	1.00501116e-03
3.60000000e-02	2.24264554e-02	1.02050067e-03
3.62500000e-02	2.22246952e-02	1.00959831e-03
3.65000000e-02	2.18215821e-02	9.80218442e-04
3.67500000e-02	2.21116806e-02	9.91225078e-04
3.70000000e-02	2.17043962e-02	9.74755958e-04
3.72500000e-02	2.15495889e-02	9.66923542e-04
3.75000000e-02	2.11917992e-02	9.58396290e-04
3.77500000e-02	2.11417146e-02	9.41290290e-04
3.80000000e-02	2.18792330e-02	9.73612041e-04
3.82500000e-02	2.15099486e-02	9.53842201e-04
3.85000000e-02	2.09627514e-02	9.41702745e-04
3.87500000e-02	2.04746381e-02	9.08605922e-04
3.90000000e-02	2.13061685e-02	9.53962978e-04
3.92500000e-02	2.04443322e-02	8.96496777e-04
3.95000000e-02	2.08016492e-02	9.19573209e-04
3.97500000e-02	2.09721919e-02	9.24095832e-04
4.00000000e-02	2.12433912e-02	9.33670015e-04
4.02500000e-02	2.14271399e-02	9.34276288e-04
4.05000000e-02	2.06265661e-02	9.09363544e-04
4.07500000e-02	2.17111723e-02	9.37307047e-04
4.10000000e-02	2.09920232e-02	9.14326256e-04
4.12500000e-02	2.13527905e-02	9.26687728e-04
4.15000000e-02	2.16134855e-02	9.32938540e-04
4.17500000e-02	2.04293409e-02	8.81395838e-04
4.20000000e-02	2.04593984e-02	8.82771720e-04
4.22500000e-02	2.07093470e-02	8.79431173e-04
4.25000000e-02	2.15494769e-02	9.19989754e-04
4.27500000e-02	2.08722415e-02	8.94829239e-04
4.30000000e-02	2.09366972e-02	8.92473180e-04
4.32500000e-02	2.07761220e-02	8.81344181e-04
4.35000000e-02	2.09218099e-02	8.93038266e-04
4.37500000e-02	2.11182687e-02	8.86790558e-04
4.40000000e-02	2.11890822e-02	8.98359824e-04
4.42500000e-02	2.09846252e-02	8.88952858e-04
4.45000000e-02	2.17040012e-02	9.04922523e-04
4.47500000e-02	2.12920940e-02	8.83282652e-04
4.50000000e-02	2.06261128e-02	8.64121093e-04
4.52500000e-02	2.14300183e-02	8.92493808e-04
4.55000000e-02	2.07735474e-02	8.63390131e-04
4.57500000e-02	2.06562340e-02	8.58890768e-04
4.60000000e-02	2.10841476e-02	8.74878040e-04
4.62500000e-02	2.08396398e-02	8.68045222e-04
4.65000000e-02	2.10125181e-02	8.67965905e-04
4.67500000e-02	2.09727067e-02	8.61904404e-04
4.70000000e-02	2.04526163e-02	8.45383033e-04
4.72500000e-02	2.06994280e-02	8.53294254e-04
4.75000000e-02	2.06026550e-02	8.57070447e-04
4.77500000e-02	2.06638279e-02	8.38452915e-04
4.80000000e-02	2.11512426e-02	8.52771899e-04
4.82500000e-02	2.05366531e-02	8.35092811e-04
4.85000000e-02	2.04262492e-02	8.42560399e-04
4.87500000e-02	2.06430246e-02	8.42047232e-04
4.90000000e-02	2.01934902e-02	8.18122701e-04
4.92500000e-02	2.07807167e-02	8.43940891e-04
4.95000000e-02	2.07556689e-02	8.34065187e-04
4.97500000e-02	2.15542182e-02	8.64455540e-04
5.00000000e-02	1.97631984e-02	7.99193694e-04
5.02500000e-02	2.03354114e-02	8.12891556e-04
5.05000000e-02	2.06691320e-02	8.21033768e-04
5.07500000e-02	2.05706438e-02	8.25879532e-04
5.10000000e-02	2.03684075e-02	8.20311619e-04
5.12500000e-02	2.03057428e-02	8.05391130e-04
5.15000000e-02	2.10161016e-02	8.22594349e-04
5.17500000e-02	2.12687815e-02	8.49147328e-04
5.20000000e-02	2.03661402e-02	8.07663452e-04
5.22500000e-02	2.00921922e-02	7.97710649e-04
5.25000000e-02	2.12426521e-02	8.37585231e-04
5.27500000e-02	2.00023551e-02	7.84507909e-04
5.30000000e-02	2.05220791e-02	8.14064862e-04
5.32500000e-02	2.09279032e-02	8.20604298e-04
5.35000000e-02	2.11885646e-02	8.34615488e-04
5.37500000e-02	2.08419844e-02	8.10420992e-04
5.40000000e-02	2.04591219e-02	8.04584909e-04
5.42500000e-02	2.05267910e-02	7.95750269e-04
5.45000000e-02	2.05174079e-02	7.95514012e-04
5.47500000e-02	2.04754606e-02	7.92832941e-04
5.50000000e-02	2.03272367e-02	7.94265386e-04
5.52500000e-02	2.09972335e-02	8.07092341e-04
5.55000000e-02	2.05221517e-02	7.96147534e-04
5.57500000e-02	2.07814987e-02	8.04261330e-04
5.60000000e-02	2.08308704e-02	7.96103108e-04
5.62500000e-02	2.01798062e-02	7.78554678e-04
5.65000000e-02	1.98135106e-02	7.57595512e-04
5.67500000e-02	2.08801743e-02	7.92954926e-04
5.70000000e-02	2.03835761e-02	7.79031571e-04
5.72500000e-02	2.01753834e-02	7.70878928e-04
5.75000000e-02	2.05903860e-02	7.89201172e-04
5.77500000e-02	2.03125319e-02	7.73140122e-04
5.80000000e-02	1.97924517e-02	7.52669528e-04
5.82500000e-02	2.07995961e-02	7.86009648e-04
5.85000000e-02	2.09686786e-02	7.94711663e-04
5.87500000e-02	2.03166966e-02	7.59605038e-04
5.90000000e-02	2.07608419e-02	7.80426051e-04
5.92500000e-02	2.05398524e-02	7.71912554e-04
5.95000000e-02	2.03739193e-02	7.59089241e-04
5.97500000e-02	2.02038605e-02	7.56534426e-04
6.00000000e-02	2.05975418e-02	7.70285671e-04
6.02500000e-02	2.01217509e-02	7.55317088e-04
6.05000000e-02	2.01875586e-02	7.51392987e-04
6.07500000e-02	1.98881624e-02	7.43172269e-04
6.10000000e-02	1.99273924e-02	7.40614849e-04
6.12500000e-02	1.97795253e-02	7.29630794e-04
6.15000000e-02	2.06877053e-02	7.58576032e-04
6.17500000e-02	2.00041647e-02	7.32423619e-04
6.20000000e-02	2.04505371e-02	7.49775988e-04
6.22500000e-02	1.95971638e-02	7.29250082e-04
6.25000000e-02	2.05832971e-02	7.61482424e-04
6.27500000e-02	2.00621348e-02	7.27145648e-04
6.30000000e-02	2.01427143e-02	7.41991807e-04
6.32500000e-02	2.02229852e-02	7.37834095e-04
6.35000000e-02	2.02011028e-02	7.35791952e-04
6.37500000e-02	2.07687284e-02	7.57437103e-04
6.40000000e-02	2.04600943e-02	7.49411905e-04
6.42500000e-02	1.97941463e-02	7.10906991e-04
6.45000000e-02	2.03744069e-02	7.34009328e-04
6.47500000e-02	1.98346777e-02	7.15452267e-04
6.50000000e-02	1.99558469e-02	7.18001212e-04
6.52500000e-02	2.02099733e-02	7.26393902e-04
6.55000000e-02	2.08579177e-02	7.49101410e-04
6.57500000e-02	2.05560794e-02	7.39344099e-04
6.60000000e-02	2.02545948e-02	7.31743789e-04
6.62500000e-02	2.06188720e-02	7.40945407e-04
6.65000000e-02	1.96255476e-02	7.06613560e-04
6.67500000e-02	1.99664855e-02	7.12108446e-04
6.70000000e-02	1.98587746e-02	7.10390200e-04
6.72500000e-02	1.95076460e-02	6.97684726e-04
6.75000000e-02	2.02025750e-02	7.16214069e-04
6.77500000e-02	2.02119009e-02	7.17561628e-04
6.80000000e-02	1.98654488e-02	7.08432603e-04
6.82500000e-02	2.00418701e-02	7.15180014e-04
6.85000000e-02	2.00981340e-02	7.17510378e-04
6.87500000e-02	2.01406762e-02	7.14086616e-04
6.90000000e-02	2.01001275e-02	6.98887165e-04
6.92500000e-02	2.05098199e-02	7.20483402e-04
6.95000000e-02	2.01909097e-02	7.10537136e-04
6.97500000e-02	1.99222307e-02	6.97865871e-04
7.00000000e-02	1.98787755e-02	6.91032157e-04
7.02500000e-02	1.98111148e-02	6.92535914e-04
7.05000000e-02	1.99038836e-02	6.92486512e-04
7.07500000e-02	1.99816016e-02	6.98607574e-04
7.10000000e-02	1.94937684e-02	6.76343804e-04
7.12500000e-02	2.03148175e-02	7.01060727e-04
7.15000000e-02	1.99860619e-02	6.88276599e-04
7.17500000e-02	1.95873970e-02	6.79490800e-04
7.20000000e-02	1.93882129e-02	6.78270472e-04
7.22500000e-02	2.01678066e-02	6.97063636e-04
7.25000000e-02	2.01619292e-02	6.98230720e-04
7.27500000e-02	1.99718049e-02	6.93742271e-04
7.30000000e-02	1.96203446e-02	6.74283971e-04
7.32500000e-02	1.98359691e-02	6.77716438e-04
7.35000000e-02	2.00380153e-02	6.90879140e-04
7.37500000e-02	2.04663120e-02	6.93361920e-04
7.40000000e-02	2.02809008e-02	6.93629041e-04
7.42500000e-02	2.02343488e-02	6.93267860e-04
7.45000000e-02	1.98369455e-02	6.77752648e-04
7.47500000e-02	1.97176410e-02	6.73487525e-04
7.50000000e-02	1.98194875e-02	6.69338395e-04
7.52500000e-02	1.99534277e-02	6.79002129e-04
7.55000000e-02	1.90247613e-02	6.51163625e-04
7.57500000e-02	2.00315639e-02	6.74838009e-04
7.60000000e-02	1.97656655e-02	6.66287831e-04
7.62500000e-02	1.95460509e-02	6.62234244e-04
7.65000000e-02	1.98396436e-02	6.69026558e-04
7.67500000e-02	1.97042242e-02	6.60688095e-04
7.70000000e-02	1.97470948e-02	6.66447318e-04
7.72500000e-02	2.02344020e-02	6.92406259e-04
7.75000000e-02	1.97100468e-02	6.82477221e-04
7.77500000e-02	1.99337716e-02	6.93064394e-04
7.80000000e-02	2.02634824e-02	7.08757534e-04
7.82500000e-02	1.99725076e-02	7.06905544e-04
7.85000000e-02	1.94729172e-02	6.89264280e-04
7.87500000e-02	2.00270051e-02	7.09979589e-04
7.90000000e-02	2.01285297e-02	7.16428649e-04
7.92500000e-02	2.00231541e-02	7.15782211e-04
7.95000000e-02	2.00691765e-02	7.16187800e-04
7.97500000e-02	1.95003887e-02	7.03895624e-04
8.00000000e-02	1.94833601e-02	7.00980973e-04
8.02500000e-02	2.00089643e-02	7.23348956e-04
8.05000000e-02	1.99473404e-02	7.11213012e-04
8.07500000e-02	2.04654715e-02	7.45015914e-04
8.10000000e-02	2.01346199e-02	7.24847762e-04
8.12500000e-02	2.03655839e-02	7.37120764e-04
8.15000000e-02	1.97809225e-02	7.13114383e-04
8.17500000e-02	2.02112077e-02	7.31789157e-04
8.20000000e-02	1.95774867e-02	7.14515482e-04
8.22500000e-02	1.99468107e-02	7.31581164e-04
8.25000000e-02	1.99520864e-02	7.29961555e-04
8.27500000e-02	1.96722395e-02	7.19087669e-04
8.30000000e-02	2.01823399e-02	7.37257818e-04
8.32500000e-02	1.95382332e-02	7.13853622e-04
8.35000000e-02	2.03936950e-02	7.58451133e-04
8.37500000e-02	2.02063926e-02	7.30753834e-04
8.40000000e-02	2.01025391e-02	7.37746847e-04
8.42500000e-02	1.92465499e-02	7.13554041e-04
8.45000000e-02	1.96521640e-02	7.30849251e-04
8.47500000e-02	1.98042504e-02	7.35937821e-04
8.50000000e-02	1.98549777e-02	7.30529752e-04
8.52500000e-02	1.92693372e-02	7.19082472e-04
8.55000000e-02	1.94794793e-02	7.19500939e-04
8.57500000e-02	1.99024207e-02	7.41993319e-04
8.60000000e-02	1.96984314e-02	7.35194410e-04
8.62500000e-02	1.97936738e-02	7.29926199e-04
8.65000000e-02	1.98153818e-02	7.35416783e-04
8.67500000e-02	1.98495208e-02	7.33178054e-04
8.70000000e-02	1.97461951e-02	7.19384397e-04
8.72500000e-02	1.96725093e-02	7.02746175e-04
8.75000000e-02	2.04788152e-02	7.24639198e-04
8.77500000e-02	1.97513596e-02	6.96603038e-04
8.80000000e-02	1.95179718e-02	6.86441021e-04
8.82500000e-02	1.94406173e-02	6.80957111e-04
8.85000000e-02	1.91423863e-02	6.73172254e-04
8.87500000e-02	1.95637145e-02	6.68333139e-04
8.90000000e-02	1.99975434e-02	6.96101959e-04
8.92500000e-02	1.92244733e-02	6.64897549e-04
8.95000000e-02	2.06123739e-02	7.05108180e-04
8.97500000e-02	1.96806669e-02	6.69992464e-04
9.00000000e-02	2.00010366e-02	6.78859854e-04
9.02500000e-02	1.93460426e-02	6.61494160e-04
9.05000000e-02	1.96140056e-02	6.70175281e-04
9.07500000e-02	1.95354645e-02	6.58554733e-04
9.10000000e-02	1.94684295e-02	6.56887291e-04
9.12500000e-02	1.96592663e-02	6.62173671e-04
9.15000000e-02	1.96817430e-02	6.60452681e-04
9.17500000e-02	1.97210626e-02	6.61179773e-04
9.20000000e-02	1.95108348e-02	6.50457130e-04
9.22500000e-02	1.97217530e-02	6.59682263e-04
9.25000000e-02	2.01139569e-02	6.65292537e-04
9.27500000e-02	1.94550474e-02	6.50895672e-04
9.30000000e-02	1.96060934e-02	6.47305421e-04
9.32500000e-02	1.98639020e-02	6.54241391e-04
9.35000000e-02	1.98527088e-02	6.52369390e-04
9.37500000e-02	1.97287480e-02	6.46022921e-04
9.40000000e-02	1.98654563e-02	6.54885201e-04
9.42500000e-02	1.99395356e-02	6.55989765e-04
9.45000000e-02	1.95906463e-02	6.39188871e-04
9.47500000e-02	2.03062703e-02	6.60514479e-04
9.50000000e-02	1.90860045e-02	6.21922210e-04
9.52500000e-02	1.99737498e-02	6.47878669e-04
9.55000000e-02	1.95168506e-02	6.37864648e-04
9.57500000e-02	2.00957697e-02	6.54148631e-04
9.60000000e-02	1.96317923e-02	6.39325407e-04
9.62500000e-02	2.00070989e-02	6.43617596e-04
9.65000000e-02	1.95840602e-02	6.33714020e-04
9.67500000e-02	1.96072328e-02	6.33923533e-04
9.70000000e-02	1.98130938e-02	6.39278283e-04
9.72500000e-02	1.98344092e-02	6.39333712e-04
9.75000000e-02	1.93940798e-02	6.21394438e-04
9.77500000e-02	1.96149719e-02	6.24636487e-04
9.80000000e-02	1.97257501e-02	6.30815004e-04
9.82500000e-02	2.00187790e-02	6.39032069e-04
9.85000000e-02	1.96352308e-02	6.20027261e-04
9.87500000e-02	1.95556130e-02	6.19836334e-04
9.90000000e-02	1.99780368e-02	6.34476882e-04
9.92500000e-02	1.99539250e-02	6.33665054e-04
9.95000000e-02	1.95270943e-02	6.16927456e-04
9.97500000e-02	1.96038304e-02	6.22812931e-04
1.00000000e-01	1.94031155e-02	5.01176239e-04
1.00500000e-01	1.98210869e-02	4.42644083e-04
1.01000000e-01	1.95775116e-02	4.32884576e-04
1.01500000e-01	1.95184250e-02	4.35183886e-04
1.02000000e-01	1.96338276e-02	4.33583147e-04
1.02500000e-01	1.95967470e-02	4.29944657e-04
1.03000000e-01	1.98879405e-02	4.38165303e-04
1.03500000e-01	1.95780584e-02	4.28220191e-04
1.04000000e-01	1.95765712e-02	4.28322786e-04
1.04500000e-01	1.93270784e-02	4.23557835e-04
1.05000000e-01	1.93721403e-02	4.19376311e-04
1.05500000e-01	1.99708865e-02	4.32077801e-04
1.06000000e-01	1.99320526e-02	4.29893502e-04
1.06500000e-01	1.93243632e-02	4.16170340e-04
1.07000000e-01	1.98914248e-02	4.34935669e-04
1.07500000e-01	1.93583267e-02	4.30122780e-04
1.08000000e-01	1.99353044e-02	4.44387563e-04
1.08500000e-01	1.97528234e-02	4.45442527e-04
1.09000000e-01	1.94170756e-02	4.40390561e-04
1.09500000e-01	1.96653459e-02	4.48519606e-04
1.10000000e-01	1.96161900e-02	4.41427378e-04
1.10500000e-01	1.99386102e-02	4.40433048e-04
1.11000000e-01	1.97425873e-02	4.28191233e-04
1.11500000e-01	1.95190230e-02	4.21462336e-04
1.12000000e-01	2.00318438e-02	4.25212867e-04
1.12500000e-01	1.96435738e-02	4.17462250e-04
1.13000000e-01	1.98878259e-02	4.22607679e-04
1.13500000e-01	1.98814210e-02	4.19074424e-04
1.14000000e-01	1.94779139e-02	4.08944936e-04
1.14500000e-01	1.99985087e-02	4.17309715e-04
1.15000000e-01	1.97470429e-02	4.11453418e-04
1.15500000e-01	1.97259865e-02	4.10951592e-04
1.16000000e-01	1.99793098e-02	4.15783599e-04
1.16500000e-01	1.96277297e-02	4.07406042e-04
1.17000000e-01	1.99691565e-02	4.14152998e-04
1.17500000e-01	1.98149727e-02	4.09767731e-04
1.18000000e-01	1.94533836e-02	4.03635588e-04
1.18500000e-01	1.97034918e-02	4.02795971e-04
1.19000000e-01	1.96331992e-02	4.02842193e-04
1.19500000e-01	1.96822727e-02	4.01410573e-04
1.20000000e-01	1.93771532e-02	3.96623511e-04
1.20500000e-01	1.94034968e-02	3.95746764e-04
1.21000000e-01	1.97075489e-02	4.00637141e-04
1.21500000e-01	1.94937536e-02	3.96098685e-04
1.22000000e-01	1.94266585e-02	3.93322203e-04
1.22500000e-01	1.97374343e-02	3.96757108e-04
1.23000000e-01	1.95220723e-02	3.92826205e-04
1.23500000e-01	1.97318604e-02	3.98459551e-04
1.24000000e-01	1.95999429e-02	3.94600693e-04
1.24500000e-01	1.93398825e-02	3.87961175e-04
1.25000000e-01	1.95964478e-02	3.93139466e-04
1.25500000e-01	1.95371812e-02	3.89578355e-04
1.26000000e-01	1.96800041e-02	3.90336026e-04
1.26500000e-01	1.97114478e-02	3.89191256e-04
1.27000000e-01	1.94499397e-02	3.84509318e-04
1.27500000e-01	1.94950714e-02	3.85824503e-04
1.28000000e-01	1.95952290e-02	3.84814993e-04
1.28500000e-01	1.96669481e-02	3.87660862e-04
1.29000000e-01	1.97752665e-02	3.87722822e-04
1.29500000e-01	1.94694417e-02	3.81736536e-04
1.30000000e-01	1.96233246e-02	3.84337409e-04
1.30500000e-01	1.96829874e-02	3.84379922e-04
1.31000000e-01	1.92135443e-02	3.73033809e-04
1.31500000e-01	1.96729828e-02	3.82757632e-04
1.32000000e-01	1.96760997e-02	3.80820510e-04
1.32500000e-01	1.97643289e-02	3.82067624e-04
1.33000000e-01	1.92751326e-02	3.75372736e-04
1.33500000e-01	1.93802417e-02	3.72742881e-04
1.34000000e-01	1.99241324e-02	3.82008130e-04
1.34500000e-01	1.94685584e-02	3.71373724e-04
1.35000000e-01	1.98196417e-02	3.77437526e-04
1.35500000e-01	1.96015789e-02	3.71861434e-04
1.36000000e-01	1.94665088e-02	3.68811812e-04
1.36500000e-01	1.97254898e-02	3.75818396e-04
1.37000000e-01	1.95819616e-02	3.70026760e-04
1.37500000e-01	1.96167658e-02	3.70283338e-04
1.38000000e-01	1.97183322e-02	3.71940506e-04
1.38500000e-01	1.98107667e-02	3.73476611e-04
1.39000000e-01	1.97723916e-02	3.73076519e-04
1.39500000e-01	1.96868280e-02	3.70102681e-04
1.40000000e-01	1.95982811e-02	3.70860374e-04
1.40500000e-01	1.96935089e-02	3.69623118e-04
1.41000000e-01	1.96484632e-02	3.67894411e-04
1.41500000e-01	1.94013075e-02	3.64316272e-04
1.42000000e-01	1.95551305e-02	3.64372773e-04
1.42500000e-01	1.91684153e-02	3.59568418e-04
1.43000000e-01	1.91199649e-02	3.58296288e-04
1.43500000e-01	1.95595639e-02	3.64510053e-04
1.44000000e-01	1.94684676e-02	3.62536745e-04
1.44500000e-01	1.94042879e-02	3.60525022e-04
1.45000000e-01	1.93103171e-02	3.57419012e-04
1.45500000e-01	1.94531405e-02	3.59294039e-04
1.46000000e-01	1.94039247e-02	3.58155105e-04
1.46500000e-01	1.94121167e-02	3.59127186e-04
1.47000000e-01	1.93422393e-02	3.55983290e-04
1.47500000e-01	1.93390521e-02	3.54994248e-04
1.48000000e-01	1.91695889e-02	3.52913133e-04
1.48500000e-01	1.96431734e-02	3.59277930e-04
1.49000000e-01	1.93492460e-02	3.53760530e-04
1.49500000e-01	1.91770978e-02	3.51730459e-04
1.50000000e-01	1.93917907e-02	3.51580109e-04
1.50500000e-01	1.94543347e-02	3.55008214e-04
1.51000000e-01	1.91995193e-02	3.48057346e-04
1.51500000e-01	1.93678633e-02	3.50009074e-04
1.52000000e-01	1.91364309e-02	3.45273492e-04
1.52500000e-01	1.92651685e-02	3.47532641e-04
1.53000000e-01	1.92434759e-02	3.48458378e-04
1.53500000e-01	1.95092631e-02	3.50214617e-04
1.54000000e-01	1.92356645e-02	3.45932885e-04
1.54500000e-01	1.94483505e-02	3.54290912e-04
1.55000000e-01	1.91217334e-02	3.55089309e-04
1.55500000e-01	1.91231529e-02	3.56024108e-04
1.56000000e-01	1.90757461e-02	3.59114834e-04
1.56500000e-01	1.93139892e-02	3.60477178e-04
1.57000000e-01	1.92179104e-02	3.61512754e-04
1.57500000e-01	1.92397622e-02	3.54625607e-04
1.58000000e-01	1.90259110e-02	3.45015189e-04
1.58500000e-01	1.91907479e-02	3.45246868e-04
1.59000000e-01	1.90561109e-02	3.42973877e-04
1.59500000e-01	1.91939110e-02	3.44101390e-04
1.60000000e-01	1.91989110e-02	3.43604956e-04
1.60500000e-01	1.90850061e-02	3.39523680e-04
1.61000000e-01	1.88644354e-02	3.37520700e-04
1.61500000e-01	1.89497997e-02	3.36089440e-04
1.62000000e-01	1.89875334e-02	3.36973899e-04
1.62500000e-01	1.89430406e-02	3.36248720e-04
1.63000000e-01	1.89520199e-02	3.33621574e-04
1.63500000e-01	1.92311386e-02	3.41474303e-04
1.64000000e-01	1.90876959e-02	3.34196638e-04
1.64500000e-01	1.88476474e-02	3.30234287e-04
1.65000000e-01	1.90209486e-02	3.32926354e-04
1.65500000e-01	1.91294493e-02	3.34546944e-04
1.66000000e-01	1.88918548e-02	3.31256222e-04
1.66500000e-01	1.89738402e-02	3.31193942e-04
1.67000000e-01	1.89160460e-02	3.29449852e-04
1.67500000e-01	1.89232345e-02	3.29202396e-04
1.68000000e-01	1.89184431e-02	3.28986701e-04
1.68500000e-01	1.89750748e-02	3.28475553e-04
1.69000000e-01	1.87890527e-02	3.26575929e-04
1.69500000e-01	1.87047117e-02	3.21888208e-04
1.70000000e-01	1.90379648e-02	3.28178808e-04
1.70500000e-01	1.87379169e-02	3.23057530e-04
1.71000000e-01	1.86929019e-02	3.22837331e-04
1.71500000e-01	1.87258128e-02	3.23013443e-04
1.72000000e-01	1.89299759e-02	3.26137126e-04
1.72500000e-01	1.88010627e-02	3.22441468e-04
1.73000000e-01	1.89126737e-02	3.22918036e-04
1.73500000e-01	1.89363486e-02	3.21916659e-04
1.74000000e-01	1.86904540e-02	3.18742384e-04
1.74500000e-01	1.87877021e-02	3.17810173e-04
1.75000000e-01	1.89257195e-02	3.19032059e-04
1.75500000e-01	1.86300393e-02	3.14344780e-04
1.76000000e-01	1.85950149e-02	3.13466705e-04
1.76500000e-01	1.87455060e-02	3.16373546e-04
1.77000000e-01	1.86859996e-02	3.13843847e-04
1.77500000e-01	1.88361277e-02	3.16936836e-04
1.78000000e-01	1.86844103e-02	3.13407388e-04
1.78500000e-01	1.90603463e-02	3.19258548e-04
1.79000000e-01	1.86363515e-02	3.13369519e-04
1.79500000e-01	1.87783615e-02	3.15850174e-04
1.80000000e-01	1.86209942e-02	3.13260520e-04
1.80500000e-01	1.84473014e-02	3.09497380e-04
1.81000000e-01	1.87344245e-02	3.14347107e-04
1.81500000e-01	1.85315433e-02	3.08728375e-04
1.82000000e-01	1.86886607e-02	3.12703361e-04
1.82500000e-01	1.85952688e-02	3.09466743e-04
1.83000000e-01	1.86236793e-02	3.09021526e-04
1.83500000e-01	1.86595507e-02	3.10230456e-04
1.84000000e-01	1.84645557e-02	3.07715279e-04
1.84500000e-01	1.87922740e-02	3.10767824e-04
1.85000000e-01	1.85381058e-02	3.07972569e-04
1.85500000e-01	1.86681886e-02	3.08455535e-04
1.86000000e-01	1.84842742e-02	3.06153607e-04
1.86500000e-01	1.83970970e-02	3.03540339e-04
1.87000000e-01	1.86106642e-02	3.07787982e-04
1.87500000e-01	1.84897572e-02	3.05232182e-04
1.88000000e-01	1.81562258e-02	2.99601436e-04
1.88500000e-01	1.84944259e-02	3.03773466e-04
1.89000000e-01	1.87004162e-02	3.06352734e-04
1.89500000e-01	1.84149706e-02	3.02628507e-04
1.90000000e-01	1.85877858e-02	3.04010423e-04
1.90500000e-01	1.85895422e-02	3.03908057e-04
1.91000000e-01	1.84286309e-02	3.00290019e-04
1.91500000e-01	1.83486456e-02	3.00017959e-04
1.92000000e-01	1.84283905e-02	2.99687136e-04
1.92500000e-01	1.84805841e-02	3.00321732e-04
1.93000000e-01	1.86334174e-02	3.00942915e-04
1.93500000e-01	1.85057635e-02	2.98734902e-04
1.94000000e-01	1.81807202e-02	2.94121154e-04
1.94500000e-01	1.83992112e-02	2.97862199e-04
1.95000000e-01	1.85063564e-02	2.98323084e-04
1.95500000e-01	1.82808620e-02	2.93740235e-04
1.96000000e-01	1.85416036e-02	2.99466136e-04
1.96500000e-01	1.81244960e-02	2.92829219e-04
1.97000000e-01	1.83484330e-02	2.95920097e-04
1.97500000e-01	1.81561545e-02	2.90481878e-04
1.98000000e-01	1.84179493e-02	2.95349155e-04
1.98500000e-01	1.80559472e-02	2.87879883e-04
1.99000000e-01	1.83369532e-02	2.93005545e-04
1.99500000e-01	1.84853689e-02	2.94255476e-04
2.00000000e-01	1.83918236e-02	2.93207849e-04
2.00500000e-01	1.82752354e-02	2.91425113e-04
2.01000000e-01	1.82723258e-02	2.90887988e-04
2.01500000e-01	1.81563961e-02	2.89075477e-04
2.02000000e-01	1.84386291e-02	2.91809152e-04
2.02500000e-01	1.81421699e-02	2.86024228e-04
2.03000000e-01	1.82078218e-02	2.89786711e-04
2.03500000e-01	1.80171559e-02	2.84312558e-04
2.04000000e-01	1.83116905e-02	2.90124717e-04
2.04500000e-01	1.81589461e-02	2.86615698e-04
2.05000000e-01	1.80881773e-02	2.85110868e-04
2.05500000e-01	1.81095335e-02	2.86583982e-04
2.06000000e-01	1.81781798e-02	2.85941972e-04
2.06500000e-01	1.83444754e-02	2.88475068e-04
2.07000000e-01	1.82621668e-02	2.86308779e-04
2.07500000e-01	1.83237159e-02	2.87298772e-04
2.08000000e-01	1.81423710e-02	2.84270350e-04
2.08500000e-01	1.83093292e-02	2.84984543e-04
2.09000000e-01	1.80081157e-02	2.82856855e-04
2.09500000e-01	1.80296720e-02	2.81235002e-04
2.10000000e-01	1.80713765e-02	2.82174805e-04
2.10500000e-01	1.83387943e-02	2.85523429e-04
2.11000000e-01	1.81109143e-02	2.82007279e-04
2.11500000e-01	1.80296625e-02	2.79956736e-04
2.12000000e-01	1.82291522e-02	2.82230672e-04
2.12500000e-01	1.77820152e-02	2.75979031e-04
2.13000000e-01	1.78255832e-02	2.77194834e-04
2.13500000e-01	1.79631690e-02	2.78477407e-04
2.14000000e-01	1.80585221e-02	2.78991373e-04
2.14500000e-01	1.81583768e-02	2.78689158e-04
2.15000000e-01	1.81585693e-02	2.80148283e-04
2.15500000e-01	1.77053435e-02	2.73446823e-04
2.16000000e-01	1.81371085e-02	2.78280814e-04
2.16500000e-01	1.81025064e-02	2.77556650e-04
2.17000000e-01	1.80080972e-02	2.81993395e-04
2.17500000e-01	1.80331276e-02	2.84745960e-04
2.18000000e-01	1.80225531e-02	2.85318884e-04
2.18500000e-01	1.79010828e-02	2.86856334e-04
2.19000000e-01	1.80377860e-02	2.88583844e-04
2.19500000e-01	1.78194252e-02	2.85971523e-04
2.20000000e-01	1.80914463e-02	2.91891134e-04
2.20500000e-01	1.78678904e-02	2.90638330e-04
2.21000000e-01	1.78436538e-02	2.90915987e-04
2.21500000e-01	1.78282058e-02	2.92568765e-04
2.22000000e-01	1.79092328e-02	2.91395944e-04
2.22500000e-01	1.78770295e-02	2.91855546e-04
2.23000000e-01	1.81214407e-02	2.95461629e-04
2.23500000e-01	1.81062092e-02	2.96483502e-04
2.24000000e-01	1.77875527e-02	2.94237548e-04
2.24500000e-01	1.78085863e-02	2.93710370e-04
2.25000000e-01	1.78493725e-02	2.95464114e-04
2.25500000e-01	1.77164134e-02	2.94253244e-04
2.26000000e-01	1.78772853e-02	2.97675975e-04
2.26500000e-01	1.79769466e-02	2.93134109e-04
2.27000000e-01	1.79648814e-02	2.90856662e-04
2.27500000e-01	1.80197535e-02	2.89055334e-04
2.28000000e-01	1.80088956e-02	2.87393985e-04
2.28500000e-01	1.79496459e-02	2.84708453e-04
2.29000000e-01	1.80052157e-02	2.85429686e-04
2.29500000e-01	1.79259538e-02	2.82483868e-04
2.30000000e-01	1.80338745e-02	2.83495433e-04
2.30500000e-01	1.76020440e-02	2.76385932e-04
2.31000000e-01	1.76417938e-02	2.76059206e-04
2.31500000e-01	1.77969382e-02	2.77851877e-04
2.32000000e-01	1.77520682e-02	2.76272443e-04
2.32500000e-01	1.79033535e-02	2.77370435e-04
2.33000000e-01	1.78414400e-02	2.76430273e-04
2.33500000e-01	1.75734742e-02	2.72029514e-04
2.34000000e-01	1.80583200e-02	2.78921145e-04
2.34500000e-01	1.79687507e-02	2.76158279e-04
2.35000000e-01	1.77759216e-02	2.74120919e-04
2.35500000e-01	1.77663648e-02	2.72420618e-04
2.36000000e-01	1.79177828e-02	2.74195357e-04
2.36500000e-01	1.75484915e-02	2.68232793e-04
2.37000000e-01	1.76980352e-02	2.70822128e-04
2.37500000e-01	1.76193405e-02	2.69247006e-04
2.38000000e-01	1.77576776e-02	2.69578498e-04
2.38500000e-01	1.77379426e-02	2.69208387e-04
2.39000000e-01	1.76512721e-02	2.66711118e-04
2.39500000e-01	1.77902807e-02	2.68927599e-04
2.40000000e-01	1.76243002e-02	2.65823062e-04
2.40500000e-01	1.75544765e-02	2.64212869e-04
2.41000000e-01	1.76916457e-02	2.67773322e-04
2.41500000e-01	1.76684701e-02	2.65296525e-04
2.42000000e-01	1.78224526e-02	2.66972827e-04
2.42500000e-01	1.75235572e-02	2.62654091e-04
2.43000000e-01	1.77976992e-02	2.67084504e-04
2.43500000e-01	1.75878745e-02	2.62516838e-04
2.44000000e-01	1.74309015e-02	2.61869629e-04
2.44500000e-01	1.76076438e-02	2.61862526e-04
2.45000000e-01	1.75867929e-02	2.60710451e-04
2.45500000e-01	1.76077630e-02	2.61576887e-04
2.46000000e-01	1.77013661e-02	2.62723813e-04
2.46500000e-01	1.75340252e-02	2.59633311e-04
2.47000000e-01	1.75626093e-02	2.60214232e-04
2.47500000e-01	1.77691505e-02	2.62121031e-04
2.48000000e-01	1.75155499e-02	2.59882337e-04
2.48500000e-01	1.73724746e-02	2.55551510e-04
2.49000000e-01	1.76511055e-02	2.60430033e-04
2.49500000e-01	1.73262921e-02	2.55471080e-04
2.50000000e-01	1.74167569e-02	2.56481963e-04
2.50500000e-01	1.76265658e-02	2.59299439e-04
2.51000000e-01	1.74852369e-02	2.56191963e-04
2.51500000e-01	1.75516616e-02	2.58593146e-04
2.52000000e-01	1.73506887e-02	2.53685474e-04
2.52500000e-01	1.74699539e-02	2.54418007e-04
2.53000000e-01	1.73602329e-02	2.55207389e-04
2.53500000e-01	1.72713209e-02	2.53080932e-04
2.54000000e-01	1.74833331e-02	2.54974156e-04
2.54500000e-01	1.74508081e-02	2.55049104e-04
2.55000000e-01	1.74965956e-02	2.55250995e-04
2.55500000e-01	1.74385550e-02	2.53883683e-04
2.56000000e-01	1.72472777e-02	2.50021806e-04
2.56500000e-01	1.74577131e-02	2.53631929e-04
2.57000000e-01	1.73818432e-02	2.51946832e-04
2.57500000e-01	1.75002962e-02	2.53207919e-04
2.58000000e-01	1.73075229e-02	2.49979788e-04
2.58500000e-01	1.75054849e-02	2.53255786e-04
2.59000000e-01	1.72313107e-02	2.49383871e-04
2.59500000e-01	1.73104584e-02	2.49200975e-04
2.60000000e-01	1.73223402e-02	2.49458098e-04
2.60500000e-01	1.72536559e-02	2.49175320e-04
2.61000000e-01	1.73238827e-02	2.48269109e-04
2.61500000e-01	1.72637247e-02	2.48182287e-04
2.62000000e-01	1.72484710e-02	2.47303054e-04
2.62500000e-01	1.70294459e-02	2.45419900e-04
2.63000000e-01	1.73315410e-02	2.47993759e-04
2.63500000e-01	1.74132015e-02	2.48238247e-04
2.64000000e-01	1.73256223e-02	2.47272656e-04
2.64500000e-01	1.73516740e-02	2.47075468e-04
2.65000000e-01	1.72917734e-02	2.47698459e-04
2.65500000e-01	1.72202330e-02	2.45097204e-04
2.66000000e-01	1.71696087e-02	2.44349086e-04
2.66500000e-01	1.73522390e-02	2.46802111e-04
2.67000000e-01	1.72276289e-02	2.44984069e-04
2.67500000e-01	1.73415967e-02	2.45263583e-04
2.68000000e-01	1.71075280e-02	2.41769414e-04
2.68500000e-01	1.70637248e-02	2.41744441e-04
2.69000000e-01	1.71653495e-02	2.43194502e-04
2.69500000e-01	1.70675892e-02	2.40390618e-04
2.70000000e-01	1.72362129e-02	2.43019057e-04
2.70500000e-01	1.73221406e-02	2.44022662e-04
2.71000000e-01	1.72655117e-02	2.42208250e-04
2.71500000e-01	1.72382760e-02	2.42525476e-04
2.72000000e-01	1.71922042e-02	2.40380130e-04
2.72500000e-01	1.71355196e-02	2.41405071e-04
2.73000000e-01	1.70397585e-02	2.39341148e-04
2.73500000e-01	1.70819401e-02	2.39842073e-04
2.74000000e-01	1.72939766e-02	2.41291773e-04
2.74500000e-01	1.72451646e-02	2.40315409e-04
2.75000000e-01	1.71903507e-02	2.40328121e-04
2.75500000e-01	1.71386846e-02	2.39304913e-04
2.76000000e-01	1.70340524e-02	2.37744250e-04
2.76500000e-01	1.69692669e-02	2.37045354e-04
2.77000000e-01	1.70552505e-02	2.37310726e-04
2.77500000e-01	1.68736298e-02	2.36163976e-04
2.78000000e-01	1.72830089e-02	2.38818451e-04
2.78500000e-01	1.70846605e-02	2.36802876e-04
2.79000000e-01	1.71698162e-02	2.37994953e-04
2.79500000e-01	1.71257070e-02	2.37582250e-04
2.80000000e-01	1.70332364e-02	2.35046615e-04
2.80500000e-01	1.69605360e-02	2.33992530e-04
2.81000000e-01	1.70494961e-02	2.35242658e-04
2.81500000e-01	1.71582554e-02	2.37376350e-04
2.82000000e-01	1.69824086e-02	2.33756517e-04
2.82500000e-01	1.70024371e-02	2.35131288e-04
2.83000000e-01	1.69616640e-02	2.33296661e-04
2.83500000e-01	1.68101250e-02	2.30689397e-04
2.84000000e-01	1.67238202e-02	2.30390470e-04
2.84500000e-01	1.67686121e-02	2.30752940e-04
2.85000000e-01	1.70793581e-02	2.34569709e-04
2.85500000e-01	1.68690132e-02	2.31313604e-04
2.86000000e-01	1.71068311e-02	2.34260125e-04
2.86500000e-01	1.68095005e-02	2.30621959e-04
2.87000000e-01	1.70641065e-02	2.33930148e-04
2.87500000e-01	1.70447995e-02	2.31519475e-04
2.88000000e-01	1.68742256e-02	2.29981677e-04
2.88500000e-01	1.68205710e-02	2.29433390e-04
2.89000000e-01	1.69460721e-02	2.30863924e-04
2.89500000e-01	1.69247918e-02	2.30601863e-04
2.90000000e-01	1.68957495e-02	2.28579622e-04
2.90500000e-01	1.69042014e-02	2.29625333e-04
2.91000000e-01	1.68103079e-02	2.28338576e-04
2.91500000e-01	1.68961244e-02	2.28394532e-04
2.92000000e-01	1.68971683e-02	2.28171064e-04
2.92500000e-01	1.68965998e-02	2.28041028e-04
2.93000000e-01	1.66677575e-02	2.25697466e-04
2.93500000e-01	1.69775912e-02	2.28865941e-04
2.94000000e-01	1.69465876e-02	2.27722201e-04
2.94500000e-01	1.66425955e-02	2.24991225e-04
2.95000000e-01	1.67342920e-02	2.24775034e-04
2.95500000e-01	1.69753653e-02	2.28371833e-04
2.96000000e-01	1.67685622e-02	2.25788351e-04
2.96500000e-01	1.68844356e-02	2.26188758e-04
2.97000000e-01	1.69785646e-02	2.27298886e-04
2.97500000e-01	1.66903138e-02	2.24116100e-04
2.98000000e-01	1.65718937e-02	2.22880559e-04
2.98500000e-01	1.67769861e-02	2.25939489e-04
2.99000000e-01	1.65658043e-02	2.22058683e-04
2.99500000e-01	1.68280941e-02	2.25489382e-04
3.00000000e-01	1.67379695e-02	2.23795547e-04
3.00500000e-01	1.67508047e-02	2.23220388e-04
3.01000000e-01	1.65991644e-02	2.21840009e-04
3.01500000e-01	1.68718805e-02	2.24992933e-04
3.02000000e-01	1.67974297e-02	2.23498760e-04
3.02500000e-01	1.67372024e-02	2.22578706e-04
3.03000000e-01	1.67597614e-02	2.23184770e-04
3.03500000e-01	1.65621270e-02	2.19584222e-04
3.04000000e-01	1.67752732e-02	2.23151669e-04
3.04500000e-01	1.67191310e-02	2.21513347e-04
3.05000000e-01	1.65918857e-02	2.20535882e-04
3.05500000e-01	1.66849463e-02	2.20889694e-04
3.06000000e-01	1.65404997e-02	2.17750075e-04
3.06500000e-01	1.67274488e-02	2.22053378e-04
3.07000000e-01	1.66221417e-02	2.19407115e-04
3.07500000e-01	1.65773226e-02	2.18807462e-04
3.08000000e-01	1.67234019e-02	2.19518004e-04
3.08500000e-01	1.65782374e-02	2.18189295e-04
3.09000000e-01	1.64734660e-02	2.16929341e-04
3.09500000e-01	1.66110710e-02	2.18471094e-04
3.10000000e-01	1.66113905e-02	2.17859002e-04
3.10500000e-01	1.65101588e-02	2.16953190e-04
3.11000000e-01	1.65090339e-02	2.17079283e-04
3.11500000e-01	1.65940886e-02	2.17545915e-04
3.12000000e-01	1.66473417e-02	2.18191737e-04
3.12500000e-01	1.64778709e-02	2.16045334e-04
3.13000000e-01	1.65089685e-02	2.15664925e-04
3.13500000e-01	1.65589690e-02	2.16492030e-04
3.14000000e-01	1.65468609e-02	2.16453802e-04
3.14500000e-01	1.65637108e-02	2.16866897e-04
3.15000000e-01	1.65181675e-02	2.15464938e-04
3.15500000e-01	1.64868060e-02	2.14422508e-04
3.16000000e-01	1.66080249e-02	2.16736428e-04
3.16500000e-01	1.62844036e-02	2.12527031e-04
3.17000000e-01	1.64260299e-02	2.13596091e-04
3.17500000e-01	1.63549551e-02	2.13594266e-04
3.18000000e-01	1.63834682e-02	2.13374123e-04
3.18500000e-01	1.65348123e-02	2.15180514e-04
3.19000000e-01	1.64633515e-02	2.13147955e-04
3.19500000e-01	1.63514978e-02	2.11825744e-04
3.20000000e-01	1.65935876e-02	2.14928246e-04
3.20500000e-01	1.63930188e-02	2.11841363e-04
3.21000000e-01	1.63351131e-02	2.11651522e-04
3.21500000e-01	1.64092759e-02	2.11640609e-04
3.22000000e-01	1.62829272e-02	2.10586060e-04
3.22500000e-01	1.62564119e-02	2.10012296e-04
3.23000000e-01	1.61925789e-02	2.09889843e-04
3.23500000e-01	1.63848657e-02	2.11314416e-04
3.24000000e-01	1.64367687e-02	2.10773817e-04
3.24500000e-01	1.64087236e-02	2.12259342e-04
3.25000000e-01	1.62228250e-02	2.08466964e-04
3.25500000e-01	1.64200082e-02	2.10588072e-04
3.26000000e-01	1.62559444e-02	2.08898364e-04
3.26500000e-01	1.63361566e-02	2.09369619e-04
3.27000000e-01	1.60524618e-02	2.06417130e-04
3.27500000e-01	1.63636185e-02	2.09433510e-04
3.28000000e-01	1.65053329e-02	2.11329247e-04
3.28500000e-01	1.61029700e-02	2.05738457e-04
3.29000000e-01	1.62603536e-02	2.07576081e-04
3.29500000e-01	1.62770999e-02	2.09011498e-04
3.30000000e-01	1.61891353e-02	2.05841001e-04
3.30500000e-01	1.62116059e-02	2.07019345e-04
3.31000000e-01	1.61074475e-02	2.05255762e-04
3.31500000e-01	1.62568896e-02	2.07743867e-04
3.32000000e-01	1.60052166e-02	2.04400971e-04
3.32500000e-01	1.60788839e-02	2.04323664e-04
3.33000000e-01	1.60189311e-02	2.04183648e-04
3.33500000e-01	1.62856492e-02	2.06261008e-04
3.34000000e-01	1.61188602e-02	2.05063557e-04
3.34500000e-01	1.60613235e-02	2.03906995e-04
3.35000000e-01	1.60309011e-02	2.03118500e-04
3.35500000e-01	1.60369765e-02	2.02580727e-04
3.36000000e-01	1.61096065e-02	2.03884384e-04
3.36500000e-01	1.60914030e-02	2.03538050e-04
3.37000000e-01	1.62213158e-02	2.04286102e-04
3.37500000e-01	1.60403324e-02	2.02254501e-04
3.38000000e-01	1.60656805e-02	2.04350526e-04
3.38500000e-01	1.61482016e-02	2.03406615e-04
3.39000000e-01	1.59316405e-02	2.00669592e-04
3.39500000e-01	1.60396351e-02	2.01499029e-04
3.40000000e-01	1.61490153e-02	2.03706647e-04
3.40500000e-01	1.61442748e-02	2.02706978e-04
3.41000000e-01	1.61504054e-02	2.02433312e-04
3.41500000e-01	1.62494129e-02	2.04584552e-04
3.42000000e-01	1.58441709e-02	1.98812839e-04
3.42500000e-01	1.59920243e-02	2.00741467e-04
3.43000000e-01	1.58859138e-02	1.99259933e-04
3.43500000e-01	1.59743256e-02	1.99431315e-04
3.44000000e-01	1.59757992e-02	2.00201851e-04
3.44500000e-01	1.59430288e-02	1.99667197e-04
3.45000000e-01	1.58738187e-02	1.99228213e-04
3.45500000e-01	1.57268408e-02	1.96689025e-04
3.46000000e-01	1.60324661e-02	2.00492711e-04
3.46500000e-01	1.59459121e-02	1.98748167e-04
3.47000000e-01	1.59811478e-02	1.98066235e-04
3.47500000e-01	1.59144512e-02	1.98663626e-04
3.48000000e-01	1.58974751e-02	1.98391256e-04
3.48500000e-01	1.56840995e-02	1.95616028e-04
3.49000000e-01	1.58416457e-02	1.96922736e-04
3.49500000e-01	1.58123976e-02	1.96913974e-04
3.50000000e-01	1.60430873e-02	1.62398216e-04
3.51000000e-01	1.59760346e-02	1.40265009e-04
3.52000000e-01	1.58544533e-02	1.38913013e-04
3.53000000e-01	1.57035435e-02	1.37239276e-04
3.54000000e-01	1.58548396e-02	1.38103644e-04
3.55000000e-01	1.57644159e-02	1.37579254e-04
3.56000000e-01	1.58221586e-02	1.38710392e-04
3.57000000e-01	1.58524256e-02	1.40937732e-04
3.58000000e-01	1.56498734e-02	1.40877006e-04
3.59000000e-01	1.55099004e-02	1.40700745e-04
3.60000000e-01	1.56808630e-02	1.42947521e-04
3.61000000e-01	1.57346465e-02	1.44047410e-04
3.62000000e-01	1.56850345e-02	1.44107996e-04
3.63000000e-01	1.56103152e-02	1.44035387e-04
3.64000000e-01	1.56458374e-02	1.44730547e-04
3.65000000e-01	1.55206779e-02	1.44237564e-04
3.66000000e-01	1.56026767e-02	1.43121807e-04
3.67000000e-01	1.55351839e-02	1.40458384e-04
3.68000000e-01	1.56315414e-02	1.40512910e-04
3.69000000e-01	1.55886375e-02	1.39634534e-04
3.70000000e-01	1.56124523e-02	1.38853039e-04
3.71000000e-01	1.55571906e-02	1.40200093e-04
3.72000000e-01	1.55861561e-02	1.41535562e-04
3.73000000e-01	1.55079751e-02	1.40967263e-04
3.74000000e-01	1.55771971e-02	1.41646688e-04
3.75000000e-01	1.55158576e-02	1.41031758e-04
3.76000000e-01	1.54540716e-02	1.40919285e-04
3.77000000e-01	1.54560747e-02	1.40964702e-04
3.78000000e-01	1.54330579e-02	1.40633864e-04
3.79000000e-01	1.54992036e-02	1.40588676e-04
3.80000000e-01	1.54095395e-02	1.39842328e-04
3.81000000e-01	1.54385017e-02	1.40484908e-04
3.82000000e-01	1.53981077e-02	1.40314120e-04
3.83000000e-01	1.54223716e-02	1.40460201e-04
3.84000000e-01	1.54777433e-02	1.40841787e-04
3.85000000e-01	1.52608615e-02	1.38763018e-04
3.86000000e-01	1.54893022e-02	1.40580384e-04
3.87000000e-01	1.54533606e-02	1.40170275e-04
3.88000000e-01	1.54362825e-02	1.40334630e-04
3.89000000e-01	1.52207047e-02	1.38015201e-04
3.90000000e-01	1.53779511e-02	1.39219058e-04
3.91000000e-01	1.54053057e-02	1.39388850e-04
3.92000000e-01	1.51996794e-02	1.37827753e-04
3.93000000e-01	1.51950666e-02	1.37746908e-04
3.94000000e-01	1.51179682e-02	1.37109502e-04
3.95000000e-01	1.52267719e-02	1.38071213e-04
3.96000000e-01	1.52902234e-02	1.38464850e-04
3.97000000e-01	1.51989731e-02	1.37700935e-04
3.98000000e-01	1.52304289e-02	1.38020569e-04
3.99000000e-01	1.52095957e-02	1.37705154e-04
4.00000000e-01	1.50036152e-02	1.36350085e-04
4.01000000e-01	1.51949293e-02	1.37751291e-04
4.02000000e-01	1.51665179e-02	1.37313929e-04
4.03000000e-01	1.50928456e-02	1.36894436e-04
4.04000000e-01	1.51485882e-02	1.37203706e-04
4.05000000e-01	1.50376526e-02	1.36167101e-04
4.06000000e-01	1.50232186e-02	1.36000556e-04
4.07000000e-01	1.49421486e-02	1.35447943e-04
4.08000000e-01	1.49855631e-02	1.35750513e-04
4.09000000e-01	1.49276728e-02	1.35123742e-04
4.10000000e-01	1.48994223e-02	1.35213416e-04
4.11000000e-01	1.51023382e-02	1.36234279e-04
4.12000000e-01	1.49325730e-02	1.35107631e-04
4.13000000e-01	1.49347821e-02	1.35134964e-04
4.14000000e-01	1.50251955e-02	1.35787094e-04
4.15000000e-01	1.50232435e-02	1.35126453e-04
4.16000000e-01	1.48662631e-02	1.34342207e-04
4.17000000e-01	1.49680031e-02	1.35316377e-04
4.18000000e-01	1.48936648e-02	1.35928473e-04
4.19000000e-01	1.50019687e-02	1.38367038e-04
4.20000000e-01	1.50336198e-02	1.39149068e-04
4.21000000e-01	1.49431125e-02	1.39365382e-04
4.22000000e-01	1.50156926e-02	1.40178755e-04
4.23000000e-01	1.50478893e-02	1.41480416e-04
4.24000000e-01	1.50285898e-02	1.41072212e-04
4.25000000e-01	1.50093213e-02	1.41269964e-04
4.26000000e-01	1.49300656e-02	1.40769910e-04
4.27000000e-01	1.50088115e-02	1.41269688e-04
4.28000000e-01	1.48511342e-02	1.40284913e-04
4.29000000e-01	1.48518751e-02	1.40343082e-04
4.30000000e-01	1.50728532e-02	1.42283177e-04
4.31000000e-01	1.49851387e-02	1.41348635e-04
4.32000000e-01	1.49520693e-02	1.41312818e-04
4.33000000e-01	1.50330217e-02	1.42101339e-04
4.34000000e-01	1.48217485e-02	1.40315090e-04
4.35000000e-01	1.48257733e-02	1.40673232e-04
4.36000000e-01	1.48439553e-02	1.41220081e-04
4.37000000e-01	1.47171497e-02	1.39654276e-04
4.38000000e-01	1.46877963e-02	1.40096358e-04
4.39000000e-01	1.48774364e-02	1.41735591e-04
4.40000000e-01	1.47343318e-02	1.40907197e-04
4.41000000e-01	1.47594606e-02	1.40855388e-04
4.42000000e-01	1.47424724e-02	1.41190902e-04
4.43000000e-01	1.48340996e-02	1.42369165e-04
4.44000000e-01	1.48389673e-02	1.42200885e-04
4.45000000e-01	1.48588386e-02	1.42725012e-04
4.46000000e-01	1.47112521e-02	1.41624058e-04
4.47000000e-01	1.47596632e-02	1.41844454e-04
4.48000000e-01	1.46426228e-02	1.41381336e-04
4.49000000e-01	1.47415492e-02	1.41717137e-04
4.50000000e-01	1.47385405e-02	1.42388294e-04
4.51000000e-01	1.45581154e-02	1.40963175e-04
4.52000000e-01	1.45686630e-02	1.41481323e-04
4.53000000e-01	1.47671363e-02	1.43115219e-04
4.54000000e-01	1.47621278e-02	1.42694038e-04
4.55000000e-01	1.46637699e-02	1.42503658e-04
4.56000000e-01	1.47662208e-02	1.43188324e-04
4.57000000e-01	1.45488998e-02	1.41317787e-04
4.58000000e-01	1.46561252e-02	1.42608945e-04
4.59000000e-01	1.45236514e-02	1.41437711e-04
4.60000000e-01	1.48249544e-02	1.44049296e-04
4.61000000e-01	1.45768222e-02	1.41912388e-04
4.62000000e-01	1.45451274e-02	1.41907123e-04
4.63000000e-01	1.47573363e-02	1.43938754e-04
4.64000000e-01	1.45313543e-02	1.41638124e-04
4.65000000e-01	1.44390107e-02	1.41452431e-04
4.66000000e-01	1.45347286e-02	1.42569156e-04
4.67000000e-01	1.46059481e-02	1.42841397e-04
4.68000000e-01	1.45289609e-02	1.42719557e-04
4.69000000e-01	1.45969881e-02	1.42862409e-04
4.70000000e-01	1.44749686e-02	1.41825934e-04
4.71000000e-01	1.45439157e-02	1.42761336e-04
4.72000000e-01	1.45136390e-02	1.42743797e-04
4.73000000e-01	1.45480186e-02	1.42701591e-04
4.74000000e-01	1.44425564e-02	1.41409631e-04
4.75000000e-01	1.44411623e-02	1.41740694e-04
4.76000000e-01	1.44237912e-02	1.41308405e-04
4.77000000e-01	1.45660722e-02	1.42625574e-04
4.78000000e-01	1.43068364e-02	1.40756796e-04
4.79000000e-01	1.43131848e-02	1.40701911e-04
4.80000000e-01	1.44608556e-02	1.42199369e-04
4.81000000e-01	1.43168147e-02	1.40596264e-04
4.82000000e-01	1.44231023e-02	1.41416361e-04
4.83000000e-01	1.44266553e-02	1.41926203e-04
4.84000000e-01	1.42649669e-02	1.41069613e-04
4.85000000e-01	1.44529892e-02	1.42653525e-04
4.86000000e-01	1.43687258e-02	1.41873328e-04
4.87000000e-01	1.43594999e-02	1.41718409e-04
4.88000000e-01	1.42051880e-02	1.40477891e-04
4.89000000e-01	1.43865354e-02	1.42072062e-04
4.90000000e-01	1.43966144e-02	1.42314493e-04
4.91000000e-01	1.43104998e-02	1.41637554e-04
4.92000000e-01	1.43882190e-02	1.42223209e-04
4.93000000e-01	1.43841640e-02	1.42338015e-04
4.94000000e-01	1.42173895e-02	1.41334818e-04
4.95000000e-01	1.43269795e-02	1.42975657e-04
4.96000000e-01	1.42468976e-02	1.46226438e-04
4.97000000e-01	1.42627145e-02	1.48842079e-04
4.98000000e-01	1.42857073e-02	1.51462960e-04
4.99000000e-01	1.42833360e-02	1.53719277e-04
5.00000000e-01	1.42986027e-02	1.54971935e-04
5.01000000e-01	1.41288479e-02	1.54960933e-04
5.02000000e-01	1.41995305e-02	1.57317395e-04
5.03000000e-01	1.42383671e-02	1.59045514e-04
5.04000000e-01	1.44187111e-02	1.62328076e-04
5.05000000e-01	1.41877047e-02	1.56823558e-04
5.06000000e-01	1.42645012e-02	1.54735148e-04
5.07000000e-01	1.42338917e-02	1.52946475e-04
5.08000000e-01	1.43218054e-02	1.52824093e-04
5.09000000e-01	1.42982991e-02	1.51943713e-04
5.10000000e-01	1.42816858e-02	1.50999073e-04
5.11000000e-01	1.41328608e-02	1.49351093e-04
5.12000000e-01	1.40458632e-02	1.47980890e-04
5.13000000e-01	1.42992039e-02	1.50596542e-04
5.14000000e-01	1.41439795e-02	1.48200210e-04
5.15000000e-01	1.42910121e-02	1.49376256e-04
5.16000000e-01	1.41142724e-02	1.47227413e-04
5.17000000e-01	1.41250816e-02	1.47397330e-04
5.18000000e-01	1.39634946e-02	1.45727323e-04
5.19000000e-01	1.40879199e-02	1.45888195e-04
5.20000000e-01	1.41347847e-02	1.46585467e-04
5.21000000e-01	1.40099291e-02	1.44591925e-04
5.22000000e-01	1.41967941e-02	1.46510934e-04
5.23000000e-01	1.38974242e-02	1.43873976e-04
5.24000000e-01	1.40199550e-02	1.45128411e-04
5.25000000e-01	1.39255601e-02	1.43662385e-04
5.26000000e-01	1.39276028e-02	1.43940338e-04
5.27000000e-01	1.40181449e-02	1.44709810e-04
5.28000000e-01	1.40029402e-02	1.44495980e-04
5.29000000e-01	1.40798970e-02	1.45699001e-04
5.30000000e-01	1.39985971e-02	1.44638111e-04
5.31000000e-01	1.40444077e-02	1.45516702e-04
5.32000000e-01	1.39098988e-02	1.43863850e-04
5.33000000e-01	1.39266489e-02	1.43829442e-04
5.34000000e-01	1.40142207e-02	1.45506413e-04
5.35000000e-01	1.39295190e-02	1.43832442e-04
5.36000000e-01	1.39639879e-02	1.44518227e-04
5.37000000e-01	1.39383875e-02	1.44460024e-04
5.38000000e-01	1.40199558e-02	1.44359127e-04
5.39000000e-01	1.39672348e-02	1.44145880e-04
5.40000000e-01	1.39395800e-02	1.44081222e-04
5.41000000e-01	1.39630130e-02	1.43841012e-04
5.42000000e-01	1.37508344e-02	1.42395279e-04
5.43000000e-01	1.37742509e-02	1.42378566e-04
5.44000000e-01	1.38554853e-02	1.43005275e-04
5.45000000e-01	1.37759788e-02	1.42062469e-04
5.46000000e-01	1.39183394e-02	1.43941050e-04
5.47000000e-01	1.37871679e-02	1.42540027e-04
5.48000000e-01	1.38779331e-02	1.43240256e-04
5.49000000e-01	1.36052345e-02	1.40506429e-04
5.50000000e-01	1.37723062e-02	1.42434690e-04
5.51000000e-01	1.37043659e-02	1.41361028e-04
5.52000000e-01	1.37509808e-02	1.41033801e-04
5.53000000e-01	1.37815064e-02	1.41912789e-04
5.54000000e-01	1.37040679e-02	1.40747608e-04
5.55000000e-01	1.36827388e-02	1.40254515e-04
5.56000000e-01	1.35129150e-02	1.38942611e-04
5.57000000e-01	1.37396448e-02	1.41101605e-04
5.58000000e-01	1.37180295e-02	1.40830697e-04
5.59000000e-01	1.35890971e-02	1.39477758e-04
5.60000000e-01	1.38718520e-02	1.42710243e-04
5.61000000e-01	1.36494792e-02	1.40516550e-04
5.62000000e-01	1.35874249e-02	1.39607192e-04
5.63000000e-01	1.35944868e-02	1.40152459e-04
5.64000000e-01	1.37020590e-02	1.40439773e-04
5.65000000e-01	1.37611352e-02	1.41348351e-04
5.66000000e-01	1.35287060e-02	1.39345869e-04
5.67000000e-01	1.35801436e-02	1.39459616e-04
5.68000000e-01	1.36767110e-02	1.40236793e-04
5.69000000e-01	1.35315968e-02	1.38656319e-04
5.70000000e-01	1.34467122e-02	1.37897817e-04
5.71000000e-01	1.35518147e-02	1.39462661e-04
5.72000000e-01	1.35490609e-02	1.38991975e-04
5.73000000e-01	1.33923893e-02	1.37776578e-04
5.74000000e-01	1.34718932e-02	1.38695782e-04
5.75000000e-01	1.33740914e-02	1.37958937e-04
5.76000000e-01	1.35356423e-02	1.39386237e-04
5.77000000e-01	1.34225570e-02	1.38093421e-04
5.78000000e-01	1.34753374e-02	1.39203839e-04
5.79000000e-01	1.33638049e-02	1.37906541e-04
5.80000000e-01	1.33941652e-02	1.38567873e-04
5.81000000e-01	1.33136913e-02	1.37481886e-04
5.82000000e-01	1.34835214e-02	1.39101133e-04
5.83000000e-01	1.32995927e-02	1.37349797e-04
5.84000000e-01	1.34138492e-02	1.38720265e-04
5.85000000e-01	1.33985162e-02	1.38458633e-04
5.86000000e-01	1.35922695e-02	1.39905300e-04
5.87000000e-01	1.32785697e-02	1.37248363e-04
5.88000000e-01	1.33583479e-02	1.37758156e-04
5.89000000e-01	1.33515324e-02	1.37951195e-04
5.90000000e-01	1.32765289e-02	1.37347635e-04
5.91000000e-01	1.33208901e-02	1.37744027e-04
5.92000000e-01	1.32377786e-02	1.37107127e-04
5.93000000e-01	1.33247164e-02	1.37677329e-04
5.94000000e-01	1.32486666e-02	1.37532017e-04
5.95000000e-01	1.33848077e-02	1.38523213e-04
5.96000000e-01	1.34338330e-02	1.38898279e-04
5.97000000e-01	1.33629065e-02	1.37922814e-04
5.98000000e-01	1.33586895e-02	1.38587835e-04
5.99000000e-01	1.33347111e-02	1.37967865e-04
6.00000000e-01	1.31768128e-02	1.36880293e-04
6.01000000e-01	1.33744388e-02	1.38525988e-04
6.02000000e-01	1.31971808e-02	1.36892513e-04
6.03000000e-01	1.31299691e-02	1.35922393e-04
6.04000000e-01	1.31551164e-02	1.36283876e-04
6.05000000e-01	1.33057987e-02	1.37405994e-04
6.06000000e-01	1.31592639e-02	1.36613382e-04
6.07000000e-01	1.31692546e-02	1.36485278e-04
6.08000000e-01	1.32178073e-02	1.37245905e-04
6.09000000e-01	1.30367857e-02	1.35781145e-04
6.10000000e-01	1.31394154e-02	1.36111454e-04
6.11000000e-01	1.31155127e-02	1.35969730e-04
6.12000000e-01	1.31848499e-02	1.36900844e-04
6.13000000e-01	1.30985582e-02	1.35770918e-04
6.14000000e-01	1.31860931e-02	1.36821855e-04
6.15000000e-01	1.31070006e-02	1.35918100e-04
6.16000000e-01	1.31059062e-02	1.36034081e-04
6.17000000e-01	1.31402416e-02	1.36703369e-04
6.18000000e-01	1.32085603e-02	1.37184525e-04
6.19000000e-01	1.32284237e-02	1.37313080e-04
6.20000000e-01	1.30332047e-02	1.35400500e-04
6.21000000e-01	1.30574625e-02	1.35389843e-04
6.22000000e-01	1.30686561e-02	1.35029043e-04
6.23000000e-01	1.31096040e-02	1.35455714e-04
6.24000000e-01	1.30741096e-02	1.35083591e-04
6.25000000e-01	1.31237019e-02	1.35636854e-04
6.26000000e-01	1.30648267e-02	1.34730018e-04
6.27000000e-01	1.31277085e-02	1.34841506e-04
6.28000000e-01	1.30430268e-02	1.34815021e-04
6.29000000e-01	1.29176573e-02	1.33707365e-04
6.30000000e-01	1.29820665e-02	1.34226890e-04
6.31000000e-01	1.29436713e-02	1.33546878e-04
6.32000000e-01	1.30856000e-02	1.34870268e-04
6.33000000e-01	1.30434278e-02	1.34470270e-04
6.34000000e-01	1.29271352e-02	1.36793846e-04
6.35000000e-01	1.29617021e-02	1.41706412e-04
6.36000000e-01	1.30407828e-02	1.44005799e-04
6.37000000e-01	1.30034967e-02	1.46221892e-04
6.38000000e-01	1.30268141e-02	1.48161558e-04
6.39000000e-01	1.31171539e-02	1.51089519e-04
6.40000000e-01	1.31061345e-02	1.53572229e-04
6.41000000e-01	1.30738422e-02	1.54312124e-04
6.42000000e-01	1.30893741e-02	1.56678027e-04
6.43000000e-01	1.30455665e-02	1.56122925e-04
6.44000000e-01	1.30822457e-02	1.50509273e-04
6.45000000e-01	1.32122173e-02	1.49303777e-04
6.46000000e-01	1.30872077e-02	1.47235228e-04
6.47000000e-01	1.30512714e-02	1.45328683e-04
6.48000000e-01	1.29140337e-02	1.43879748e-04
6.49000000e-01	1.30586392e-02	1.44267347e-04
6.50000000e-01	1.29548573e-02	1.42091425e-04
6.51000000e-01	1.29492822e-02	1.41775128e-04
6.52000000e-01	1.29790012e-02	1.41710941e-04
6.53000000e-01	1.31338983e-02	1.42241506e-04
6.54000000e-01	1.30286625e-02	1.41029101e-04
6.55000000e-01	1.30201025e-02	1.40773152e-04
6.56000000e-01	1.29732714e-02	1.40533711e-04
6.57000000e-01	1.29400383e-02	1.39653013e-04
6.58000000e-01	1.29483883e-02	1.39501340e-04
6.59000000e-01	1.29940090e-02	1.39876776e-04
6.60000000e-01	1.29988350e-02	1.39443840e-04
6.61000000e-01	1.29323444e-02	1.38366151e-04
6.62000000e-01	1.29152422e-02	1.38865312e-04
6.63000000e-01	1.28672555e-02	1.38169600e-04
6.64000000e-01	1.29889641e-02	1.39035928e-04
6.65000000e-01	1.27955988e-02	1.37294392e-04
6.66000000e-01	1.29325251e-02	1.38971418e-04
6.67000000e-01	1.29369591e-02	1.38858403e-04
6.68000000e-01	1.29821115e-02	1.38219210e-04
6.69000000e-01	1.29129260e-02	1.38142964e-04
6.70000000e-01	1.29100494e-02	1.37905267e-04
6.71000000e-01	1.27673475e-02	1.36792482e-04
6.72000000e-01	1.28798401e-02	1.37663151e-04
6.73000000e-01	1.29333993e-02	1.37973767e-04
6.74000000e-01	1.27972459e-02	1.36794990e-04
6.75000000e-01	1.29450802e-02	1.38377219e-04
6.76000000e-01	1.27556729e-02	1.36204804e-04
6.77000000e-01	1.28359004e-02	1.36918638e-04
6.78000000e-01	1.28488009e-02	1.37112310e-04
6.79000000e-01	1.27598618e-02	1.36213609e-04
6.80000000e-01	1.27520414e-02	1.35866624e-04
6.81000000e-01	1.28076241e-02	1.36543122e-04
6.82000000e-01	1.27563195e-02	1.36651862e-04
6.83000000e-01	1.27718071e-02	1.36345104e-04
6.84000000e-01	1.27833448e-02	1.36573911e-04
6.85000000e-01	1.26657282e-02	1.35178632e-04
6.86000000e-01	1.27059424e-02	1.35747429e-04
6.87000000e-01	1.27740802e-02	1.36060741e-04
6.88000000e-01	1.26472080e-02	1.35038407e-04
6.89000000e-01	1.26556994e-02	1.34514191e-04
6.90000000e-01	1.28079284e-02	1.36435581e-04
6.91000000e-01	1.28108129e-02	1.35937173e-04
6.92000000e-01	1.26073513e-02	1.34237241e-04
6.93000000e-01	1.25615494e-02	1.34348588e-04
6.94000000e-01	1.26709652e-02	1.34575358e-04
6.95000000e-01	1.27123013e-02	1.34967016e-04
6.96000000e-01	1.26264028e-02	1.34446018e-04
6.97000000e-01	1.27296646e-02	1.35243963e-04
6.98000000e-01	1.27255912e-02	1.35350491e-04
6.99000000e-01	1.27631691e-02	1.35946399e-04
7.00000000e-01	1.26327630e-02	1.34454155e-04
7.01000000e-01	1.25276702e-02	1.33134065e-04
7.02000000e-01	1.26253314e-02	1.34563386e-04
7.03000000e-01	1.25653201e-02	1.33642757e-04
7.04000000e-01	1.25502255e-02	1.33524835e-04
7.05000000e-01	1.25568259e-02	1.33815129e-04
7.06000000e-01	1.26554705e-02	1.34891519e-04
7.07000000e-01	1.26102936e-02	1.33652091e-04
7.08000000e-01	1.24891204e-02	1.32194455e-04
7.09000000e-01	1.24031477e-02	1.31944525e-04
7.10000000e-01	1.24693759e-02	1.32850080e-04
7.11000000e-01	1.25200751e-02	1.33331521e-04
7.12000000e-01	1.24930262e-02	1.32697536e-04
7.13000000e-01	1.24625306e-02	1.32555254e-04
7.14000000e-01	1.24259174e-02	1.32528533e-04
7.15000000e-01	1.24896544e-02	1.33396650e-04
7.16000000e-01	1.23656122e-02	1.32037325e-04
7.17000000e-01	1.23534596e-02	1.31695624e-04
7.18000000e-01	1.24787935e-02	1.33320150e-04
7.19000000e-01	1.22824890e-02	1.30972456e-04
7.20000000e-01	1.23292386e-02	1.31059205e-04
7.21000000e-01	1.23161625e-02	1.31341608e-04
7.22000000e-01	1.23007112e-02	1.31055071e-04
7.23000000e-01	1.23476592e-02	1.31960089e-04
7.24000000e-01	1.23483002e-02	1.31737781e-04
7.25000000e-01	1.23961596e-02	1.32041354e-04
7.26000000e-01	1.23406927e-02	1.31381101e-04
7.27000000e-01	1.23895468e-02	1.32153322e-04
7.28000000e-01	1.21217194e-02	1.29599055e-04
7.29000000e-01	1.22842434e-02	1.30789332e-04
7.30000000e-01	1.22412075e-02	1.30694994e-04
7.31000000e-01	1.22573138e-02	1.31006856e-04
7.32000000e-01	1.20801337e-02	1.29004075e-04
7.33000000e-01	1.22551069e-02	1.30243132e-04
7.34000000e-01	1.20726662e-02	1.28734236e-04
7.35000000e-01	1.23452289e-02	1.31506292e-04
7.36000000e-01	1.21983647e-02	1.29715243e-04
7.37000000e-01	1.22212218e-02	1.29880626e-04
7.38000000e-01	1.22090668e-02	1.29646902e-04
7.39000000e-01	1.20598356e-02	1.27434152e-04
7.40000000e-01	1.21562791e-02	1.28502842e-04
7.41000000e-01	1.21420277e-02	1.28361021e-04
7.42000000e-01	1.20050821e-02	1.27170487e-04
7.43000000e-01	1.22035568e-02	1.29063212e-04
7.44000000e-01	1.20628977e-02	1.27421747e-04
7.45000000e-01	1.21317600e-02	1.28231358e-04
7.46000000e-01	1.21694062e-02	1.28042958e-04
7.47000000e-01	1.21598248e-02	1.28086480e-04
7.48000000e-01	1.20134992e-02	1.27016217e-04
7.49000000e-01	1.20697500e-02	1.27387813e-04
7.50000000e-01	1.20854356e-02	1.27994606e-04
7.51000000e-01	1.19915567e-02	1.26543917e-04
7.52000000e-01	1.20715071e-02	1.27791784e-04
7.53000000e-01	1.19205540e-02	1.26103041e-04
7.54000000e-01	1.20021688e-02	1.27032410e-04
7.55000000e-01	1.19552451e-02	1.26571767e-04
7.56000000e-01	1.19731172e-02	1.27188530e-04
7.57000000e-01	1.19228499e-02	1.26416269e-04
7.58000000e-01	1.19665894e-02	1.26563093e-04
7.59000000e-01	1.19198122e-02	1.25725604e-04
7.60000000e-01	1.20136480e-02	1.26979622e-04
7.61000000e-01	1.19911234e-02	1.26738052e-04
7.62000000e-01	1.20731987e-02	1.26863433e-04
7.63000000e-01	1.20087246e-02	1.26091078e-04
7.64000000e-01	1.18954775e-02	1.25244922e-04
7.65000000e-01	1.19287189e-02	1.25368155e-04
7.66000000e-01	1.17956842e-02	1.23989544e-04
7.67000000e-01	1.18229199e-02	1.24297806e-04
7.68000000e-01	1.17977810e-02	1.23380907e-04
7.69000000e-01	1.18144221e-02	1.23854421e-04
7.70000000e-01	1.19344765e-02	1.25188145e-04
7.71000000e-01	1.19447687e-02	1.25220069e-04
7.72000000e-01	1.17986677e-02	1.27775148e-04
7.73000000e-01	1.18439331e-02	1.31628603e-04
7.74000000e-01	1.17679898e-02	1.34575974e-04
7.75000000e-01	1.19264061e-02	1.38131077e-04
7.76000000e-01	1.18051089e-02	1.38864585e-04
7.77000000e-01	1.16886533e-02	1.40094434e-04
7.78000000e-01	1.17406345e-02	1.41396827e-04
7.79000000e-01	1.17587576e-02	1.43821421e-04
7.80000000e-01	1.17025430e-02	1.44945091e-04
7.81000000e-01	1.17290884e-02	1.46583983e-04
7.82000000e-01	1.15456907e-02	1.46151767e-04
7.83000000e-01	1.17450432e-02	1.50581485e-04
7.84000000e-01	1.16986983e-02	1.51325632e-04
7.85000000e-01	1.17561609e-02	1.53775467e-04
7.86000000e-01	1.13928149e-02	1.51486514e-04
7.87000000e-01	1.17037274e-02	1.56754548e-04
7.88000000e-01	1.15934657e-02	1.56226366e-04
7.89000000e-01	1.16197886e-02	1.58101251e-04
7.90000000e-01	1.16279933e-02	1.60161243e-04
7.91000000e-01	1.14846228e-02	1.59753490e-04
7.92000000e-01	1.15900371e-02	1.62201288e-04
7.93000000e-01	1.15818755e-02	1.64568374e-04
7.94000000e-01	1.16393706e-02	1.66327884e-04
7.95000000e-01	1.15281620e-02	1.65758468e-04
7.96000000e-01	1.15077697e-02	1.67779549e-04
7.97000000e-01	1.15654474e-02	1.70295383e-04
7.98000000e-01	1.15469002e-02	1.72783643e-04
7.99000000e-01	1.14080394e-02	1.72250295e-04
8.00000000e-01	1.16073528e-02	1.76577008e-04
8.01000000e-01	1.14892960e-02	1.77485137e-04
8.02000000e-01	1.14344116e-02	1.78612958e-04
8.03000000e-01	1.12964220e-02	1.78790099e-04
8.04000000e-01	1.13170864e-02	1.79516454e-04
8.05000000e-01	1.14330923e-02	1.83377748e-04
8.06000000e-01	1.14794623e-02	1.86580653e-04
8.07000000e-01	1.15123114e-02	1.89089946e-04
8.08000000e-01	1.14743531e-02	1.90020630e-04
8.09000000e-01	1.11922710e-02	1.87862156e-04
8.10000000e-01	1.14885538e-02	1.94974690e-04
8.11000000e-01	1.13464603e-02	1.94499889e-04
8.12000000e-01	1.13331447e-02	1.96989568e-04
8.13000000e-01	1.13716969e-02	1.99885595e-04
8.14000000e-01	1.12831635e-02	2.00056267e-04
8.15000000e-01	1.12174700e-02	2.02804816e-04
8.16000000e-01	1.13501253e-02	2.07252529e-04
8.17000000e-01	1.11996606e-02	2.07558095e-04
8.18000000e-01	1.13047516e-02	2.11844509e-04
8.19000000e-01	1.13154082e-02	2.13202436e-04
8.20000000e-01	1.11773640e-02	2.12505887e-04
8.21000000e-01	1.13656741e-02	2.19428030e-04
8.22000000e-01	1.13291902e-02	2.21579715e-04
8.23000000e-01	1.14070713e-02	2.26221050e-04
8.24000000e-01	1.11725915e-02	2.27948828e-04
8.25000000e-01	1.08924900e-02	2.23029608e-04
8.26000000e-01	1.10730747e-02	2.29742098e-04
8.27000000e-01	1.11143154e-02	2.34745704e-04
8.28000000e-01	1.11888184e-02	2.38068932e-04
8.29000000e-01	1.10666093e-02	2.41884232e-04
8.30000000e-01	1.10074776e-02	2.42926961e-04
8.31000000e-01	1.09287312e-02	2.46602646e-04
8.32000000e-01	1.10061160e-02	2.52854523e-04
8.33000000e-01	1.11582072e-02	2.56256454e-04
8.34000000e-01	1.08905958e-02	2.57029527e-04
8.35000000e-01	1.06152201e-02	2.56763268e-04
8.36000000e-01	1.08932567e-02	2.66883999e-04
8.37000000e-01	1.06519902e-02	2.66536862e-04
8.38000000e-01	1.08619289e-02	2.76031194e-04
8.39000000e-01	1.08987379e-02	2.82737682e-04
8.40000000e-01	1.12733223e-02	2.99096395e-04
8.41000000e-01	1.10688100e-02	3.01100379e-04
8.42000000e-01	1.07365850e-02	2.96593048e-04
8.43000000e-01	1.07068937e-02	3.05727690e-04
8.44000000e-01	1.08263570e-02	3.15850486e-04
8.45000000e-01	1.07403396e-02	3.22775634e-04
8.46000000e-01	1.07064332e-02	3.30809630e-04
8.47000000e-01	1.09881278e-02	3.49916510e-04
8.48000000e-01	1.07136222e-02	3.51968680e-04
8.49000000e-01	1.05987202e-02	3.58093212e-04
8.50000000e-01	1.08547748e-02	3.77406873e-04
8.51000000e-01	1.07725365e-02	3.88672229e-04
8.52000000e-01	1.07759969e-02	4.03184762e-04
8.53000000e-01	1.07619596e-02	4.21271619e-04
8.54000000e-01	1.07485036e-02	4.39645289e-04
8.55000000e-01	1.08414934e-02	4.63428224e-04
8.56000000e-01	1.11773642e-02	4.80084899e-04
8.57000000e-01	1.07650085e-02	4.86720199e-04
8.58000000e-01	1.03394073e-02	4.81530120e-04
8.59000000e-01	1.02525736e-02	4.90311531e-04
8.60000000e-01	9.88521523e-03	4.92235730e-04
8.61000000e-01	1.05621795e-02	5.47255435e-04
8.62000000e-01	1.03666282e-02	5.54041187e-04
8.63000000e-01	1.03361499e-02	5.64911714e-04
8.64000000e-01	1.03120120e-02	5.91279409e-04
8.65000000e-01	9.71961568e-03	5.98482041e-04
8.66000000e-01	1.05658722e-02	6.50963012e-04
8.67000000e-01	9.93726530e-03	6.66801299e-04
8.68000000e-01	1.06060948e-02	7.56414675e-04
8.69000000e-01	1.05202792e-02	8.12461095e-04
8.70000000e-01	1.08175589e-02	9.17837196e-04
8.71000000e-01	1.02360216e-02	9.40538849e-04
8.72000000e-01	1.06984153e-02	1.12724460e-03
8.73000000e-01	1.19074980e-02	1.41633802e-03
8.74000000e-01	1.00481999e-02	1.58621159e-03
8.75000000e-01	1.32244205e-02	4.24456254e-03
