% Filename : SDL7c_00027_00029.h5
% Date & Time : 30-Oct-2025 17:08:03
% X-ray Energy (keV) : 13.30001
% Exposure Time (s) : 0.500
% Beam Center : 1461.24000, 208.98300
% Sample to Detector Distance (SDD) (mm) : 1990.750
% Detector Pixel Size (mm) : 0.075
% Photodiode Value : 141179.000
% I0 of Sample : 0
% I0 of Standard : 1
% 
% q(A^-1)   I(q)    I(q)_SE
0.00000000e+00	7.67821841e-03	4.43302364e-03
2.50000000e-04	0.00000000e+00	0.00000000e+00
5.00000000e-04	0.00000000e+00	0.00000000e+00
7.50000000e-04	0.00000000e+00	0.00000000e+00
1.00000000e-03	0.00000000e+00	0.00000000e+00
1.25000000e-03	0.00000000e+00	0.00000000e+00
1.50000000e-03	0.00000000e+00	0.00000000e+00
1.75000000e-03	0.00000000e+00	0.00000000e+00
2.00000000e-03	0.00000000e+00	0.00000000e+00
2.25000000e-03	0.00000000e+00	0.00000000e+00
2.50000000e-03	0.00000000e+00	0.00000000e+00
2.75000000e-03	0.00000000e+00	0.00000000e+00
3.00000000e-03	0.00000000e+00	0.00000000e+00
3.25000000e-03	2.96666488e+01	2.52175803e+01
3.50000000e-03	6.38076304e+00	4.04312191e+00
3.75000000e-03	3.82297357e+00	2.24333766e+00
4.00000000e-03	2.69629304e+00	1.27347233e+00
4.25000000e-03	1.08368719e+00	2.04928535e-01
4.50000000e-03	1.88038356e+00	6.21789741e-01
4.75000000e-03	2.02103911e+00	6.12631897e-01
5.00000000e-03	1.48702303e+00	4.06475495e-01
5.25000000e-03	1.35878839e+00	3.85945904e-01
5.50000000e-03	1.02470938e+00	2.60804954e-01
5.75000000e-03	8.95386586e-01	2.25943394e-01
6.00000000e-03	7.72144682e-01	1.93028871e-01
6.25000000e-03	6.35110595e-01	1.47264592e-01
6.50000000e-03	5.69192736e-01	1.42610842e-01
6.75000000e-03	4.73347803e-01	1.06627608e-01
7.00000000e-03	4.19167145e-01	9.48941106e-02
7.25000000e-03	3.70989182e-01	8.50583603e-02
7.50000000e-03	3.28015718e-01	7.02081917e-02
7.75000000e-03	2.91355536e-01	6.72595447e-02
8.00000000e-03	2.62946318e-01	5.62838161e-02
8.25000000e-03	2.30068857e-01	4.90559893e-02
8.50000000e-03	2.13685403e-01	4.55795162e-02
8.75000000e-03	1.85415355e-01	3.68136839e-02
9.00000000e-03	1.76712760e-01	3.82260213e-02
9.25000000e-03	1.51258978e-01	3.02104930e-02
9.50000000e-03	1.39252641e-01	2.59793260e-02
9.75000000e-03	1.28799713e-01	2.63381186e-02
1.00000000e-02	1.12406699e-01	2.06235964e-02
1.02500000e-02	1.15623879e-01	2.34097488e-02
1.05000000e-02	1.01904389e-01	1.85780376e-02
1.07500000e-02	9.61281341e-02	1.82108679e-02
1.10000000e-02	8.89088753e-02	1.63609905e-02
1.12500000e-02	7.41646977e-02	1.24065218e-02
1.15000000e-02	7.95576078e-02	1.41949807e-02
1.17500000e-02	7.26474726e-02	1.29318020e-02
1.20000000e-02	7.03640171e-02	1.19700420e-02
1.22500000e-02	6.84510828e-02	1.24507516e-02
1.25000000e-02	6.34960020e-02	1.01271595e-02
1.27500000e-02	6.07635117e-02	1.04816101e-02
1.30000000e-02	5.78863298e-02	9.60889109e-03
1.32500000e-02	5.23760925e-02	7.40414380e-03
1.35000000e-02	5.15147640e-02	7.90411611e-03
1.37500000e-02	4.92309816e-02	6.96892010e-03
1.40000000e-02	4.83298254e-02	6.78485028e-03
1.42500000e-02	4.58341645e-02	6.26805541e-03
1.45000000e-02	4.29123011e-02	5.14529650e-03
1.47500000e-02	4.30337952e-02	5.23202770e-03
1.50000000e-02	4.01866566e-02	4.74775147e-03
1.52500000e-02	3.98241987e-02	4.35288373e-03
1.55000000e-02	3.57652670e-02	3.85133256e-03
1.57500000e-02	3.58571825e-02	3.42043690e-03
1.60000000e-02	3.50932310e-02	4.00898235e-03
1.62500000e-02	3.41154284e-02	3.36970361e-03
1.65000000e-02	3.34350983e-02	2.95957069e-03
1.67500000e-02	3.31938692e-02	3.30072980e-03
1.70000000e-02	3.14970696e-02	2.93333998e-03
1.72500000e-02	3.18317109e-02	2.86559378e-03
1.75000000e-02	3.02417637e-02	2.47480592e-03
1.77500000e-02	2.96804297e-02	2.49882518e-03
1.80000000e-02	3.04855447e-02	2.53035918e-03
1.82500000e-02	2.90109367e-02	2.16289472e-03
1.85000000e-02	2.96671973e-02	2.42230093e-03
1.87500000e-02	2.92449094e-02	2.19309526e-03
1.90000000e-02	2.83212140e-02	2.19219579e-03
1.92500000e-02	2.60518537e-02	1.88351171e-03
1.95000000e-02	2.63255668e-02	1.88799411e-03
1.97500000e-02	2.81254208e-02	1.89168490e-03
2.00000000e-02	2.63693097e-02	1.49109740e-03
2.02500000e-02	2.65913331e-02	1.65979259e-03
2.05000000e-02	2.61671247e-02	1.75820664e-03
2.07500000e-02	2.66876189e-02	1.62166152e-03
2.10000000e-02	2.56877975e-02	1.58345572e-03
2.12500000e-02	2.51714776e-02	1.62470941e-03
2.15000000e-02	2.49936846e-02	1.54009587e-03
2.17500000e-02	2.42859090e-02	1.51458155e-03
2.20000000e-02	2.46263270e-02	1.45739910e-03
2.22500000e-02	2.52334399e-02	1.49539331e-03
2.25000000e-02	2.49315398e-02	1.46476812e-03
2.27500000e-02	2.39258786e-02	1.35078188e-03
2.30000000e-02	2.52264931e-02	1.41702414e-03
2.32500000e-02	2.44990728e-02	1.32984664e-03
2.35000000e-02	2.40540465e-02	1.33971339e-03
2.37500000e-02	2.41002254e-02	1.35080884e-03
2.40000000e-02	2.45648669e-02	1.32862182e-03
2.42500000e-02	2.29793058e-02	1.25239864e-03
2.45000000e-02	2.34348458e-02	1.24399614e-03
2.47500000e-02	2.42311687e-02	1.30844532e-03
2.50000000e-02	2.38506180e-02	1.30045050e-03
2.52500000e-02	2.38011695e-02	1.26111279e-03
2.55000000e-02	2.36233539e-02	1.23343613e-03
2.57500000e-02	2.32759477e-02	1.18913153e-03
2.60000000e-02	2.25268973e-02	1.15818757e-03
2.62500000e-02	2.31705330e-02	1.21498897e-03
2.65000000e-02	2.28635829e-02	1.14464902e-03
2.67500000e-02	2.29860277e-02	1.16356397e-03
2.70000000e-02	2.18375209e-02	1.13605982e-03
2.72500000e-02	2.34181036e-02	1.17837415e-03
2.75000000e-02	2.35399394e-02	1.20484554e-03
2.77500000e-02	2.27913554e-02	1.16320866e-03
2.80000000e-02	2.17081260e-02	1.06043071e-03
2.82500000e-02	2.28521686e-02	1.12354678e-03
2.85000000e-02	2.34902219e-02	1.15056518e-03
2.87500000e-02	2.33988623e-02	1.16357647e-03
2.90000000e-02	2.30224064e-02	1.15178541e-03
2.92500000e-02	2.39348991e-02	1.14455448e-03
2.95000000e-02	2.32990015e-02	1.17007754e-03
2.97500000e-02	2.21464067e-02	1.09517481e-03
3.00000000e-02	2.32487148e-02	1.12928250e-03
3.02500000e-02	2.28705184e-02	1.11746390e-03
3.05000000e-02	2.32507157e-02	1.09921245e-03
3.07500000e-02	2.31241188e-02	1.11197603e-03
3.10000000e-02	2.33597699e-02	1.12565344e-03
3.12500000e-02	2.31714193e-02	1.11002477e-03
3.15000000e-02	2.41349960e-02	1.16083300e-03
3.17500000e-02	2.38830976e-02	1.12051170e-03
3.20000000e-02	2.32745728e-02	1.10458916e-03
3.22500000e-02	2.39820205e-02	1.12084701e-03
3.25000000e-02	2.35724110e-02	1.13093064e-03
3.27500000e-02	2.34718770e-02	1.10305443e-03
3.30000000e-02	2.23141805e-02	1.04043225e-03
3.32500000e-02	2.22932805e-02	1.04866841e-03
3.35000000e-02	2.24712588e-02	1.05618988e-03
3.37500000e-02	2.21113543e-02	1.03914107e-03
3.40000000e-02	2.24275617e-02	1.04463311e-03
3.42500000e-02	2.32727534e-02	1.07413125e-03
3.45000000e-02	2.26220181e-02	1.05353322e-03
3.47500000e-02	2.24622436e-02	1.03429915e-03
3.50000000e-02	2.24579911e-02	1.03045685e-03
3.52500000e-02	2.22706411e-02	1.01888780e-03
3.55000000e-02	2.24580171e-02	1.01883284e-03
3.57500000e-02	2.16431404e-02	9.91675424e-04
3.60000000e-02	2.23408129e-02	1.01060932e-03
3.62500000e-02	2.21639934e-02	1.01463900e-03
3.65000000e-02	2.23751686e-02	1.01387795e-03
3.67500000e-02	2.15525490e-02	9.70116633e-04
3.70000000e-02	2.14901818e-02	9.75357382e-04
3.72500000e-02	2.17916022e-02	9.73514953e-04
3.75000000e-02	2.17381561e-02	9.80445568e-04
3.77500000e-02	2.11157301e-02	9.47714411e-04
3.80000000e-02	2.10843085e-02	9.41664218e-04
3.82500000e-02	2.17525309e-02	9.75828062e-04
3.85000000e-02	2.15968823e-02	9.65171579e-04
3.87500000e-02	2.10771190e-02	9.23485599e-04
3.90000000e-02	2.11206992e-02	9.42348194e-04
3.92500000e-02	2.15645382e-02	9.43060421e-04
3.95000000e-02	2.13083402e-02	9.33004892e-04
3.97500000e-02	2.10250808e-02	9.28856740e-04
4.00000000e-02	2.18925498e-02	9.62976312e-04
4.02500000e-02	2.14794817e-02	9.51940698e-04
4.05000000e-02	2.23822204e-02	9.65804288e-04
4.07500000e-02	2.13781166e-02	9.24995400e-04
4.10000000e-02	2.13352209e-02	9.33366035e-04
4.12500000e-02	2.13206367e-02	9.23748665e-04
4.15000000e-02	2.19100486e-02	9.37619649e-04
4.17500000e-02	2.10495746e-02	8.96576310e-04
4.20000000e-02	2.17053479e-02	9.26412795e-04
4.22500000e-02	2.12457333e-02	8.99126574e-04
4.25000000e-02	2.12070295e-02	8.97282122e-04
4.27500000e-02	2.06875214e-02	8.73340071e-04
4.30000000e-02	2.05914829e-02	8.77403061e-04
4.32500000e-02	2.13103751e-02	8.99944671e-04
4.35000000e-02	2.05519803e-02	8.80250496e-04
4.37500000e-02	2.08886494e-02	8.80692611e-04
4.40000000e-02	2.07599139e-02	8.80377655e-04
4.42500000e-02	2.04155438e-02	8.62406248e-04
4.45000000e-02	2.15042214e-02	9.04348426e-04
4.47500000e-02	2.13679345e-02	9.02490389e-04
4.50000000e-02	2.05817033e-02	8.66909231e-04
4.52500000e-02	2.09936045e-02	8.78042410e-04
4.55000000e-02	2.18452227e-02	8.99478291e-04
4.57500000e-02	2.10968768e-02	8.71410750e-04
4.60000000e-02	2.10267476e-02	8.65140113e-04
4.62500000e-02	2.10599910e-02	8.78564927e-04
4.65000000e-02	2.07642719e-02	8.59098991e-04
4.67500000e-02	2.09573988e-02	8.58481531e-04
4.70000000e-02	2.11348310e-02	8.64593830e-04
4.72500000e-02	2.10852399e-02	8.70840105e-04
4.75000000e-02	2.14441353e-02	8.80610309e-04
4.77500000e-02	2.10879565e-02	8.63310894e-04
4.80000000e-02	2.05963874e-02	8.41456259e-04
4.82500000e-02	2.07807948e-02	8.46081857e-04
4.85000000e-02	2.07160978e-02	8.50393008e-04
4.87500000e-02	2.05017122e-02	8.30488779e-04
4.90000000e-02	2.05701655e-02	8.24634374e-04
4.92500000e-02	2.05832304e-02	8.33516426e-04
4.95000000e-02	2.07931001e-02	8.37211709e-04
4.97500000e-02	2.05502562e-02	8.38861860e-04
5.00000000e-02	2.11362895e-02	8.56831908e-04
5.02500000e-02	2.03336830e-02	8.14474502e-04
5.05000000e-02	2.05010120e-02	8.23055844e-04
5.07500000e-02	2.04916171e-02	8.25407488e-04
5.10000000e-02	2.06098221e-02	8.28288538e-04
5.12500000e-02	2.07472238e-02	8.28230765e-04
5.15000000e-02	2.02262785e-02	7.96135675e-04
5.17500000e-02	2.01734252e-02	8.10792834e-04
5.20000000e-02	2.10344559e-02	8.29039212e-04
5.22500000e-02	2.03061020e-02	8.16232835e-04
5.25000000e-02	2.06704562e-02	8.13534213e-04
5.27500000e-02	2.09064148e-02	8.16014951e-04
5.30000000e-02	2.05140804e-02	8.12624958e-04
5.32500000e-02	2.07780622e-02	8.16489164e-04
5.35000000e-02	2.13103016e-02	8.30879020e-04
5.37500000e-02	2.09315106e-02	8.18426381e-04
5.40000000e-02	2.07011410e-02	8.08889812e-04
5.42500000e-02	2.00120708e-02	7.84503988e-04
5.45000000e-02	2.10675189e-02	8.16279149e-04
5.47500000e-02	2.03897380e-02	7.91493578e-04
5.50000000e-02	2.07534778e-02	7.96869683e-04
5.52500000e-02	2.04826374e-02	7.86902411e-04
5.55000000e-02	2.03664746e-02	7.80606695e-04
5.57500000e-02	2.03238258e-02	7.93698430e-04
5.60000000e-02	2.02287700e-02	7.77811295e-04
5.62500000e-02	2.01899885e-02	7.75528197e-04
5.65000000e-02	2.08533224e-02	7.93250428e-04
5.67500000e-02	2.08017057e-02	8.01553457e-04
5.70000000e-02	2.05617517e-02	7.82954606e-04
5.72500000e-02	2.02726732e-02	7.75529113e-04
5.75000000e-02	2.08688327e-02	7.87664562e-04
5.77500000e-02	1.95490791e-02	7.40495209e-04
5.80000000e-02	2.06457118e-02	7.82942531e-04
5.82500000e-02	2.10091184e-02	7.91627430e-04
5.85000000e-02	1.98265813e-02	7.52778085e-04
5.87500000e-02	2.00999366e-02	7.54167249e-04
5.90000000e-02	2.07306870e-02	7.79843118e-04
5.92500000e-02	2.01611058e-02	7.62291496e-04
5.95000000e-02	1.93102627e-02	7.30973562e-04
5.97500000e-02	1.99925303e-02	7.49244258e-04
6.00000000e-02	2.00312931e-02	7.53263163e-04
6.02500000e-02	2.03815566e-02	7.60868527e-04
6.05000000e-02	1.98977900e-02	7.40468330e-04
6.07500000e-02	2.01643712e-02	7.52445315e-04
6.10000000e-02	2.04606540e-02	7.58588355e-04
6.12500000e-02	2.04963402e-02	7.61505329e-04
6.15000000e-02	1.99643441e-02	7.40610120e-04
6.17500000e-02	2.07862344e-02	7.63843088e-04
6.20000000e-02	1.96432565e-02	7.31228613e-04
6.22500000e-02	2.04472402e-02	7.45770146e-04
6.25000000e-02	1.98778122e-02	7.40145377e-04
6.27500000e-02	1.99111228e-02	7.29348540e-04
6.30000000e-02	2.00393611e-02	7.31342395e-04
6.32500000e-02	2.09274058e-02	7.61628918e-04
6.35000000e-02	1.98737615e-02	7.29838121e-04
6.37500000e-02	1.98521895e-02	7.29954236e-04
6.40000000e-02	2.02034885e-02	7.36713030e-04
6.42500000e-02	2.05278359e-02	7.34354271e-04
6.45000000e-02	2.08540018e-02	7.54542630e-04
6.47500000e-02	1.98487864e-02	7.22197967e-04
6.50000000e-02	2.00013359e-02	7.27996407e-04
6.52500000e-02	1.98817308e-02	7.15732830e-04
6.55000000e-02	2.04155950e-02	7.37526880e-04
6.57500000e-02	2.00578007e-02	7.27499265e-04
6.60000000e-02	1.98618119e-02	7.14545884e-04
6.62500000e-02	2.11866531e-02	7.54861895e-04
6.65000000e-02	2.06007488e-02	7.31361200e-04
6.67500000e-02	1.95281221e-02	6.97673456e-04
6.70000000e-02	2.04880403e-02	7.36251125e-04
6.72500000e-02	2.02248443e-02	7.18928643e-04
6.75000000e-02	2.05523517e-02	7.19139589e-04
6.77500000e-02	2.00499830e-02	7.07546323e-04
6.80000000e-02	1.99042158e-02	7.06963039e-04
6.82500000e-02	2.00050525e-02	7.05679405e-04
6.85000000e-02	1.99093175e-02	7.09402103e-04
6.87500000e-02	2.03726179e-02	7.13558484e-04
6.90000000e-02	1.96091780e-02	6.90053496e-04
6.92500000e-02	1.99452646e-02	7.06725256e-04
6.95000000e-02	2.00497172e-02	7.10721173e-04
6.97500000e-02	1.99007502e-02	6.99312819e-04
7.00000000e-02	2.06885953e-02	7.26448030e-04
7.02500000e-02	2.01256423e-02	7.02301359e-04
7.05000000e-02	1.97811619e-02	6.93155011e-04
7.07500000e-02	1.98668003e-02	7.02741659e-04
7.10000000e-02	2.00231003e-02	6.96184333e-04
7.12500000e-02	2.04532141e-02	7.10413174e-04
7.15000000e-02	1.94101000e-02	6.75963188e-04
7.17500000e-02	1.98883814e-02	6.93901594e-04
7.20000000e-02	1.99990261e-02	6.92683672e-04
7.22500000e-02	2.05007596e-02	7.09356667e-04
7.25000000e-02	1.89195136e-02	6.55555273e-04
7.27500000e-02	1.98413910e-02	6.87248360e-04
7.30000000e-02	2.03975350e-02	7.04650657e-04
7.32500000e-02	2.04898071e-02	7.03812732e-04
7.35000000e-02	2.06129646e-02	7.04621212e-04
7.37500000e-02	1.96995418e-02	6.80344692e-04
7.40000000e-02	2.04149645e-02	7.01318824e-04
7.42500000e-02	1.93702701e-02	6.69612714e-04
7.45000000e-02	2.02260102e-02	6.93102036e-04
7.47500000e-02	1.96836137e-02	6.67296698e-04
7.50000000e-02	2.00024981e-02	6.82404674e-04
7.52500000e-02	2.00625490e-02	6.88703133e-04
7.55000000e-02	1.94486256e-02	6.61521050e-04
7.57500000e-02	2.00115104e-02	6.81484542e-04
7.60000000e-02	2.05935960e-02	6.92834280e-04
7.62500000e-02	2.02312823e-02	6.89300322e-04
7.65000000e-02	1.98927081e-02	6.67349619e-04
7.67500000e-02	1.97479262e-02	6.64640422e-04
7.70000000e-02	1.94711123e-02	6.51429921e-04
7.72500000e-02	1.97457117e-02	6.70696626e-04
7.75000000e-02	1.97894169e-02	6.87247996e-04
7.77500000e-02	1.95173282e-02	6.78146374e-04
7.80000000e-02	1.97863823e-02	6.87598761e-04
7.82500000e-02	1.98723589e-02	6.91176661e-04
7.85000000e-02	1.98459979e-02	7.06042730e-04
7.87500000e-02	2.00846661e-02	7.07294483e-04
7.90000000e-02	1.96140975e-02	6.97169604e-04
7.92500000e-02	1.97945661e-02	7.01533421e-04
7.95000000e-02	1.98036920e-02	7.07850652e-04
7.97500000e-02	2.00019907e-02	7.13584899e-04
8.00000000e-02	2.02515907e-02	7.21157348e-04
8.02500000e-02	2.09180881e-02	7.47396744e-04
8.05000000e-02	1.99763621e-02	7.17901852e-04
8.07500000e-02	1.96152231e-02	7.15767104e-04
8.10000000e-02	1.90230975e-02	6.91843512e-04
8.12500000e-02	2.02225823e-02	7.36147540e-04
8.15000000e-02	2.00493359e-02	7.23122681e-04
8.17500000e-02	1.99292430e-02	7.30177796e-04
8.20000000e-02	1.99926662e-02	7.28405767e-04
8.22500000e-02	1.99133217e-02	7.27786218e-04
8.25000000e-02	1.99450748e-02	7.27864129e-04
8.27500000e-02	2.01618030e-02	7.31509860e-04
8.30000000e-02	1.98753442e-02	7.31001848e-04
8.32500000e-02	2.02243285e-02	7.38091915e-04
8.35000000e-02	1.97864217e-02	7.31724094e-04
8.37500000e-02	1.92042338e-02	7.06774737e-04
8.40000000e-02	1.99718757e-02	7.35096595e-04
8.42500000e-02	1.99828074e-02	7.41256949e-04
8.45000000e-02	1.99502099e-02	7.40214676e-04
8.47500000e-02	1.95893422e-02	7.21953012e-04
8.50000000e-02	2.04199101e-02	7.49689375e-04
8.52500000e-02	1.99281176e-02	7.39292322e-04
8.55000000e-02	1.97874262e-02	7.32988283e-04
8.57500000e-02	1.98787394e-02	7.44126649e-04
8.60000000e-02	1.95920748e-02	7.30845626e-04
8.62500000e-02	2.01906710e-02	7.50078448e-04
8.65000000e-02	1.98027628e-02	7.31114474e-04
8.67500000e-02	1.97504871e-02	7.27790303e-04
8.70000000e-02	2.01468174e-02	7.32447817e-04
8.72500000e-02	2.00281173e-02	7.17798115e-04
8.75000000e-02	1.96367841e-02	6.96588275e-04
8.77500000e-02	1.98780537e-02	6.96368810e-04
8.80000000e-02	1.97886798e-02	7.02852505e-04
8.82500000e-02	1.97078641e-02	6.86545309e-04
8.85000000e-02	1.99572359e-02	6.98061041e-04
8.87500000e-02	2.01836672e-02	6.94412664e-04
8.90000000e-02	2.03219153e-02	7.09036340e-04
8.92500000e-02	2.01804259e-02	6.89661236e-04
8.95000000e-02	1.99860576e-02	6.81145691e-04
8.97500000e-02	1.94233626e-02	6.57288735e-04
9.00000000e-02	1.94666332e-02	6.59706419e-04
9.02500000e-02	2.02486438e-02	6.86388689e-04
9.05000000e-02	1.96722586e-02	6.62032675e-04
9.07500000e-02	2.00996045e-02	6.79260370e-04
9.10000000e-02	1.96561664e-02	6.64739993e-04
9.12500000e-02	2.01289464e-02	6.68342534e-04
9.15000000e-02	2.03175178e-02	6.76971570e-04
9.17500000e-02	1.94533345e-02	6.54617178e-04
9.20000000e-02	2.01275972e-02	6.68516408e-04
9.22500000e-02	1.97995931e-02	6.60631312e-04
9.25000000e-02	1.96297289e-02	6.51765383e-04
9.27500000e-02	2.00993501e-02	6.70524508e-04
9.30000000e-02	1.95781767e-02	6.46629075e-04
9.32500000e-02	2.00114876e-02	6.60081719e-04
9.35000000e-02	2.00539793e-02	6.57850502e-04
9.37500000e-02	1.96583356e-02	6.44194233e-04
9.40000000e-02	1.98897449e-02	6.53195869e-04
9.42500000e-02	1.96775781e-02	6.46246170e-04
9.45000000e-02	1.93549177e-02	6.37645131e-04
9.47500000e-02	1.97460948e-02	6.50547126e-04
9.50000000e-02	2.00734728e-02	6.52269987e-04
9.52500000e-02	1.96513511e-02	6.36146628e-04
9.55000000e-02	1.92343673e-02	6.22378089e-04
9.57500000e-02	1.98753735e-02	6.44861387e-04
9.60000000e-02	2.00221421e-02	6.45147846e-04
9.62500000e-02	1.94895594e-02	6.28516728e-04
9.65000000e-02	1.96404424e-02	6.31649413e-04
9.67500000e-02	1.99350717e-02	6.40816899e-04
9.70000000e-02	1.99433212e-02	6.39250542e-04
9.72500000e-02	2.02142006e-02	6.49035336e-04
9.75000000e-02	2.00051268e-02	6.44044825e-04
9.77500000e-02	1.99479888e-02	6.38702887e-04
9.80000000e-02	1.96752513e-02	6.28869091e-04
9.82500000e-02	1.99030662e-02	6.37575045e-04
9.85000000e-02	1.99238917e-02	6.33517027e-04
9.87500000e-02	1.97068102e-02	6.25733862e-04
9.90000000e-02	1.95148525e-02	6.16646949e-04
9.92500000e-02	1.99723746e-02	6.34596843e-04
9.95000000e-02	1.96251966e-02	6.21952377e-04
9.97500000e-02	1.93513648e-02	6.10643469e-04
1.00000000e-01	1.94753064e-02	5.02034877e-04
1.00500000e-01	1.94496150e-02	4.31693196e-04
1.01000000e-01	1.97458346e-02	4.36155792e-04
1.01500000e-01	2.00977498e-02	4.44581551e-04
1.02000000e-01	1.98236445e-02	4.37501962e-04
1.02500000e-01	1.94666835e-02	4.28971687e-04
1.03000000e-01	1.94367783e-02	4.27911981e-04
1.03500000e-01	1.95668675e-02	4.29888976e-04
1.04000000e-01	1.94744938e-02	4.24671481e-04
1.04500000e-01	2.00332233e-02	4.37225191e-04
1.05000000e-01	1.94021965e-02	4.21734768e-04
1.05500000e-01	1.97716590e-02	4.27849189e-04
1.06000000e-01	1.97932779e-02	4.29817038e-04
1.06500000e-01	1.94903598e-02	4.19881715e-04
1.07000000e-01	1.97607525e-02	4.31093142e-04
1.07500000e-01	2.00223303e-02	4.43295971e-04
1.08000000e-01	1.97679291e-02	4.39838745e-04
1.08500000e-01	1.96965273e-02	4.44084373e-04
1.09000000e-01	1.97222107e-02	4.47476884e-04
1.09500000e-01	1.94837481e-02	4.46066922e-04
1.10000000e-01	1.93904374e-02	4.36109121e-04
1.10500000e-01	1.96710905e-02	4.33420072e-04
1.11000000e-01	1.98235230e-02	4.29617944e-04
1.11500000e-01	1.98012188e-02	4.27222329e-04
1.12000000e-01	2.00683349e-02	4.26322733e-04
1.12500000e-01	1.96221702e-02	4.16597133e-04
1.13000000e-01	1.97250270e-02	4.19504601e-04
1.13500000e-01	1.95012901e-02	4.13300609e-04
1.14000000e-01	1.95149473e-02	4.11150275e-04
1.14500000e-01	1.97406865e-02	4.13830616e-04
1.15000000e-01	1.97817435e-02	4.13974463e-04
1.15500000e-01	1.95300156e-02	4.09574229e-04
1.16000000e-01	1.98605015e-02	4.12683563e-04
1.16500000e-01	1.96878056e-02	4.09632528e-04
1.17000000e-01	1.94463161e-02	4.05889752e-04
1.17500000e-01	2.00167276e-02	4.12431674e-04
1.18000000e-01	2.00083664e-02	4.13366233e-04
1.18500000e-01	1.96332393e-02	4.05623807e-04
1.19000000e-01	1.95997396e-02	4.03242093e-04
1.19500000e-01	1.96606686e-02	4.02172969e-04
1.20000000e-01	1.97732828e-02	4.03079558e-04
1.20500000e-01	1.94627560e-02	3.97445332e-04
1.21000000e-01	1.96402862e-02	3.97375333e-04
1.21500000e-01	1.95935581e-02	3.97691234e-04
1.22000000e-01	1.97461885e-02	3.99034089e-04
1.22500000e-01	1.97519204e-02	3.97374820e-04
1.23000000e-01	1.94833326e-02	3.94077742e-04
1.23500000e-01	1.96517427e-02	3.93419125e-04
1.24000000e-01	1.92261674e-02	3.86617487e-04
1.24500000e-01	1.95790951e-02	3.92055174e-04
1.25000000e-01	1.95424576e-02	3.91263021e-04
1.25500000e-01	1.96884505e-02	3.92580304e-04
1.26000000e-01	1.98512650e-02	3.94190618e-04
1.26500000e-01	1.96456778e-02	3.90577945e-04
1.27000000e-01	1.98604904e-02	3.90183000e-04
1.27500000e-01	1.98330100e-02	3.91001429e-04
1.28000000e-01	1.93970553e-02	3.80933320e-04
1.28500000e-01	1.94423663e-02	3.82876749e-04
1.29000000e-01	2.00341276e-02	3.92369169e-04
1.29500000e-01	1.96875377e-02	3.85166024e-04
1.30000000e-01	1.97159552e-02	3.85182567e-04
1.30500000e-01	1.95301408e-02	3.81925531e-04
1.31000000e-01	1.97429846e-02	3.85725201e-04
1.31500000e-01	1.98260368e-02	3.84545606e-04
1.32000000e-01	1.98328509e-02	3.84029987e-04
1.32500000e-01	1.95993704e-02	3.77836571e-04
1.33000000e-01	1.92794139e-02	3.72958241e-04
1.33500000e-01	1.96483900e-02	3.75680910e-04
1.34000000e-01	1.93703794e-02	3.72491365e-04
1.34500000e-01	1.95928985e-02	3.74460861e-04
1.35000000e-01	1.94455045e-02	3.71292813e-04
1.35500000e-01	1.94416636e-02	3.68660325e-04
1.36000000e-01	2.00696100e-02	3.79942360e-04
1.36500000e-01	1.96849692e-02	3.75948871e-04
1.37000000e-01	1.96809055e-02	3.69802619e-04
1.37500000e-01	1.94617552e-02	3.68636667e-04
1.38000000e-01	1.93385241e-02	3.66632181e-04
1.38500000e-01	1.96266994e-02	3.69492462e-04
1.39000000e-01	1.95951477e-02	3.70380758e-04
1.39500000e-01	1.96190968e-02	3.68822721e-04
1.40000000e-01	1.97532413e-02	3.72951652e-04
1.40500000e-01	1.95853470e-02	3.67006376e-04
1.41000000e-01	1.95099399e-02	3.65427141e-04
1.41500000e-01	1.94360578e-02	3.64634844e-04
1.42000000e-01	1.93198170e-02	3.58916059e-04
1.42500000e-01	1.94807227e-02	3.65657690e-04
1.43000000e-01	1.95059956e-02	3.63740084e-04
1.43500000e-01	1.95839970e-02	3.63471054e-04
1.44000000e-01	1.95257736e-02	3.63296009e-04
1.44500000e-01	1.90645520e-02	3.52559656e-04
1.45000000e-01	1.93455063e-02	3.57031819e-04
1.45500000e-01	1.94690996e-02	3.59888840e-04
1.46000000e-01	1.95277993e-02	3.59209065e-04
1.46500000e-01	1.95089974e-02	3.59717603e-04
1.47000000e-01	1.94722642e-02	3.57582265e-04
1.47500000e-01	1.95258381e-02	3.58167108e-04
1.48000000e-01	1.96081424e-02	3.59506741e-04
1.48500000e-01	1.95817026e-02	3.57688126e-04
1.49000000e-01	1.93000384e-02	3.51338913e-04
1.49500000e-01	1.94288700e-02	3.54246950e-04
1.50000000e-01	1.94137617e-02	3.55257908e-04
1.50500000e-01	1.94262774e-02	3.54599774e-04
1.51000000e-01	1.92750031e-02	3.49211207e-04
1.51500000e-01	1.94534698e-02	3.50707854e-04
1.52000000e-01	1.93156623e-02	3.46411963e-04
1.52500000e-01	1.94399991e-02	3.51736089e-04
1.53000000e-01	1.94964687e-02	3.51315254e-04
1.53500000e-01	1.90955807e-02	3.45774585e-04
1.54000000e-01	1.89691471e-02	3.40692544e-04
1.54500000e-01	1.92011582e-02	3.50453775e-04
1.55000000e-01	1.90357107e-02	3.53233058e-04
1.55500000e-01	1.93197639e-02	3.59284545e-04
1.56000000e-01	1.91815182e-02	3.60460366e-04
1.56500000e-01	1.91428070e-02	3.57330908e-04
1.57000000e-01	1.93043420e-02	3.61003336e-04
1.57500000e-01	1.91734204e-02	3.53311932e-04
1.58000000e-01	1.88076491e-02	3.41143085e-04
1.58500000e-01	1.93327438e-02	3.48213891e-04
1.59000000e-01	1.87733199e-02	3.38413848e-04
1.59500000e-01	1.90291470e-02	3.40851670e-04
1.60000000e-01	1.88811275e-02	3.38299071e-04
1.60500000e-01	1.90720805e-02	3.37339208e-04
1.61000000e-01	1.91847879e-02	3.43152694e-04
1.61500000e-01	1.88035934e-02	3.36707527e-04
1.62000000e-01	1.90269416e-02	3.37653076e-04
1.62500000e-01	1.91582173e-02	3.40340792e-04
1.63000000e-01	1.91114533e-02	3.36931238e-04
1.63500000e-01	1.90678181e-02	3.36484685e-04
1.64000000e-01	1.90445716e-02	3.34355458e-04
1.64500000e-01	1.88031968e-02	3.31422679e-04
1.65000000e-01	1.91339062e-02	3.34634020e-04
1.65500000e-01	1.90478263e-02	3.33048428e-04
1.66000000e-01	1.89424324e-02	3.33004041e-04
1.66500000e-01	1.91141520e-02	3.32678109e-04
1.67000000e-01	1.88758575e-02	3.31765473e-04
1.67500000e-01	1.92189813e-02	3.34473085e-04
1.68000000e-01	1.86835294e-02	3.25720502e-04
1.68500000e-01	1.88343450e-02	3.26260128e-04
1.69000000e-01	1.89752355e-02	3.30713014e-04
1.69500000e-01	1.87573414e-02	3.24684323e-04
1.70000000e-01	1.89915354e-02	3.28392355e-04
1.70500000e-01	1.89384848e-02	3.25776764e-04
1.71000000e-01	1.87475452e-02	3.23709951e-04
1.71500000e-01	1.88683166e-02	3.24289986e-04
1.72000000e-01	1.88679300e-02	3.22581857e-04
1.72500000e-01	1.90435379e-02	3.25586848e-04
1.73000000e-01	1.89180028e-02	3.23506745e-04
1.73500000e-01	1.87789540e-02	3.20807255e-04
1.74000000e-01	1.88102587e-02	3.20892947e-04
1.74500000e-01	1.90572660e-02	3.22090220e-04
1.75000000e-01	1.89886055e-02	3.21071120e-04
1.75500000e-01	1.86803048e-02	3.14633177e-04
1.76000000e-01	1.86328586e-02	3.15105398e-04
1.76500000e-01	1.87484166e-02	3.16514923e-04
1.77000000e-01	1.86743487e-02	3.13795261e-04
1.77500000e-01	1.86026652e-02	3.13656750e-04
1.78000000e-01	1.86772476e-02	3.13676082e-04
1.78500000e-01	1.85330372e-02	3.11727056e-04
1.79000000e-01	1.86180815e-02	3.12660921e-04
1.79500000e-01	1.85484183e-02	3.10664181e-04
1.80000000e-01	1.85647704e-02	3.12695518e-04
1.80500000e-01	1.85567518e-02	3.11222462e-04
1.81000000e-01	1.86431056e-02	3.12293587e-04
1.81500000e-01	1.88376109e-02	3.13886992e-04
1.82000000e-01	1.86286855e-02	3.11519944e-04
1.82500000e-01	1.86461050e-02	3.10651982e-04
1.83000000e-01	1.87272752e-02	3.10862066e-04
1.83500000e-01	1.85032360e-02	3.07470672e-04
1.84000000e-01	1.85868544e-02	3.08914537e-04
1.84500000e-01	1.85278395e-02	3.07800651e-04
1.85000000e-01	1.87673702e-02	3.08512272e-04
1.85500000e-01	1.87376671e-02	3.10131216e-04
1.86000000e-01	1.85719392e-02	3.06619943e-04
1.86500000e-01	1.85735478e-02	3.05922315e-04
1.87000000e-01	1.85341925e-02	3.04741983e-04
1.87500000e-01	1.84189858e-02	3.03465183e-04
1.88000000e-01	1.84464521e-02	3.05456996e-04
1.88500000e-01	1.83678668e-02	3.00793141e-04
1.89000000e-01	1.86027024e-02	3.04761894e-04
1.89500000e-01	1.87367070e-02	3.06134609e-04
1.90000000e-01	1.84621365e-02	3.01908174e-04
1.90500000e-01	1.86321037e-02	3.03991248e-04
1.91000000e-01	1.85797085e-02	3.02885071e-04
1.91500000e-01	1.85063706e-02	3.02674655e-04
1.92000000e-01	1.83759873e-02	2.97123949e-04
1.92500000e-01	1.86514520e-02	3.01969651e-04
1.93000000e-01	1.83783677e-02	2.97418558e-04
1.93500000e-01	1.84298142e-02	2.99437385e-04
1.94000000e-01	1.85534612e-02	3.01410472e-04
1.94500000e-01	1.83534474e-02	2.96451877e-04
1.95000000e-01	1.84194128e-02	2.97589339e-04
1.95500000e-01	1.84231515e-02	2.96390722e-04
1.96000000e-01	1.84269041e-02	2.97423864e-04
1.96500000e-01	1.82148468e-02	2.93820815e-04
1.97000000e-01	1.81976376e-02	2.92463279e-04
1.97500000e-01	1.83347709e-02	2.95200922e-04
1.98000000e-01	1.83395856e-02	2.94243291e-04
1.98500000e-01	1.83077797e-02	2.92564795e-04
1.99000000e-01	1.83273428e-02	2.93105063e-04
1.99500000e-01	1.84037813e-02	2.93985557e-04
2.00000000e-01	1.81951417e-02	2.91296915e-04
2.00500000e-01	1.82676829e-02	2.91719195e-04
2.01000000e-01	1.81922417e-02	2.89700752e-04
2.01500000e-01	1.83268949e-02	2.91498802e-04
2.02000000e-01	1.83527835e-02	2.91378068e-04
2.02500000e-01	1.83451171e-02	2.91264017e-04
2.03000000e-01	1.81047114e-02	2.85851761e-04
2.03500000e-01	1.81247743e-02	2.87331545e-04
2.04000000e-01	1.80239001e-02	2.84410050e-04
2.04500000e-01	1.82192559e-02	2.88710867e-04
2.05000000e-01	1.79884802e-02	2.83446862e-04
2.05500000e-01	1.82845575e-02	2.87998851e-04
2.06000000e-01	1.80227920e-02	2.83515703e-04
2.06500000e-01	1.82050949e-02	2.86704616e-04
2.07000000e-01	1.81979157e-02	2.85286555e-04
2.07500000e-01	1.83202342e-02	2.86958474e-04
2.08000000e-01	1.83129263e-02	2.87496496e-04
2.08500000e-01	1.84004630e-02	2.87278850e-04
2.09000000e-01	1.81919321e-02	2.84259075e-04
2.09500000e-01	1.82550052e-02	2.84864361e-04
2.10000000e-01	1.80154967e-02	2.82432570e-04
2.10500000e-01	1.81589823e-02	2.83517466e-04
2.11000000e-01	1.81905791e-02	2.81682793e-04
2.11500000e-01	1.82570313e-02	2.84048578e-04
2.12000000e-01	1.80656215e-02	2.80596161e-04
2.12500000e-01	1.82515607e-02	2.82280472e-04
2.13000000e-01	1.83289305e-02	2.83003469e-04
2.13500000e-01	1.82425855e-02	2.82512214e-04
2.14000000e-01	1.78901058e-02	2.76619881e-04
2.14500000e-01	1.80435162e-02	2.78166592e-04
2.15000000e-01	1.78744520e-02	2.75865225e-04
2.15500000e-01	1.80923557e-02	2.77687102e-04
2.16000000e-01	1.81605627e-02	2.79221072e-04
2.16500000e-01	1.81982445e-02	2.78192544e-04
2.17000000e-01	1.81074066e-02	2.83741976e-04
2.17500000e-01	1.77424227e-02	2.81014015e-04
2.18000000e-01	1.80249543e-02	2.85013307e-04
2.18500000e-01	1.79824345e-02	2.88089145e-04
2.19000000e-01	1.80150989e-02	2.88423897e-04
2.19500000e-01	1.80345717e-02	2.89973131e-04
2.20000000e-01	1.78419330e-02	2.88672237e-04
2.20500000e-01	1.79607020e-02	2.91415606e-04
2.21000000e-01	1.77164020e-02	2.87272065e-04
2.21500000e-01	1.80048004e-02	2.93752208e-04
2.22000000e-01	1.80652529e-02	2.95759565e-04
2.22500000e-01	1.78996727e-02	2.92814281e-04
2.23000000e-01	1.79869687e-02	2.94587607e-04
2.23500000e-01	1.78758195e-02	2.91886876e-04
2.24000000e-01	1.78040950e-02	2.93458341e-04
2.24500000e-01	1.75781049e-02	2.92078950e-04
2.25000000e-01	1.79132203e-02	2.95604133e-04
2.25500000e-01	1.78533468e-02	2.95308554e-04
2.26000000e-01	1.79234254e-02	2.98724836e-04
2.26500000e-01	1.78540544e-02	2.92469877e-04
2.27000000e-01	1.77648351e-02	2.88367744e-04
2.27500000e-01	1.78404436e-02	2.85750333e-04
2.28000000e-01	1.77667856e-02	2.83117630e-04
2.28500000e-01	1.79154209e-02	2.85388710e-04
2.29000000e-01	1.81087744e-02	2.86335032e-04
2.29500000e-01	1.80433417e-02	2.85520733e-04
2.30000000e-01	1.80284674e-02	2.83716176e-04
2.30500000e-01	1.79136598e-02	2.80628840e-04
2.31000000e-01	1.80909382e-02	2.82162434e-04
2.31500000e-01	1.79955881e-02	2.79984641e-04
2.32000000e-01	1.78520836e-02	2.78519232e-04
2.32500000e-01	1.78270872e-02	2.77048154e-04
2.33000000e-01	1.75960035e-02	2.72652596e-04
2.33500000e-01	1.78796537e-02	2.77331692e-04
2.34000000e-01	1.77098434e-02	2.72973165e-04
2.34500000e-01	1.76238012e-02	2.71097614e-04
2.35000000e-01	1.78114444e-02	2.75414187e-04
2.35500000e-01	1.78145106e-02	2.73478680e-04
2.36000000e-01	1.78611469e-02	2.73950388e-04
2.36500000e-01	1.75955405e-02	2.69462720e-04
2.37000000e-01	1.76082579e-02	2.68370708e-04
2.37500000e-01	1.75551071e-02	2.69108958e-04
2.38000000e-01	1.76020641e-02	2.67697739e-04
2.38500000e-01	1.76541290e-02	2.68679045e-04
2.39000000e-01	1.80666525e-02	2.73198647e-04
2.39500000e-01	1.76955640e-02	2.68767327e-04
2.40000000e-01	1.77104108e-02	2.68519630e-04
2.40500000e-01	1.78182512e-02	2.68412639e-04
2.41000000e-01	1.76767937e-02	2.66296024e-04
2.41500000e-01	1.75338094e-02	2.63770247e-04
2.42000000e-01	1.77010258e-02	2.66746192e-04
2.42500000e-01	1.76492426e-02	2.64291651e-04
2.43000000e-01	1.75190769e-02	2.61631536e-04
2.43500000e-01	1.77024409e-02	2.65114133e-04
2.44000000e-01	1.76740979e-02	2.63123645e-04
2.44500000e-01	1.75740385e-02	2.62350304e-04
2.45000000e-01	1.75852982e-02	2.61072523e-04
2.45500000e-01	1.76580387e-02	2.62784367e-04
2.46000000e-01	1.76076114e-02	2.62717023e-04
2.46500000e-01	1.74426290e-02	2.58919839e-04
2.47000000e-01	1.75070063e-02	2.58666542e-04
2.47500000e-01	1.74256121e-02	2.57676695e-04
2.48000000e-01	1.75523840e-02	2.59431521e-04
2.48500000e-01	1.77580745e-02	2.61116014e-04
2.49000000e-01	1.74330667e-02	2.57440178e-04
2.49500000e-01	1.73459800e-02	2.56262815e-04
2.50000000e-01	1.73547426e-02	2.56090572e-04
2.50500000e-01	1.76555141e-02	2.60158682e-04
2.51000000e-01	1.71882528e-02	2.52887106e-04
2.51500000e-01	1.72176718e-02	2.52507193e-04
2.52000000e-01	1.72998068e-02	2.54035434e-04
2.52500000e-01	1.71928566e-02	2.52828528e-04
2.53000000e-01	1.73337146e-02	2.53849649e-04
2.53500000e-01	1.75800356e-02	2.55991598e-04
2.54000000e-01	1.73271995e-02	2.54203028e-04
2.54500000e-01	1.74700454e-02	2.55534667e-04
2.55000000e-01	1.73525236e-02	2.52342556e-04
2.55500000e-01	1.73974651e-02	2.53099241e-04
2.56000000e-01	1.74479912e-02	2.51705930e-04
2.56500000e-01	1.74381860e-02	2.52600484e-04
2.57000000e-01	1.72702394e-02	2.50185294e-04
2.57500000e-01	1.73212627e-02	2.50057361e-04
2.58000000e-01	1.74022967e-02	2.53195215e-04
2.58500000e-01	1.73749212e-02	2.51247341e-04
2.59000000e-01	1.74010817e-02	2.52638615e-04
2.59500000e-01	1.72936511e-02	2.48193568e-04
2.60000000e-01	1.73838117e-02	2.50977670e-04
2.60500000e-01	1.75259446e-02	2.51203856e-04
2.61000000e-01	1.72823322e-02	2.49435693e-04
2.61500000e-01	1.73201083e-02	2.49355019e-04
2.62000000e-01	1.74304841e-02	2.49495636e-04
2.62500000e-01	1.72552087e-02	2.47505278e-04
2.63000000e-01	1.73579579e-02	2.48344978e-04
2.63500000e-01	1.72335902e-02	2.45782350e-04
2.64000000e-01	1.71787624e-02	2.45248542e-04
2.64500000e-01	1.73146456e-02	2.47106262e-04
2.65000000e-01	1.73305989e-02	2.47146317e-04
2.65500000e-01	1.71479071e-02	2.44445710e-04
2.66000000e-01	1.71233751e-02	2.43869520e-04
2.66500000e-01	1.71739314e-02	2.43207674e-04
2.67000000e-01	1.71183544e-02	2.42348166e-04
2.67500000e-01	1.71109103e-02	2.42291865e-04
2.68000000e-01	1.70493620e-02	2.41125181e-04
2.68500000e-01	1.70808730e-02	2.41388239e-04
2.69000000e-01	1.71677489e-02	2.42409946e-04
2.69500000e-01	1.71740501e-02	2.42359101e-04
2.70000000e-01	1.70800554e-02	2.41191596e-04
2.70500000e-01	1.70339331e-02	2.39886471e-04
2.71000000e-01	1.70489038e-02	2.39423571e-04
2.71500000e-01	1.71555915e-02	2.41383795e-04
2.72000000e-01	1.71701873e-02	2.40512778e-04
2.72500000e-01	1.72127440e-02	2.41641881e-04
2.73000000e-01	1.70580931e-02	2.39093307e-04
2.73500000e-01	1.72502543e-02	2.41447215e-04
2.74000000e-01	1.72864443e-02	2.41292684e-04
2.74500000e-01	1.71757660e-02	2.39194697e-04
2.75000000e-01	1.71526300e-02	2.39906053e-04
2.75500000e-01	1.70653788e-02	2.38993965e-04
2.76000000e-01	1.68120381e-02	2.35100492e-04
2.76500000e-01	1.71818447e-02	2.40240329e-04
2.77000000e-01	1.70627936e-02	2.37375742e-04
2.77500000e-01	1.69667944e-02	2.36322877e-04
2.78000000e-01	1.69221922e-02	2.34946822e-04
2.78500000e-01	1.71378103e-02	2.38277238e-04
2.79000000e-01	1.70708220e-02	2.36658458e-04
2.79500000e-01	1.70574409e-02	2.36257131e-04
2.80000000e-01	1.71826644e-02	2.37775728e-04
2.80500000e-01	1.68947769e-02	2.33583387e-04
2.81000000e-01	1.69509846e-02	2.34833734e-04
2.81500000e-01	1.70741667e-02	2.35162924e-04
2.82000000e-01	1.71835840e-02	2.36918959e-04
2.82500000e-01	1.70349597e-02	2.35868478e-04
2.83000000e-01	1.69887898e-02	2.34067859e-04
2.83500000e-01	1.70883898e-02	2.35071399e-04
2.84000000e-01	1.68379317e-02	2.32420484e-04
2.84500000e-01	1.72347454e-02	2.36833729e-04
2.85000000e-01	1.69823933e-02	2.32819743e-04
2.85500000e-01	1.68023871e-02	2.30971602e-04
2.86000000e-01	1.69109566e-02	2.31943850e-04
2.86500000e-01	1.67776921e-02	2.29854693e-04
2.87000000e-01	1.69727800e-02	2.32603980e-04
2.87500000e-01	1.67855112e-02	2.29159897e-04
2.88000000e-01	1.68032002e-02	2.28409127e-04
2.88500000e-01	1.70145780e-02	2.31863916e-04
2.89000000e-01	1.69869248e-02	2.31061222e-04
2.89500000e-01	1.67227803e-02	2.27743012e-04
2.90000000e-01	1.68178616e-02	2.28860400e-04
2.90500000e-01	1.68570947e-02	2.29092936e-04
2.91000000e-01	1.69358087e-02	2.29410080e-04
2.91500000e-01	1.69039303e-02	2.28743330e-04
2.92000000e-01	1.68218958e-02	2.27831099e-04
2.92500000e-01	1.69863362e-02	2.28510729e-04
2.93000000e-01	1.68804013e-02	2.27564600e-04
2.93500000e-01	1.67927748e-02	2.26306660e-04
2.94000000e-01	1.67175630e-02	2.26067506e-04
2.94500000e-01	1.68057001e-02	2.27149972e-04
2.95000000e-01	1.69006520e-02	2.27204130e-04
2.95500000e-01	1.68862036e-02	2.27549853e-04
2.96000000e-01	1.67818040e-02	2.26139401e-04
2.96500000e-01	1.67359800e-02	2.24820648e-04
2.97000000e-01	1.67926555e-02	2.25292440e-04
2.97500000e-01	1.70075573e-02	2.26969607e-04
2.98000000e-01	1.66795798e-02	2.24359099e-04
2.98500000e-01	1.66380897e-02	2.23491889e-04
2.99000000e-01	1.67542763e-02	2.24473145e-04
2.99500000e-01	1.67809598e-02	2.24660575e-04
3.00000000e-01	1.66938254e-02	2.23362401e-04
3.00500000e-01	1.66928462e-02	2.23316381e-04
3.01000000e-01	1.66936437e-02	2.22353479e-04
3.01500000e-01	1.67178905e-02	2.23383417e-04
3.02000000e-01	1.67966853e-02	2.23758532e-04
3.02500000e-01	1.68088590e-02	2.23856523e-04
3.03000000e-01	1.67234666e-02	2.22950981e-04
3.03500000e-01	1.66964295e-02	2.21908016e-04
3.04000000e-01	1.66611523e-02	2.21570755e-04
3.04500000e-01	1.67569551e-02	2.21882796e-04
3.05000000e-01	1.66799736e-02	2.21104226e-04
3.05500000e-01	1.65199244e-02	2.18482551e-04
3.06000000e-01	1.65820807e-02	2.19088633e-04
3.06500000e-01	1.68179914e-02	2.22688430e-04
3.07000000e-01	1.67711242e-02	2.21007797e-04
3.07500000e-01	1.66094838e-02	2.19906865e-04
3.08000000e-01	1.66260316e-02	2.19791432e-04
3.08500000e-01	1.67665216e-02	2.20392459e-04
3.09000000e-01	1.65396177e-02	2.19019677e-04
3.09500000e-01	1.65610281e-02	2.18270618e-04
3.10000000e-01	1.65799724e-02	2.18322655e-04
3.10500000e-01	1.67229819e-02	2.19252454e-04
3.11000000e-01	1.66562643e-02	2.18476109e-04
3.11500000e-01	1.65191507e-02	2.16855683e-04
3.12000000e-01	1.65593224e-02	2.17624611e-04
3.12500000e-01	1.66833427e-02	2.18574994e-04
3.13000000e-01	1.64121192e-02	2.15372150e-04
3.13500000e-01	1.63844632e-02	2.14195398e-04
3.14000000e-01	1.64777690e-02	2.15133610e-04
3.14500000e-01	1.65668863e-02	2.15807115e-04
3.15000000e-01	1.66020360e-02	2.16357360e-04
3.15500000e-01	1.65755601e-02	2.15670571e-04
3.16000000e-01	1.63797971e-02	2.13773299e-04
3.16500000e-01	1.65531230e-02	2.15648254e-04
3.17000000e-01	1.64714588e-02	2.14188981e-04
3.17500000e-01	1.63490040e-02	2.12718921e-04
3.18000000e-01	1.64954038e-02	2.13645715e-04
3.18500000e-01	1.63868986e-02	2.12582236e-04
3.19000000e-01	1.64348406e-02	2.12683604e-04
3.19500000e-01	1.62784734e-02	2.11294891e-04
3.20000000e-01	1.63692680e-02	2.12146491e-04
3.20500000e-01	1.63671959e-02	2.11516808e-04
3.21000000e-01	1.62628794e-02	2.11162612e-04
3.21500000e-01	1.63584984e-02	2.11629426e-04
3.22000000e-01	1.61835315e-02	2.08909972e-04
3.22500000e-01	1.63189029e-02	2.10147873e-04
3.23000000e-01	1.63422364e-02	2.11063529e-04
3.23500000e-01	1.62652746e-02	2.10208885e-04
3.24000000e-01	1.62160975e-02	2.08456582e-04
3.24500000e-01	1.63377579e-02	2.10718512e-04
3.25000000e-01	1.62505511e-02	2.08762059e-04
3.25500000e-01	1.63577791e-02	2.09899758e-04
3.26000000e-01	1.62924833e-02	2.09409643e-04
3.26500000e-01	1.61849535e-02	2.08024623e-04
3.27000000e-01	1.64421107e-02	2.10551067e-04
3.27500000e-01	1.61308970e-02	2.07014953e-04
3.28000000e-01	1.61204256e-02	2.06092623e-04
3.28500000e-01	1.62050133e-02	2.07020035e-04
3.29000000e-01	1.62151922e-02	2.07513204e-04
3.29500000e-01	1.61664837e-02	2.07154619e-04
3.30000000e-01	1.60544498e-02	2.04852132e-04
3.30500000e-01	1.61740257e-02	2.06362730e-04
3.31000000e-01	1.61935771e-02	2.06152856e-04
3.31500000e-01	1.62164213e-02	2.06347634e-04
3.32000000e-01	1.61400838e-02	2.05914190e-04
3.32500000e-01	1.63020104e-02	2.06674723e-04
3.33000000e-01	1.61252987e-02	2.04614535e-04
3.33500000e-01	1.61399221e-02	2.04293396e-04
3.34000000e-01	1.63080290e-02	2.06712932e-04
3.34500000e-01	1.61469263e-02	2.05251870e-04
3.35000000e-01	1.61723200e-02	2.04682382e-04
3.35500000e-01	1.61369487e-02	2.03834103e-04
3.36000000e-01	1.60145922e-02	2.03190633e-04
3.36500000e-01	1.62279866e-02	2.05386029e-04
3.37000000e-01	1.61918980e-02	2.04197790e-04
3.37500000e-01	1.59822191e-02	2.01705429e-04
3.38000000e-01	1.59855380e-02	2.01736936e-04
3.38500000e-01	1.58557970e-02	2.00030418e-04
3.39000000e-01	1.60783756e-02	2.03436464e-04
3.39500000e-01	1.61531550e-02	2.03180415e-04
3.40000000e-01	1.62513515e-02	2.04085324e-04
3.40500000e-01	1.60171026e-02	2.01407979e-04
3.41000000e-01	1.60473225e-02	2.01198328e-04
3.41500000e-01	1.59581473e-02	2.01481466e-04
3.42000000e-01	1.60731871e-02	2.00786384e-04
3.42500000e-01	1.59738026e-02	2.00563531e-04
3.43000000e-01	1.60086562e-02	2.00341134e-04
3.43500000e-01	1.59347420e-02	1.99728970e-04
3.44000000e-01	1.60284415e-02	2.00272934e-04
3.44500000e-01	1.59703069e-02	2.00305023e-04
3.45000000e-01	1.60390951e-02	2.00699848e-04
3.45500000e-01	1.60830770e-02	2.00169772e-04
3.46000000e-01	1.60108341e-02	2.00193592e-04
3.46500000e-01	1.59866803e-02	1.99554059e-04
3.47000000e-01	1.60797493e-02	1.99924446e-04
3.47500000e-01	1.59853526e-02	1.98295046e-04
3.48000000e-01	1.60101195e-02	1.99142307e-04
3.48500000e-01	1.57496608e-02	1.96506567e-04
3.49000000e-01	1.58091338e-02	1.96805005e-04
3.49500000e-01	1.58240188e-02	1.96768412e-04
3.50000000e-01	1.57985191e-02	1.60145160e-04
3.51000000e-01	1.58085582e-02	1.38637567e-04
3.52000000e-01	1.59068784e-02	1.39084947e-04
3.53000000e-01	1.57382950e-02	1.37760430e-04
3.54000000e-01	1.59152081e-02	1.38623752e-04
3.55000000e-01	1.57057570e-02	1.37327935e-04
3.56000000e-01	1.57217959e-02	1.37529568e-04
3.57000000e-01	1.57050683e-02	1.39707552e-04
3.58000000e-01	1.56679102e-02	1.40988756e-04
3.59000000e-01	1.57664340e-02	1.42680282e-04
3.60000000e-01	1.55544784e-02	1.41999528e-04
3.61000000e-01	1.56270089e-02	1.43243241e-04
3.62000000e-01	1.57286560e-02	1.44218772e-04
3.63000000e-01	1.55928035e-02	1.44277522e-04
3.64000000e-01	1.56357042e-02	1.44759744e-04
3.65000000e-01	1.56163315e-02	1.45090423e-04
3.66000000e-01	1.55439698e-02	1.42709480e-04
3.67000000e-01	1.56008495e-02	1.41450226e-04
3.68000000e-01	1.55770937e-02	1.39866432e-04
3.69000000e-01	1.54890654e-02	1.38771556e-04
3.70000000e-01	1.55602600e-02	1.38386711e-04
3.71000000e-01	1.55901400e-02	1.40080356e-04
3.72000000e-01	1.54689771e-02	1.40902832e-04
3.73000000e-01	1.55669849e-02	1.41604470e-04
3.74000000e-01	1.54108080e-02	1.40402652e-04
3.75000000e-01	1.54166455e-02	1.40047896e-04
3.76000000e-01	1.54049289e-02	1.40241695e-04
3.77000000e-01	1.55187428e-02	1.41357034e-04
3.78000000e-01	1.55221150e-02	1.41500135e-04
3.79000000e-01	1.54604975e-02	1.40566540e-04
3.80000000e-01	1.53434447e-02	1.39619777e-04
3.81000000e-01	1.54881752e-02	1.40814193e-04
3.82000000e-01	1.54500057e-02	1.40371992e-04
3.83000000e-01	1.53813682e-02	1.39743002e-04
3.84000000e-01	1.54332366e-02	1.40469749e-04
3.85000000e-01	1.54222065e-02	1.40327325e-04
3.86000000e-01	1.52838309e-02	1.39085412e-04
3.87000000e-01	1.53655237e-02	1.39785087e-04
3.88000000e-01	1.54343461e-02	1.39954128e-04
3.89000000e-01	1.53213223e-02	1.39017109e-04
3.90000000e-01	1.52693991e-02	1.38686677e-04
3.91000000e-01	1.52559336e-02	1.38182721e-04
3.92000000e-01	1.53103074e-02	1.38918993e-04
3.93000000e-01	1.52331669e-02	1.37801204e-04
3.94000000e-01	1.52926927e-02	1.38391001e-04
3.95000000e-01	1.50946610e-02	1.36964451e-04
3.96000000e-01	1.52889244e-02	1.38403064e-04
3.97000000e-01	1.53327772e-02	1.38946980e-04
3.98000000e-01	1.52421748e-02	1.38428771e-04
3.99000000e-01	1.52737734e-02	1.38452468e-04
4.00000000e-01	1.50749726e-02	1.36843535e-04
4.01000000e-01	1.51824872e-02	1.37439761e-04
4.02000000e-01	1.51268235e-02	1.37228888e-04
4.03000000e-01	1.50432993e-02	1.36266756e-04
4.04000000e-01	1.51083347e-02	1.36706012e-04
4.05000000e-01	1.50397764e-02	1.36106695e-04
4.06000000e-01	1.51984859e-02	1.37341451e-04
4.07000000e-01	1.50940202e-02	1.36806960e-04
4.08000000e-01	1.50237596e-02	1.36043362e-04
4.09000000e-01	1.49836268e-02	1.35528421e-04
4.10000000e-01	1.50769520e-02	1.36366328e-04
4.11000000e-01	1.50736670e-02	1.36055417e-04
4.12000000e-01	1.50586897e-02	1.35936605e-04
4.13000000e-01	1.50587880e-02	1.35945684e-04
4.14000000e-01	1.50432442e-02	1.35921357e-04
4.15000000e-01	1.50051396e-02	1.35349347e-04
4.16000000e-01	1.50272600e-02	1.35579533e-04
4.17000000e-01	1.48843584e-02	1.34558861e-04
4.18000000e-01	1.49162037e-02	1.36295353e-04
4.19000000e-01	1.49557248e-02	1.38169477e-04
4.20000000e-01	1.50028382e-02	1.39309029e-04
4.21000000e-01	1.50812182e-02	1.40209108e-04
4.22000000e-01	1.50732425e-02	1.40704030e-04
4.23000000e-01	1.50221023e-02	1.40810939e-04
4.24000000e-01	1.50249806e-02	1.41161969e-04
4.25000000e-01	1.49783840e-02	1.40949001e-04
4.26000000e-01	1.48937979e-02	1.40020756e-04
4.27000000e-01	1.48718350e-02	1.40323990e-04
4.28000000e-01	1.51092195e-02	1.42698846e-04
4.29000000e-01	1.48378196e-02	1.41062814e-04
4.30000000e-01	1.49266056e-02	1.41001491e-04
4.31000000e-01	1.49909281e-02	1.41433848e-04
4.32000000e-01	1.49457443e-02	1.41472287e-04
4.33000000e-01	1.48692054e-02	1.40876419e-04
4.34000000e-01	1.48171138e-02	1.40271495e-04
4.35000000e-01	1.48052342e-02	1.40564051e-04
4.36000000e-01	1.49630374e-02	1.42146154e-04
4.37000000e-01	1.49124701e-02	1.42089998e-04
4.38000000e-01	1.49229885e-02	1.42034889e-04
4.39000000e-01	1.48019376e-02	1.41134800e-04
4.40000000e-01	1.47604618e-02	1.40984154e-04
4.41000000e-01	1.48875204e-02	1.42289927e-04
4.42000000e-01	1.48307590e-02	1.41902022e-04
4.43000000e-01	1.48783786e-02	1.42406374e-04
4.44000000e-01	1.48214627e-02	1.42064842e-04
4.45000000e-01	1.48464828e-02	1.42757472e-04
4.46000000e-01	1.46500349e-02	1.40777649e-04
4.47000000e-01	1.46895742e-02	1.41473198e-04
4.48000000e-01	1.48036348e-02	1.42569995e-04
4.49000000e-01	1.48356728e-02	1.42936187e-04
4.50000000e-01	1.46672773e-02	1.41854538e-04
4.51000000e-01	1.48069274e-02	1.43261609e-04
4.52000000e-01	1.47757017e-02	1.42469845e-04
4.53000000e-01	1.46979958e-02	1.42026565e-04
4.54000000e-01	1.47355328e-02	1.42325542e-04
4.55000000e-01	1.46258362e-02	1.42057719e-04
4.56000000e-01	1.46523205e-02	1.42347705e-04
4.57000000e-01	1.46590931e-02	1.42393054e-04
4.58000000e-01	1.45606853e-02	1.41350573e-04
4.59000000e-01	1.46738521e-02	1.42636677e-04
4.60000000e-01	1.45630874e-02	1.41826565e-04
4.61000000e-01	1.47924349e-02	1.43878651e-04
4.62000000e-01	1.45987005e-02	1.42084181e-04
4.63000000e-01	1.46032297e-02	1.42749297e-04
4.64000000e-01	1.46095075e-02	1.42709088e-04
4.65000000e-01	1.45588912e-02	1.42218878e-04
4.66000000e-01	1.44607964e-02	1.41419464e-04
4.67000000e-01	1.45303850e-02	1.42773724e-04
4.68000000e-01	1.45816066e-02	1.42758946e-04
4.69000000e-01	1.43743545e-02	1.41560327e-04
4.70000000e-01	1.44081335e-02	1.41068855e-04
4.71000000e-01	1.45567101e-02	1.43041317e-04
4.72000000e-01	1.43675643e-02	1.41228228e-04
4.73000000e-01	1.45597090e-02	1.42683137e-04
4.74000000e-01	1.45696635e-02	1.42353195e-04
4.75000000e-01	1.44661209e-02	1.41808060e-04
4.76000000e-01	1.42813247e-02	1.40313458e-04
4.77000000e-01	1.44228976e-02	1.41616315e-04
4.78000000e-01	1.43415986e-02	1.41209424e-04
4.79000000e-01	1.44015002e-02	1.41093265e-04
4.80000000e-01	1.44776321e-02	1.41894205e-04
4.81000000e-01	1.44468795e-02	1.41635198e-04
4.82000000e-01	1.44694747e-02	1.41901860e-04
4.83000000e-01	1.44373525e-02	1.42177428e-04
4.84000000e-01	1.41479458e-02	1.39478699e-04
4.85000000e-01	1.43434428e-02	1.41379490e-04
4.86000000e-01	1.42302084e-02	1.40158648e-04
4.87000000e-01	1.43905475e-02	1.41897780e-04
4.88000000e-01	1.43706029e-02	1.41555128e-04
4.89000000e-01	1.41516745e-02	1.40329379e-04
4.90000000e-01	1.44321375e-02	1.42548220e-04
4.91000000e-01	1.41793278e-02	1.40518517e-04
4.92000000e-01	1.41981547e-02	1.40864590e-04
4.93000000e-01	1.42782336e-02	1.41169503e-04
4.94000000e-01	1.43664056e-02	1.41917586e-04
4.95000000e-01	1.42655586e-02	1.42296362e-04
4.96000000e-01	1.43231679e-02	1.47211968e-04
4.97000000e-01	1.44150807e-02	1.50878682e-04
4.98000000e-01	1.42456131e-02	1.50576911e-04
4.99000000e-01	1.43069932e-02	1.53273729e-04
5.00000000e-01	1.43920225e-02	1.56229472e-04
5.01000000e-01	1.42355565e-02	1.55658320e-04
5.02000000e-01	1.42598524e-02	1.57693749e-04
5.03000000e-01	1.43824243e-02	1.60755670e-04
5.04000000e-01	1.41183783e-02	1.59445009e-04
5.05000000e-01	1.42825603e-02	1.58019873e-04
5.06000000e-01	1.42913265e-02	1.54411642e-04
5.07000000e-01	1.42704123e-02	1.53208495e-04
5.08000000e-01	1.42473354e-02	1.52267497e-04
5.09000000e-01	1.43629243e-02	1.52540191e-04
5.10000000e-01	1.41595415e-02	1.50583746e-04
5.11000000e-01	1.42310579e-02	1.50132266e-04
5.12000000e-01	1.43166594e-02	1.50590655e-04
5.13000000e-01	1.40421071e-02	1.47413655e-04
5.14000000e-01	1.42053583e-02	1.48677368e-04
5.15000000e-01	1.41435173e-02	1.47395154e-04
5.16000000e-01	1.40506716e-02	1.46834077e-04
5.17000000e-01	1.41849540e-02	1.48039860e-04
5.18000000e-01	1.41161998e-02	1.47222986e-04
5.19000000e-01	1.41830671e-02	1.47074353e-04
5.20000000e-01	1.41598505e-02	1.46375125e-04
5.21000000e-01	1.40584680e-02	1.45879270e-04
5.22000000e-01	1.41162052e-02	1.46436098e-04
5.23000000e-01	1.40591876e-02	1.45501631e-04
5.24000000e-01	1.40950300e-02	1.46159391e-04
5.25000000e-01	1.40608212e-02	1.44996764e-04
5.26000000e-01	1.40703371e-02	1.45243918e-04
5.27000000e-01	1.40684179e-02	1.45058821e-04
5.28000000e-01	1.40489055e-02	1.45009299e-04
5.29000000e-01	1.40493542e-02	1.44968059e-04
5.30000000e-01	1.40445705e-02	1.45130523e-04
5.31000000e-01	1.39383949e-02	1.44547782e-04
5.32000000e-01	1.38401404e-02	1.42917397e-04
5.33000000e-01	1.40654207e-02	1.44788827e-04
5.34000000e-01	1.39401036e-02	1.44519102e-04
5.35000000e-01	1.39568039e-02	1.44117756e-04
5.36000000e-01	1.38726725e-02	1.43476065e-04
5.37000000e-01	1.39237297e-02	1.43814800e-04
5.38000000e-01	1.40633876e-02	1.44577336e-04
5.39000000e-01	1.38147899e-02	1.43049378e-04
5.40000000e-01	1.39336523e-02	1.43934423e-04
5.41000000e-01	1.38791991e-02	1.43371103e-04
5.42000000e-01	1.39549652e-02	1.44323361e-04
5.43000000e-01	1.39821630e-02	1.44292877e-04
5.44000000e-01	1.39068565e-02	1.43964173e-04
5.45000000e-01	1.38657777e-02	1.43440015e-04
5.46000000e-01	1.37223251e-02	1.41994625e-04
5.47000000e-01	1.38683733e-02	1.43151615e-04
5.48000000e-01	1.38392334e-02	1.42939731e-04
5.49000000e-01	1.38014733e-02	1.42659507e-04
5.50000000e-01	1.38357587e-02	1.42975335e-04
5.51000000e-01	1.38554064e-02	1.42899509e-04
5.52000000e-01	1.36782145e-02	1.40719159e-04
5.53000000e-01	1.36959179e-02	1.40973071e-04
5.54000000e-01	1.36841910e-02	1.40553030e-04
5.55000000e-01	1.36765117e-02	1.40351358e-04
5.56000000e-01	1.37667941e-02	1.41653332e-04
5.57000000e-01	1.37170455e-02	1.41394472e-04
5.58000000e-01	1.37772316e-02	1.41604501e-04
5.59000000e-01	1.37308936e-02	1.40960788e-04
5.60000000e-01	1.36949210e-02	1.41038001e-04
5.61000000e-01	1.36911205e-02	1.41211849e-04
5.62000000e-01	1.36998967e-02	1.40666500e-04
5.63000000e-01	1.35987911e-02	1.39916923e-04
5.64000000e-01	1.35937392e-02	1.40060279e-04
5.65000000e-01	1.34799702e-02	1.38577527e-04
5.66000000e-01	1.36769659e-02	1.40856434e-04
5.67000000e-01	1.35617947e-02	1.39607500e-04
5.68000000e-01	1.35328278e-02	1.39249868e-04
5.69000000e-01	1.34867868e-02	1.38442715e-04
5.70000000e-01	1.34498694e-02	1.38187641e-04
5.71000000e-01	1.36720179e-02	1.40523825e-04
5.72000000e-01	1.36395978e-02	1.39990192e-04
5.73000000e-01	1.35583721e-02	1.39626415e-04
5.74000000e-01	1.34107357e-02	1.38084834e-04
5.75000000e-01	1.35166153e-02	1.39452447e-04
5.76000000e-01	1.34633568e-02	1.38829674e-04
5.77000000e-01	1.34585275e-02	1.38896592e-04
5.78000000e-01	1.35200106e-02	1.39654547e-04
5.79000000e-01	1.33759524e-02	1.38128176e-04
5.80000000e-01	1.35456617e-02	1.39475048e-04
5.81000000e-01	1.34299473e-02	1.38219949e-04
5.82000000e-01	1.34029502e-02	1.38267489e-04
5.83000000e-01	1.34790015e-02	1.39585051e-04
5.84000000e-01	1.32768811e-02	1.37351425e-04
5.85000000e-01	1.34400885e-02	1.38566040e-04
5.86000000e-01	1.33486444e-02	1.38377669e-04
5.87000000e-01	1.35208625e-02	1.39185916e-04
5.88000000e-01	1.33144747e-02	1.37602961e-04
5.89000000e-01	1.33907935e-02	1.38549722e-04
5.90000000e-01	1.32448383e-02	1.36866776e-04
5.91000000e-01	1.33543148e-02	1.37992951e-04
5.92000000e-01	1.33201946e-02	1.37729661e-04
5.93000000e-01	1.34150670e-02	1.38769258e-04
5.94000000e-01	1.33296066e-02	1.38046837e-04
5.95000000e-01	1.34614115e-02	1.39635444e-04
5.96000000e-01	1.32635240e-02	1.37314072e-04
5.97000000e-01	1.30871208e-02	1.35455792e-04
5.98000000e-01	1.33689503e-02	1.38174812e-04
5.99000000e-01	1.33921392e-02	1.38659208e-04
6.00000000e-01	1.32236234e-02	1.37475181e-04
6.01000000e-01	1.33229286e-02	1.38011266e-04
6.02000000e-01	1.34011173e-02	1.38613966e-04
6.03000000e-01	1.32197487e-02	1.37453137e-04
6.04000000e-01	1.32869103e-02	1.37359544e-04
6.05000000e-01	1.31134612e-02	1.36271030e-04
6.06000000e-01	1.31892454e-02	1.36655663e-04
6.07000000e-01	1.31834966e-02	1.36882806e-04
6.08000000e-01	1.31135352e-02	1.36654737e-04
6.09000000e-01	1.31561993e-02	1.36511384e-04
6.10000000e-01	1.31859471e-02	1.36991935e-04
6.11000000e-01	1.32657354e-02	1.37670172e-04
6.12000000e-01	1.32152493e-02	1.37420036e-04
6.13000000e-01	1.31128319e-02	1.35801200e-04
6.14000000e-01	1.32228118e-02	1.37213911e-04
6.15000000e-01	1.30822375e-02	1.35850547e-04
6.16000000e-01	1.30534655e-02	1.35967482e-04
6.17000000e-01	1.31813568e-02	1.37224631e-04
6.18000000e-01	1.31198592e-02	1.36361541e-04
6.19000000e-01	1.31106746e-02	1.35823971e-04
6.20000000e-01	1.31392516e-02	1.36262942e-04
6.21000000e-01	1.31080186e-02	1.35540079e-04
6.22000000e-01	1.31500395e-02	1.36079263e-04
6.23000000e-01	1.30921322e-02	1.35257065e-04
6.24000000e-01	1.30019144e-02	1.33925032e-04
6.25000000e-01	1.30294487e-02	1.34147092e-04
6.26000000e-01	1.30241876e-02	1.34128676e-04
6.27000000e-01	1.30492378e-02	1.34784678e-04
6.28000000e-01	1.30741150e-02	1.35145277e-04
6.29000000e-01	1.30383588e-02	1.34716221e-04
6.30000000e-01	1.29094959e-02	1.33233966e-04
6.31000000e-01	1.30245069e-02	1.33761751e-04
6.32000000e-01	1.29550509e-02	1.33859689e-04
6.33000000e-01	1.31021549e-02	1.34624881e-04
6.34000000e-01	1.30896386e-02	1.38323093e-04
6.35000000e-01	1.29134161e-02	1.40933925e-04
6.36000000e-01	1.31416115e-02	1.45515512e-04
6.37000000e-01	1.32159155e-02	1.48774541e-04
6.38000000e-01	1.28072761e-02	1.46642139e-04
6.39000000e-01	1.30014858e-02	1.50119713e-04
6.40000000e-01	1.30880356e-02	1.53167011e-04
6.41000000e-01	1.31160448e-02	1.55190918e-04
6.42000000e-01	1.30418123e-02	1.56087296e-04
6.43000000e-01	1.29797368e-02	1.55227640e-04
6.44000000e-01	1.30680125e-02	1.50807741e-04
6.45000000e-01	1.31102023e-02	1.48698828e-04
6.46000000e-01	1.31208253e-02	1.47162287e-04
6.47000000e-01	1.29499443e-02	1.44642163e-04
6.48000000e-01	1.31063175e-02	1.45237304e-04
6.49000000e-01	1.29177388e-02	1.43126810e-04
6.50000000e-01	1.29788261e-02	1.42445792e-04
6.51000000e-01	1.30120674e-02	1.42218868e-04
6.52000000e-01	1.31014678e-02	1.42760924e-04
6.53000000e-01	1.29250611e-02	1.40660951e-04
6.54000000e-01	1.29693335e-02	1.40369690e-04
6.55000000e-01	1.29022777e-02	1.39338562e-04
6.56000000e-01	1.28773310e-02	1.39128020e-04
6.57000000e-01	1.28948724e-02	1.39289723e-04
6.58000000e-01	1.29198310e-02	1.38991594e-04
6.59000000e-01	1.29532367e-02	1.39453042e-04
6.60000000e-01	1.29526530e-02	1.39310374e-04
6.61000000e-01	1.30030495e-02	1.39141657e-04
6.62000000e-01	1.29019271e-02	1.38787656e-04
6.63000000e-01	1.28577414e-02	1.38168126e-04
6.64000000e-01	1.28655072e-02	1.38212211e-04
6.65000000e-01	1.28730439e-02	1.38161871e-04
6.66000000e-01	1.27247023e-02	1.36962973e-04
6.67000000e-01	1.29931676e-02	1.39275042e-04
6.68000000e-01	1.26939710e-02	1.35677734e-04
6.69000000e-01	1.29423093e-02	1.38659656e-04
6.70000000e-01	1.28327057e-02	1.37325255e-04
6.71000000e-01	1.29322046e-02	1.38789421e-04
6.72000000e-01	1.29245563e-02	1.38336473e-04
6.73000000e-01	1.28484018e-02	1.37339189e-04
6.74000000e-01	1.27271359e-02	1.35964401e-04
6.75000000e-01	1.26956496e-02	1.35532228e-04
6.76000000e-01	1.27084795e-02	1.35753511e-04
6.77000000e-01	1.28447618e-02	1.37077690e-04
6.78000000e-01	1.28220181e-02	1.36785948e-04
6.79000000e-01	1.26858453e-02	1.35448549e-04
6.80000000e-01	1.27017069e-02	1.35551492e-04
6.81000000e-01	1.28297066e-02	1.37143313e-04
6.82000000e-01	1.26509035e-02	1.35298928e-04
6.83000000e-01	1.29413657e-02	1.37331016e-04
6.84000000e-01	1.27739948e-02	1.36296944e-04
6.85000000e-01	1.28038718e-02	1.36407028e-04
6.86000000e-01	1.26433521e-02	1.35272435e-04
6.87000000e-01	1.27849747e-02	1.36593018e-04
6.88000000e-01	1.29746605e-02	1.37567214e-04
6.89000000e-01	1.26253767e-02	1.34159812e-04
6.90000000e-01	1.25996600e-02	1.34721612e-04
6.91000000e-01	1.27149223e-02	1.35397161e-04
6.92000000e-01	1.26833510e-02	1.35633922e-04
6.93000000e-01	1.25699632e-02	1.33631480e-04
6.94000000e-01	1.26785394e-02	1.34934881e-04
6.95000000e-01	1.27601887e-02	1.35829132e-04
6.96000000e-01	1.26166762e-02	1.34258321e-04
6.97000000e-01	1.26028245e-02	1.34181749e-04
6.98000000e-01	1.26109177e-02	1.34556988e-04
6.99000000e-01	1.26596692e-02	1.34495408e-04
7.00000000e-01	1.25391793e-02	1.33120344e-04
7.01000000e-01	1.26701063e-02	1.34959839e-04
7.02000000e-01	1.24910954e-02	1.33011514e-04
7.03000000e-01	1.25613755e-02	1.33830262e-04
7.04000000e-01	1.26231635e-02	1.34189105e-04
7.05000000e-01	1.25721971e-02	1.33729223e-04
7.06000000e-01	1.25993556e-02	1.34177804e-04
7.07000000e-01	1.25197175e-02	1.33308550e-04
7.08000000e-01	1.24646553e-02	1.32187691e-04
7.09000000e-01	1.25246015e-02	1.33124359e-04
7.10000000e-01	1.25499520e-02	1.33563346e-04
7.11000000e-01	1.24861256e-02	1.32854203e-04
7.12000000e-01	1.22758803e-02	1.30685060e-04
7.13000000e-01	1.26203925e-02	1.34141874e-04
7.14000000e-01	1.23637128e-02	1.31618830e-04
7.15000000e-01	1.25629013e-02	1.33263272e-04
7.16000000e-01	1.22981294e-02	1.31110967e-04
7.17000000e-01	1.23766381e-02	1.32161845e-04
7.18000000e-01	1.23903958e-02	1.31877847e-04
7.19000000e-01	1.22371065e-02	1.30917531e-04
7.20000000e-01	1.23540128e-02	1.31879366e-04
7.21000000e-01	1.22560028e-02	1.31009277e-04
7.22000000e-01	1.23710283e-02	1.31973817e-04
7.23000000e-01	1.22596114e-02	1.31278403e-04
7.24000000e-01	1.21659898e-02	1.30273359e-04
7.25000000e-01	1.23754281e-02	1.31799502e-04
7.26000000e-01	1.23699605e-02	1.32368909e-04
7.27000000e-01	1.24131136e-02	1.32161200e-04
7.28000000e-01	1.23675565e-02	1.31730971e-04
7.29000000e-01	1.21252841e-02	1.29597710e-04
7.30000000e-01	1.23357708e-02	1.31613946e-04
7.31000000e-01	1.22886522e-02	1.31196285e-04
7.32000000e-01	1.22395449e-02	1.30560956e-04
7.33000000e-01	1.22131041e-02	1.30467619e-04
7.34000000e-01	1.22019577e-02	1.29777560e-04
7.35000000e-01	1.20501148e-02	1.28504047e-04
7.36000000e-01	1.21839237e-02	1.29915800e-04
7.37000000e-01	1.21387986e-02	1.28925060e-04
7.38000000e-01	1.22326593e-02	1.29758455e-04
7.39000000e-01	1.20946267e-02	1.27857843e-04
7.40000000e-01	1.21660920e-02	1.28695893e-04
7.41000000e-01	1.21982703e-02	1.28843475e-04
7.42000000e-01	1.21816341e-02	1.28631417e-04
7.43000000e-01	1.21961063e-02	1.28988728e-04
7.44000000e-01	1.21227973e-02	1.28004710e-04
7.45000000e-01	1.21591734e-02	1.28687122e-04
7.46000000e-01	1.20718879e-02	1.27661610e-04
7.47000000e-01	1.22192683e-02	1.28552542e-04
7.48000000e-01	1.21667508e-02	1.28642816e-04
7.49000000e-01	1.21160291e-02	1.27528304e-04
7.50000000e-01	1.21373241e-02	1.28398664e-04
7.51000000e-01	1.20758393e-02	1.27567666e-04
7.52000000e-01	1.20071481e-02	1.26788722e-04
7.53000000e-01	1.21547983e-02	1.28346643e-04
7.54000000e-01	1.19987424e-02	1.27302904e-04
7.55000000e-01	1.20842257e-02	1.27859398e-04
7.56000000e-01	1.21400390e-02	1.28549100e-04
7.57000000e-01	1.20365542e-02	1.27511839e-04
7.58000000e-01	1.20200233e-02	1.26852182e-04
7.59000000e-01	1.19543435e-02	1.25927256e-04
7.60000000e-01	1.20110362e-02	1.26708620e-04
7.61000000e-01	1.20714877e-02	1.27029731e-04
7.62000000e-01	1.19731400e-02	1.26299721e-04
7.63000000e-01	1.19997948e-02	1.26196875e-04
7.64000000e-01	1.18625606e-02	1.24801749e-04
7.65000000e-01	1.20563740e-02	1.25997503e-04
7.66000000e-01	1.20377544e-02	1.25953940e-04
7.67000000e-01	1.19422487e-02	1.25221895e-04
7.68000000e-01	1.19442377e-02	1.24806976e-04
7.69000000e-01	1.18614018e-02	1.24731343e-04
7.70000000e-01	1.16605042e-02	1.22617962e-04
7.71000000e-01	1.18611804e-02	1.24052000e-04
7.72000000e-01	1.19051820e-02	1.28714857e-04
7.73000000e-01	1.15936008e-02	1.29580503e-04
7.74000000e-01	1.18452470e-02	1.34772308e-04
7.75000000e-01	1.19225186e-02	1.37918032e-04
7.76000000e-01	1.18184357e-02	1.39192567e-04
7.77000000e-01	1.18815220e-02	1.41663994e-04
7.78000000e-01	1.18774870e-02	1.43088923e-04
7.79000000e-01	1.18671833e-02	1.45049057e-04
7.80000000e-01	1.15594778e-02	1.43060387e-04
7.81000000e-01	1.16089326e-02	1.45793259e-04
7.82000000e-01	1.18062241e-02	1.49275875e-04
7.83000000e-01	1.17007905e-02	1.49557811e-04
7.84000000e-01	1.16122447e-02	1.50582874e-04
7.85000000e-01	1.16777512e-02	1.52969035e-04
7.86000000e-01	1.15252712e-02	1.52685227e-04
7.87000000e-01	1.15899540e-02	1.55380491e-04
7.88000000e-01	1.15387752e-02	1.55889793e-04
7.89000000e-01	1.17676491e-02	1.60538369e-04
7.90000000e-01	1.16202678e-02	1.60280724e-04
7.91000000e-01	1.15399219e-02	1.60346152e-04
7.92000000e-01	1.14617260e-02	1.61340404e-04
7.93000000e-01	1.16900493e-02	1.66312804e-04
7.94000000e-01	1.16821375e-02	1.66853279e-04
7.95000000e-01	1.13835628e-02	1.64353695e-04
7.96000000e-01	1.16152889e-02	1.69657253e-04
7.97000000e-01	1.13923835e-02	1.68756851e-04
7.98000000e-01	1.15459175e-02	1.73054954e-04
7.99000000e-01	1.14554824e-02	1.74850545e-04
8.00000000e-01	1.15603024e-02	1.75778465e-04
8.01000000e-01	1.14353217e-02	1.76211549e-04
8.02000000e-01	1.14633678e-02	1.78464526e-04
8.03000000e-01	1.15432859e-02	1.81061641e-04
8.04000000e-01	1.14323253e-02	1.80866984e-04
8.05000000e-01	1.13810212e-02	1.83343933e-04
8.06000000e-01	1.14364288e-02	1.85534263e-04
8.07000000e-01	1.14389898e-02	1.88440252e-04
8.08000000e-01	1.12792287e-02	1.87109468e-04
8.09000000e-01	1.15072696e-02	1.93096245e-04
8.10000000e-01	1.13724043e-02	1.93473761e-04
8.11000000e-01	1.13995539e-02	1.94627722e-04
8.12000000e-01	1.13630302e-02	1.97170967e-04
8.13000000e-01	1.14077607e-02	2.01205562e-04
8.14000000e-01	1.12744140e-02	2.00252840e-04
8.15000000e-01	1.12073725e-02	2.01929448e-04
8.16000000e-01	1.12172085e-02	2.04456035e-04
8.17000000e-01	1.12933678e-02	2.07937858e-04
8.18000000e-01	1.12141502e-02	2.10659401e-04
8.19000000e-01	1.12842253e-02	2.12051015e-04
8.20000000e-01	1.11351651e-02	2.13018771e-04
8.21000000e-01	1.10787747e-02	2.15988399e-04
8.22000000e-01	1.10074761e-02	2.16782168e-04
8.23000000e-01	1.13210860e-02	2.23084640e-04
8.24000000e-01	1.08912010e-02	2.19624822e-04
8.25000000e-01	1.12948476e-02	2.29681430e-04
8.26000000e-01	1.14693641e-02	2.38231523e-04
8.27000000e-01	1.12881631e-02	2.37315929e-04
8.28000000e-01	1.11315008e-02	2.37574257e-04
8.29000000e-01	1.09808529e-02	2.40343691e-04
8.30000000e-01	1.12510525e-02	2.48328232e-04
8.31000000e-01	1.12070458e-02	2.51249790e-04
8.32000000e-01	1.07604570e-02	2.46026754e-04
8.33000000e-01	1.11856410e-02	2.60618960e-04
8.34000000e-01	1.10381494e-02	2.62517734e-04
8.35000000e-01	1.08783018e-02	2.61515384e-04
8.36000000e-01	1.09531652e-02	2.69020760e-04
8.37000000e-01	1.09685390e-02	2.71864896e-04
8.38000000e-01	1.10972144e-02	2.84438892e-04
8.39000000e-01	1.10948252e-02	2.86012466e-04
8.40000000e-01	1.09074664e-02	2.90764302e-04
8.41000000e-01	1.07360876e-02	2.93412227e-04
8.42000000e-01	1.08711244e-02	3.03659202e-04
8.43000000e-01	1.10118712e-02	3.14063069e-04
8.44000000e-01	1.08521807e-02	3.14830425e-04
8.45000000e-01	1.07300409e-02	3.22095388e-04
8.46000000e-01	1.07121250e-02	3.30584184e-04
8.47000000e-01	1.07948025e-02	3.40511125e-04
8.48000000e-01	1.08205814e-02	3.50224324e-04
8.49000000e-01	1.09338139e-02	3.68196189e-04
8.50000000e-01	1.07352818e-02	3.72110908e-04
8.51000000e-01	1.04564199e-02	3.84726639e-04
8.52000000e-01	1.08341141e-02	4.01465225e-04
8.53000000e-01	1.02406951e-02	4.03189422e-04
8.54000000e-01	1.10293483e-02	4.48377156e-04
8.55000000e-01	1.05394311e-02	4.45460471e-04
8.56000000e-01	1.03846938e-02	4.51926647e-04
8.57000000e-01	1.06734006e-02	4.86928292e-04
8.58000000e-01	1.04643349e-02	4.77777797e-04
8.59000000e-01	1.06765633e-02	5.12975960e-04
8.60000000e-01	1.03882516e-02	5.10757663e-04
8.61000000e-01	1.03997698e-02	5.33802571e-04
8.62000000e-01	1.10936760e-02	5.89979032e-04
8.63000000e-01	1.03247945e-02	5.70765526e-04
8.64000000e-01	1.08833607e-02	6.15328279e-04
8.65000000e-01	1.00189733e-02	6.13661054e-04
8.66000000e-01	1.07174836e-02	6.74262630e-04
8.67000000e-01	1.06539719e-02	7.12268335e-04
8.68000000e-01	9.93241181e-03	7.16772508e-04
8.69000000e-01	1.09475026e-02	8.23822643e-04
8.70000000e-01	9.89503488e-03	8.50568418e-04
8.71000000e-01	9.90402732e-03	9.24425205e-04
8.72000000e-01	1.08514504e-02	1.15055593e-03
8.73000000e-01	1.02363755e-02	1.26808462e-03
8.74000000e-01	9.95256890e-03	1.60578005e-03
8.75000000e-01	1.10904773e-02	3.51747280e-03
