% Filename : SDL7_00012_00168.h5
% Date & Time : 30-Oct-2025 14:56:14
% X-ray Energy (keV) : 13.30001
% Exposure Time (s) : 0.500
% Beam Center : 1461.24000, 208.98300
% Sample to Detector Distance (SDD) (mm) : 1990.750
% Detector Pixel Size (mm) : 0.075
% Photodiode Value : 136347.000
% I0 of Sample : 0
% I0 of Standard : 1
% 
% q(A^-1)   I(q)    I(q)_SE
0.00000000e+00	6.62526183e-03	3.50575470e-03
2.50000000e-04	0.00000000e+00	0.00000000e+00
5.00000000e-04	0.00000000e+00	0.00000000e+00
7.50000000e-04	0.00000000e+00	0.00000000e+00
1.00000000e-03	0.00000000e+00	0.00000000e+00
1.25000000e-03	0.00000000e+00	0.00000000e+00
1.50000000e-03	0.00000000e+00	0.00000000e+00
1.75000000e-03	0.00000000e+00	0.00000000e+00
2.00000000e-03	0.00000000e+00	0.00000000e+00
2.25000000e-03	0.00000000e+00	0.00000000e+00
2.50000000e-03	0.00000000e+00	0.00000000e+00
2.75000000e-03	0.00000000e+00	0.00000000e+00
3.00000000e-03	0.00000000e+00	0.00000000e+00
3.25000000e-03	3.69601295e+01	2.65872495e+01
3.50000000e-03	8.85772925e+00	4.66616521e+00
3.75000000e-03	5.72481880e+00	2.11685097e+00
4.00000000e-03	4.22147280e+00	1.32123878e+00
4.25000000e-03	2.23494540e+00	3.83602719e-01
4.50000000e-03	2.79689148e+00	6.22654190e-01
4.75000000e-03	2.78895955e+00	5.48602797e-01
5.00000000e-03	2.11874376e+00	3.44589573e-01
5.25000000e-03	1.86175931e+00	3.07610377e-01
5.50000000e-03	1.52823634e+00	2.29004120e-01
5.75000000e-03	1.35446433e+00	2.08676621e-01
6.00000000e-03	1.10299270e+00	1.56141525e-01
6.25000000e-03	9.86997338e-01	1.34319864e-01
6.50000000e-03	8.60052787e-01	1.18451358e-01
6.75000000e-03	7.45852756e-01	1.00315174e-01
7.00000000e-03	6.64504971e-01	8.58608549e-02
7.25000000e-03	5.87831486e-01	7.35979108e-02
7.50000000e-03	5.29332286e-01	6.29007393e-02
7.75000000e-03	4.52384541e-01	5.20245840e-02
8.00000000e-03	4.29541784e-01	5.38393506e-02
8.25000000e-03	3.81360105e-01	4.30184825e-02
8.50000000e-03	3.41338427e-01	4.00503581e-02
8.75000000e-03	2.99943795e-01	3.26191314e-02
9.00000000e-03	2.74307902e-01	3.01385922e-02
9.25000000e-03	2.44390309e-01	2.50509364e-02
9.50000000e-03	2.24091682e-01	2.44761395e-02
9.75000000e-03	2.05025799e-01	2.05603049e-02
1.00000000e-02	1.83907112e-01	1.94847231e-02
1.02500000e-02	1.76033970e-01	1.81328174e-02
1.05000000e-02	1.58167342e-01	1.53329741e-02
1.07500000e-02	1.44113710e-01	1.34291334e-02
1.10000000e-02	1.32425763e-01	1.24939682e-02
1.12500000e-02	1.24438016e-01	1.22253966e-02
1.15000000e-02	1.16765913e-01	1.01819846e-02
1.17500000e-02	1.07560824e-01	1.05131800e-02
1.20000000e-02	1.00124445e-01	8.47328787e-03
1.22500000e-02	9.49362265e-02	7.99819650e-03
1.25000000e-02	8.99704629e-02	7.27064998e-03
1.27500000e-02	8.64372494e-02	7.00432392e-03
1.30000000e-02	8.23122083e-02	6.62489235e-03
1.32500000e-02	7.65797896e-02	6.02575692e-03
1.35000000e-02	7.27262955e-02	5.61330342e-03
1.37500000e-02	6.77903410e-02	5.29800792e-03
1.40000000e-02	6.32677802e-02	4.70723959e-03
1.42500000e-02	6.10559605e-02	4.50048221e-03
1.45000000e-02	5.85582065e-02	4.16282507e-03
1.47500000e-02	5.62889229e-02	3.98453162e-03
1.50000000e-02	5.34715801e-02	3.63096620e-03
1.52500000e-02	5.32976212e-02	3.64730688e-03
1.55000000e-02	4.93195874e-02	3.18595714e-03
1.57500000e-02	4.75054722e-02	3.13746463e-03
1.60000000e-02	4.71401342e-02	3.06562060e-03
1.62500000e-02	4.52215011e-02	3.04412960e-03
1.65000000e-02	4.30388986e-02	2.67056211e-03
1.67500000e-02	4.29167631e-02	2.65925326e-03
1.70000000e-02	4.17706568e-02	2.59237191e-03
1.72500000e-02	3.99014252e-02	2.43512989e-03
1.75000000e-02	3.99214925e-02	2.40892952e-03
1.77500000e-02	3.66784622e-02	2.10639362e-03
1.80000000e-02	3.63089228e-02	2.07280717e-03
1.82500000e-02	3.54536181e-02	2.01641562e-03
1.85000000e-02	3.56872055e-02	2.06029831e-03
1.87500000e-02	3.47257399e-02	1.93413054e-03
1.90000000e-02	3.37054193e-02	1.87331381e-03
1.92500000e-02	3.30416582e-02	1.78492739e-03
1.95000000e-02	3.18053653e-02	1.70716555e-03
1.97500000e-02	3.13237148e-02	1.65853722e-03
2.00000000e-02	3.07042861e-02	1.64861132e-03
2.02500000e-02	3.07068551e-02	1.58967170e-03
2.05000000e-02	2.98947859e-02	1.57530205e-03
2.07500000e-02	3.09937919e-02	1.61713702e-03
2.10000000e-02	2.89674298e-02	1.48442523e-03
2.12500000e-02	3.00011074e-02	1.56610215e-03
2.15000000e-02	2.88185926e-02	1.45888096e-03
2.17500000e-02	2.91812491e-02	1.47447248e-03
2.20000000e-02	2.83225975e-02	1.45724275e-03
2.22500000e-02	2.90343524e-02	1.48129281e-03
2.25000000e-02	2.76582396e-02	1.43621377e-03
2.27500000e-02	2.73149615e-02	1.37956780e-03
2.30000000e-02	2.72869774e-02	1.39894881e-03
2.32500000e-02	2.76627365e-02	1.39216433e-03
2.35000000e-02	2.76434751e-02	1.43476121e-03
2.37500000e-02	2.69351558e-02	1.36666104e-03
2.40000000e-02	2.71180886e-02	1.37643478e-03
2.42500000e-02	2.69818496e-02	1.34836221e-03
2.45000000e-02	2.73227445e-02	1.38452389e-03
2.47500000e-02	2.55003441e-02	1.28227959e-03
2.50000000e-02	2.54355732e-02	1.28830497e-03
2.52500000e-02	2.58156563e-02	1.32393114e-03
2.55000000e-02	2.61761696e-02	1.27512165e-03
2.57500000e-02	2.56292194e-02	1.28493345e-03
2.60000000e-02	2.56321186e-02	1.26438853e-03
2.62500000e-02	2.46771497e-02	1.24136094e-03
2.65000000e-02	2.54168307e-02	1.24870362e-03
2.67500000e-02	2.57561513e-02	1.26721867e-03
2.70000000e-02	2.40804953e-02	1.18173624e-03
2.72500000e-02	2.54374299e-02	1.23708816e-03
2.75000000e-02	2.52354125e-02	1.26566600e-03
2.77500000e-02	2.38259720e-02	1.18806822e-03
2.80000000e-02	2.42948904e-02	1.18007319e-03
2.82500000e-02	2.53451407e-02	1.22418933e-03
2.85000000e-02	2.53621229e-02	1.22847645e-03
2.87500000e-02	2.51676328e-02	1.22332697e-03
2.90000000e-02	2.46778850e-02	1.20684282e-03
2.92500000e-02	2.53572906e-02	1.18215976e-03
2.95000000e-02	2.46758911e-02	1.18175060e-03
2.97500000e-02	2.48750687e-02	1.18102606e-03
3.00000000e-02	2.50866204e-02	1.20659320e-03
3.02500000e-02	2.49631821e-02	1.19635374e-03
3.05000000e-02	2.46313381e-02	1.15087639e-03
3.07500000e-02	2.43813750e-02	1.14925763e-03
3.10000000e-02	2.42824327e-02	1.14295825e-03
3.12500000e-02	2.39442967e-02	1.15159293e-03
3.15000000e-02	2.38513975e-02	1.13021153e-03
3.17500000e-02	2.36850939e-02	1.09380867e-03
3.20000000e-02	2.46694131e-02	1.15524315e-03
3.22500000e-02	2.47108787e-02	1.16433480e-03
3.25000000e-02	2.40900813e-02	1.14346867e-03
3.27500000e-02	2.32263728e-02	1.08203328e-03
3.30000000e-02	2.32312291e-02	1.07994318e-03
3.32500000e-02	2.26078494e-02	1.04861448e-03
3.35000000e-02	2.32952512e-02	1.08735675e-03
3.37500000e-02	2.37562107e-02	1.08446120e-03
3.40000000e-02	2.37436172e-02	1.09611760e-03
3.42500000e-02	2.37723492e-02	1.08010306e-03
3.45000000e-02	2.22435932e-02	1.02561062e-03
3.47500000e-02	2.34526171e-02	1.07466305e-03
3.50000000e-02	2.22608001e-02	1.02228156e-03
3.52500000e-02	2.30510718e-02	1.05267176e-03
3.55000000e-02	2.25120329e-02	1.02533291e-03
3.57500000e-02	2.32932671e-02	1.06830928e-03
3.60000000e-02	2.25169525e-02	1.02885557e-03
3.62500000e-02	2.16097293e-02	9.91292887e-04
3.65000000e-02	2.17946876e-02	9.99027527e-04
3.67500000e-02	2.22908935e-02	1.00703793e-03
3.70000000e-02	2.20403338e-02	1.00377783e-03
3.72500000e-02	2.19579069e-02	9.93006471e-04
3.75000000e-02	2.22374493e-02	1.00360281e-03
3.77500000e-02	2.27322675e-02	1.01660220e-03
3.80000000e-02	2.13670149e-02	9.57520095e-04
3.82500000e-02	2.22458555e-02	9.86312202e-04
3.85000000e-02	2.14454266e-02	9.70601064e-04
3.87500000e-02	2.14503153e-02	9.53862721e-04
3.90000000e-02	2.19684130e-02	9.79868965e-04
3.92500000e-02	2.23207521e-02	9.72958412e-04
3.95000000e-02	2.22659778e-02	9.82199132e-04
3.97500000e-02	2.13334909e-02	9.44552620e-04
4.00000000e-02	2.15209374e-02	9.39072852e-04
4.02500000e-02	2.14475268e-02	9.47187226e-04
4.05000000e-02	2.25609834e-02	9.72472871e-04
4.07500000e-02	2.18005819e-02	9.38910702e-04
4.10000000e-02	2.15753527e-02	9.43848832e-04
4.12500000e-02	2.14479378e-02	9.23681039e-04
4.15000000e-02	2.19527022e-02	9.35001631e-04
4.17500000e-02	2.12213707e-02	9.15485178e-04
4.20000000e-02	2.18477219e-02	9.27276622e-04
4.22500000e-02	2.15406734e-02	9.21934666e-04
4.25000000e-02	2.22806037e-02	9.52080196e-04
4.27500000e-02	2.13979349e-02	9.10018090e-04
4.30000000e-02	2.15633390e-02	9.26837555e-04
4.32500000e-02	2.05205518e-02	8.74473342e-04
4.35000000e-02	2.08763616e-02	8.84960397e-04
4.37500000e-02	2.11202665e-02	8.89611098e-04
4.40000000e-02	2.13231192e-02	9.02304566e-04
4.42500000e-02	2.14736463e-02	9.13625725e-04
4.45000000e-02	2.11390866e-02	8.80548547e-04
4.47500000e-02	2.14746666e-02	8.86926319e-04
4.50000000e-02	2.05749633e-02	8.66859099e-04
4.52500000e-02	2.18537242e-02	9.11242863e-04
4.55000000e-02	2.17533049e-02	9.01917680e-04
4.57500000e-02	2.15510735e-02	8.97938761e-04
4.60000000e-02	2.10089974e-02	8.73904878e-04
4.62500000e-02	2.09007332e-02	8.61279957e-04
4.65000000e-02	2.11882324e-02	8.74791405e-04
4.67500000e-02	2.03766744e-02	8.40158525e-04
4.70000000e-02	2.05375626e-02	8.48775436e-04
4.72500000e-02	2.12692423e-02	8.82195726e-04
4.75000000e-02	2.09192661e-02	8.72248835e-04
4.77500000e-02	2.04227851e-02	8.37558614e-04
4.80000000e-02	2.14573927e-02	8.68458310e-04
4.82500000e-02	2.05951759e-02	8.38847098e-04
4.85000000e-02	2.18083450e-02	8.93452576e-04
4.87500000e-02	2.10493629e-02	8.55780771e-04
4.90000000e-02	2.09208601e-02	8.41531148e-04
4.92500000e-02	2.09681636e-02	8.44590041e-04
4.95000000e-02	2.12594243e-02	8.56688302e-04
4.97500000e-02	2.00770535e-02	8.16600410e-04
5.00000000e-02	2.05225645e-02	8.33392698e-04
5.02500000e-02	2.01555490e-02	8.15324795e-04
5.05000000e-02	2.05782652e-02	8.27874291e-04
5.07500000e-02	2.03976460e-02	8.13368681e-04
5.10000000e-02	2.15787258e-02	8.59125231e-04
5.12500000e-02	2.05779588e-02	8.26964235e-04
5.15000000e-02	2.09948846e-02	8.25011008e-04
5.17500000e-02	2.13425887e-02	8.47669085e-04
5.20000000e-02	2.13000767e-02	8.31248067e-04
5.22500000e-02	2.12424222e-02	8.47477431e-04
5.25000000e-02	2.05235089e-02	8.07111813e-04
5.27500000e-02	2.06966981e-02	8.11990439e-04
5.30000000e-02	2.09690895e-02	8.28565928e-04
5.32500000e-02	1.98344005e-02	7.84255051e-04
5.35000000e-02	2.10741679e-02	8.26445538e-04
5.37500000e-02	2.09044325e-02	8.11469271e-04
5.40000000e-02	2.02800546e-02	7.93143540e-04
5.42500000e-02	2.02026217e-02	7.88374625e-04
5.45000000e-02	2.09915481e-02	8.21191107e-04
5.47500000e-02	2.11930770e-02	8.20084501e-04
5.50000000e-02	2.08211361e-02	8.04674096e-04
5.52500000e-02	1.98193170e-02	7.73630315e-04
5.55000000e-02	2.05855571e-02	7.90595194e-04
5.57500000e-02	2.11620977e-02	8.23163181e-04
5.60000000e-02	2.02752982e-02	7.71941356e-04
5.62500000e-02	2.08192675e-02	8.01404117e-04
5.65000000e-02	2.08410943e-02	7.99991746e-04
5.67500000e-02	2.05981738e-02	7.95572348e-04
5.70000000e-02	2.02087913e-02	7.69054584e-04
5.72500000e-02	2.07378479e-02	7.94408381e-04
5.75000000e-02	2.02121679e-02	7.83385300e-04
5.77500000e-02	2.05420635e-02	7.71938789e-04
5.80000000e-02	2.08869038e-02	7.98729753e-04
5.82500000e-02	2.06420300e-02	7.84861786e-04
5.85000000e-02	2.00664181e-02	7.63576657e-04
5.87500000e-02	2.06481973e-02	7.77810569e-04
5.90000000e-02	2.03365341e-02	7.72564629e-04
5.92500000e-02	1.97627738e-02	7.47583549e-04
5.95000000e-02	2.04286348e-02	7.59374459e-04
5.97500000e-02	2.06599836e-02	7.74087208e-04
6.00000000e-02	2.05791413e-02	7.70279488e-04
6.02500000e-02	2.03548816e-02	7.62395661e-04
6.05000000e-02	2.00695193e-02	7.52919016e-04
6.07500000e-02	2.08041616e-02	7.73757895e-04
6.10000000e-02	2.02549558e-02	7.54276352e-04
6.12500000e-02	2.02686250e-02	7.45258472e-04
6.15000000e-02	2.04058206e-02	7.48739234e-04
6.17500000e-02	2.05817095e-02	7.57917502e-04
6.20000000e-02	1.98434484e-02	7.37636635e-04
6.22500000e-02	2.03461163e-02	7.52098582e-04
6.25000000e-02	2.04589478e-02	7.49881574e-04
6.27500000e-02	1.98879336e-02	7.30281866e-04
6.30000000e-02	2.03728757e-02	7.52097178e-04
6.32500000e-02	2.04559838e-02	7.49503000e-04
6.35000000e-02	2.02077397e-02	7.35606161e-04
6.37500000e-02	2.06111223e-02	7.60396383e-04
6.40000000e-02	2.04301675e-02	7.45729858e-04
6.42500000e-02	2.08179029e-02	7.54430313e-04
6.45000000e-02	2.05529397e-02	7.47262504e-04
6.47500000e-02	2.04540803e-02	7.41526138e-04
6.50000000e-02	1.99392999e-02	7.25141763e-04
6.52500000e-02	1.96310625e-02	7.12567908e-04
6.55000000e-02	1.97437827e-02	7.12750544e-04
6.57500000e-02	1.99492372e-02	7.21960321e-04
6.60000000e-02	1.98091325e-02	7.12306567e-04
6.62500000e-02	2.00450300e-02	7.22631280e-04
6.65000000e-02	1.96239317e-02	7.04616448e-04
6.67500000e-02	1.96786610e-02	7.02987060e-04
6.70000000e-02	2.00402750e-02	7.22578250e-04
6.72500000e-02	2.05403922e-02	7.34229570e-04
6.75000000e-02	1.98197047e-02	7.06759681e-04
6.77500000e-02	2.00970266e-02	7.17875258e-04
6.80000000e-02	1.95937825e-02	7.05000538e-04
6.82500000e-02	2.00335860e-02	7.11551737e-04
6.85000000e-02	1.98608720e-02	7.04399051e-04
6.87500000e-02	2.03379151e-02	7.16839452e-04
6.90000000e-02	1.98998673e-02	7.00612894e-04
6.92500000e-02	2.04271808e-02	7.16396896e-04
6.95000000e-02	2.08530998e-02	7.34098679e-04
6.97500000e-02	2.02013705e-02	7.14888646e-04
7.00000000e-02	1.99437159e-02	6.99416016e-04
7.02500000e-02	2.04711595e-02	7.20406906e-04
7.05000000e-02	2.00159985e-02	6.99474809e-04
7.07500000e-02	1.99140178e-02	7.01098097e-04
7.10000000e-02	1.96080945e-02	6.85232965e-04
7.12500000e-02	1.99673092e-02	7.01734958e-04
7.15000000e-02	1.99195897e-02	6.92406247e-04
7.17500000e-02	2.04787992e-02	7.10893691e-04
7.20000000e-02	2.00935790e-02	6.96865894e-04
7.22500000e-02	2.02718601e-02	7.06346692e-04
7.25000000e-02	2.02741756e-02	7.05477786e-04
7.27500000e-02	1.97991803e-02	6.85743899e-04
7.30000000e-02	1.98320340e-02	6.86313222e-04
7.32500000e-02	1.99166140e-02	6.87494944e-04
7.35000000e-02	2.03107981e-02	6.99746268e-04
7.37500000e-02	2.01223556e-02	6.86933277e-04
7.40000000e-02	2.00669829e-02	6.92182639e-04
7.42500000e-02	2.01246725e-02	6.90995502e-04
7.45000000e-02	1.99072198e-02	6.80069548e-04
7.47500000e-02	2.00222733e-02	6.89501771e-04
7.50000000e-02	1.97886302e-02	6.78011626e-04
7.52500000e-02	2.00755160e-02	6.90108842e-04
7.55000000e-02	2.00904934e-02	6.82930408e-04
7.57500000e-02	2.02456710e-02	6.86377722e-04
7.60000000e-02	2.02318512e-02	6.88354558e-04
7.62500000e-02	2.04456519e-02	6.96575274e-04
7.65000000e-02	2.03378523e-02	6.86316767e-04
7.67500000e-02	1.94939816e-02	6.60416045e-04
7.70000000e-02	1.98305617e-02	6.69402157e-04
7.72500000e-02	2.00430671e-02	6.86173883e-04
7.75000000e-02	1.93652490e-02	6.80516584e-04
7.77500000e-02	1.98744328e-02	6.97136133e-04
7.80000000e-02	1.99853218e-02	6.98588730e-04
7.82500000e-02	1.98579374e-02	6.98382898e-04
7.85000000e-02	2.00009241e-02	7.14024156e-04
7.87500000e-02	1.95773445e-02	6.92815253e-04
7.90000000e-02	2.03768641e-02	7.25563633e-04
7.92500000e-02	1.99374616e-02	7.13581390e-04
7.95000000e-02	1.98909799e-02	7.10089897e-04
7.97500000e-02	2.02854579e-02	7.30600172e-04
8.00000000e-02	2.00665305e-02	7.14927899e-04
8.02500000e-02	1.96133495e-02	7.03189898e-04
8.05000000e-02	1.93643677e-02	7.00507958e-04
8.07500000e-02	1.98927703e-02	7.17151938e-04
8.10000000e-02	1.98213427e-02	7.18167553e-04
8.12500000e-02	2.04733316e-02	7.38293886e-04
8.15000000e-02	2.00553196e-02	7.23103371e-04
8.17500000e-02	1.97157045e-02	7.17943501e-04
8.20000000e-02	1.94664361e-02	7.12289864e-04
8.22500000e-02	2.05531895e-02	7.55732354e-04
8.25000000e-02	1.98317760e-02	7.30116194e-04
8.27500000e-02	1.97277641e-02	7.23871686e-04
8.30000000e-02	1.98865068e-02	7.33781040e-04
8.32500000e-02	1.95279263e-02	7.20727126e-04
8.35000000e-02	2.01656600e-02	7.46690095e-04
8.37500000e-02	1.99176982e-02	7.22984270e-04
8.40000000e-02	2.04404270e-02	7.50479398e-04
8.42500000e-02	1.99213162e-02	7.38501122e-04
8.45000000e-02	1.95625788e-02	7.29631180e-04
8.47500000e-02	1.97344457e-02	7.37373074e-04
8.50000000e-02	2.03557162e-02	7.49012687e-04
8.52500000e-02	1.98137628e-02	7.37358869e-04
8.55000000e-02	2.03199490e-02	7.52435075e-04
8.57500000e-02	1.95358456e-02	7.31538818e-04
8.60000000e-02	2.02179405e-02	7.52087016e-04
8.62500000e-02	1.94133114e-02	7.17995643e-04
8.65000000e-02	1.97233192e-02	7.32190121e-04
8.67500000e-02	2.03440286e-02	7.49263306e-04
8.70000000e-02	2.01044184e-02	7.35806605e-04
8.72500000e-02	1.97760442e-02	7.12852598e-04
8.75000000e-02	1.96438871e-02	6.99316303e-04
8.77500000e-02	1.99230125e-02	7.04454225e-04
8.80000000e-02	1.97054449e-02	7.02558841e-04
8.82500000e-02	1.99354935e-02	6.98492815e-04
8.85000000e-02	1.98899609e-02	6.97263622e-04
8.87500000e-02	1.97189401e-02	6.72442019e-04
8.90000000e-02	1.97164211e-02	6.85489868e-04
8.92500000e-02	1.96831934e-02	6.81278086e-04
8.95000000e-02	2.04934750e-02	7.01890432e-04
8.97500000e-02	1.97555771e-02	6.69223388e-04
9.00000000e-02	1.93529134e-02	6.67804646e-04
9.02500000e-02	2.00156135e-02	6.81856586e-04
9.05000000e-02	2.02214734e-02	6.86308067e-04
9.07500000e-02	1.95457183e-02	6.63013018e-04
9.10000000e-02	2.03527614e-02	6.91489356e-04
9.12500000e-02	1.93548886e-02	6.51470739e-04
9.15000000e-02	1.93828069e-02	6.56986765e-04
9.17500000e-02	1.96618183e-02	6.63529703e-04
9.20000000e-02	1.93437079e-02	6.49615905e-04
9.22500000e-02	1.94354971e-02	6.57355780e-04
9.25000000e-02	1.95214552e-02	6.49996106e-04
9.27500000e-02	2.00063026e-02	6.64189341e-04
9.30000000e-02	1.95471983e-02	6.50043526e-04
9.32500000e-02	1.98296580e-02	6.62843787e-04
9.35000000e-02	1.95305960e-02	6.48968934e-04
9.37500000e-02	1.96121562e-02	6.49636610e-04
9.40000000e-02	1.93842242e-02	6.49391919e-04
9.42500000e-02	1.98227057e-02	6.51907459e-04
9.45000000e-02	1.98645757e-02	6.49389558e-04
9.47500000e-02	1.96954883e-02	6.46232508e-04
9.50000000e-02	1.98526234e-02	6.53401922e-04
9.52500000e-02	1.94913949e-02	6.39932950e-04
9.55000000e-02	1.95254186e-02	6.38355797e-04
9.57500000e-02	1.94910920e-02	6.38565894e-04
9.60000000e-02	1.97989745e-02	6.46506255e-04
9.62500000e-02	1.98571935e-02	6.44444898e-04
9.65000000e-02	1.98985821e-02	6.49197719e-04
9.67500000e-02	2.04197816e-02	6.53667578e-04
9.70000000e-02	1.93738670e-02	6.25959235e-04
9.72500000e-02	1.95034871e-02	6.32316415e-04
9.75000000e-02	1.96283549e-02	6.37388024e-04
9.77500000e-02	2.00453398e-02	6.38566467e-04
9.80000000e-02	1.98164484e-02	6.37410686e-04
9.82500000e-02	1.95628121e-02	6.27905187e-04
9.85000000e-02	1.96237358e-02	6.25843916e-04
9.87500000e-02	1.90848385e-02	6.08543542e-04
9.90000000e-02	2.02604558e-02	6.44676143e-04
9.92500000e-02	1.96330252e-02	6.32234193e-04
9.95000000e-02	2.00273289e-02	6.37719963e-04
9.97500000e-02	1.98722768e-02	6.32767579e-04
1.00000000e-01	1.93681558e-02	5.02957206e-04
1.00500000e-01	1.96654207e-02	4.41612634e-04
1.01000000e-01	1.99115046e-02	4.41901450e-04
1.01500000e-01	1.97506576e-02	4.37344020e-04
1.02000000e-01	2.00114678e-02	4.42892886e-04
1.02500000e-01	1.99045566e-02	4.39266897e-04
1.03000000e-01	1.97616310e-02	4.37429661e-04
1.03500000e-01	1.95460872e-02	4.29411773e-04
1.04000000e-01	1.96801019e-02	4.28017513e-04
1.04500000e-01	1.96878462e-02	4.32298638e-04
1.05000000e-01	1.96109111e-02	4.27499053e-04
1.05500000e-01	1.97159698e-02	4.28330285e-04
1.06000000e-01	1.95587059e-02	4.23306042e-04
1.06500000e-01	1.96393561e-02	4.22840224e-04
1.07000000e-01	1.99346990e-02	4.33730557e-04
1.07500000e-01	1.95966845e-02	4.36991054e-04
1.08000000e-01	1.99827640e-02	4.46775068e-04
1.08500000e-01	1.99316586e-02	4.48466760e-04
1.09000000e-01	1.98154788e-02	4.50187998e-04
1.09500000e-01	1.97202535e-02	4.51299497e-04
1.10000000e-01	1.98853047e-02	4.48652109e-04
1.10500000e-01	1.97072215e-02	4.36445739e-04
1.11000000e-01	1.95812052e-02	4.28827848e-04
1.11500000e-01	1.95597374e-02	4.23547053e-04
1.12000000e-01	1.98002583e-02	4.23964759e-04
1.12500000e-01	1.98494649e-02	4.21186387e-04
1.13000000e-01	1.99161946e-02	4.21412499e-04
1.13500000e-01	1.96680852e-02	4.15821988e-04
1.14000000e-01	1.99625369e-02	4.19111910e-04
1.14500000e-01	1.95320617e-02	4.14882101e-04
1.15000000e-01	1.95267218e-02	4.08115700e-04
1.15500000e-01	1.92988687e-02	4.07276773e-04
1.16000000e-01	1.94747770e-02	4.05298195e-04
1.16500000e-01	1.98651834e-02	4.14435144e-04
1.17000000e-01	1.98700913e-02	4.11140610e-04
1.17500000e-01	1.95394449e-02	4.05696753e-04
1.18000000e-01	1.97474660e-02	4.10148282e-04
1.18500000e-01	1.98111840e-02	4.08570173e-04
1.19000000e-01	1.98352261e-02	4.08319297e-04
1.19500000e-01	1.98449185e-02	4.06752966e-04
1.20000000e-01	1.96981342e-02	4.02632310e-04
1.20500000e-01	1.95576206e-02	3.98412241e-04
1.21000000e-01	1.96419156e-02	4.01009383e-04
1.21500000e-01	1.99337889e-02	4.04911864e-04
1.22000000e-01	1.96246410e-02	3.97746552e-04
1.22500000e-01	1.99414478e-02	4.01761304e-04
1.23000000e-01	1.97614784e-02	3.99663218e-04
1.23500000e-01	1.94166328e-02	3.93131349e-04
1.24000000e-01	1.93827232e-02	3.90991585e-04
1.24500000e-01	1.95280635e-02	3.92428033e-04
1.25000000e-01	1.97030836e-02	3.95622936e-04
1.25500000e-01	1.95324110e-02	3.91433674e-04
1.26000000e-01	1.99427051e-02	3.96181682e-04
1.26500000e-01	1.96572006e-02	3.89949745e-04
1.27000000e-01	1.96994268e-02	3.90696063e-04
1.27500000e-01	1.97266394e-02	3.90908133e-04
1.28000000e-01	1.96967483e-02	3.89231771e-04
1.28500000e-01	1.96633979e-02	3.88002194e-04
1.29000000e-01	1.99903332e-02	3.92776000e-04
1.29500000e-01	1.94845709e-02	3.83183735e-04
1.30000000e-01	1.93736988e-02	3.81651373e-04
1.30500000e-01	1.96744097e-02	3.85959782e-04
1.31000000e-01	1.98444709e-02	3.87991830e-04
1.31500000e-01	2.00371337e-02	3.89499444e-04
1.32000000e-01	1.97449201e-02	3.85036240e-04
1.32500000e-01	1.94363316e-02	3.77703341e-04
1.33000000e-01	1.96684352e-02	3.80416592e-04
1.33500000e-01	1.93299653e-02	3.72880958e-04
1.34000000e-01	1.97717929e-02	3.80464916e-04
1.34500000e-01	1.95869672e-02	3.74662545e-04
1.35000000e-01	1.92123568e-02	3.68112697e-04
1.35500000e-01	1.97433562e-02	3.76904943e-04
1.36000000e-01	1.96953667e-02	3.74761042e-04
1.36500000e-01	1.94649741e-02	3.72975700e-04
1.37000000e-01	1.95728668e-02	3.72757640e-04
1.37500000e-01	1.96604274e-02	3.73862737e-04
1.38000000e-01	1.91850744e-02	3.63442574e-04
1.38500000e-01	1.95932135e-02	3.71509065e-04
1.39000000e-01	1.92985572e-02	3.66003748e-04
1.39500000e-01	1.97002466e-02	3.72261103e-04
1.40000000e-01	1.94115453e-02	3.69331445e-04
1.40500000e-01	1.97266729e-02	3.71574678e-04
1.41000000e-01	1.94118645e-02	3.64186863e-04
1.41500000e-01	1.93536632e-02	3.66067352e-04
1.42000000e-01	1.92386120e-02	3.62188025e-04
1.42500000e-01	1.93311165e-02	3.63455901e-04
1.43000000e-01	1.95593389e-02	3.66405632e-04
1.43500000e-01	1.95129328e-02	3.63415422e-04
1.44000000e-01	1.97194025e-02	3.68409064e-04
1.44500000e-01	1.95517896e-02	3.62538459e-04
1.45000000e-01	1.95183795e-02	3.62730792e-04
1.45500000e-01	1.93271705e-02	3.58113601e-04
1.46000000e-01	1.95490177e-02	3.61359523e-04
1.46500000e-01	1.93157186e-02	3.58879920e-04
1.47000000e-01	1.91579109e-02	3.53378354e-04
1.47500000e-01	1.93875703e-02	3.59045002e-04
1.48000000e-01	1.92561166e-02	3.53770837e-04
1.48500000e-01	1.94404136e-02	3.58415627e-04
1.49000000e-01	1.93205233e-02	3.54063124e-04
1.49500000e-01	1.94983491e-02	3.56726850e-04
1.50000000e-01	1.93762275e-02	3.52240610e-04
1.50500000e-01	1.93683686e-02	3.54963457e-04
1.51000000e-01	1.95615536e-02	3.56970677e-04
1.51500000e-01	1.93405639e-02	3.50216180e-04
1.52000000e-01	1.94357112e-02	3.50442785e-04
1.52500000e-01	1.90339467e-02	3.44876816e-04
1.53000000e-01	1.96855288e-02	3.54203217e-04
1.53500000e-01	1.93456828e-02	3.48754011e-04
1.54000000e-01	1.94744479e-02	3.50304321e-04
1.54500000e-01	1.90282034e-02	3.49530693e-04
1.55000000e-01	1.92550514e-02	3.58141001e-04
1.55500000e-01	1.90964403e-02	3.57787762e-04
1.56000000e-01	1.92374220e-02	3.62801821e-04
1.56500000e-01	1.91477918e-02	3.60234845e-04
1.57000000e-01	1.95745145e-02	3.68900160e-04
1.57500000e-01	1.90503042e-02	3.52197835e-04
1.58000000e-01	1.89849878e-02	3.45533923e-04
1.58500000e-01	1.94779394e-02	3.50550391e-04
1.59000000e-01	1.92374791e-02	3.47536436e-04
1.59500000e-01	1.92588026e-02	3.46334059e-04
1.60000000e-01	1.90711024e-02	3.43109053e-04
1.60500000e-01	1.90860694e-02	3.41477496e-04
1.61000000e-01	1.92162482e-02	3.44817014e-04
1.61500000e-01	1.91201988e-02	3.41229235e-04
1.62000000e-01	1.92713268e-02	3.43875961e-04
1.62500000e-01	1.91289254e-02	3.39972763e-04
1.63000000e-01	1.92133863e-02	3.39336443e-04
1.63500000e-01	1.92078293e-02	3.40498632e-04
1.64000000e-01	1.89497718e-02	3.33525644e-04
1.64500000e-01	1.89156076e-02	3.32878375e-04
1.65000000e-01	1.92137710e-02	3.37669487e-04
1.65500000e-01	1.89623116e-02	3.34100856e-04
1.66000000e-01	1.91035674e-02	3.36057909e-04
1.66500000e-01	1.90355943e-02	3.32790858e-04
1.67000000e-01	1.88694189e-02	3.30752750e-04
1.67500000e-01	1.92569833e-02	3.36094904e-04
1.68000000e-01	1.90247969e-02	3.32005611e-04
1.68500000e-01	1.89157755e-02	3.29122400e-04
1.69000000e-01	1.90397843e-02	3.30799276e-04
1.69500000e-01	1.91181926e-02	3.30532016e-04
1.70000000e-01	1.88855637e-02	3.27113415e-04
1.70500000e-01	1.92019480e-02	3.30076193e-04
1.71000000e-01	1.90892766e-02	3.29751522e-04
1.71500000e-01	1.87873410e-02	3.23461877e-04
1.72000000e-01	1.93861606e-02	3.33556077e-04
1.72500000e-01	1.86172705e-02	3.19948520e-04
1.73000000e-01	1.87804322e-02	3.23846468e-04
1.73500000e-01	1.86403049e-02	3.19271507e-04
1.74000000e-01	1.88436545e-02	3.22367177e-04
1.74500000e-01	1.90688900e-02	3.24190093e-04
1.75000000e-01	1.89503905e-02	3.20057267e-04
1.75500000e-01	1.89303300e-02	3.19776338e-04
1.76000000e-01	1.87170288e-02	3.17096247e-04
1.76500000e-01	1.89138806e-02	3.19002454e-04
1.77000000e-01	1.86067883e-02	3.13319567e-04
1.77500000e-01	1.88803513e-02	3.18366129e-04
1.78000000e-01	1.91971637e-02	3.22525950e-04
1.78500000e-01	1.86119964e-02	3.15191792e-04
1.79000000e-01	1.84647078e-02	3.11520063e-04
1.79500000e-01	1.89254895e-02	3.17852798e-04
1.80000000e-01	1.87284940e-02	3.16720664e-04
1.80500000e-01	1.83097044e-02	3.09328081e-04
1.81000000e-01	1.88048587e-02	3.16046544e-04
1.81500000e-01	1.86144083e-02	3.10300018e-04
1.82000000e-01	1.86820265e-02	3.14243887e-04
1.82500000e-01	1.86341307e-02	3.10890237e-04
1.83000000e-01	1.86047854e-02	3.11340765e-04
1.83500000e-01	1.86873597e-02	3.12792491e-04
1.84000000e-01	1.87505205e-02	3.12512076e-04
1.84500000e-01	1.85850388e-02	3.08847964e-04
1.85000000e-01	1.87861017e-02	3.11995134e-04
1.85500000e-01	1.87149257e-02	3.10666800e-04
1.86000000e-01	1.83250463e-02	3.04550040e-04
1.86500000e-01	1.85122494e-02	3.05909089e-04
1.87000000e-01	1.84466032e-02	3.05712693e-04
1.87500000e-01	1.83871769e-02	3.02718688e-04
1.88000000e-01	1.84165701e-02	3.04169151e-04
1.88500000e-01	1.87248755e-02	3.08258035e-04
1.89000000e-01	1.86319658e-02	3.05170859e-04
1.89500000e-01	1.84270714e-02	3.02034781e-04
1.90000000e-01	1.87397266e-02	3.06859777e-04
1.90500000e-01	1.84337816e-02	3.02490999e-04
1.91000000e-01	1.85528951e-02	3.03147432e-04
1.91500000e-01	1.84612669e-02	3.02543974e-04
1.92000000e-01	1.82677154e-02	2.98192524e-04
1.92500000e-01	1.85046634e-02	3.01621613e-04
1.93000000e-01	1.84961766e-02	3.01381799e-04
1.93500000e-01	1.84518773e-02	3.00313464e-04
1.94000000e-01	1.85308950e-02	3.01822895e-04
1.94500000e-01	1.83301446e-02	2.97670403e-04
1.95000000e-01	1.85215692e-02	2.99835466e-04
1.95500000e-01	1.82964864e-02	2.94796036e-04
1.96000000e-01	1.83961349e-02	2.97293482e-04
1.96500000e-01	1.84617990e-02	2.98153395e-04
1.97000000e-01	1.84525527e-02	2.95935068e-04
1.97500000e-01	1.83358239e-02	2.95580847e-04
1.98000000e-01	1.84286990e-02	2.97390236e-04
1.98500000e-01	1.84797852e-02	2.96602329e-04
1.99000000e-01	1.81389877e-02	2.92058982e-04
1.99500000e-01	1.81104430e-02	2.90095297e-04
2.00000000e-01	1.82286753e-02	2.92869931e-04
2.00500000e-01	1.83819173e-02	2.94353742e-04
2.01000000e-01	1.83593681e-02	2.92086894e-04
2.01500000e-01	1.82679461e-02	2.90826613e-04
2.02000000e-01	1.81808458e-02	2.89591984e-04
2.02500000e-01	1.82409372e-02	2.89132877e-04
2.03000000e-01	1.80622638e-02	2.87633711e-04
2.03500000e-01	1.81490624e-02	2.87594012e-04
2.04000000e-01	1.81277483e-02	2.86659187e-04
2.04500000e-01	1.83129176e-02	2.91232341e-04
2.05000000e-01	1.82767801e-02	2.88815527e-04
2.05500000e-01	1.80689436e-02	2.86214047e-04
2.06000000e-01	1.83699626e-02	2.89318544e-04
2.06500000e-01	1.82100974e-02	2.88176557e-04
2.07000000e-01	1.82645429e-02	2.87862985e-04
2.07500000e-01	1.80839635e-02	2.83549139e-04
2.08000000e-01	1.81510233e-02	2.86733838e-04
2.08500000e-01	1.81759174e-02	2.85328018e-04
2.09000000e-01	1.78770545e-02	2.81535680e-04
2.09500000e-01	1.81666329e-02	2.85055411e-04
2.10000000e-01	1.81534418e-02	2.83869993e-04
2.10500000e-01	1.82093257e-02	2.84606176e-04
2.11000000e-01	1.79386911e-02	2.80285697e-04
2.11500000e-01	1.77720813e-02	2.78777141e-04
2.12000000e-01	1.82085349e-02	2.83366094e-04
2.12500000e-01	1.81238296e-02	2.81771174e-04
2.13000000e-01	1.81059373e-02	2.80434995e-04
2.13500000e-01	1.81831675e-02	2.82227637e-04
2.14000000e-01	1.79659236e-02	2.78899918e-04
2.14500000e-01	1.80280078e-02	2.78720120e-04
2.15000000e-01	1.81103349e-02	2.81390699e-04
2.15500000e-01	1.79518916e-02	2.77364336e-04
2.16000000e-01	1.81619164e-02	2.79840017e-04
2.16500000e-01	1.81774306e-02	2.79829250e-04
2.17000000e-01	1.80556511e-02	2.82166766e-04
2.17500000e-01	1.81945892e-02	2.88858593e-04
2.18000000e-01	1.79603121e-02	2.86459276e-04
2.18500000e-01	1.81286327e-02	2.89444081e-04
2.19000000e-01	1.80308470e-02	2.90050288e-04
2.19500000e-01	1.79031846e-02	2.89620653e-04
2.20000000e-01	1.78917405e-02	2.90895577e-04
2.20500000e-01	1.80589466e-02	2.92261179e-04
2.21000000e-01	1.79952960e-02	2.94491913e-04
2.21500000e-01	1.78868471e-02	2.92979791e-04
2.22000000e-01	1.78898384e-02	2.93262322e-04
2.22500000e-01	1.77105508e-02	2.91460657e-04
2.23000000e-01	1.80705591e-02	2.97759952e-04
2.23500000e-01	1.77457775e-02	2.92879820e-04
2.24000000e-01	1.81557510e-02	3.00146680e-04
2.24500000e-01	1.79706203e-02	2.97660337e-04
2.25000000e-01	1.76226969e-02	2.93095005e-04
2.25500000e-01	1.76437562e-02	2.92055330e-04
2.26000000e-01	1.80180170e-02	2.99966943e-04
2.26500000e-01	1.78562949e-02	2.92657728e-04
2.27000000e-01	1.80056614e-02	2.92544599e-04
2.27500000e-01	1.80470095e-02	2.90837395e-04
2.28000000e-01	1.79366157e-02	2.88077957e-04
2.28500000e-01	1.77869710e-02	2.85095176e-04
2.29000000e-01	1.77579875e-02	2.82203267e-04
2.29500000e-01	1.79066852e-02	2.84277477e-04
2.30000000e-01	1.81799319e-02	2.86025648e-04
2.30500000e-01	1.78672656e-02	2.80707555e-04
2.31000000e-01	1.79417976e-02	2.81691585e-04
2.31500000e-01	1.77875311e-02	2.79605877e-04
2.32000000e-01	1.80740801e-02	2.83011288e-04
2.32500000e-01	1.76908031e-02	2.76529619e-04
2.33000000e-01	1.77659440e-02	2.75609112e-04
2.33500000e-01	1.77279842e-02	2.75863873e-04
2.34000000e-01	1.79474055e-02	2.77308149e-04
2.34500000e-01	1.77490055e-02	2.73861787e-04
2.35000000e-01	1.77926939e-02	2.74742108e-04
2.35500000e-01	1.78326605e-02	2.74479498e-04
2.36000000e-01	1.76134098e-02	2.70822942e-04
2.36500000e-01	1.77800369e-02	2.72985841e-04
2.37000000e-01	1.76226183e-02	2.69694474e-04
2.37500000e-01	1.78213801e-02	2.72232898e-04
2.38000000e-01	1.77732966e-02	2.71376777e-04
2.38500000e-01	1.78751998e-02	2.73414916e-04
2.39000000e-01	1.77489200e-02	2.70335104e-04
2.39500000e-01	1.75561770e-02	2.67522937e-04
2.40000000e-01	1.77410063e-02	2.69359361e-04
2.40500000e-01	1.77123501e-02	2.66413372e-04
2.41000000e-01	1.76361619e-02	2.66518237e-04
2.41500000e-01	1.78748680e-02	2.68777647e-04
2.42000000e-01	1.78736851e-02	2.69373653e-04
2.42500000e-01	1.76172128e-02	2.64499538e-04
2.43000000e-01	1.75217239e-02	2.63388324e-04
2.43500000e-01	1.76439892e-02	2.65207862e-04
2.44000000e-01	1.77991419e-02	2.65945230e-04
2.44500000e-01	1.76496186e-02	2.64788745e-04
2.45000000e-01	1.75964380e-02	2.62137727e-04
2.45500000e-01	1.77271952e-02	2.64315534e-04
2.46000000e-01	1.75647612e-02	2.61269916e-04
2.46500000e-01	1.77416042e-02	2.63634235e-04
2.47000000e-01	1.75991679e-02	2.62518323e-04
2.47500000e-01	1.74552528e-02	2.57276185e-04
2.48000000e-01	1.74107983e-02	2.58633031e-04
2.48500000e-01	1.76691316e-02	2.61229931e-04
2.49000000e-01	1.76471186e-02	2.60840349e-04
2.49500000e-01	1.75557927e-02	2.59632282e-04
2.50000000e-01	1.75858670e-02	2.59791499e-04
2.50500000e-01	1.77487792e-02	2.61781464e-04
2.51000000e-01	1.73726698e-02	2.55588391e-04
2.51500000e-01	1.75844176e-02	2.58021945e-04
2.52000000e-01	1.75339832e-02	2.58350409e-04
2.52500000e-01	1.73176130e-02	2.55468218e-04
2.53000000e-01	1.75141057e-02	2.57818063e-04
2.53500000e-01	1.74267380e-02	2.55434832e-04
2.54000000e-01	1.75478248e-02	2.57971422e-04
2.54500000e-01	1.75021566e-02	2.56164089e-04
2.55000000e-01	1.75151777e-02	2.55937436e-04
2.55500000e-01	1.72877806e-02	2.52931970e-04
2.56000000e-01	1.74916925e-02	2.54159794e-04
2.56500000e-01	1.73954823e-02	2.53634901e-04
2.57000000e-01	1.74354547e-02	2.53209041e-04
2.57500000e-01	1.72478293e-02	2.50885787e-04
2.58000000e-01	1.74979372e-02	2.53983522e-04
2.58500000e-01	1.73560421e-02	2.51760905e-04
2.59000000e-01	1.75018124e-02	2.53857473e-04
2.59500000e-01	1.73073242e-02	2.50336107e-04
2.60000000e-01	1.72453556e-02	2.49874926e-04
2.60500000e-01	1.74350702e-02	2.51072433e-04
2.61000000e-01	1.72723301e-02	2.50542565e-04
2.61500000e-01	1.72957960e-02	2.50914077e-04
2.62000000e-01	1.74154840e-02	2.49666688e-04
2.62500000e-01	1.71062537e-02	2.46698936e-04
2.63000000e-01	1.71661609e-02	2.45592424e-04
2.63500000e-01	1.70565515e-02	2.44998498e-04
2.64000000e-01	1.73499253e-02	2.49799638e-04
2.64500000e-01	1.71535355e-02	2.46512855e-04
2.65000000e-01	1.73492083e-02	2.48544192e-04
2.65500000e-01	1.73952652e-02	2.48344933e-04
2.66000000e-01	1.73430555e-02	2.48492642e-04
2.66500000e-01	1.72454106e-02	2.45027070e-04
2.67000000e-01	1.72348076e-02	2.44737480e-04
2.67500000e-01	1.73802066e-02	2.47162829e-04
2.68000000e-01	1.72183887e-02	2.44147280e-04
2.68500000e-01	1.72705470e-02	2.44596858e-04
2.69000000e-01	1.72624225e-02	2.44106799e-04
2.69500000e-01	1.72678999e-02	2.43202213e-04
2.70000000e-01	1.69450454e-02	2.40512631e-04
2.70500000e-01	1.73033907e-02	2.43939752e-04
2.71000000e-01	1.71203675e-02	2.41565768e-04
2.71500000e-01	1.70677821e-02	2.40624216e-04
2.72000000e-01	1.72434211e-02	2.42478329e-04
2.72500000e-01	1.71433095e-02	2.41791263e-04
2.73000000e-01	1.71757284e-02	2.41921173e-04
2.73500000e-01	1.71741492e-02	2.40921893e-04
2.74000000e-01	1.71928885e-02	2.41728238e-04
2.74500000e-01	1.71279455e-02	2.40499164e-04
2.75000000e-01	1.70557763e-02	2.39310220e-04
2.75500000e-01	1.68886116e-02	2.36904259e-04
2.76000000e-01	1.69354830e-02	2.36625744e-04
2.76500000e-01	1.71805603e-02	2.40624907e-04
2.77000000e-01	1.71871506e-02	2.40083571e-04
2.77500000e-01	1.71063142e-02	2.38821127e-04
2.78000000e-01	1.68705603e-02	2.35148105e-04
2.78500000e-01	1.70101645e-02	2.37306879e-04
2.79000000e-01	1.71376884e-02	2.39411982e-04
2.79500000e-01	1.71853791e-02	2.38285103e-04
2.80000000e-01	1.71420866e-02	2.38134421e-04
2.80500000e-01	1.69622679e-02	2.36491156e-04
2.81000000e-01	1.69832247e-02	2.35871106e-04
2.81500000e-01	1.70612519e-02	2.36458179e-04
2.82000000e-01	1.70334586e-02	2.36581609e-04
2.82500000e-01	1.67150186e-02	2.31556513e-04
2.83000000e-01	1.72525842e-02	2.38853248e-04
2.83500000e-01	1.68562513e-02	2.33003672e-04
2.84000000e-01	1.71635955e-02	2.35628578e-04
2.84500000e-01	1.69595949e-02	2.33195139e-04
2.85000000e-01	1.68964746e-02	2.32235569e-04
2.85500000e-01	1.70858305e-02	2.35205495e-04
2.86000000e-01	1.68912523e-02	2.32298270e-04
2.86500000e-01	1.69588472e-02	2.32571871e-04
2.87000000e-01	1.67712511e-02	2.30428017e-04
2.87500000e-01	1.70902764e-02	2.33261398e-04
2.88000000e-01	1.69447964e-02	2.31092540e-04
2.88500000e-01	1.70112149e-02	2.32920556e-04
2.89000000e-01	1.68348061e-02	2.29957511e-04
2.89500000e-01	1.69757121e-02	2.31930298e-04
2.90000000e-01	1.68042587e-02	2.29270033e-04
2.90500000e-01	1.69498407e-02	2.31137482e-04
2.91000000e-01	1.68116681e-02	2.28687174e-04
2.91500000e-01	1.69582291e-02	2.30304631e-04
2.92000000e-01	1.70622463e-02	2.31065523e-04
2.92500000e-01	1.70555570e-02	2.30132916e-04
2.93000000e-01	1.67200532e-02	2.27312753e-04
2.93500000e-01	1.70300583e-02	2.30848390e-04
2.94000000e-01	1.67070757e-02	2.26296790e-04
2.94500000e-01	1.69041186e-02	2.28062296e-04
2.95000000e-01	1.69914365e-02	2.29412468e-04
2.95500000e-01	1.68597413e-02	2.27496746e-04
2.96000000e-01	1.68298115e-02	2.26291342e-04
2.96500000e-01	1.68204474e-02	2.27201355e-04
2.97000000e-01	1.69732075e-02	2.29077502e-04
2.97500000e-01	1.68169601e-02	2.25539656e-04
2.98000000e-01	1.67807134e-02	2.25912491e-04
2.98500000e-01	1.68395206e-02	2.26698804e-04
2.99000000e-01	1.69312201e-02	2.26673342e-04
2.99500000e-01	1.67554338e-02	2.25296433e-04
3.00000000e-01	1.66946773e-02	2.24426051e-04
3.00500000e-01	1.68582393e-02	2.25719963e-04
3.01000000e-01	1.69526358e-02	2.25865476e-04
3.01500000e-01	1.67660275e-02	2.24829897e-04
3.02000000e-01	1.68173997e-02	2.24807477e-04
3.02500000e-01	1.65177369e-02	2.20883215e-04
3.03000000e-01	1.67462178e-02	2.24108855e-04
3.03500000e-01	1.67513489e-02	2.23052556e-04
3.04000000e-01	1.67162507e-02	2.23220998e-04
3.04500000e-01	1.67924120e-02	2.22858202e-04
3.05000000e-01	1.66153823e-02	2.21586138e-04
3.05500000e-01	1.66773009e-02	2.21389538e-04
3.06000000e-01	1.66842955e-02	2.19924327e-04
3.06500000e-01	1.67656442e-02	2.22228578e-04
3.07000000e-01	1.69650392e-02	2.24218873e-04
3.07500000e-01	1.65599038e-02	2.19481680e-04
3.08000000e-01	1.64732467e-02	2.18002490e-04
3.08500000e-01	1.66234574e-02	2.19887411e-04
3.09000000e-01	1.67628758e-02	2.21088806e-04
3.09500000e-01	1.65678301e-02	2.19021239e-04
3.10000000e-01	1.65578998e-02	2.18900163e-04
3.10500000e-01	1.68954124e-02	2.22670565e-04
3.11000000e-01	1.65058959e-02	2.17657734e-04
3.11500000e-01	1.66724666e-02	2.19073093e-04
3.12000000e-01	1.66574118e-02	2.19274867e-04
3.12500000e-01	1.66353925e-02	2.19652506e-04
3.13000000e-01	1.66181987e-02	2.17727157e-04
3.13500000e-01	1.65889266e-02	2.18393030e-04
3.14000000e-01	1.65636518e-02	2.17431524e-04
3.14500000e-01	1.65241907e-02	2.16500756e-04
3.15000000e-01	1.65933845e-02	2.17712079e-04
3.15500000e-01	1.65392906e-02	2.16069489e-04
3.16000000e-01	1.65359177e-02	2.16248139e-04
3.16500000e-01	1.65635491e-02	2.15988255e-04
3.17000000e-01	1.63629359e-02	2.13488899e-04
3.17500000e-01	1.63476125e-02	2.14128650e-04
3.18000000e-01	1.65636680e-02	2.16082341e-04
3.18500000e-01	1.64454080e-02	2.14248986e-04
3.19000000e-01	1.63061050e-02	2.12007967e-04
3.19500000e-01	1.64804902e-02	2.14837931e-04
3.20000000e-01	1.63827269e-02	2.13687829e-04
3.20500000e-01	1.64632924e-02	2.13891764e-04
3.21000000e-01	1.65111182e-02	2.14783973e-04
3.21500000e-01	1.63379155e-02	2.12563100e-04
3.22000000e-01	1.62642241e-02	2.10999625e-04
3.22500000e-01	1.62768673e-02	2.11031579e-04
3.23000000e-01	1.64515698e-02	2.12582729e-04
3.23500000e-01	1.64037550e-02	2.12170458e-04
3.24000000e-01	1.65164887e-02	2.13049008e-04
3.24500000e-01	1.61395472e-02	2.08942041e-04
3.25000000e-01	1.64261667e-02	2.11116759e-04
3.25500000e-01	1.62636308e-02	2.10089426e-04
3.26000000e-01	1.63116664e-02	2.10451585e-04
3.26500000e-01	1.63296618e-02	2.10234733e-04
3.27000000e-01	1.62163678e-02	2.08723438e-04
3.27500000e-01	1.63471730e-02	2.09527853e-04
3.28000000e-01	1.63337435e-02	2.09569543e-04
3.28500000e-01	1.64347084e-02	2.11009193e-04
3.29000000e-01	1.63378312e-02	2.09429266e-04
3.29500000e-01	1.62369386e-02	2.08582619e-04
3.30000000e-01	1.62344574e-02	2.07496380e-04
3.30500000e-01	1.62010835e-02	2.08333891e-04
3.31000000e-01	1.62624141e-02	2.07710188e-04
3.31500000e-01	1.62046017e-02	2.07380604e-04
3.32000000e-01	1.60454438e-02	2.05593285e-04
3.32500000e-01	1.62304179e-02	2.06851266e-04
3.33000000e-01	1.60890247e-02	2.05546838e-04
3.33500000e-01	1.62169021e-02	2.06986103e-04
3.34000000e-01	1.59971998e-02	2.04511101e-04
3.34500000e-01	1.60645423e-02	2.05501680e-04
3.35000000e-01	1.61083994e-02	2.05187451e-04
3.35500000e-01	1.62503278e-02	2.06694902e-04
3.36000000e-01	1.62063175e-02	2.04771685e-04
3.36500000e-01	1.62336340e-02	2.06674142e-04
3.37000000e-01	1.61137505e-02	2.03992505e-04
3.37500000e-01	1.61094817e-02	2.05190627e-04
3.38000000e-01	1.60310240e-02	2.03639053e-04
3.38500000e-01	1.60473057e-02	2.02759403e-04
3.39000000e-01	1.61988922e-02	2.04995773e-04
3.39500000e-01	1.60544534e-02	2.02710246e-04
3.40000000e-01	1.59958410e-02	2.02434831e-04
3.40500000e-01	1.59948135e-02	2.01662136e-04
3.41000000e-01	1.60832186e-02	2.02412955e-04
3.41500000e-01	1.60925639e-02	2.03975551e-04
3.42000000e-01	1.59197724e-02	2.00294798e-04
3.42500000e-01	1.60753471e-02	2.02509794e-04
3.43000000e-01	1.60253996e-02	2.01448809e-04
3.43500000e-01	1.59360512e-02	2.00201913e-04
3.44000000e-01	1.61901656e-02	2.03105197e-04
3.44500000e-01	1.60452477e-02	2.01580321e-04
3.45000000e-01	1.60404402e-02	2.01186222e-04
3.45500000e-01	1.58344461e-02	1.98633235e-04
3.46000000e-01	1.58016765e-02	1.97790863e-04
3.46500000e-01	1.60132523e-02	2.00353087e-04
3.47000000e-01	1.60273667e-02	2.00773379e-04
3.47500000e-01	1.59741884e-02	1.99823731e-04
3.48000000e-01	1.59909959e-02	1.99801583e-04
3.48500000e-01	1.57052722e-02	1.96843340e-04
3.49000000e-01	1.58902146e-02	1.97697198e-04
3.49500000e-01	1.58648863e-02	1.98105586e-04
3.50000000e-01	1.59057685e-02	1.61490765e-04
3.51000000e-01	1.58078809e-02	1.39398302e-04
3.52000000e-01	1.58254787e-02	1.39409809e-04
3.53000000e-01	1.57415938e-02	1.37871911e-04
3.54000000e-01	1.58524949e-02	1.38626109e-04
3.55000000e-01	1.59188460e-02	1.39188774e-04
3.56000000e-01	1.56825426e-02	1.37652465e-04
3.57000000e-01	1.57561241e-02	1.40564348e-04
3.58000000e-01	1.57485520e-02	1.42017003e-04
3.59000000e-01	1.56675503e-02	1.42792797e-04
3.60000000e-01	1.57303394e-02	1.43828688e-04
3.61000000e-01	1.56390478e-02	1.44152805e-04
3.62000000e-01	1.56969022e-02	1.44742090e-04
3.63000000e-01	1.56758455e-02	1.45256120e-04
3.64000000e-01	1.55179852e-02	1.44858247e-04
3.65000000e-01	1.54767258e-02	1.44453389e-04
3.66000000e-01	1.55235966e-02	1.43340915e-04
3.67000000e-01	1.56414343e-02	1.42419528e-04
3.68000000e-01	1.56261682e-02	1.41044043e-04
3.69000000e-01	1.54676158e-02	1.39254464e-04
3.70000000e-01	1.55535452e-02	1.38871038e-04
3.71000000e-01	1.56416776e-02	1.41563892e-04
3.72000000e-01	1.54410530e-02	1.40774192e-04
3.73000000e-01	1.55031189e-02	1.41887201e-04
3.74000000e-01	1.54718776e-02	1.41726003e-04
3.75000000e-01	1.55295098e-02	1.41883704e-04
3.76000000e-01	1.55201391e-02	1.42111220e-04
3.77000000e-01	1.55312053e-02	1.42334670e-04
3.78000000e-01	1.54292616e-02	1.41325376e-04
3.79000000e-01	1.54849505e-02	1.41291908e-04
3.80000000e-01	1.54179672e-02	1.40754775e-04
3.81000000e-01	1.55020062e-02	1.41344733e-04
3.82000000e-01	1.54430494e-02	1.40850259e-04
3.83000000e-01	1.53656414e-02	1.40460431e-04
3.84000000e-01	1.53589353e-02	1.40129864e-04
3.85000000e-01	1.54349810e-02	1.41322442e-04
3.86000000e-01	1.53376247e-02	1.39939667e-04
3.87000000e-01	1.53851390e-02	1.40568379e-04
3.88000000e-01	1.53577393e-02	1.40128869e-04
3.89000000e-01	1.51721001e-02	1.38103867e-04
3.90000000e-01	1.53528346e-02	1.39658186e-04
3.91000000e-01	1.52448714e-02	1.38654433e-04
3.92000000e-01	1.52486721e-02	1.38873110e-04
3.93000000e-01	1.51811217e-02	1.38241116e-04
3.94000000e-01	1.52274801e-02	1.38720966e-04
3.95000000e-01	1.51927523e-02	1.38180408e-04
3.96000000e-01	1.52722804e-02	1.39130957e-04
3.97000000e-01	1.51924571e-02	1.38249713e-04
3.98000000e-01	1.50705027e-02	1.37074833e-04
3.99000000e-01	1.50047740e-02	1.36540054e-04
4.00000000e-01	1.52492518e-02	1.39298530e-04
4.01000000e-01	1.50861768e-02	1.37200731e-04
4.02000000e-01	1.51934004e-02	1.38315786e-04
4.03000000e-01	1.51894338e-02	1.38424546e-04
4.04000000e-01	1.50363382e-02	1.37006918e-04
4.05000000e-01	1.51574328e-02	1.38105166e-04
4.06000000e-01	1.50260744e-02	1.36781709e-04
4.07000000e-01	1.50557240e-02	1.37009429e-04
4.08000000e-01	1.50734179e-02	1.36671175e-04
4.09000000e-01	1.50597330e-02	1.37300576e-04
4.10000000e-01	1.51893815e-02	1.37899445e-04
4.11000000e-01	1.49084662e-02	1.35524206e-04
4.12000000e-01	1.50300230e-02	1.36398998e-04
4.13000000e-01	1.49642300e-02	1.35836718e-04
4.14000000e-01	1.48327546e-02	1.34863433e-04
4.15000000e-01	1.49479349e-02	1.35422753e-04
4.16000000e-01	1.48782543e-02	1.34826892e-04
4.17000000e-01	1.48531670e-02	1.34628073e-04
4.18000000e-01	1.48688239e-02	1.36165420e-04
4.19000000e-01	1.49532641e-02	1.38960711e-04
4.20000000e-01	1.50702307e-02	1.40440322e-04
4.21000000e-01	1.50532945e-02	1.40813311e-04
4.22000000e-01	1.50306433e-02	1.40764130e-04
4.23000000e-01	1.49070407e-02	1.40651653e-04
4.24000000e-01	1.51761092e-02	1.43161796e-04
4.25000000e-01	1.49977966e-02	1.41685666e-04
4.26000000e-01	1.49387765e-02	1.41510797e-04
4.27000000e-01	1.49725116e-02	1.41530910e-04
4.28000000e-01	1.49424486e-02	1.41702696e-04
4.29000000e-01	1.48821894e-02	1.41216171e-04
4.30000000e-01	1.48422828e-02	1.40942384e-04
4.31000000e-01	1.48547955e-02	1.40774496e-04
4.32000000e-01	1.49809818e-02	1.41818369e-04
4.33000000e-01	1.49960102e-02	1.42455717e-04
4.34000000e-01	1.48291083e-02	1.41251149e-04
4.35000000e-01	1.49275410e-02	1.42145038e-04
4.36000000e-01	1.48800953e-02	1.41846151e-04
4.37000000e-01	1.47609728e-02	1.40878581e-04
4.38000000e-01	1.47989939e-02	1.41623157e-04
4.39000000e-01	1.49531509e-02	1.42915520e-04
4.40000000e-01	1.47905518e-02	1.41847922e-04
4.41000000e-01	1.47353370e-02	1.41308709e-04
4.42000000e-01	1.48096994e-02	1.42221647e-04
4.43000000e-01	1.47879992e-02	1.42600692e-04
4.44000000e-01	1.48045648e-02	1.42473127e-04
4.45000000e-01	1.47718211e-02	1.42564456e-04
4.46000000e-01	1.48024040e-02	1.42534288e-04
4.47000000e-01	1.47051189e-02	1.42249945e-04
4.48000000e-01	1.48170306e-02	1.43469809e-04
4.49000000e-01	1.47453845e-02	1.43008106e-04
4.50000000e-01	1.47379825e-02	1.42752620e-04
4.51000000e-01	1.46851154e-02	1.42859848e-04
4.52000000e-01	1.46392728e-02	1.42339570e-04
4.53000000e-01	1.46762328e-02	1.43056777e-04
4.54000000e-01	1.47628795e-02	1.43302555e-04
4.55000000e-01	1.46572654e-02	1.42845300e-04
4.56000000e-01	1.45964431e-02	1.42576792e-04
4.57000000e-01	1.47079189e-02	1.43246152e-04
4.58000000e-01	1.46517430e-02	1.43174140e-04
4.59000000e-01	1.47249457e-02	1.43948667e-04
4.60000000e-01	1.47084750e-02	1.44433861e-04
4.61000000e-01	1.46305252e-02	1.43341018e-04
4.62000000e-01	1.45157412e-02	1.42397196e-04
4.63000000e-01	1.46219049e-02	1.43434571e-04
4.64000000e-01	1.46188637e-02	1.42845422e-04
4.65000000e-01	1.45958821e-02	1.43204081e-04
4.66000000e-01	1.45987650e-02	1.43879451e-04
4.67000000e-01	1.46185404e-02	1.43530142e-04
4.68000000e-01	1.45032676e-02	1.42436392e-04
4.69000000e-01	1.44666640e-02	1.42751200e-04
4.70000000e-01	1.44395045e-02	1.42332408e-04
4.71000000e-01	1.44903637e-02	1.42626307e-04
4.72000000e-01	1.43222448e-02	1.41350168e-04
4.73000000e-01	1.43744603e-02	1.41767029e-04
4.74000000e-01	1.44419950e-02	1.42134564e-04
4.75000000e-01	1.44751227e-02	1.42466292e-04
4.76000000e-01	1.45053451e-02	1.42777962e-04
4.77000000e-01	1.44730390e-02	1.42291718e-04
4.78000000e-01	1.45443740e-02	1.43583708e-04
4.79000000e-01	1.44383027e-02	1.42800114e-04
4.80000000e-01	1.44026787e-02	1.41733783e-04
4.81000000e-01	1.44281911e-02	1.42361354e-04
4.82000000e-01	1.44072546e-02	1.42293689e-04
4.83000000e-01	1.43235212e-02	1.41486557e-04
4.84000000e-01	1.44323716e-02	1.42750913e-04
4.85000000e-01	1.43686168e-02	1.42509991e-04
4.86000000e-01	1.42588899e-02	1.41184567e-04
4.87000000e-01	1.42990913e-02	1.41220949e-04
4.88000000e-01	1.43495180e-02	1.42269693e-04
4.89000000e-01	1.42771362e-02	1.41680863e-04
4.90000000e-01	1.44395152e-02	1.43284605e-04
4.91000000e-01	1.44353232e-02	1.43230011e-04
4.92000000e-01	1.42985514e-02	1.42132499e-04
4.93000000e-01	1.42682104e-02	1.42140326e-04
4.94000000e-01	1.43002716e-02	1.41873621e-04
4.95000000e-01	1.44332657e-02	1.44631122e-04
4.96000000e-01	1.43286296e-02	1.47989855e-04
4.97000000e-01	1.41405367e-02	1.49109732e-04
4.98000000e-01	1.43569969e-02	1.52762289e-04
4.99000000e-01	1.43762226e-02	1.54439629e-04
5.00000000e-01	1.43182095e-02	1.56221527e-04
5.01000000e-01	1.42695702e-02	1.56913065e-04
5.02000000e-01	1.43333928e-02	1.59218126e-04
5.03000000e-01	1.42971882e-02	1.60156842e-04
5.04000000e-01	1.43338855e-02	1.61444387e-04
5.05000000e-01	1.43529629e-02	1.59844180e-04
5.06000000e-01	1.43891139e-02	1.56434625e-04
5.07000000e-01	1.44920193e-02	1.55688642e-04
5.08000000e-01	1.42638380e-02	1.52676433e-04
5.09000000e-01	1.43708180e-02	1.53099863e-04
5.10000000e-01	1.42559075e-02	1.51578778e-04
5.11000000e-01	1.42876840e-02	1.50897692e-04
5.12000000e-01	1.41378733e-02	1.49628682e-04
5.13000000e-01	1.41913109e-02	1.50257343e-04
5.14000000e-01	1.41522787e-02	1.48825470e-04
5.15000000e-01	1.40834966e-02	1.47761705e-04
5.16000000e-01	1.40443052e-02	1.47417416e-04
5.17000000e-01	1.39522454e-02	1.46482836e-04
5.18000000e-01	1.40721012e-02	1.47230293e-04
5.19000000e-01	1.41728304e-02	1.47407926e-04
5.20000000e-01	1.41300694e-02	1.47032132e-04
5.21000000e-01	1.40351698e-02	1.46069952e-04
5.22000000e-01	1.41208290e-02	1.46666554e-04
5.23000000e-01	1.39080072e-02	1.44838908e-04
5.24000000e-01	1.40298316e-02	1.45932486e-04
5.25000000e-01	1.41991672e-02	1.46830144e-04
5.26000000e-01	1.40232593e-02	1.45604921e-04
5.27000000e-01	1.41480821e-02	1.46590188e-04
5.28000000e-01	1.40573091e-02	1.46088103e-04
5.29000000e-01	1.41592077e-02	1.46780294e-04
5.30000000e-01	1.39447786e-02	1.44853774e-04
5.31000000e-01	1.40401609e-02	1.46028438e-04
5.32000000e-01	1.39903642e-02	1.45742577e-04
5.33000000e-01	1.39387865e-02	1.44999791e-04
5.34000000e-01	1.40089791e-02	1.45743305e-04
5.35000000e-01	1.39457814e-02	1.44720626e-04
5.36000000e-01	1.39333042e-02	1.44137972e-04
5.37000000e-01	1.38854369e-02	1.44149581e-04
5.38000000e-01	1.38568563e-02	1.43506243e-04
5.39000000e-01	1.39591524e-02	1.44999133e-04
5.40000000e-01	1.39563016e-02	1.44978245e-04
5.41000000e-01	1.38651058e-02	1.44168629e-04
5.42000000e-01	1.39809456e-02	1.45235327e-04
5.43000000e-01	1.38826243e-02	1.43943658e-04
5.44000000e-01	1.37459500e-02	1.42834719e-04
5.45000000e-01	1.37936436e-02	1.42992057e-04
5.46000000e-01	1.38890446e-02	1.44174114e-04
5.47000000e-01	1.37795879e-02	1.43356487e-04
5.48000000e-01	1.37829283e-02	1.43227267e-04
5.49000000e-01	1.38283596e-02	1.43323869e-04
5.50000000e-01	1.37850614e-02	1.42899419e-04
5.51000000e-01	1.37375588e-02	1.42083825e-04
5.52000000e-01	1.38012080e-02	1.42347801e-04
5.53000000e-01	1.37191527e-02	1.41861255e-04
5.54000000e-01	1.36920641e-02	1.41359305e-04
5.55000000e-01	1.39090588e-02	1.43973471e-04
5.56000000e-01	1.37112251e-02	1.41384224e-04
5.57000000e-01	1.36681082e-02	1.41155410e-04
5.58000000e-01	1.37218671e-02	1.41630828e-04
5.59000000e-01	1.36911692e-02	1.41251405e-04
5.60000000e-01	1.37071071e-02	1.41052981e-04
5.61000000e-01	1.37782673e-02	1.41806965e-04
5.62000000e-01	1.36137207e-02	1.40842898e-04
5.63000000e-01	1.35639491e-02	1.40499189e-04
5.64000000e-01	1.37365815e-02	1.41670553e-04
5.65000000e-01	1.37356034e-02	1.41727884e-04
5.66000000e-01	1.35561765e-02	1.40221832e-04
5.67000000e-01	1.34893259e-02	1.39625892e-04
5.68000000e-01	1.35626182e-02	1.40362048e-04
5.69000000e-01	1.36361930e-02	1.40235279e-04
5.70000000e-01	1.36217955e-02	1.40577545e-04
5.71000000e-01	1.36175564e-02	1.40277143e-04
5.72000000e-01	1.36026354e-02	1.40562400e-04
5.73000000e-01	1.35355409e-02	1.40260633e-04
5.74000000e-01	1.35458611e-02	1.40111651e-04
5.75000000e-01	1.35084376e-02	1.39533017e-04
5.76000000e-01	1.34107248e-02	1.38871766e-04
5.77000000e-01	1.34318815e-02	1.39301357e-04
5.78000000e-01	1.36532626e-02	1.41227646e-04
5.79000000e-01	1.34571814e-02	1.39817378e-04
5.80000000e-01	1.35361764e-02	1.40248171e-04
5.81000000e-01	1.35120744e-02	1.40091527e-04
5.82000000e-01	1.34582438e-02	1.39384039e-04
5.83000000e-01	1.34806211e-02	1.39340528e-04
5.84000000e-01	1.33611509e-02	1.39101500e-04
5.85000000e-01	1.33605475e-02	1.38289989e-04
5.86000000e-01	1.33504629e-02	1.38552524e-04
5.87000000e-01	1.34246136e-02	1.38863649e-04
5.88000000e-01	1.34071267e-02	1.39255793e-04
5.89000000e-01	1.34081100e-02	1.39209473e-04
5.90000000e-01	1.33085110e-02	1.38519574e-04
5.91000000e-01	1.34026716e-02	1.38899959e-04
5.92000000e-01	1.32963755e-02	1.37653775e-04
5.93000000e-01	1.34014085e-02	1.38993816e-04
5.94000000e-01	1.32754933e-02	1.38190068e-04
5.95000000e-01	1.33506018e-02	1.38904133e-04
5.96000000e-01	1.32349667e-02	1.37977359e-04
5.97000000e-01	1.32401225e-02	1.37298975e-04
5.98000000e-01	1.33113059e-02	1.38354203e-04
5.99000000e-01	1.32188632e-02	1.37725638e-04
6.00000000e-01	1.31475276e-02	1.36695517e-04
6.01000000e-01	1.32685893e-02	1.38082191e-04
6.02000000e-01	1.32158781e-02	1.37081296e-04
6.03000000e-01	1.31687614e-02	1.37395593e-04
6.04000000e-01	1.31901931e-02	1.37532867e-04
6.05000000e-01	1.32600290e-02	1.37935705e-04
6.06000000e-01	1.31915709e-02	1.37586650e-04
6.07000000e-01	1.32139634e-02	1.38039710e-04
6.08000000e-01	1.31294495e-02	1.37194410e-04
6.09000000e-01	1.31350965e-02	1.37145521e-04
6.10000000e-01	1.32189978e-02	1.38280486e-04
6.11000000e-01	1.33032998e-02	1.38555123e-04
6.12000000e-01	1.30569488e-02	1.36427229e-04
6.13000000e-01	1.32923662e-02	1.39033331e-04
6.14000000e-01	1.31486047e-02	1.37015585e-04
6.15000000e-01	1.31805703e-02	1.37307217e-04
6.16000000e-01	1.30733402e-02	1.36370526e-04
6.17000000e-01	1.31735965e-02	1.37473001e-04
6.18000000e-01	1.30190693e-02	1.36401687e-04
6.19000000e-01	1.31288653e-02	1.36634371e-04
6.20000000e-01	1.30676087e-02	1.35986686e-04
6.21000000e-01	1.31871398e-02	1.36694409e-04
6.22000000e-01	1.31185426e-02	1.36750725e-04
6.23000000e-01	1.30983849e-02	1.35840959e-04
6.24000000e-01	1.30363487e-02	1.35354610e-04
6.25000000e-01	1.30371394e-02	1.35243655e-04
6.26000000e-01	1.30648372e-02	1.35304209e-04
6.27000000e-01	1.30930840e-02	1.35629827e-04
6.28000000e-01	1.30414016e-02	1.35525172e-04
6.29000000e-01	1.30594213e-02	1.35124663e-04
6.30000000e-01	1.29603864e-02	1.34552711e-04
6.31000000e-01	1.30506324e-02	1.35056166e-04
6.32000000e-01	1.30032486e-02	1.34772972e-04
6.33000000e-01	1.30603557e-02	1.35142531e-04
6.34000000e-01	1.30605722e-02	1.38615401e-04
6.35000000e-01	1.31778848e-02	1.43913792e-04
6.36000000e-01	1.31511994e-02	1.46461722e-04
6.37000000e-01	1.31231473e-02	1.48256797e-04
6.38000000e-01	1.29735177e-02	1.48736810e-04
6.39000000e-01	1.29867892e-02	1.50980261e-04
6.40000000e-01	1.30666666e-02	1.53588061e-04
6.41000000e-01	1.31101935e-02	1.54692938e-04
6.42000000e-01	1.30986847e-02	1.56723486e-04
6.43000000e-01	1.30403376e-02	1.56369173e-04
6.44000000e-01	1.29030858e-02	1.49309022e-04
6.45000000e-01	1.30266097e-02	1.48591498e-04
6.46000000e-01	1.30603122e-02	1.48044781e-04
6.47000000e-01	1.31819985e-02	1.47279280e-04
6.48000000e-01	1.31479700e-02	1.46313529e-04
6.49000000e-01	1.30445537e-02	1.44634703e-04
6.50000000e-01	1.30963323e-02	1.44210923e-04
6.51000000e-01	1.31438116e-02	1.43999204e-04
6.52000000e-01	1.29767543e-02	1.41691048e-04
6.53000000e-01	1.30192995e-02	1.42061153e-04
6.54000000e-01	1.29768003e-02	1.40828784e-04
6.55000000e-01	1.29466814e-02	1.40651047e-04
6.56000000e-01	1.30465870e-02	1.41720466e-04
6.57000000e-01	1.30478044e-02	1.41159004e-04
6.58000000e-01	1.29975882e-02	1.40427134e-04
6.59000000e-01	1.29976183e-02	1.40453206e-04
6.60000000e-01	1.28555158e-02	1.38794691e-04
6.61000000e-01	1.28534301e-02	1.38861305e-04
6.62000000e-01	1.30477308e-02	1.40856765e-04
6.63000000e-01	1.30557451e-02	1.41093403e-04
6.64000000e-01	1.27943003e-02	1.37798343e-04
6.65000000e-01	1.29731043e-02	1.40537047e-04
6.66000000e-01	1.29317092e-02	1.39216105e-04
6.67000000e-01	1.29997070e-02	1.39988695e-04
6.68000000e-01	1.28630610e-02	1.38300776e-04
6.69000000e-01	1.28424171e-02	1.38340194e-04
6.70000000e-01	1.28862724e-02	1.38443559e-04
6.71000000e-01	1.29147581e-02	1.38581900e-04
6.72000000e-01	1.29082298e-02	1.38158269e-04
6.73000000e-01	1.27128409e-02	1.36859392e-04
6.74000000e-01	1.28354701e-02	1.38104364e-04
6.75000000e-01	1.27104219e-02	1.36662897e-04
6.76000000e-01	1.27012137e-02	1.36522507e-04
6.77000000e-01	1.28088229e-02	1.37427994e-04
6.78000000e-01	1.27533939e-02	1.36954345e-04
6.79000000e-01	1.28711042e-02	1.37938941e-04
6.80000000e-01	1.28651503e-02	1.37898151e-04
6.81000000e-01	1.27959818e-02	1.37422636e-04
6.82000000e-01	1.28120233e-02	1.37415861e-04
6.83000000e-01	1.26765381e-02	1.35917338e-04
6.84000000e-01	1.28561458e-02	1.37673017e-04
6.85000000e-01	1.26104266e-02	1.35362209e-04
6.86000000e-01	1.27349430e-02	1.36489789e-04
6.87000000e-01	1.26760668e-02	1.35765164e-04
6.88000000e-01	1.27695291e-02	1.36742249e-04
6.89000000e-01	1.26727331e-02	1.35701440e-04
6.90000000e-01	1.28226798e-02	1.37743180e-04
6.91000000e-01	1.27353105e-02	1.37048271e-04
6.92000000e-01	1.28678251e-02	1.37695192e-04
6.93000000e-01	1.26867890e-02	1.35955420e-04
6.94000000e-01	1.26905722e-02	1.35717148e-04
6.95000000e-01	1.26167324e-02	1.35144766e-04
6.96000000e-01	1.27502581e-02	1.36911829e-04
6.97000000e-01	1.26651982e-02	1.35877674e-04
6.98000000e-01	1.25967497e-02	1.35035159e-04
6.99000000e-01	1.25976806e-02	1.34715748e-04
7.00000000e-01	1.26178512e-02	1.35058481e-04
7.01000000e-01	1.26831509e-02	1.35692699e-04
7.02000000e-01	1.26401254e-02	1.34981202e-04
7.03000000e-01	1.25810554e-02	1.34776855e-04
7.04000000e-01	1.26001057e-02	1.34759259e-04
7.05000000e-01	1.25475056e-02	1.34224170e-04
7.06000000e-01	1.24232763e-02	1.33291318e-04
7.07000000e-01	1.23580434e-02	1.32718431e-04
7.08000000e-01	1.25994191e-02	1.34257428e-04
7.09000000e-01	1.24883052e-02	1.33409339e-04
7.10000000e-01	1.23966462e-02	1.32902654e-04
7.11000000e-01	1.23675805e-02	1.32775343e-04
7.12000000e-01	1.23759458e-02	1.32419406e-04
7.13000000e-01	1.24974541e-02	1.33628946e-04
7.14000000e-01	1.24024229e-02	1.33223909e-04
7.15000000e-01	1.25235022e-02	1.33933426e-04
7.16000000e-01	1.23908790e-02	1.32575287e-04
7.17000000e-01	1.24759606e-02	1.33372040e-04
7.18000000e-01	1.24779463e-02	1.33246749e-04
7.19000000e-01	1.22316702e-02	1.31227159e-04
7.20000000e-01	1.24013661e-02	1.32848917e-04
7.21000000e-01	1.24722901e-02	1.33730580e-04
7.22000000e-01	1.23864822e-02	1.33033179e-04
7.23000000e-01	1.23562683e-02	1.32030053e-04
7.24000000e-01	1.25041451e-02	1.34047330e-04
7.25000000e-01	1.22965149e-02	1.31799565e-04
7.26000000e-01	1.22993473e-02	1.31344961e-04
7.27000000e-01	1.22586356e-02	1.31686968e-04
7.28000000e-01	1.22547056e-02	1.31430043e-04
7.29000000e-01	1.22619493e-02	1.31614636e-04
7.30000000e-01	1.22193457e-02	1.30932842e-04
7.31000000e-01	1.21966635e-02	1.31215164e-04
7.32000000e-01	1.22926236e-02	1.31866409e-04
7.33000000e-01	1.23146747e-02	1.31980057e-04
7.34000000e-01	1.21513236e-02	1.30114922e-04
7.35000000e-01	1.22156906e-02	1.30908812e-04
7.36000000e-01	1.22514985e-02	1.30703916e-04
7.37000000e-01	1.22763522e-02	1.30734765e-04
7.38000000e-01	1.22802967e-02	1.30529287e-04
7.39000000e-01	1.21203333e-02	1.28720805e-04
7.40000000e-01	1.20946884e-02	1.28362517e-04
7.41000000e-01	1.21387289e-02	1.28576884e-04
7.42000000e-01	1.21596919e-02	1.28541313e-04
7.43000000e-01	1.21775948e-02	1.29293794e-04
7.44000000e-01	1.21635388e-02	1.29178672e-04
7.45000000e-01	1.21611629e-02	1.29225016e-04
7.46000000e-01	1.22132534e-02	1.29143163e-04
7.47000000e-01	1.19892118e-02	1.27521543e-04
7.48000000e-01	1.20041912e-02	1.27739894e-04
7.49000000e-01	1.21626899e-02	1.29664452e-04
7.50000000e-01	1.21096214e-02	1.28200751e-04
7.51000000e-01	1.20654804e-02	1.28313286e-04
7.52000000e-01	1.21338233e-02	1.29069206e-04
7.53000000e-01	1.20410973e-02	1.28178856e-04
7.54000000e-01	1.20809783e-02	1.28654508e-04
7.55000000e-01	1.20691942e-02	1.28377601e-04
7.56000000e-01	1.20813860e-02	1.28412889e-04
7.57000000e-01	1.20992905e-02	1.28386266e-04
7.58000000e-01	1.19145332e-02	1.27064667e-04
7.59000000e-01	1.19082475e-02	1.26739168e-04
7.60000000e-01	1.19487145e-02	1.27084991e-04
7.61000000e-01	1.19168075e-02	1.26821720e-04
7.62000000e-01	1.18470255e-02	1.25504555e-04
7.63000000e-01	1.18018803e-02	1.24934147e-04
7.64000000e-01	1.19399295e-02	1.26270287e-04
7.65000000e-01	1.19283128e-02	1.25873295e-04
7.66000000e-01	1.18589307e-02	1.24943732e-04
7.67000000e-01	1.17265951e-02	1.23853988e-04
7.68000000e-01	1.18103895e-02	1.24507947e-04
7.69000000e-01	1.19502498e-02	1.26100305e-04
7.70000000e-01	1.17593428e-02	1.23961300e-04
7.71000000e-01	1.19383046e-02	1.25859819e-04
7.72000000e-01	1.18558022e-02	1.29168282e-04
7.73000000e-01	1.17670506e-02	1.32003356e-04
7.74000000e-01	1.18291861e-02	1.35106294e-04
7.75000000e-01	1.17287555e-02	1.36751478e-04
7.76000000e-01	1.17783696e-02	1.39801188e-04
7.77000000e-01	1.18094540e-02	1.41976410e-04
7.78000000e-01	1.17858648e-02	1.43234318e-04
7.79000000e-01	1.18212651e-02	1.45135487e-04
7.80000000e-01	1.16828480e-02	1.45399561e-04
7.81000000e-01	1.18205083e-02	1.48719830e-04
7.82000000e-01	1.17540117e-02	1.49086684e-04
7.83000000e-01	1.15544071e-02	1.48919270e-04
7.84000000e-01	1.16970281e-02	1.52427006e-04
7.85000000e-01	1.17299480e-02	1.53896126e-04
7.86000000e-01	1.16974363e-02	1.55826016e-04
7.87000000e-01	1.16989222e-02	1.57466897e-04
7.88000000e-01	1.16468788e-02	1.58630393e-04
7.89000000e-01	1.16063740e-02	1.59785292e-04
7.90000000e-01	1.15856707e-02	1.60403454e-04
7.91000000e-01	1.17285985e-02	1.63950579e-04
7.92000000e-01	1.17070977e-02	1.64892301e-04
7.93000000e-01	1.15982930e-02	1.64864284e-04
7.94000000e-01	1.15736332e-02	1.66474231e-04
7.95000000e-01	1.15427212e-02	1.67921638e-04
7.96000000e-01	1.16301893e-02	1.70472222e-04
7.97000000e-01	1.14285166e-02	1.70225644e-04
7.98000000e-01	1.14635513e-02	1.72010020e-04
7.99000000e-01	1.17261043e-02	1.78257283e-04
8.00000000e-01	1.13541983e-02	1.73814322e-04
8.01000000e-01	1.13397488e-02	1.75891214e-04
8.02000000e-01	1.14755590e-02	1.78457495e-04
8.03000000e-01	1.15262066e-02	1.82851648e-04
8.04000000e-01	1.16033163e-02	1.85366459e-04
8.05000000e-01	1.14442308e-02	1.84601748e-04
8.06000000e-01	1.13375568e-02	1.85873726e-04
8.07000000e-01	1.13200186e-02	1.86920163e-04
8.08000000e-01	1.13758947e-02	1.89872472e-04
8.09000000e-01	1.12813589e-02	1.90328541e-04
8.10000000e-01	1.14018412e-02	1.94313523e-04
8.11000000e-01	1.13115924e-02	1.96903588e-04
8.12000000e-01	1.13174313e-02	1.97621085e-04
8.13000000e-01	1.14139097e-02	2.01763431e-04
8.14000000e-01	1.13201387e-02	2.01590469e-04
8.15000000e-01	1.11751058e-02	2.03746067e-04
8.16000000e-01	1.12955265e-02	2.06973705e-04
8.17000000e-01	1.10645608e-02	2.06008470e-04
8.18000000e-01	1.12097652e-02	2.09867169e-04
8.19000000e-01	1.11392250e-02	2.12189962e-04
8.20000000e-01	1.12188160e-02	2.16290782e-04
8.21000000e-01	1.11986223e-02	2.18083580e-04
8.22000000e-01	1.10781149e-02	2.20085400e-04
8.23000000e-01	1.10945411e-02	2.23340166e-04
8.24000000e-01	1.10329544e-02	2.25213109e-04
8.25000000e-01	1.11861126e-02	2.28690520e-04
8.26000000e-01	1.10626722e-02	2.31991734e-04
8.27000000e-01	1.12195756e-02	2.37336420e-04
8.28000000e-01	1.11624643e-02	2.39684282e-04
8.29000000e-01	1.09842879e-02	2.41226034e-04
8.30000000e-01	1.11398840e-02	2.46790465e-04
8.31000000e-01	1.13132467e-02	2.54275430e-04
8.32000000e-01	1.10548134e-02	2.54211837e-04
8.33000000e-01	1.11236240e-02	2.59457195e-04
8.34000000e-01	1.10328390e-02	2.61164364e-04
8.35000000e-01	1.07591873e-02	2.60667482e-04
8.36000000e-01	1.11480419e-02	2.72952626e-04
8.37000000e-01	1.11827025e-02	2.81271305e-04
8.38000000e-01	1.08084927e-02	2.77920891e-04
8.39000000e-01	1.11267153e-02	2.89140448e-04
8.40000000e-01	1.09315026e-02	2.90267836e-04
8.41000000e-01	1.09394339e-02	3.01693215e-04
8.42000000e-01	1.08889351e-02	3.05343813e-04
8.43000000e-01	1.05927063e-02	3.03524974e-04
8.44000000e-01	1.06615521e-02	3.12607932e-04
8.45000000e-01	1.10001420e-02	3.29137491e-04
8.46000000e-01	1.08218794e-02	3.32880104e-04
8.47000000e-01	1.08550029e-02	3.44923518e-04
8.48000000e-01	1.06224711e-02	3.49151934e-04
8.49000000e-01	1.10798109e-02	3.72285161e-04
8.50000000e-01	1.08043842e-02	3.78017260e-04
8.51000000e-01	1.09878056e-02	3.99930482e-04
8.52000000e-01	1.05965454e-02	3.99195251e-04
8.53000000e-01	1.07758085e-02	4.26869257e-04
8.54000000e-01	1.08549794e-02	4.47782853e-04
8.55000000e-01	1.09519312e-02	4.60332464e-04
8.56000000e-01	1.07732114e-02	4.69187615e-04
8.57000000e-01	1.06471552e-02	4.81746596e-04
8.58000000e-01	1.05210078e-02	4.89639774e-04
8.59000000e-01	1.06231613e-02	5.05876704e-04
8.60000000e-01	1.00781507e-02	5.01259272e-04
8.61000000e-01	1.06661143e-02	5.42870272e-04
8.62000000e-01	1.03311128e-02	5.46024867e-04
8.63000000e-01	1.03976503e-02	5.82257820e-04
8.64000000e-01	1.08542942e-02	6.23431595e-04
8.65000000e-01	1.04129003e-02	6.35541447e-04
8.66000000e-01	1.02359266e-02	6.63340794e-04
8.67000000e-01	1.03854714e-02	7.03846274e-04
8.68000000e-01	1.00460802e-02	7.32832141e-04
8.69000000e-01	1.00478380e-02	7.68086140e-04
8.70000000e-01	1.00196996e-02	8.68818586e-04
8.71000000e-01	1.10031011e-02	1.00858739e-03
8.72000000e-01	1.17938296e-02	1.20984350e-03
8.73000000e-01	1.17147955e-02	1.35500740e-03
8.74000000e-01	1.09923004e-02	1.81502537e-03
8.75000000e-01	1.14835412e-02	3.74773940e-03
