% Filename : SDL7_00012_00117.h5
% Date & Time : 30-Oct-2025 14:53:08
% X-ray Energy (keV) : 13.30001
% Exposure Time (s) : 0.500
% Beam Center : 1461.24000, 208.98300
% Sample to Detector Distance (SDD) (mm) : 1990.750
% Detector Pixel Size (mm) : 0.075
% Photodiode Value : 135691.000
% I0 of Sample : 0
% I0 of Standard : 1
% 
% q(A^-1)   I(q)    I(q)_SE
0.00000000e+00	1.06516665e-02	6.78912248e-03
2.50000000e-04	0.00000000e+00	0.00000000e+00
5.00000000e-04	0.00000000e+00	0.00000000e+00
7.50000000e-04	0.00000000e+00	0.00000000e+00
1.00000000e-03	0.00000000e+00	0.00000000e+00
1.25000000e-03	0.00000000e+00	0.00000000e+00
1.50000000e-03	0.00000000e+00	0.00000000e+00
1.75000000e-03	0.00000000e+00	0.00000000e+00
2.00000000e-03	0.00000000e+00	0.00000000e+00
2.25000000e-03	0.00000000e+00	0.00000000e+00
2.50000000e-03	0.00000000e+00	0.00000000e+00
2.75000000e-03	0.00000000e+00	0.00000000e+00
3.00000000e-03	0.00000000e+00	0.00000000e+00
3.25000000e-03	1.98865211e+00	1.15938832e+00
3.50000000e-03	1.50978020e+00	3.54379006e-01
3.75000000e-03	1.17028754e+00	2.14259384e-01
4.00000000e-03	9.88037748e-01	1.64006966e-01
4.25000000e-03	7.48793217e-01	9.98524160e-02
4.50000000e-03	8.55854467e-01	1.26127145e-01
4.75000000e-03	8.13997670e-01	1.12192258e-01
5.00000000e-03	6.55693782e-01	8.43456316e-02
5.25000000e-03	5.41344256e-01	6.66764122e-02
5.50000000e-03	4.69990269e-01	5.64547763e-02
5.75000000e-03	3.94657197e-01	4.57177272e-02
6.00000000e-03	3.41413586e-01	3.70023618e-02
6.25000000e-03	2.98290455e-01	3.30829038e-02
6.50000000e-03	2.59724353e-01	2.69819322e-02
6.75000000e-03	2.28991425e-01	2.37370848e-02
7.00000000e-03	2.00982842e-01	2.00460609e-02
7.25000000e-03	1.84166757e-01	1.77906936e-02
7.50000000e-03	1.57500096e-01	1.51547422e-02
7.75000000e-03	1.40620013e-01	1.30778302e-02
8.00000000e-03	1.32672528e-01	1.22221607e-02
8.25000000e-03	1.11759675e-01	9.82463011e-03
8.50000000e-03	1.07908652e-01	9.24362078e-03
8.75000000e-03	9.88669904e-02	8.32028163e-03
9.00000000e-03	9.10732069e-02	7.53476311e-03
9.25000000e-03	8.21127669e-02	6.58831029e-03
9.50000000e-03	7.52885921e-02	5.92464437e-03
9.75000000e-03	7.16539820e-02	5.62863501e-03
1.00000000e-02	6.52356476e-02	5.02460721e-03
1.02500000e-02	6.20309070e-02	4.83295977e-03
1.05000000e-02	5.91454406e-02	4.36756526e-03
1.07500000e-02	5.77113714e-02	4.20311059e-03
1.10000000e-02	5.35725454e-02	3.76290406e-03
1.12500000e-02	4.97191411e-02	3.68395311e-03
1.15000000e-02	4.86428169e-02	3.43140557e-03
1.17500000e-02	4.51406545e-02	3.06258404e-03
1.20000000e-02	4.28989581e-02	2.90554924e-03
1.22500000e-02	4.06179900e-02	2.68696454e-03
1.25000000e-02	4.12992611e-02	2.73294007e-03
1.27500000e-02	3.86918037e-02	2.53392548e-03
1.30000000e-02	3.75001623e-02	2.42088152e-03
1.32500000e-02	3.54781480e-02	2.24200200e-03
1.35000000e-02	3.40181524e-02	2.13626208e-03
1.37500000e-02	3.35915603e-02	2.11566999e-03
1.40000000e-02	3.17219204e-02	1.97711560e-03
1.42500000e-02	3.17187415e-02	1.93349152e-03
1.45000000e-02	3.27397074e-02	1.97561669e-03
1.47500000e-02	2.83652677e-02	1.70063150e-03
1.50000000e-02	2.89677905e-02	1.75563885e-03
1.52500000e-02	2.91067806e-02	1.72025062e-03
1.55000000e-02	2.83992284e-02	1.64620164e-03
1.57500000e-02	2.68366717e-02	1.57314817e-03
1.60000000e-02	2.71940421e-02	1.54259942e-03
1.62500000e-02	2.75648341e-02	1.58072363e-03
1.65000000e-02	2.61786521e-02	1.46259082e-03
1.67500000e-02	2.67941080e-02	1.48422940e-03
1.70000000e-02	2.46077991e-02	1.39512541e-03
1.72500000e-02	2.68336600e-02	1.50100580e-03
1.75000000e-02	2.45374322e-02	1.37235914e-03
1.77500000e-02	2.50549773e-02	1.34093272e-03
1.80000000e-02	2.38547406e-02	1.30532456e-03
1.82500000e-02	2.41994651e-02	1.26837905e-03
1.85000000e-02	2.38274402e-02	1.29285876e-03
1.87500000e-02	2.50209897e-02	1.31793287e-03
1.90000000e-02	2.42742976e-02	1.28607340e-03
1.92500000e-02	2.39260509e-02	1.24531276e-03
1.95000000e-02	2.36150639e-02	1.21369932e-03
1.97500000e-02	2.34745472e-02	1.23589743e-03
2.00000000e-02	2.39965649e-02	1.22061426e-03
2.02500000e-02	2.46222478e-02	1.25831842e-03
2.05000000e-02	2.37744862e-02	1.18379129e-03
2.07500000e-02	2.37744943e-02	1.19478895e-03
2.10000000e-02	2.33333778e-02	1.18056706e-03
2.12500000e-02	2.27857618e-02	1.15343312e-03
2.15000000e-02	2.26033811e-02	1.14515737e-03
2.17500000e-02	2.37397021e-02	1.20592778e-03
2.20000000e-02	2.22264716e-02	1.15104601e-03
2.22500000e-02	2.28789512e-02	1.16291587e-03
2.25000000e-02	2.21696227e-02	1.15459521e-03
2.27500000e-02	2.24896726e-02	1.14118176e-03
2.30000000e-02	2.28509063e-02	1.16075437e-03
2.32500000e-02	2.18316562e-02	1.09715340e-03
2.35000000e-02	2.30357563e-02	1.18625569e-03
2.37500000e-02	2.26951059e-02	1.14164304e-03
2.40000000e-02	2.23731353e-02	1.13242678e-03
2.42500000e-02	2.23391540e-02	1.13047112e-03
2.45000000e-02	2.21867101e-02	1.11378321e-03
2.47500000e-02	2.22924486e-02	1.10549685e-03
2.50000000e-02	2.28720809e-02	1.15110746e-03
2.52500000e-02	2.23673068e-02	1.13753213e-03
2.55000000e-02	2.24626043e-02	1.12078234e-03
2.57500000e-02	2.27860300e-02	1.14337061e-03
2.60000000e-02	2.17380957e-02	1.08444848e-03
2.62500000e-02	2.22214355e-02	1.11346837e-03
2.65000000e-02	2.17587192e-02	1.07016351e-03
2.67500000e-02	2.15943747e-02	1.06553203e-03
2.70000000e-02	2.21116837e-02	1.10527522e-03
2.72500000e-02	2.18845296e-02	1.07820279e-03
2.75000000e-02	2.18123803e-02	1.08616617e-03
2.77500000e-02	2.22103480e-02	1.10488713e-03
2.80000000e-02	2.21221447e-02	1.07898350e-03
2.82500000e-02	2.17390073e-02	1.05228949e-03
2.85000000e-02	2.20728455e-02	1.07139282e-03
2.87500000e-02	2.21658056e-02	1.08492073e-03
2.90000000e-02	2.18645136e-02	1.06871560e-03
2.92500000e-02	2.23492793e-02	1.05697237e-03
2.95000000e-02	2.21148937e-02	1.08235307e-03
2.97500000e-02	2.27423638e-02	1.08641756e-03
3.00000000e-02	2.36109771e-02	1.14303068e-03
3.02500000e-02	2.23217137e-02	1.08013050e-03
3.05000000e-02	2.30258132e-02	1.07936326e-03
3.07500000e-02	2.27684258e-02	1.08411627e-03
3.10000000e-02	2.24276422e-02	1.07182872e-03
3.12500000e-02	2.27983343e-02	1.08394079e-03
3.15000000e-02	2.17440649e-02	1.03810485e-03
3.17500000e-02	2.32976912e-02	1.09183685e-03
3.20000000e-02	2.20093412e-02	1.04026143e-03
3.22500000e-02	2.20329538e-02	1.03461146e-03
3.25000000e-02	2.27793166e-02	1.07854467e-03
3.27500000e-02	2.26506107e-02	1.05021287e-03
3.30000000e-02	2.23739140e-02	1.04605491e-03
3.32500000e-02	2.23836019e-02	1.03544023e-03
3.35000000e-02	2.24730384e-02	1.06090804e-03
3.37500000e-02	2.23565822e-02	1.03320215e-03
3.40000000e-02	2.20252279e-02	1.01899952e-03
3.42500000e-02	2.11232410e-02	9.76431037e-04
3.45000000e-02	2.12910685e-02	9.91779972e-04
3.47500000e-02	2.14978720e-02	9.98943846e-04
3.50000000e-02	2.11409389e-02	9.65186820e-04
3.52500000e-02	2.23738883e-02	1.03369685e-03
3.55000000e-02	2.17040371e-02	9.82916848e-04
3.57500000e-02	2.13499571e-02	9.83324680e-04
3.60000000e-02	2.15193505e-02	9.79890319e-04
3.62500000e-02	2.12596372e-02	9.81400958e-04
3.65000000e-02	2.09857551e-02	9.53143095e-04
3.67500000e-02	2.12134999e-02	9.54872416e-04
3.70000000e-02	2.11185789e-02	9.57082314e-04
3.72500000e-02	2.17596141e-02	9.87866302e-04
3.75000000e-02	2.14256214e-02	9.68877611e-04
3.77500000e-02	2.04514151e-02	9.21067123e-04
3.80000000e-02	2.10369071e-02	9.40830393e-04
3.82500000e-02	2.13936426e-02	9.44530866e-04
3.85000000e-02	2.12978521e-02	9.52958579e-04
3.87500000e-02	2.14397155e-02	9.59794635e-04
3.90000000e-02	2.09779505e-02	9.45263090e-04
3.92500000e-02	2.05931506e-02	9.09812102e-04
3.95000000e-02	2.02412515e-02	9.05679449e-04
3.97500000e-02	2.12416018e-02	9.44446167e-04
4.00000000e-02	2.15766026e-02	9.49314029e-04
4.02500000e-02	2.08186188e-02	9.15637130e-04
4.05000000e-02	2.19893201e-02	9.60489157e-04
4.07500000e-02	2.12480929e-02	9.23805525e-04
4.10000000e-02	2.12010793e-02	9.29781196e-04
4.12500000e-02	2.07782631e-02	9.12583904e-04
4.15000000e-02	2.12205661e-02	9.05431515e-04
4.17500000e-02	2.10978613e-02	9.15506171e-04
4.20000000e-02	2.15846396e-02	9.23298969e-04
4.22500000e-02	2.12076207e-02	9.15500372e-04
4.25000000e-02	2.19337735e-02	9.36460864e-04
4.27500000e-02	2.11054658e-02	9.06074714e-04
4.30000000e-02	2.06108172e-02	8.82727689e-04
4.32500000e-02	2.06800502e-02	8.84435138e-04
4.35000000e-02	2.03186370e-02	8.76549390e-04
4.37500000e-02	2.09557039e-02	8.82918256e-04
4.40000000e-02	2.13885238e-02	9.06447493e-04
4.42500000e-02	2.09274475e-02	8.82228874e-04
4.45000000e-02	2.12192188e-02	8.85813796e-04
4.47500000e-02	2.14095598e-02	9.00636978e-04
4.50000000e-02	2.10146925e-02	8.81787883e-04
4.52500000e-02	2.16093099e-02	8.99058973e-04
4.55000000e-02	2.08721569e-02	8.77439969e-04
4.57500000e-02	2.06339913e-02	8.58990940e-04
4.60000000e-02	2.09586912e-02	8.69720999e-04
4.62500000e-02	2.04384567e-02	8.49138487e-04
4.65000000e-02	2.10840999e-02	8.71222633e-04
4.67500000e-02	2.11295472e-02	8.73644592e-04
4.70000000e-02	2.02916125e-02	8.43544064e-04
4.72500000e-02	2.08839282e-02	8.59544645e-04
4.75000000e-02	2.05567679e-02	8.50032653e-04
4.77500000e-02	2.03276589e-02	8.34170440e-04
4.80000000e-02	2.10619644e-02	8.57544811e-04
4.82500000e-02	2.00931923e-02	8.22375483e-04
4.85000000e-02	2.16456761e-02	8.86445119e-04
4.87500000e-02	2.07155195e-02	8.38040321e-04
4.90000000e-02	2.05129129e-02	8.28675116e-04
4.92500000e-02	2.06351112e-02	8.36368606e-04
4.95000000e-02	2.04650314e-02	8.26218268e-04
4.97500000e-02	2.02221337e-02	8.30777931e-04
5.00000000e-02	2.10895334e-02	8.57244625e-04
5.02500000e-02	2.03857977e-02	8.19858315e-04
5.05000000e-02	2.05712334e-02	8.26853402e-04
5.07500000e-02	2.05029589e-02	8.18481052e-04
5.10000000e-02	2.09241084e-02	8.36685793e-04
5.12500000e-02	2.10115970e-02	8.37760535e-04
5.15000000e-02	2.06669086e-02	8.12854838e-04
5.17500000e-02	2.04535225e-02	8.18655727e-04
5.20000000e-02	2.05886286e-02	8.14918626e-04
5.22500000e-02	2.07380863e-02	8.37969126e-04
5.25000000e-02	2.09452627e-02	8.21211151e-04
5.27500000e-02	2.06557181e-02	8.09747389e-04
5.30000000e-02	2.06670155e-02	8.18414019e-04
5.32500000e-02	2.03603481e-02	8.05396171e-04
5.35000000e-02	2.03020169e-02	8.00559173e-04
5.37500000e-02	2.05368771e-02	8.00150936e-04
5.40000000e-02	2.03020137e-02	7.91003488e-04
5.42500000e-02	2.15309930e-02	8.32707468e-04
5.45000000e-02	2.11813667e-02	8.32175361e-04
5.47500000e-02	2.03406064e-02	7.92014129e-04
5.50000000e-02	2.09468819e-02	8.20539375e-04
5.52500000e-02	2.06658289e-02	7.99606079e-04
5.55000000e-02	2.00321247e-02	7.72329727e-04
5.57500000e-02	1.99037837e-02	7.78323758e-04
5.60000000e-02	2.04223088e-02	7.86713804e-04
5.62500000e-02	1.98863013e-02	7.77271788e-04
5.65000000e-02	2.03452516e-02	7.84634826e-04
5.67500000e-02	2.04522310e-02	7.96491137e-04
5.70000000e-02	2.03668729e-02	7.72489443e-04
5.72500000e-02	2.02200517e-02	7.75809821e-04
5.75000000e-02	1.97146780e-02	7.58243176e-04
5.77500000e-02	2.04580269e-02	7.71487968e-04
5.80000000e-02	2.02846795e-02	7.74299838e-04
5.82500000e-02	2.08071809e-02	7.84999657e-04
5.85000000e-02	2.00382278e-02	7.57828896e-04
5.87500000e-02	2.03947632e-02	7.74352545e-04
5.90000000e-02	2.03580507e-02	7.62441060e-04
5.92500000e-02	1.99168616e-02	7.54384847e-04
5.95000000e-02	2.07658177e-02	7.78076126e-04
5.97500000e-02	2.08011249e-02	7.84478822e-04
6.00000000e-02	1.96028308e-02	7.39803514e-04
6.02500000e-02	2.07195916e-02	7.69747602e-04
6.05000000e-02	2.04950662e-02	7.59691871e-04
6.07500000e-02	2.06618629e-02	7.70412644e-04
6.10000000e-02	2.04389495e-02	7.68256694e-04
6.12500000e-02	2.00812873e-02	7.48426457e-04
6.15000000e-02	2.01177031e-02	7.51928901e-04
6.17500000e-02	1.98600797e-02	7.34334038e-04
6.20000000e-02	2.02112052e-02	7.47621694e-04
6.22500000e-02	1.98574490e-02	7.34179298e-04
6.25000000e-02	2.00565829e-02	7.44336405e-04
6.27500000e-02	2.02226482e-02	7.35425582e-04
6.30000000e-02	2.03099575e-02	7.50405929e-04
6.32500000e-02	2.01652654e-02	7.46723462e-04
6.35000000e-02	2.01721384e-02	7.37700382e-04
6.37500000e-02	1.97979572e-02	7.35185439e-04
6.40000000e-02	2.00925039e-02	7.41329770e-04
6.42500000e-02	1.96433569e-02	7.15701340e-04
6.45000000e-02	1.99501032e-02	7.27485015e-04
6.47500000e-02	2.02681165e-02	7.33421037e-04
6.50000000e-02	2.02157069e-02	7.32577585e-04
6.52500000e-02	1.97205766e-02	7.10570269e-04
6.55000000e-02	2.04593790e-02	7.37697712e-04
6.57500000e-02	2.02555564e-02	7.31592167e-04
6.60000000e-02	1.93641805e-02	6.96448952e-04
6.62500000e-02	1.99695544e-02	7.27043468e-04
6.65000000e-02	2.05763733e-02	7.31423023e-04
6.67500000e-02	1.96205946e-02	7.05812549e-04
6.70000000e-02	2.00250794e-02	7.22196850e-04
6.72500000e-02	2.01092477e-02	7.21544488e-04
6.75000000e-02	2.04640885e-02	7.26571398e-04
6.77500000e-02	1.95795577e-02	6.96664348e-04
6.80000000e-02	2.00936440e-02	7.10847064e-04
6.82500000e-02	1.97337796e-02	7.10750231e-04
6.85000000e-02	1.97411678e-02	7.10049828e-04
6.87500000e-02	2.04258942e-02	7.21232994e-04
6.90000000e-02	2.03817011e-02	7.15712902e-04
6.92500000e-02	1.97965361e-02	6.97408580e-04
6.95000000e-02	2.01143069e-02	7.11965401e-04
6.97500000e-02	2.01394832e-02	7.04662549e-04
7.00000000e-02	1.99994435e-02	6.96474213e-04
7.02500000e-02	1.99829883e-02	6.95479426e-04
7.05000000e-02	2.01480249e-02	7.01031119e-04
7.07500000e-02	1.93502752e-02	6.83687611e-04
7.10000000e-02	1.98435175e-02	6.91360842e-04
7.12500000e-02	2.02900687e-02	7.09789527e-04
7.15000000e-02	2.03096570e-02	7.06871188e-04
7.17500000e-02	1.96881152e-02	6.86145522e-04
7.20000000e-02	2.00502296e-02	6.99407476e-04
7.22500000e-02	1.98923295e-02	6.87267538e-04
7.25000000e-02	1.96253592e-02	6.79373938e-04
7.27500000e-02	2.03313871e-02	7.02390723e-04
7.30000000e-02	1.93250844e-02	6.73945970e-04
7.32500000e-02	1.97741884e-02	6.83999800e-04
7.35000000e-02	2.00844140e-02	6.90635519e-04
7.37500000e-02	1.99575490e-02	6.87038833e-04
7.40000000e-02	1.98716948e-02	6.82647740e-04
7.42500000e-02	1.97635945e-02	6.86933796e-04
7.45000000e-02	1.97130651e-02	6.82156511e-04
7.47500000e-02	1.98978765e-02	6.82241493e-04
7.50000000e-02	2.03166703e-02	6.92911597e-04
7.52500000e-02	2.01053137e-02	6.89506657e-04
7.55000000e-02	1.99591359e-02	6.82888992e-04
7.57500000e-02	2.00619276e-02	6.83107175e-04
7.60000000e-02	2.05061101e-02	6.91073874e-04
7.62500000e-02	1.96440076e-02	6.71320384e-04
7.65000000e-02	2.03317400e-02	6.80854285e-04
7.67500000e-02	1.95362926e-02	6.55583036e-04
7.70000000e-02	1.99170756e-02	6.65703459e-04
7.72500000e-02	2.01204784e-02	6.88940212e-04
7.75000000e-02	2.00739357e-02	6.95507990e-04
7.77500000e-02	2.00357465e-02	6.98580922e-04
7.80000000e-02	2.01929747e-02	7.05621505e-04
7.82500000e-02	1.94725057e-02	6.86339048e-04
7.85000000e-02	1.97441168e-02	6.99355570e-04
7.87500000e-02	1.93425807e-02	6.87279388e-04
7.90000000e-02	2.03289368e-02	7.21111805e-04
7.92500000e-02	2.00653243e-02	7.11173687e-04
7.95000000e-02	1.97021402e-02	7.05632282e-04
7.97500000e-02	1.93950740e-02	6.96354476e-04
8.00000000e-02	1.99460455e-02	7.16874487e-04
8.02500000e-02	2.05594605e-02	7.37613052e-04
8.05000000e-02	1.99373772e-02	7.16518641e-04
8.07500000e-02	2.05229984e-02	7.46806853e-04
8.10000000e-02	1.95864812e-02	7.17289255e-04
8.12500000e-02	2.01912407e-02	7.33062498e-04
8.15000000e-02	1.96658990e-02	7.18515321e-04
8.17500000e-02	2.03061585e-02	7.37964576e-04
8.20000000e-02	2.05267709e-02	7.42600290e-04
8.22500000e-02	2.02225221e-02	7.40539677e-04
8.25000000e-02	2.02705657e-02	7.38176857e-04
8.27500000e-02	2.00924298e-02	7.31780176e-04
8.30000000e-02	1.99770760e-02	7.40039876e-04
8.32500000e-02	1.96391056e-02	7.26215391e-04
8.35000000e-02	1.97352876e-02	7.35840804e-04
8.37500000e-02	1.91107726e-02	6.99985127e-04
8.40000000e-02	1.96335966e-02	7.29331780e-04
8.42500000e-02	2.01135937e-02	7.44365404e-04
8.45000000e-02	1.98159082e-02	7.35740982e-04
8.47500000e-02	1.98241639e-02	7.46138475e-04
8.50000000e-02	1.98758182e-02	7.37507858e-04
8.52500000e-02	1.99496350e-02	7.44873717e-04
8.55000000e-02	1.95874435e-02	7.26012013e-04
8.57500000e-02	1.96989292e-02	7.45636718e-04
8.60000000e-02	1.95876673e-02	7.33502965e-04
8.62500000e-02	1.96889973e-02	7.39326058e-04
8.65000000e-02	2.03761432e-02	7.64418566e-04
8.67500000e-02	1.96827560e-02	7.27498798e-04
8.70000000e-02	1.99097145e-02	7.24632504e-04
8.72500000e-02	1.98185476e-02	7.14011783e-04
8.75000000e-02	1.97544677e-02	7.03140218e-04
8.77500000e-02	1.98446689e-02	7.01004251e-04
8.80000000e-02	2.01150081e-02	7.16981489e-04
8.82500000e-02	1.97368368e-02	6.96577796e-04
8.85000000e-02	1.96503890e-02	6.92237632e-04
8.87500000e-02	2.00151583e-02	6.85236196e-04
8.90000000e-02	1.98217186e-02	6.91112763e-04
8.92500000e-02	2.00792199e-02	6.95238378e-04
8.95000000e-02	1.96916575e-02	6.77969495e-04
8.97500000e-02	1.95174135e-02	6.68604995e-04
9.00000000e-02	2.03734082e-02	6.93090584e-04
9.02500000e-02	2.02275814e-02	6.92045880e-04
9.05000000e-02	1.98972157e-02	6.83361283e-04
9.07500000e-02	1.94693037e-02	6.63574343e-04
9.10000000e-02	1.98365429e-02	6.70865081e-04
9.12500000e-02	1.98221098e-02	6.67653604e-04
9.15000000e-02	1.97287270e-02	6.64017919e-04
9.17500000e-02	1.95738961e-02	6.63145738e-04
9.20000000e-02	1.95992407e-02	6.54379373e-04
9.22500000e-02	1.96535573e-02	6.52764347e-04
9.25000000e-02	1.96158315e-02	6.51605908e-04
9.27500000e-02	1.91749102e-02	6.38213906e-04
9.30000000e-02	1.96416996e-02	6.58430956e-04
9.32500000e-02	1.99026848e-02	6.64370112e-04
9.35000000e-02	1.95711019e-02	6.48598979e-04
9.37500000e-02	1.96131075e-02	6.42955668e-04
9.40000000e-02	2.05410256e-02	6.79076625e-04
9.42500000e-02	1.99584910e-02	6.52934790e-04
9.45000000e-02	2.03148370e-02	6.66618523e-04
9.47500000e-02	2.00657005e-02	6.60977166e-04
9.50000000e-02	1.94604410e-02	6.41135059e-04
9.52500000e-02	1.98534418e-02	6.47462942e-04
9.55000000e-02	1.94017685e-02	6.30014503e-04
9.57500000e-02	1.97122152e-02	6.43187908e-04
9.60000000e-02	1.97601808e-02	6.44496148e-04
9.62500000e-02	1.97540944e-02	6.41660896e-04
9.65000000e-02	2.02104754e-02	6.50422130e-04
9.67500000e-02	1.94471513e-02	6.26489917e-04
9.70000000e-02	1.99007138e-02	6.34010239e-04
9.72500000e-02	2.01056463e-02	6.43534026e-04
9.75000000e-02	1.96804648e-02	6.32821648e-04
9.77500000e-02	1.95758667e-02	6.25076523e-04
9.80000000e-02	2.02127979e-02	6.42517374e-04
9.82500000e-02	1.98353221e-02	6.36773803e-04
9.85000000e-02	1.94500985e-02	6.23641791e-04
9.87500000e-02	1.95328560e-02	6.25154645e-04
9.90000000e-02	1.92603204e-02	6.14609805e-04
9.92500000e-02	2.01932623e-02	6.44804460e-04
9.95000000e-02	1.95428880e-02	6.24150249e-04
9.97500000e-02	1.90736877e-02	6.07964582e-04
1.00000000e-01	1.94041715e-02	5.05366416e-04
1.00500000e-01	1.97170548e-02	4.42622870e-04
1.01000000e-01	1.97780495e-02	4.40181929e-04
1.01500000e-01	1.95917308e-02	4.36502749e-04
1.02000000e-01	1.99150203e-02	4.39733510e-04
1.02500000e-01	2.00805410e-02	4.41759659e-04
1.03000000e-01	1.99371089e-02	4.40252609e-04
1.03500000e-01	1.96286880e-02	4.31779145e-04
1.04000000e-01	1.96806277e-02	4.30131955e-04
1.04500000e-01	1.94432954e-02	4.23669632e-04
1.05000000e-01	1.95175103e-02	4.24802348e-04
1.05500000e-01	1.93634097e-02	4.20732938e-04
1.06000000e-01	1.96648275e-02	4.24810739e-04
1.06500000e-01	1.97918033e-02	4.25005465e-04
1.07000000e-01	1.98258291e-02	4.32832394e-04
1.07500000e-01	1.96954985e-02	4.38441722e-04
1.08000000e-01	1.98405286e-02	4.46164088e-04
1.08500000e-01	1.98407030e-02	4.47265422e-04
1.09000000e-01	1.98772299e-02	4.52074065e-04
1.09500000e-01	1.97166104e-02	4.51219245e-04
1.10000000e-01	1.98029035e-02	4.48382658e-04
1.10500000e-01	1.96773296e-02	4.35964551e-04
1.11000000e-01	1.97129874e-02	4.29326118e-04
1.11500000e-01	1.96214846e-02	4.27137169e-04
1.12000000e-01	1.97275653e-02	4.24224460e-04
1.12500000e-01	1.98987647e-02	4.23103235e-04
1.13000000e-01	1.96232189e-02	4.17497494e-04
1.13500000e-01	1.94692468e-02	4.12842222e-04
1.14000000e-01	1.94881781e-02	4.10004800e-04
1.14500000e-01	1.95936360e-02	4.13316516e-04
1.15000000e-01	1.93940194e-02	4.07466111e-04
1.15500000e-01	1.96033466e-02	4.09989399e-04
1.16000000e-01	1.97212364e-02	4.10121225e-04
1.16500000e-01	1.98131103e-02	4.12532089e-04
1.17000000e-01	1.95999328e-02	4.08334459e-04
1.17500000e-01	1.94663383e-02	4.01292749e-04
1.18000000e-01	1.98252782e-02	4.09733689e-04
1.18500000e-01	1.98338703e-02	4.07175107e-04
1.19000000e-01	1.97396250e-02	4.04947664e-04
1.19500000e-01	1.97542213e-02	4.05381196e-04
1.20000000e-01	1.95649662e-02	3.99838589e-04
1.20500000e-01	1.95648212e-02	3.99366264e-04
1.21000000e-01	1.93154889e-02	3.93568184e-04
1.21500000e-01	2.00029163e-02	4.07374997e-04
1.22000000e-01	1.98427214e-02	4.02499564e-04
1.22500000e-01	1.97704593e-02	3.99828388e-04
1.23000000e-01	1.95886323e-02	3.96951465e-04
1.23500000e-01	1.98469486e-02	3.98625207e-04
1.24000000e-01	1.98168623e-02	4.00769885e-04
1.24500000e-01	1.97675554e-02	3.97531280e-04
1.25000000e-01	1.92753761e-02	3.87133690e-04
1.25500000e-01	1.94414811e-02	3.88559777e-04
1.26000000e-01	1.99131684e-02	3.99060306e-04
1.26500000e-01	1.95212704e-02	3.89457947e-04
1.27000000e-01	1.97234540e-02	3.91816875e-04
1.27500000e-01	1.96800304e-02	3.89497209e-04
1.28000000e-01	1.97082584e-02	3.93412810e-04
1.28500000e-01	1.97760551e-02	3.91132593e-04
1.29000000e-01	1.98366270e-02	3.93762209e-04
1.29500000e-01	1.93342530e-02	3.80067394e-04
1.30000000e-01	1.97759394e-02	3.87139117e-04
1.30500000e-01	1.91938520e-02	3.76700601e-04
1.31000000e-01	1.94473383e-02	3.80159485e-04
1.31500000e-01	1.95885322e-02	3.81511858e-04
1.32000000e-01	1.98885822e-02	3.86356706e-04
1.32500000e-01	1.93526923e-02	3.76440549e-04
1.33000000e-01	1.94832764e-02	3.77185486e-04
1.33500000e-01	1.96161175e-02	3.77594132e-04
1.34000000e-01	1.95489536e-02	3.78223516e-04
1.34500000e-01	1.95339950e-02	3.74241888e-04
1.35000000e-01	1.98204258e-02	3.78403304e-04
1.35500000e-01	1.99360993e-02	3.81047858e-04
1.36000000e-01	1.94566849e-02	3.70366536e-04
1.36500000e-01	1.95051914e-02	3.73815116e-04
1.37000000e-01	1.97839638e-02	3.74452370e-04
1.37500000e-01	1.94703636e-02	3.70932008e-04
1.38000000e-01	1.95135848e-02	3.69179107e-04
1.38500000e-01	1.95275977e-02	3.70088729e-04
1.39000000e-01	1.94581458e-02	3.69577255e-04
1.39500000e-01	1.94430667e-02	3.66264859e-04
1.40000000e-01	1.95450301e-02	3.69122471e-04
1.40500000e-01	1.91018763e-02	3.60519180e-04
1.41000000e-01	1.94969940e-02	3.67461566e-04
1.41500000e-01	1.96948523e-02	3.69907779e-04
1.42000000e-01	1.92222976e-02	3.61926461e-04
1.42500000e-01	1.96182406e-02	3.69816814e-04
1.43000000e-01	1.96423752e-02	3.67613021e-04
1.43500000e-01	1.96029810e-02	3.63982115e-04
1.44000000e-01	1.96592317e-02	3.66379620e-04
1.44500000e-01	1.93552985e-02	3.58192045e-04
1.45000000e-01	1.96964777e-02	3.66432798e-04
1.45500000e-01	1.96828013e-02	3.65472076e-04
1.46000000e-01	1.92489158e-02	3.58253935e-04
1.46500000e-01	1.93810146e-02	3.59014513e-04
1.47000000e-01	1.94532267e-02	3.58425321e-04
1.47500000e-01	1.92254606e-02	3.55196761e-04
1.48000000e-01	1.95601613e-02	3.58566990e-04
1.48500000e-01	1.93823050e-02	3.54811153e-04
1.49000000e-01	1.96957285e-02	3.60903101e-04
1.49500000e-01	1.93166038e-02	3.53799906e-04
1.50000000e-01	1.92746701e-02	3.51700920e-04
1.50500000e-01	1.94537637e-02	3.55259102e-04
1.51000000e-01	1.94249400e-02	3.53141945e-04
1.51500000e-01	1.92945064e-02	3.49446119e-04
1.52000000e-01	1.93173073e-02	3.50563619e-04
1.52500000e-01	1.93514225e-02	3.50936762e-04
1.53000000e-01	1.92804319e-02	3.49739118e-04
1.53500000e-01	1.91387282e-02	3.43736975e-04
1.54000000e-01	1.95033600e-02	3.50076539e-04
1.54500000e-01	1.91975270e-02	3.51410486e-04
1.55000000e-01	1.91838491e-02	3.56799214e-04
1.55500000e-01	1.90569893e-02	3.56997874e-04
1.56000000e-01	1.91838622e-02	3.60918841e-04
1.56500000e-01	1.91637299e-02	3.60004475e-04
1.57000000e-01	1.92619189e-02	3.63835523e-04
1.57500000e-01	1.91115463e-02	3.51977556e-04
1.58000000e-01	1.90292455e-02	3.46382974e-04
1.58500000e-01	1.93163139e-02	3.51518876e-04
1.59000000e-01	1.91921894e-02	3.46221416e-04
1.59500000e-01	1.94142328e-02	3.48187744e-04
1.60000000e-01	1.90571923e-02	3.42479307e-04
1.60500000e-01	1.93521308e-02	3.46113479e-04
1.61000000e-01	1.91318089e-02	3.42453852e-04
1.61500000e-01	1.90206905e-02	3.38425156e-04
1.62000000e-01	1.90838308e-02	3.39632487e-04
1.62500000e-01	1.90010352e-02	3.38741486e-04
1.63000000e-01	1.92487159e-02	3.39406809e-04
1.63500000e-01	1.90315280e-02	3.39289268e-04
1.64000000e-01	1.87238796e-02	3.31601259e-04
1.64500000e-01	1.89688431e-02	3.35156412e-04
1.65000000e-01	1.90466849e-02	3.35332760e-04
1.65500000e-01	1.88610362e-02	3.30918456e-04
1.66000000e-01	1.88739504e-02	3.31639686e-04
1.66500000e-01	1.89887173e-02	3.32890760e-04
1.67000000e-01	1.90120756e-02	3.34204995e-04
1.67500000e-01	1.88473357e-02	3.31301777e-04
1.68000000e-01	1.88665628e-02	3.28845831e-04
1.68500000e-01	1.91148547e-02	3.32004519e-04
1.69000000e-01	1.87435572e-02	3.27448838e-04
1.69500000e-01	1.88488491e-02	3.27375415e-04
1.70000000e-01	1.87670622e-02	3.24535298e-04
1.70500000e-01	1.88410877e-02	3.25392540e-04
1.71000000e-01	1.90413925e-02	3.28899763e-04
1.71500000e-01	1.89074222e-02	3.26435048e-04
1.72000000e-01	1.88353507e-02	3.23506702e-04
1.72500000e-01	1.87604837e-02	3.23838344e-04
1.73000000e-01	1.85380421e-02	3.20007487e-04
1.73500000e-01	1.88162314e-02	3.20859289e-04
1.74000000e-01	1.87750883e-02	3.21081767e-04
1.74500000e-01	1.88388165e-02	3.19784584e-04
1.75000000e-01	1.88171519e-02	3.20194484e-04
1.75500000e-01	1.87521188e-02	3.17602696e-04
1.76000000e-01	1.86739134e-02	3.17264174e-04
1.76500000e-01	1.89713484e-02	3.22390893e-04
1.77000000e-01	1.84012623e-02	3.10832844e-04
1.77500000e-01	1.86697887e-02	3.16818748e-04
1.78000000e-01	1.87784341e-02	3.17451479e-04
1.78500000e-01	1.86845579e-02	3.15929072e-04
1.79000000e-01	1.86257328e-02	3.13825306e-04
1.79500000e-01	1.87898342e-02	3.17537979e-04
1.80000000e-01	1.88074355e-02	3.16529902e-04
1.80500000e-01	1.87528346e-02	3.15702362e-04
1.81000000e-01	1.89453302e-02	3.18174143e-04
1.81500000e-01	1.84871993e-02	3.09156889e-04
1.82000000e-01	1.84777734e-02	3.10791596e-04
1.82500000e-01	1.86128717e-02	3.11781047e-04
1.83000000e-01	1.89740113e-02	3.18430387e-04
1.83500000e-01	1.84852056e-02	3.06964432e-04
1.84000000e-01	1.86071536e-02	3.10258015e-04
1.84500000e-01	1.87698107e-02	3.12530627e-04
1.85000000e-01	1.85510510e-02	3.07324693e-04
1.85500000e-01	1.85925455e-02	3.08406975e-04
1.86000000e-01	1.85948554e-02	3.08133185e-04
1.86500000e-01	1.85035611e-02	3.06125887e-04
1.87000000e-01	1.84534118e-02	3.05609490e-04
1.87500000e-01	1.85525000e-02	3.07178523e-04
1.88000000e-01	1.86861961e-02	3.09365997e-04
1.88500000e-01	1.84748658e-02	3.04964986e-04
1.89000000e-01	1.85121265e-02	3.04822941e-04
1.89500000e-01	1.86227866e-02	3.06476485e-04
1.90000000e-01	1.82702171e-02	2.98803169e-04
1.90500000e-01	1.82823285e-02	3.00622704e-04
1.91000000e-01	1.84272066e-02	3.01300881e-04
1.91500000e-01	1.85407056e-02	3.03421476e-04
1.92000000e-01	1.83052966e-02	2.99200219e-04
1.92500000e-01	1.83422978e-02	2.99003554e-04
1.93000000e-01	1.83564651e-02	3.00810800e-04
1.93500000e-01	1.84733716e-02	3.01579609e-04
1.94000000e-01	1.80551207e-02	2.93020049e-04
1.94500000e-01	1.83898860e-02	2.98770882e-04
1.95000000e-01	1.86828119e-02	3.02144746e-04
1.95500000e-01	1.83053342e-02	2.97024544e-04
1.96000000e-01	1.83588887e-02	2.96837214e-04
1.96500000e-01	1.84777546e-02	2.99027407e-04
1.97000000e-01	1.83590272e-02	2.95213740e-04
1.97500000e-01	1.86772049e-02	3.01431248e-04
1.98000000e-01	1.82780804e-02	2.94652171e-04
1.98500000e-01	1.84143050e-02	2.96353533e-04
1.99000000e-01	1.84916102e-02	2.96102655e-04
1.99500000e-01	1.83093483e-02	2.93247933e-04
2.00000000e-01	1.84771286e-02	2.95660036e-04
2.00500000e-01	1.82710557e-02	2.92872238e-04
2.01000000e-01	1.83002276e-02	2.93125184e-04
2.01500000e-01	1.81069046e-02	2.88807415e-04
2.02000000e-01	1.81294746e-02	2.89144768e-04
2.02500000e-01	1.83649243e-02	2.91481693e-04
2.03000000e-01	1.84276110e-02	2.92713364e-04
2.03500000e-01	1.81027782e-02	2.87198601e-04
2.04000000e-01	1.80858605e-02	2.87157142e-04
2.04500000e-01	1.82666126e-02	2.90740732e-04
2.05000000e-01	1.83085138e-02	2.87756286e-04
2.05500000e-01	1.82720016e-02	2.90349712e-04
2.06000000e-01	1.81829380e-02	2.86545990e-04
2.06500000e-01	1.81103064e-02	2.86315099e-04
2.07000000e-01	1.84170734e-02	2.89296448e-04
2.07500000e-01	1.83695695e-02	2.88452837e-04
2.08000000e-01	1.82528583e-02	2.87912769e-04
2.08500000e-01	1.81802748e-02	2.84043818e-04
2.09000000e-01	1.81583240e-02	2.85693916e-04
2.09500000e-01	1.81899949e-02	2.84806352e-04
2.10000000e-01	1.81787114e-02	2.84113822e-04
2.10500000e-01	1.80474303e-02	2.83307449e-04
2.11000000e-01	1.80087147e-02	2.80375095e-04
2.11500000e-01	1.81524882e-02	2.83799621e-04
2.12000000e-01	1.81437088e-02	2.83197672e-04
2.12500000e-01	1.83829877e-02	2.85951293e-04
2.13000000e-01	1.80860713e-02	2.80916612e-04
2.13500000e-01	1.83558429e-02	2.84549551e-04
2.14000000e-01	1.81025284e-02	2.80819784e-04
2.14500000e-01	1.81992409e-02	2.80379213e-04
2.15000000e-01	1.77788620e-02	2.76667825e-04
2.15500000e-01	1.80012338e-02	2.78581192e-04
2.16000000e-01	1.78933375e-02	2.77195394e-04
2.16500000e-01	1.81506031e-02	2.79868829e-04
2.17000000e-01	1.79697280e-02	2.81677989e-04
2.17500000e-01	1.80826528e-02	2.87449861e-04
2.18000000e-01	1.79213241e-02	2.85249756e-04
2.18500000e-01	1.78298235e-02	2.86807941e-04
2.19000000e-01	1.81431718e-02	2.91998534e-04
2.19500000e-01	1.77843271e-02	2.87532103e-04
2.20000000e-01	1.82575669e-02	2.96946921e-04
2.20500000e-01	1.80705099e-02	2.93923959e-04
2.21000000e-01	1.80704993e-02	2.94378735e-04
2.21500000e-01	1.78075133e-02	2.90745317e-04
2.22000000e-01	1.79068537e-02	2.93883265e-04
2.22500000e-01	1.77622881e-02	2.91424032e-04
2.23000000e-01	1.78878914e-02	2.94912101e-04
2.23500000e-01	1.75747229e-02	2.90311065e-04
2.24000000e-01	1.80512681e-02	2.99032562e-04
2.24500000e-01	1.79083283e-02	2.97149826e-04
2.25000000e-01	1.78227287e-02	2.96478519e-04
2.25500000e-01	1.78485293e-02	2.96995557e-04
2.26000000e-01	1.79901724e-02	3.00222285e-04
2.26500000e-01	1.80340602e-02	2.96236499e-04
2.27000000e-01	1.78658289e-02	2.91116544e-04
2.27500000e-01	1.76854997e-02	2.86026327e-04
2.28000000e-01	1.79920416e-02	2.88114706e-04
2.28500000e-01	1.80100818e-02	2.87837481e-04
2.29000000e-01	1.80369722e-02	2.85868970e-04
2.29500000e-01	1.79364652e-02	2.83247557e-04
2.30000000e-01	1.76792537e-02	2.79260093e-04
2.30500000e-01	1.79056788e-02	2.81437305e-04
2.31000000e-01	1.80285374e-02	2.83243214e-04
2.31500000e-01	1.80212889e-02	2.82551061e-04
2.32000000e-01	1.77448625e-02	2.77293370e-04
2.32500000e-01	1.76700147e-02	2.76853314e-04
2.33000000e-01	1.76780883e-02	2.76535283e-04
2.33500000e-01	1.77621215e-02	2.75585932e-04
2.34000000e-01	1.79606234e-02	2.77773560e-04
2.34500000e-01	1.76335238e-02	2.73384969e-04
2.35000000e-01	1.77679343e-02	2.74747901e-04
2.35500000e-01	1.78002361e-02	2.74812337e-04
2.36000000e-01	1.78963923e-02	2.74649589e-04
2.36500000e-01	1.76820840e-02	2.72460527e-04
2.37000000e-01	1.76888781e-02	2.70743468e-04
2.37500000e-01	1.75887404e-02	2.70272706e-04
2.38000000e-01	1.77120121e-02	2.70290778e-04
2.38500000e-01	1.77734103e-02	2.71856154e-04
2.39000000e-01	1.78254004e-02	2.71305537e-04
2.39500000e-01	1.77268385e-02	2.69546281e-04
2.40000000e-01	1.77039988e-02	2.69074724e-04
2.40500000e-01	1.77387070e-02	2.68120788e-04
2.41000000e-01	1.77732710e-02	2.69211357e-04
2.41500000e-01	1.77410806e-02	2.66875609e-04
2.42000000e-01	1.77325895e-02	2.67696581e-04
2.42500000e-01	1.76695321e-02	2.66369779e-04
2.43000000e-01	1.77001131e-02	2.66317740e-04
2.43500000e-01	1.77102221e-02	2.65989945e-04
2.44000000e-01	1.76414506e-02	2.64798475e-04
2.44500000e-01	1.74550437e-02	2.61566466e-04
2.45000000e-01	1.78724705e-02	2.65788149e-04
2.45500000e-01	1.74870025e-02	2.61647697e-04
2.46000000e-01	1.75662560e-02	2.62362881e-04
2.46500000e-01	1.74647888e-02	2.59819127e-04
2.47000000e-01	1.76136539e-02	2.62079025e-04
2.47500000e-01	1.75387571e-02	2.59608035e-04
2.48000000e-01	1.75756020e-02	2.61321903e-04
2.48500000e-01	1.73650398e-02	2.57564937e-04
2.49000000e-01	1.72519181e-02	2.56920260e-04
2.49500000e-01	1.73068935e-02	2.56928843e-04
2.50000000e-01	1.74093350e-02	2.57320165e-04
2.50500000e-01	1.75732440e-02	2.60688996e-04
2.51000000e-01	1.74897546e-02	2.58358317e-04
2.51500000e-01	1.75445052e-02	2.58678501e-04
2.52000000e-01	1.73991930e-02	2.56051587e-04
2.52500000e-01	1.72809142e-02	2.53976997e-04
2.53000000e-01	1.75779336e-02	2.58288810e-04
2.53500000e-01	1.74945934e-02	2.56253119e-04
2.54000000e-01	1.73869809e-02	2.55806900e-04
2.54500000e-01	1.72444181e-02	2.53995462e-04
2.55000000e-01	1.73554602e-02	2.53240247e-04
2.55500000e-01	1.74958442e-02	2.56623769e-04
2.56000000e-01	1.72390049e-02	2.51184841e-04
2.56500000e-01	1.75222475e-02	2.55075297e-04
2.57000000e-01	1.74263844e-02	2.53798177e-04
2.57500000e-01	1.72659671e-02	2.51561241e-04
2.58000000e-01	1.75163388e-02	2.54818872e-04
2.58500000e-01	1.74517756e-02	2.53580823e-04
2.59000000e-01	1.73618239e-02	2.51376835e-04
2.59500000e-01	1.73926769e-02	2.52388754e-04
2.60000000e-01	1.73194928e-02	2.50778142e-04
2.60500000e-01	1.73409250e-02	2.50929309e-04
2.61000000e-01	1.71865363e-02	2.47851688e-04
2.61500000e-01	1.74780594e-02	2.52213027e-04
2.62000000e-01	1.72266090e-02	2.47766571e-04
2.62500000e-01	1.73612596e-02	2.49930622e-04
2.63000000e-01	1.72309115e-02	2.49080920e-04
2.63500000e-01	1.74759105e-02	2.50371042e-04
2.64000000e-01	1.71841710e-02	2.47490209e-04
2.64500000e-01	1.74855416e-02	2.50599869e-04
2.65000000e-01	1.72473022e-02	2.46310190e-04
2.65500000e-01	1.69771899e-02	2.43464979e-04
2.66000000e-01	1.71506599e-02	2.44992424e-04
2.66500000e-01	1.71993436e-02	2.45350140e-04
2.67000000e-01	1.72636702e-02	2.45087760e-04
2.67500000e-01	1.71837112e-02	2.45244986e-04
2.68000000e-01	1.72208009e-02	2.45284988e-04
2.68500000e-01	1.69581474e-02	2.41026359e-04
2.69000000e-01	1.74253573e-02	2.45910201e-04
2.69500000e-01	1.72543434e-02	2.44860431e-04
2.70000000e-01	1.70349736e-02	2.42483227e-04
2.70500000e-01	1.71349771e-02	2.41193867e-04
2.71000000e-01	1.72198643e-02	2.43069308e-04
2.71500000e-01	1.68967851e-02	2.38756266e-04
2.72000000e-01	1.70416220e-02	2.39701699e-04
2.72500000e-01	1.71832702e-02	2.41727291e-04
2.73000000e-01	1.71233916e-02	2.40828225e-04
2.73500000e-01	1.72477153e-02	2.42120019e-04
2.74000000e-01	1.70410564e-02	2.40065268e-04
2.74500000e-01	1.70191271e-02	2.37761293e-04
2.75000000e-01	1.71350890e-02	2.39852449e-04
2.75500000e-01	1.73408892e-02	2.43044757e-04
2.76000000e-01	1.67761213e-02	2.35146821e-04
2.76500000e-01	1.72549949e-02	2.41774227e-04
2.77000000e-01	1.71829129e-02	2.39689349e-04
2.77500000e-01	1.70726249e-02	2.38985836e-04
2.78000000e-01	1.70065319e-02	2.37532037e-04
2.78500000e-01	1.70519320e-02	2.38189844e-04
2.79000000e-01	1.69827223e-02	2.36327640e-04
2.79500000e-01	1.72198035e-02	2.39064350e-04
2.80000000e-01	1.67872803e-02	2.34012189e-04
2.80500000e-01	1.69081274e-02	2.35929136e-04
2.81000000e-01	1.71948406e-02	2.38847242e-04
2.81500000e-01	1.70347346e-02	2.36694456e-04
2.82000000e-01	1.69364237e-02	2.34567352e-04
2.82500000e-01	1.69225985e-02	2.35175439e-04
2.83000000e-01	1.69732220e-02	2.34606154e-04
2.83500000e-01	1.69811653e-02	2.34930609e-04
2.84000000e-01	1.70236586e-02	2.34923378e-04
2.84500000e-01	1.69505156e-02	2.33280472e-04
2.85000000e-01	1.69766441e-02	2.34330384e-04
2.85500000e-01	1.70290053e-02	2.34350276e-04
2.86000000e-01	1.69494271e-02	2.34026684e-04
2.86500000e-01	1.69700912e-02	2.33232861e-04
2.87000000e-01	1.65491757e-02	2.28593087e-04
2.87500000e-01	1.69510919e-02	2.31554622e-04
2.88000000e-01	1.68811566e-02	2.30679800e-04
2.88500000e-01	1.70169210e-02	2.33649354e-04
2.89000000e-01	1.68990403e-02	2.30359194e-04
2.89500000e-01	1.69199000e-02	2.30984242e-04
2.90000000e-01	1.70200537e-02	2.31826375e-04
2.90500000e-01	1.67392599e-02	2.29722955e-04
2.91000000e-01	1.69048153e-02	2.30777587e-04
2.91500000e-01	1.67620781e-02	2.28189240e-04
2.92000000e-01	1.67007880e-02	2.27679678e-04
2.92500000e-01	1.68306371e-02	2.28185376e-04
2.93000000e-01	1.68354330e-02	2.29295824e-04
2.93500000e-01	1.67256731e-02	2.26774994e-04
2.94000000e-01	1.69647068e-02	2.30143481e-04
2.94500000e-01	1.69307435e-02	2.29474361e-04
2.95000000e-01	1.63469379e-02	2.21546295e-04
2.95500000e-01	1.68594749e-02	2.28047894e-04
2.96000000e-01	1.69228025e-02	2.28471917e-04
2.96500000e-01	1.67995452e-02	2.26159098e-04
2.97000000e-01	1.67942740e-02	2.27118828e-04
2.97500000e-01	1.68953798e-02	2.27003391e-04
2.98000000e-01	1.66760363e-02	2.24738015e-04
2.98500000e-01	1.68616968e-02	2.27196105e-04
2.99000000e-01	1.67328996e-02	2.25755001e-04
2.99500000e-01	1.67802396e-02	2.25882892e-04
3.00000000e-01	1.68972658e-02	2.26722602e-04
3.00500000e-01	1.66886748e-02	2.24597512e-04
3.01000000e-01	1.68407596e-02	2.26406321e-04
3.01500000e-01	1.65432163e-02	2.22520919e-04
3.02000000e-01	1.68432469e-02	2.25186068e-04
3.02500000e-01	1.66587041e-02	2.21962451e-04
3.03000000e-01	1.67489242e-02	2.24354748e-04
3.03500000e-01	1.65760575e-02	2.21773483e-04
3.04000000e-01	1.65639808e-02	2.21139456e-04
3.04500000e-01	1.67102661e-02	2.22325229e-04
3.05000000e-01	1.65630858e-02	2.21602179e-04
3.05500000e-01	1.67466254e-02	2.22921303e-04
3.06000000e-01	1.66622278e-02	2.19745409e-04
3.06500000e-01	1.67038752e-02	2.22402257e-04
3.07000000e-01	1.67334019e-02	2.21214383e-04
3.07500000e-01	1.66176089e-02	2.20679917e-04
3.08000000e-01	1.66282831e-02	2.20095171e-04
3.08500000e-01	1.65842929e-02	2.19183832e-04
3.09000000e-01	1.66936044e-02	2.21620778e-04
3.09500000e-01	1.68101155e-02	2.22291137e-04
3.10000000e-01	1.64839330e-02	2.17838803e-04
3.10500000e-01	1.64821646e-02	2.17999367e-04
3.11000000e-01	1.66195228e-02	2.18721994e-04
3.11500000e-01	1.66710541e-02	2.20223868e-04
3.12000000e-01	1.65487858e-02	2.17650575e-04
3.12500000e-01	1.65686559e-02	2.18578711e-04
3.13000000e-01	1.65855360e-02	2.18042083e-04
3.13500000e-01	1.65533966e-02	2.17304709e-04
3.14000000e-01	1.64769023e-02	2.16373564e-04
3.14500000e-01	1.64044794e-02	2.15562007e-04
3.15000000e-01	1.64654496e-02	2.16247351e-04
3.15500000e-01	1.64907828e-02	2.16016451e-04
3.16000000e-01	1.63723903e-02	2.14618592e-04
3.16500000e-01	1.65332463e-02	2.15704663e-04
3.17000000e-01	1.64630186e-02	2.14959164e-04
3.17500000e-01	1.64544353e-02	2.15100856e-04
3.18000000e-01	1.63210048e-02	2.12886115e-04
3.18500000e-01	1.62847965e-02	2.13470378e-04
3.19000000e-01	1.64151602e-02	2.13391524e-04
3.19500000e-01	1.64010308e-02	2.13802152e-04
3.20000000e-01	1.64632736e-02	2.14381786e-04
3.20500000e-01	1.64091076e-02	2.13679451e-04
3.21000000e-01	1.64247569e-02	2.13290009e-04
3.21500000e-01	1.62781088e-02	2.11426377e-04
3.22000000e-01	1.62855339e-02	2.11099987e-04
3.22500000e-01	1.62086893e-02	2.10207875e-04
3.23000000e-01	1.65622693e-02	2.14117205e-04
3.23500000e-01	1.63554275e-02	2.11619269e-04
3.24000000e-01	1.64961141e-02	2.13287532e-04
3.24500000e-01	1.63444131e-02	2.12288572e-04
3.25000000e-01	1.62639831e-02	2.10493722e-04
3.25500000e-01	1.63046769e-02	2.09999562e-04
3.26000000e-01	1.65240111e-02	2.13379354e-04
3.26500000e-01	1.62671430e-02	2.09403453e-04
3.27000000e-01	1.61405651e-02	2.08541515e-04
3.27500000e-01	1.62254133e-02	2.08711392e-04
3.28000000e-01	1.61316290e-02	2.08331313e-04
3.28500000e-01	1.64202623e-02	2.11187378e-04
3.29000000e-01	1.61044743e-02	2.07305689e-04
3.29500000e-01	1.62305250e-02	2.08288316e-04
3.30000000e-01	1.60277633e-02	2.05500105e-04
3.30500000e-01	1.62488845e-02	2.08528578e-04
3.31000000e-01	1.61499190e-02	2.06497494e-04
3.31500000e-01	1.61093012e-02	2.05899900e-04
3.32000000e-01	1.61029524e-02	2.06715932e-04
3.32500000e-01	1.60469996e-02	2.05002201e-04
3.33000000e-01	1.60257336e-02	2.05051478e-04
3.33500000e-01	1.61605248e-02	2.05960820e-04
3.34000000e-01	1.60456680e-02	2.04603533e-04
3.34500000e-01	1.62596441e-02	2.07621904e-04
3.35000000e-01	1.61206042e-02	2.05413996e-04
3.35500000e-01	1.61614730e-02	2.05673168e-04
3.36000000e-01	1.61865975e-02	2.06031491e-04
3.36500000e-01	1.60735358e-02	2.05122056e-04
3.37000000e-01	1.61396478e-02	2.05210102e-04
3.37500000e-01	1.60559395e-02	2.03816158e-04
3.38000000e-01	1.62057378e-02	2.05810732e-04
3.38500000e-01	1.60718955e-02	2.02917603e-04
3.39000000e-01	1.60337228e-02	2.03684496e-04
3.39500000e-01	1.61138255e-02	2.03483227e-04
3.40000000e-01	1.59791523e-02	2.03249993e-04
3.40500000e-01	1.59632783e-02	2.01289157e-04
3.41000000e-01	1.60607851e-02	2.02384656e-04
3.41500000e-01	1.58996099e-02	2.00498844e-04
3.42000000e-01	1.61265628e-02	2.03112879e-04
3.42500000e-01	1.60252422e-02	2.01419721e-04
3.43000000e-01	1.60405013e-02	2.02037964e-04
3.43500000e-01	1.59727010e-02	2.01525572e-04
3.44000000e-01	1.60905206e-02	2.02846920e-04
3.44500000e-01	1.59608338e-02	2.00439669e-04
3.45000000e-01	1.59831488e-02	2.01471061e-04
3.45500000e-01	1.59066727e-02	1.99632769e-04
3.46000000e-01	1.60492686e-02	2.01700611e-04
3.46500000e-01	1.58647441e-02	1.99546122e-04
3.47000000e-01	1.59270026e-02	1.99283995e-04
3.47500000e-01	1.60316978e-02	2.00449108e-04
3.48000000e-01	1.59208153e-02	1.98896555e-04
3.48500000e-01	1.58865229e-02	1.99236831e-04
3.49000000e-01	1.58722062e-02	1.97840151e-04
3.49500000e-01	1.58336646e-02	1.97445584e-04
3.50000000e-01	1.58740449e-02	1.61720324e-04
3.51000000e-01	1.58992413e-02	1.40154795e-04
3.52000000e-01	1.58217170e-02	1.39218561e-04
3.53000000e-01	1.58785561e-02	1.39178554e-04
3.54000000e-01	1.59336563e-02	1.39137343e-04
3.55000000e-01	1.57828620e-02	1.38265721e-04
3.56000000e-01	1.57468125e-02	1.38591453e-04
3.57000000e-01	1.57234715e-02	1.40624101e-04
3.58000000e-01	1.56500457e-02	1.41418065e-04
3.59000000e-01	1.56787397e-02	1.43091319e-04
3.60000000e-01	1.57183344e-02	1.44104404e-04
3.61000000e-01	1.56971057e-02	1.44332158e-04
3.62000000e-01	1.55893734e-02	1.43902293e-04
3.63000000e-01	1.56869695e-02	1.45385324e-04
3.64000000e-01	1.57612685e-02	1.46709898e-04
3.65000000e-01	1.56739178e-02	1.46526430e-04
3.66000000e-01	1.55209348e-02	1.43283196e-04
3.67000000e-01	1.55429768e-02	1.41804263e-04
3.68000000e-01	1.54518907e-02	1.39425950e-04
3.69000000e-01	1.56825910e-02	1.40816347e-04
3.70000000e-01	1.55670482e-02	1.39207854e-04
3.71000000e-01	1.55463981e-02	1.40885153e-04
3.72000000e-01	1.55538195e-02	1.42091465e-04
3.73000000e-01	1.54505720e-02	1.41290059e-04
3.74000000e-01	1.55862592e-02	1.42551261e-04
3.75000000e-01	1.55243487e-02	1.41758202e-04
3.76000000e-01	1.55326390e-02	1.42059617e-04
3.77000000e-01	1.55452956e-02	1.42692315e-04
3.78000000e-01	1.56175369e-02	1.42930351e-04
3.79000000e-01	1.55545815e-02	1.42102877e-04
3.80000000e-01	1.53365329e-02	1.40387466e-04
3.81000000e-01	1.54988421e-02	1.41778752e-04
3.82000000e-01	1.55115218e-02	1.41695563e-04
3.83000000e-01	1.53957015e-02	1.40202111e-04
3.84000000e-01	1.53361488e-02	1.39988611e-04
3.85000000e-01	1.53543998e-02	1.40929542e-04
3.86000000e-01	1.53483429e-02	1.40091865e-04
3.87000000e-01	1.54101199e-02	1.40434286e-04
3.88000000e-01	1.52567599e-02	1.39015905e-04
3.89000000e-01	1.51199614e-02	1.37894784e-04
3.90000000e-01	1.51676695e-02	1.38603056e-04
3.91000000e-01	1.52402535e-02	1.38729591e-04
3.92000000e-01	1.52243836e-02	1.39003985e-04
3.93000000e-01	1.52925948e-02	1.39265097e-04
3.94000000e-01	1.52965763e-02	1.39615210e-04
3.95000000e-01	1.51549293e-02	1.38184180e-04
3.96000000e-01	1.52489819e-02	1.38990438e-04
3.97000000e-01	1.51321171e-02	1.37615071e-04
3.98000000e-01	1.51365757e-02	1.37937039e-04
3.99000000e-01	1.52238837e-02	1.38630738e-04
4.00000000e-01	1.52073585e-02	1.38466178e-04
4.01000000e-01	1.52438645e-02	1.38834976e-04
4.02000000e-01	1.52072369e-02	1.38534324e-04
4.03000000e-01	1.51270267e-02	1.37783180e-04
4.04000000e-01	1.51257630e-02	1.37833872e-04
4.05000000e-01	1.50492297e-02	1.37101931e-04
4.06000000e-01	1.49455945e-02	1.36125070e-04
4.07000000e-01	1.50093311e-02	1.36770487e-04
4.08000000e-01	1.51331374e-02	1.37468649e-04
4.09000000e-01	1.49795327e-02	1.36350746e-04
4.10000000e-01	1.51116863e-02	1.37232390e-04
4.11000000e-01	1.48639976e-02	1.35587190e-04
4.12000000e-01	1.50364160e-02	1.36342035e-04
4.13000000e-01	1.50739517e-02	1.36672374e-04
4.14000000e-01	1.48543525e-02	1.34772528e-04
4.15000000e-01	1.49759505e-02	1.35805718e-04
4.16000000e-01	1.49441307e-02	1.35726011e-04
4.17000000e-01	1.49988907e-02	1.36214394e-04
4.18000000e-01	1.49006236e-02	1.36728601e-04
4.19000000e-01	1.50482812e-02	1.39752445e-04
4.20000000e-01	1.49180826e-02	1.39283679e-04
4.21000000e-01	1.50992409e-02	1.41123940e-04
4.22000000e-01	1.49497829e-02	1.40832901e-04
4.23000000e-01	1.50108086e-02	1.41801289e-04
4.24000000e-01	1.49255371e-02	1.41041519e-04
4.25000000e-01	1.51209289e-02	1.42735019e-04
4.26000000e-01	1.50349287e-02	1.42310363e-04
4.27000000e-01	1.49276427e-02	1.41405563e-04
4.28000000e-01	1.49299714e-02	1.41811697e-04
4.29000000e-01	1.50571322e-02	1.43149174e-04
4.30000000e-01	1.50239227e-02	1.42328499e-04
4.31000000e-01	1.48503094e-02	1.40844939e-04
4.32000000e-01	1.48353301e-02	1.41189363e-04
4.33000000e-01	1.49481659e-02	1.41954888e-04
4.34000000e-01	1.48217765e-02	1.40920095e-04
4.35000000e-01	1.48153172e-02	1.40995515e-04
4.36000000e-01	1.49855410e-02	1.42891490e-04
4.37000000e-01	1.48694874e-02	1.41835783e-04
4.38000000e-01	1.48123221e-02	1.41917674e-04
4.39000000e-01	1.48318135e-02	1.42340200e-04
4.40000000e-01	1.48082795e-02	1.41632512e-04
4.41000000e-01	1.49015040e-02	1.42966217e-04
4.42000000e-01	1.47587561e-02	1.42010739e-04
4.43000000e-01	1.47467784e-02	1.42148911e-04
4.44000000e-01	1.48394610e-02	1.42927812e-04
4.45000000e-01	1.48558573e-02	1.43348513e-04
4.46000000e-01	1.46099712e-02	1.41652758e-04
4.47000000e-01	1.47953824e-02	1.43139357e-04
4.48000000e-01	1.47596945e-02	1.42979630e-04
4.49000000e-01	1.47476073e-02	1.42544580e-04
4.50000000e-01	1.46985136e-02	1.43080726e-04
4.51000000e-01	1.47575697e-02	1.43242200e-04
4.52000000e-01	1.45503532e-02	1.41792283e-04
4.53000000e-01	1.45810418e-02	1.42279120e-04
4.54000000e-01	1.46511649e-02	1.42710211e-04
4.55000000e-01	1.45211225e-02	1.41948551e-04
4.56000000e-01	1.45115983e-02	1.41911864e-04
4.57000000e-01	1.46479945e-02	1.43076808e-04
4.58000000e-01	1.44827257e-02	1.41884905e-04
4.59000000e-01	1.45201287e-02	1.42116761e-04
4.60000000e-01	1.46075723e-02	1.42904524e-04
4.61000000e-01	1.46997725e-02	1.43929100e-04
4.62000000e-01	1.46392414e-02	1.43752028e-04
4.63000000e-01	1.45800074e-02	1.42923131e-04
4.64000000e-01	1.47739976e-02	1.44781016e-04
4.65000000e-01	1.45657917e-02	1.43257554e-04
4.66000000e-01	1.46052597e-02	1.43242872e-04
4.67000000e-01	1.47643017e-02	1.45261942e-04
4.68000000e-01	1.46858764e-02	1.44571286e-04
4.69000000e-01	1.46261189e-02	1.44010846e-04
4.70000000e-01	1.46233251e-02	1.44357691e-04
4.71000000e-01	1.44930430e-02	1.42948768e-04
4.72000000e-01	1.45350806e-02	1.43213000e-04
4.73000000e-01	1.44648773e-02	1.42721633e-04
4.74000000e-01	1.45136799e-02	1.42931238e-04
4.75000000e-01	1.45010616e-02	1.42462491e-04
4.76000000e-01	1.45404122e-02	1.42711880e-04
4.77000000e-01	1.44420664e-02	1.42575330e-04
4.78000000e-01	1.43586455e-02	1.41798404e-04
4.79000000e-01	1.44882773e-02	1.42620271e-04
4.80000000e-01	1.43527866e-02	1.42178776e-04
4.81000000e-01	1.43369619e-02	1.41590732e-04
4.82000000e-01	1.45204258e-02	1.42904766e-04
4.83000000e-01	1.44134415e-02	1.42571018e-04
4.84000000e-01	1.43138791e-02	1.41734816e-04
4.85000000e-01	1.43958658e-02	1.42444939e-04
4.86000000e-01	1.43297100e-02	1.42064765e-04
4.87000000e-01	1.43633161e-02	1.42132671e-04
4.88000000e-01	1.44102047e-02	1.42627328e-04
4.89000000e-01	1.43764485e-02	1.42600238e-04
4.90000000e-01	1.42674180e-02	1.41827640e-04
4.91000000e-01	1.43013465e-02	1.42055502e-04
4.92000000e-01	1.42728509e-02	1.42156227e-04
4.93000000e-01	1.43573105e-02	1.42917807e-04
4.94000000e-01	1.42108231e-02	1.41629736e-04
4.95000000e-01	1.42153723e-02	1.42582412e-04
4.96000000e-01	1.43005072e-02	1.47689450e-04
4.97000000e-01	1.44339606e-02	1.51375911e-04
4.98000000e-01	1.41162866e-02	1.50651462e-04
4.99000000e-01	1.41615222e-02	1.52743384e-04
5.00000000e-01	1.42547802e-02	1.55198871e-04
5.01000000e-01	1.42754588e-02	1.56827093e-04
5.02000000e-01	1.42186947e-02	1.58256683e-04
5.03000000e-01	1.43160871e-02	1.60488582e-04
5.04000000e-01	1.43629949e-02	1.62245626e-04
5.05000000e-01	1.41767697e-02	1.57260663e-04
5.06000000e-01	1.44012511e-02	1.56922435e-04
5.07000000e-01	1.43372507e-02	1.54736396e-04
5.08000000e-01	1.42949098e-02	1.53071343e-04
5.09000000e-01	1.42461222e-02	1.51518698e-04
5.10000000e-01	1.41039916e-02	1.50202815e-04
5.11000000e-01	1.42003362e-02	1.50483379e-04
5.12000000e-01	1.40951682e-02	1.49320732e-04
5.13000000e-01	1.41897239e-02	1.50014811e-04
5.14000000e-01	1.41675021e-02	1.49398963e-04
5.15000000e-01	1.41879410e-02	1.49045549e-04
5.16000000e-01	1.43132975e-02	1.50356471e-04
5.17000000e-01	1.42179044e-02	1.49088741e-04
5.18000000e-01	1.40931893e-02	1.47288683e-04
5.19000000e-01	1.40783017e-02	1.46519952e-04
5.20000000e-01	1.40298513e-02	1.45667839e-04
5.21000000e-01	1.41319971e-02	1.47153831e-04
5.22000000e-01	1.40301035e-02	1.46119915e-04
5.23000000e-01	1.41868553e-02	1.47566861e-04
5.24000000e-01	1.40840188e-02	1.46647861e-04
5.25000000e-01	1.41209145e-02	1.46842346e-04
5.26000000e-01	1.40721318e-02	1.45824579e-04
5.27000000e-01	1.39759498e-02	1.45311558e-04
5.28000000e-01	1.39805609e-02	1.45250322e-04
5.29000000e-01	1.39272790e-02	1.44670692e-04
5.30000000e-01	1.39486916e-02	1.44866704e-04
5.31000000e-01	1.39535408e-02	1.45114768e-04
5.32000000e-01	1.38274520e-02	1.43870956e-04
5.33000000e-01	1.40370256e-02	1.45675852e-04
5.34000000e-01	1.38833087e-02	1.44177190e-04
5.35000000e-01	1.39152882e-02	1.44474448e-04
5.36000000e-01	1.38826252e-02	1.44056615e-04
5.37000000e-01	1.39224708e-02	1.45020626e-04
5.38000000e-01	1.39653437e-02	1.44321119e-04
5.39000000e-01	1.40398228e-02	1.45974817e-04
5.40000000e-01	1.39069610e-02	1.44541286e-04
5.41000000e-01	1.38194336e-02	1.43723579e-04
5.42000000e-01	1.38534539e-02	1.43622098e-04
5.43000000e-01	1.37581068e-02	1.43053630e-04
5.44000000e-01	1.39114752e-02	1.44640039e-04
5.45000000e-01	1.38948967e-02	1.43911822e-04
5.46000000e-01	1.39294652e-02	1.44350287e-04
5.47000000e-01	1.38334321e-02	1.43718541e-04
5.48000000e-01	1.37419009e-02	1.42891764e-04
5.49000000e-01	1.40017951e-02	1.45374401e-04
5.50000000e-01	1.37701196e-02	1.43376490e-04
5.51000000e-01	1.39415182e-02	1.44582344e-04
5.52000000e-01	1.37759351e-02	1.42662478e-04
5.53000000e-01	1.38497258e-02	1.42965201e-04
5.54000000e-01	1.36179295e-02	1.41197126e-04
5.55000000e-01	1.36941626e-02	1.41768941e-04
5.56000000e-01	1.38147818e-02	1.42674063e-04
5.57000000e-01	1.37390514e-02	1.41865636e-04
5.58000000e-01	1.37817236e-02	1.42321348e-04
5.59000000e-01	1.36714425e-02	1.41311525e-04
5.60000000e-01	1.35401281e-02	1.40620280e-04
5.61000000e-01	1.37048071e-02	1.41855089e-04
5.62000000e-01	1.36214436e-02	1.41376239e-04
5.63000000e-01	1.36855091e-02	1.41525422e-04
5.64000000e-01	1.36225827e-02	1.41033691e-04
5.65000000e-01	1.36952999e-02	1.41412558e-04
5.66000000e-01	1.37101963e-02	1.41521557e-04
5.67000000e-01	1.36968319e-02	1.41754175e-04
5.68000000e-01	1.35190472e-02	1.40124385e-04
5.69000000e-01	1.35370462e-02	1.39685101e-04
5.70000000e-01	1.35725762e-02	1.40108326e-04
5.71000000e-01	1.35835191e-02	1.40381193e-04
5.72000000e-01	1.35449921e-02	1.39591940e-04
5.73000000e-01	1.35842816e-02	1.40723813e-04
5.74000000e-01	1.34406601e-02	1.38840307e-04
5.75000000e-01	1.34898458e-02	1.40163835e-04
5.76000000e-01	1.35036190e-02	1.39814884e-04
5.77000000e-01	1.34033312e-02	1.38697811e-04
5.78000000e-01	1.35147315e-02	1.39896879e-04
5.79000000e-01	1.34519179e-02	1.39208439e-04
5.80000000e-01	1.33898754e-02	1.38851966e-04
5.81000000e-01	1.35566374e-02	1.40462938e-04
5.82000000e-01	1.34382282e-02	1.39121841e-04
5.83000000e-01	1.34361854e-02	1.39368204e-04
5.84000000e-01	1.34302253e-02	1.39860003e-04
5.85000000e-01	1.35115696e-02	1.40359323e-04
5.86000000e-01	1.33790844e-02	1.39306143e-04
5.87000000e-01	1.32948818e-02	1.38522519e-04
5.88000000e-01	1.33801546e-02	1.38978471e-04
5.89000000e-01	1.33733705e-02	1.38482898e-04
5.90000000e-01	1.33899730e-02	1.38992089e-04
5.91000000e-01	1.32672626e-02	1.37942477e-04
5.92000000e-01	1.33696368e-02	1.39104472e-04
5.93000000e-01	1.32725619e-02	1.37933219e-04
5.94000000e-01	1.33985030e-02	1.39255432e-04
5.95000000e-01	1.33555044e-02	1.38796349e-04
5.96000000e-01	1.32784859e-02	1.38737448e-04
5.97000000e-01	1.33163778e-02	1.38893327e-04
5.98000000e-01	1.32501336e-02	1.38306306e-04
5.99000000e-01	1.32422858e-02	1.38138085e-04
6.00000000e-01	1.33271845e-02	1.38820631e-04
6.01000000e-01	1.32721346e-02	1.38011876e-04
6.02000000e-01	1.33418927e-02	1.38844397e-04
6.03000000e-01	1.31108331e-02	1.36782193e-04
6.04000000e-01	1.32183663e-02	1.37672901e-04
6.05000000e-01	1.31767711e-02	1.37384648e-04
6.06000000e-01	1.32512506e-02	1.38023523e-04
6.07000000e-01	1.32413764e-02	1.38040270e-04
6.08000000e-01	1.32523171e-02	1.38088094e-04
6.09000000e-01	1.32252359e-02	1.37896881e-04
6.10000000e-01	1.33037991e-02	1.38398815e-04
6.11000000e-01	1.32031843e-02	1.37690581e-04
6.12000000e-01	1.31696741e-02	1.37499891e-04
6.13000000e-01	1.31361740e-02	1.37234107e-04
6.14000000e-01	1.32343184e-02	1.38424799e-04
6.15000000e-01	1.31069029e-02	1.36936441e-04
6.16000000e-01	1.31620127e-02	1.36575944e-04
6.17000000e-01	1.32266077e-02	1.38234030e-04
6.18000000e-01	1.30701043e-02	1.36530891e-04
6.19000000e-01	1.32017344e-02	1.37325939e-04
6.20000000e-01	1.30993376e-02	1.37052967e-04
6.21000000e-01	1.30627533e-02	1.35907259e-04
6.22000000e-01	1.31689469e-02	1.36486342e-04
6.23000000e-01	1.30138031e-02	1.35515533e-04
6.24000000e-01	1.31628252e-02	1.36298721e-04
6.25000000e-01	1.30149741e-02	1.35031607e-04
6.26000000e-01	1.31187271e-02	1.35780680e-04
6.27000000e-01	1.29501136e-02	1.34490116e-04
6.28000000e-01	1.29434145e-02	1.34538331e-04
6.29000000e-01	1.29744408e-02	1.34804539e-04
6.30000000e-01	1.30363811e-02	1.35813678e-04
6.31000000e-01	1.29791853e-02	1.34455356e-04
6.32000000e-01	1.29912967e-02	1.34939985e-04
6.33000000e-01	1.30390014e-02	1.35157058e-04
6.34000000e-01	1.30717995e-02	1.38798478e-04
6.35000000e-01	1.29902887e-02	1.42022446e-04
6.36000000e-01	1.30255556e-02	1.45113702e-04
6.37000000e-01	1.29147937e-02	1.46218400e-04
6.38000000e-01	1.30248747e-02	1.49330884e-04
6.39000000e-01	1.30221856e-02	1.51696576e-04
6.40000000e-01	1.29723468e-02	1.52855702e-04
6.41000000e-01	1.29503566e-02	1.53574940e-04
6.42000000e-01	1.31451746e-02	1.57646749e-04
6.43000000e-01	1.29578423e-02	1.55993038e-04
6.44000000e-01	1.30777225e-02	1.50970350e-04
6.45000000e-01	1.30111027e-02	1.48730211e-04
6.46000000e-01	1.30444411e-02	1.47640668e-04
6.47000000e-01	1.30035356e-02	1.46042405e-04
6.48000000e-01	1.29148771e-02	1.44184913e-04
6.49000000e-01	1.30585194e-02	1.45067983e-04
6.50000000e-01	1.31559859e-02	1.44675292e-04
6.51000000e-01	1.30338999e-02	1.43383758e-04
6.52000000e-01	1.29830999e-02	1.42280952e-04
6.53000000e-01	1.30119912e-02	1.42106233e-04
6.54000000e-01	1.29785120e-02	1.41479442e-04
6.55000000e-01	1.29720448e-02	1.40997079e-04
6.56000000e-01	1.29667396e-02	1.40249332e-04
6.57000000e-01	1.30703224e-02	1.41490165e-04
6.58000000e-01	1.28850585e-02	1.39830545e-04
6.59000000e-01	1.29515652e-02	1.40114989e-04
6.60000000e-01	1.28944353e-02	1.39485678e-04
6.61000000e-01	1.29312992e-02	1.40035134e-04
6.62000000e-01	1.28653718e-02	1.38830053e-04
6.63000000e-01	1.29843713e-02	1.39914876e-04
6.64000000e-01	1.31120649e-02	1.40894083e-04
6.65000000e-01	1.30131018e-02	1.40073415e-04
6.66000000e-01	1.30895787e-02	1.40351146e-04
6.67000000e-01	1.26991373e-02	1.36941892e-04
6.68000000e-01	1.29178581e-02	1.38957866e-04
6.69000000e-01	1.28410808e-02	1.38200258e-04
6.70000000e-01	1.29160576e-02	1.39259335e-04
6.71000000e-01	1.28800227e-02	1.38507963e-04
6.72000000e-01	1.28428050e-02	1.37985759e-04
6.73000000e-01	1.28214055e-02	1.37673748e-04
6.74000000e-01	1.27724963e-02	1.37068337e-04
6.75000000e-01	1.28410014e-02	1.38176027e-04
6.76000000e-01	1.27038421e-02	1.36612225e-04
6.77000000e-01	1.28741988e-02	1.37860395e-04
6.78000000e-01	1.27671920e-02	1.36747206e-04
6.79000000e-01	1.28057094e-02	1.37600336e-04
6.80000000e-01	1.27322808e-02	1.37180247e-04
6.81000000e-01	1.28190982e-02	1.37500583e-04
6.82000000e-01	1.27649823e-02	1.36509117e-04
6.83000000e-01	1.27214876e-02	1.36735374e-04
6.84000000e-01	1.26405517e-02	1.35778677e-04
6.85000000e-01	1.27487608e-02	1.36696787e-04
6.86000000e-01	1.28484785e-02	1.37495534e-04
6.87000000e-01	1.25194580e-02	1.34704132e-04
6.88000000e-01	1.25900566e-02	1.35116596e-04
6.89000000e-01	1.26058550e-02	1.35151253e-04
6.90000000e-01	1.27807547e-02	1.37399603e-04
6.91000000e-01	1.27171095e-02	1.36097332e-04
6.92000000e-01	1.26371545e-02	1.35779127e-04
6.93000000e-01	1.28802155e-02	1.37717631e-04
6.94000000e-01	1.27489246e-02	1.36787016e-04
6.95000000e-01	1.25107531e-02	1.33875872e-04
6.96000000e-01	1.25058422e-02	1.33636163e-04
6.97000000e-01	1.26131148e-02	1.35023018e-04
6.98000000e-01	1.24838004e-02	1.34059375e-04
6.99000000e-01	1.25943913e-02	1.34570516e-04
7.00000000e-01	1.25453808e-02	1.34652752e-04
7.01000000e-01	1.24659633e-02	1.34387597e-04
7.02000000e-01	1.27623881e-02	1.36588362e-04
7.03000000e-01	1.25798865e-02	1.35156217e-04
7.04000000e-01	1.24864923e-02	1.33594564e-04
7.05000000e-01	1.24751777e-02	1.34150545e-04
7.06000000e-01	1.26187997e-02	1.35199778e-04
7.07000000e-01	1.26288103e-02	1.34958213e-04
7.08000000e-01	1.25582234e-02	1.33820421e-04
7.09000000e-01	1.25221595e-02	1.34328322e-04
7.10000000e-01	1.24783453e-02	1.33504921e-04
7.11000000e-01	1.25787875e-02	1.34043792e-04
7.12000000e-01	1.22915812e-02	1.31547785e-04
7.13000000e-01	1.25232652e-02	1.33939423e-04
7.14000000e-01	1.24538427e-02	1.33487449e-04
7.15000000e-01	1.24866571e-02	1.33756831e-04
7.16000000e-01	1.23300386e-02	1.31781211e-04
7.17000000e-01	1.23529945e-02	1.32166086e-04
7.18000000e-01	1.21568604e-02	1.30230208e-04
7.19000000e-01	1.24300482e-02	1.33222901e-04
7.20000000e-01	1.24502335e-02	1.33312597e-04
7.21000000e-01	1.22951194e-02	1.32082369e-04
7.22000000e-01	1.22863489e-02	1.31963385e-04
7.23000000e-01	1.22511917e-02	1.31424383e-04
7.24000000e-01	1.22714623e-02	1.32188369e-04
7.25000000e-01	1.22851548e-02	1.32000534e-04
7.26000000e-01	1.23801194e-02	1.32675934e-04
7.27000000e-01	1.22833190e-02	1.32011266e-04
7.28000000e-01	1.22853651e-02	1.31787404e-04
7.29000000e-01	1.23395812e-02	1.32247501e-04
7.30000000e-01	1.24423539e-02	1.33619392e-04
7.31000000e-01	1.22726842e-02	1.31328559e-04
7.32000000e-01	1.23802283e-02	1.32738898e-04
7.33000000e-01	1.22207862e-02	1.31224804e-04
7.34000000e-01	1.22763732e-02	1.31174313e-04
7.35000000e-01	1.21963522e-02	1.30658895e-04
7.36000000e-01	1.23639779e-02	1.31911148e-04
7.37000000e-01	1.21465487e-02	1.30219520e-04
7.38000000e-01	1.21304610e-02	1.29152288e-04
7.39000000e-01	1.22153542e-02	1.30039865e-04
7.40000000e-01	1.20315129e-02	1.28408051e-04
7.41000000e-01	1.21274074e-02	1.29033076e-04
7.42000000e-01	1.20053619e-02	1.27982386e-04
7.43000000e-01	1.21997675e-02	1.29458870e-04
7.44000000e-01	1.23007461e-02	1.30152426e-04
7.45000000e-01	1.22145366e-02	1.30053641e-04
7.46000000e-01	1.21773253e-02	1.28590855e-04
7.47000000e-01	1.22167694e-02	1.29852267e-04
7.48000000e-01	1.20501368e-02	1.27803110e-04
7.49000000e-01	1.22365088e-02	1.29723952e-04
7.50000000e-01	1.21781774e-02	1.28843519e-04
7.51000000e-01	1.21700624e-02	1.28971984e-04
7.52000000e-01	1.19835371e-02	1.27234991e-04
7.53000000e-01	1.20388480e-02	1.28301465e-04
7.54000000e-01	1.18926707e-02	1.26796873e-04
7.55000000e-01	1.21571838e-02	1.28912457e-04
7.56000000e-01	1.19642261e-02	1.27222379e-04
7.57000000e-01	1.20797453e-02	1.28725211e-04
7.58000000e-01	1.19392255e-02	1.26999655e-04
7.59000000e-01	1.18960097e-02	1.26426624e-04
7.60000000e-01	1.19003718e-02	1.26077358e-04
7.61000000e-01	1.19000704e-02	1.26218761e-04
7.62000000e-01	1.19854907e-02	1.26811761e-04
7.63000000e-01	1.19358714e-02	1.26074291e-04
7.64000000e-01	1.17988732e-02	1.25216918e-04
7.65000000e-01	1.17411594e-02	1.24269352e-04
7.66000000e-01	1.18946095e-02	1.25780899e-04
7.67000000e-01	1.18266563e-02	1.25345399e-04
7.68000000e-01	1.18442287e-02	1.24613178e-04
7.69000000e-01	1.20076146e-02	1.26610100e-04
7.70000000e-01	1.17613568e-02	1.24505429e-04
7.71000000e-01	1.17669188e-02	1.24297781e-04
7.72000000e-01	1.19392356e-02	1.29361450e-04
7.73000000e-01	1.17405568e-02	1.32215366e-04
7.74000000e-01	1.18507209e-02	1.35759458e-04
7.75000000e-01	1.18487808e-02	1.37966013e-04
7.76000000e-01	1.17674586e-02	1.39068569e-04
7.77000000e-01	1.17161973e-02	1.40774176e-04
7.78000000e-01	1.18140502e-02	1.43921648e-04
7.79000000e-01	1.17190195e-02	1.44855601e-04
7.80000000e-01	1.16534822e-02	1.45780272e-04
7.81000000e-01	1.17525156e-02	1.48167301e-04
7.82000000e-01	1.15530089e-02	1.47102064e-04
7.83000000e-01	1.17854158e-02	1.51447444e-04
7.84000000e-01	1.17280837e-02	1.52773404e-04
7.85000000e-01	1.14479936e-02	1.51117340e-04
7.86000000e-01	1.15554970e-02	1.54518140e-04
7.87000000e-01	1.16196833e-02	1.56346680e-04
7.88000000e-01	1.16897229e-02	1.58083954e-04
7.89000000e-01	1.16371324e-02	1.58983913e-04
7.90000000e-01	1.16402784e-02	1.61264190e-04
7.91000000e-01	1.13968589e-02	1.59650760e-04
7.92000000e-01	1.15991890e-02	1.63769220e-04
7.93000000e-01	1.14895701e-02	1.65084858e-04
7.94000000e-01	1.16576616e-02	1.68747236e-04
7.95000000e-01	1.16031715e-02	1.68790320e-04
7.96000000e-01	1.16216847e-02	1.70501432e-04
7.97000000e-01	1.14466692e-02	1.70358904e-04
7.98000000e-01	1.15741286e-02	1.73524470e-04
7.99000000e-01	1.17139521e-02	1.77581770e-04
8.00000000e-01	1.14561590e-02	1.75918636e-04
8.01000000e-01	1.14672130e-02	1.77163584e-04
8.02000000e-01	1.14954474e-02	1.79576251e-04
8.03000000e-01	1.14835312e-02	1.81022942e-04
8.04000000e-01	1.15924497e-02	1.84808119e-04
8.05000000e-01	1.13789871e-02	1.84688247e-04
8.06000000e-01	1.12445706e-02	1.84869403e-04
8.07000000e-01	1.14886381e-02	1.89464253e-04
8.08000000e-01	1.13750621e-02	1.89802248e-04
8.09000000e-01	1.13710477e-02	1.91215230e-04
8.10000000e-01	1.14007634e-02	1.94973491e-04
8.11000000e-01	1.12938067e-02	1.95149351e-04
8.12000000e-01	1.11618590e-02	1.95655781e-04
8.13000000e-01	1.14713593e-02	2.02110740e-04
8.14000000e-01	1.14130811e-02	2.02707261e-04
8.15000000e-01	1.13135359e-02	2.04063934e-04
8.16000000e-01	1.11387367e-02	2.04300942e-04
8.17000000e-01	1.13586658e-02	2.10913146e-04
8.18000000e-01	1.15591013e-02	2.16952380e-04
8.19000000e-01	1.11105541e-02	2.11871661e-04
8.20000000e-01	1.13602269e-02	2.18331443e-04
8.21000000e-01	1.11742523e-02	2.19349818e-04
8.22000000e-01	1.08672412e-02	2.16918034e-04
8.23000000e-01	1.09379163e-02	2.20730710e-04
8.24000000e-01	1.12449037e-02	2.29670478e-04
8.25000000e-01	1.10793983e-02	2.28583567e-04
8.26000000e-01	1.12618333e-02	2.36943261e-04
8.27000000e-01	1.10448642e-02	2.34992224e-04
8.28000000e-01	1.10153578e-02	2.38911810e-04
8.29000000e-01	1.11014104e-02	2.42064685e-04
8.30000000e-01	1.10318438e-02	2.44377270e-04
8.31000000e-01	1.11252063e-02	2.49979128e-04
8.32000000e-01	1.08935399e-02	2.53133447e-04
8.33000000e-01	1.09923560e-02	2.58037168e-04
8.34000000e-01	1.08910445e-02	2.58492909e-04
8.35000000e-01	1.10119153e-02	2.66363650e-04
8.36000000e-01	1.08396656e-02	2.68746559e-04
8.37000000e-01	1.07811905e-02	2.72651590e-04
8.38000000e-01	1.08253012e-02	2.76501360e-04
8.39000000e-01	1.10817185e-02	2.91586110e-04
8.40000000e-01	1.08047858e-02	2.88700570e-04
8.41000000e-01	1.08601757e-02	3.00295373e-04
8.42000000e-01	1.04849713e-02	2.96174829e-04
8.43000000e-01	1.09592288e-02	3.15942676e-04
8.44000000e-01	1.09109103e-02	3.20889433e-04
8.45000000e-01	1.04803077e-02	3.17583186e-04
8.46000000e-01	1.07677873e-02	3.32599386e-04
8.47000000e-01	1.07655461e-02	3.44886359e-04
8.48000000e-01	1.11227658e-02	3.59776884e-04
8.49000000e-01	1.05658057e-02	3.61201962e-04
8.50000000e-01	1.06495398e-02	3.74621821e-04
8.51000000e-01	1.08222904e-02	3.94087201e-04
8.52000000e-01	1.07091983e-02	4.08568531e-04
8.53000000e-01	1.03199973e-02	4.11474064e-04
8.54000000e-01	1.05837788e-02	4.42213712e-04
8.55000000e-01	1.05479665e-02	4.53722964e-04
8.56000000e-01	1.06536772e-02	4.74593625e-04
8.57000000e-01	1.07276665e-02	4.81347435e-04
8.58000000e-01	1.06103702e-02	4.92307718e-04
8.59000000e-01	1.02079315e-02	4.94491278e-04
8.60000000e-01	1.04938480e-02	5.20675308e-04
8.61000000e-01	1.04749500e-02	5.33867023e-04
8.62000000e-01	1.06335050e-02	5.60159636e-04
8.63000000e-01	1.06005948e-02	5.87101491e-04
8.64000000e-01	9.96611601e-03	5.75365261e-04
8.65000000e-01	1.08796886e-02	6.48613686e-04
8.66000000e-01	1.01699964e-02	6.51069111e-04
8.67000000e-01	1.02084606e-02	7.06875493e-04
8.68000000e-01	1.02604372e-02	7.46671451e-04
8.69000000e-01	1.14539216e-02	8.72491670e-04
8.70000000e-01	1.06989699e-02	9.07000075e-04
8.71000000e-01	1.11502716e-02	1.05566165e-03
8.72000000e-01	1.10901300e-02	1.16381743e-03
8.73000000e-01	1.08185215e-02	1.33004067e-03
8.74000000e-01	1.19330087e-02	1.92498265e-03
8.75000000e-01	1.19828743e-02	4.04330748e-03
