% Filename : SDL7_00012_00175.h5
% Date & Time : 30-Oct-2025 14:56:38
% X-ray Energy (keV) : 13.30001
% Exposure Time (s) : 0.500
% Beam Center : 1461.24000, 208.98300
% Sample to Detector Distance (SDD) (mm) : 1990.750
% Detector Pixel Size (mm) : 0.075
% Photodiode Value : 136347.000
% I0 of Sample : 0
% I0 of Standard : 1
% 
% q(A^-1)   I(q)    I(q)_SE
0.00000000e+00	9.27541899e-03	6.07219846e-03
2.50000000e-04	0.00000000e+00	0.00000000e+00
5.00000000e-04	0.00000000e+00	0.00000000e+00
7.50000000e-04	0.00000000e+00	0.00000000e+00
1.00000000e-03	0.00000000e+00	0.00000000e+00
1.25000000e-03	0.00000000e+00	0.00000000e+00
1.50000000e-03	0.00000000e+00	0.00000000e+00
1.75000000e-03	0.00000000e+00	0.00000000e+00
2.00000000e-03	0.00000000e+00	0.00000000e+00
2.25000000e-03	0.00000000e+00	0.00000000e+00
2.50000000e-03	0.00000000e+00	0.00000000e+00
2.75000000e-03	0.00000000e+00	0.00000000e+00
3.00000000e-03	0.00000000e+00	0.00000000e+00
3.25000000e-03	4.81732175e+01	4.37668609e+01
3.50000000e-03	8.45608747e+00	6.40102554e+00
3.75000000e-03	5.35549888e+00	3.67512064e+00
4.00000000e-03	3.85149257e+00	2.39169813e+00
4.25000000e-03	1.11144415e+00	2.07311829e-01
4.50000000e-03	2.43293760e+00	1.02409205e+00
4.75000000e-03	3.12028833e+00	1.17331807e+00
5.00000000e-03	2.41638162e+00	8.85613712e-01
5.25000000e-03	1.96136871e+00	6.93377734e-01
5.50000000e-03	1.69815520e+00	6.29301344e-01
5.75000000e-03	1.50198313e+00	5.55316998e-01
6.00000000e-03	1.15192805e+00	3.93247388e-01
6.25000000e-03	1.04376193e+00	3.78698095e-01
6.50000000e-03	9.17435409e-01	3.33732566e-01
6.75000000e-03	7.37908428e-01	2.46252740e-01
7.00000000e-03	6.82859052e-01	2.35367332e-01
7.25000000e-03	6.02376559e-01	2.11835952e-01
7.50000000e-03	5.05824127e-01	1.70972533e-01
7.75000000e-03	4.62020092e-01	1.54088412e-01
8.00000000e-03	4.32066055e-01	1.46962763e-01
8.25000000e-03	3.55108958e-01	1.13210123e-01
8.50000000e-03	3.30521837e-01	1.05984541e-01
8.75000000e-03	3.12027405e-01	1.03977750e-01
9.00000000e-03	2.60717816e-01	8.07097686e-02
9.25000000e-03	2.43578300e-01	7.42228032e-02
9.50000000e-03	2.20868024e-01	7.09951977e-02
9.75000000e-03	2.00234271e-01	5.98434547e-02
1.00000000e-02	1.74961018e-01	5.20456916e-02
1.02500000e-02	1.71417817e-01	5.19743960e-02
1.05000000e-02	1.54637392e-01	4.38377620e-02
1.07500000e-02	1.39221681e-01	3.87704585e-02
1.10000000e-02	1.31777314e-01	3.66888272e-02
1.12500000e-02	1.20810333e-01	3.34980155e-02
1.15000000e-02	1.13341048e-01	2.85971824e-02
1.17500000e-02	1.00829932e-01	2.69118787e-02
1.20000000e-02	7.96648127e-02	1.74216516e-02
1.22500000e-02	8.93657537e-02	2.21926409e-02
1.25000000e-02	8.37403279e-02	1.99719997e-02
1.27500000e-02	7.83120400e-02	1.82966389e-02
1.30000000e-02	7.42915080e-02	1.67457447e-02
1.32500000e-02	6.92026080e-02	1.46518530e-02
1.35000000e-02	6.80256723e-02	1.47737849e-02
1.37500000e-02	6.28722174e-02	1.33039733e-02
1.40000000e-02	5.97959642e-02	1.21872526e-02
1.42500000e-02	5.87923155e-02	1.13300707e-02
1.45000000e-02	5.49689052e-02	1.04746137e-02
1.47500000e-02	5.32529088e-02	9.67097781e-03
1.50000000e-02	5.06008253e-02	9.78295775e-03
1.52500000e-02	5.04629553e-02	9.26492224e-03
1.55000000e-02	4.63627086e-02	7.73680701e-03
1.57500000e-02	4.66347288e-02	7.80748856e-03
1.60000000e-02	4.40672752e-02	7.43975278e-03
1.62500000e-02	4.11694966e-02	6.20147033e-03
1.65000000e-02	4.14603559e-02	6.57162330e-03
1.67500000e-02	3.88012770e-02	6.35903166e-03
1.70000000e-02	3.88664646e-02	5.71055079e-03
1.72500000e-02	3.70651993e-02	5.27229739e-03
1.75000000e-02	3.74731117e-02	5.27321782e-03
1.77500000e-02	3.51208331e-02	4.76134928e-03
1.80000000e-02	3.54601754e-02	4.66004530e-03
1.82500000e-02	3.35820626e-02	4.33802710e-03
1.85000000e-02	3.29793008e-02	4.27094760e-03
1.87500000e-02	3.41331509e-02	3.88018954e-03
1.90000000e-02	3.29655445e-02	4.05213942e-03
1.92500000e-02	3.16985942e-02	3.38716283e-03
1.95000000e-02	3.10494383e-02	3.33737034e-03
1.97500000e-02	3.06963283e-02	3.36739444e-03
2.00000000e-02	2.99819633e-02	3.35145828e-03
2.02500000e-02	2.81617229e-02	2.28205979e-03
2.05000000e-02	2.93664226e-02	2.75412526e-03
2.07500000e-02	3.00110358e-02	3.02604127e-03
2.10000000e-02	2.79704012e-02	2.44759353e-03
2.12500000e-02	2.89115308e-02	2.82766068e-03
2.15000000e-02	2.83941654e-02	2.68280151e-03
2.17500000e-02	2.70236704e-02	2.15765932e-03
2.20000000e-02	2.74068552e-02	2.34175861e-03
2.22500000e-02	2.70965756e-02	2.55630678e-03
2.25000000e-02	2.69231732e-02	2.29267909e-03
2.27500000e-02	2.70597807e-02	2.32064485e-03
2.30000000e-02	2.75377166e-02	2.24977036e-03
2.32500000e-02	2.65203540e-02	2.09318739e-03
2.35000000e-02	2.73150378e-02	2.16372932e-03
2.37500000e-02	2.68059704e-02	2.07334852e-03
2.40000000e-02	2.70855209e-02	1.96546131e-03
2.42500000e-02	2.53556637e-02	1.81201436e-03
2.45000000e-02	2.53634304e-02	1.89362012e-03
2.47500000e-02	2.57634512e-02	1.88393532e-03
2.50000000e-02	2.61858539e-02	1.85413809e-03
2.52500000e-02	2.49776950e-02	1.85830699e-03
2.55000000e-02	2.47584651e-02	1.63244054e-03
2.57500000e-02	2.44959193e-02	1.69688721e-03
2.60000000e-02	2.49759364e-02	1.87035099e-03
2.62500000e-02	2.51622562e-02	1.65947995e-03
2.65000000e-02	2.54270835e-02	1.59417906e-03
2.67500000e-02	2.50874236e-02	1.71177876e-03
2.70000000e-02	2.42962336e-02	1.56062119e-03
2.72500000e-02	2.42979931e-02	1.44258203e-03
2.75000000e-02	2.43430421e-02	1.64334197e-03
2.77500000e-02	2.47336283e-02	1.62180280e-03
2.80000000e-02	2.41966499e-02	1.34532193e-03
2.82500000e-02	2.33175295e-02	1.27360311e-03
2.85000000e-02	2.45305778e-02	1.41750877e-03
2.87500000e-02	2.45079568e-02	1.39007205e-03
2.90000000e-02	2.37783265e-02	1.47118125e-03
2.92500000e-02	2.40960148e-02	1.29660466e-03
2.95000000e-02	2.45085634e-02	1.34281140e-03
2.97500000e-02	2.44997774e-02	1.35069996e-03
3.00000000e-02	2.45601231e-02	1.37757505e-03
3.02500000e-02	2.45649368e-02	1.37891236e-03
3.05000000e-02	2.54848533e-02	1.36490451e-03
3.07500000e-02	2.40958787e-02	1.30060148e-03
3.10000000e-02	2.44531020e-02	1.25712856e-03
3.12500000e-02	2.42340623e-02	1.26796131e-03
3.15000000e-02	2.44632130e-02	1.26622390e-03
3.17500000e-02	2.42572415e-02	1.22347153e-03
3.20000000e-02	2.39685776e-02	1.26143487e-03
3.22500000e-02	2.33235686e-02	1.16161399e-03
3.25000000e-02	2.38938469e-02	1.21445949e-03
3.27500000e-02	2.32537622e-02	1.18093292e-03
3.30000000e-02	2.37272376e-02	1.17054367e-03
3.32500000e-02	2.31281887e-02	1.10504541e-03
3.35000000e-02	2.40137288e-02	1.19912647e-03
3.37500000e-02	2.33345558e-02	1.13816357e-03
3.40000000e-02	2.27730228e-02	1.14159489e-03
3.42500000e-02	2.21553023e-02	1.06722669e-03
3.45000000e-02	2.25922669e-02	1.10856748e-03
3.47500000e-02	2.21717774e-02	1.06909415e-03
3.50000000e-02	2.25596027e-02	1.09952315e-03
3.52500000e-02	2.26277928e-02	1.09482127e-03
3.55000000e-02	2.23755963e-02	1.04590551e-03
3.57500000e-02	2.25675385e-02	1.07696923e-03
3.60000000e-02	2.24129081e-02	1.05233443e-03
3.62500000e-02	2.19055146e-02	1.03301659e-03
3.65000000e-02	2.26960039e-02	1.09323461e-03
3.67500000e-02	2.19090548e-02	1.01512042e-03
3.70000000e-02	2.24970405e-02	1.04689103e-03
3.72500000e-02	2.20168204e-02	1.01064700e-03
3.75000000e-02	2.15173795e-02	1.00756363e-03
3.77500000e-02	2.15301205e-02	9.91826148e-04
3.80000000e-02	2.13836041e-02	1.00833727e-03
3.82500000e-02	2.23846369e-02	1.02952235e-03
3.85000000e-02	2.18204922e-02	9.99341511e-04
3.87500000e-02	2.21653259e-02	1.00383870e-03
3.90000000e-02	2.22908698e-02	9.93277016e-04
3.92500000e-02	2.18240232e-02	9.86910451e-04
3.95000000e-02	2.21849811e-02	1.00537035e-03
3.97500000e-02	2.25303658e-02	1.00076348e-03
4.00000000e-02	2.20826322e-02	9.90657168e-04
4.02500000e-02	2.11190441e-02	9.46136249e-04
4.05000000e-02	2.21592340e-02	9.86379849e-04
4.07500000e-02	2.20499987e-02	9.72536666e-04
4.10000000e-02	2.24405894e-02	1.00247876e-03
4.12500000e-02	2.13929632e-02	9.52770366e-04
4.15000000e-02	2.17595925e-02	9.44304086e-04
4.17500000e-02	2.16946807e-02	9.36646416e-04
4.20000000e-02	2.17407001e-02	9.34870941e-04
4.22500000e-02	2.09987219e-02	9.06415307e-04
4.25000000e-02	2.13912194e-02	9.29144157e-04
4.27500000e-02	2.12918545e-02	9.24166579e-04
4.30000000e-02	2.13893190e-02	9.24332711e-04
4.32500000e-02	2.15630798e-02	9.33496453e-04
4.35000000e-02	2.13412969e-02	9.22784170e-04
4.37500000e-02	2.18574485e-02	9.26594178e-04
4.40000000e-02	2.09481083e-02	8.97804576e-04
4.42500000e-02	2.10200824e-02	8.96121039e-04
4.45000000e-02	2.15050678e-02	9.18372710e-04
4.47500000e-02	2.14235014e-02	9.02599967e-04
4.50000000e-02	2.13847114e-02	9.03528428e-04
4.52500000e-02	2.13021190e-02	8.92847352e-04
4.55000000e-02	2.15223474e-02	9.03591049e-04
4.57500000e-02	2.09856350e-02	8.77013647e-04
4.60000000e-02	2.05627631e-02	8.68613294e-04
4.62500000e-02	2.14254076e-02	8.94900992e-04
4.65000000e-02	2.08479729e-02	8.69317228e-04
4.67500000e-02	2.09368580e-02	8.85063324e-04
4.70000000e-02	2.07479167e-02	8.61710014e-04
4.72500000e-02	2.13255662e-02	8.76898233e-04
4.75000000e-02	2.12174033e-02	8.85037525e-04
4.77500000e-02	2.09464463e-02	8.63184422e-04
4.80000000e-02	2.10434237e-02	8.66592662e-04
4.82500000e-02	2.06915115e-02	8.45873446e-04
4.85000000e-02	2.05515213e-02	8.53290274e-04
4.87500000e-02	2.04644672e-02	8.35539794e-04
4.90000000e-02	2.07317145e-02	8.40717366e-04
4.92500000e-02	2.08330597e-02	8.49385078e-04
4.95000000e-02	2.07656484e-02	8.42118040e-04
4.97500000e-02	2.12580567e-02	8.65014995e-04
5.00000000e-02	2.04078754e-02	8.32162978e-04
5.02500000e-02	2.08890790e-02	8.41290755e-04
5.05000000e-02	2.02271228e-02	8.12433651e-04
5.07500000e-02	2.05176715e-02	8.27298456e-04
5.10000000e-02	2.08565639e-02	8.39825291e-04
5.12500000e-02	2.08705994e-02	8.38966013e-04
5.15000000e-02	2.04444325e-02	8.06425721e-04
5.17500000e-02	2.04341135e-02	8.24656792e-04
5.20000000e-02	2.01264651e-02	7.99774399e-04
5.22500000e-02	2.16101427e-02	8.62005820e-04
5.25000000e-02	2.04143756e-02	8.16074223e-04
5.27500000e-02	2.02883787e-02	7.98697704e-04
5.30000000e-02	2.10208968e-02	8.34165245e-04
5.32500000e-02	2.04859653e-02	8.09348514e-04
5.35000000e-02	2.08503147e-02	8.21057581e-04
5.37500000e-02	2.02237936e-02	7.91398063e-04
5.40000000e-02	2.08290167e-02	8.14271963e-04
5.42500000e-02	2.16836057e-02	8.41907281e-04
5.45000000e-02	2.10731785e-02	8.18810947e-04
5.47500000e-02	2.07085929e-02	8.03402109e-04
5.50000000e-02	2.06214128e-02	8.01083723e-04
5.52500000e-02	2.09059836e-02	8.07434131e-04
5.55000000e-02	2.10637208e-02	8.12721891e-04
5.57500000e-02	2.02055485e-02	7.89184790e-04
5.60000000e-02	2.13356837e-02	8.15093601e-04
5.62500000e-02	2.04373757e-02	7.91687468e-04
5.65000000e-02	2.05442300e-02	7.90971037e-04
5.67500000e-02	2.09097121e-02	8.04782434e-04
5.70000000e-02	2.06114047e-02	7.85891001e-04
5.72500000e-02	2.00142243e-02	7.68394774e-04
5.75000000e-02	1.96742244e-02	7.60214483e-04
5.77500000e-02	2.10953455e-02	7.97674916e-04
5.80000000e-02	2.04024139e-02	7.80171872e-04
5.82500000e-02	2.05001196e-02	7.76622000e-04
5.85000000e-02	2.09682795e-02	7.93067063e-04
5.87500000e-02	2.02849202e-02	7.69735419e-04
5.90000000e-02	2.03424133e-02	7.70077419e-04
5.92500000e-02	2.06250644e-02	7.79896219e-04
5.95000000e-02	2.10362855e-02	7.87626468e-04
5.97500000e-02	2.06658495e-02	7.75486177e-04
6.00000000e-02	1.98383848e-02	7.44229690e-04
6.02500000e-02	2.02511771e-02	7.59035825e-04
6.05000000e-02	2.05800044e-02	7.63743267e-04
6.07500000e-02	1.99696933e-02	7.45838594e-04
6.10000000e-02	1.99751440e-02	7.37864014e-04
6.12500000e-02	2.06718393e-02	7.64843246e-04
6.15000000e-02	1.97718533e-02	7.37051261e-04
6.17500000e-02	2.01026720e-02	7.42271636e-04
6.20000000e-02	2.08860607e-02	7.76956104e-04
6.22500000e-02	2.01382733e-02	7.47363647e-04
6.25000000e-02	2.00497687e-02	7.42745992e-04
6.27500000e-02	1.98437625e-02	7.23108272e-04
6.30000000e-02	1.99851374e-02	7.32421373e-04
6.32500000e-02	2.04726013e-02	7.53157896e-04
6.35000000e-02	2.02077395e-02	7.41232909e-04
6.37500000e-02	2.02400002e-02	7.42492098e-04
6.40000000e-02	2.10734206e-02	7.74734743e-04
6.42500000e-02	2.05586917e-02	7.43606572e-04
6.45000000e-02	1.98649526e-02	7.26776391e-04
6.47500000e-02	2.03068893e-02	7.41586258e-04
6.50000000e-02	1.99392999e-02	7.24002943e-04
6.52500000e-02	1.99476928e-02	7.28100987e-04
6.55000000e-02	2.01838454e-02	7.26636732e-04
6.57500000e-02	2.05704752e-02	7.44992195e-04
6.60000000e-02	2.07468430e-02	7.49474782e-04
6.62500000e-02	2.00932796e-02	7.27289569e-04
6.65000000e-02	2.00980670e-02	7.17109935e-04
6.67500000e-02	2.00940003e-02	7.21211192e-04
6.70000000e-02	2.01093245e-02	7.25831062e-04
6.72500000e-02	2.00441709e-02	7.22560721e-04
6.75000000e-02	2.01160646e-02	7.20041070e-04
6.77500000e-02	2.04443314e-02	7.26488691e-04
6.80000000e-02	2.01121642e-02	7.15442985e-04
6.82500000e-02	1.95868946e-02	6.96491741e-04
6.85000000e-02	1.97090225e-02	7.10271487e-04
6.87500000e-02	2.03533578e-02	7.28408193e-04
6.90000000e-02	2.04780841e-02	7.19292795e-04
6.92500000e-02	2.05958735e-02	7.27023892e-04
6.95000000e-02	2.03734219e-02	7.16734022e-04
6.97500000e-02	2.01399060e-02	7.11651848e-04
7.00000000e-02	1.95488913e-02	6.91050081e-04
7.02500000e-02	2.07280565e-02	7.25513446e-04
7.05000000e-02	2.03919563e-02	7.08168258e-04
7.07500000e-02	1.96950704e-02	6.93457121e-04
7.10000000e-02	1.98580066e-02	7.00271051e-04
7.12500000e-02	1.99022689e-02	6.92489028e-04
7.15000000e-02	1.98056223e-02	6.85832555e-04
7.17500000e-02	2.04240827e-02	7.08016421e-04
7.20000000e-02	2.00086907e-02	7.00417038e-04
7.22500000e-02	1.98312748e-02	6.91284771e-04
7.25000000e-02	2.01019017e-02	6.94907263e-04
7.27500000e-02	1.98238614e-02	6.83697713e-04
7.30000000e-02	2.01811722e-02	6.93864493e-04
7.32500000e-02	2.04111357e-02	7.01573884e-04
7.35000000e-02	1.97479684e-02	6.82889926e-04
7.37500000e-02	2.01803174e-02	6.88764836e-04
7.40000000e-02	1.96985146e-02	6.79328740e-04
7.42500000e-02	1.96005671e-02	6.75450030e-04
7.45000000e-02	1.97723535e-02	6.81636998e-04
7.47500000e-02	1.94958751e-02	6.67564341e-04
7.50000000e-02	1.97264772e-02	6.74343805e-04
7.52500000e-02	2.01711364e-02	6.92621583e-04
7.55000000e-02	1.98157355e-02	6.72366354e-04
7.57500000e-02	1.98418976e-02	6.73216341e-04
7.60000000e-02	2.00704899e-02	6.81448477e-04
7.62500000e-02	1.97296749e-02	6.76982705e-04
7.65000000e-02	2.01110889e-02	6.79124885e-04
7.67500000e-02	2.00437036e-02	6.82978246e-04
7.70000000e-02	1.98817793e-02	6.67699681e-04
7.72500000e-02	2.00382185e-02	6.87799162e-04
7.75000000e-02	2.08313412e-02	7.24784697e-04
7.77500000e-02	1.94649594e-02	6.85994491e-04
7.80000000e-02	2.00003898e-02	6.98678998e-04
7.82500000e-02	1.96948331e-02	6.96520441e-04
7.85000000e-02	2.00216184e-02	7.10416440e-04
7.87500000e-02	2.00690829e-02	7.11277601e-04
7.90000000e-02	2.00021173e-02	7.13857505e-04
7.92500000e-02	1.97651816e-02	7.06807953e-04
7.95000000e-02	2.02481453e-02	7.26831793e-04
7.97500000e-02	1.96846040e-02	7.09135794e-04
8.00000000e-02	2.01351608e-02	7.21505414e-04
8.02500000e-02	1.97199151e-02	7.12654429e-04
8.05000000e-02	1.97884439e-02	7.10307435e-04
8.07500000e-02	2.02344403e-02	7.34195365e-04
8.10000000e-02	2.01989946e-02	7.31777780e-04
8.12500000e-02	2.03758139e-02	7.34906938e-04
8.15000000e-02	2.01037233e-02	7.29534966e-04
8.17500000e-02	1.95788279e-02	7.10915462e-04
8.20000000e-02	2.01985446e-02	7.32128851e-04
8.22500000e-02	2.05257559e-02	7.47098784e-04
8.25000000e-02	2.01455175e-02	7.44029894e-04
8.27500000e-02	1.98644970e-02	7.23024072e-04
8.30000000e-02	1.97811406e-02	7.25625920e-04
8.32500000e-02	2.01399127e-02	7.47956171e-04
8.35000000e-02	1.94313363e-02	7.22805783e-04
8.37500000e-02	1.96107664e-02	7.19902954e-04
8.40000000e-02	2.00954879e-02	7.38840783e-04
8.42500000e-02	1.99887320e-02	7.32105587e-04
8.45000000e-02	1.99180567e-02	7.39405542e-04
8.47500000e-02	2.03005517e-02	7.55703450e-04
8.50000000e-02	1.99981081e-02	7.37460606e-04
8.52500000e-02	1.96086158e-02	7.34446479e-04
8.55000000e-02	1.95325722e-02	7.22978512e-04
8.57500000e-02	1.99229191e-02	7.42747568e-04
8.60000000e-02	1.97273242e-02	7.39299255e-04
8.62500000e-02	2.02106537e-02	7.45247827e-04
8.65000000e-02	2.01762081e-02	7.57363033e-04
8.67500000e-02	2.01088376e-02	7.35876874e-04
8.70000000e-02	2.03346217e-02	7.48235899e-04
8.72500000e-02	2.00191491e-02	7.22542715e-04
8.75000000e-02	2.00789216e-02	7.11672325e-04
8.77500000e-02	2.00354854e-02	7.03637514e-04
8.80000000e-02	2.01618029e-02	7.12019511e-04
8.82500000e-02	2.01936727e-02	7.12028459e-04
8.85000000e-02	1.98444002e-02	7.05938800e-04
8.87500000e-02	2.01529125e-02	6.90669604e-04
8.90000000e-02	2.03072682e-02	7.06302161e-04
8.92500000e-02	2.07238013e-02	7.11888740e-04
8.95000000e-02	1.94646368e-02	6.68973526e-04
8.97500000e-02	1.95967622e-02	6.75132626e-04
9.00000000e-02	2.00376357e-02	6.80980657e-04
9.02500000e-02	2.00633833e-02	6.77761299e-04
9.05000000e-02	1.98396658e-02	6.76412871e-04
9.07500000e-02	2.01977146e-02	6.78586475e-04
9.10000000e-02	1.97691189e-02	6.64232700e-04
9.12500000e-02	2.01357774e-02	6.74958471e-04
9.15000000e-02	1.95733813e-02	6.61721660e-04
9.17500000e-02	1.97645396e-02	6.60037756e-04
9.20000000e-02	1.99471910e-02	6.67548480e-04
9.22500000e-02	2.00072641e-02	6.70918098e-04
9.25000000e-02	2.01664170e-02	6.73715994e-04
9.27500000e-02	2.01837525e-02	6.69791816e-04
9.30000000e-02	1.96966904e-02	6.53773796e-04
9.32500000e-02	2.03569943e-02	6.74158371e-04
9.35000000e-02	2.00269092e-02	6.64810351e-04
9.37500000e-02	1.96521901e-02	6.43838965e-04
9.40000000e-02	1.93887072e-02	6.45153832e-04
9.42500000e-02	1.95443834e-02	6.44727604e-04
9.45000000e-02	1.99218604e-02	6.52744745e-04
9.47500000e-02	1.96336914e-02	6.43240739e-04
9.50000000e-02	1.97738432e-02	6.43148717e-04
9.52500000e-02	2.00113401e-02	6.56964290e-04
9.55000000e-02	1.97858157e-02	6.41123352e-04
9.57500000e-02	1.93212632e-02	6.34260415e-04
9.60000000e-02	1.99889752e-02	6.48464564e-04
9.62500000e-02	1.96073636e-02	6.29796858e-04
9.65000000e-02	1.97998404e-02	6.46737302e-04
9.67500000e-02	1.99805092e-02	6.38479492e-04
9.70000000e-02	2.01635046e-02	6.47518506e-04
9.72500000e-02	1.90065558e-02	6.16820741e-04
9.75000000e-02	2.00881952e-02	6.44993603e-04
9.77500000e-02	2.00286391e-02	6.35693554e-04
9.80000000e-02	1.99133401e-02	6.38314916e-04
9.82500000e-02	1.99380472e-02	6.33920467e-04
9.85000000e-02	1.97782207e-02	6.31459345e-04
9.87500000e-02	1.98970480e-02	6.32791618e-04
9.90000000e-02	1.93587907e-02	6.16096507e-04
9.92500000e-02	1.91115360e-02	6.14292137e-04
9.95000000e-02	2.00273288e-02	6.35870047e-04
9.97500000e-02	1.95177826e-02	6.19580073e-04
1.00000000e-01	1.96384855e-02	5.08053328e-04
1.00500000e-01	1.99989073e-02	4.44453473e-04
1.01000000e-01	1.95149738e-02	4.35463603e-04
1.01500000e-01	1.93496083e-02	4.32912576e-04
1.02000000e-01	1.94466927e-02	4.31247246e-04
1.02500000e-01	1.95255542e-02	4.32678444e-04
1.03000000e-01	1.98212974e-02	4.37989958e-04
1.03500000e-01	1.94415205e-02	4.27863420e-04
1.04000000e-01	1.92897172e-02	4.23511680e-04
1.04500000e-01	1.91191383e-02	4.19223845e-04
1.05000000e-01	1.96263585e-02	4.25461963e-04
1.05500000e-01	1.94728480e-02	4.21593043e-04
1.06000000e-01	1.97677777e-02	4.27108778e-04
1.06500000e-01	1.95039253e-02	4.22913351e-04
1.07000000e-01	1.95635010e-02	4.30915556e-04
1.07500000e-01	1.97183145e-02	4.38464967e-04
1.08000000e-01	2.00220353e-02	4.49648777e-04
1.08500000e-01	1.99023350e-02	4.48427625e-04
1.09000000e-01	1.97985373e-02	4.48091130e-04
1.09500000e-01	1.98230414e-02	4.52932462e-04
1.10000000e-01	1.98873951e-02	4.47818646e-04
1.10500000e-01	1.97172669e-02	4.35468925e-04
1.11000000e-01	1.96064782e-02	4.27729095e-04
1.11500000e-01	1.98536525e-02	4.25567981e-04
1.12000000e-01	1.93238016e-02	4.13611902e-04
1.12500000e-01	1.98791856e-02	4.24263569e-04
1.13000000e-01	2.00292600e-02	4.24632670e-04
1.13500000e-01	1.96128948e-02	4.15756877e-04
1.14000000e-01	1.97622372e-02	4.17129400e-04
1.14500000e-01	1.93322547e-02	4.05787982e-04
1.15000000e-01	1.94119225e-02	4.04870440e-04
1.15500000e-01	1.97245794e-02	4.14014291e-04
1.16000000e-01	1.97743621e-02	4.12931066e-04
1.16500000e-01	1.96929215e-02	4.09824536e-04
1.17000000e-01	1.94879406e-02	4.06254311e-04
1.17500000e-01	1.96763661e-02	4.07961451e-04
1.18000000e-01	1.96877211e-02	4.07573011e-04
1.18500000e-01	1.98752643e-02	4.09849245e-04
1.19000000e-01	1.97520664e-02	4.06211493e-04
1.19500000e-01	1.92584626e-02	3.97027245e-04
1.20000000e-01	1.95750846e-02	4.01193415e-04
1.20500000e-01	1.93922822e-02	3.97225450e-04
1.21000000e-01	1.99712896e-02	4.08374356e-04
1.21500000e-01	1.93746125e-02	3.93117905e-04
1.22000000e-01	1.96867867e-02	4.00393967e-04
1.22500000e-01	1.97573471e-02	4.00189529e-04
1.23000000e-01	1.96763431e-02	3.97569485e-04
1.23500000e-01	1.98674887e-02	3.98572882e-04
1.24000000e-01	1.96351593e-02	3.96900676e-04
1.24500000e-01	1.95215002e-02	3.90164591e-04
1.25000000e-01	1.99411423e-02	3.98984585e-04
1.25500000e-01	1.96009745e-02	3.90021849e-04
1.26000000e-01	1.96252757e-02	3.91278749e-04
1.26500000e-01	1.96199711e-02	3.91983688e-04
1.27000000e-01	1.97445237e-02	3.90137920e-04
1.27500000e-01	1.94681349e-02	3.86227391e-04
1.28000000e-01	1.96823296e-02	3.89248278e-04
1.28500000e-01	1.97795981e-02	3.90122023e-04
1.29000000e-01	1.96364518e-02	3.87564125e-04
1.29500000e-01	1.96188816e-02	3.83649335e-04
1.30000000e-01	1.96855168e-02	3.88318960e-04
1.30500000e-01	1.96055366e-02	3.83986778e-04
1.31000000e-01	1.96326139e-02	3.82727433e-04
1.31500000e-01	1.97431565e-02	3.85738858e-04
1.32000000e-01	1.93116120e-02	3.77213121e-04
1.32500000e-01	1.94993466e-02	3.79403772e-04
1.33000000e-01	1.91612086e-02	3.72415724e-04
1.33500000e-01	1.96349919e-02	3.76925553e-04
1.34000000e-01	1.98112151e-02	3.80954044e-04
1.34500000e-01	1.94610052e-02	3.73303670e-04
1.35000000e-01	1.97669186e-02	3.77643268e-04
1.35500000e-01	1.96778134e-02	3.76628153e-04
1.36000000e-01	1.96894593e-02	3.72876449e-04
1.36500000e-01	1.96467086e-02	3.75016720e-04
1.37000000e-01	1.97049176e-02	3.72283765e-04
1.37500000e-01	1.98368472e-02	3.75466489e-04
1.38000000e-01	1.96059350e-02	3.71439706e-04
1.38500000e-01	1.97322869e-02	3.73611548e-04
1.39000000e-01	1.96020215e-02	3.73055655e-04
1.39500000e-01	1.93378791e-02	3.64107355e-04
1.40000000e-01	1.94524551e-02	3.65677865e-04
1.40500000e-01	1.98325821e-02	3.74534023e-04
1.41000000e-01	1.93843915e-02	3.67077427e-04
1.41500000e-01	1.95247165e-02	3.68920665e-04
1.42000000e-01	1.97110235e-02	3.68487411e-04
1.42500000e-01	1.94749489e-02	3.66132646e-04
1.43000000e-01	1.92425248e-02	3.61177479e-04
1.43500000e-01	1.95584405e-02	3.65651253e-04
1.44000000e-01	1.94936567e-02	3.64395661e-04
1.44500000e-01	1.93127880e-02	3.58326916e-04
1.45000000e-01	1.95565151e-02	3.62931479e-04
1.45500000e-01	1.96049360e-02	3.62657022e-04
1.46000000e-01	1.93547575e-02	3.59307908e-04
1.46500000e-01	1.92402507e-02	3.56236054e-04
1.47000000e-01	1.93596322e-02	3.57123808e-04
1.47500000e-01	1.89724485e-02	3.50758104e-04
1.48000000e-01	1.95917381e-02	3.60667615e-04
1.48500000e-01	1.91363135e-02	3.51591348e-04
1.49000000e-01	1.92316026e-02	3.51860074e-04
1.49500000e-01	1.94095218e-02	3.55649397e-04
1.50000000e-01	1.93517715e-02	3.53271557e-04
1.50500000e-01	1.90881432e-02	3.49705158e-04
1.51000000e-01	1.93450149e-02	3.51937639e-04
1.51500000e-01	1.92974142e-02	3.50854201e-04
1.52000000e-01	1.93795312e-02	3.49875605e-04
1.52500000e-01	1.94625363e-02	3.50692526e-04
1.53000000e-01	1.93455924e-02	3.49581500e-04
1.53500000e-01	1.95158018e-02	3.50401267e-04
1.54000000e-01	1.92770270e-02	3.47625450e-04
1.54500000e-01	1.93319181e-02	3.54117740e-04
1.55000000e-01	1.91845769e-02	3.57068795e-04
1.55500000e-01	1.92247281e-02	3.58179377e-04
1.56000000e-01	1.92316451e-02	3.61944273e-04
1.56500000e-01	1.93895310e-02	3.63433571e-04
1.57000000e-01	1.93168788e-02	3.65327881e-04
1.57500000e-01	1.93462201e-02	3.58095311e-04
1.58000000e-01	1.91903916e-02	3.48842304e-04
1.58500000e-01	1.90130302e-02	3.45898106e-04
1.59000000e-01	1.91276411e-02	3.45050853e-04
1.59500000e-01	1.90173088e-02	3.42981605e-04
1.60000000e-01	1.91120214e-02	3.44100383e-04
1.60500000e-01	1.87986793e-02	3.36481339e-04
1.61000000e-01	1.92227842e-02	3.43747223e-04
1.61500000e-01	1.89472469e-02	3.37952346e-04
1.62000000e-01	1.91220162e-02	3.41094386e-04
1.62500000e-01	1.90953843e-02	3.39178819e-04
1.63000000e-01	1.92770320e-02	3.39541703e-04
1.63500000e-01	1.89270845e-02	3.37465256e-04
1.64000000e-01	1.90559407e-02	3.35788275e-04
1.64500000e-01	1.89865951e-02	3.36593944e-04
1.65000000e-01	1.89664054e-02	3.36464480e-04
1.65500000e-01	1.91555867e-02	3.33690445e-04
1.66000000e-01	1.88786420e-02	3.31442856e-04
1.66500000e-01	1.88612414e-02	3.30897983e-04
1.67000000e-01	1.88032549e-02	3.29177591e-04
1.67500000e-01	1.91042775e-02	3.34902699e-04
1.68000000e-01	1.89640936e-02	3.31785950e-04
1.68500000e-01	1.90659792e-02	3.30986977e-04
1.69000000e-01	1.89684099e-02	3.30249477e-04
1.69500000e-01	1.86641892e-02	3.23964191e-04
1.70000000e-01	1.88806799e-02	3.25308134e-04
1.70500000e-01	1.88234590e-02	3.27166908e-04
1.71000000e-01	1.88697204e-02	3.25871133e-04
1.71500000e-01	1.89777860e-02	3.27038099e-04
1.72000000e-01	1.89529234e-02	3.26317784e-04
1.72500000e-01	1.86762399e-02	3.21008264e-04
1.73000000e-01	1.90234323e-02	3.27014522e-04
1.73500000e-01	1.89795211e-02	3.23738945e-04
1.74000000e-01	1.88673706e-02	3.22441323e-04
1.74500000e-01	1.87481770e-02	3.19596120e-04
1.75000000e-01	1.88859531e-02	3.20646403e-04
1.75500000e-01	1.86840722e-02	3.16791331e-04
1.76000000e-01	1.86762076e-02	3.15524410e-04
1.76500000e-01	1.87786480e-02	3.17058041e-04
1.77000000e-01	1.89506297e-02	3.19212364e-04
1.77500000e-01	1.87655316e-02	3.16711938e-04
1.78000000e-01	1.89235779e-02	3.18528574e-04
1.78500000e-01	1.88246394e-02	3.17724027e-04
1.79000000e-01	1.88102514e-02	3.16727515e-04
1.79500000e-01	1.84318512e-02	3.11127358e-04
1.80000000e-01	1.85183475e-02	3.13415838e-04
1.80500000e-01	1.85924894e-02	3.12904369e-04
1.81000000e-01	1.86041360e-02	3.12532497e-04
1.81500000e-01	1.88669687e-02	3.14830058e-04
1.82000000e-01	1.84789860e-02	3.10737980e-04
1.82500000e-01	1.88184367e-02	3.15432120e-04
1.83000000e-01	1.84765935e-02	3.10751154e-04
1.83500000e-01	1.85914573e-02	3.11227832e-04
1.84000000e-01	1.85896343e-02	3.09641330e-04
1.84500000e-01	1.86322713e-02	3.11169244e-04
1.85000000e-01	1.88354770e-02	3.12930118e-04
1.85500000e-01	1.84495758e-02	3.06923139e-04
1.86000000e-01	1.85421281e-02	3.07084834e-04
1.86500000e-01	1.86865797e-02	3.09034849e-04
1.87000000e-01	1.86105532e-02	3.06346260e-04
1.87500000e-01	1.82504859e-02	3.01407229e-04
1.88000000e-01	1.82655147e-02	3.01884376e-04
1.88500000e-01	1.86097164e-02	3.06298785e-04
1.89000000e-01	1.84744662e-02	3.02430202e-04
1.89500000e-01	1.87126010e-02	3.07284972e-04
1.90000000e-01	1.85579148e-02	3.04574310e-04
1.90500000e-01	1.86361951e-02	3.05432583e-04
1.91000000e-01	1.81209543e-02	2.97597404e-04
1.91500000e-01	1.84222048e-02	3.01210136e-04
1.92000000e-01	1.83332444e-02	2.98066697e-04
1.92500000e-01	1.83476255e-02	2.98409401e-04
1.93000000e-01	1.85144620e-02	3.02008786e-04
1.93500000e-01	1.83117576e-02	2.98530989e-04
1.94000000e-01	1.84134556e-02	2.98312995e-04
1.94500000e-01	1.84897967e-02	3.00688222e-04
1.95000000e-01	1.84906837e-02	2.99697353e-04
1.95500000e-01	1.86049315e-02	3.00278752e-04
1.96000000e-01	1.81682009e-02	2.93554301e-04
1.96500000e-01	1.83603090e-02	2.96661481e-04
1.97000000e-01	1.83116936e-02	2.94820269e-04
1.97500000e-01	1.83358244e-02	2.95067636e-04
1.98000000e-01	1.81085272e-02	2.92816065e-04
1.98500000e-01	1.81997407e-02	2.92731166e-04
1.99000000e-01	1.82588309e-02	2.93244621e-04
1.99500000e-01	1.84024967e-02	2.95523926e-04
2.00000000e-01	1.83602571e-02	2.93929126e-04
2.00500000e-01	1.83477543e-02	2.93275861e-04
2.01000000e-01	1.81565990e-02	2.90517582e-04
2.01500000e-01	1.84615299e-02	2.95563976e-04
2.02000000e-01	1.83081496e-02	2.91547125e-04
2.02500000e-01	1.84455481e-02	2.92650683e-04
2.03000000e-01	1.81521105e-02	2.89022005e-04
2.03500000e-01	1.83791716e-02	2.91827230e-04
2.04000000e-01	1.83662712e-02	2.92305217e-04
2.04500000e-01	1.84054275e-02	2.91808412e-04
2.05000000e-01	1.81006741e-02	2.86235620e-04
2.05500000e-01	1.82305532e-02	2.88532308e-04
2.06000000e-01	1.81485534e-02	2.85496252e-04
2.06500000e-01	1.81085961e-02	2.87834677e-04
2.07000000e-01	1.80817674e-02	2.85523026e-04
2.07500000e-01	1.80351557e-02	2.83750281e-04
2.08000000e-01	1.83942918e-02	2.88710589e-04
2.08500000e-01	1.81056680e-02	2.83971250e-04
2.09000000e-01	1.82996679e-02	2.87012317e-04
2.09500000e-01	1.80926080e-02	2.83710891e-04
2.10000000e-01	1.80764412e-02	2.83660502e-04
2.10500000e-01	1.84146238e-02	2.87633069e-04
2.11000000e-01	1.81224969e-02	2.82273711e-04
2.11500000e-01	1.78517412e-02	2.79572225e-04
2.12000000e-01	1.81909820e-02	2.83067263e-04
2.12500000e-01	1.80721286e-02	2.80601932e-04
2.13000000e-01	1.80719296e-02	2.80278414e-04
2.13500000e-01	1.79766289e-02	2.79487480e-04
2.14000000e-01	1.79979586e-02	2.79337142e-04
2.14500000e-01	1.77539089e-02	2.74811605e-04
2.15000000e-01	1.81803223e-02	2.82456492e-04
2.15500000e-01	1.79987138e-02	2.77718009e-04
2.16000000e-01	1.82155964e-02	2.81411676e-04
2.16500000e-01	1.81975761e-02	2.80336882e-04
2.17000000e-01	1.78379590e-02	2.79101703e-04
2.17500000e-01	1.80118926e-02	2.85074810e-04
2.18000000e-01	1.80285174e-02	2.85798320e-04
2.18500000e-01	1.82123751e-02	2.91458875e-04
2.19000000e-01	1.82092051e-02	2.92695643e-04
2.19500000e-01	1.79178607e-02	2.89726869e-04
2.20000000e-01	1.81569931e-02	2.93745376e-04
2.20500000e-01	1.80695632e-02	2.93577168e-04
2.21000000e-01	1.80678621e-02	2.94460973e-04
2.21500000e-01	1.77369364e-02	2.90670036e-04
2.22000000e-01	1.82506596e-02	2.97631161e-04
2.22500000e-01	1.77181656e-02	2.89915811e-04
2.23000000e-01	1.80825755e-02	2.98262502e-04
2.23500000e-01	1.79004616e-02	2.94913018e-04
2.24000000e-01	1.76257368e-02	2.93036698e-04
2.24500000e-01	1.78997171e-02	2.96842789e-04
2.25000000e-01	1.79355857e-02	2.97265571e-04
2.25500000e-01	1.79204475e-02	2.96875548e-04
2.26000000e-01	1.78688482e-02	2.99486404e-04
2.26500000e-01	1.79256267e-02	2.94297243e-04
2.27000000e-01	1.79928806e-02	2.91168740e-04
2.27500000e-01	1.83534584e-02	2.95314537e-04
2.28000000e-01	1.78099872e-02	2.85776351e-04
2.28500000e-01	1.79511337e-02	2.87521895e-04
2.29000000e-01	1.78769710e-02	2.84464500e-04
2.29500000e-01	1.78723714e-02	2.83577953e-04
2.30000000e-01	1.79191579e-02	2.82959949e-04
2.30500000e-01	1.79955572e-02	2.82644030e-04
2.31000000e-01	1.78524461e-02	2.80327160e-04
2.31500000e-01	1.77974000e-02	2.78677684e-04
2.32000000e-01	1.77970306e-02	2.77935342e-04
2.32500000e-01	1.78798793e-02	2.77819458e-04
2.33000000e-01	1.77562303e-02	2.75160239e-04
2.33500000e-01	1.79671589e-02	2.78810301e-04
2.34000000e-01	1.74745230e-02	2.70386495e-04
2.34500000e-01	1.77355878e-02	2.74685780e-04
2.35000000e-01	1.79221129e-02	2.77373767e-04
2.35500000e-01	1.79421563e-02	2.76976670e-04
2.36000000e-01	1.78587938e-02	2.75452908e-04
2.36500000e-01	1.77999517e-02	2.73987131e-04
2.37000000e-01	1.77469999e-02	2.71525334e-04
2.37500000e-01	1.79014020e-02	2.73063454e-04
2.38000000e-01	1.77210418e-02	2.70351316e-04
2.38500000e-01	1.76541831e-02	2.70855973e-04
2.39000000e-01	1.78287536e-02	2.71483405e-04
2.39500000e-01	1.78160074e-02	2.71037382e-04
2.40000000e-01	1.77178649e-02	2.69265496e-04
2.40500000e-01	1.79271062e-02	2.71146521e-04
2.41000000e-01	1.75117750e-02	2.64325680e-04
2.41500000e-01	1.75333676e-02	2.65022773e-04
2.42000000e-01	1.75696731e-02	2.65312944e-04
2.42500000e-01	1.75981421e-02	2.64809621e-04
2.43000000e-01	1.75887048e-02	2.64118299e-04
2.43500000e-01	1.76584453e-02	2.65789026e-04
2.44000000e-01	1.77308625e-02	2.64582060e-04
2.44500000e-01	1.74123970e-02	2.60881199e-04
2.45000000e-01	1.74251313e-02	2.60122654e-04
2.45500000e-01	1.74975746e-02	2.60633970e-04
2.46000000e-01	1.75861854e-02	2.62878483e-04
2.46500000e-01	1.77948003e-02	2.63702810e-04
2.47000000e-01	1.74604308e-02	2.60227605e-04
2.47500000e-01	1.74262523e-02	2.58347033e-04
2.48000000e-01	1.75862731e-02	2.61159544e-04
2.48500000e-01	1.76717620e-02	2.61281433e-04
2.49000000e-01	1.74255334e-02	2.57625354e-04
2.49500000e-01	1.75224884e-02	2.59288866e-04
2.50000000e-01	1.75562684e-02	2.57517849e-04
2.50500000e-01	1.73967462e-02	2.57531587e-04
2.51000000e-01	1.74246759e-02	2.56486287e-04
2.51500000e-01	1.75296454e-02	2.58295695e-04
2.52000000e-01	1.74021880e-02	2.56894183e-04
2.52500000e-01	1.74684934e-02	2.55562774e-04
2.53000000e-01	1.74363151e-02	2.55685220e-04
2.53500000e-01	1.75040265e-02	2.56710641e-04
2.54000000e-01	1.74841178e-02	2.56504877e-04
2.54500000e-01	1.73442473e-02	2.55048971e-04
2.55000000e-01	1.77268207e-02	2.58138985e-04
2.55500000e-01	1.75765653e-02	2.56835603e-04
2.56000000e-01	1.72942143e-02	2.51969864e-04
2.56500000e-01	1.75390008e-02	2.55319683e-04
2.57000000e-01	1.72639885e-02	2.51111072e-04
2.57500000e-01	1.72393962e-02	2.50786555e-04
2.58000000e-01	1.72057281e-02	2.50169413e-04
2.58500000e-01	1.73745346e-02	2.51404232e-04
2.59000000e-01	1.75421473e-02	2.54698894e-04
2.59500000e-01	1.72855970e-02	2.50676250e-04
2.60000000e-01	1.71927148e-02	2.49957348e-04
2.60500000e-01	1.73116836e-02	2.50301667e-04
2.61000000e-01	1.71478354e-02	2.47435742e-04
2.61500000e-01	1.73091072e-02	2.50170905e-04
2.62000000e-01	1.72593684e-02	2.47637530e-04
2.62500000e-01	1.74765439e-02	2.51439221e-04
2.63000000e-01	1.71793626e-02	2.47007625e-04
2.63500000e-01	1.73828119e-02	2.49299900e-04
2.64000000e-01	1.72619048e-02	2.46981281e-04
2.64500000e-01	1.72443422e-02	2.47259669e-04
2.65000000e-01	1.72804890e-02	2.47545882e-04
2.65500000e-01	1.72672686e-02	2.46352438e-04
2.66000000e-01	1.73552555e-02	2.48158303e-04
2.66500000e-01	1.72478413e-02	2.45742617e-04
2.67000000e-01	1.70252978e-02	2.42919317e-04
2.67500000e-01	1.72941219e-02	2.45964433e-04
2.68000000e-01	1.69368452e-02	2.40022954e-04
2.68500000e-01	1.72103649e-02	2.43410700e-04
2.69000000e-01	1.72296653e-02	2.43254130e-04
2.69500000e-01	1.71266348e-02	2.42132577e-04
2.70000000e-01	1.71801277e-02	2.42907372e-04
2.70500000e-01	1.69429861e-02	2.39494610e-04
2.71000000e-01	1.72226332e-02	2.43048053e-04
2.71500000e-01	1.71844078e-02	2.42254911e-04
2.72000000e-01	1.70581685e-02	2.40877683e-04
2.72500000e-01	1.69827448e-02	2.39350644e-04
2.73000000e-01	1.69472536e-02	2.39141941e-04
2.73500000e-01	1.70854734e-02	2.39603170e-04
2.74000000e-01	1.71897498e-02	2.41034493e-04
2.74500000e-01	1.70435365e-02	2.39639137e-04
2.75000000e-01	1.71621492e-02	2.40612975e-04
2.75500000e-01	1.69865003e-02	2.37613772e-04
2.76000000e-01	1.69916042e-02	2.37691468e-04
2.76500000e-01	1.72125523e-02	2.40671717e-04
2.77000000e-01	1.71522319e-02	2.39436887e-04
2.77500000e-01	1.71770565e-02	2.40111978e-04
2.78000000e-01	1.70345551e-02	2.37656585e-04
2.78500000e-01	1.68521682e-02	2.35069445e-04
2.79000000e-01	1.71461686e-02	2.38801765e-04
2.79500000e-01	1.69186592e-02	2.35553208e-04
2.80000000e-01	1.69050601e-02	2.36604992e-04
2.80500000e-01	1.70717310e-02	2.37022023e-04
2.81000000e-01	1.69801558e-02	2.36255068e-04
2.81500000e-01	1.69565954e-02	2.35194914e-04
2.82000000e-01	1.69014759e-02	2.34186825e-04
2.82500000e-01	1.70713248e-02	2.37038498e-04
2.83000000e-01	1.68983850e-02	2.33412090e-04
2.83500000e-01	1.68744461e-02	2.33946517e-04
2.84000000e-01	1.69432679e-02	2.34094505e-04
2.84500000e-01	1.69814976e-02	2.34119181e-04
2.85000000e-01	1.70753976e-02	2.35821658e-04
2.85500000e-01	1.69395735e-02	2.32618942e-04
2.86000000e-01	1.67970059e-02	2.32071807e-04
2.86500000e-01	1.70097768e-02	2.32863530e-04
2.87000000e-01	1.67750042e-02	2.30588080e-04
2.87500000e-01	1.70224137e-02	2.33914943e-04
2.88000000e-01	1.69425681e-02	2.30689817e-04
2.88500000e-01	1.67752489e-02	2.29406039e-04
2.89000000e-01	1.66559261e-02	2.27768148e-04
2.89500000e-01	1.67591301e-02	2.28859528e-04
2.90000000e-01	1.70099286e-02	2.31481931e-04
2.90500000e-01	1.68456587e-02	2.29619650e-04
2.91000000e-01	1.70280070e-02	2.31232159e-04
2.91500000e-01	1.69479226e-02	2.30022075e-04
2.92000000e-01	1.70453380e-02	2.30518762e-04
2.92500000e-01	1.66581846e-02	2.26666169e-04
2.93000000e-01	1.68502613e-02	2.28128138e-04
2.93500000e-01	1.68774305e-02	2.28956675e-04
2.94000000e-01	1.68023541e-02	2.27607891e-04
2.94500000e-01	1.68763364e-02	2.28738650e-04
2.95000000e-01	1.67373580e-02	2.25669213e-04
2.95500000e-01	1.69963452e-02	2.29424120e-04
2.96000000e-01	1.68233029e-02	2.27316322e-04
2.96500000e-01	1.68687860e-02	2.28365649e-04
2.97000000e-01	1.67937804e-02	2.26817897e-04
2.97500000e-01	1.68779310e-02	2.26816979e-04
2.98000000e-01	1.68728078e-02	2.26457187e-04
2.98500000e-01	1.68352073e-02	2.25755303e-04
2.99000000e-01	1.67374711e-02	2.24638114e-04
2.99500000e-01	1.68135129e-02	2.26008427e-04
3.00000000e-01	1.67881428e-02	2.25587777e-04
3.00500000e-01	1.66212316e-02	2.22788414e-04
3.01000000e-01	1.66668298e-02	2.22887537e-04
3.01500000e-01	1.69005087e-02	2.26683435e-04
3.02000000e-01	1.66037158e-02	2.21425961e-04
3.02500000e-01	1.68699145e-02	2.26214321e-04
3.03000000e-01	1.66428542e-02	2.22823655e-04
3.03500000e-01	1.67120036e-02	2.21838678e-04
3.04000000e-01	1.67784851e-02	2.24599177e-04
3.04500000e-01	1.68197354e-02	2.23420242e-04
3.05000000e-01	1.66469736e-02	2.22235772e-04
3.05500000e-01	1.68199917e-02	2.23891677e-04
3.06000000e-01	1.67392375e-02	2.21409335e-04
3.06500000e-01	1.66949266e-02	2.22652837e-04
3.07000000e-01	1.68051423e-02	2.22884943e-04
3.07500000e-01	1.68379880e-02	2.22395514e-04
3.08000000e-01	1.64676888e-02	2.18329930e-04
3.08500000e-01	1.66787862e-02	2.20517343e-04
3.09000000e-01	1.64657765e-02	2.18227413e-04
3.09500000e-01	1.64816065e-02	2.17483193e-04
3.10000000e-01	1.68637612e-02	2.22143755e-04
3.10500000e-01	1.66653271e-02	2.20106913e-04
3.11000000e-01	1.66398726e-02	2.19408488e-04
3.11500000e-01	1.66601205e-02	2.19384239e-04
3.12000000e-01	1.64527366e-02	2.16204986e-04
3.12500000e-01	1.67524177e-02	2.19826212e-04
3.13000000e-01	1.64403071e-02	2.16018893e-04
3.13500000e-01	1.65235038e-02	2.17498041e-04
3.14000000e-01	1.65037736e-02	2.17096951e-04
3.14500000e-01	1.64624977e-02	2.16291547e-04
3.15000000e-01	1.63604206e-02	2.14973159e-04
3.15500000e-01	1.66367003e-02	2.17281703e-04
3.16000000e-01	1.65690810e-02	2.17316282e-04
3.16500000e-01	1.64078745e-02	2.14130924e-04
3.17000000e-01	1.64120940e-02	2.14225749e-04
3.17500000e-01	1.63611030e-02	2.14521401e-04
3.18000000e-01	1.62760066e-02	2.12264695e-04
3.18500000e-01	1.63480776e-02	2.13367062e-04
3.19000000e-01	1.64404523e-02	2.14837011e-04
3.19500000e-01	1.63996353e-02	2.13083853e-04
3.20000000e-01	1.64656840e-02	2.13861606e-04
3.20500000e-01	1.63847443e-02	2.13271450e-04
3.21000000e-01	1.62390335e-02	2.11663758e-04
3.21500000e-01	1.62661969e-02	2.10708635e-04
3.22000000e-01	1.61660545e-02	2.09742672e-04
3.22500000e-01	1.63000149e-02	2.11587358e-04
3.23000000e-01	1.64179176e-02	2.11682694e-04
3.23500000e-01	1.64983559e-02	2.14477420e-04
3.24000000e-01	1.59895620e-02	2.06547965e-04
3.24500000e-01	1.62684205e-02	2.11198987e-04
3.25000000e-01	1.64281327e-02	2.11412367e-04
3.25500000e-01	1.63922335e-02	2.11557664e-04
3.26000000e-01	1.61840571e-02	2.08424223e-04
3.26500000e-01	1.61334762e-02	2.07610675e-04
3.27000000e-01	1.63613373e-02	2.11574441e-04
3.27500000e-01	1.63087700e-02	2.08947742e-04
3.28000000e-01	1.60755335e-02	2.07424320e-04
3.28500000e-01	1.63185463e-02	2.10013921e-04
3.29000000e-01	1.62413409e-02	2.08106496e-04
3.29500000e-01	1.61985876e-02	2.08405306e-04
3.30000000e-01	1.62847688e-02	2.09622903e-04
3.30500000e-01	1.61028434e-02	2.06990167e-04
3.31000000e-01	1.63581545e-02	2.09026864e-04
3.31500000e-01	1.60902539e-02	2.05688195e-04
3.32000000e-01	1.61059878e-02	2.06161517e-04
3.32500000e-01	1.60376711e-02	2.06004049e-04
3.33000000e-01	1.60883843e-02	2.05251719e-04
3.33500000e-01	1.63248449e-02	2.07201824e-04
3.34000000e-01	1.60853102e-02	2.05179767e-04
3.34500000e-01	1.60543243e-02	2.04953159e-04
3.35000000e-01	1.58698218e-02	2.02374058e-04
3.35500000e-01	1.62172599e-02	2.06855276e-04
3.36000000e-01	1.59458455e-02	2.03329873e-04
3.36500000e-01	1.60755575e-02	2.04473477e-04
3.37000000e-01	1.60392747e-02	2.03662218e-04
3.37500000e-01	1.61429694e-02	2.05105973e-04
3.38000000e-01	1.59665285e-02	2.03082669e-04
3.38500000e-01	1.58746593e-02	2.00879711e-04
3.39000000e-01	1.58896919e-02	2.01954699e-04
3.39500000e-01	1.61959466e-02	2.04410530e-04
3.40000000e-01	1.60969455e-02	2.03800686e-04
3.40500000e-01	1.61300817e-02	2.03634174e-04
3.41000000e-01	1.59729183e-02	2.00890637e-04
3.41500000e-01	1.59252541e-02	2.01590901e-04
3.42000000e-01	1.59477238e-02	2.01371617e-04
3.42500000e-01	1.60871952e-02	2.03009359e-04
3.43000000e-01	1.59279443e-02	2.00581442e-04
3.43500000e-01	1.60535561e-02	2.01557560e-04
3.44000000e-01	1.59429023e-02	2.00792612e-04
3.44500000e-01	1.60816895e-02	2.01516926e-04
3.45000000e-01	1.58790402e-02	1.99476821e-04
3.45500000e-01	1.60140337e-02	2.00715144e-04
3.46000000e-01	1.59239018e-02	2.00991978e-04
3.46500000e-01	1.58916182e-02	1.98939182e-04
3.47000000e-01	1.58840573e-02	1.98702119e-04
3.47500000e-01	1.58552205e-02	1.98022105e-04
3.48000000e-01	1.58601176e-02	1.97943396e-04
3.48500000e-01	1.58247994e-02	1.97895102e-04
3.49000000e-01	1.60192947e-02	2.00205295e-04
3.49500000e-01	1.58844136e-02	1.98970258e-04
3.50000000e-01	1.59021251e-02	1.61949408e-04
3.51000000e-01	1.57751183e-02	1.39079738e-04
3.52000000e-01	1.58826677e-02	1.39608990e-04
3.53000000e-01	1.58395255e-02	1.38480739e-04
3.54000000e-01	1.57447893e-02	1.37493329e-04
3.55000000e-01	1.57141201e-02	1.37547588e-04
3.56000000e-01	1.57118802e-02	1.37881204e-04
3.57000000e-01	1.56822532e-02	1.40512758e-04
3.58000000e-01	1.57867493e-02	1.42119686e-04
3.59000000e-01	1.57466473e-02	1.43230456e-04
3.60000000e-01	1.57748086e-02	1.44133890e-04
3.61000000e-01	1.55925836e-02	1.43822862e-04
3.62000000e-01	1.56310704e-02	1.44205712e-04
3.63000000e-01	1.55511678e-02	1.44437188e-04
3.64000000e-01	1.55524217e-02	1.44881865e-04
3.65000000e-01	1.56507471e-02	1.46025700e-04
3.66000000e-01	1.55654192e-02	1.43489191e-04
3.67000000e-01	1.56394984e-02	1.42033160e-04
3.68000000e-01	1.55063092e-02	1.40178191e-04
3.69000000e-01	1.56118605e-02	1.40261567e-04
3.70000000e-01	1.55613362e-02	1.39214350e-04
3.71000000e-01	1.55639920e-02	1.41019559e-04
3.72000000e-01	1.55240517e-02	1.41631028e-04
3.73000000e-01	1.55890092e-02	1.42263438e-04
3.74000000e-01	1.54949923e-02	1.41912467e-04
3.75000000e-01	1.56109916e-02	1.42724257e-04
3.76000000e-01	1.54347751e-02	1.41275115e-04
3.77000000e-01	1.54062120e-02	1.41617881e-04
3.78000000e-01	1.55179434e-02	1.42121173e-04
3.79000000e-01	1.54120766e-02	1.40890584e-04
3.80000000e-01	1.55631451e-02	1.42264934e-04
3.81000000e-01	1.53475132e-02	1.40234921e-04
3.82000000e-01	1.53500405e-02	1.40185440e-04
3.83000000e-01	1.54209791e-02	1.40667920e-04
3.84000000e-01	1.54548600e-02	1.41170737e-04
3.85000000e-01	1.53850101e-02	1.40591161e-04
3.86000000e-01	1.52816218e-02	1.39687470e-04
3.87000000e-01	1.52696752e-02	1.39599482e-04
3.88000000e-01	1.53706569e-02	1.39703281e-04
3.89000000e-01	1.53712081e-02	1.39972950e-04
3.90000000e-01	1.53505801e-02	1.39682273e-04
3.91000000e-01	1.52889965e-02	1.39272907e-04
3.92000000e-01	1.51965230e-02	1.38300352e-04
3.93000000e-01	1.51692385e-02	1.38389876e-04
3.94000000e-01	1.52393720e-02	1.38461167e-04
3.95000000e-01	1.51750987e-02	1.38209847e-04
3.96000000e-01	1.51720831e-02	1.38035494e-04
3.97000000e-01	1.52344875e-02	1.38563949e-04
3.98000000e-01	1.51711371e-02	1.38279552e-04
3.99000000e-01	1.50568210e-02	1.37276667e-04
4.00000000e-01	1.50040276e-02	1.36830718e-04
4.01000000e-01	1.50525018e-02	1.37299266e-04
4.02000000e-01	1.51587646e-02	1.38151350e-04
4.03000000e-01	1.51679694e-02	1.38275060e-04
4.04000000e-01	1.50722018e-02	1.37389564e-04
4.05000000e-01	1.51705623e-02	1.37909366e-04
4.06000000e-01	1.52453697e-02	1.38608633e-04
4.07000000e-01	1.50601999e-02	1.37017635e-04
4.08000000e-01	1.50405318e-02	1.36572313e-04
4.09000000e-01	1.49906059e-02	1.36106543e-04
4.10000000e-01	1.50389810e-02	1.36892186e-04
4.11000000e-01	1.49247152e-02	1.35603951e-04
4.12000000e-01	1.49592930e-02	1.36028630e-04
4.13000000e-01	1.51562571e-02	1.37433846e-04
4.14000000e-01	1.49363075e-02	1.35462882e-04
4.15000000e-01	1.51044446e-02	1.36844331e-04
4.16000000e-01	1.48719128e-02	1.35290417e-04
4.17000000e-01	1.50028250e-02	1.36154002e-04
4.18000000e-01	1.48944456e-02	1.36566899e-04
4.19000000e-01	1.49955023e-02	1.39175863e-04
4.20000000e-01	1.50081219e-02	1.40051740e-04
4.21000000e-01	1.50728966e-02	1.40537230e-04
4.22000000e-01	1.49581624e-02	1.40501049e-04
4.23000000e-01	1.50908453e-02	1.41815645e-04
4.24000000e-01	1.50540510e-02	1.41834439e-04
4.25000000e-01	1.49770913e-02	1.41367618e-04
4.26000000e-01	1.49639715e-02	1.41448924e-04
4.27000000e-01	1.49148578e-02	1.41306314e-04
4.28000000e-01	1.47911775e-02	1.40378095e-04
4.29000000e-01	1.48560432e-02	1.41416168e-04
4.30000000e-01	1.50139814e-02	1.42585579e-04
4.31000000e-01	1.49234171e-02	1.41182894e-04
4.32000000e-01	1.49520221e-02	1.41929512e-04
4.33000000e-01	1.49366526e-02	1.42036614e-04
4.34000000e-01	1.47976503e-02	1.40833635e-04
4.35000000e-01	1.48466441e-02	1.41231425e-04
4.36000000e-01	1.48176147e-02	1.41601849e-04
4.37000000e-01	1.47662545e-02	1.40993399e-04
4.38000000e-01	1.48300821e-02	1.41587027e-04
4.39000000e-01	1.47721444e-02	1.41169597e-04
4.40000000e-01	1.48341457e-02	1.42347820e-04
4.41000000e-01	1.48450818e-02	1.41776132e-04
4.42000000e-01	1.47554999e-02	1.42096450e-04
4.43000000e-01	1.46954751e-02	1.41635832e-04
4.44000000e-01	1.48414249e-02	1.42839848e-04
4.45000000e-01	1.47571051e-02	1.42628131e-04
4.46000000e-01	1.48063526e-02	1.42841711e-04
4.47000000e-01	1.47540759e-02	1.42829036e-04
4.48000000e-01	1.48044115e-02	1.43386870e-04
4.49000000e-01	1.47522577e-02	1.43144846e-04
4.50000000e-01	1.46839762e-02	1.42318962e-04
4.51000000e-01	1.46383381e-02	1.41963749e-04
4.52000000e-01	1.47545575e-02	1.43260665e-04
4.53000000e-01	1.45946536e-02	1.42206830e-04
4.54000000e-01	1.46936429e-02	1.43075354e-04
4.55000000e-01	1.46207405e-02	1.42524605e-04
4.56000000e-01	1.47207571e-02	1.43433091e-04
4.57000000e-01	1.47148792e-02	1.43404831e-04
4.58000000e-01	1.45989429e-02	1.42818737e-04
4.59000000e-01	1.45622685e-02	1.42602312e-04
4.60000000e-01	1.45071060e-02	1.42038682e-04
4.61000000e-01	1.46769787e-02	1.43668736e-04
4.62000000e-01	1.45271640e-02	1.42263112e-04
4.63000000e-01	1.47853529e-02	1.44555177e-04
4.64000000e-01	1.46125684e-02	1.43119182e-04
4.65000000e-01	1.46222221e-02	1.43626834e-04
4.66000000e-01	1.46517907e-02	1.43767149e-04
4.67000000e-01	1.45683526e-02	1.43695197e-04
4.68000000e-01	1.45929036e-02	1.43732409e-04
4.69000000e-01	1.47108118e-02	1.44831068e-04
4.70000000e-01	1.46821098e-02	1.44858645e-04
4.71000000e-01	1.45413965e-02	1.43061009e-04
4.72000000e-01	1.46259145e-02	1.44033764e-04
4.73000000e-01	1.45116587e-02	1.43172565e-04
4.74000000e-01	1.44609260e-02	1.42538699e-04
4.75000000e-01	1.44026951e-02	1.41975962e-04
4.76000000e-01	1.45042317e-02	1.42436450e-04
4.77000000e-01	1.44767609e-02	1.42934335e-04
4.78000000e-01	1.45033945e-02	1.43053049e-04
4.79000000e-01	1.43444825e-02	1.41639359e-04
4.80000000e-01	1.44858311e-02	1.42987330e-04
4.81000000e-01	1.44920532e-02	1.43067448e-04
4.82000000e-01	1.43680481e-02	1.41606667e-04
4.83000000e-01	1.43553169e-02	1.41878167e-04
4.84000000e-01	1.43619243e-02	1.42493967e-04
4.85000000e-01	1.43877468e-02	1.42137761e-04
4.86000000e-01	1.44048029e-02	1.42502335e-04
4.87000000e-01	1.43550316e-02	1.42320064e-04
4.88000000e-01	1.44427361e-02	1.42767345e-04
4.89000000e-01	1.43547600e-02	1.42750161e-04
4.90000000e-01	1.43430661e-02	1.42119834e-04
4.91000000e-01	1.44696231e-02	1.43603969e-04
4.92000000e-01	1.42838287e-02	1.41704256e-04
4.93000000e-01	1.42689662e-02	1.41903199e-04
4.94000000e-01	1.43044341e-02	1.42496677e-04
4.95000000e-01	1.42043127e-02	1.42479052e-04
4.96000000e-01	1.43766842e-02	1.48544654e-04
4.97000000e-01	1.41721712e-02	1.48590366e-04
4.98000000e-01	1.43383855e-02	1.52619373e-04
4.99000000e-01	1.42159350e-02	1.52920118e-04
5.00000000e-01	1.42179532e-02	1.54722446e-04
5.01000000e-01	1.43392874e-02	1.57442675e-04
5.02000000e-01	1.44763878e-02	1.61226061e-04
5.03000000e-01	1.43711937e-02	1.60953681e-04
5.04000000e-01	1.42192687e-02	1.61067482e-04
5.05000000e-01	1.42468661e-02	1.58496753e-04
5.06000000e-01	1.42634705e-02	1.55029617e-04
5.07000000e-01	1.44107778e-02	1.55230333e-04
5.08000000e-01	1.43006662e-02	1.53381119e-04
5.09000000e-01	1.43082885e-02	1.52340535e-04
5.10000000e-01	1.41613480e-02	1.50548898e-04
5.11000000e-01	1.41611752e-02	1.49944654e-04
5.12000000e-01	1.42752735e-02	1.50642551e-04
5.13000000e-01	1.42539275e-02	1.50209643e-04
5.14000000e-01	1.40836673e-02	1.48432018e-04
5.15000000e-01	1.42156062e-02	1.49058208e-04
5.16000000e-01	1.40296206e-02	1.47554069e-04
5.17000000e-01	1.41792337e-02	1.48620077e-04
5.18000000e-01	1.41350892e-02	1.48080532e-04
5.19000000e-01	1.41931141e-02	1.47551428e-04
5.20000000e-01	1.41481995e-02	1.47229460e-04
5.21000000e-01	1.40944892e-02	1.46612635e-04
5.22000000e-01	1.40842502e-02	1.46019625e-04
5.23000000e-01	1.40976638e-02	1.46168515e-04
5.24000000e-01	1.39220683e-02	1.44463252e-04
5.25000000e-01	1.41103054e-02	1.45960166e-04
5.26000000e-01	1.39368769e-02	1.44355833e-04
5.27000000e-01	1.39255131e-02	1.44845179e-04
5.28000000e-01	1.39288896e-02	1.44830737e-04
5.29000000e-01	1.39941343e-02	1.45618880e-04
5.30000000e-01	1.40243925e-02	1.45928726e-04
5.31000000e-01	1.38600960e-02	1.44265539e-04
5.32000000e-01	1.40252505e-02	1.45740823e-04
5.33000000e-01	1.40321232e-02	1.45639840e-04
5.34000000e-01	1.39433172e-02	1.44613421e-04
5.35000000e-01	1.38782263e-02	1.44099023e-04
5.36000000e-01	1.39652295e-02	1.44655428e-04
5.37000000e-01	1.38997976e-02	1.44699152e-04
5.38000000e-01	1.40289972e-02	1.45177064e-04
5.39000000e-01	1.38755148e-02	1.44616095e-04
5.40000000e-01	1.38965370e-02	1.44066965e-04
5.41000000e-01	1.38704282e-02	1.43625403e-04
5.42000000e-01	1.39690671e-02	1.44878528e-04
5.43000000e-01	1.38613434e-02	1.44215683e-04
5.44000000e-01	1.38289993e-02	1.43578615e-04
5.45000000e-01	1.37735770e-02	1.42813082e-04
5.46000000e-01	1.38677675e-02	1.44026554e-04
5.47000000e-01	1.38439721e-02	1.44280849e-04
5.48000000e-01	1.38217770e-02	1.43612632e-04
5.49000000e-01	1.38063287e-02	1.42895881e-04
5.50000000e-01	1.37871030e-02	1.43140968e-04
5.51000000e-01	1.37131879e-02	1.42130268e-04
5.52000000e-01	1.36958817e-02	1.41674084e-04
5.53000000e-01	1.38065626e-02	1.42483252e-04
5.54000000e-01	1.36783418e-02	1.40980804e-04
5.55000000e-01	1.36908087e-02	1.40892388e-04
5.56000000e-01	1.36898587e-02	1.41445730e-04
5.57000000e-01	1.37346867e-02	1.41668352e-04
5.58000000e-01	1.36694414e-02	1.40875552e-04
5.59000000e-01	1.36298661e-02	1.40452250e-04
5.60000000e-01	1.36262287e-02	1.40899884e-04
5.61000000e-01	1.36320205e-02	1.40890023e-04
5.62000000e-01	1.36509178e-02	1.41142034e-04
5.63000000e-01	1.36083616e-02	1.40743820e-04
5.64000000e-01	1.37426328e-02	1.41886962e-04
5.65000000e-01	1.36063926e-02	1.40858995e-04
5.66000000e-01	1.35501175e-02	1.40192157e-04
5.67000000e-01	1.37393672e-02	1.42496926e-04
5.68000000e-01	1.36498309e-02	1.40576737e-04
5.69000000e-01	1.35760509e-02	1.39715579e-04
5.70000000e-01	1.35772823e-02	1.39908477e-04
5.71000000e-01	1.35585693e-02	1.39952120e-04
5.72000000e-01	1.35977881e-02	1.40639023e-04
5.73000000e-01	1.36092967e-02	1.40501621e-04
5.74000000e-01	1.35394060e-02	1.39622791e-04
5.75000000e-01	1.35035748e-02	1.39634260e-04
5.76000000e-01	1.35689651e-02	1.40942123e-04
5.77000000e-01	1.35386682e-02	1.40325316e-04
5.78000000e-01	1.34063207e-02	1.38770144e-04
5.79000000e-01	1.33960968e-02	1.38762938e-04
5.80000000e-01	1.35669765e-02	1.40133406e-04
5.81000000e-01	1.32361630e-02	1.37461444e-04
5.82000000e-01	1.34375810e-02	1.38886822e-04
5.83000000e-01	1.34112791e-02	1.39137981e-04
5.84000000e-01	1.35500195e-02	1.40645828e-04
5.85000000e-01	1.34339832e-02	1.40009461e-04
5.86000000e-01	1.32192462e-02	1.37743180e-04
5.87000000e-01	1.33297907e-02	1.37854845e-04
5.88000000e-01	1.34140306e-02	1.39645291e-04
5.89000000e-01	1.33094347e-02	1.38367717e-04
5.90000000e-01	1.33324484e-02	1.38940190e-04
5.91000000e-01	1.33327328e-02	1.38739145e-04
5.92000000e-01	1.33040937e-02	1.38355940e-04
5.93000000e-01	1.34282395e-02	1.39237359e-04
5.94000000e-01	1.31775121e-02	1.37252116e-04
5.95000000e-01	1.34010140e-02	1.39398256e-04
5.96000000e-01	1.34105372e-02	1.39313654e-04
5.97000000e-01	1.34229424e-02	1.38820868e-04
5.98000000e-01	1.31810946e-02	1.37749731e-04
5.99000000e-01	1.32587464e-02	1.38343555e-04
6.00000000e-01	1.32398752e-02	1.37560264e-04
6.01000000e-01	1.32702201e-02	1.38071391e-04
6.02000000e-01	1.33875271e-02	1.39292649e-04
6.03000000e-01	1.32038024e-02	1.37834713e-04
6.04000000e-01	1.32378302e-02	1.37852503e-04
6.05000000e-01	1.32119586e-02	1.37889980e-04
6.06000000e-01	1.32429306e-02	1.37572166e-04
6.07000000e-01	1.32180416e-02	1.37646432e-04
6.08000000e-01	1.31429006e-02	1.36957390e-04
6.09000000e-01	1.31648670e-02	1.37584419e-04
6.10000000e-01	1.30795502e-02	1.36904220e-04
6.11000000e-01	1.31633285e-02	1.37148375e-04
6.12000000e-01	1.32254387e-02	1.38013131e-04
6.13000000e-01	1.32151500e-02	1.37561458e-04
6.14000000e-01	1.32388025e-02	1.38054135e-04
6.15000000e-01	1.30601675e-02	1.36271479e-04
6.16000000e-01	1.32556644e-02	1.38343946e-04
6.17000000e-01	1.32749517e-02	1.38924521e-04
6.18000000e-01	1.29512610e-02	1.35013539e-04
6.19000000e-01	1.30951185e-02	1.36284872e-04
6.20000000e-01	1.31639298e-02	1.36862655e-04
6.21000000e-01	1.30886574e-02	1.35737606e-04
6.22000000e-01	1.30574139e-02	1.36126729e-04
6.23000000e-01	1.30334589e-02	1.35343831e-04
6.24000000e-01	1.30395665e-02	1.35159661e-04
6.25000000e-01	1.30548202e-02	1.35420241e-04
6.26000000e-01	1.30190936e-02	1.34885870e-04
6.27000000e-01	1.29332909e-02	1.34174918e-04
6.28000000e-01	1.30574670e-02	1.35344093e-04
6.29000000e-01	1.29979701e-02	1.34497043e-04
6.30000000e-01	1.31059796e-02	1.35485991e-04
6.31000000e-01	1.30056013e-02	1.35192591e-04
6.32000000e-01	1.30173365e-02	1.35255881e-04
6.33000000e-01	1.30454681e-02	1.35461326e-04
6.34000000e-01	1.30609973e-02	1.38766085e-04
6.35000000e-01	1.30761426e-02	1.43080130e-04
6.36000000e-01	1.30186844e-02	1.44935579e-04
6.37000000e-01	1.30018114e-02	1.47822562e-04
6.38000000e-01	1.30861149e-02	1.50178866e-04
6.39000000e-01	1.30115203e-02	1.50722705e-04
6.40000000e-01	1.30889091e-02	1.53470410e-04
6.41000000e-01	1.30452913e-02	1.55040820e-04
6.42000000e-01	1.29603378e-02	1.55458672e-04
6.43000000e-01	1.30370939e-02	1.56746021e-04
6.44000000e-01	1.30173198e-02	1.50290364e-04
6.45000000e-01	1.30993446e-02	1.48850256e-04
6.46000000e-01	1.30962734e-02	1.48310880e-04
6.47000000e-01	1.29942738e-02	1.45808215e-04
6.48000000e-01	1.31051300e-02	1.46154877e-04
6.49000000e-01	1.29731036e-02	1.43996412e-04
6.50000000e-01	1.30166419e-02	1.43127684e-04
6.51000000e-01	1.30332595e-02	1.43449280e-04
6.52000000e-01	1.30616048e-02	1.43059252e-04
6.53000000e-01	1.28727971e-02	1.40608371e-04
6.54000000e-01	1.31709597e-02	1.43063119e-04
6.55000000e-01	1.30221054e-02	1.41648237e-04
6.56000000e-01	1.29919829e-02	1.40901245e-04
6.57000000e-01	1.29631252e-02	1.40535060e-04
6.58000000e-01	1.29717801e-02	1.40396475e-04
6.59000000e-01	1.30557324e-02	1.40916657e-04
6.60000000e-01	1.29807072e-02	1.40026474e-04
6.61000000e-01	1.28708230e-02	1.38944338e-04
6.62000000e-01	1.28597393e-02	1.38998839e-04
6.63000000e-01	1.30522558e-02	1.40600808e-04
6.64000000e-01	1.28806390e-02	1.39849231e-04
6.65000000e-01	1.28578673e-02	1.39645471e-04
6.66000000e-01	1.28268506e-02	1.38411330e-04
6.67000000e-01	1.28320827e-02	1.38147929e-04
6.68000000e-01	1.28440253e-02	1.38323777e-04
6.69000000e-01	1.28000506e-02	1.37905834e-04
6.70000000e-01	1.28349325e-02	1.38313736e-04
6.71000000e-01	1.28426619e-02	1.38266168e-04
6.72000000e-01	1.29142679e-02	1.38982285e-04
6.73000000e-01	1.28117548e-02	1.37928222e-04
6.74000000e-01	1.27549610e-02	1.37281206e-04
6.75000000e-01	1.28278100e-02	1.37557629e-04
6.76000000e-01	1.27446580e-02	1.37434857e-04
6.77000000e-01	1.27461405e-02	1.36575008e-04
6.78000000e-01	1.28237575e-02	1.37721027e-04
6.79000000e-01	1.28084604e-02	1.37135813e-04
6.80000000e-01	1.27507315e-02	1.37102822e-04
6.81000000e-01	1.28084070e-02	1.37167984e-04
6.82000000e-01	1.27515795e-02	1.36889970e-04
6.83000000e-01	1.27381434e-02	1.36477708e-04
6.84000000e-01	1.28454495e-02	1.36890877e-04
6.85000000e-01	1.27515891e-02	1.36531891e-04
6.86000000e-01	1.25306307e-02	1.34742514e-04
6.87000000e-01	1.26341519e-02	1.35779973e-04
6.88000000e-01	1.26638395e-02	1.35682367e-04
6.89000000e-01	1.27286086e-02	1.35974001e-04
6.90000000e-01	1.25632844e-02	1.35206782e-04
6.91000000e-01	1.27344558e-02	1.35923167e-04
6.92000000e-01	1.25857428e-02	1.35618242e-04
6.93000000e-01	1.26342911e-02	1.35311419e-04
6.94000000e-01	1.26705207e-02	1.35468145e-04
6.95000000e-01	1.26900190e-02	1.35755979e-04
6.96000000e-01	1.28044338e-02	1.37302693e-04
6.97000000e-01	1.25686011e-02	1.34740796e-04
6.98000000e-01	1.25524324e-02	1.34613600e-04
6.99000000e-01	1.27075575e-02	1.36062100e-04
7.00000000e-01	1.24228647e-02	1.33423401e-04
7.01000000e-01	1.24736817e-02	1.33837881e-04
7.02000000e-01	1.24869241e-02	1.33791249e-04
7.03000000e-01	1.24691537e-02	1.34330820e-04
7.04000000e-01	1.26111778e-02	1.34725715e-04
7.05000000e-01	1.25423981e-02	1.34446578e-04
7.06000000e-01	1.24968490e-02	1.33988972e-04
7.07000000e-01	1.24141591e-02	1.32751124e-04
7.08000000e-01	1.25033314e-02	1.33790758e-04
7.09000000e-01	1.24372270e-02	1.33530202e-04
7.10000000e-01	1.24888176e-02	1.33420875e-04
7.11000000e-01	1.23339508e-02	1.32404273e-04
7.12000000e-01	1.23649068e-02	1.32292760e-04
7.13000000e-01	1.25990764e-02	1.33975520e-04
7.14000000e-01	1.23174354e-02	1.32427276e-04
7.15000000e-01	1.23849199e-02	1.32537771e-04
7.16000000e-01	1.24286701e-02	1.33155411e-04
7.17000000e-01	1.23985786e-02	1.32403469e-04
7.18000000e-01	1.24618131e-02	1.33434675e-04
7.19000000e-01	1.23723698e-02	1.32511720e-04
7.20000000e-01	1.24017916e-02	1.33071806e-04
7.21000000e-01	1.23358503e-02	1.32460736e-04
7.22000000e-01	1.23249069e-02	1.32040581e-04
7.23000000e-01	1.24174568e-02	1.32808630e-04
7.24000000e-01	1.23584942e-02	1.32396720e-04
7.25000000e-01	1.22052463e-02	1.31237126e-04
7.26000000e-01	1.22802582e-02	1.31623378e-04
7.27000000e-01	1.22743542e-02	1.31698596e-04
7.28000000e-01	1.23052338e-02	1.31991959e-04
7.29000000e-01	1.22254235e-02	1.31270178e-04
7.30000000e-01	1.22359161e-02	1.31485207e-04
7.31000000e-01	1.23562251e-02	1.32044253e-04
7.32000000e-01	1.22909230e-02	1.32079758e-04
7.33000000e-01	1.23248537e-02	1.31817749e-04
7.34000000e-01	1.21669754e-02	1.30887527e-04
7.35000000e-01	1.22599734e-02	1.31344918e-04
7.36000000e-01	1.20870573e-02	1.29597008e-04
7.37000000e-01	1.21568663e-02	1.29205898e-04
7.38000000e-01	1.23053819e-02	1.30950413e-04
7.39000000e-01	1.21895000e-02	1.29970401e-04
7.40000000e-01	1.22011918e-02	1.30078304e-04
7.41000000e-01	1.21420456e-02	1.28778681e-04
7.42000000e-01	1.21924802e-02	1.29404815e-04
7.43000000e-01	1.22157771e-02	1.29373697e-04
7.44000000e-01	1.20108105e-02	1.27627993e-04
7.45000000e-01	1.21578450e-02	1.28986470e-04
7.46000000e-01	1.20246366e-02	1.27943299e-04
7.47000000e-01	1.22060959e-02	1.29472127e-04
7.48000000e-01	1.21153881e-02	1.28628976e-04
7.49000000e-01	1.19779751e-02	1.27575325e-04
7.50000000e-01	1.21556960e-02	1.29149418e-04
7.51000000e-01	1.20314768e-02	1.28247612e-04
7.52000000e-01	1.19852359e-02	1.27140851e-04
7.53000000e-01	1.20390203e-02	1.28104242e-04
7.54000000e-01	1.19860029e-02	1.26995975e-04
7.55000000e-01	1.20583938e-02	1.27960182e-04
7.56000000e-01	1.20925917e-02	1.28475258e-04
7.57000000e-01	1.19771824e-02	1.27154992e-04
7.58000000e-01	1.19534992e-02	1.27122770e-04
7.59000000e-01	1.18652387e-02	1.26585197e-04
7.60000000e-01	1.18975622e-02	1.26883953e-04
7.61000000e-01	1.19690158e-02	1.27031452e-04
7.62000000e-01	1.19942725e-02	1.26796119e-04
7.63000000e-01	1.20569644e-02	1.27208707e-04
7.64000000e-01	1.19480843e-02	1.26098846e-04
7.65000000e-01	1.19539807e-02	1.26230824e-04
7.66000000e-01	1.19898569e-02	1.26134231e-04
7.67000000e-01	1.18878399e-02	1.25570310e-04
7.68000000e-01	1.18331315e-02	1.24810897e-04
7.69000000e-01	1.19148165e-02	1.25339696e-04
7.70000000e-01	1.18933279e-02	1.25088739e-04
7.71000000e-01	1.17668972e-02	1.24351306e-04
7.72000000e-01	1.18415093e-02	1.28729583e-04
7.73000000e-01	1.18832210e-02	1.32953019e-04
7.74000000e-01	1.17778825e-02	1.34887491e-04
7.75000000e-01	1.18994490e-02	1.38191499e-04
7.76000000e-01	1.16995863e-02	1.38509083e-04
7.77000000e-01	1.17936496e-02	1.41496652e-04
7.78000000e-01	1.17777524e-02	1.43465689e-04
7.79000000e-01	1.18428191e-02	1.45932022e-04
7.80000000e-01	1.16834127e-02	1.45495264e-04
7.81000000e-01	1.17040816e-02	1.47199396e-04
7.82000000e-01	1.17540133e-02	1.50175286e-04
7.83000000e-01	1.16863464e-02	1.50592347e-04
7.84000000e-01	1.19167117e-02	1.54944924e-04
7.85000000e-01	1.16396938e-02	1.53609832e-04
7.86000000e-01	1.16574154e-02	1.54250960e-04
7.87000000e-01	1.16333184e-02	1.56850734e-04
7.88000000e-01	1.15142244e-02	1.56671502e-04
7.89000000e-01	1.17257216e-02	1.59574202e-04
7.90000000e-01	1.15891594e-02	1.60235049e-04
7.91000000e-01	1.17079887e-02	1.62740261e-04
7.92000000e-01	1.18584968e-02	1.66367083e-04
7.93000000e-01	1.14815689e-02	1.64081130e-04
7.94000000e-01	1.15434319e-02	1.65736309e-04
7.95000000e-01	1.15380950e-02	1.67131191e-04
7.96000000e-01	1.16011238e-02	1.70434248e-04
7.97000000e-01	1.15473031e-02	1.71229293e-04
7.98000000e-01	1.16044602e-02	1.74003972e-04
7.99000000e-01	1.15648551e-02	1.75333537e-04
8.00000000e-01	1.15466860e-02	1.77359090e-04
8.01000000e-01	1.13937480e-02	1.77009016e-04
8.02000000e-01	1.13808109e-02	1.78151978e-04
8.03000000e-01	1.13385150e-02	1.79193363e-04
8.04000000e-01	1.13904440e-02	1.82337948e-04
8.05000000e-01	1.14376166e-02	1.84255682e-04
8.06000000e-01	1.13452990e-02	1.85611572e-04
8.07000000e-01	1.13318454e-02	1.86811001e-04
8.08000000e-01	1.13647832e-02	1.89665448e-04
8.09000000e-01	1.14706499e-02	1.92374963e-04
8.10000000e-01	1.12519858e-02	1.91926027e-04
8.11000000e-01	1.13923256e-02	1.96535383e-04
8.12000000e-01	1.12502439e-02	1.97550475e-04
8.13000000e-01	1.15199286e-02	2.02895133e-04
8.14000000e-01	1.13166822e-02	2.01758430e-04
8.15000000e-01	1.11964001e-02	2.03395407e-04
8.16000000e-01	1.13535635e-02	2.08444707e-04
8.17000000e-01	1.13610874e-02	2.10176896e-04
8.18000000e-01	1.15009392e-02	2.15488661e-04
8.19000000e-01	1.12070158e-02	2.13053253e-04
8.20000000e-01	1.11747748e-02	2.14242905e-04
8.21000000e-01	1.12877182e-02	2.19915244e-04
8.22000000e-01	1.10218192e-02	2.18568307e-04
8.23000000e-01	1.10570233e-02	2.22555591e-04
8.24000000e-01	1.10806082e-02	2.26450459e-04
8.25000000e-01	1.12425016e-02	2.32852194e-04
8.26000000e-01	1.10201220e-02	2.33246042e-04
8.27000000e-01	1.11613995e-02	2.37347401e-04
8.28000000e-01	1.07455820e-02	2.33430776e-04
8.29000000e-01	1.10566121e-02	2.42708877e-04
8.30000000e-01	1.11150909e-02	2.47386497e-04
8.31000000e-01	1.08520742e-02	2.43634565e-04
8.32000000e-01	1.09659368e-02	2.52185234e-04
8.33000000e-01	1.12979804e-02	2.64039309e-04
8.34000000e-01	1.11623070e-02	2.65222373e-04
8.35000000e-01	1.10115001e-02	2.66885585e-04
8.36000000e-01	1.12283988e-02	2.78029229e-04
8.37000000e-01	1.09514781e-02	2.76833295e-04
8.38000000e-01	1.10930499e-02	2.85314822e-04
8.39000000e-01	1.13307193e-02	2.94881323e-04
8.40000000e-01	1.10489357e-02	2.95320505e-04
8.41000000e-01	1.10441041e-02	2.98657638e-04
8.42000000e-01	1.09169804e-02	3.05085805e-04
8.43000000e-01	1.09416968e-02	3.12584749e-04
8.44000000e-01	1.08522632e-02	3.22500283e-04
8.45000000e-01	1.07765778e-02	3.24883911e-04
8.46000000e-01	1.07706377e-02	3.32441603e-04
8.47000000e-01	1.09238210e-02	3.44866640e-04
8.48000000e-01	1.03567143e-02	3.36406944e-04
8.49000000e-01	1.07319010e-02	3.60697036e-04
8.50000000e-01	1.07956300e-02	3.82920309e-04
8.51000000e-01	1.09783500e-02	4.00545562e-04
8.52000000e-01	1.06322086e-02	4.01044070e-04
8.53000000e-01	1.08702330e-02	4.31934447e-04
8.54000000e-01	1.10008489e-02	4.50497203e-04
8.55000000e-01	1.06726062e-02	4.55587033e-04
8.56000000e-01	1.06570729e-02	4.65442278e-04
8.57000000e-01	1.06399330e-02	4.77777004e-04
8.58000000e-01	1.00535778e-02	4.73979035e-04
8.59000000e-01	1.00936411e-02	4.83815176e-04
8.60000000e-01	1.07998827e-02	5.34617826e-04
8.61000000e-01	1.03223561e-02	5.29264091e-04
8.62000000e-01	1.05321100e-02	5.63681549e-04
8.63000000e-01	1.07666620e-02	5.99207170e-04
8.64000000e-01	1.05343664e-02	6.11953315e-04
8.65000000e-01	1.00502600e-02	6.10227619e-04
8.66000000e-01	1.03651263e-02	6.59444427e-04
8.67000000e-01	1.11445945e-02	7.53086901e-04
8.68000000e-01	1.10910212e-02	7.84869714e-04
8.69000000e-01	1.01955950e-02	7.66052539e-04
8.70000000e-01	1.01703875e-02	8.52703012e-04
8.71000000e-01	9.07055121e-03	8.74436593e-04
8.72000000e-01	1.06781532e-02	1.08971089e-03
8.73000000e-01	1.00970428e-02	1.23610641e-03
8.74000000e-01	1.16793035e-02	1.81767731e-03
8.75000000e-01	1.36919414e-02	4.65335046e-03
