% Filename : SDL7_00012_00019.h5
% Date & Time : 30-Oct-2025 14:47:12
% X-ray Energy (keV) : 13.30001
% Exposure Time (s) : 0.500
% Beam Center : 1461.24000, 208.98300
% Sample to Detector Distance (SDD) (mm) : 1990.750
% Detector Pixel Size (mm) : 0.075
% Photodiode Value : 135806.000
% I0 of Sample : 0
% I0 of Standard : 1
% 
% q(A^-1)   I(q)    I(q)_SE
0.00000000e+00	7.98198216e-03	4.60839276e-03
2.50000000e-04	0.00000000e+00	0.00000000e+00
5.00000000e-04	0.00000000e+00	0.00000000e+00
7.50000000e-04	0.00000000e+00	0.00000000e+00
1.00000000e-03	0.00000000e+00	0.00000000e+00
1.25000000e-03	0.00000000e+00	0.00000000e+00
1.50000000e-03	0.00000000e+00	0.00000000e+00
1.75000000e-03	0.00000000e+00	0.00000000e+00
2.00000000e-03	0.00000000e+00	0.00000000e+00
2.25000000e-03	0.00000000e+00	0.00000000e+00
2.50000000e-03	0.00000000e+00	0.00000000e+00
2.75000000e-03	0.00000000e+00	0.00000000e+00
3.00000000e-03	0.00000000e+00	0.00000000e+00
3.25000000e-03	6.28843420e+01	3.63168764e+01
3.50000000e-03	2.42798742e+01	1.04874325e+01
3.75000000e-03	1.62747517e+01	6.42809756e+00
4.00000000e-03	1.48401811e+01	5.55224310e+00
4.25000000e-03	7.68179733e+00	2.99999392e+00
4.50000000e-03	1.70788428e+01	6.69876514e+00
4.75000000e-03	2.76035630e+01	9.20313058e+00
5.00000000e-03	2.06426887e+01	6.83306033e+00
5.25000000e-03	1.72243679e+01	5.67251024e+00
5.50000000e-03	1.37263874e+01	4.48311191e+00
5.75000000e-03	1.15891217e+01	3.77392671e+00
6.00000000e-03	9.00683225e+00	2.87333488e+00
6.25000000e-03	7.78552874e+00	2.45347273e+00
6.50000000e-03	6.30690431e+00	1.97233408e+00
6.75000000e-03	5.40947492e+00	1.65445965e+00
7.00000000e-03	4.55518960e+00	1.36752230e+00
7.25000000e-03	3.77036414e+00	1.11333227e+00
7.50000000e-03	3.13218711e+00	9.62786314e-01
7.75000000e-03	2.89174365e+00	8.38055251e-01
8.00000000e-03	2.55633039e+00	7.29824971e-01
8.25000000e-03	2.11020567e+00	5.90166298e-01
8.50000000e-03	1.85270454e+00	5.12664393e-01
8.75000000e-03	1.68559431e+00	4.63315729e-01
9.00000000e-03	1.48395215e+00	4.02230978e-01
9.25000000e-03	1.33576565e+00	3.66343194e-01
9.50000000e-03	1.15359824e+00	3.08291200e-01
9.75000000e-03	1.04593198e+00	2.77834452e-01
1.00000000e-02	8.39803370e-01	2.25183388e-01
1.02500000e-02	8.83238018e-01	2.34908624e-01
1.05000000e-02	7.93005027e-01	2.05606968e-01
1.07500000e-02	7.11532306e-01	1.85431892e-01
1.10000000e-02	6.41186855e-01	1.62909326e-01
1.12500000e-02	5.36960930e-01	1.36766890e-01
1.15000000e-02	5.56435327e-01	1.41381526e-01
1.17500000e-02	4.52785500e-01	1.16267924e-01
1.20000000e-02	4.55982575e-01	1.14751081e-01
1.22500000e-02	4.22650716e-01	1.03470588e-01
1.25000000e-02	3.97906948e-01	9.63400856e-02
1.27500000e-02	3.68343178e-01	8.85100051e-02
1.30000000e-02	3.41338056e-01	8.06528753e-02
1.32500000e-02	3.03035419e-01	7.05203176e-02
1.35000000e-02	2.89152095e-01	6.70799651e-02
1.37500000e-02	2.66553184e-01	6.18125962e-02
1.40000000e-02	2.50107243e-01	5.70493433e-02
1.42500000e-02	2.31811539e-01	5.19935581e-02
1.45000000e-02	2.17287718e-01	4.78338027e-02
1.47500000e-02	2.05978217e-01	4.51296733e-02
1.50000000e-02	1.93789388e-01	4.22018458e-02
1.52500000e-02	1.87003155e-01	4.04599424e-02
1.55000000e-02	1.65740450e-01	3.48445174e-02
1.57500000e-02	1.57974417e-01	3.27290110e-02
1.60000000e-02	1.52235154e-01	3.10883682e-02
1.62500000e-02	1.47941614e-01	3.05216605e-02
1.65000000e-02	1.35306641e-01	2.73072223e-02
1.67500000e-02	1.24669272e-01	2.42060611e-02
1.70000000e-02	1.22461983e-01	2.37332440e-02
1.72500000e-02	1.17944722e-01	2.20542500e-02
1.75000000e-02	1.08830659e-01	2.07964886e-02
1.77500000e-02	1.08996774e-01	2.01290149e-02
1.80000000e-02	1.03157698e-01	1.89995405e-02
1.82500000e-02	9.71531490e-02	1.74851955e-02
1.85000000e-02	9.13380826e-02	1.65322964e-02
1.87500000e-02	9.05752008e-02	1.58528467e-02
1.90000000e-02	8.78063308e-02	1.49720596e-02
1.92500000e-02	8.31103335e-02	1.38988766e-02
1.95000000e-02	7.43986567e-02	1.25243230e-02
1.97500000e-02	7.78768318e-02	1.29140664e-02
2.00000000e-02	7.16051838e-02	1.15355979e-02
2.02500000e-02	6.79967587e-02	1.12351583e-02
2.05000000e-02	7.05097965e-02	1.07900881e-02
2.07500000e-02	6.82712452e-02	1.03668888e-02
2.10000000e-02	6.44837915e-02	9.77066409e-03
2.12500000e-02	6.42811513e-02	9.75692159e-03
2.15000000e-02	6.18936024e-02	8.90629427e-03
2.17500000e-02	6.03279306e-02	8.75063041e-03
2.20000000e-02	6.24090793e-02	8.84907461e-03
2.22500000e-02	5.69814146e-02	8.07883480e-03
2.25000000e-02	5.85989654e-02	8.06889716e-03
2.27500000e-02	5.63740565e-02	7.67525586e-03
2.30000000e-02	5.59734317e-02	7.28873846e-03
2.32500000e-02	5.28982753e-02	6.83575748e-03
2.35000000e-02	5.23856005e-02	6.66840450e-03
2.37500000e-02	5.18259690e-02	6.44505880e-03
2.40000000e-02	4.86647770e-02	6.06451213e-03
2.42500000e-02	4.95814322e-02	6.09641132e-03
2.45000000e-02	4.88753515e-02	5.81239993e-03
2.47500000e-02	4.71781298e-02	5.52931944e-03
2.50000000e-02	4.73923259e-02	5.50764354e-03
2.52500000e-02	4.41035086e-02	5.01103036e-03
2.55000000e-02	4.41961183e-02	5.09868445e-03
2.57500000e-02	4.49071497e-02	4.96544958e-03
2.60000000e-02	4.37173053e-02	4.66270109e-03
2.62500000e-02	4.10065528e-02	4.11508735e-03
2.65000000e-02	4.16791900e-02	4.36121337e-03
2.67500000e-02	4.22569881e-02	4.26082668e-03
2.70000000e-02	4.05243873e-02	4.03932562e-03
2.72500000e-02	4.07917759e-02	4.15769776e-03
2.75000000e-02	3.94103052e-02	3.80646812e-03
2.77500000e-02	3.91225560e-02	3.89991749e-03
2.80000000e-02	3.85058981e-02	3.55041983e-03
2.82500000e-02	3.88954842e-02	3.60883173e-03
2.85000000e-02	3.81748560e-02	3.41513895e-03
2.87500000e-02	3.79921503e-02	3.33964880e-03
2.90000000e-02	3.73298643e-02	3.27387282e-03
2.92500000e-02	3.60517561e-02	2.95204790e-03
2.95000000e-02	3.64942500e-02	3.05491476e-03
2.97500000e-02	3.59782503e-02	2.98497754e-03
3.00000000e-02	3.60325348e-02	2.85512325e-03
3.02500000e-02	3.57605644e-02	2.98049095e-03
3.05000000e-02	3.46026156e-02	2.52042548e-03
3.07500000e-02	3.49215154e-02	2.63403210e-03
3.10000000e-02	3.43269303e-02	2.58549227e-03
3.12500000e-02	3.32909351e-02	2.44286125e-03
3.15000000e-02	3.38973094e-02	2.39567481e-03
3.17500000e-02	3.27149746e-02	2.28180447e-03
3.20000000e-02	3.27233682e-02	2.33327227e-03
3.22500000e-02	3.20165460e-02	2.29294209e-03
3.25000000e-02	3.15882160e-02	2.16400480e-03
3.27500000e-02	3.21184823e-02	2.13610614e-03
3.30000000e-02	3.09293522e-02	1.98360636e-03
3.32500000e-02	3.09574280e-02	1.97699343e-03
3.35000000e-02	3.07494148e-02	2.10363805e-03
3.37500000e-02	3.03449783e-02	1.99557970e-03
3.40000000e-02	3.00639262e-02	1.86210744e-03
3.42500000e-02	3.05639408e-02	1.88331662e-03
3.45000000e-02	2.97014716e-02	1.84208609e-03
3.47500000e-02	2.89203950e-02	1.76582491e-03
3.50000000e-02	2.89581484e-02	1.74536856e-03
3.52500000e-02	2.90215845e-02	1.76865107e-03
3.55000000e-02	2.83463144e-02	1.71287156e-03
3.57500000e-02	2.76260988e-02	1.57204702e-03
3.60000000e-02	2.78295976e-02	1.59276067e-03
3.62500000e-02	2.87181309e-02	1.62902072e-03
3.65000000e-02	2.71558234e-02	1.59449942e-03
3.67500000e-02	2.77808053e-02	1.55176402e-03
3.70000000e-02	2.74860974e-02	1.50591831e-03
3.72500000e-02	2.83404372e-02	1.59021375e-03
3.75000000e-02	2.67827369e-02	1.44740168e-03
3.77500000e-02	2.73488342e-02	1.48603308e-03
3.80000000e-02	2.72981724e-02	1.44215803e-03
3.82500000e-02	2.59571676e-02	1.39515021e-03
3.85000000e-02	2.56228077e-02	1.40318117e-03
3.87500000e-02	2.60713279e-02	1.40933423e-03
3.90000000e-02	2.68705439e-02	1.36089354e-03
3.92500000e-02	2.63751997e-02	1.32769324e-03
3.95000000e-02	2.56969004e-02	1.33739976e-03
3.97500000e-02	2.60626635e-02	1.30565377e-03
4.00000000e-02	2.58844990e-02	1.29654415e-03
4.02500000e-02	2.62867883e-02	1.30203514e-03
4.05000000e-02	2.58776564e-02	1.26486724e-03
4.07500000e-02	2.50410323e-02	1.19571341e-03
4.10000000e-02	2.54787266e-02	1.25987338e-03
4.12500000e-02	2.54048132e-02	1.24848968e-03
4.15000000e-02	2.50646644e-02	1.20751540e-03
4.17500000e-02	2.52476965e-02	1.21662725e-03
4.20000000e-02	2.44828090e-02	1.14502145e-03
4.22500000e-02	2.46918955e-02	1.17344642e-03
4.25000000e-02	2.53175598e-02	1.16783726e-03
4.27500000e-02	2.46478367e-02	1.12588882e-03
4.30000000e-02	2.44294571e-02	1.14049659e-03
4.32500000e-02	2.29818030e-02	1.05818383e-03
4.35000000e-02	2.40816448e-02	1.10614124e-03
4.37500000e-02	2.43573073e-02	1.09209526e-03
4.40000000e-02	2.44351610e-02	1.12228745e-03
4.42500000e-02	2.39480189e-02	1.08529206e-03
4.45000000e-02	2.43244846e-02	1.10246498e-03
4.47500000e-02	2.45029111e-02	1.10009905e-03
4.50000000e-02	2.40418537e-02	1.08898976e-03
4.52500000e-02	2.32159842e-02	1.03576207e-03
4.55000000e-02	2.43398910e-02	1.09565853e-03
4.57500000e-02	2.38358284e-02	1.05496643e-03
4.60000000e-02	2.26607311e-02	1.00672448e-03
4.62500000e-02	2.39497507e-02	1.03228500e-03
4.65000000e-02	2.38632172e-02	1.03235397e-03
4.67500000e-02	2.37057940e-02	1.02785099e-03
4.70000000e-02	2.31255211e-02	9.71253487e-04
4.72500000e-02	2.31493727e-02	9.85214493e-04
4.75000000e-02	2.33330557e-02	1.00999227e-03
4.77500000e-02	2.29322640e-02	9.85502957e-04
4.80000000e-02	2.34200794e-02	9.80478034e-04
4.82500000e-02	2.26806921e-02	9.53101269e-04
4.85000000e-02	2.33050874e-02	9.86755237e-04
4.87500000e-02	2.33577646e-02	9.90718938e-04
4.90000000e-02	2.25979973e-02	9.37355606e-04
4.92500000e-02	2.29032111e-02	9.47969264e-04
4.95000000e-02	2.25393301e-02	9.46388704e-04
4.97500000e-02	2.28985539e-02	9.54894817e-04
5.00000000e-02	2.32662178e-02	9.68247478e-04
5.02500000e-02	2.25447178e-02	9.17509995e-04
5.05000000e-02	2.28287018e-02	9.40883334e-04
5.07500000e-02	2.28153315e-02	9.30434473e-04
5.10000000e-02	2.16779909e-02	8.92695992e-04
5.12500000e-02	2.26765141e-02	9.25443026e-04
5.15000000e-02	2.25544068e-02	9.15955867e-04
5.17500000e-02	2.22405634e-02	9.06304818e-04
5.20000000e-02	2.24199976e-02	8.97512753e-04
5.22500000e-02	2.27048963e-02	9.07529990e-04
5.25000000e-02	2.18556334e-02	8.75431205e-04
5.27500000e-02	2.17079303e-02	8.59686034e-04
5.30000000e-02	2.19758690e-02	8.80835325e-04
5.32500000e-02	2.26968020e-02	8.98897394e-04
5.35000000e-02	2.16846645e-02	8.76098964e-04
5.37500000e-02	2.21456067e-02	8.76190516e-04
5.40000000e-02	2.25654393e-02	8.94521274e-04
5.42500000e-02	2.17072473e-02	8.61907439e-04
5.45000000e-02	2.24621096e-02	9.00628285e-04
5.47500000e-02	2.22752749e-02	8.71490670e-04
5.50000000e-02	2.21322569e-02	8.78387782e-04
5.52500000e-02	2.21298512e-02	8.67350114e-04
5.55000000e-02	2.15661520e-02	8.43803425e-04
5.57500000e-02	2.20321484e-02	8.62635738e-04
5.60000000e-02	2.18183760e-02	8.39186654e-04
5.62500000e-02	2.22936226e-02	8.63050897e-04
5.65000000e-02	2.17452675e-02	8.45961552e-04
5.67500000e-02	2.18945487e-02	8.51925129e-04
5.70000000e-02	2.20388927e-02	8.39857839e-04
5.72500000e-02	2.14319357e-02	8.27813451e-04
5.75000000e-02	2.17187563e-02	8.41932629e-04
5.77500000e-02	2.13212074e-02	8.09742251e-04
5.80000000e-02	2.18708872e-02	8.43936959e-04
5.82500000e-02	2.22736821e-02	8.44192012e-04
5.85000000e-02	2.16415458e-02	8.30581358e-04
5.87500000e-02	2.18716857e-02	8.27050948e-04
5.90000000e-02	2.14859414e-02	8.19651126e-04
5.92500000e-02	2.13916186e-02	8.06446341e-04
5.95000000e-02	2.15151800e-02	8.17010342e-04
5.97500000e-02	2.09425230e-02	7.91586271e-04
6.00000000e-02	2.14745509e-02	8.07557039e-04
6.02500000e-02	2.20671434e-02	8.28853505e-04
6.05000000e-02	2.10708507e-02	7.84253557e-04
6.07500000e-02	2.20079462e-02	8.25266597e-04
6.10000000e-02	2.11841567e-02	7.86326075e-04
6.12500000e-02	2.08283102e-02	7.82505099e-04
6.15000000e-02	2.09701620e-02	7.89789820e-04
6.17500000e-02	2.09918742e-02	7.87118704e-04
6.20000000e-02	2.07599099e-02	7.66450222e-04
6.22500000e-02	2.12844092e-02	7.87467178e-04
6.25000000e-02	2.10750629e-02	7.75883811e-04
6.27500000e-02	2.06489919e-02	7.70406488e-04
6.30000000e-02	2.11324979e-02	7.74143935e-04
6.32500000e-02	2.09267559e-02	7.71443422e-04
6.35000000e-02	2.08487189e-02	7.67189429e-04
6.37500000e-02	2.13661346e-02	7.78885867e-04
6.40000000e-02	2.06992264e-02	7.55909501e-04
6.42500000e-02	2.07707117e-02	7.57202787e-04
6.45000000e-02	2.14887068e-02	7.77558497e-04
6.47500000e-02	2.07873301e-02	7.62568557e-04
6.50000000e-02	2.06182570e-02	7.54951663e-04
6.52500000e-02	2.09377270e-02	7.53741022e-04
6.55000000e-02	2.08246016e-02	7.61119881e-04
6.57500000e-02	2.11470892e-02	7.69300799e-04
6.60000000e-02	2.08294907e-02	7.49870182e-04
6.62500000e-02	2.10075992e-02	7.55785035e-04
6.65000000e-02	2.11777806e-02	7.59026136e-04
6.67500000e-02	2.12350054e-02	7.58199565e-04
6.70000000e-02	2.09146738e-02	7.49726578e-04
6.72500000e-02	2.06275172e-02	7.41694102e-04
6.75000000e-02	2.07495200e-02	7.45291701e-04
6.77500000e-02	2.09369141e-02	7.39066118e-04
6.80000000e-02	2.09072407e-02	7.51829978e-04
6.82500000e-02	2.05670779e-02	7.32114482e-04
6.85000000e-02	2.13383658e-02	7.56668297e-04
6.87500000e-02	2.06980081e-02	7.31693272e-04
6.90000000e-02	2.06110344e-02	7.29032738e-04
6.92500000e-02	2.11038984e-02	7.42460656e-04
6.95000000e-02	2.06720737e-02	7.31380190e-04
6.97500000e-02	2.05955349e-02	7.29304639e-04
7.00000000e-02	2.05720225e-02	7.20034730e-04
7.02500000e-02	2.06589113e-02	7.21382427e-04
7.05000000e-02	2.13589524e-02	7.41642292e-04
7.07500000e-02	2.02387275e-02	7.15380853e-04
7.10000000e-02	2.10511429e-02	7.31841867e-04
7.12500000e-02	2.06847741e-02	7.24603589e-04
7.15000000e-02	2.06605986e-02	7.18639319e-04
7.17500000e-02	2.12295775e-02	7.40985302e-04
7.20000000e-02	2.04994905e-02	7.20402929e-04
7.22500000e-02	2.04569879e-02	7.15489249e-04
7.25000000e-02	2.03005813e-02	7.05922426e-04
7.27500000e-02	2.08444502e-02	7.20156697e-04
7.30000000e-02	2.06614657e-02	7.14949283e-04
7.32500000e-02	2.03415514e-02	7.01486783e-04
7.35000000e-02	2.09125567e-02	7.25360758e-04
7.37500000e-02	2.02995031e-02	6.91916577e-04
7.40000000e-02	2.02491417e-02	6.99239653e-04
7.42500000e-02	2.03461341e-02	6.99082596e-04
7.45000000e-02	2.04120765e-02	6.98322621e-04
7.47500000e-02	2.02557780e-02	6.97265413e-04
7.50000000e-02	2.06738712e-02	7.04923201e-04
7.52500000e-02	2.01218888e-02	6.90509554e-04
7.55000000e-02	2.06746704e-02	7.00952937e-04
7.57500000e-02	2.07030888e-02	7.07145197e-04
7.60000000e-02	2.00217927e-02	6.81453200e-04
7.62500000e-02	2.00415328e-02	6.82225437e-04
7.65000000e-02	2.04188707e-02	6.90159972e-04
7.67500000e-02	2.03028032e-02	6.90227204e-04
7.70000000e-02	2.07089334e-02	6.92455884e-04
7.72500000e-02	2.03322204e-02	7.00283727e-04
7.75000000e-02	1.98834772e-02	6.91393270e-04
7.77500000e-02	2.00538743e-02	7.07947204e-04
7.80000000e-02	2.03019430e-02	7.09571939e-04
7.82500000e-02	2.07916346e-02	7.22520093e-04
7.85000000e-02	2.02831724e-02	7.21613665e-04
7.87500000e-02	2.08072942e-02	7.30442003e-04
7.90000000e-02	2.02176625e-02	7.24582723e-04
7.92500000e-02	2.01479198e-02	7.21410866e-04
7.95000000e-02	1.95378024e-02	7.03415764e-04
7.97500000e-02	2.00299441e-02	7.18614556e-04
8.00000000e-02	2.06340962e-02	7.36742710e-04
8.02500000e-02	2.10181562e-02	7.57307546e-04
8.05000000e-02	2.05112435e-02	7.42919286e-04
8.07500000e-02	2.01135838e-02	7.29905441e-04
8.10000000e-02	2.03823738e-02	7.34233541e-04
8.12500000e-02	2.06908708e-02	7.45672063e-04
8.15000000e-02	2.03080004e-02	7.39670189e-04
8.17500000e-02	2.10750162e-02	7.64282998e-04
8.20000000e-02	2.05642414e-02	7.49074517e-04
8.22500000e-02	2.04973517e-02	7.48211721e-04
8.25000000e-02	2.01981391e-02	7.28134059e-04
8.27500000e-02	2.00809066e-02	7.29612413e-04
8.30000000e-02	1.99824305e-02	7.30640999e-04
8.32500000e-02	2.09742084e-02	7.66459590e-04
8.35000000e-02	2.03650865e-02	7.52554917e-04
8.37500000e-02	2.04207557e-02	7.42343002e-04
8.40000000e-02	2.03263546e-02	7.47044026e-04
8.42500000e-02	1.98314650e-02	7.30855101e-04
8.45000000e-02	2.03033121e-02	7.52398958e-04
8.47500000e-02	2.00631394e-02	7.49934912e-04
8.50000000e-02	1.99936247e-02	7.36968749e-04
8.52500000e-02	1.99098568e-02	7.44462830e-04
8.55000000e-02	2.01976210e-02	7.51284985e-04
8.57500000e-02	2.02994614e-02	7.54934500e-04
8.60000000e-02	2.10086985e-02	7.82142609e-04
8.62500000e-02	2.01038101e-02	7.44654035e-04
8.65000000e-02	2.00462871e-02	7.47072339e-04
8.67500000e-02	2.01552113e-02	7.40645705e-04
8.70000000e-02	2.01569924e-02	7.34359271e-04
8.72500000e-02	1.99821671e-02	7.18675708e-04
8.75000000e-02	2.00393172e-02	7.12480108e-04
8.77500000e-02	2.02846804e-02	7.15684654e-04
8.80000000e-02	2.03965612e-02	7.18147899e-04
8.82500000e-02	2.04215094e-02	7.09988085e-04
8.85000000e-02	2.01369182e-02	7.09443145e-04
8.87500000e-02	2.03702690e-02	6.99545999e-04
8.90000000e-02	1.95357502e-02	6.81654057e-04
8.92500000e-02	2.03332614e-02	7.01797463e-04
8.95000000e-02	2.02701511e-02	7.01003244e-04
8.97500000e-02	1.98874249e-02	6.77718773e-04
9.00000000e-02	1.99169522e-02	6.76960024e-04
9.02500000e-02	1.99274868e-02	6.84522410e-04
9.05000000e-02	2.02445287e-02	6.90440103e-04
9.07500000e-02	1.96567850e-02	6.65603502e-04
9.10000000e-02	1.98384965e-02	6.70100271e-04
9.12500000e-02	2.05893239e-02	6.91517169e-04
9.15000000e-02	2.02580217e-02	6.75088543e-04
9.17500000e-02	2.04151804e-02	6.85262806e-04
9.20000000e-02	2.01931565e-02	6.72692732e-04
9.22500000e-02	2.01420736e-02	6.75529172e-04
9.25000000e-02	1.99503474e-02	6.57932715e-04
9.27500000e-02	2.04697220e-02	6.83830139e-04
9.30000000e-02	2.01935802e-02	6.70162728e-04
9.32500000e-02	1.99451650e-02	6.70132114e-04
9.35000000e-02	1.97026695e-02	6.52126106e-04
9.37500000e-02	2.00028987e-02	6.56886476e-04
9.40000000e-02	1.96954849e-02	6.50983830e-04
9.42500000e-02	2.06823033e-02	6.76933795e-04
9.45000000e-02	1.98729237e-02	6.50894864e-04
9.47500000e-02	2.01949527e-02	6.63221710e-04
9.50000000e-02	1.99580737e-02	6.52670425e-04
9.52500000e-02	1.98410161e-02	6.50637048e-04
9.55000000e-02	1.97295607e-02	6.44222779e-04
9.57500000e-02	2.01239715e-02	6.54227593e-04
9.60000000e-02	1.93879448e-02	6.32613144e-04
9.62500000e-02	2.00790082e-02	6.56552740e-04
9.65000000e-02	2.02106022e-02	6.50671303e-04
9.67500000e-02	1.98117613e-02	6.42622590e-04
9.70000000e-02	2.01452663e-02	6.45007550e-04
9.72500000e-02	2.00246581e-02	6.44725924e-04
9.75000000e-02	1.97834923e-02	6.37839197e-04
9.77500000e-02	2.01922631e-02	6.42752683e-04
9.80000000e-02	2.00265030e-02	6.43225963e-04
9.82500000e-02	1.99963082e-02	6.45155699e-04
9.85000000e-02	1.96516071e-02	6.32656929e-04
9.87500000e-02	1.99470381e-02	6.38620619e-04
9.90000000e-02	2.00574908e-02	6.40650066e-04
9.92500000e-02	2.01426544e-02	6.39118499e-04
9.95000000e-02	2.01154067e-02	6.35728838e-04
9.97500000e-02	2.03239002e-02	6.42286023e-04
1.00000000e-01	1.99963483e-02	5.17086846e-04
1.00500000e-01	1.99442362e-02	4.45711592e-04
1.01000000e-01	1.96394312e-02	4.34647728e-04
1.01500000e-01	2.00286262e-02	4.46066143e-04
1.02000000e-01	1.96689337e-02	4.32647582e-04
1.02500000e-01	2.00974045e-02	4.42225523e-04
1.03000000e-01	1.97684686e-02	4.36129270e-04
1.03500000e-01	1.99923830e-02	4.38315843e-04
1.04000000e-01	1.97880435e-02	4.35234344e-04
1.04500000e-01	1.98035553e-02	4.31971326e-04
1.05000000e-01	2.00050345e-02	4.33493251e-04
1.05500000e-01	1.97112105e-02	4.26993286e-04
1.06000000e-01	2.00564288e-02	4.32500064e-04
1.06500000e-01	1.96294983e-02	4.24757836e-04
1.07000000e-01	2.02803089e-02	4.42706293e-04
1.07500000e-01	1.97907592e-02	4.38585488e-04
1.08000000e-01	1.98818313e-02	4.47358036e-04
1.08500000e-01	1.95862757e-02	4.43783582e-04
1.09000000e-01	1.98859116e-02	4.51330814e-04
1.09500000e-01	1.95193192e-02	4.47079294e-04
1.10000000e-01	1.98490942e-02	4.49416420e-04
1.10500000e-01	1.99632324e-02	4.41090333e-04
1.11000000e-01	2.03150363e-02	4.40257535e-04
1.11500000e-01	1.98112359e-02	4.27989601e-04
1.12000000e-01	1.99585460e-02	4.27196219e-04
1.12500000e-01	1.98539410e-02	4.24194550e-04
1.13000000e-01	1.99992551e-02	4.22886570e-04
1.13500000e-01	1.98775734e-02	4.21297557e-04
1.14000000e-01	1.99433398e-02	4.19962597e-04
1.14500000e-01	1.97794712e-02	4.17376336e-04
1.15000000e-01	1.96783458e-02	4.12058079e-04
1.15500000e-01	2.00646475e-02	4.19871261e-04
1.16000000e-01	1.96382940e-02	4.08885158e-04
1.16500000e-01	1.97856348e-02	4.12545083e-04
1.17000000e-01	1.97147792e-02	4.09932851e-04
1.17500000e-01	1.99257025e-02	4.12062705e-04
1.18000000e-01	1.99231636e-02	4.13941972e-04
1.18500000e-01	2.02326474e-02	4.14571030e-04
1.19000000e-01	2.00446959e-02	4.12245729e-04
1.19500000e-01	1.94905809e-02	4.01485537e-04
1.20000000e-01	1.96341903e-02	4.02246719e-04
1.20500000e-01	1.94678225e-02	3.98348626e-04
1.21000000e-01	1.98667541e-02	4.05404471e-04
1.21500000e-01	1.99961857e-02	4.07797248e-04
1.22000000e-01	1.98579586e-02	4.04109121e-04
1.22500000e-01	1.97520376e-02	3.97992211e-04
1.23000000e-01	1.99457875e-02	4.01832446e-04
1.23500000e-01	2.00498114e-02	4.02967568e-04
1.24000000e-01	1.98067509e-02	3.99373797e-04
1.24500000e-01	1.96256229e-02	3.94094607e-04
1.25000000e-01	1.99694824e-02	4.00068365e-04
1.25500000e-01	1.97085591e-02	3.94030605e-04
1.26000000e-01	1.94321567e-02	3.89347495e-04
1.26500000e-01	1.97566343e-02	3.93316974e-04
1.27000000e-01	1.96889650e-02	3.91027302e-04
1.27500000e-01	1.94957159e-02	3.87239550e-04
1.28000000e-01	1.97317831e-02	3.89133557e-04
1.28500000e-01	1.97065707e-02	3.88036959e-04
1.29000000e-01	1.95712849e-02	3.86653930e-04
1.29500000e-01	1.99572092e-02	3.91213487e-04
1.30000000e-01	1.96991108e-02	3.86015527e-04
1.30500000e-01	1.96993530e-02	3.87184888e-04
1.31000000e-01	2.00204906e-02	3.90997791e-04
1.31500000e-01	1.96297252e-02	3.82577740e-04
1.32000000e-01	1.97458915e-02	3.85143677e-04
1.32500000e-01	1.97822541e-02	3.82085442e-04
1.33000000e-01	1.96852460e-02	3.81113067e-04
1.33500000e-01	1.96101194e-02	3.77837505e-04
1.34000000e-01	1.95902462e-02	3.75750867e-04
1.34500000e-01	1.97718852e-02	3.78201198e-04
1.35000000e-01	1.99282032e-02	3.82044309e-04
1.35500000e-01	1.97367605e-02	3.77053386e-04
1.36000000e-01	1.97515844e-02	3.75373521e-04
1.36500000e-01	2.01347578e-02	3.84824826e-04
1.37000000e-01	1.95035300e-02	3.69862442e-04
1.37500000e-01	1.94863488e-02	3.70482680e-04
1.38000000e-01	1.94028373e-02	3.68172474e-04
1.38500000e-01	1.93949510e-02	3.68602182e-04
1.39000000e-01	1.97227923e-02	3.73739833e-04
1.39500000e-01	1.95464115e-02	3.69206979e-04
1.40000000e-01	2.00140145e-02	3.77285885e-04
1.40500000e-01	1.95867685e-02	3.71430505e-04
1.41000000e-01	1.95167766e-02	3.67818504e-04
1.41500000e-01	1.95122623e-02	3.67663932e-04
1.42000000e-01	1.96213864e-02	3.67701049e-04
1.42500000e-01	1.92420577e-02	3.61917063e-04
1.43000000e-01	1.97423222e-02	3.68599382e-04
1.43500000e-01	1.97063153e-02	3.69909809e-04
1.44000000e-01	1.95413781e-02	3.65294258e-04
1.44500000e-01	1.95986239e-02	3.63577400e-04
1.45000000e-01	1.93664083e-02	3.61120479e-04
1.45500000e-01	1.92914870e-02	3.58324317e-04
1.46000000e-01	1.97124842e-02	3.65133108e-04
1.46500000e-01	1.94389690e-02	3.60912861e-04
1.47000000e-01	1.93473636e-02	3.58067330e-04
1.47500000e-01	1.92883685e-02	3.57218697e-04
1.48000000e-01	1.94298920e-02	3.56272007e-04
1.48500000e-01	1.96187068e-02	3.60709558e-04
1.49000000e-01	1.96007624e-02	3.57874749e-04
1.49500000e-01	1.92508540e-02	3.52727325e-04
1.50000000e-01	1.93333746e-02	3.52663779e-04
1.50500000e-01	1.93920012e-02	3.54047087e-04
1.51000000e-01	1.92644624e-02	3.50454061e-04
1.51500000e-01	1.95976652e-02	3.55290350e-04
1.52000000e-01	1.94486749e-02	3.50065912e-04
1.52500000e-01	1.95009497e-02	3.52536287e-04
1.53000000e-01	1.88717556e-02	3.41033891e-04
1.53500000e-01	1.90958341e-02	3.44548335e-04
1.54000000e-01	1.94362951e-02	3.50189642e-04
1.54500000e-01	1.95538028e-02	3.57772934e-04
1.55000000e-01	1.91831702e-02	3.58276096e-04
1.55500000e-01	1.91453221e-02	3.57890707e-04
1.56000000e-01	1.92328625e-02	3.62847738e-04
1.56500000e-01	1.93468647e-02	3.64535134e-04
1.57000000e-01	1.92703119e-02	3.62896630e-04
1.57500000e-01	1.92509172e-02	3.56672765e-04
1.58000000e-01	1.93265350e-02	3.51422978e-04
1.58500000e-01	1.91856205e-02	3.48519057e-04
1.59000000e-01	1.90736341e-02	3.44088874e-04
1.59500000e-01	1.92215817e-02	3.45043043e-04
1.60000000e-01	1.91603257e-02	3.45092179e-04
1.60500000e-01	1.90602648e-02	3.40357795e-04
1.61000000e-01	1.89633545e-02	3.40154099e-04
1.61500000e-01	1.93000324e-02	3.43112607e-04
1.62000000e-01	1.89500724e-02	3.36595062e-04
1.62500000e-01	1.92426886e-02	3.42164020e-04
1.63000000e-01	1.90023782e-02	3.35755481e-04
1.63500000e-01	1.91278988e-02	3.40578774e-04
1.64000000e-01	1.91927614e-02	3.37522121e-04
1.64500000e-01	1.90813209e-02	3.36154311e-04
1.65000000e-01	1.91521981e-02	3.36979207e-04
1.65500000e-01	1.93994795e-02	3.40045731e-04
1.66000000e-01	1.89525859e-02	3.31774067e-04
1.66500000e-01	1.89276254e-02	3.30789592e-04
1.67000000e-01	1.91338461e-02	3.34232336e-04
1.67500000e-01	1.88076939e-02	3.29801049e-04
1.68000000e-01	1.90956092e-02	3.32738261e-04
1.68500000e-01	1.90702383e-02	3.32167546e-04
1.69000000e-01	1.89809623e-02	3.28519471e-04
1.69500000e-01	1.88953787e-02	3.26967369e-04
1.70000000e-01	1.88284009e-02	3.26686848e-04
1.70500000e-01	1.87701494e-02	3.24811476e-04
1.71000000e-01	1.91263501e-02	3.31226374e-04
1.71500000e-01	1.89267290e-02	3.27825525e-04
1.72000000e-01	1.88858538e-02	3.25552597e-04
1.72500000e-01	1.88920022e-02	3.25022632e-04
1.73000000e-01	1.87110290e-02	3.21935671e-04
1.73500000e-01	1.89717733e-02	3.24268628e-04
1.74000000e-01	1.88818144e-02	3.22200769e-04
1.74500000e-01	1.87910181e-02	3.20823763e-04
1.75000000e-01	1.88553250e-02	3.20342557e-04
1.75500000e-01	1.88053731e-02	3.19281269e-04
1.76000000e-01	1.88477959e-02	3.19030593e-04
1.76500000e-01	1.88873981e-02	3.20339529e-04
1.77000000e-01	1.86843981e-02	3.15170568e-04
1.77500000e-01	1.88985067e-02	3.19229016e-04
1.78000000e-01	1.88112096e-02	3.17415501e-04
1.78500000e-01	1.86420497e-02	3.14565726e-04
1.79000000e-01	1.87591370e-02	3.18537578e-04
1.79500000e-01	1.89788806e-02	3.19419289e-04
1.80000000e-01	1.88355607e-02	3.18265395e-04
1.80500000e-01	1.88835273e-02	3.17914547e-04
1.81000000e-01	1.90743837e-02	3.20774150e-04
1.81500000e-01	1.86680016e-02	3.13614653e-04
1.82000000e-01	1.88835685e-02	3.16887348e-04
1.82500000e-01	1.86833876e-02	3.11918076e-04
1.83000000e-01	1.86151178e-02	3.11029199e-04
1.83500000e-01	1.85567743e-02	3.09310263e-04
1.84000000e-01	1.86648182e-02	3.10297649e-04
1.84500000e-01	1.88792441e-02	3.14274211e-04
1.85000000e-01	1.87910872e-02	3.12556496e-04
1.85500000e-01	1.86562750e-02	3.10787614e-04
1.86000000e-01	1.88775287e-02	3.13579018e-04
1.86500000e-01	1.84076264e-02	3.05130340e-04
1.87000000e-01	1.84377860e-02	3.04933189e-04
1.87500000e-01	1.85301498e-02	3.06371178e-04
1.88000000e-01	1.86936192e-02	3.07990000e-04
1.88500000e-01	1.84173783e-02	3.03158903e-04
1.89000000e-01	1.84722927e-02	3.02670402e-04
1.89500000e-01	1.85521001e-02	3.05810933e-04
1.90000000e-01	1.84657013e-02	3.04299321e-04
1.90500000e-01	1.85847880e-02	3.04722147e-04
1.91000000e-01	1.84909442e-02	3.02269486e-04
1.91500000e-01	1.85707594e-02	3.03281946e-04
1.92000000e-01	1.85357017e-02	3.01623633e-04
1.92500000e-01	1.87133656e-02	3.04633494e-04
1.93000000e-01	1.84586295e-02	3.01472312e-04
1.93500000e-01	1.83825572e-02	3.00250728e-04
1.94000000e-01	1.84675139e-02	3.00527692e-04
1.94500000e-01	1.85923047e-02	3.01194955e-04
1.95000000e-01	1.86691303e-02	3.03128546e-04
1.95500000e-01	1.85242096e-02	2.99675104e-04
1.96000000e-01	1.84482285e-02	2.97913156e-04
1.96500000e-01	1.85236690e-02	2.98932517e-04
1.97000000e-01	1.83508681e-02	2.96750106e-04
1.97500000e-01	1.84067629e-02	2.96564286e-04
1.98000000e-01	1.84086191e-02	2.96849492e-04
1.98500000e-01	1.85000964e-02	2.95609633e-04
1.99000000e-01	1.83001791e-02	2.94765801e-04
1.99500000e-01	1.83458333e-02	2.94108181e-04
2.00000000e-01	1.83824268e-02	2.95574447e-04
2.00500000e-01	1.84218840e-02	2.95120304e-04
2.01000000e-01	1.80759875e-02	2.90816928e-04
2.01500000e-01	1.83293467e-02	2.93651314e-04
2.02000000e-01	1.82120425e-02	2.90774854e-04
2.02500000e-01	1.81889155e-02	2.88733262e-04
2.03000000e-01	1.82151958e-02	2.89798332e-04
2.03500000e-01	1.80465593e-02	2.86802414e-04
2.04000000e-01	1.82651806e-02	2.89301822e-04
2.04500000e-01	1.84399630e-02	2.93070399e-04
2.05000000e-01	1.82566390e-02	2.88069499e-04
2.05500000e-01	1.81906136e-02	2.87134041e-04
2.06000000e-01	1.83073530e-02	2.88400008e-04
2.06500000e-01	1.83068550e-02	2.88789217e-04
2.07000000e-01	1.83252691e-02	2.87320893e-04
2.07500000e-01	1.81360021e-02	2.85215697e-04
2.08000000e-01	1.82524776e-02	2.87414234e-04
2.08500000e-01	1.81648799e-02	2.85066126e-04
2.09000000e-01	1.82407855e-02	2.86334009e-04
2.09500000e-01	1.79734333e-02	2.82144593e-04
2.10000000e-01	1.80017649e-02	2.83046716e-04
2.10500000e-01	1.80480033e-02	2.82477214e-04
2.11000000e-01	1.83890450e-02	2.85687261e-04
2.11500000e-01	1.81548894e-02	2.84366108e-04
2.12000000e-01	1.83280632e-02	2.84427524e-04
2.12500000e-01	1.80403051e-02	2.80569960e-04
2.13000000e-01	1.78727233e-02	2.78778672e-04
2.13500000e-01	1.81076258e-02	2.80933338e-04
2.14000000e-01	1.78854510e-02	2.78466558e-04
2.14500000e-01	1.82147284e-02	2.82035743e-04
2.15000000e-01	1.81122126e-02	2.81197153e-04
2.15500000e-01	1.80848043e-02	2.78901896e-04
2.16000000e-01	1.81476520e-02	2.80198859e-04
2.16500000e-01	1.78636383e-02	2.75619211e-04
2.17000000e-01	1.82788885e-02	2.85342742e-04
2.17500000e-01	1.80765118e-02	2.87085296e-04
2.18000000e-01	1.79255673e-02	2.85328725e-04
2.18500000e-01	1.82268000e-02	2.91202674e-04
2.19000000e-01	1.79979573e-02	2.90281699e-04
2.19500000e-01	1.80239713e-02	2.90802963e-04
2.20000000e-01	1.79214710e-02	2.92405826e-04
2.20500000e-01	1.79315641e-02	2.90899736e-04
2.21000000e-01	1.80809106e-02	2.95080171e-04
2.21500000e-01	1.79905857e-02	2.94011374e-04
2.22000000e-01	1.79958122e-02	2.93786591e-04
2.22500000e-01	1.78728433e-02	2.93476481e-04
2.23000000e-01	1.80175152e-02	2.97303953e-04
2.23500000e-01	1.77173431e-02	2.92076181e-04
2.24000000e-01	1.78759026e-02	2.95136757e-04
2.24500000e-01	1.82546525e-02	3.02276894e-04
2.25000000e-01	1.79903242e-02	2.98721951e-04
2.25500000e-01	1.81078613e-02	3.00453821e-04
2.26000000e-01	1.81134411e-02	3.02830850e-04
2.26500000e-01	1.78262773e-02	2.92449469e-04
2.27000000e-01	1.79234117e-02	2.91466908e-04
2.27500000e-01	1.78899876e-02	2.89058417e-04
2.28000000e-01	1.78892723e-02	2.87141782e-04
2.28500000e-01	1.78032328e-02	2.84257454e-04
2.29000000e-01	1.78297495e-02	2.83093725e-04
2.29500000e-01	1.80063889e-02	2.85233604e-04
2.30000000e-01	1.78203634e-02	2.80966527e-04
2.30500000e-01	1.77087949e-02	2.80101335e-04
2.31000000e-01	1.80371928e-02	2.82898026e-04
2.31500000e-01	1.79693660e-02	2.82014277e-04
2.32000000e-01	1.78235398e-02	2.78244667e-04
2.32500000e-01	1.78094716e-02	2.78533972e-04
2.33000000e-01	1.78952333e-02	2.77760314e-04
2.33500000e-01	1.80970642e-02	2.80888346e-04
2.34000000e-01	1.78487206e-02	2.76238314e-04
2.34500000e-01	1.79573190e-02	2.77565603e-04
2.35000000e-01	1.80579944e-02	2.80198219e-04
2.35500000e-01	1.77918540e-02	2.74311578e-04
2.36000000e-01	1.76386958e-02	2.71339521e-04
2.36500000e-01	1.79565485e-02	2.75763178e-04
2.37000000e-01	1.77401217e-02	2.72357348e-04
2.37500000e-01	1.77156240e-02	2.71354036e-04
2.38000000e-01	1.78216139e-02	2.71311840e-04
2.38500000e-01	1.77931487e-02	2.72209535e-04
2.39000000e-01	1.75661242e-02	2.67017625e-04
2.39500000e-01	1.76978526e-02	2.68729198e-04
2.40000000e-01	1.77912340e-02	2.69642386e-04
2.40500000e-01	1.75598942e-02	2.65864266e-04
2.41000000e-01	1.79284300e-02	2.70866495e-04
2.41500000e-01	1.78489003e-02	2.68499570e-04
2.42000000e-01	1.75855856e-02	2.65553297e-04
2.42500000e-01	1.78478645e-02	2.68516925e-04
2.43000000e-01	1.76278736e-02	2.63865443e-04
2.43500000e-01	1.77151832e-02	2.65774009e-04
2.44000000e-01	1.75814129e-02	2.63495799e-04
2.44500000e-01	1.76667015e-02	2.64066586e-04
2.45000000e-01	1.76960961e-02	2.63722604e-04
2.45500000e-01	1.73170095e-02	2.58459108e-04
2.46000000e-01	1.75809570e-02	2.61218260e-04
2.46500000e-01	1.75229896e-02	2.60083937e-04
2.47000000e-01	1.78433887e-02	2.64444371e-04
2.47500000e-01	1.78653486e-02	2.64927406e-04
2.48000000e-01	1.76253452e-02	2.61818531e-04
2.48500000e-01	1.74692035e-02	2.58439611e-04
2.49000000e-01	1.74246045e-02	2.58878729e-04
2.49500000e-01	1.75544548e-02	2.59498094e-04
2.50000000e-01	1.74339238e-02	2.57715097e-04
2.50500000e-01	1.75662757e-02	2.60576541e-04
2.51000000e-01	1.74209903e-02	2.56630163e-04
2.51500000e-01	1.75226654e-02	2.58533132e-04
2.52000000e-01	1.72878303e-02	2.54446178e-04
2.52500000e-01	1.74645051e-02	2.57098668e-04
2.53000000e-01	1.74858156e-02	2.57305899e-04
2.53500000e-01	1.77186018e-02	2.59652766e-04
2.54000000e-01	1.75330239e-02	2.57761571e-04
2.54500000e-01	1.74486662e-02	2.55860510e-04
2.55000000e-01	1.76260777e-02	2.57002691e-04
2.55500000e-01	1.73952489e-02	2.54525631e-04
2.56000000e-01	1.71239983e-02	2.49191513e-04
2.56500000e-01	1.74596634e-02	2.54816498e-04
2.57000000e-01	1.75371362e-02	2.55560727e-04
2.57500000e-01	1.74426891e-02	2.53690111e-04
2.58000000e-01	1.72929231e-02	2.51623560e-04
2.58500000e-01	1.71112458e-02	2.49274065e-04
2.59000000e-01	1.72576957e-02	2.50698811e-04
2.59500000e-01	1.73871782e-02	2.51883147e-04
2.60000000e-01	1.74205951e-02	2.51946652e-04
2.60500000e-01	1.74384010e-02	2.51174679e-04
2.61000000e-01	1.72928069e-02	2.48837546e-04
2.61500000e-01	1.73880834e-02	2.51727982e-04
2.62000000e-01	1.73032440e-02	2.49068974e-04
2.62500000e-01	1.72742019e-02	2.49507012e-04
2.63000000e-01	1.73935947e-02	2.49418113e-04
2.63500000e-01	1.72940398e-02	2.48843691e-04
2.64000000e-01	1.73166295e-02	2.48592930e-04
2.64500000e-01	1.71372703e-02	2.46129601e-04
2.65000000e-01	1.70947104e-02	2.44870473e-04
2.65500000e-01	1.72697561e-02	2.48051944e-04
2.66000000e-01	1.72177957e-02	2.46305737e-04
2.66500000e-01	1.73995171e-02	2.47853307e-04
2.67000000e-01	1.71426604e-02	2.43920808e-04
2.67500000e-01	1.72757806e-02	2.45890512e-04
2.68000000e-01	1.73071701e-02	2.46418926e-04
2.68500000e-01	1.73103435e-02	2.46257418e-04
2.69000000e-01	1.70881383e-02	2.42010561e-04
2.69500000e-01	1.70794754e-02	2.42189520e-04
2.70000000e-01	1.70709525e-02	2.41405785e-04
2.70500000e-01	1.71356106e-02	2.42318406e-04
2.71000000e-01	1.72323439e-02	2.43597941e-04
2.71500000e-01	1.73157905e-02	2.44114383e-04
2.72000000e-01	1.73010313e-02	2.42957463e-04
2.72500000e-01	1.72425724e-02	2.41933493e-04
2.73000000e-01	1.70535239e-02	2.39352105e-04
2.73500000e-01	1.71125660e-02	2.39867690e-04
2.74000000e-01	1.71006754e-02	2.40350460e-04
2.74500000e-01	1.71734208e-02	2.41468684e-04
2.75000000e-01	1.72682109e-02	2.42549761e-04
2.75500000e-01	1.72271396e-02	2.41718860e-04
2.76000000e-01	1.71813735e-02	2.40631736e-04
2.76500000e-01	1.72576189e-02	2.42130321e-04
2.77000000e-01	1.71971875e-02	2.40428574e-04
2.77500000e-01	1.71861668e-02	2.40121581e-04
2.78000000e-01	1.73858879e-02	2.41798694e-04
2.78500000e-01	1.70468237e-02	2.37454028e-04
2.79000000e-01	1.69273194e-02	2.36273352e-04
2.79500000e-01	1.69883713e-02	2.36480221e-04
2.80000000e-01	1.70233978e-02	2.35419550e-04
2.80500000e-01	1.70490521e-02	2.36859155e-04
2.81000000e-01	1.70308536e-02	2.36723032e-04
2.81500000e-01	1.70433182e-02	2.36143053e-04
2.82000000e-01	1.70997821e-02	2.37002332e-04
2.82500000e-01	1.70671717e-02	2.37221369e-04
2.83000000e-01	1.69809312e-02	2.35157029e-04
2.83500000e-01	1.69066551e-02	2.33224987e-04
2.84000000e-01	1.67561111e-02	2.31630544e-04
2.84500000e-01	1.68459270e-02	2.32553186e-04
2.85000000e-01	1.69728792e-02	2.33854503e-04
2.85500000e-01	1.69754278e-02	2.33511624e-04
2.86000000e-01	1.70758712e-02	2.35437885e-04
2.86500000e-01	1.70497152e-02	2.34142797e-04
2.87000000e-01	1.70731480e-02	2.36068428e-04
2.87500000e-01	1.70700091e-02	2.33497828e-04
2.88000000e-01	1.68810324e-02	2.30418077e-04
2.88500000e-01	1.71164660e-02	2.33465948e-04
2.89000000e-01	1.70635779e-02	2.33110501e-04
2.89500000e-01	1.68005733e-02	2.29874975e-04
2.90000000e-01	1.68251491e-02	2.30104250e-04
2.90500000e-01	1.68192962e-02	2.29793193e-04
2.91000000e-01	1.69950233e-02	2.30947689e-04
2.91500000e-01	1.69858728e-02	2.30490904e-04
2.92000000e-01	1.67759502e-02	2.28751268e-04
2.92500000e-01	1.69038175e-02	2.28681306e-04
2.93000000e-01	1.69085736e-02	2.29095788e-04
2.93500000e-01	1.68200217e-02	2.29213006e-04
2.94000000e-01	1.67867742e-02	2.26961120e-04
2.94500000e-01	1.65993062e-02	2.25634479e-04
2.95000000e-01	1.70278735e-02	2.30187580e-04
2.95500000e-01	1.68641660e-02	2.28209530e-04
2.96000000e-01	1.68206185e-02	2.27242671e-04
2.96500000e-01	1.66752191e-02	2.25500414e-04
2.97000000e-01	1.69238755e-02	2.28834360e-04
2.97500000e-01	1.68486667e-02	2.25872888e-04
2.98000000e-01	1.69205194e-02	2.27408658e-04
2.98500000e-01	1.68690706e-02	2.26916480e-04
2.99000000e-01	1.68551100e-02	2.26623466e-04
2.99500000e-01	1.66371719e-02	2.24393999e-04
3.00000000e-01	1.67640478e-02	2.24791133e-04
3.00500000e-01	1.68831086e-02	2.26685986e-04
3.01000000e-01	1.67474645e-02	2.24121795e-04
3.01500000e-01	1.66256479e-02	2.23238452e-04
3.02000000e-01	1.68914982e-02	2.24746292e-04
3.02500000e-01	1.67191468e-02	2.24720097e-04
3.03000000e-01	1.68100843e-02	2.25089148e-04
3.03500000e-01	1.67150917e-02	2.21838157e-04
3.04000000e-01	1.67942027e-02	2.24465372e-04
3.04500000e-01	1.67861519e-02	2.23774727e-04
3.05000000e-01	1.68140821e-02	2.23687037e-04
3.05500000e-01	1.69180481e-02	2.25228487e-04
3.06000000e-01	1.65734070e-02	2.18509844e-04
3.06500000e-01	1.65146926e-02	2.19613554e-04
3.07000000e-01	1.66312874e-02	2.19807023e-04
3.07500000e-01	1.66300605e-02	2.20601285e-04
3.08000000e-01	1.66448929e-02	2.20767755e-04
3.08500000e-01	1.68639638e-02	2.23302889e-04
3.09000000e-01	1.67177101e-02	2.20782657e-04
3.09500000e-01	1.65680396e-02	2.19903537e-04
3.10000000e-01	1.66508948e-02	2.20327908e-04
3.10500000e-01	1.66708528e-02	2.19002901e-04
3.11000000e-01	1.66923636e-02	2.19698545e-04
3.11500000e-01	1.65853215e-02	2.18760050e-04
3.12000000e-01	1.63959461e-02	2.16111102e-04
3.12500000e-01	1.64158342e-02	2.16240825e-04
3.13000000e-01	1.67234046e-02	2.20164401e-04
3.13500000e-01	1.65633274e-02	2.18306585e-04
3.14000000e-01	1.66924839e-02	2.18485741e-04
3.14500000e-01	1.66505938e-02	2.17747569e-04
3.15000000e-01	1.65381078e-02	2.16536094e-04
3.15500000e-01	1.66180810e-02	2.17024828e-04
3.16000000e-01	1.65426731e-02	2.16333004e-04
3.16500000e-01	1.64732366e-02	2.15626051e-04
3.17000000e-01	1.65863230e-02	2.16440279e-04
3.17500000e-01	1.64533697e-02	2.14680647e-04
3.18000000e-01	1.66114749e-02	2.16569914e-04
3.18500000e-01	1.63377245e-02	2.13412025e-04
3.19000000e-01	1.67562492e-02	2.17289310e-04
3.19500000e-01	1.61865457e-02	2.10952807e-04
3.20000000e-01	1.64681399e-02	2.14740865e-04
3.20500000e-01	1.63738256e-02	2.13222169e-04
3.21000000e-01	1.63626422e-02	2.13138832e-04
3.21500000e-01	1.64156674e-02	2.13185857e-04
3.22000000e-01	1.63383383e-02	2.12262639e-04
3.22500000e-01	1.63921720e-02	2.12410527e-04
3.23000000e-01	1.62872245e-02	2.11183538e-04
3.23500000e-01	1.63090329e-02	2.10694967e-04
3.24000000e-01	1.64281227e-02	2.11302933e-04
3.24500000e-01	1.63252646e-02	2.12137863e-04
3.25000000e-01	1.63916256e-02	2.11604368e-04
3.25500000e-01	1.61769067e-02	2.09060295e-04
3.26000000e-01	1.62202772e-02	2.08821901e-04
3.26500000e-01	1.61696080e-02	2.07980120e-04
3.27000000e-01	1.62527755e-02	2.09851091e-04
3.27500000e-01	1.62731008e-02	2.09354217e-04
3.28000000e-01	1.62266400e-02	2.08773704e-04
3.28500000e-01	1.63210058e-02	2.09724132e-04
3.29000000e-01	1.64269696e-02	2.09910409e-04
3.29500000e-01	1.62572437e-02	2.08943226e-04
3.30000000e-01	1.62667506e-02	2.08099406e-04
3.30500000e-01	1.62455071e-02	2.08654908e-04
3.31000000e-01	1.63471954e-02	2.08624411e-04
3.31500000e-01	1.62652850e-02	2.08460309e-04
3.32000000e-01	1.62057132e-02	2.07318873e-04
3.32500000e-01	1.61472050e-02	2.06119028e-04
3.33000000e-01	1.60359779e-02	2.05226347e-04
3.33500000e-01	1.60410334e-02	2.04017374e-04
3.34000000e-01	1.62596449e-02	2.07170695e-04
3.34500000e-01	1.61458496e-02	2.05584715e-04
3.35000000e-01	1.62464658e-02	2.06453500e-04
3.35500000e-01	1.61209725e-02	2.05326363e-04
3.36000000e-01	1.59851887e-02	2.03211597e-04
3.36500000e-01	1.59726039e-02	2.03537126e-04
3.37000000e-01	1.60055856e-02	2.03647100e-04
3.37500000e-01	1.60632761e-02	2.03909148e-04
3.38000000e-01	1.61805883e-02	2.05122343e-04
3.38500000e-01	1.60671107e-02	2.04305448e-04
3.39000000e-01	1.60562566e-02	2.03960192e-04
3.39500000e-01	1.60442368e-02	2.02813773e-04
3.40000000e-01	1.61913325e-02	2.04569808e-04
3.40500000e-01	1.62559543e-02	2.05880849e-04
3.41000000e-01	1.60077689e-02	2.02208431e-04
3.41500000e-01	1.60056802e-02	2.02414490e-04
3.42000000e-01	1.59420297e-02	2.00740370e-04
3.42500000e-01	1.60936844e-02	2.03089894e-04
3.43000000e-01	1.60082222e-02	2.01689800e-04
3.43500000e-01	1.60448602e-02	2.01123098e-04
3.44000000e-01	1.59271975e-02	2.01197441e-04
3.44500000e-01	1.60750603e-02	2.01866832e-04
3.45000000e-01	1.58361301e-02	1.99354169e-04
3.45500000e-01	1.59845897e-02	2.00479969e-04
3.46000000e-01	1.60480735e-02	2.01811693e-04
3.46500000e-01	1.60542230e-02	2.01225905e-04
3.47000000e-01	1.59282720e-02	1.99240511e-04
3.47500000e-01	1.59756407e-02	1.99594003e-04
3.48000000e-01	1.60682067e-02	2.00010275e-04
3.48500000e-01	1.59303029e-02	1.99561207e-04
3.49000000e-01	1.60427641e-02	1.99981466e-04
3.49500000e-01	1.60346901e-02	2.00065180e-04
3.50000000e-01	1.59154765e-02	1.62082101e-04
3.51000000e-01	1.60091288e-02	1.40831080e-04
3.52000000e-01	1.59769266e-02	1.40678472e-04
3.53000000e-01	1.59359037e-02	1.39318475e-04
3.54000000e-01	1.58487774e-02	1.38901678e-04
3.55000000e-01	1.57282687e-02	1.37607073e-04
3.56000000e-01	1.56290237e-02	1.38165473e-04
3.57000000e-01	1.58537735e-02	1.41833170e-04
3.58000000e-01	1.57575975e-02	1.42215514e-04
3.59000000e-01	1.56700004e-02	1.42535932e-04
3.60000000e-01	1.57158582e-02	1.43805256e-04
3.61000000e-01	1.58247574e-02	1.45270998e-04
3.62000000e-01	1.56749787e-02	1.45157178e-04
3.63000000e-01	1.56619097e-02	1.45202590e-04
3.64000000e-01	1.57089422e-02	1.45954551e-04
3.65000000e-01	1.56064935e-02	1.45641765e-04
3.66000000e-01	1.55171224e-02	1.43057883e-04
3.67000000e-01	1.56797761e-02	1.42694581e-04
3.68000000e-01	1.55929770e-02	1.40968069e-04
3.69000000e-01	1.56174537e-02	1.40484458e-04
3.70000000e-01	1.57184433e-02	1.39980984e-04
3.71000000e-01	1.55839452e-02	1.41281578e-04
3.72000000e-01	1.56356965e-02	1.42745932e-04
3.73000000e-01	1.56484959e-02	1.43024966e-04
3.74000000e-01	1.56109768e-02	1.42826049e-04
3.75000000e-01	1.55504708e-02	1.42057131e-04
3.76000000e-01	1.55754218e-02	1.42272511e-04
3.77000000e-01	1.56674546e-02	1.42905079e-04
3.78000000e-01	1.56115126e-02	1.42663681e-04
3.79000000e-01	1.53927960e-02	1.40933123e-04
3.80000000e-01	1.54585639e-02	1.41197834e-04
3.81000000e-01	1.55647359e-02	1.42157564e-04
3.82000000e-01	1.53438385e-02	1.40247713e-04
3.83000000e-01	1.53436763e-02	1.40120312e-04
3.84000000e-01	1.54084058e-02	1.40735468e-04
3.85000000e-01	1.53182693e-02	1.40294876e-04
3.86000000e-01	1.54357760e-02	1.40793062e-04
3.87000000e-01	1.52626372e-02	1.39478751e-04
3.88000000e-01	1.52911760e-02	1.39545999e-04
3.89000000e-01	1.52127780e-02	1.38776243e-04
3.90000000e-01	1.52443399e-02	1.39251594e-04
3.91000000e-01	1.52170008e-02	1.38413590e-04
3.92000000e-01	1.53766407e-02	1.39887792e-04
3.93000000e-01	1.52935096e-02	1.39380457e-04
3.94000000e-01	1.51213006e-02	1.37532054e-04
3.95000000e-01	1.53644535e-02	1.39834727e-04
3.96000000e-01	1.51673938e-02	1.37959108e-04
3.97000000e-01	1.53351183e-02	1.39768497e-04
3.98000000e-01	1.52247945e-02	1.38470807e-04
3.99000000e-01	1.52274434e-02	1.38500203e-04
4.00000000e-01	1.51560816e-02	1.38001910e-04
4.01000000e-01	1.51221247e-02	1.37644503e-04
4.02000000e-01	1.51888866e-02	1.38404670e-04
4.03000000e-01	1.52444747e-02	1.38820689e-04
4.04000000e-01	1.50425512e-02	1.36755877e-04
4.05000000e-01	1.51988457e-02	1.38524430e-04
4.06000000e-01	1.50965383e-02	1.37560708e-04
4.07000000e-01	1.49982258e-02	1.36144471e-04
4.08000000e-01	1.50799310e-02	1.37141091e-04
4.09000000e-01	1.50304940e-02	1.36568635e-04
4.10000000e-01	1.50454667e-02	1.36941066e-04
4.11000000e-01	1.51377230e-02	1.37503177e-04
4.12000000e-01	1.51439549e-02	1.37817836e-04
4.13000000e-01	1.49797926e-02	1.35969315e-04
4.14000000e-01	1.48299738e-02	1.34920610e-04
4.15000000e-01	1.49206463e-02	1.35330855e-04
4.16000000e-01	1.49916279e-02	1.36227752e-04
4.17000000e-01	1.49686808e-02	1.35613830e-04
4.18000000e-01	1.49488957e-02	1.36747417e-04
4.19000000e-01	1.50485606e-02	1.39441925e-04
4.20000000e-01	1.50436414e-02	1.40286931e-04
4.21000000e-01	1.49775329e-02	1.39847928e-04
4.22000000e-01	1.51171683e-02	1.42251795e-04
4.23000000e-01	1.50900226e-02	1.41929895e-04
4.24000000e-01	1.49880155e-02	1.41643439e-04
4.25000000e-01	1.51542028e-02	1.43292167e-04
4.26000000e-01	1.51743129e-02	1.43472204e-04
4.27000000e-01	1.49222816e-02	1.41366166e-04
4.28000000e-01	1.50855745e-02	1.42630060e-04
4.29000000e-01	1.50716846e-02	1.43340277e-04
4.30000000e-01	1.50028092e-02	1.41977388e-04
4.31000000e-01	1.49590850e-02	1.41737537e-04
4.32000000e-01	1.49874138e-02	1.42340238e-04
4.33000000e-01	1.48541786e-02	1.41432080e-04
4.34000000e-01	1.48369480e-02	1.41274446e-04
4.35000000e-01	1.48836374e-02	1.41771809e-04
4.36000000e-01	1.48868628e-02	1.41990689e-04
4.37000000e-01	1.48936639e-02	1.42209599e-04
4.38000000e-01	1.47983608e-02	1.41419956e-04
4.39000000e-01	1.49134972e-02	1.43109293e-04
4.40000000e-01	1.49540862e-02	1.43617931e-04
4.41000000e-01	1.48432446e-02	1.42492247e-04
4.42000000e-01	1.47623694e-02	1.42037201e-04
4.43000000e-01	1.48598199e-02	1.42950252e-04
4.44000000e-01	1.48470138e-02	1.43053322e-04
4.45000000e-01	1.47315730e-02	1.42301276e-04
4.46000000e-01	1.48163309e-02	1.42932823e-04
4.47000000e-01	1.47640609e-02	1.42565372e-04
4.48000000e-01	1.46129060e-02	1.41289438e-04
4.49000000e-01	1.47710746e-02	1.43387966e-04
4.50000000e-01	1.47668529e-02	1.43584384e-04
4.51000000e-01	1.47155816e-02	1.42986059e-04
4.52000000e-01	1.48093175e-02	1.43975415e-04
4.53000000e-01	1.48279346e-02	1.44095486e-04
4.54000000e-01	1.47042493e-02	1.42828110e-04
4.55000000e-01	1.48267707e-02	1.44648249e-04
4.56000000e-01	1.48142730e-02	1.44229357e-04
4.57000000e-01	1.46602299e-02	1.42975997e-04
4.58000000e-01	1.44815066e-02	1.42066518e-04
4.59000000e-01	1.46840598e-02	1.43831043e-04
4.60000000e-01	1.47241944e-02	1.43936987e-04
4.61000000e-01	1.46132931e-02	1.43168390e-04
4.62000000e-01	1.46653247e-02	1.44104171e-04
4.63000000e-01	1.46103554e-02	1.43415136e-04
4.64000000e-01	1.45800727e-02	1.43602733e-04
4.65000000e-01	1.45489876e-02	1.43387069e-04
4.66000000e-01	1.46036861e-02	1.43733676e-04
4.67000000e-01	1.45483801e-02	1.43291445e-04
4.68000000e-01	1.43579035e-02	1.41623239e-04
4.69000000e-01	1.44980960e-02	1.42879437e-04
4.70000000e-01	1.44498106e-02	1.42874840e-04
4.71000000e-01	1.44411272e-02	1.42883528e-04
4.72000000e-01	1.46811885e-02	1.44401761e-04
4.73000000e-01	1.44959298e-02	1.42786329e-04
4.74000000e-01	1.43936915e-02	1.41889754e-04
4.75000000e-01	1.44880368e-02	1.42507853e-04
4.76000000e-01	1.46190278e-02	1.43351586e-04
4.77000000e-01	1.45725316e-02	1.43125925e-04
4.78000000e-01	1.45319991e-02	1.43612225e-04
4.79000000e-01	1.45089030e-02	1.42641615e-04
4.80000000e-01	1.44649205e-02	1.42920957e-04
4.81000000e-01	1.46307684e-02	1.44291571e-04
4.82000000e-01	1.43653048e-02	1.41958082e-04
4.83000000e-01	1.43899697e-02	1.42270958e-04
4.84000000e-01	1.42818193e-02	1.41635293e-04
4.85000000e-01	1.44834759e-02	1.43358455e-04
4.86000000e-01	1.43552349e-02	1.42131182e-04
4.87000000e-01	1.43643453e-02	1.42201757e-04
4.88000000e-01	1.44330973e-02	1.43045664e-04
4.89000000e-01	1.44100513e-02	1.42738926e-04
4.90000000e-01	1.44493778e-02	1.43448046e-04
4.91000000e-01	1.43161030e-02	1.42086942e-04
4.92000000e-01	1.43665020e-02	1.42644834e-04
4.93000000e-01	1.42545062e-02	1.41962760e-04
4.94000000e-01	1.44130946e-02	1.43000758e-04
4.95000000e-01	1.44811060e-02	1.44835276e-04
4.96000000e-01	1.43072054e-02	1.47428379e-04
4.97000000e-01	1.42260872e-02	1.49886294e-04
4.98000000e-01	1.42833808e-02	1.51682542e-04
4.99000000e-01	1.43942646e-02	1.54934352e-04
5.00000000e-01	1.43219600e-02	1.55896001e-04
5.01000000e-01	1.41980104e-02	1.55926534e-04
5.02000000e-01	1.42540368e-02	1.58538143e-04
5.03000000e-01	1.43469044e-02	1.60957606e-04
5.04000000e-01	1.41828747e-02	1.60252395e-04
5.05000000e-01	1.44562661e-02	1.60560517e-04
5.06000000e-01	1.43708389e-02	1.55971286e-04
5.07000000e-01	1.42734105e-02	1.53671026e-04
5.08000000e-01	1.43554356e-02	1.53460922e-04
5.09000000e-01	1.41237568e-02	1.50856479e-04
5.10000000e-01	1.42338000e-02	1.51536642e-04
5.11000000e-01	1.42416989e-02	1.51194423e-04
5.12000000e-01	1.42486004e-02	1.50747329e-04
5.13000000e-01	1.42679443e-02	1.50954696e-04
5.14000000e-01	1.42707345e-02	1.50356759e-04
5.15000000e-01	1.42650556e-02	1.49774170e-04
5.16000000e-01	1.40863514e-02	1.47820520e-04
5.17000000e-01	1.41533090e-02	1.48389996e-04
5.18000000e-01	1.42228072e-02	1.48911483e-04
5.19000000e-01	1.41536529e-02	1.47486610e-04
5.20000000e-01	1.41056801e-02	1.46339676e-04
5.21000000e-01	1.40989399e-02	1.46908805e-04
5.22000000e-01	1.40896049e-02	1.46435731e-04
5.23000000e-01	1.41179651e-02	1.46974555e-04
5.24000000e-01	1.42376794e-02	1.47231250e-04
5.25000000e-01	1.42285967e-02	1.46901632e-04
5.26000000e-01	1.41753019e-02	1.46889376e-04
5.27000000e-01	1.40287240e-02	1.45651421e-04
5.28000000e-01	1.39761375e-02	1.44974082e-04
5.29000000e-01	1.40906962e-02	1.46156547e-04
5.30000000e-01	1.40151625e-02	1.45256802e-04
5.31000000e-01	1.40069384e-02	1.45586356e-04
5.32000000e-01	1.39813992e-02	1.45651404e-04
5.33000000e-01	1.41673425e-02	1.46932766e-04
5.34000000e-01	1.41261744e-02	1.46685962e-04
5.35000000e-01	1.42060416e-02	1.47180461e-04
5.36000000e-01	1.38848396e-02	1.44074160e-04
5.37000000e-01	1.38760812e-02	1.44478013e-04
5.38000000e-01	1.40803670e-02	1.45977786e-04
5.39000000e-01	1.39814208e-02	1.45129745e-04
5.40000000e-01	1.40114870e-02	1.45737269e-04
5.41000000e-01	1.38574588e-02	1.44428096e-04
5.42000000e-01	1.39042263e-02	1.44054404e-04
5.43000000e-01	1.39445004e-02	1.44736499e-04
5.44000000e-01	1.37711360e-02	1.42843821e-04
5.45000000e-01	1.38136450e-02	1.43524616e-04
5.46000000e-01	1.38552247e-02	1.43969212e-04
5.47000000e-01	1.39188822e-02	1.44742029e-04
5.48000000e-01	1.38612366e-02	1.43903861e-04
5.49000000e-01	1.37585221e-02	1.42414118e-04
5.50000000e-01	1.39202654e-02	1.44507045e-04
5.51000000e-01	1.38644645e-02	1.43451404e-04
5.52000000e-01	1.37398690e-02	1.42515008e-04
5.53000000e-01	1.37998063e-02	1.42593159e-04
5.54000000e-01	1.37705172e-02	1.42051383e-04
5.55000000e-01	1.37911140e-02	1.42383548e-04
5.56000000e-01	1.36836799e-02	1.40955459e-04
5.57000000e-01	1.37339003e-02	1.41941071e-04
5.58000000e-01	1.38502189e-02	1.42704841e-04
5.59000000e-01	1.36954985e-02	1.41335784e-04
5.60000000e-01	1.38185547e-02	1.42903456e-04
5.61000000e-01	1.37494262e-02	1.41477890e-04
5.62000000e-01	1.38100253e-02	1.42411829e-04
5.63000000e-01	1.38802343e-02	1.43451347e-04
5.64000000e-01	1.37734798e-02	1.42510356e-04
5.65000000e-01	1.34408708e-02	1.39083578e-04
5.66000000e-01	1.36434348e-02	1.40928725e-04
5.67000000e-01	1.36953908e-02	1.41696485e-04
5.68000000e-01	1.35850258e-02	1.40260765e-04
5.69000000e-01	1.36013620e-02	1.40357026e-04
5.70000000e-01	1.35635182e-02	1.40041520e-04
5.71000000e-01	1.37294056e-02	1.41643316e-04
5.72000000e-01	1.35538013e-02	1.39924728e-04
5.73000000e-01	1.35825447e-02	1.40543454e-04
5.74000000e-01	1.36618020e-02	1.40996645e-04
5.75000000e-01	1.34658075e-02	1.39269087e-04
5.76000000e-01	1.35332226e-02	1.40274964e-04
5.77000000e-01	1.34987892e-02	1.40032437e-04
5.78000000e-01	1.35598739e-02	1.40283185e-04
5.79000000e-01	1.34015361e-02	1.39137999e-04
5.80000000e-01	1.35925413e-02	1.40812763e-04
5.81000000e-01	1.35130211e-02	1.39918315e-04
5.82000000e-01	1.35317860e-02	1.40360084e-04
5.83000000e-01	1.35778852e-02	1.40744321e-04
5.84000000e-01	1.34961650e-02	1.39916795e-04
5.85000000e-01	1.33982910e-02	1.39080877e-04
5.86000000e-01	1.33991600e-02	1.38975853e-04
5.87000000e-01	1.34219465e-02	1.39193413e-04
5.88000000e-01	1.32889312e-02	1.38086877e-04
5.89000000e-01	1.34496993e-02	1.39289301e-04
5.90000000e-01	1.33647858e-02	1.38509532e-04
5.91000000e-01	1.35156637e-02	1.40366878e-04
5.92000000e-01	1.33399666e-02	1.38455149e-04
5.93000000e-01	1.33274456e-02	1.39000844e-04
5.94000000e-01	1.32451093e-02	1.37939668e-04
5.95000000e-01	1.32723577e-02	1.37741017e-04
5.96000000e-01	1.33711229e-02	1.38832190e-04
5.97000000e-01	1.33687321e-02	1.39261599e-04
5.98000000e-01	1.34378694e-02	1.40058847e-04
5.99000000e-01	1.33720331e-02	1.39229570e-04
6.00000000e-01	1.33399980e-02	1.39342077e-04
6.01000000e-01	1.34028626e-02	1.39142668e-04
6.02000000e-01	1.32154347e-02	1.37344715e-04
6.03000000e-01	1.32838074e-02	1.38109644e-04
6.04000000e-01	1.32811633e-02	1.38196861e-04
6.05000000e-01	1.31725655e-02	1.37156749e-04
6.06000000e-01	1.34761587e-02	1.40239812e-04
6.07000000e-01	1.33493052e-02	1.39030370e-04
6.08000000e-01	1.32885705e-02	1.38316729e-04
6.09000000e-01	1.31919256e-02	1.37131256e-04
6.10000000e-01	1.31725909e-02	1.37517865e-04
6.11000000e-01	1.32845940e-02	1.38422956e-04
6.12000000e-01	1.32478147e-02	1.38268411e-04
6.13000000e-01	1.34339194e-02	1.40014443e-04
6.14000000e-01	1.31698444e-02	1.37672456e-04
6.15000000e-01	1.32539750e-02	1.38618833e-04
6.16000000e-01	1.30457969e-02	1.36252730e-04
6.17000000e-01	1.32195125e-02	1.38017015e-04
6.18000000e-01	1.33231465e-02	1.38830144e-04
6.19000000e-01	1.31080965e-02	1.36259086e-04
6.20000000e-01	1.31902559e-02	1.37831309e-04
6.21000000e-01	1.31355087e-02	1.36939439e-04
6.22000000e-01	1.31903088e-02	1.37557490e-04
6.23000000e-01	1.30946910e-02	1.36033096e-04
6.24000000e-01	1.30632447e-02	1.35308182e-04
6.25000000e-01	1.29874108e-02	1.34996226e-04
6.26000000e-01	1.30246290e-02	1.35084253e-04
6.27000000e-01	1.29779432e-02	1.34636067e-04
6.28000000e-01	1.32006199e-02	1.36589895e-04
6.29000000e-01	1.30590228e-02	1.35598197e-04
6.30000000e-01	1.30148428e-02	1.34989116e-04
6.31000000e-01	1.30743634e-02	1.35914673e-04
6.32000000e-01	1.29633245e-02	1.34899564e-04
6.33000000e-01	1.32016514e-02	1.36142458e-04
6.34000000e-01	1.31746770e-02	1.39593024e-04
6.35000000e-01	1.29860391e-02	1.42516573e-04
6.36000000e-01	1.30980886e-02	1.45793493e-04
6.37000000e-01	1.31503892e-02	1.48990670e-04
6.38000000e-01	1.31313327e-02	1.50044800e-04
6.39000000e-01	1.32695979e-02	1.54058515e-04
6.40000000e-01	1.31072936e-02	1.53928546e-04
6.41000000e-01	1.30898427e-02	1.55292015e-04
6.42000000e-01	1.30564577e-02	1.57042542e-04
6.43000000e-01	1.30266322e-02	1.56224175e-04
6.44000000e-01	1.31389002e-02	1.51944454e-04
6.45000000e-01	1.30138071e-02	1.48445761e-04
6.46000000e-01	1.30805716e-02	1.47722873e-04
6.47000000e-01	1.31630050e-02	1.47888008e-04
6.48000000e-01	1.29689265e-02	1.44740178e-04
6.49000000e-01	1.30599559e-02	1.44543344e-04
6.50000000e-01	1.31443888e-02	1.44874180e-04
6.51000000e-01	1.31338533e-02	1.44157906e-04
6.52000000e-01	1.30798304e-02	1.42963474e-04
6.53000000e-01	1.30617749e-02	1.42533841e-04
6.54000000e-01	1.30632084e-02	1.41746541e-04
6.55000000e-01	1.29699164e-02	1.40579498e-04
6.56000000e-01	1.30136761e-02	1.41011421e-04
6.57000000e-01	1.29729195e-02	1.40835448e-04
6.58000000e-01	1.30080846e-02	1.40357276e-04
6.59000000e-01	1.30590455e-02	1.40904829e-04
6.60000000e-01	1.29132965e-02	1.39783910e-04
6.61000000e-01	1.30469386e-02	1.41126102e-04
6.62000000e-01	1.29919791e-02	1.40048395e-04
6.63000000e-01	1.29681234e-02	1.39777206e-04
6.64000000e-01	1.29628786e-02	1.39449687e-04
6.65000000e-01	1.29121454e-02	1.39455452e-04
6.66000000e-01	1.29780031e-02	1.40172204e-04
6.67000000e-01	1.28905947e-02	1.38565284e-04
6.68000000e-01	1.29138684e-02	1.38899947e-04
6.69000000e-01	1.28987846e-02	1.38555857e-04
6.70000000e-01	1.30393912e-02	1.40098109e-04
6.71000000e-01	1.28574144e-02	1.38366950e-04
6.72000000e-01	1.28319298e-02	1.37936887e-04
6.73000000e-01	1.29314433e-02	1.38670728e-04
6.74000000e-01	1.28939486e-02	1.38429969e-04
6.75000000e-01	1.29017893e-02	1.38550844e-04
6.76000000e-01	1.28895655e-02	1.38815009e-04
6.77000000e-01	1.28365720e-02	1.37601957e-04
6.78000000e-01	1.28412432e-02	1.37652312e-04
6.79000000e-01	1.27573866e-02	1.37038312e-04
6.80000000e-01	1.29529714e-02	1.38309043e-04
6.81000000e-01	1.28994310e-02	1.38692255e-04
6.82000000e-01	1.29956223e-02	1.39187723e-04
6.83000000e-01	1.27888898e-02	1.36834149e-04
6.84000000e-01	1.26942838e-02	1.36588265e-04
6.85000000e-01	1.29015912e-02	1.37819829e-04
6.86000000e-01	1.27852443e-02	1.36938722e-04
6.87000000e-01	1.27360107e-02	1.36407416e-04
6.88000000e-01	1.27048371e-02	1.36396185e-04
6.89000000e-01	1.28820855e-02	1.37831029e-04
6.90000000e-01	1.27592060e-02	1.36562015e-04
6.91000000e-01	1.28160396e-02	1.36705295e-04
6.92000000e-01	1.26705832e-02	1.35929770e-04
6.93000000e-01	1.27501841e-02	1.36196734e-04
6.94000000e-01	1.26717402e-02	1.36027375e-04
6.95000000e-01	1.27897654e-02	1.37084629e-04
6.96000000e-01	1.26228845e-02	1.35555875e-04
6.97000000e-01	1.26425954e-02	1.35695197e-04
6.98000000e-01	1.26135593e-02	1.35301447e-04
6.99000000e-01	1.26906247e-02	1.35552185e-04
7.00000000e-01	1.26317835e-02	1.35466397e-04
7.01000000e-01	1.27118778e-02	1.36195046e-04
7.02000000e-01	1.27780693e-02	1.36254464e-04
7.03000000e-01	1.25431753e-02	1.34174807e-04
7.04000000e-01	1.25566985e-02	1.34581997e-04
7.05000000e-01	1.24928146e-02	1.34185347e-04
7.06000000e-01	1.24757572e-02	1.34095195e-04
7.07000000e-01	1.25686063e-02	1.34757419e-04
7.08000000e-01	1.26547314e-02	1.34337274e-04
7.09000000e-01	1.25051453e-02	1.34095450e-04
7.10000000e-01	1.25428341e-02	1.34169445e-04
7.11000000e-01	1.24929191e-02	1.33826614e-04
7.12000000e-01	1.24486895e-02	1.33153782e-04
7.13000000e-01	1.25566311e-02	1.34402838e-04
7.14000000e-01	1.22845868e-02	1.32181763e-04
7.15000000e-01	1.24487672e-02	1.33141006e-04
7.16000000e-01	1.24794598e-02	1.33922844e-04
7.17000000e-01	1.23416796e-02	1.32588468e-04
7.18000000e-01	1.24415480e-02	1.33227684e-04
7.19000000e-01	1.23956258e-02	1.32889658e-04
7.20000000e-01	1.24678148e-02	1.33192921e-04
7.21000000e-01	1.24080357e-02	1.32589320e-04
7.22000000e-01	1.23245489e-02	1.32287955e-04
7.23000000e-01	1.24502835e-02	1.33489741e-04
7.24000000e-01	1.23250208e-02	1.32618914e-04
7.25000000e-01	1.24179545e-02	1.33057022e-04
7.26000000e-01	1.24143462e-02	1.33247809e-04
7.27000000e-01	1.23906460e-02	1.32849233e-04
7.28000000e-01	1.23414643e-02	1.32300905e-04
7.29000000e-01	1.23227347e-02	1.32460500e-04
7.30000000e-01	1.22786881e-02	1.31529866e-04
7.31000000e-01	1.23210882e-02	1.32201427e-04
7.32000000e-01	1.22861391e-02	1.32123408e-04
7.33000000e-01	1.22142703e-02	1.31017541e-04
7.34000000e-01	1.21963326e-02	1.30960044e-04
7.35000000e-01	1.21678167e-02	1.30278118e-04
7.36000000e-01	1.23138147e-02	1.31658621e-04
7.37000000e-01	1.21644668e-02	1.29941015e-04
7.38000000e-01	1.21793725e-02	1.29389937e-04
7.39000000e-01	1.21393337e-02	1.29065568e-04
7.40000000e-01	1.20856457e-02	1.28594005e-04
7.41000000e-01	1.21708466e-02	1.29466542e-04
7.42000000e-01	1.20789531e-02	1.28796117e-04
7.43000000e-01	1.22761083e-02	1.30145478e-04
7.44000000e-01	1.22515772e-02	1.30176302e-04
7.45000000e-01	1.21346449e-02	1.28858499e-04
7.46000000e-01	1.22556627e-02	1.30055760e-04
7.47000000e-01	1.21314834e-02	1.29327486e-04
7.48000000e-01	1.21419889e-02	1.29106430e-04
7.49000000e-01	1.20802842e-02	1.28299633e-04
7.50000000e-01	1.21516121e-02	1.29244022e-04
7.51000000e-01	1.20993905e-02	1.28367534e-04
7.52000000e-01	1.21067377e-02	1.28762710e-04
7.53000000e-01	1.21078120e-02	1.28364642e-04
7.54000000e-01	1.20104336e-02	1.27921406e-04
7.55000000e-01	1.20747303e-02	1.28446905e-04
7.56000000e-01	1.22207611e-02	1.29905692e-04
7.57000000e-01	1.20807711e-02	1.28327181e-04
7.58000000e-01	1.20169347e-02	1.27360171e-04
7.59000000e-01	1.20798125e-02	1.28077647e-04
7.60000000e-01	1.20936359e-02	1.27970433e-04
7.61000000e-01	1.20043118e-02	1.27286115e-04
7.62000000e-01	1.20498765e-02	1.27690250e-04
7.63000000e-01	1.19878367e-02	1.26897104e-04
7.64000000e-01	1.19604646e-02	1.26063579e-04
7.65000000e-01	1.20482319e-02	1.26546046e-04
7.66000000e-01	1.19767946e-02	1.26463512e-04
7.67000000e-01	1.18804172e-02	1.25135160e-04
7.68000000e-01	1.18509127e-02	1.24956035e-04
7.69000000e-01	1.20616410e-02	1.27357065e-04
7.70000000e-01	1.18029146e-02	1.24795800e-04
7.71000000e-01	1.19813685e-02	1.25777415e-04
7.72000000e-01	1.19621779e-02	1.29830063e-04
7.73000000e-01	1.18430839e-02	1.32322956e-04
7.74000000e-01	1.17468182e-02	1.34545892e-04
7.75000000e-01	1.20220762e-02	1.39964594e-04
7.76000000e-01	1.18417253e-02	1.40845933e-04
7.77000000e-01	1.18263494e-02	1.42360328e-04
7.78000000e-01	1.17405370e-02	1.43137460e-04
7.79000000e-01	1.17729096e-02	1.44976324e-04
7.80000000e-01	1.18270900e-02	1.46915184e-04
7.81000000e-01	1.18990018e-02	1.50772894e-04
7.82000000e-01	1.18904674e-02	1.50891514e-04
7.83000000e-01	1.18039946e-02	1.51678666e-04
7.84000000e-01	1.16690687e-02	1.51955893e-04
7.85000000e-01	1.17982211e-02	1.54828529e-04
7.86000000e-01	1.14958069e-02	1.53583955e-04
7.87000000e-01	1.16421180e-02	1.56764566e-04
7.88000000e-01	1.17094190e-02	1.58533352e-04
7.89000000e-01	1.16334394e-02	1.59874469e-04
7.90000000e-01	1.15120756e-02	1.59547940e-04
7.91000000e-01	1.17103976e-02	1.63360544e-04
7.92000000e-01	1.14664551e-02	1.61641748e-04
7.93000000e-01	1.16126046e-02	1.66007207e-04
7.94000000e-01	1.15697076e-02	1.67912715e-04
7.95000000e-01	1.14718880e-02	1.67062532e-04
7.96000000e-01	1.15645191e-02	1.69595784e-04
7.97000000e-01	1.15103056e-02	1.70342397e-04
7.98000000e-01	1.15026392e-02	1.72675675e-04
7.99000000e-01	1.13500488e-02	1.72292890e-04
8.00000000e-01	1.16362940e-02	1.78367139e-04
8.01000000e-01	1.14400139e-02	1.77302823e-04
8.02000000e-01	1.16066232e-02	1.81125320e-04
8.03000000e-01	1.15439038e-02	1.81763209e-04
8.04000000e-01	1.13744909e-02	1.82558910e-04
8.05000000e-01	1.13930630e-02	1.84134000e-04
8.06000000e-01	1.14633631e-02	1.87816740e-04
8.07000000e-01	1.15907334e-02	1.90964868e-04
8.08000000e-01	1.15175638e-02	1.92029397e-04
8.09000000e-01	1.13934329e-02	1.92546573e-04
8.10000000e-01	1.15468603e-02	1.96966035e-04
8.11000000e-01	1.13577319e-02	1.96220117e-04
8.12000000e-01	1.14366016e-02	1.98786877e-04
8.13000000e-01	1.13642642e-02	2.02275866e-04
8.14000000e-01	1.14011073e-02	2.02991436e-04
8.15000000e-01	1.11804259e-02	2.04616291e-04
8.16000000e-01	1.13915102e-02	2.08598035e-04
8.17000000e-01	1.15196972e-02	2.14474800e-04
8.18000000e-01	1.14510149e-02	2.13904090e-04
8.19000000e-01	1.11940719e-02	2.12938865e-04
8.20000000e-01	1.13559653e-02	2.17387984e-04
8.21000000e-01	1.13244280e-02	2.19216017e-04
8.22000000e-01	1.11943021e-02	2.22003163e-04
8.23000000e-01	1.12430584e-02	2.25229402e-04
8.24000000e-01	1.11666074e-02	2.27440876e-04
8.25000000e-01	1.11296840e-02	2.28855766e-04
8.26000000e-01	1.09991520e-02	2.29973921e-04
8.27000000e-01	1.15449444e-02	2.43888267e-04
8.28000000e-01	1.09139576e-02	2.36343745e-04
8.29000000e-01	1.11317688e-02	2.46286292e-04
8.30000000e-01	1.10384980e-02	2.47211628e-04
8.31000000e-01	1.11304838e-02	2.51209393e-04
8.32000000e-01	1.10324015e-02	2.52976117e-04
8.33000000e-01	1.09732125e-02	2.55777241e-04
8.34000000e-01	1.12352072e-02	2.67977467e-04
8.35000000e-01	1.09054855e-02	2.65803139e-04
8.36000000e-01	1.13625270e-02	2.78957745e-04
8.37000000e-01	1.10406182e-02	2.77805348e-04
8.38000000e-01	1.13426518e-02	2.87218896e-04
8.39000000e-01	1.11414284e-02	2.93110398e-04
8.40000000e-01	1.09289165e-02	2.90385447e-04
8.41000000e-01	1.11419874e-02	3.01585554e-04
8.42000000e-01	1.10365098e-02	3.07296521e-04
8.43000000e-01	1.08851698e-02	3.08536560e-04
8.44000000e-01	1.09974077e-02	3.22175667e-04
8.45000000e-01	1.09691387e-02	3.30304348e-04
8.46000000e-01	1.07689633e-02	3.36311256e-04
8.47000000e-01	1.05964228e-02	3.37733611e-04
8.48000000e-01	1.07846626e-02	3.54593044e-04
8.49000000e-01	1.09308144e-02	3.71797884e-04
8.50000000e-01	1.09442874e-02	3.80085209e-04
8.51000000e-01	1.08701116e-02	3.94840186e-04
8.52000000e-01	1.10121318e-02	4.11763941e-04
8.53000000e-01	1.03279789e-02	4.10405793e-04
8.54000000e-01	1.05076923e-02	4.34059788e-04
8.55000000e-01	1.05716419e-02	4.50751266e-04
8.56000000e-01	1.06995277e-02	4.74489428e-04
8.57000000e-01	1.06388001e-02	4.75716518e-04
8.58000000e-01	1.10245167e-02	5.13265558e-04
8.59000000e-01	1.08617865e-02	5.20640731e-04
8.60000000e-01	1.03714668e-02	5.10846529e-04
8.61000000e-01	1.14268699e-02	5.77511564e-04
8.62000000e-01	1.07657680e-02	5.80577667e-04
8.63000000e-01	1.02974058e-02	5.76703356e-04
8.64000000e-01	1.05287352e-02	6.08836352e-04
8.65000000e-01	1.04673764e-02	6.28325831e-04
8.66000000e-01	1.05938003e-02	6.63170219e-04
8.67000000e-01	1.02971144e-02	6.85878463e-04
8.68000000e-01	9.97567308e-03	7.13783897e-04
8.69000000e-01	1.06600726e-02	7.98894382e-04
8.70000000e-01	1.03117356e-02	8.71549232e-04
8.71000000e-01	1.19231648e-02	1.06630823e-03
8.72000000e-01	1.15607889e-02	1.19674395e-03
8.73000000e-01	1.10894048e-02	1.37417178e-03
8.74000000e-01	1.05434368e-02	1.72087461e-03
8.75000000e-01	1.01990001e-02	3.51966048e-03
