% Filename : SDL7_00012_00004.h5
% Date & Time : 30-Oct-2025 14:46:17
% X-ray Energy (keV) : 13.30001
% Exposure Time (s) : 0.500
% Beam Center : 1461.24000, 208.98300
% Sample to Detector Distance (SDD) (mm) : 1990.750
% Detector Pixel Size (mm) : 0.075
% Photodiode Value : 135915.000
% I0 of Sample : 0
% I0 of Standard : 1
% 
% q(A^-1)   I(q)    I(q)_SE
0.00000000e+00	6.64632128e-03	3.51689910e-03
2.50000000e-04	0.00000000e+00	0.00000000e+00
5.00000000e-04	0.00000000e+00	0.00000000e+00
7.50000000e-04	0.00000000e+00	0.00000000e+00
1.00000000e-03	0.00000000e+00	0.00000000e+00
1.25000000e-03	0.00000000e+00	0.00000000e+00
1.50000000e-03	0.00000000e+00	0.00000000e+00
1.75000000e-03	0.00000000e+00	0.00000000e+00
2.00000000e-03	0.00000000e+00	0.00000000e+00
2.25000000e-03	0.00000000e+00	0.00000000e+00
2.50000000e-03	0.00000000e+00	0.00000000e+00
2.75000000e-03	0.00000000e+00	0.00000000e+00
3.00000000e-03	0.00000000e+00	0.00000000e+00
3.25000000e-03	7.61112115e+01	4.42645469e+01
3.50000000e-03	2.76331361e+01	1.21521873e+01
3.75000000e-03	1.82332513e+01	7.37484052e+00
4.00000000e-03	1.61514022e+01	6.07718415e+00
4.25000000e-03	8.22346453e+00	3.17557749e+00
4.50000000e-03	2.02294803e+01	8.19989873e+00
4.75000000e-03	3.08572433e+01	1.02684823e+01
5.00000000e-03	2.38392566e+01	7.95828987e+00
5.25000000e-03	1.91814434e+01	6.26264702e+00
5.50000000e-03	1.51762461e+01	4.89327289e+00
5.75000000e-03	1.22537568e+01	3.90335008e+00
6.00000000e-03	9.77751969e+00	3.05057668e+00
6.25000000e-03	8.49449009e+00	2.65247873e+00
6.50000000e-03	6.94640775e+00	2.13313779e+00
6.75000000e-03	5.88895350e+00	1.78214404e+00
7.00000000e-03	4.90541171e+00	1.45345625e+00
7.25000000e-03	4.20527154e+00	1.24881374e+00
7.50000000e-03	3.41897343e+00	1.05160391e+00
7.75000000e-03	3.29668467e+00	9.67777287e-01
8.00000000e-03	2.90942708e+00	8.39937194e-01
8.25000000e-03	2.36947524e+00	6.66449718e-01
8.50000000e-03	2.08916120e+00	5.83432633e-01
8.75000000e-03	1.91543808e+00	5.33711004e-01
9.00000000e-03	1.69643656e+00	4.64515014e-01
9.25000000e-03	1.49181165e+00	4.13129758e-01
9.50000000e-03	1.32563945e+00	3.56462018e-01
9.75000000e-03	1.17595956e+00	3.14678564e-01
1.00000000e-02	9.49427519e-01	2.59922548e-01
1.02500000e-02	9.89130869e-01	2.66110228e-01
1.05000000e-02	8.63149820e-01	2.27679148e-01
1.07500000e-02	7.89886603e-01	2.06883937e-01
1.10000000e-02	7.13489288e-01	1.83295319e-01
1.12500000e-02	6.13059608e-01	1.59815623e-01
1.15000000e-02	6.08349141e-01	1.54759234e-01
1.17500000e-02	5.07569247e-01	1.33348382e-01
1.20000000e-02	5.12255774e-01	1.33251366e-01
1.22500000e-02	4.84939782e-01	1.20877320e-01
1.25000000e-02	4.50142445e-01	1.11126725e-01
1.27500000e-02	4.20368118e-01	1.03271646e-01
1.30000000e-02	3.84175148e-01	9.20563875e-02
1.32500000e-02	3.51113164e-01	8.38567385e-02
1.35000000e-02	3.22564574e-01	7.65001782e-02
1.37500000e-02	3.02309154e-01	7.11195092e-02
1.40000000e-02	2.79972572e-01	6.48819527e-02
1.42500000e-02	2.55915785e-01	5.84073367e-02
1.45000000e-02	2.45903613e-01	5.52257756e-02
1.47500000e-02	2.33823904e-01	5.27450056e-02
1.50000000e-02	2.21159555e-01	4.93083075e-02
1.52500000e-02	2.07706805e-01	4.59098371e-02
1.55000000e-02	1.88142596e-01	4.05053322e-02
1.57500000e-02	1.80988606e-01	3.92711659e-02
1.60000000e-02	1.71203228e-01	3.66750127e-02
1.62500000e-02	1.66731052e-01	3.52290006e-02
1.65000000e-02	1.49301287e-01	3.07236190e-02
1.67500000e-02	1.41690313e-01	2.87300520e-02
1.70000000e-02	1.38886293e-01	2.80012749e-02
1.72500000e-02	1.32310193e-01	2.64017805e-02
1.75000000e-02	1.22213494e-01	2.42338261e-02
1.77500000e-02	1.15432514e-01	2.22577036e-02
1.80000000e-02	1.13417525e-01	2.17288328e-02
1.82500000e-02	1.05305552e-01	1.93186384e-02
1.85000000e-02	1.02816238e-01	1.94498608e-02
1.87500000e-02	1.00691829e-01	1.86098749e-02
1.90000000e-02	9.48165201e-02	1.70843045e-02
1.92500000e-02	9.16757485e-02	1.61241821e-02
1.95000000e-02	8.18996557e-02	1.45096967e-02
1.97500000e-02	8.52410725e-02	1.47994227e-02
2.00000000e-02	7.66758309e-02	1.28859890e-02
2.02500000e-02	7.48724007e-02	1.25943030e-02
2.05000000e-02	7.37925173e-02	1.15596377e-02
2.07500000e-02	7.37395384e-02	1.14830884e-02
2.10000000e-02	7.20679934e-02	1.11410560e-02
2.12500000e-02	7.06904370e-02	1.10165263e-02
2.15000000e-02	6.76770969e-02	1.00567787e-02
2.17500000e-02	6.72382120e-02	9.98920177e-03
2.20000000e-02	6.42838255e-02	9.41751899e-03
2.22500000e-02	6.26487284e-02	9.27537215e-03
2.25000000e-02	6.09842988e-02	8.85070023e-03
2.27500000e-02	5.94220793e-02	8.27918935e-03
2.30000000e-02	5.91000867e-02	8.32898401e-03
2.32500000e-02	5.66794674e-02	7.72249247e-03
2.35000000e-02	5.80985280e-02	7.86590475e-03
2.37500000e-02	5.63094668e-02	7.45089433e-03
2.40000000e-02	5.28403439e-02	7.11787430e-03
2.42500000e-02	5.24716683e-02	6.89980833e-03
2.45000000e-02	5.28752353e-02	6.79858561e-03
2.47500000e-02	5.08143868e-02	6.19289355e-03
2.50000000e-02	5.12554580e-02	6.25289991e-03
2.52500000e-02	4.75060788e-02	5.58238216e-03
2.55000000e-02	4.83036360e-02	5.54275021e-03
2.57500000e-02	4.75204306e-02	5.40581246e-03
2.60000000e-02	4.54616257e-02	5.21373190e-03
2.62500000e-02	4.38935562e-02	4.71506191e-03
2.65000000e-02	4.41245566e-02	4.84406201e-03
2.67500000e-02	4.41136857e-02	4.81058524e-03
2.70000000e-02	4.29137748e-02	4.63213284e-03
2.72500000e-02	4.26140256e-02	4.39518359e-03
2.75000000e-02	4.14085293e-02	4.35039999e-03
2.77500000e-02	4.21539098e-02	4.31279903e-03
2.80000000e-02	4.15892862e-02	4.20412916e-03
2.82500000e-02	4.00590519e-02	4.06666131e-03
2.85000000e-02	4.05177042e-02	3.87825760e-03
2.87500000e-02	4.02177245e-02	3.81775781e-03
2.90000000e-02	4.05887373e-02	3.87511932e-03
2.92500000e-02	3.76752675e-02	3.24390852e-03
2.95000000e-02	3.86175324e-02	3.49186652e-03
2.97500000e-02	3.81793407e-02	3.30758050e-03
3.00000000e-02	3.81261016e-02	3.26419700e-03
3.02500000e-02	3.77099524e-02	3.30067248e-03
3.05000000e-02	3.66316740e-02	3.03302644e-03
3.07500000e-02	3.52085533e-02	2.76052425e-03
3.10000000e-02	3.60685884e-02	2.86712864e-03
3.12500000e-02	3.59676221e-02	2.92300277e-03
3.15000000e-02	3.45310971e-02	2.82654812e-03
3.17500000e-02	3.46019589e-02	2.61370279e-03
3.20000000e-02	3.47406955e-02	2.63235806e-03
3.22500000e-02	3.33732488e-02	2.51149098e-03
3.25000000e-02	3.31658690e-02	2.43865804e-03
3.27500000e-02	3.25873040e-02	2.38366851e-03
3.30000000e-02	3.29763105e-02	2.36237566e-03
3.32500000e-02	3.33805697e-02	2.36138507e-03
3.35000000e-02	3.17504529e-02	2.17268370e-03
3.37500000e-02	3.19496233e-02	2.20990928e-03
3.40000000e-02	3.08962930e-02	2.09333643e-03
3.42500000e-02	3.08920789e-02	2.13170604e-03
3.45000000e-02	3.08346229e-02	2.05300560e-03
3.47500000e-02	2.96415635e-02	1.89471483e-03
3.50000000e-02	2.92082284e-02	1.88100386e-03
3.52500000e-02	3.01483345e-02	1.92858380e-03
3.55000000e-02	2.98205994e-02	1.90806984e-03
3.57500000e-02	2.94371891e-02	1.79822385e-03
3.60000000e-02	2.91206666e-02	1.77646554e-03
3.62500000e-02	2.92623690e-02	1.76913042e-03
3.65000000e-02	2.89854636e-02	1.81984847e-03
3.67500000e-02	2.83373606e-02	1.73610750e-03
3.70000000e-02	2.84736998e-02	1.66817513e-03
3.72500000e-02	2.83008230e-02	1.72323403e-03
3.75000000e-02	2.79680213e-02	1.63523961e-03
3.77500000e-02	2.74190240e-02	1.53525929e-03
3.80000000e-02	2.78753928e-02	1.53837503e-03
3.82500000e-02	2.73777138e-02	1.50792544e-03
3.85000000e-02	2.76507742e-02	1.46575524e-03
3.87500000e-02	2.77213630e-02	1.47999701e-03
3.90000000e-02	2.78857954e-02	1.49151793e-03
3.92500000e-02	2.76560774e-02	1.43290374e-03
3.95000000e-02	2.64644570e-02	1.38801871e-03
3.97500000e-02	2.53359573e-02	1.27658410e-03
4.00000000e-02	2.65640660e-02	1.38338083e-03
4.02500000e-02	2.65791593e-02	1.34932344e-03
4.05000000e-02	2.62915392e-02	1.33818122e-03
4.07500000e-02	2.64440167e-02	1.30073791e-03
4.10000000e-02	2.58883051e-02	1.26799767e-03
4.12500000e-02	2.61171371e-02	1.29994799e-03
4.15000000e-02	2.52692824e-02	1.21633624e-03
4.17500000e-02	2.51029068e-02	1.22434248e-03
4.20000000e-02	2.55061187e-02	1.19306938e-03
4.22500000e-02	2.52234250e-02	1.19602365e-03
4.25000000e-02	2.49434480e-02	1.19737737e-03
4.27500000e-02	2.47344874e-02	1.15429020e-03
4.30000000e-02	2.46679298e-02	1.16730210e-03
4.32500000e-02	2.49497190e-02	1.17615940e-03
4.35000000e-02	2.46052063e-02	1.16190799e-03
4.37500000e-02	2.46705596e-02	1.13415291e-03
4.40000000e-02	2.43403241e-02	1.12838277e-03
4.42500000e-02	2.46971013e-02	1.12499051e-03
4.45000000e-02	2.40920332e-02	1.10970044e-03
4.47500000e-02	2.43146125e-02	1.09669489e-03
4.50000000e-02	2.49899743e-02	1.14969816e-03
4.52500000e-02	2.46535719e-02	1.11330753e-03
4.55000000e-02	2.40886796e-02	1.09846077e-03
4.57500000e-02	2.36802891e-02	1.03534354e-03
4.60000000e-02	2.39855157e-02	1.07554376e-03
4.62500000e-02	2.40603269e-02	1.07310443e-03
4.65000000e-02	2.36734091e-02	1.03953498e-03
4.67500000e-02	2.43681642e-02	1.05450172e-03
4.70000000e-02	2.37259750e-02	1.03635282e-03
4.72500000e-02	2.38935947e-02	1.01658321e-03
4.75000000e-02	2.35066118e-02	1.01721513e-03
4.77500000e-02	2.32525697e-02	1.01986852e-03
4.80000000e-02	2.33666898e-02	1.00219573e-03
4.82500000e-02	2.33666075e-02	9.91221685e-04
4.85000000e-02	2.38710226e-02	1.01734211e-03
4.87500000e-02	2.36220554e-02	1.01739029e-03
4.90000000e-02	2.30068048e-02	9.61308746e-04
4.92500000e-02	2.36167247e-02	9.76335725e-04
4.95000000e-02	2.36137281e-02	9.85798798e-04
4.97500000e-02	2.28870382e-02	9.46751974e-04
5.00000000e-02	2.33761481e-02	9.83692271e-04
5.02500000e-02	2.24205673e-02	9.24269854e-04
5.05000000e-02	2.29034435e-02	9.50595757e-04
5.07500000e-02	2.28505486e-02	9.37118837e-04
5.10000000e-02	2.34418398e-02	9.67980944e-04
5.12500000e-02	2.27383931e-02	9.32180674e-04
5.15000000e-02	2.22569698e-02	9.12843342e-04
5.17500000e-02	2.20972494e-02	9.15755069e-04
5.20000000e-02	2.34232478e-02	9.49300263e-04
5.22500000e-02	2.31939102e-02	9.41339858e-04
5.25000000e-02	2.25593881e-02	9.00613175e-04
5.27500000e-02	2.23881508e-02	8.97043247e-04
5.30000000e-02	2.19647412e-02	8.81207184e-04
5.32500000e-02	2.23325570e-02	8.96025052e-04
5.35000000e-02	2.25077871e-02	9.14112905e-04
5.37500000e-02	2.24692477e-02	8.81312358e-04
5.40000000e-02	2.24460629e-02	8.92098758e-04
5.42500000e-02	2.18528259e-02	8.71061601e-04
5.45000000e-02	2.20598437e-02	8.77197914e-04
5.47500000e-02	2.18087730e-02	8.70925503e-04
5.50000000e-02	2.21896417e-02	8.77861988e-04
5.52500000e-02	2.26200007e-02	8.81315606e-04
5.55000000e-02	2.23852278e-02	8.75173377e-04
5.57500000e-02	2.21764877e-02	8.71040141e-04
5.60000000e-02	2.18436730e-02	8.53293177e-04
5.62500000e-02	2.21830568e-02	8.70971651e-04
5.65000000e-02	2.23538330e-02	8.68283968e-04
5.67500000e-02	2.20853422e-02	8.54280415e-04
5.70000000e-02	2.18343425e-02	8.42059095e-04
5.72500000e-02	2.19894376e-02	8.57837336e-04
5.75000000e-02	2.19499430e-02	8.57468376e-04
5.77500000e-02	2.21957162e-02	8.40438308e-04
5.80000000e-02	2.18833492e-02	8.42939863e-04
5.82500000e-02	2.15499444e-02	8.27065784e-04
5.85000000e-02	2.14337209e-02	8.21246823e-04
5.87500000e-02	2.10665027e-02	8.09918239e-04
5.90000000e-02	2.14982005e-02	8.12105195e-04
5.92500000e-02	2.13218596e-02	8.14255379e-04
5.95000000e-02	2.15095368e-02	8.14122621e-04
5.97500000e-02	2.13906131e-02	8.13590686e-04
6.00000000e-02	2.15560232e-02	8.15158529e-04
6.02500000e-02	2.24193453e-02	8.38689868e-04
6.05000000e-02	2.15085198e-02	8.03298853e-04
6.07500000e-02	2.12801873e-02	7.99130791e-04
6.10000000e-02	2.15796269e-02	8.00303734e-04
6.12500000e-02	2.07375439e-02	7.70313995e-04
6.15000000e-02	2.17369657e-02	8.07134051e-04
6.17500000e-02	2.14273314e-02	7.92640850e-04
6.20000000e-02	2.13199337e-02	7.92661811e-04
6.22500000e-02	2.14138556e-02	7.96981033e-04
6.25000000e-02	2.10918993e-02	7.75016832e-04
6.27500000e-02	2.10755447e-02	7.78546660e-04
6.30000000e-02	2.06876825e-02	7.64630223e-04
6.32500000e-02	2.12267070e-02	7.79805385e-04
6.35000000e-02	2.08098195e-02	7.65289647e-04
6.37500000e-02	2.12045243e-02	7.76990598e-04
6.40000000e-02	2.09583946e-02	7.74590051e-04
6.42500000e-02	2.05969496e-02	7.52609069e-04
6.45000000e-02	2.02378558e-02	7.35639382e-04
6.47500000e-02	2.11370717e-02	7.74203302e-04
6.50000000e-02	2.12062132e-02	7.75496318e-04
6.52500000e-02	2.10178415e-02	7.56132354e-04
6.55000000e-02	2.08832725e-02	7.61385552e-04
6.57500000e-02	2.09796994e-02	7.52440883e-04
6.60000000e-02	2.08983032e-02	7.48200481e-04
6.62500000e-02	2.08078961e-02	7.55791491e-04
6.65000000e-02	2.06270202e-02	7.40133319e-04
6.67500000e-02	2.08962515e-02	7.43227327e-04
6.70000000e-02	2.09884831e-02	7.56873628e-04
6.72500000e-02	2.09499013e-02	7.52776181e-04
6.75000000e-02	2.05920523e-02	7.35337949e-04
6.77500000e-02	2.07589190e-02	7.43709493e-04
6.80000000e-02	2.04912592e-02	7.31614609e-04
6.82500000e-02	2.09205357e-02	7.48822389e-04
6.85000000e-02	2.06909130e-02	7.40202406e-04
6.87500000e-02	2.08518174e-02	7.36176909e-04
6.90000000e-02	2.02454456e-02	7.17036604e-04
6.92500000e-02	2.08151812e-02	7.27457298e-04
6.95000000e-02	2.10642588e-02	7.52222301e-04
6.97500000e-02	2.08513498e-02	7.38919961e-04
7.00000000e-02	2.06418493e-02	7.30147846e-04
7.02500000e-02	2.10263874e-02	7.42855562e-04
7.05000000e-02	2.11306177e-02	7.36288944e-04
7.07500000e-02	2.09784779e-02	7.35815254e-04
7.10000000e-02	2.08036108e-02	7.22782466e-04
7.12500000e-02	2.06179955e-02	7.19170115e-04
7.15000000e-02	2.04451946e-02	7.15512017e-04
7.17500000e-02	2.10029711e-02	7.29890902e-04
7.20000000e-02	2.12494742e-02	7.39852555e-04
7.22500000e-02	2.07335835e-02	7.25445716e-04
7.25000000e-02	2.09508978e-02	7.19032868e-04
7.27500000e-02	2.09960988e-02	7.19442844e-04
7.30000000e-02	2.11283368e-02	7.29076977e-04
7.32500000e-02	2.05927393e-02	7.03904621e-04
7.35000000e-02	2.03557160e-02	7.03513954e-04
7.37500000e-02	2.05303435e-02	7.02228440e-04
7.40000000e-02	2.08554532e-02	7.15770883e-04
7.42500000e-02	2.02227155e-02	7.03424395e-04
7.45000000e-02	2.04826817e-02	6.96825030e-04
7.47500000e-02	2.06091837e-02	6.97549247e-04
7.50000000e-02	2.02592056e-02	6.88386128e-04
7.52500000e-02	2.10170333e-02	7.18537059e-04
7.55000000e-02	2.06961081e-02	7.03511597e-04
7.57500000e-02	1.99478525e-02	6.81365063e-04
7.60000000e-02	2.05294460e-02	6.98392275e-04
7.62500000e-02	2.05486908e-02	6.98562629e-04
7.65000000e-02	2.05825871e-02	6.99212886e-04
7.67500000e-02	2.03477955e-02	6.84581380e-04
7.70000000e-02	2.02812815e-02	6.81479199e-04
7.72500000e-02	2.05299199e-02	7.07321438e-04
7.75000000e-02	2.09520252e-02	7.24706744e-04
7.77500000e-02	2.07090579e-02	7.28147003e-04
7.80000000e-02	2.11271184e-02	7.30571543e-04
7.82500000e-02	2.06062246e-02	7.16068094e-04
7.85000000e-02	2.07807146e-02	7.34562182e-04
7.87500000e-02	2.00301006e-02	7.07667361e-04
7.90000000e-02	2.05721652e-02	7.33039020e-04
7.92500000e-02	1.97389724e-02	7.06360960e-04
7.95000000e-02	2.06339204e-02	7.42255932e-04
7.97500000e-02	2.06859883e-02	7.40165698e-04
8.00000000e-02	2.01409031e-02	7.19153000e-04
8.02500000e-02	2.05469578e-02	7.37289244e-04
8.05000000e-02	2.05054296e-02	7.40607210e-04
8.07500000e-02	2.11746860e-02	7.65942163e-04
8.10000000e-02	2.01820136e-02	7.35359526e-04
8.12500000e-02	2.06525376e-02	7.43844058e-04
8.15000000e-02	2.04373871e-02	7.42240793e-04
8.17500000e-02	2.07670140e-02	7.54949392e-04
8.20000000e-02	2.07505415e-02	7.50978032e-04
8.22500000e-02	2.04644009e-02	7.49008406e-04
8.25000000e-02	2.01819409e-02	7.35925258e-04
8.27500000e-02	1.96971947e-02	7.26359023e-04
8.30000000e-02	2.04392789e-02	7.48868421e-04
8.32500000e-02	2.06783282e-02	7.68686825e-04
8.35000000e-02	2.07510827e-02	7.70574022e-04
8.37500000e-02	2.02394283e-02	7.34209967e-04
8.40000000e-02	1.97910000e-02	7.30649477e-04
8.42500000e-02	2.08581884e-02	7.71078913e-04
8.45000000e-02	2.03436338e-02	7.53328258e-04
8.47500000e-02	2.05411268e-02	7.60293203e-04
8.50000000e-02	1.98935097e-02	7.37166679e-04
8.52500000e-02	2.06370523e-02	7.61107205e-04
8.55000000e-02	1.96510754e-02	7.26635761e-04
8.57500000e-02	2.01975266e-02	7.47576891e-04
8.60000000e-02	2.05053978e-02	7.60466082e-04
8.62500000e-02	2.13016849e-02	7.89672993e-04
8.65000000e-02	2.10183750e-02	7.73464348e-04
8.67500000e-02	2.00884888e-02	7.38450906e-04
8.70000000e-02	2.03607652e-02	7.43633788e-04
8.72500000e-02	2.02948464e-02	7.27973533e-04
8.75000000e-02	2.05168138e-02	7.28826732e-04
8.77500000e-02	2.04735583e-02	7.24792309e-04
8.80000000e-02	2.08431566e-02	7.36173597e-04
8.82500000e-02	2.11161120e-02	7.38069043e-04
8.85000000e-02	2.07301816e-02	7.22852735e-04
8.87500000e-02	2.00653285e-02	6.87195310e-04
8.90000000e-02	2.03668329e-02	7.09089604e-04
8.92500000e-02	2.05139198e-02	7.00404290e-04
8.95000000e-02	2.05782717e-02	7.09554974e-04
8.97500000e-02	2.07742858e-02	7.01104490e-04
9.00000000e-02	1.99773013e-02	6.76316184e-04
9.02500000e-02	2.01798678e-02	6.88624681e-04
9.05000000e-02	2.07884613e-02	7.01141507e-04
9.07500000e-02	2.05557693e-02	6.98850167e-04
9.10000000e-02	2.00567853e-02	6.75045291e-04
9.12500000e-02	2.03303401e-02	6.79059781e-04
9.15000000e-02	1.99293588e-02	6.71397015e-04
9.17500000e-02	2.03051279e-02	6.85289761e-04
9.20000000e-02	2.00891560e-02	6.73629126e-04
9.22500000e-02	2.02727579e-02	6.77385138e-04
9.25000000e-02	2.01667252e-02	6.69654584e-04
9.27500000e-02	2.01109719e-02	6.66691181e-04
9.30000000e-02	1.97592953e-02	6.53738609e-04
9.32500000e-02	2.04216980e-02	6.74237602e-04
9.35000000e-02	1.98976872e-02	6.51742065e-04
9.37500000e-02	1.95673961e-02	6.43522566e-04
9.40000000e-02	2.01743805e-02	6.67192202e-04
9.42500000e-02	1.99255978e-02	6.49897225e-04
9.45000000e-02	1.99807605e-02	6.53161140e-04
9.47500000e-02	2.03603083e-02	6.71726636e-04
9.50000000e-02	2.01308632e-02	6.55846254e-04
9.52500000e-02	2.01757588e-02	6.59940969e-04
9.55000000e-02	2.01229896e-02	6.55002892e-04
9.57500000e-02	1.96972013e-02	6.45063296e-04
9.60000000e-02	1.98402449e-02	6.45036049e-04
9.62500000e-02	1.97561067e-02	6.40632528e-04
9.65000000e-02	2.04484930e-02	6.54627417e-04
9.67500000e-02	2.00183464e-02	6.47981180e-04
9.70000000e-02	1.97223315e-02	6.34440863e-04
9.72500000e-02	2.00767712e-02	6.46768221e-04
9.75000000e-02	1.96394873e-02	6.32702109e-04
9.77500000e-02	2.01425614e-02	6.41581283e-04
9.80000000e-02	2.00442509e-02	6.40957073e-04
9.82500000e-02	2.02382727e-02	6.45733507e-04
9.85000000e-02	1.93594034e-02	6.15985105e-04
9.87500000e-02	1.96427303e-02	6.28861911e-04
9.90000000e-02	2.00289004e-02	6.39606780e-04
9.92500000e-02	1.94945393e-02	6.24699395e-04
9.95000000e-02	1.99541986e-02	6.31760994e-04
9.97500000e-02	1.98072507e-02	6.26740971e-04
1.00000000e-01	2.01994545e-02	5.20059451e-04
1.00500000e-01	1.98497674e-02	4.45354135e-04
1.01000000e-01	2.00356788e-02	4.41788871e-04
1.01500000e-01	2.02970355e-02	4.49086033e-04
1.02000000e-01	1.97877704e-02	4.36542298e-04
1.02500000e-01	2.02763671e-02	4.44962865e-04
1.03000000e-01	2.01077624e-02	4.42487814e-04
1.03500000e-01	1.97408220e-02	4.33356073e-04
1.04000000e-01	2.01480562e-02	4.41448167e-04
1.04500000e-01	1.98229630e-02	4.33889774e-04
1.05000000e-01	1.96267532e-02	4.25898987e-04
1.05500000e-01	2.01599621e-02	4.38243517e-04
1.06000000e-01	1.99441354e-02	4.29540804e-04
1.06500000e-01	2.01036216e-02	4.33474246e-04
1.07000000e-01	1.98778749e-02	4.33236021e-04
1.07500000e-01	1.99335096e-02	4.42721638e-04
1.08000000e-01	2.01292168e-02	4.49172473e-04
1.08500000e-01	1.97701826e-02	4.46893985e-04
1.09000000e-01	1.98189765e-02	4.53881755e-04
1.09500000e-01	1.98817519e-02	4.53589370e-04
1.10000000e-01	1.99170548e-02	4.50376025e-04
1.10500000e-01	1.97738911e-02	4.38518991e-04
1.11000000e-01	1.98755288e-02	4.31519490e-04
1.11500000e-01	1.99302464e-02	4.31080232e-04
1.12000000e-01	1.95968132e-02	4.21303118e-04
1.12500000e-01	2.00914439e-02	4.25693617e-04
1.13000000e-01	1.97396317e-02	4.17613261e-04
1.13500000e-01	1.96696969e-02	4.15429571e-04
1.14000000e-01	1.98049573e-02	4.18267807e-04
1.14500000e-01	1.94520118e-02	4.11329677e-04
1.15000000e-01	1.99864652e-02	4.19348534e-04
1.15500000e-01	1.98647571e-02	4.15357575e-04
1.16000000e-01	1.97012566e-02	4.12811865e-04
1.16500000e-01	1.97163208e-02	4.11273807e-04
1.17000000e-01	2.00539368e-02	4.15923093e-04
1.17500000e-01	2.00805383e-02	4.16774022e-04
1.18000000e-01	2.01874696e-02	4.16928686e-04
1.18500000e-01	1.98897895e-02	4.08411669e-04
1.19000000e-01	1.98322280e-02	4.07991570e-04
1.19500000e-01	1.97596211e-02	4.03468230e-04
1.20000000e-01	1.99819073e-02	4.07155553e-04
1.20500000e-01	1.98967927e-02	4.05416675e-04
1.21000000e-01	1.99564203e-02	4.07670622e-04
1.21500000e-01	1.96163788e-02	3.99499532e-04
1.22000000e-01	2.00223234e-02	4.04750660e-04
1.22500000e-01	1.95834113e-02	3.94845287e-04
1.23000000e-01	1.98025198e-02	4.01328553e-04
1.23500000e-01	1.96845383e-02	3.98440391e-04
1.24000000e-01	1.94693212e-02	3.92973154e-04
1.24500000e-01	1.97596656e-02	3.95546165e-04
1.25000000e-01	2.00226418e-02	4.00703191e-04
1.25500000e-01	1.94913221e-02	3.91607520e-04
1.26000000e-01	2.01791921e-02	4.00828362e-04
1.26500000e-01	2.01158926e-02	3.99671098e-04
1.27000000e-01	1.95988510e-02	3.89877599e-04
1.27500000e-01	1.99777942e-02	3.95159231e-04
1.28000000e-01	1.96870284e-02	3.88382747e-04
1.28500000e-01	1.97722053e-02	3.90709913e-04
1.29000000e-01	2.00236243e-02	3.94181970e-04
1.29500000e-01	1.95369904e-02	3.82770567e-04
1.30000000e-01	1.94700338e-02	3.81322827e-04
1.30500000e-01	1.97699200e-02	3.85357640e-04
1.31000000e-01	1.94293523e-02	3.79079060e-04
1.31500000e-01	1.99432224e-02	3.88879240e-04
1.32000000e-01	1.94118041e-02	3.77586390e-04
1.32500000e-01	1.95335715e-02	3.78549203e-04
1.33000000e-01	1.96248784e-02	3.81244698e-04
1.33500000e-01	1.98231325e-02	3.81305397e-04
1.34000000e-01	1.98361579e-02	3.80979510e-04
1.34500000e-01	1.98688516e-02	3.82075533e-04
1.35000000e-01	1.96827933e-02	3.74809800e-04
1.35500000e-01	1.98120876e-02	3.78067510e-04
1.36000000e-01	1.95253635e-02	3.71012486e-04
1.36500000e-01	1.97300762e-02	3.76202762e-04
1.37000000e-01	1.97013135e-02	3.75396696e-04
1.37500000e-01	1.99161198e-02	3.76501019e-04
1.38000000e-01	1.99301022e-02	3.76065742e-04
1.38500000e-01	2.00446632e-02	3.78748737e-04
1.39000000e-01	1.97143282e-02	3.72428061e-04
1.39500000e-01	1.95234367e-02	3.70821165e-04
1.40000000e-01	1.98777763e-02	3.75235480e-04
1.40500000e-01	1.93192722e-02	3.63773998e-04
1.41000000e-01	1.94343997e-02	3.65099571e-04
1.41500000e-01	1.97307419e-02	3.70210381e-04
1.42000000e-01	1.96070867e-02	3.67734398e-04
1.42500000e-01	1.97186549e-02	3.71439260e-04
1.43000000e-01	1.98429757e-02	3.71220610e-04
1.43500000e-01	1.93980499e-02	3.61543259e-04
1.44000000e-01	1.94701588e-02	3.63500372e-04
1.44500000e-01	1.94334079e-02	3.60581885e-04
1.45000000e-01	1.93721310e-02	3.61711696e-04
1.45500000e-01	1.91943916e-02	3.56989939e-04
1.46000000e-01	1.94204818e-02	3.60806948e-04
1.46500000e-01	1.95243240e-02	3.60345332e-04
1.47000000e-01	1.93109134e-02	3.56315494e-04
1.47500000e-01	1.95824540e-02	3.60758182e-04
1.48000000e-01	1.96096721e-02	3.60698026e-04
1.48500000e-01	1.94884004e-02	3.57956119e-04
1.49000000e-01	1.96591513e-02	3.59111917e-04
1.49500000e-01	1.97330603e-02	3.59767291e-04
1.50000000e-01	1.94119169e-02	3.54334108e-04
1.50500000e-01	1.96287684e-02	3.58882241e-04
1.51000000e-01	1.94553785e-02	3.55179996e-04
1.51500000e-01	1.93682190e-02	3.52003159e-04
1.52000000e-01	1.92935219e-02	3.49001804e-04
1.52500000e-01	1.93936598e-02	3.50500971e-04
1.53000000e-01	1.94406463e-02	3.51752429e-04
1.53500000e-01	1.91271850e-02	3.45527049e-04
1.54000000e-01	1.97955379e-02	3.56858073e-04
1.54500000e-01	1.91259069e-02	3.50904451e-04
1.55000000e-01	1.95212786e-02	3.61556466e-04
1.55500000e-01	1.94917474e-02	3.64958600e-04
1.56000000e-01	1.92058483e-02	3.62377228e-04
1.56500000e-01	1.94323943e-02	3.64088305e-04
1.57000000e-01	1.95612282e-02	3.68302434e-04
1.57500000e-01	1.91206564e-02	3.53497587e-04
1.58000000e-01	1.92188526e-02	3.49051944e-04
1.58500000e-01	1.93476491e-02	3.49270321e-04
1.59000000e-01	1.93424335e-02	3.50483797e-04
1.59500000e-01	1.91916049e-02	3.46179135e-04
1.60000000e-01	1.93157793e-02	3.47295727e-04
1.60500000e-01	1.90449790e-02	3.38595351e-04
1.61000000e-01	1.90569988e-02	3.42695923e-04
1.61500000e-01	1.92224044e-02	3.41598024e-04
1.62000000e-01	1.91621351e-02	3.40821258e-04
1.62500000e-01	1.92169029e-02	3.42012049e-04
1.63000000e-01	1.89271214e-02	3.35128768e-04
1.63500000e-01	1.92210795e-02	3.41485590e-04
1.64000000e-01	1.88806745e-02	3.31874433e-04
1.64500000e-01	1.90037066e-02	3.35400513e-04
1.65000000e-01	1.92292620e-02	3.38950895e-04
1.65500000e-01	1.87418197e-02	3.29060594e-04
1.66000000e-01	1.90999988e-02	3.34578254e-04
1.66500000e-01	1.93584585e-02	3.39670032e-04
1.67000000e-01	1.91660912e-02	3.34705498e-04
1.67500000e-01	1.94414904e-02	3.38121035e-04
1.68000000e-01	1.88491392e-02	3.29151911e-04
1.68500000e-01	1.91833933e-02	3.34843382e-04
1.69000000e-01	1.93237473e-02	3.35901781e-04
1.69500000e-01	1.90246939e-02	3.30346133e-04
1.70000000e-01	1.89676398e-02	3.28482195e-04
1.70500000e-01	1.90908369e-02	3.30077077e-04
1.71000000e-01	1.88372141e-02	3.25158282e-04
1.71500000e-01	1.90746127e-02	3.28447484e-04
1.72000000e-01	1.90505899e-02	3.27103320e-04
1.72500000e-01	1.88164883e-02	3.25080467e-04
1.73000000e-01	1.87596685e-02	3.23231527e-04
1.73500000e-01	1.88994458e-02	3.23566953e-04
1.74000000e-01	1.85752252e-02	3.17514231e-04
1.74500000e-01	1.86545619e-02	3.16917170e-04
1.75000000e-01	1.94161049e-02	3.26866938e-04
1.75500000e-01	1.85853999e-02	3.15084319e-04
1.76000000e-01	1.87659896e-02	3.17485968e-04
1.76500000e-01	1.87400969e-02	3.17295131e-04
1.77000000e-01	1.88900786e-02	3.18245361e-04
1.77500000e-01	1.86471636e-02	3.16020433e-04
1.78000000e-01	1.88656059e-02	3.17921129e-04
1.78500000e-01	1.88010003e-02	3.15793813e-04
1.79000000e-01	1.90537593e-02	3.22101601e-04
1.79500000e-01	1.90434949e-02	3.19802140e-04
1.80000000e-01	1.84949668e-02	3.12324750e-04
1.80500000e-01	1.89271954e-02	3.18008946e-04
1.81000000e-01	1.85378494e-02	3.13506867e-04
1.81500000e-01	1.85457503e-02	3.10444108e-04
1.82000000e-01	1.86338422e-02	3.13209125e-04
1.82500000e-01	1.84880488e-02	3.09910502e-04
1.83000000e-01	1.84135499e-02	3.08399390e-04
1.83500000e-01	1.88723912e-02	3.13576345e-04
1.84000000e-01	1.86306625e-02	3.09734337e-04
1.84500000e-01	1.89227681e-02	3.14851964e-04
1.85000000e-01	1.89809005e-02	3.12930128e-04
1.85500000e-01	1.83191979e-02	3.04981961e-04
1.86000000e-01	1.84849176e-02	3.06632471e-04
1.86500000e-01	1.86512913e-02	3.09061058e-04
1.87000000e-01	1.86630380e-02	3.08795233e-04
1.87500000e-01	1.86004398e-02	3.07558254e-04
1.88000000e-01	1.86244287e-02	3.08265340e-04
1.88500000e-01	1.86105536e-02	3.06453780e-04
1.89000000e-01	1.86604642e-02	3.06942003e-04
1.89500000e-01	1.88061000e-02	3.09129793e-04
1.90000000e-01	1.84246802e-02	3.01739734e-04
1.90500000e-01	1.84574381e-02	3.02555648e-04
1.91000000e-01	1.86324984e-02	3.04879811e-04
1.91500000e-01	1.86233534e-02	3.04271740e-04
1.92000000e-01	1.85240691e-02	3.02318600e-04
1.92500000e-01	1.86346955e-02	3.03379620e-04
1.93000000e-01	1.85010140e-02	3.00411937e-04
1.93500000e-01	1.84547289e-02	2.99693160e-04
1.94000000e-01	1.85748005e-02	3.01799412e-04
1.94500000e-01	1.84919765e-02	2.99514285e-04
1.95000000e-01	1.86124899e-02	3.01417745e-04
1.95500000e-01	1.83800736e-02	2.98081686e-04
1.96000000e-01	1.84821291e-02	2.98621420e-04
1.96500000e-01	1.83550330e-02	2.95967180e-04
1.97000000e-01	1.82623347e-02	2.94377989e-04
1.97500000e-01	1.83941040e-02	2.96326450e-04
1.98000000e-01	1.83298275e-02	2.95638497e-04
1.98500000e-01	1.82847419e-02	2.94470188e-04
1.99000000e-01	1.83200018e-02	2.94453325e-04
1.99500000e-01	1.82667053e-02	2.93206724e-04
2.00000000e-01	1.85287872e-02	2.96591223e-04
2.00500000e-01	1.83292197e-02	2.93797145e-04
2.01000000e-01	1.84910343e-02	2.94447225e-04
2.01500000e-01	1.84892199e-02	2.95302610e-04
2.02000000e-01	1.83519227e-02	2.92568080e-04
2.02500000e-01	1.82039437e-02	2.89420203e-04
2.03000000e-01	1.84351373e-02	2.92387061e-04
2.03500000e-01	1.84998950e-02	2.93336867e-04
2.04000000e-01	1.83869739e-02	2.91811297e-04
2.04500000e-01	1.82722015e-02	2.89308686e-04
2.05000000e-01	1.81077309e-02	2.85957545e-04
2.05500000e-01	1.84070503e-02	2.91849698e-04
2.06000000e-01	1.82032224e-02	2.86669829e-04
2.06500000e-01	1.81782504e-02	2.86413343e-04
2.07000000e-01	1.80590835e-02	2.84178586e-04
2.07500000e-01	1.79276020e-02	2.82247906e-04
2.08000000e-01	1.83473078e-02	2.87441779e-04
2.08500000e-01	1.80490689e-02	2.83509666e-04
2.09000000e-01	1.81982255e-02	2.86246937e-04
2.09500000e-01	1.82619991e-02	2.86005997e-04
2.10000000e-01	1.82557066e-02	2.85774414e-04
2.10500000e-01	1.82681935e-02	2.86698136e-04
2.11000000e-01	1.81948110e-02	2.84244076e-04
2.11500000e-01	1.84096674e-02	2.87145257e-04
2.12000000e-01	1.81822820e-02	2.82781692e-04
2.12500000e-01	1.79064488e-02	2.78683279e-04
2.13000000e-01	1.81303452e-02	2.81093225e-04
2.13500000e-01	1.83314274e-02	2.84739338e-04
2.14000000e-01	1.81554708e-02	2.82018047e-04
2.14500000e-01	1.83805394e-02	2.84382503e-04
2.15000000e-01	1.83336721e-02	2.83250222e-04
2.15500000e-01	1.80415428e-02	2.79132868e-04
2.16000000e-01	1.81629079e-02	2.80490555e-04
2.16500000e-01	1.81851655e-02	2.80243228e-04
2.17000000e-01	1.79875434e-02	2.80894110e-04
2.17500000e-01	1.80996886e-02	2.86824340e-04
2.18000000e-01	1.78968946e-02	2.85797722e-04
2.18500000e-01	1.79736399e-02	2.88373470e-04
2.19000000e-01	1.78297103e-02	2.87148654e-04
2.19500000e-01	1.82839977e-02	2.93480248e-04
2.20000000e-01	1.80731417e-02	2.93999677e-04
2.20500000e-01	1.79576553e-02	2.91134352e-04
2.21000000e-01	1.78426681e-02	2.90423946e-04
2.21500000e-01	1.82174268e-02	2.97444348e-04
2.22000000e-01	1.77743862e-02	2.90855970e-04
2.22500000e-01	1.80636666e-02	2.95490402e-04
2.23000000e-01	1.79208750e-02	2.93954554e-04
2.23500000e-01	1.80575045e-02	2.97664503e-04
2.24000000e-01	1.78527418e-02	2.95752987e-04
2.24500000e-01	1.79955088e-02	2.99372754e-04
2.25000000e-01	1.79569759e-02	2.97819665e-04
2.25500000e-01	1.77867852e-02	2.95807439e-04
2.26000000e-01	1.81270431e-02	3.02221707e-04
2.26500000e-01	1.79880371e-02	2.95830135e-04
2.27000000e-01	1.78983536e-02	2.91237082e-04
2.27500000e-01	1.81306016e-02	2.90003861e-04
2.28000000e-01	1.79155337e-02	2.88590040e-04
2.28500000e-01	1.78846773e-02	2.85504552e-04
2.29000000e-01	1.79470542e-02	2.84826531e-04
2.29500000e-01	1.78097109e-02	2.82243762e-04
2.30000000e-01	1.80062987e-02	2.83406042e-04
2.30500000e-01	1.79021080e-02	2.82055377e-04
2.31000000e-01	1.79878690e-02	2.83636245e-04
2.31500000e-01	1.78450577e-02	2.79943622e-04
2.32000000e-01	1.79462413e-02	2.80395929e-04
2.32500000e-01	1.78394140e-02	2.78562093e-04
2.33000000e-01	1.77746621e-02	2.76473095e-04
2.33500000e-01	1.79572406e-02	2.78450512e-04
2.34000000e-01	1.78981728e-02	2.76483081e-04
2.34500000e-01	1.77073452e-02	2.74017904e-04
2.35000000e-01	1.77771195e-02	2.74541135e-04
2.35500000e-01	1.78664164e-02	2.74262967e-04
2.36000000e-01	1.78478147e-02	2.75528366e-04
2.36500000e-01	1.78508201e-02	2.74294350e-04
2.37000000e-01	1.77533082e-02	2.72088046e-04
2.37500000e-01	1.77618602e-02	2.71090372e-04
2.38000000e-01	1.78466377e-02	2.72194269e-04
2.38500000e-01	1.78220954e-02	2.72975956e-04
2.39000000e-01	1.77783286e-02	2.71547484e-04
2.39500000e-01	1.75012000e-02	2.66761948e-04
2.40000000e-01	1.75875333e-02	2.67115113e-04
2.40500000e-01	1.75800233e-02	2.65578636e-04
2.41000000e-01	1.77569192e-02	2.69643584e-04
2.41500000e-01	1.78199296e-02	2.69261367e-04
2.42000000e-01	1.77326725e-02	2.67060755e-04
2.42500000e-01	1.77688673e-02	2.67326909e-04
2.43000000e-01	1.78080521e-02	2.66747235e-04
2.43500000e-01	1.77916197e-02	2.66814042e-04
2.44000000e-01	1.76925882e-02	2.64968211e-04
2.44500000e-01	1.76137720e-02	2.63431020e-04
2.45000000e-01	1.76085095e-02	2.63422922e-04
2.45500000e-01	1.78400071e-02	2.66393442e-04
2.46000000e-01	1.76752176e-02	2.63195015e-04
2.46500000e-01	1.75400667e-02	2.61669683e-04
2.47000000e-01	1.76979304e-02	2.63032159e-04
2.47500000e-01	1.76359175e-02	2.61239544e-04
2.48000000e-01	1.78190875e-02	2.64030581e-04
2.48500000e-01	1.77411281e-02	2.63115525e-04
2.49000000e-01	1.77172671e-02	2.63025920e-04
2.49500000e-01	1.74577298e-02	2.58331202e-04
2.50000000e-01	1.72452798e-02	2.55528287e-04
2.50500000e-01	1.71226083e-02	2.53377916e-04
2.51000000e-01	1.75400569e-02	2.59185529e-04
2.51500000e-01	1.74536663e-02	2.57554621e-04
2.52000000e-01	1.74488021e-02	2.57261144e-04
2.52500000e-01	1.74271463e-02	2.55904859e-04
2.53000000e-01	1.74917352e-02	2.56489091e-04
2.53500000e-01	1.73365377e-02	2.54160178e-04
2.54000000e-01	1.74861444e-02	2.56096933e-04
2.54500000e-01	1.75078525e-02	2.55882822e-04
2.55000000e-01	1.74706833e-02	2.55148748e-04
2.55500000e-01	1.73221582e-02	2.53738792e-04
2.56000000e-01	1.76493185e-02	2.57119070e-04
2.56500000e-01	1.76015636e-02	2.56686001e-04
2.57000000e-01	1.74815515e-02	2.54627888e-04
2.57500000e-01	1.74557715e-02	2.53455594e-04
2.58000000e-01	1.73400543e-02	2.51940818e-04
2.58500000e-01	1.74921584e-02	2.52960573e-04
2.59000000e-01	1.73770451e-02	2.52453168e-04
2.59500000e-01	1.73900012e-02	2.51935139e-04
2.60000000e-01	1.72750227e-02	2.49933688e-04
2.60500000e-01	1.75231040e-02	2.52703593e-04
2.61000000e-01	1.74837577e-02	2.50797721e-04
2.61500000e-01	1.73699655e-02	2.51654840e-04
2.62000000e-01	1.73075977e-02	2.50658908e-04
2.62500000e-01	1.74689351e-02	2.50865743e-04
2.63000000e-01	1.72819740e-02	2.47754010e-04
2.63500000e-01	1.73188210e-02	2.48607403e-04
2.64000000e-01	1.73720618e-02	2.49146382e-04
2.64500000e-01	1.73508560e-02	2.47758952e-04
2.65000000e-01	1.74667253e-02	2.50888020e-04
2.65500000e-01	1.74366518e-02	2.48942250e-04
2.66000000e-01	1.74177627e-02	2.48536246e-04
2.66500000e-01	1.74627750e-02	2.48351064e-04
2.67000000e-01	1.74096878e-02	2.48834907e-04
2.67500000e-01	1.70811393e-02	2.43389217e-04
2.68000000e-01	1.73312178e-02	2.46143280e-04
2.68500000e-01	1.71105129e-02	2.42693784e-04
2.69000000e-01	1.71409595e-02	2.42499593e-04
2.69500000e-01	1.71346334e-02	2.42535068e-04
2.70000000e-01	1.72595160e-02	2.43512843e-04
2.70500000e-01	1.73559995e-02	2.44649007e-04
2.71000000e-01	1.74730121e-02	2.46100381e-04
2.71500000e-01	1.71236236e-02	2.41860933e-04
2.72000000e-01	1.72665961e-02	2.42628642e-04
2.72500000e-01	1.73572873e-02	2.43752151e-04
2.73000000e-01	1.72002873e-02	2.41629932e-04
2.73500000e-01	1.73775249e-02	2.44708685e-04
2.74000000e-01	1.72018814e-02	2.41480102e-04
2.74500000e-01	1.71690568e-02	2.40856829e-04
2.75000000e-01	1.70425075e-02	2.38769667e-04
2.75500000e-01	1.72321782e-02	2.41402317e-04
2.76000000e-01	1.72966153e-02	2.41346168e-04
2.76500000e-01	1.69126640e-02	2.36921434e-04
2.77000000e-01	1.70424969e-02	2.37415516e-04
2.77500000e-01	1.72043579e-02	2.39899855e-04
2.78000000e-01	1.73207277e-02	2.41392822e-04
2.78500000e-01	1.70362606e-02	2.38160033e-04
2.79000000e-01	1.71697312e-02	2.38795561e-04
2.79500000e-01	1.70271812e-02	2.37169639e-04
2.80000000e-01	1.70992988e-02	2.38281798e-04
2.80500000e-01	1.71497984e-02	2.38004689e-04
2.81000000e-01	1.71033922e-02	2.36402911e-04
2.81500000e-01	1.71514980e-02	2.37176318e-04
2.82000000e-01	1.70921910e-02	2.37054531e-04
2.82500000e-01	1.70419783e-02	2.36430916e-04
2.83000000e-01	1.68486185e-02	2.33334192e-04
2.83500000e-01	1.70094590e-02	2.34981996e-04
2.84000000e-01	1.70510492e-02	2.34822595e-04
2.84500000e-01	1.69301568e-02	2.34041843e-04
2.85000000e-01	1.70274292e-02	2.34421795e-04
2.85500000e-01	1.71265940e-02	2.35174421e-04
2.86000000e-01	1.68957757e-02	2.32583221e-04
2.86500000e-01	1.67738212e-02	2.31325811e-04
2.87000000e-01	1.70376228e-02	2.33222029e-04
2.87500000e-01	1.70555719e-02	2.32958883e-04
2.88000000e-01	1.69271126e-02	2.30792242e-04
2.88500000e-01	1.72330825e-02	2.35614783e-04
2.89000000e-01	1.68488511e-02	2.29603146e-04
2.89500000e-01	1.69560060e-02	2.32049177e-04
2.90000000e-01	1.70684466e-02	2.32601619e-04
2.90500000e-01	1.69725836e-02	2.31701477e-04
2.91000000e-01	1.69791719e-02	2.31051175e-04
2.91500000e-01	1.69264640e-02	2.30095208e-04
2.92000000e-01	1.67853576e-02	2.27959068e-04
2.92500000e-01	1.66817670e-02	2.26629273e-04
2.93000000e-01	1.69390425e-02	2.29717522e-04
2.93500000e-01	1.68453605e-02	2.28727870e-04
2.94000000e-01	1.69783359e-02	2.29196993e-04
2.94500000e-01	1.67869565e-02	2.28147938e-04
2.95000000e-01	1.67389987e-02	2.25365110e-04
2.95500000e-01	1.69935115e-02	2.30531652e-04
2.96000000e-01	1.68898341e-02	2.27660018e-04
2.96500000e-01	1.69376019e-02	2.28776873e-04
2.97000000e-01	1.70336881e-02	2.29756321e-04
2.97500000e-01	1.68322756e-02	2.26378950e-04
2.98000000e-01	1.66463874e-02	2.24419864e-04
2.98500000e-01	1.69442484e-02	2.27827213e-04
2.99000000e-01	1.67741739e-02	2.25184271e-04
2.99500000e-01	1.68187603e-02	2.26225321e-04
3.00000000e-01	1.67026486e-02	2.25038104e-04
3.00500000e-01	1.67950899e-02	2.25801185e-04
3.01000000e-01	1.68734782e-02	2.25695922e-04
3.01500000e-01	1.68357343e-02	2.25373866e-04
3.02000000e-01	1.67296006e-02	2.23989830e-04
3.02500000e-01	1.67270221e-02	2.23242825e-04
3.03000000e-01	1.68278524e-02	2.25379108e-04
3.03500000e-01	1.66551683e-02	2.22374057e-04
3.04000000e-01	1.67090791e-02	2.22996889e-04
3.04500000e-01	1.68914710e-02	2.24478358e-04
3.05000000e-01	1.66653761e-02	2.22033673e-04
3.05500000e-01	1.64672885e-02	2.19968439e-04
3.06000000e-01	1.67812798e-02	2.22288328e-04
3.06500000e-01	1.67676586e-02	2.23053302e-04
3.07000000e-01	1.64331350e-02	2.17942303e-04
3.07500000e-01	1.67352848e-02	2.21575427e-04
3.08000000e-01	1.66761498e-02	2.21059249e-04
3.08500000e-01	1.65146379e-02	2.19252221e-04
3.09000000e-01	1.68064295e-02	2.21541122e-04
3.09500000e-01	1.67291293e-02	2.19955876e-04
3.10000000e-01	1.67061109e-02	2.21041747e-04
3.10500000e-01	1.64874807e-02	2.17737712e-04
3.11000000e-01	1.65838611e-02	2.18555055e-04
3.11500000e-01	1.66463317e-02	2.18980619e-04
3.12000000e-01	1.64075188e-02	2.16070960e-04
3.12500000e-01	1.66017635e-02	2.17684306e-04
3.13000000e-01	1.64747852e-02	2.16301715e-04
3.13500000e-01	1.67113882e-02	2.19257812e-04
3.14000000e-01	1.64941147e-02	2.17153882e-04
3.14500000e-01	1.63720025e-02	2.14881958e-04
3.15000000e-01	1.67088098e-02	2.19464291e-04
3.15500000e-01	1.64344247e-02	2.15067064e-04
3.16000000e-01	1.65036059e-02	2.17064002e-04
3.16500000e-01	1.65634632e-02	2.16423604e-04
3.17000000e-01	1.65527550e-02	2.15414629e-04
3.17500000e-01	1.64861893e-02	2.15517941e-04
3.18000000e-01	1.65699016e-02	2.15858196e-04
3.18500000e-01	1.63576172e-02	2.14213595e-04
3.19000000e-01	1.64772854e-02	2.15201499e-04
3.19500000e-01	1.65100811e-02	2.14787695e-04
3.20000000e-01	1.65227176e-02	2.14622174e-04
3.20500000e-01	1.65864055e-02	2.15312274e-04
3.21000000e-01	1.65602525e-02	2.14866549e-04
3.21500000e-01	1.64364767e-02	2.12880454e-04
3.22000000e-01	1.64563212e-02	2.13221933e-04
3.22500000e-01	1.64175069e-02	2.13059904e-04
3.23000000e-01	1.62370931e-02	2.09568083e-04
3.23500000e-01	1.64877486e-02	2.13827531e-04
3.24000000e-01	1.63438532e-02	2.10993861e-04
3.24500000e-01	1.63313993e-02	2.11002315e-04
3.25000000e-01	1.62798979e-02	2.10174557e-04
3.25500000e-01	1.64245889e-02	2.11690466e-04
3.26000000e-01	1.62525661e-02	2.09333895e-04
3.26500000e-01	1.63854884e-02	2.10598675e-04
3.27000000e-01	1.61539249e-02	2.08789594e-04
3.27500000e-01	1.62744157e-02	2.08902822e-04
3.28000000e-01	1.61541019e-02	2.08881957e-04
3.28500000e-01	1.62656008e-02	2.08478227e-04
3.29000000e-01	1.61013197e-02	2.07204513e-04
3.29500000e-01	1.64091835e-02	2.10229890e-04
3.30000000e-01	1.61715274e-02	2.07336632e-04
3.30500000e-01	1.63232498e-02	2.08775707e-04
3.31000000e-01	1.63289287e-02	2.08301563e-04
3.31500000e-01	1.62419290e-02	2.06730049e-04
3.32000000e-01	1.63975410e-02	2.09665651e-04
3.32500000e-01	1.63629454e-02	2.08342266e-04
3.33000000e-01	1.60449834e-02	2.05122260e-04
3.33500000e-01	1.62344875e-02	2.06933964e-04
3.34000000e-01	1.61133792e-02	2.05744223e-04
3.34500000e-01	1.60675521e-02	2.05231927e-04
3.35000000e-01	1.63142758e-02	2.07569451e-04
3.35500000e-01	1.62011839e-02	2.06441141e-04
3.36000000e-01	1.59628327e-02	2.03439413e-04
3.36500000e-01	1.62215453e-02	2.06409545e-04
3.37000000e-01	1.61124152e-02	2.04436070e-04
3.37500000e-01	1.62101259e-02	2.05743257e-04
3.38000000e-01	1.61035452e-02	2.04408397e-04
3.38500000e-01	1.59616452e-02	2.01650046e-04
3.39000000e-01	1.60851599e-02	2.03544789e-04
3.39500000e-01	1.60395351e-02	2.02875834e-04
3.40000000e-01	1.59748667e-02	2.02147869e-04
3.40500000e-01	1.60557048e-02	2.03031457e-04
3.41000000e-01	1.60924533e-02	2.02436595e-04
3.41500000e-01	1.61185692e-02	2.03880971e-04
3.42000000e-01	1.59685022e-02	2.00853116e-04
3.42500000e-01	1.58949928e-02	2.01091685e-04
3.43000000e-01	1.61622682e-02	2.03017561e-04
3.43500000e-01	1.60630131e-02	2.01365536e-04
3.44000000e-01	1.60502910e-02	2.02773302e-04
3.44500000e-01	1.60008269e-02	2.01629737e-04
3.45000000e-01	1.59301312e-02	1.99211677e-04
3.45500000e-01	1.59187096e-02	1.99700628e-04
3.46000000e-01	1.59076351e-02	1.99400856e-04
3.46500000e-01	1.58798868e-02	1.98962576e-04
3.47000000e-01	1.58128970e-02	1.98074240e-04
3.47500000e-01	1.61080118e-02	2.01320738e-04
3.48000000e-01	1.59866056e-02	2.00045654e-04
3.48500000e-01	1.60767878e-02	2.00779685e-04
3.49000000e-01	1.59449978e-02	1.98758724e-04
3.49500000e-01	1.58467489e-02	1.98110110e-04
3.50000000e-01	1.58539751e-02	1.61529894e-04
3.51000000e-01	1.59278168e-02	1.40606536e-04
3.52000000e-01	1.59486313e-02	1.40393454e-04
3.53000000e-01	1.59176811e-02	1.39442842e-04
3.54000000e-01	1.57638344e-02	1.38178700e-04
3.55000000e-01	1.59075002e-02	1.39130382e-04
3.56000000e-01	1.59235334e-02	1.39574579e-04
3.57000000e-01	1.57616146e-02	1.40799083e-04
3.58000000e-01	1.57845576e-02	1.42547824e-04
3.59000000e-01	1.57069851e-02	1.42683927e-04
3.60000000e-01	1.57432715e-02	1.43857550e-04
3.61000000e-01	1.57019800e-02	1.44416644e-04
3.62000000e-01	1.56437294e-02	1.44314882e-04
3.63000000e-01	1.56453138e-02	1.44749921e-04
3.64000000e-01	1.56800878e-02	1.45980587e-04
3.65000000e-01	1.56753101e-02	1.46195459e-04
3.66000000e-01	1.56375346e-02	1.43974517e-04
3.67000000e-01	1.57523148e-02	1.43324874e-04
3.68000000e-01	1.55536805e-02	1.40510837e-04
3.69000000e-01	1.55986095e-02	1.40128370e-04
3.70000000e-01	1.56082960e-02	1.39356970e-04
3.71000000e-01	1.55547718e-02	1.41374341e-04
3.72000000e-01	1.57054439e-02	1.43020667e-04
3.73000000e-01	1.55419501e-02	1.42348648e-04
3.74000000e-01	1.56173966e-02	1.42362017e-04
3.75000000e-01	1.55337493e-02	1.42353465e-04
3.76000000e-01	1.55086737e-02	1.41793475e-04
3.77000000e-01	1.54839905e-02	1.41927608e-04
3.78000000e-01	1.55368499e-02	1.42287130e-04
3.79000000e-01	1.54940254e-02	1.41493163e-04
3.80000000e-01	1.54260122e-02	1.40772663e-04
3.81000000e-01	1.54830462e-02	1.41258402e-04
3.82000000e-01	1.53848503e-02	1.40590800e-04
3.83000000e-01	1.53118924e-02	1.39665760e-04
3.84000000e-01	1.54106786e-02	1.40868540e-04
3.85000000e-01	1.52783154e-02	1.39888392e-04
3.86000000e-01	1.52671912e-02	1.39643663e-04
3.87000000e-01	1.54577260e-02	1.40905768e-04
3.88000000e-01	1.52711385e-02	1.39431839e-04
3.89000000e-01	1.52769770e-02	1.39454742e-04
3.90000000e-01	1.53015358e-02	1.39465868e-04
3.91000000e-01	1.53699012e-02	1.39756649e-04
3.92000000e-01	1.51353518e-02	1.38025165e-04
3.93000000e-01	1.53518026e-02	1.39837321e-04
3.94000000e-01	1.53577803e-02	1.39446984e-04
3.95000000e-01	1.52738856e-02	1.38778831e-04
3.96000000e-01	1.52254622e-02	1.38665991e-04
3.97000000e-01	1.52825871e-02	1.38895882e-04
3.98000000e-01	1.51348519e-02	1.38295445e-04
3.99000000e-01	1.51697857e-02	1.38370734e-04
4.00000000e-01	1.52274330e-02	1.38812781e-04
4.01000000e-01	1.50903723e-02	1.37511168e-04
4.02000000e-01	1.50251752e-02	1.37115481e-04
4.03000000e-01	1.51429093e-02	1.38000971e-04
4.04000000e-01	1.51005127e-02	1.37466796e-04
4.05000000e-01	1.51224073e-02	1.37339242e-04
4.06000000e-01	1.51126939e-02	1.37599649e-04
4.07000000e-01	1.50182679e-02	1.36891499e-04
4.08000000e-01	1.51395857e-02	1.37911743e-04
4.09000000e-01	1.51117539e-02	1.37323000e-04
4.10000000e-01	1.50839055e-02	1.36920078e-04
4.11000000e-01	1.49184526e-02	1.35504419e-04
4.12000000e-01	1.49851069e-02	1.36254223e-04
4.13000000e-01	1.49531088e-02	1.35983019e-04
4.14000000e-01	1.50213819e-02	1.36303029e-04
4.15000000e-01	1.49525406e-02	1.35947238e-04
4.16000000e-01	1.50743721e-02	1.36664224e-04
4.17000000e-01	1.50126584e-02	1.36129323e-04
4.18000000e-01	1.49330029e-02	1.37032273e-04
4.19000000e-01	1.50398294e-02	1.39332507e-04
4.20000000e-01	1.49901530e-02	1.39651143e-04
4.21000000e-01	1.50516400e-02	1.40778311e-04
4.22000000e-01	1.51241594e-02	1.42154891e-04
4.23000000e-01	1.50356082e-02	1.41720501e-04
4.24000000e-01	1.50469030e-02	1.42133394e-04
4.25000000e-01	1.50295418e-02	1.42349992e-04
4.26000000e-01	1.50361156e-02	1.42336697e-04
4.27000000e-01	1.51634821e-02	1.43944856e-04
4.28000000e-01	1.49558321e-02	1.41869007e-04
4.29000000e-01	1.50665923e-02	1.43614243e-04
4.30000000e-01	1.50540156e-02	1.42925220e-04
4.31000000e-01	1.49893712e-02	1.42076234e-04
4.32000000e-01	1.48588333e-02	1.41498440e-04
4.33000000e-01	1.49673148e-02	1.42120779e-04
4.34000000e-01	1.47594788e-02	1.40391270e-04
4.35000000e-01	1.49532054e-02	1.42225032e-04
4.36000000e-01	1.48714020e-02	1.41620507e-04
4.37000000e-01	1.48336781e-02	1.41403610e-04
4.38000000e-01	1.47747971e-02	1.41439346e-04
4.39000000e-01	1.48500097e-02	1.42797885e-04
4.40000000e-01	1.48795173e-02	1.42726323e-04
4.41000000e-01	1.47461861e-02	1.41541407e-04
4.42000000e-01	1.49519252e-02	1.43713893e-04
4.43000000e-01	1.47299991e-02	1.42233259e-04
4.44000000e-01	1.48929063e-02	1.43076957e-04
4.45000000e-01	1.47986093e-02	1.42565465e-04
4.46000000e-01	1.48426132e-02	1.42932495e-04
4.47000000e-01	1.48211945e-02	1.43394935e-04
4.48000000e-01	1.47223488e-02	1.42376034e-04
4.49000000e-01	1.47479782e-02	1.42914492e-04
4.50000000e-01	1.46299278e-02	1.41852952e-04
4.51000000e-01	1.48660246e-02	1.44044758e-04
4.52000000e-01	1.47839417e-02	1.43790069e-04
4.53000000e-01	1.47473585e-02	1.43596551e-04
4.54000000e-01	1.48814537e-02	1.44373042e-04
4.55000000e-01	1.47456257e-02	1.43588570e-04
4.56000000e-01	1.46637432e-02	1.43102835e-04
4.57000000e-01	1.46400226e-02	1.43176204e-04
4.58000000e-01	1.47225885e-02	1.44048704e-04
4.59000000e-01	1.46884927e-02	1.43824245e-04
4.60000000e-01	1.46440636e-02	1.43329955e-04
4.61000000e-01	1.46951495e-02	1.43892171e-04
4.62000000e-01	1.45689021e-02	1.42703803e-04
4.63000000e-01	1.46587348e-02	1.43714389e-04
4.64000000e-01	1.46764727e-02	1.44309779e-04
4.65000000e-01	1.44837258e-02	1.42960426e-04
4.66000000e-01	1.45558920e-02	1.43313148e-04
4.67000000e-01	1.46258455e-02	1.43918235e-04
4.68000000e-01	1.46094367e-02	1.43817037e-04
4.69000000e-01	1.46831579e-02	1.44408642e-04
4.70000000e-01	1.46231883e-02	1.44112001e-04
4.71000000e-01	1.46567461e-02	1.44223755e-04
4.72000000e-01	1.44092067e-02	1.42334592e-04
4.73000000e-01	1.45723307e-02	1.43667834e-04
4.74000000e-01	1.45281133e-02	1.42841841e-04
4.75000000e-01	1.44764178e-02	1.42323346e-04
4.76000000e-01	1.44445830e-02	1.42237567e-04
4.77000000e-01	1.45078434e-02	1.42785940e-04
4.78000000e-01	1.44396230e-02	1.42376334e-04
4.79000000e-01	1.45402183e-02	1.43039633e-04
4.80000000e-01	1.45071848e-02	1.43354948e-04
4.81000000e-01	1.44163582e-02	1.42617189e-04
4.82000000e-01	1.45073576e-02	1.43421043e-04
4.83000000e-01	1.43866840e-02	1.42359786e-04
4.84000000e-01	1.43376536e-02	1.42379304e-04
4.85000000e-01	1.45015888e-02	1.43196523e-04
4.86000000e-01	1.43316804e-02	1.42432325e-04
4.87000000e-01	1.43724089e-02	1.42416756e-04
4.88000000e-01	1.44373599e-02	1.42822480e-04
4.89000000e-01	1.43890441e-02	1.42368241e-04
4.90000000e-01	1.44245602e-02	1.42625163e-04
4.91000000e-01	1.42429898e-02	1.41702364e-04
4.92000000e-01	1.43803512e-02	1.43273494e-04
4.93000000e-01	1.45000136e-02	1.43876545e-04
4.94000000e-01	1.43085175e-02	1.43140570e-04
4.95000000e-01	1.43363157e-02	1.43972236e-04
4.96000000e-01	1.42965499e-02	1.47440412e-04
4.97000000e-01	1.44981866e-02	1.52107805e-04
4.98000000e-01	1.44269477e-02	1.53412638e-04
4.99000000e-01	1.44539875e-02	1.56148679e-04
5.00000000e-01	1.44069551e-02	1.56824470e-04
5.01000000e-01	1.44543386e-02	1.58842398e-04
5.02000000e-01	1.44016764e-02	1.60134846e-04
5.03000000e-01	1.43744472e-02	1.61053074e-04
5.04000000e-01	1.44220116e-02	1.62463003e-04
5.05000000e-01	1.43035531e-02	1.59196363e-04
5.06000000e-01	1.43857064e-02	1.56731184e-04
5.07000000e-01	1.44356499e-02	1.55429866e-04
5.08000000e-01	1.42590352e-02	1.52741827e-04
5.09000000e-01	1.43864362e-02	1.53017656e-04
5.10000000e-01	1.42314814e-02	1.51155306e-04
5.11000000e-01	1.43894520e-02	1.52204572e-04
5.12000000e-01	1.43296373e-02	1.51417551e-04
5.13000000e-01	1.43436723e-02	1.51098482e-04
5.14000000e-01	1.42907294e-02	1.50207324e-04
5.15000000e-01	1.41860826e-02	1.48975172e-04
5.16000000e-01	1.42627725e-02	1.49732940e-04
5.17000000e-01	1.42911035e-02	1.49546997e-04
5.18000000e-01	1.41770871e-02	1.48359513e-04
5.19000000e-01	1.42710316e-02	1.48459528e-04
5.20000000e-01	1.42440170e-02	1.48115111e-04
5.21000000e-01	1.41731765e-02	1.47143679e-04
5.22000000e-01	1.40807796e-02	1.46428614e-04
5.23000000e-01	1.41165272e-02	1.46327998e-04
5.24000000e-01	1.40686480e-02	1.46219444e-04
5.25000000e-01	1.42451199e-02	1.47192534e-04
5.26000000e-01	1.40715265e-02	1.45782781e-04
5.27000000e-01	1.41934618e-02	1.46857641e-04
5.28000000e-01	1.39180080e-02	1.44956036e-04
5.29000000e-01	1.40522100e-02	1.46048652e-04
5.30000000e-01	1.39524611e-02	1.45441845e-04
5.31000000e-01	1.41177809e-02	1.46518134e-04
5.32000000e-01	1.39891271e-02	1.45477501e-04
5.33000000e-01	1.40093727e-02	1.45396887e-04
5.34000000e-01	1.39254740e-02	1.45217322e-04
5.35000000e-01	1.39794276e-02	1.45028289e-04
5.36000000e-01	1.38724737e-02	1.43976786e-04
5.37000000e-01	1.39620880e-02	1.45227914e-04
5.38000000e-01	1.39730911e-02	1.45120578e-04
5.39000000e-01	1.40462977e-02	1.45643662e-04
5.40000000e-01	1.39255147e-02	1.44743497e-04
5.41000000e-01	1.39132834e-02	1.44193671e-04
5.42000000e-01	1.38860911e-02	1.44321358e-04
5.43000000e-01	1.38442266e-02	1.44065158e-04
5.44000000e-01	1.39103001e-02	1.44544491e-04
5.45000000e-01	1.38198192e-02	1.43423581e-04
5.46000000e-01	1.39282655e-02	1.44715080e-04
5.47000000e-01	1.39570856e-02	1.45195859e-04
5.48000000e-01	1.38369939e-02	1.43907821e-04
5.49000000e-01	1.38399805e-02	1.43530485e-04
5.50000000e-01	1.38129136e-02	1.43333166e-04
5.51000000e-01	1.38949097e-02	1.43496151e-04
5.52000000e-01	1.38393862e-02	1.43313978e-04
5.53000000e-01	1.36726356e-02	1.41344208e-04
5.54000000e-01	1.38785136e-02	1.43028238e-04
5.55000000e-01	1.38047404e-02	1.41786763e-04
5.56000000e-01	1.37353936e-02	1.41652457e-04
5.57000000e-01	1.37479826e-02	1.41517257e-04
5.58000000e-01	1.37480855e-02	1.41736734e-04
5.59000000e-01	1.37294272e-02	1.41691725e-04
5.60000000e-01	1.37965191e-02	1.42513704e-04
5.61000000e-01	1.36777750e-02	1.41593047e-04
5.62000000e-01	1.37973258e-02	1.42933140e-04
5.63000000e-01	1.37164143e-02	1.41850634e-04
5.64000000e-01	1.36976763e-02	1.41327936e-04
5.65000000e-01	1.37646784e-02	1.42203742e-04
5.66000000e-01	1.36604515e-02	1.41364405e-04
5.67000000e-01	1.36852186e-02	1.41601448e-04
5.68000000e-01	1.36442046e-02	1.41286809e-04
5.69000000e-01	1.36677921e-02	1.41012184e-04
5.70000000e-01	1.36212500e-02	1.40481112e-04
5.71000000e-01	1.36936703e-02	1.40881110e-04
5.72000000e-01	1.35425273e-02	1.39843655e-04
5.73000000e-01	1.35744971e-02	1.40416006e-04
5.74000000e-01	1.35087715e-02	1.39742175e-04
5.75000000e-01	1.34074360e-02	1.39002277e-04
5.76000000e-01	1.34111279e-02	1.38904393e-04
5.77000000e-01	1.35954981e-02	1.40825154e-04
5.78000000e-01	1.34831025e-02	1.39774678e-04
5.79000000e-01	1.33355977e-02	1.38163741e-04
5.80000000e-01	1.34743175e-02	1.40005110e-04
5.81000000e-01	1.34123607e-02	1.38902192e-04
5.82000000e-01	1.33169197e-02	1.38474543e-04
5.83000000e-01	1.34888917e-02	1.39853839e-04
5.84000000e-01	1.35085180e-02	1.39793372e-04
5.85000000e-01	1.34677281e-02	1.39608620e-04
5.86000000e-01	1.35473541e-02	1.40799264e-04
5.87000000e-01	1.35059000e-02	1.40278455e-04
5.88000000e-01	1.35189809e-02	1.40437447e-04
5.89000000e-01	1.34030651e-02	1.39143019e-04
5.90000000e-01	1.33618009e-02	1.38644201e-04
5.91000000e-01	1.35288910e-02	1.40586668e-04
5.92000000e-01	1.33308958e-02	1.38573042e-04
5.93000000e-01	1.34733670e-02	1.40001062e-04
5.94000000e-01	1.32361173e-02	1.37569291e-04
5.95000000e-01	1.33861032e-02	1.39426187e-04
5.96000000e-01	1.33342444e-02	1.38584712e-04
5.97000000e-01	1.32720189e-02	1.37860168e-04
5.98000000e-01	1.32891179e-02	1.38119977e-04
5.99000000e-01	1.33596764e-02	1.38838494e-04
6.00000000e-01	1.32966501e-02	1.38462598e-04
6.01000000e-01	1.34845007e-02	1.40333918e-04
6.02000000e-01	1.33129696e-02	1.38913792e-04
6.03000000e-01	1.32114366e-02	1.38150721e-04
6.04000000e-01	1.32578517e-02	1.38032296e-04
6.05000000e-01	1.33250619e-02	1.38564725e-04
6.06000000e-01	1.33463596e-02	1.38537882e-04
6.07000000e-01	1.32600536e-02	1.38133604e-04
6.08000000e-01	1.32815941e-02	1.38571368e-04
6.09000000e-01	1.32361681e-02	1.38014456e-04
6.10000000e-01	1.31223492e-02	1.37004539e-04
6.11000000e-01	1.31556343e-02	1.37508155e-04
6.12000000e-01	1.30980409e-02	1.36753747e-04
6.13000000e-01	1.33092046e-02	1.38996267e-04
6.14000000e-01	1.33521196e-02	1.38713014e-04
6.15000000e-01	1.32294244e-02	1.37702851e-04
6.16000000e-01	1.32612982e-02	1.38065025e-04
6.17000000e-01	1.31986607e-02	1.37511452e-04
6.18000000e-01	1.31608456e-02	1.37444400e-04
6.19000000e-01	1.30951357e-02	1.36055654e-04
6.20000000e-01	1.31821234e-02	1.36987371e-04
6.21000000e-01	1.29786130e-02	1.35219531e-04
6.22000000e-01	1.29912994e-02	1.35251867e-04
6.23000000e-01	1.30902570e-02	1.36025693e-04
6.24000000e-01	1.32343361e-02	1.36964275e-04
6.25000000e-01	1.31213062e-02	1.35905666e-04
6.26000000e-01	1.31043512e-02	1.35348750e-04
6.27000000e-01	1.29723784e-02	1.34788368e-04
6.28000000e-01	1.30840621e-02	1.35511572e-04
6.29000000e-01	1.31275210e-02	1.35977420e-04
6.30000000e-01	1.30399103e-02	1.35464934e-04
6.31000000e-01	1.31034071e-02	1.35507037e-04
6.32000000e-01	1.30312571e-02	1.35030660e-04
6.33000000e-01	1.30873374e-02	1.35220760e-04
6.34000000e-01	1.30205160e-02	1.37861942e-04
6.35000000e-01	1.32579869e-02	1.44759248e-04
6.36000000e-01	1.32135254e-02	1.47087113e-04
6.37000000e-01	1.31619720e-02	1.49070032e-04
6.38000000e-01	1.30300423e-02	1.49030868e-04
6.39000000e-01	1.30143944e-02	1.51315308e-04
6.40000000e-01	1.32400014e-02	1.55485362e-04
6.41000000e-01	1.30613471e-02	1.54760640e-04
6.42000000e-01	1.30118309e-02	1.56610042e-04
6.43000000e-01	1.30530512e-02	1.57265744e-04
6.44000000e-01	1.31374509e-02	1.51837722e-04
6.45000000e-01	1.30915181e-02	1.48867350e-04
6.46000000e-01	1.32009071e-02	1.48644550e-04
6.47000000e-01	1.32196424e-02	1.47602687e-04
6.48000000e-01	1.30262620e-02	1.45323298e-04
6.49000000e-01	1.31433572e-02	1.45381529e-04
6.50000000e-01	1.31763335e-02	1.44849529e-04
6.51000000e-01	1.29833289e-02	1.42650126e-04
6.52000000e-01	1.30842037e-02	1.43094983e-04
6.53000000e-01	1.29825061e-02	1.41956405e-04
6.54000000e-01	1.30242703e-02	1.41730544e-04
6.55000000e-01	1.31413702e-02	1.42423237e-04
6.56000000e-01	1.30359271e-02	1.41116957e-04
6.57000000e-01	1.30135690e-02	1.40844924e-04
6.58000000e-01	1.29761504e-02	1.40455284e-04
6.59000000e-01	1.29477530e-02	1.39934881e-04
6.60000000e-01	1.30451579e-02	1.41309452e-04
6.61000000e-01	1.29850071e-02	1.39986568e-04
6.62000000e-01	1.30296913e-02	1.40890551e-04
6.63000000e-01	1.30867439e-02	1.41291588e-04
6.64000000e-01	1.30203791e-02	1.40394268e-04
6.65000000e-01	1.29746411e-02	1.39979253e-04
6.66000000e-01	1.30688755e-02	1.40251926e-04
6.67000000e-01	1.29124088e-02	1.38763332e-04
6.68000000e-01	1.29538548e-02	1.39573451e-04
6.69000000e-01	1.29964278e-02	1.39622320e-04
6.70000000e-01	1.28618784e-02	1.38128294e-04
6.71000000e-01	1.30043126e-02	1.39587877e-04
6.72000000e-01	1.29142175e-02	1.38855751e-04
6.73000000e-01	1.29905313e-02	1.39283678e-04
6.74000000e-01	1.29008865e-02	1.38469958e-04
6.75000000e-01	1.28539163e-02	1.38167329e-04
6.76000000e-01	1.28792271e-02	1.38611015e-04
6.77000000e-01	1.30127655e-02	1.39835932e-04
6.78000000e-01	1.28490228e-02	1.37962860e-04
6.79000000e-01	1.27858959e-02	1.36681934e-04
6.80000000e-01	1.28570333e-02	1.37940450e-04
6.81000000e-01	1.29264781e-02	1.38706972e-04
6.82000000e-01	1.26992201e-02	1.36227141e-04
6.83000000e-01	1.27112506e-02	1.36190524e-04
6.84000000e-01	1.28094435e-02	1.37467426e-04
6.85000000e-01	1.28011302e-02	1.37422853e-04
6.86000000e-01	1.28783288e-02	1.37729574e-04
6.87000000e-01	1.27695607e-02	1.37077829e-04
6.88000000e-01	1.27122453e-02	1.36419871e-04
6.89000000e-01	1.28011560e-02	1.36969382e-04
6.90000000e-01	1.27969883e-02	1.37453566e-04
6.91000000e-01	1.27903468e-02	1.37139428e-04
6.92000000e-01	1.25812225e-02	1.35304989e-04
6.93000000e-01	1.27057060e-02	1.36372781e-04
6.94000000e-01	1.26761314e-02	1.35707944e-04
6.95000000e-01	1.27354806e-02	1.36247782e-04
6.96000000e-01	1.27723833e-02	1.37054029e-04
6.97000000e-01	1.27238078e-02	1.36326222e-04
6.98000000e-01	1.27821377e-02	1.36906968e-04
6.99000000e-01	1.27300052e-02	1.36053905e-04
7.00000000e-01	1.27134784e-02	1.35629046e-04
7.01000000e-01	1.28353657e-02	1.36792395e-04
7.02000000e-01	1.25778417e-02	1.34539284e-04
7.03000000e-01	1.26043961e-02	1.34998226e-04
7.04000000e-01	1.25889086e-02	1.35379049e-04
7.05000000e-01	1.26441656e-02	1.35156720e-04
7.06000000e-01	1.26116545e-02	1.34789399e-04
7.07000000e-01	1.25853932e-02	1.34595986e-04
7.08000000e-01	1.26215531e-02	1.34346084e-04
7.09000000e-01	1.25583186e-02	1.34460729e-04
7.10000000e-01	1.24445698e-02	1.33338682e-04
7.11000000e-01	1.24863148e-02	1.33530940e-04
7.12000000e-01	1.23667270e-02	1.32201019e-04
7.13000000e-01	1.25576511e-02	1.34492715e-04
7.14000000e-01	1.24576174e-02	1.33385365e-04
7.15000000e-01	1.24673574e-02	1.32921428e-04
7.16000000e-01	1.22994936e-02	1.32038960e-04
7.17000000e-01	1.24290301e-02	1.33195672e-04
7.18000000e-01	1.25073834e-02	1.34019935e-04
7.19000000e-01	1.24125507e-02	1.32556240e-04
7.20000000e-01	1.23100751e-02	1.31862063e-04
7.21000000e-01	1.24552216e-02	1.33546428e-04
7.22000000e-01	1.24373557e-02	1.33324735e-04
7.23000000e-01	1.23205174e-02	1.31795036e-04
7.24000000e-01	1.23994804e-02	1.32612474e-04
7.25000000e-01	1.24037383e-02	1.33092128e-04
7.26000000e-01	1.24571560e-02	1.32797863e-04
7.27000000e-01	1.23802838e-02	1.32446106e-04
7.28000000e-01	1.22889704e-02	1.31612935e-04
7.29000000e-01	1.23039057e-02	1.32084524e-04
7.30000000e-01	1.23613282e-02	1.32352024e-04
7.31000000e-01	1.22741695e-02	1.31916219e-04
7.32000000e-01	1.21825173e-02	1.31025724e-04
7.33000000e-01	1.22589351e-02	1.31861798e-04
7.34000000e-01	1.23367665e-02	1.32478293e-04
7.35000000e-01	1.23222091e-02	1.32034446e-04
7.36000000e-01	1.21820096e-02	1.29553561e-04
7.37000000e-01	1.21997130e-02	1.29901499e-04
7.38000000e-01	1.23222646e-02	1.31249401e-04
7.39000000e-01	1.23887507e-02	1.31476394e-04
7.40000000e-01	1.23046619e-02	1.30897577e-04
7.41000000e-01	1.23062760e-02	1.30377530e-04
7.42000000e-01	1.21512894e-02	1.29304938e-04
7.43000000e-01	1.20768214e-02	1.28384909e-04
7.44000000e-01	1.21672294e-02	1.28844781e-04
7.45000000e-01	1.22872057e-02	1.30603304e-04
7.46000000e-01	1.20387352e-02	1.27857208e-04
7.47000000e-01	1.21812451e-02	1.29704358e-04
7.48000000e-01	1.21455717e-02	1.28814743e-04
7.49000000e-01	1.22504859e-02	1.30085910e-04
7.50000000e-01	1.21264602e-02	1.28807643e-04
7.51000000e-01	1.21570786e-02	1.28977670e-04
7.52000000e-01	1.20478965e-02	1.27832115e-04
7.53000000e-01	1.21305739e-02	1.29194683e-04
7.54000000e-01	1.21243707e-02	1.29180086e-04
7.55000000e-01	1.20079484e-02	1.27844183e-04
7.56000000e-01	1.21535069e-02	1.29111979e-04
7.57000000e-01	1.20864993e-02	1.28816558e-04
7.58000000e-01	1.20522131e-02	1.27807287e-04
7.59000000e-01	1.20539495e-02	1.27859962e-04
7.60000000e-01	1.21588367e-02	1.28866270e-04
7.61000000e-01	1.20973669e-02	1.27878121e-04
7.62000000e-01	1.19422859e-02	1.26528568e-04
7.63000000e-01	1.20685883e-02	1.27558164e-04
7.64000000e-01	1.19255039e-02	1.25699046e-04
7.65000000e-01	1.18963349e-02	1.25129793e-04
7.66000000e-01	1.20459139e-02	1.26813604e-04
7.67000000e-01	1.17928708e-02	1.24467048e-04
7.68000000e-01	1.18874430e-02	1.25609192e-04
7.69000000e-01	1.18897725e-02	1.25735474e-04
7.70000000e-01	1.19233666e-02	1.25723487e-04
7.71000000e-01	1.19133519e-02	1.25653313e-04
7.72000000e-01	1.18435113e-02	1.28387867e-04
7.73000000e-01	1.19866632e-02	1.34082518e-04
7.74000000e-01	1.18860245e-02	1.36165867e-04
7.75000000e-01	1.20238839e-02	1.39658212e-04
7.76000000e-01	1.20041595e-02	1.41495503e-04
7.77000000e-01	1.17502688e-02	1.41833149e-04
7.78000000e-01	1.18824430e-02	1.44364575e-04
7.79000000e-01	1.17651319e-02	1.44850522e-04
7.80000000e-01	1.18312293e-02	1.46724956e-04
7.81000000e-01	1.17424447e-02	1.48146668e-04
7.82000000e-01	1.18198418e-02	1.50699319e-04
7.83000000e-01	1.18467438e-02	1.52587279e-04
7.84000000e-01	1.17410370e-02	1.53101674e-04
7.85000000e-01	1.19122249e-02	1.56147451e-04
7.86000000e-01	1.16316504e-02	1.55202650e-04
7.87000000e-01	1.16031657e-02	1.55530303e-04
7.88000000e-01	1.16025731e-02	1.57758994e-04
7.89000000e-01	1.18095110e-02	1.61188594e-04
7.90000000e-01	1.15812120e-02	1.59901458e-04
7.91000000e-01	1.15320560e-02	1.61471952e-04
7.92000000e-01	1.17370419e-02	1.65658878e-04
7.93000000e-01	1.16210739e-02	1.65671905e-04
7.94000000e-01	1.17550960e-02	1.69169181e-04
7.95000000e-01	1.15353468e-02	1.68233474e-04
7.96000000e-01	1.14677633e-02	1.69608112e-04
7.97000000e-01	1.16435892e-02	1.72496658e-04
7.98000000e-01	1.16660020e-02	1.74986077e-04
7.99000000e-01	1.15789835e-02	1.75356882e-04
8.00000000e-01	1.16004727e-02	1.76745365e-04
8.01000000e-01	1.15828775e-02	1.80406252e-04
8.02000000e-01	1.15591170e-02	1.80178192e-04
8.03000000e-01	1.16274280e-02	1.84159965e-04
8.04000000e-01	1.15399198e-02	1.84881597e-04
8.05000000e-01	1.15877051e-02	1.87715466e-04
8.06000000e-01	1.15425077e-02	1.89019526e-04
8.07000000e-01	1.13935712e-02	1.88476363e-04
8.08000000e-01	1.14931259e-02	1.91320583e-04
8.09000000e-01	1.15607751e-02	1.94974064e-04
8.10000000e-01	1.16868769e-02	1.99194160e-04
8.11000000e-01	1.15311282e-02	1.98460052e-04
8.12000000e-01	1.14075479e-02	1.98854961e-04
8.13000000e-01	1.12103233e-02	1.97863194e-04
8.14000000e-01	1.14254889e-02	2.03522609e-04
8.15000000e-01	1.14088263e-02	2.05311711e-04
8.16000000e-01	1.12901947e-02	2.07348145e-04
8.17000000e-01	1.14830746e-02	2.11347451e-04
8.18000000e-01	1.12964137e-02	2.11859192e-04
8.19000000e-01	1.13498691e-02	2.15721524e-04
8.20000000e-01	1.11634337e-02	2.16415768e-04
8.21000000e-01	1.12452204e-02	2.18733592e-04
8.22000000e-01	1.12375570e-02	2.22197541e-04
8.23000000e-01	1.09676685e-02	2.20257721e-04
8.24000000e-01	1.11412185e-02	2.26446856e-04
8.25000000e-01	1.12767036e-02	2.31365179e-04
8.26000000e-01	1.10725407e-02	2.31393601e-04
8.27000000e-01	1.11498653e-02	2.36457054e-04
8.28000000e-01	1.12029656e-02	2.40800873e-04
8.29000000e-01	1.13180429e-02	2.47979199e-04
8.30000000e-01	1.08271714e-02	2.41551084e-04
8.31000000e-01	1.10701520e-02	2.49107425e-04
8.32000000e-01	1.10064793e-02	2.52352914e-04
8.33000000e-01	1.10548209e-02	2.58442871e-04
8.34000000e-01	1.11024100e-02	2.64614332e-04
8.35000000e-01	1.11055638e-02	2.67018463e-04
8.36000000e-01	1.08588377e-02	2.68259395e-04
8.37000000e-01	1.09589942e-02	2.75732048e-04
8.38000000e-01	1.07060121e-02	2.74295939e-04
8.39000000e-01	1.09007186e-02	2.86495337e-04
8.40000000e-01	1.11788150e-02	2.94449540e-04
8.41000000e-01	1.10522839e-02	3.01824606e-04
8.42000000e-01	1.08081736e-02	3.04798338e-04
8.43000000e-01	1.09441032e-02	3.15435455e-04
8.44000000e-01	1.06491503e-02	3.12003343e-04
8.45000000e-01	1.05930466e-02	3.19383622e-04
8.46000000e-01	1.08459999e-02	3.35534512e-04
8.47000000e-01	1.08313739e-02	3.45485453e-04
8.48000000e-01	1.10039722e-02	3.63439376e-04
8.49000000e-01	1.07701170e-02	3.69565401e-04
8.50000000e-01	1.09047189e-02	3.80213325e-04
8.51000000e-01	1.10322160e-02	4.01986340e-04
8.52000000e-01	1.08653182e-02	4.08023642e-04
8.53000000e-01	1.11778254e-02	4.42770550e-04
8.54000000e-01	1.07797288e-02	4.47048915e-04
8.55000000e-01	1.08629310e-02	4.66689649e-04
8.56000000e-01	1.06772397e-02	4.63590275e-04
8.57000000e-01	1.07751970e-02	4.86796017e-04
8.58000000e-01	1.11694141e-02	5.21423657e-04
8.59000000e-01	1.05915546e-02	5.11679373e-04
8.60000000e-01	1.01712372e-02	5.07296362e-04
8.61000000e-01	1.03365226e-02	5.28486218e-04
8.62000000e-01	1.05050862e-02	5.64212644e-04
8.63000000e-01	1.05613494e-02	5.84716562e-04
8.64000000e-01	1.06391614e-02	6.12514774e-04
8.65000000e-01	1.03030727e-02	6.29165259e-04
8.66000000e-01	1.00524312e-02	6.47278601e-04
8.67000000e-01	1.10017936e-02	7.43749036e-04
8.68000000e-01	1.04642255e-02	7.51317717e-04
8.69000000e-01	9.93153197e-03	7.74300033e-04
8.70000000e-01	1.06561463e-02	8.97409592e-04
8.71000000e-01	9.00558897e-03	8.68817669e-04
8.72000000e-01	1.11118388e-02	1.14876602e-03
8.73000000e-01	1.05768524e-02	1.34192653e-03
8.74000000e-01	1.10272151e-02	1.81546028e-03
8.75000000e-01	1.01907908e-02	3.93816478e-03
