% Filename : SDL7_00012_00043.h5
% Date & Time : 30-Oct-2025 14:48:39
% X-ray Energy (keV) : 13.30001
% Exposure Time (s) : 0.500
% Beam Center : 1461.24000, 208.98300
% Sample to Detector Distance (SDD) (mm) : 1990.750
% Detector Pixel Size (mm) : 0.075
% Photodiode Value : 135902.000
% I0 of Sample : 0
% I0 of Standard : 1
% 
% q(A^-1)   I(q)    I(q)_SE
0.00000000e+00	1.32939324e-02	7.28138429e-03
2.50000000e-04	0.00000000e+00	0.00000000e+00
5.00000000e-04	0.00000000e+00	0.00000000e+00
7.50000000e-04	0.00000000e+00	0.00000000e+00
1.00000000e-03	0.00000000e+00	0.00000000e+00
1.25000000e-03	0.00000000e+00	0.00000000e+00
1.50000000e-03	0.00000000e+00	0.00000000e+00
1.75000000e-03	0.00000000e+00	0.00000000e+00
2.00000000e-03	0.00000000e+00	0.00000000e+00
2.25000000e-03	0.00000000e+00	0.00000000e+00
2.50000000e-03	0.00000000e+00	0.00000000e+00
2.75000000e-03	0.00000000e+00	0.00000000e+00
3.00000000e-03	0.00000000e+00	0.00000000e+00
3.25000000e-03	2.52887308e+01	1.47213984e+01
3.50000000e-03	1.08336516e+01	4.32211793e+00
3.75000000e-03	6.19963349e+00	2.13717979e+00
4.00000000e-03	5.51776197e+00	1.81378393e+00
4.25000000e-03	3.12264219e+00	9.85573224e-01
4.50000000e-03	4.51004172e+00	1.33213591e+00
4.75000000e-03	5.94751975e+00	1.62221790e+00
5.00000000e-03	4.53263165e+00	1.20120101e+00
5.25000000e-03	3.76612214e+00	9.88545264e-01
5.50000000e-03	3.05706280e+00	7.88990192e-01
5.75000000e-03	2.63267686e+00	6.64129706e-01
6.00000000e-03	2.07068065e+00	5.05736437e-01
6.25000000e-03	1.79306310e+00	4.36380899e-01
6.50000000e-03	1.52340728e+00	3.68472058e-01
6.75000000e-03	1.27567756e+00	2.97096778e-01
7.00000000e-03	1.11006871e+00	2.53814667e-01
7.25000000e-03	9.59118015e-01	2.17315091e-01
7.50000000e-03	8.04422688e-01	1.83003413e-01
7.75000000e-03	7.39030081e-01	1.64352781e-01
8.00000000e-03	6.70853951e-01	1.47807265e-01
8.25000000e-03	5.65443799e-01	1.21381845e-01
8.50000000e-03	5.14369134e-01	1.09157145e-01
8.75000000e-03	4.61611187e-01	9.65078823e-02
9.00000000e-03	4.16088192e-01	8.57087893e-02
9.25000000e-03	3.68699233e-01	7.47848314e-02
9.50000000e-03	3.26631857e-01	6.55921230e-02
9.75000000e-03	2.95172685e-01	5.78010397e-02
1.00000000e-02	2.55421711e-01	5.03079400e-02
1.02500000e-02	2.51102400e-01	4.91947282e-02
1.05000000e-02	2.25717924e-01	4.23325623e-02
1.07500000e-02	2.10323708e-01	3.96981960e-02
1.10000000e-02	1.87446592e-01	3.44353366e-02
1.12500000e-02	1.71292227e-01	3.10058033e-02
1.15000000e-02	1.63384638e-01	2.92805323e-02
1.17500000e-02	1.40682922e-01	2.51616310e-02
1.20000000e-02	1.37794300e-01	2.43935660e-02
1.22500000e-02	1.31132497e-01	2.15268155e-02
1.25000000e-02	1.25746035e-01	2.09470905e-02
1.27500000e-02	1.17700747e-01	1.96216414e-02
1.30000000e-02	1.09410758e-01	1.74770457e-02
1.32500000e-02	1.01735041e-01	1.61274539e-02
1.35000000e-02	9.61431389e-02	1.49200299e-02
1.37500000e-02	8.98162626e-02	1.37047925e-02
1.40000000e-02	8.46494611e-02	1.24102662e-02
1.42500000e-02	7.87351891e-02	1.12760468e-02
1.45000000e-02	7.63206094e-02	1.09075515e-02
1.47500000e-02	7.46412811e-02	1.04363713e-02
1.50000000e-02	7.09579133e-02	9.57422131e-03
1.52500000e-02	6.33518958e-02	8.40286820e-03
1.55000000e-02	6.27009969e-02	7.97657637e-03
1.57500000e-02	6.04785185e-02	7.58739610e-03
1.60000000e-02	5.76215837e-02	7.16695945e-03
1.62500000e-02	5.90385237e-02	7.11987857e-03
1.65000000e-02	5.41169108e-02	6.25737915e-03
1.67500000e-02	5.03258473e-02	5.75220616e-03
1.70000000e-02	4.89685650e-02	5.50620236e-03
1.72500000e-02	4.87115437e-02	5.40750175e-03
1.75000000e-02	4.66715582e-02	5.12532771e-03
1.77500000e-02	4.47858485e-02	4.65045208e-03
1.80000000e-02	4.27892195e-02	4.27569784e-03
1.82500000e-02	4.19821759e-02	4.11190375e-03
1.85000000e-02	4.11877553e-02	4.07736755e-03
1.87500000e-02	3.98334974e-02	3.78315357e-03
1.90000000e-02	3.95538646e-02	3.61910881e-03
1.92500000e-02	3.81400281e-02	3.48634583e-03
1.95000000e-02	3.55996482e-02	2.98101359e-03
1.97500000e-02	3.69195868e-02	3.20871671e-03
2.00000000e-02	3.52421467e-02	2.94049724e-03
2.02500000e-02	3.37145951e-02	2.76671727e-03
2.05000000e-02	3.54950413e-02	2.87304650e-03
2.07500000e-02	3.31626424e-02	2.57797662e-03
2.10000000e-02	3.49995051e-02	2.68969142e-03
2.12500000e-02	3.27618526e-02	2.57084812e-03
2.15000000e-02	3.19149646e-02	2.44701100e-03
2.17500000e-02	3.25345886e-02	2.35284874e-03
2.20000000e-02	3.21668621e-02	2.28507692e-03
2.22500000e-02	3.07819264e-02	2.16240213e-03
2.25000000e-02	3.16012759e-02	2.22160042e-03
2.27500000e-02	3.04445945e-02	2.10176422e-03
2.30000000e-02	3.08981708e-02	2.13453214e-03
2.32500000e-02	2.95635475e-02	1.95928427e-03
2.35000000e-02	3.00295972e-02	1.99245510e-03
2.37500000e-02	2.93671048e-02	1.90322320e-03
2.40000000e-02	2.87099071e-02	1.82678185e-03
2.42500000e-02	3.00756143e-02	1.90375882e-03
2.45000000e-02	2.83194705e-02	1.75909108e-03
2.47500000e-02	2.78645321e-02	1.68388008e-03
2.50000000e-02	2.82011497e-02	1.70944506e-03
2.52500000e-02	2.78618331e-02	1.71164254e-03
2.55000000e-02	2.82098780e-02	1.66273017e-03
2.57500000e-02	2.75073228e-02	1.59264375e-03
2.60000000e-02	2.73104438e-02	1.60319714e-03
2.62500000e-02	2.60170113e-02	1.50631235e-03
2.65000000e-02	2.58395081e-02	1.46710578e-03
2.67500000e-02	2.67045480e-02	1.53719779e-03
2.70000000e-02	2.63856324e-02	1.48583712e-03
2.72500000e-02	2.74661136e-02	1.49730030e-03
2.75000000e-02	2.52451710e-02	1.40863630e-03
2.77500000e-02	2.59529015e-02	1.41764463e-03
2.80000000e-02	2.61682748e-02	1.40294614e-03
2.82500000e-02	2.53096313e-02	1.35107210e-03
2.85000000e-02	2.62595734e-02	1.42249707e-03
2.87500000e-02	2.59519893e-02	1.36812642e-03
2.90000000e-02	2.54606384e-02	1.36249274e-03
2.92500000e-02	2.64602003e-02	1.32037829e-03
2.95000000e-02	2.64156948e-02	1.34717218e-03
2.97500000e-02	2.63564024e-02	1.32753592e-03
3.00000000e-02	2.58241500e-02	1.32116888e-03
3.02500000e-02	2.66138842e-02	1.33280134e-03
3.05000000e-02	2.63780730e-02	1.29694961e-03
3.07500000e-02	2.48240225e-02	1.24149487e-03
3.10000000e-02	2.53132107e-02	1.26217733e-03
3.12500000e-02	2.52146295e-02	1.27877627e-03
3.15000000e-02	2.52232386e-02	1.26043332e-03
3.17500000e-02	2.48104652e-02	1.17890271e-03
3.20000000e-02	2.50876937e-02	1.25723881e-03
3.22500000e-02	2.48758640e-02	1.21239048e-03
3.25000000e-02	2.46939668e-02	1.21789501e-03
3.27500000e-02	2.35222600e-02	1.15078069e-03
3.30000000e-02	2.49268657e-02	1.19181357e-03
3.32500000e-02	2.45090280e-02	1.15156782e-03
3.35000000e-02	2.37873934e-02	1.13228980e-03
3.37500000e-02	2.32849524e-02	1.11982557e-03
3.40000000e-02	2.37221833e-02	1.14088808e-03
3.42500000e-02	2.35944947e-02	1.09345960e-03
3.45000000e-02	2.33389654e-02	1.10198703e-03
3.47500000e-02	2.35294109e-02	1.12306730e-03
3.50000000e-02	2.40706583e-02	1.13078978e-03
3.52500000e-02	2.37370066e-02	1.11758587e-03
3.55000000e-02	2.29536204e-02	1.05423619e-03
3.57500000e-02	2.33081327e-02	1.09316992e-03
3.60000000e-02	2.34866549e-02	1.09645805e-03
3.62500000e-02	2.28500478e-02	1.07818860e-03
3.65000000e-02	2.30459064e-02	1.05215423e-03
3.67500000e-02	2.38877261e-02	1.08754496e-03
3.70000000e-02	2.22991780e-02	1.02814911e-03
3.72500000e-02	2.31866033e-02	1.06311104e-03
3.75000000e-02	2.30241925e-02	1.04994585e-03
3.77500000e-02	2.28737071e-02	1.03826783e-03
3.80000000e-02	2.24439184e-02	1.01174168e-03
3.82500000e-02	2.30394484e-02	1.03830225e-03
3.85000000e-02	2.29037540e-02	1.03571787e-03
3.87500000e-02	2.29715595e-02	1.02556340e-03
3.90000000e-02	2.27620291e-02	1.01710113e-03
3.92500000e-02	2.19437122e-02	9.72696411e-04
3.95000000e-02	2.21682359e-02	9.87925016e-04
3.97500000e-02	2.16548632e-02	9.70535685e-04
4.00000000e-02	2.20744353e-02	9.79119285e-04
4.02500000e-02	2.18231994e-02	9.62650376e-04
4.05000000e-02	2.23345348e-02	9.73285558e-04
4.07500000e-02	2.15122555e-02	9.43671375e-04
4.10000000e-02	2.21079081e-02	9.78042341e-04
4.12500000e-02	2.25739835e-02	9.76356649e-04
4.15000000e-02	2.23113226e-02	9.62552415e-04
4.17500000e-02	2.16723032e-02	9.39906838e-04
4.20000000e-02	2.13593913e-02	9.12985587e-04
4.22500000e-02	2.07917879e-02	8.86921054e-04
4.25000000e-02	2.22843299e-02	9.54175063e-04
4.27500000e-02	2.17872839e-02	9.27940307e-04
4.30000000e-02	2.18768536e-02	9.33089098e-04
4.32500000e-02	2.13326961e-02	9.17249491e-04
4.35000000e-02	2.17399918e-02	9.34950436e-04
4.37500000e-02	2.07530613e-02	8.81764591e-04
4.40000000e-02	2.14982869e-02	9.14283583e-04
4.42500000e-02	2.15365001e-02	9.09394578e-04
4.45000000e-02	2.13772075e-02	9.01589025e-04
4.47500000e-02	2.14203191e-02	8.97922079e-04
4.50000000e-02	2.13513379e-02	9.07328994e-04
4.52500000e-02	2.17213939e-02	9.05660770e-04
4.55000000e-02	2.15710974e-02	9.07099077e-04
4.57500000e-02	2.11477023e-02	8.77214818e-04
4.60000000e-02	2.15760314e-02	9.02640633e-04
4.62500000e-02	2.17046780e-02	9.06046332e-04
4.65000000e-02	2.13002833e-02	8.81910194e-04
4.67500000e-02	2.05557995e-02	8.51878770e-04
4.70000000e-02	2.18429288e-02	8.93026652e-04
4.72500000e-02	2.05336457e-02	8.43816935e-04
4.75000000e-02	2.13224864e-02	8.85619089e-04
4.77500000e-02	2.13883272e-02	8.74959129e-04
4.80000000e-02	2.15068870e-02	8.83290405e-04
4.82500000e-02	2.15669909e-02	8.84852493e-04
4.85000000e-02	2.15416257e-02	8.86637303e-04
4.87500000e-02	2.11666129e-02	8.61437006e-04
4.90000000e-02	2.11723516e-02	8.53081432e-04
4.92500000e-02	2.10910409e-02	8.51627132e-04
4.95000000e-02	2.08540025e-02	8.47840983e-04
4.97500000e-02	2.09852166e-02	8.56914245e-04
5.00000000e-02	2.13749094e-02	8.64779634e-04
5.02500000e-02	2.05596776e-02	8.24977472e-04
5.05000000e-02	2.11375266e-02	8.53721803e-04
5.07500000e-02	2.01901501e-02	8.11053372e-04
5.10000000e-02	2.09381510e-02	8.42837376e-04
5.12500000e-02	2.09589567e-02	8.40892822e-04
5.15000000e-02	2.06283244e-02	8.19074050e-04
5.17500000e-02	2.06397221e-02	8.23207753e-04
5.20000000e-02	2.10966005e-02	8.38372983e-04
5.22500000e-02	2.08508232e-02	8.30106307e-04
5.25000000e-02	2.16083319e-02	8.53353816e-04
5.27500000e-02	2.12061289e-02	8.42415680e-04
5.30000000e-02	2.13691054e-02	8.46101742e-04
5.32500000e-02	2.03223280e-02	8.00280168e-04
5.35000000e-02	2.06041669e-02	8.09298796e-04
5.37500000e-02	2.08717169e-02	8.14470029e-04
5.40000000e-02	2.12833850e-02	8.31790028e-04
5.42500000e-02	2.09960169e-02	8.13445244e-04
5.45000000e-02	2.13248756e-02	8.26909288e-04
5.47500000e-02	1.99226619e-02	7.80353900e-04
5.50000000e-02	2.11397845e-02	8.22799440e-04
5.52500000e-02	2.07018822e-02	8.00931820e-04
5.55000000e-02	2.09051283e-02	7.96728936e-04
5.57500000e-02	2.12313913e-02	8.17018011e-04
5.60000000e-02	2.03233460e-02	7.84897241e-04
5.62500000e-02	2.06155312e-02	7.93798839e-04
5.65000000e-02	2.09154151e-02	7.98665835e-04
5.67500000e-02	2.08433502e-02	8.01722310e-04
5.70000000e-02	2.13722108e-02	8.19011940e-04
5.72500000e-02	2.06666038e-02	7.91733868e-04
5.75000000e-02	2.11333890e-02	8.06206093e-04
5.77500000e-02	2.06801898e-02	7.75456396e-04
5.80000000e-02	2.05592340e-02	7.88387929e-04
5.82500000e-02	2.04426677e-02	7.74839601e-04
5.85000000e-02	2.07928766e-02	7.89561463e-04
5.87500000e-02	2.04630331e-02	7.73887441e-04
5.90000000e-02	2.11050531e-02	7.91726709e-04
5.92500000e-02	2.07919707e-02	7.76202233e-04
5.95000000e-02	2.08090562e-02	7.74717163e-04
5.97500000e-02	2.06746665e-02	7.85909557e-04
6.00000000e-02	2.05420162e-02	7.72845332e-04
6.02500000e-02	1.97568064e-02	7.38241221e-04
6.05000000e-02	2.06071099e-02	7.65314345e-04
6.07500000e-02	2.01678798e-02	7.52434788e-04
6.10000000e-02	2.06650278e-02	7.64771179e-04
6.12500000e-02	2.04603418e-02	7.56461245e-04
6.15000000e-02	2.02909111e-02	7.54403985e-04
6.17500000e-02	2.01402256e-02	7.49686785e-04
6.20000000e-02	2.00328166e-02	7.44187581e-04
6.22500000e-02	2.07903342e-02	7.72798715e-04
6.25000000e-02	2.09083398e-02	7.67649917e-04
6.27500000e-02	2.03629735e-02	7.45090427e-04
6.30000000e-02	1.97949434e-02	7.26535417e-04
6.32500000e-02	1.98005213e-02	7.28170870e-04
6.35000000e-02	1.99411855e-02	7.30391987e-04
6.37500000e-02	2.04007479e-02	7.50190635e-04
6.40000000e-02	2.06625412e-02	7.59432731e-04
6.42500000e-02	2.07722931e-02	7.50493936e-04
6.45000000e-02	2.07669825e-02	7.59048167e-04
6.47500000e-02	2.04444843e-02	7.40690079e-04
6.50000000e-02	1.98248586e-02	7.24431260e-04
6.52500000e-02	2.00560831e-02	7.20334517e-04
6.55000000e-02	2.01260992e-02	7.29035918e-04
6.57500000e-02	2.01488854e-02	7.28636002e-04
6.60000000e-02	2.03336957e-02	7.30104588e-04
6.62500000e-02	2.00515010e-02	7.22419154e-04
6.65000000e-02	2.02114452e-02	7.27047867e-04
6.67500000e-02	2.00543029e-02	7.11318420e-04
6.70000000e-02	2.01591843e-02	7.22511578e-04
6.72500000e-02	1.97655487e-02	7.06288223e-04
6.75000000e-02	2.10843558e-02	7.53283946e-04
6.77500000e-02	2.03552558e-02	7.25296434e-04
6.80000000e-02	1.98313005e-02	7.09082079e-04
6.82500000e-02	2.00001737e-02	7.12987178e-04
6.85000000e-02	2.02988919e-02	7.21602696e-04
6.87500000e-02	1.98725777e-02	7.00988837e-04
6.90000000e-02	1.96210688e-02	6.92043415e-04
6.92500000e-02	2.01709634e-02	7.12475772e-04
6.95000000e-02	1.99485349e-02	7.07840033e-04
6.97500000e-02	1.97279422e-02	6.95300059e-04
7.00000000e-02	1.98566669e-02	6.98538200e-04
7.02500000e-02	2.05685124e-02	7.17801690e-04
7.05000000e-02	2.01268018e-02	7.02575640e-04
7.07500000e-02	1.99690076e-02	7.06392549e-04
7.10000000e-02	2.00233223e-02	6.99011636e-04
7.12500000e-02	2.02384884e-02	7.06978961e-04
7.15000000e-02	1.96765914e-02	6.86406037e-04
7.17500000e-02	2.00168630e-02	6.99185551e-04
7.20000000e-02	2.04499412e-02	7.15961160e-04
7.22500000e-02	2.03382386e-02	6.97856302e-04
7.25000000e-02	2.07158670e-02	7.14952427e-04
7.27500000e-02	2.02255351e-02	7.01842058e-04
7.30000000e-02	1.98032351e-02	6.80113333e-04
7.32500000e-02	1.96705253e-02	6.78610950e-04
7.35000000e-02	1.94787384e-02	6.71440937e-04
7.37500000e-02	1.99847146e-02	6.86622274e-04
7.40000000e-02	1.98992119e-02	6.79083937e-04
7.42500000e-02	1.96988287e-02	6.75822809e-04
7.45000000e-02	1.97597775e-02	6.75693016e-04
7.47500000e-02	1.97133480e-02	6.70644459e-04
7.50000000e-02	2.01124468e-02	6.87632705e-04
7.52500000e-02	2.03475090e-02	6.93845767e-04
7.55000000e-02	2.00327073e-02	6.74233014e-04
7.57500000e-02	2.00117164e-02	6.80713233e-04
7.60000000e-02	1.98648057e-02	6.75321904e-04
7.62500000e-02	1.99750477e-02	6.78732799e-04
7.65000000e-02	2.07883636e-02	7.02277110e-04
7.67500000e-02	1.99726329e-02	6.72101498e-04
7.70000000e-02	2.03719783e-02	6.86378046e-04
7.72500000e-02	1.93450136e-02	6.74830925e-04
7.75000000e-02	1.96069492e-02	6.78962344e-04
7.77500000e-02	2.00346986e-02	7.01264542e-04
7.80000000e-02	1.97081000e-02	6.85231216e-04
7.82500000e-02	1.99025057e-02	7.02309909e-04
7.85000000e-02	1.94279860e-02	6.96976063e-04
7.87500000e-02	1.95643632e-02	6.97643784e-04
7.90000000e-02	2.00049503e-02	7.06766910e-04
7.92500000e-02	1.99398928e-02	7.12306831e-04
7.95000000e-02	1.99719200e-02	7.16360434e-04
7.97500000e-02	1.95570106e-02	7.08210316e-04
8.00000000e-02	2.01375334e-02	7.22393753e-04
8.02500000e-02	2.05649606e-02	7.39468935e-04
8.05000000e-02	1.95500958e-02	7.02419282e-04
8.07500000e-02	2.02571675e-02	7.31760474e-04
8.10000000e-02	2.01947696e-02	7.31955852e-04
8.12500000e-02	2.04425326e-02	7.42265270e-04
8.15000000e-02	2.02612800e-02	7.31107856e-04
8.17500000e-02	2.04009700e-02	7.46157718e-04
8.20000000e-02	2.00454276e-02	7.33789486e-04
8.22500000e-02	1.99434146e-02	7.25510312e-04
8.25000000e-02	2.02777497e-02	7.42328541e-04
8.27500000e-02	1.93972823e-02	7.08742611e-04
8.30000000e-02	1.97847111e-02	7.22988442e-04
8.32500000e-02	2.05184360e-02	7.52519765e-04
8.35000000e-02	1.91549342e-02	7.11626760e-04
8.37500000e-02	2.02248677e-02	7.42613037e-04
8.40000000e-02	2.00552356e-02	7.33251906e-04
8.42500000e-02	1.98738198e-02	7.34978420e-04
8.45000000e-02	1.96775836e-02	7.25887501e-04
8.47500000e-02	1.97877056e-02	7.34624255e-04
8.50000000e-02	1.94020912e-02	7.20769664e-04
8.52500000e-02	1.96442369e-02	7.32513582e-04
8.55000000e-02	1.96021725e-02	7.25236103e-04
8.57500000e-02	2.02108805e-02	7.50521979e-04
8.60000000e-02	2.01639485e-02	7.43418479e-04
8.62500000e-02	2.03392397e-02	7.55120276e-04
8.65000000e-02	1.93619278e-02	7.20823481e-04
8.67500000e-02	2.05286243e-02	7.59631836e-04
8.70000000e-02	2.01812466e-02	7.30971094e-04
8.72500000e-02	1.99256344e-02	7.10889192e-04
8.75000000e-02	2.00979050e-02	7.10534429e-04
8.77500000e-02	2.03524177e-02	7.21405491e-04
8.80000000e-02	1.97648244e-02	7.00206977e-04
8.82500000e-02	1.85583585e-02	6.51686462e-04
8.85000000e-02	1.93811709e-02	6.84393149e-04
8.87500000e-02	2.01259527e-02	6.93017509e-04
8.90000000e-02	1.97311671e-02	6.86217371e-04
8.92500000e-02	2.00628190e-02	6.95711915e-04
8.95000000e-02	1.93022698e-02	6.65924017e-04
8.97500000e-02	2.01872179e-02	6.88319728e-04
9.00000000e-02	2.02606767e-02	6.90977773e-04
9.02500000e-02	1.94389391e-02	6.65227797e-04
9.05000000e-02	1.98375941e-02	6.79100556e-04
9.07500000e-02	2.04581938e-02	6.93090112e-04
9.10000000e-02	1.95340483e-02	6.58057380e-04
9.12500000e-02	1.98099877e-02	6.68571520e-04
9.15000000e-02	1.99452554e-02	6.77603006e-04
9.17500000e-02	1.99088923e-02	6.74462509e-04
9.20000000e-02	2.00910776e-02	6.74707446e-04
9.22500000e-02	2.06693609e-02	6.85853507e-04
9.25000000e-02	2.00228348e-02	6.63394666e-04
9.27500000e-02	2.02817966e-02	6.74136725e-04
9.30000000e-02	1.99384361e-02	6.60136592e-04
9.32500000e-02	1.95342787e-02	6.48111496e-04
9.35000000e-02	1.99309921e-02	6.54346529e-04
9.37500000e-02	1.97522419e-02	6.48378386e-04
9.40000000e-02	1.98479844e-02	6.61822497e-04
9.42500000e-02	2.01047946e-02	6.60899455e-04
9.45000000e-02	1.96864687e-02	6.50990736e-04
9.47500000e-02	1.97422655e-02	6.48076249e-04
9.50000000e-02	1.95092652e-02	6.37544063e-04
9.52500000e-02	1.97393289e-02	6.45044201e-04
9.55000000e-02	2.04688927e-02	6.67437036e-04
9.57500000e-02	1.98170442e-02	6.47561260e-04
9.60000000e-02	2.00241011e-02	6.50111722e-04
9.62500000e-02	1.97623179e-02	6.41902342e-04
9.65000000e-02	1.96407003e-02	6.34953573e-04
9.67500000e-02	1.97849300e-02	6.38981959e-04
9.70000000e-02	1.92660135e-02	6.22436115e-04
9.72500000e-02	2.01042589e-02	6.44552272e-04
9.75000000e-02	1.99361144e-02	6.42819261e-04
9.77500000e-02	1.98177531e-02	6.30831572e-04
9.80000000e-02	1.97672210e-02	6.35251904e-04
9.82500000e-02	1.98256756e-02	6.40230125e-04
9.85000000e-02	1.99770288e-02	6.39289600e-04
9.87500000e-02	1.92768736e-02	6.21127120e-04
9.90000000e-02	1.98932476e-02	6.29770196e-04
9.92500000e-02	2.00279722e-02	6.38365237e-04
9.95000000e-02	1.95664367e-02	6.26412970e-04
9.97500000e-02	1.99704313e-02	6.33922922e-04
1.00000000e-01	1.99411300e-02	5.17149874e-04
1.00500000e-01	1.99363440e-02	4.43655169e-04
1.01000000e-01	1.97960563e-02	4.38879401e-04
1.01500000e-01	1.96913690e-02	4.38470076e-04
1.02000000e-01	1.96510211e-02	4.35227187e-04
1.02500000e-01	1.99538058e-02	4.40579307e-04
1.03000000e-01	1.94332436e-02	4.28993379e-04
1.03500000e-01	1.92775470e-02	4.24237706e-04
1.04000000e-01	1.96677852e-02	4.30243633e-04
1.04500000e-01	1.96542766e-02	4.31144871e-04
1.05000000e-01	1.99037254e-02	4.33148062e-04
1.05500000e-01	1.96682485e-02	4.26441264e-04
1.06000000e-01	2.00826731e-02	4.34463497e-04
1.06500000e-01	1.97878668e-02	4.26575043e-04
1.07000000e-01	1.99014513e-02	4.33792426e-04
1.07500000e-01	1.94127274e-02	4.33163584e-04
1.08000000e-01	1.96562736e-02	4.42148054e-04
1.08500000e-01	1.93580974e-02	4.39318274e-04
1.09000000e-01	1.98017511e-02	4.49964853e-04
1.09500000e-01	1.93701802e-02	4.44022396e-04
1.10000000e-01	1.97805466e-02	4.44976672e-04
1.10500000e-01	1.94774623e-02	4.32196509e-04
1.11000000e-01	1.93956596e-02	4.23628907e-04
1.11500000e-01	2.01133191e-02	4.33681399e-04
1.12000000e-01	1.93700709e-02	4.16618951e-04
1.12500000e-01	1.99014149e-02	4.24316626e-04
1.13000000e-01	1.97656950e-02	4.21333958e-04
1.13500000e-01	1.97730929e-02	4.18764757e-04
1.14000000e-01	1.96369537e-02	4.13343720e-04
1.14500000e-01	2.00534346e-02	4.22429933e-04
1.15000000e-01	1.97652240e-02	4.14463803e-04
1.15500000e-01	1.95584935e-02	4.07770998e-04
1.16000000e-01	1.96136871e-02	4.09597802e-04
1.16500000e-01	1.98500532e-02	4.13637391e-04
1.17000000e-01	1.97754033e-02	4.10933372e-04
1.17500000e-01	1.98306140e-02	4.11032779e-04
1.18000000e-01	1.96834313e-02	4.10155995e-04
1.18500000e-01	1.97822256e-02	4.06750817e-04
1.19000000e-01	1.98480305e-02	4.08977261e-04
1.19500000e-01	1.94388531e-02	4.00139380e-04
1.20000000e-01	1.96974785e-02	4.03317016e-04
1.20500000e-01	1.97858295e-02	4.05340029e-04
1.21000000e-01	1.97028242e-02	4.02207020e-04
1.21500000e-01	1.97202565e-02	4.02327384e-04
1.22000000e-01	2.00495155e-02	4.07296523e-04
1.22500000e-01	1.95768889e-02	3.96617825e-04
1.23000000e-01	1.96905281e-02	3.97998357e-04
1.23500000e-01	1.94070399e-02	3.91787508e-04
1.24000000e-01	1.95211694e-02	3.94012546e-04
1.24500000e-01	1.95343924e-02	3.89739020e-04
1.25000000e-01	1.94892294e-02	3.91491467e-04
1.25500000e-01	1.94899111e-02	3.86689128e-04
1.26000000e-01	1.94951896e-02	3.88533960e-04
1.26500000e-01	1.94714742e-02	3.87208497e-04
1.27000000e-01	1.93938919e-02	3.85158094e-04
1.27500000e-01	1.99168815e-02	3.92644419e-04
1.28000000e-01	1.96760523e-02	3.88379978e-04
1.28500000e-01	1.95441283e-02	3.87193478e-04
1.29000000e-01	1.95096964e-02	3.84176776e-04
1.29500000e-01	1.96704396e-02	3.86436914e-04
1.30000000e-01	1.95903956e-02	3.84160522e-04
1.30500000e-01	1.95880704e-02	3.81500038e-04
1.31000000e-01	1.93890132e-02	3.77957064e-04
1.31500000e-01	1.95503164e-02	3.81874087e-04
1.32000000e-01	1.97536793e-02	3.83686024e-04
1.32500000e-01	1.98006616e-02	3.83645123e-04
1.33000000e-01	1.95714081e-02	3.82209926e-04
1.33500000e-01	1.90963230e-02	3.67253771e-04
1.34000000e-01	1.97483046e-02	3.80502411e-04
1.34500000e-01	1.96435805e-02	3.76746400e-04
1.35000000e-01	1.97311660e-02	3.77300553e-04
1.35500000e-01	1.96615443e-02	3.75418198e-04
1.36000000e-01	1.94931527e-02	3.72633263e-04
1.36500000e-01	1.93912157e-02	3.70767034e-04
1.37000000e-01	1.95000569e-02	3.70148934e-04
1.37500000e-01	1.96776048e-02	3.73267075e-04
1.38000000e-01	1.94465083e-02	3.69072473e-04
1.38500000e-01	1.96338703e-02	3.71374611e-04
1.39000000e-01	1.95588367e-02	3.69843741e-04
1.39500000e-01	1.95165436e-02	3.67965505e-04
1.40000000e-01	1.93842255e-02	3.68610590e-04
1.40500000e-01	1.92134086e-02	3.64222032e-04
1.41000000e-01	1.93216549e-02	3.63554744e-04
1.41500000e-01	1.91319824e-02	3.62477744e-04
1.42000000e-01	1.96032171e-02	3.65761715e-04
1.42500000e-01	1.97104393e-02	3.67980023e-04
1.43000000e-01	1.94694931e-02	3.66125333e-04
1.43500000e-01	1.96025083e-02	3.65480919e-04
1.44000000e-01	1.98409494e-02	3.69538521e-04
1.44500000e-01	1.91813769e-02	3.58397243e-04
1.45000000e-01	1.92634532e-02	3.59881896e-04
1.45500000e-01	1.94242344e-02	3.61578021e-04
1.46000000e-01	1.94840332e-02	3.59520553e-04
1.46500000e-01	1.91602334e-02	3.55173259e-04
1.47000000e-01	1.95263079e-02	3.60039665e-04
1.47500000e-01	1.93011200e-02	3.54824575e-04
1.48000000e-01	1.93551970e-02	3.56009559e-04
1.48500000e-01	1.92500531e-02	3.55409681e-04
1.49000000e-01	1.93124168e-02	3.54617412e-04
1.49500000e-01	1.93126632e-02	3.54734823e-04
1.50000000e-01	1.93892370e-02	3.54037498e-04
1.50500000e-01	1.96169317e-02	3.58266184e-04
1.51000000e-01	1.92698631e-02	3.52211745e-04
1.51500000e-01	1.95337660e-02	3.53621518e-04
1.52000000e-01	1.89813384e-02	3.43338645e-04
1.52500000e-01	1.91892803e-02	3.47705946e-04
1.53000000e-01	1.91779912e-02	3.47913370e-04
1.53500000e-01	1.94223629e-02	3.49860410e-04
1.54000000e-01	1.89147685e-02	3.40264708e-04
1.54500000e-01	1.91470396e-02	3.50569475e-04
1.55000000e-01	1.94241587e-02	3.62121569e-04
1.55500000e-01	1.93205703e-02	3.59571259e-04
1.56000000e-01	1.93960394e-02	3.65962630e-04
1.56500000e-01	1.91007733e-02	3.58728779e-04
1.57000000e-01	1.91172948e-02	3.61055183e-04
1.57500000e-01	1.89474353e-02	3.51118446e-04
1.58000000e-01	1.93915174e-02	3.51342190e-04
1.58500000e-01	1.91129240e-02	3.47420994e-04
1.59000000e-01	1.90933528e-02	3.45688987e-04
1.59500000e-01	1.93337796e-02	3.48789820e-04
1.60000000e-01	1.91322244e-02	3.45445482e-04
1.60500000e-01	1.91864002e-02	3.43327689e-04
1.61000000e-01	1.92503149e-02	3.46015700e-04
1.61500000e-01	1.87904483e-02	3.35971296e-04
1.62000000e-01	1.91626764e-02	3.41120389e-04
1.62500000e-01	1.88550492e-02	3.35919512e-04
1.63000000e-01	1.94742471e-02	3.43730070e-04
1.63500000e-01	1.92164586e-02	3.42818469e-04
1.64000000e-01	1.90143577e-02	3.35352159e-04
1.64500000e-01	1.92051947e-02	3.37842150e-04
1.65000000e-01	1.89930552e-02	3.34776204e-04
1.65500000e-01	1.92220873e-02	3.38276391e-04
1.66000000e-01	1.90501377e-02	3.34127807e-04
1.66500000e-01	1.88180468e-02	3.28863192e-04
1.67000000e-01	1.88272500e-02	3.30976654e-04
1.67500000e-01	1.90534869e-02	3.33061367e-04
1.68000000e-01	1.89379447e-02	3.31721786e-04
1.68500000e-01	1.90505908e-02	3.32151153e-04
1.69000000e-01	1.87058133e-02	3.26223978e-04
1.69500000e-01	1.90632480e-02	3.31451526e-04
1.70000000e-01	1.87195494e-02	3.24547410e-04
1.70500000e-01	1.92648232e-02	3.33306410e-04
1.71000000e-01	1.91590847e-02	3.31957499e-04
1.71500000e-01	1.88987559e-02	3.27263765e-04
1.72000000e-01	1.87590192e-02	3.23574825e-04
1.72500000e-01	1.87965549e-02	3.23844614e-04
1.73000000e-01	1.87242329e-02	3.21865129e-04
1.73500000e-01	1.88572251e-02	3.22675478e-04
1.74000000e-01	1.87673528e-02	3.21178729e-04
1.74500000e-01	1.88567114e-02	3.19696767e-04
1.75000000e-01	1.88408305e-02	3.18404732e-04
1.75500000e-01	1.88002853e-02	3.18162800e-04
1.76000000e-01	1.86893854e-02	3.16646215e-04
1.76500000e-01	1.91231836e-02	3.23482238e-04
1.77000000e-01	1.86723612e-02	3.15343914e-04
1.77500000e-01	1.85942582e-02	3.15134697e-04
1.78000000e-01	1.88477218e-02	3.17734206e-04
1.78500000e-01	1.87633771e-02	3.16635968e-04
1.79000000e-01	1.87320186e-02	3.16127774e-04
1.79500000e-01	1.87641320e-02	3.15590924e-04
1.80000000e-01	1.86079454e-02	3.14290559e-04
1.80500000e-01	1.90016628e-02	3.19135273e-04
1.81000000e-01	1.87755253e-02	3.16908068e-04
1.81500000e-01	1.88682536e-02	3.15574157e-04
1.82000000e-01	1.89331720e-02	3.17029312e-04
1.82500000e-01	1.88324106e-02	3.14797397e-04
1.83000000e-01	1.86179021e-02	3.13267095e-04
1.83500000e-01	1.85889443e-02	3.09220264e-04
1.84000000e-01	1.87904711e-02	3.12458685e-04
1.84500000e-01	1.85781974e-02	3.09698995e-04
1.85000000e-01	1.86517200e-02	3.09842179e-04
1.85500000e-01	1.87381753e-02	3.11370793e-04
1.86000000e-01	1.85101408e-02	3.06435972e-04
1.86500000e-01	1.85205077e-02	3.07938152e-04
1.87000000e-01	1.84681061e-02	3.04699541e-04
1.87500000e-01	1.83909804e-02	3.03852854e-04
1.88000000e-01	1.84912539e-02	3.05872046e-04
1.88500000e-01	1.87476757e-02	3.08524603e-04
1.89000000e-01	1.81629653e-02	2.99757262e-04
1.89500000e-01	1.83666764e-02	3.02263491e-04
1.90000000e-01	1.85247460e-02	3.04613549e-04
1.90500000e-01	1.84592037e-02	3.03677814e-04
1.91000000e-01	1.82867279e-02	2.98140904e-04
1.91500000e-01	1.85532869e-02	3.03969657e-04
1.92000000e-01	1.82132875e-02	2.96493403e-04
1.92500000e-01	1.83602222e-02	3.00295327e-04
1.93000000e-01	1.86193301e-02	3.02649655e-04
1.93500000e-01	1.85380510e-02	3.00186370e-04
1.94000000e-01	1.81802596e-02	2.96118046e-04
1.94500000e-01	1.82780431e-02	2.96839402e-04
1.95000000e-01	1.84913942e-02	3.01080905e-04
1.95500000e-01	1.81762348e-02	2.95753733e-04
1.96000000e-01	1.83886143e-02	2.97597285e-04
1.96500000e-01	1.84808859e-02	2.98830554e-04
1.97000000e-01	1.83178677e-02	2.95437608e-04
1.97500000e-01	1.82875659e-02	2.94451799e-04
1.98000000e-01	1.84806439e-02	2.97531852e-04
1.98500000e-01	1.81736884e-02	2.92185188e-04
1.99000000e-01	1.85277224e-02	2.97265339e-04
1.99500000e-01	1.83806695e-02	2.94912525e-04
2.00000000e-01	1.82810875e-02	2.93473836e-04
2.00500000e-01	1.80827378e-02	2.89540591e-04
2.01000000e-01	1.82150186e-02	2.90716036e-04
2.01500000e-01	1.83019363e-02	2.93043562e-04
2.02000000e-01	1.83011474e-02	2.92322168e-04
2.02500000e-01	1.84058596e-02	2.93114730e-04
2.03000000e-01	1.82566185e-02	2.91365378e-04
2.03500000e-01	1.81798879e-02	2.89120998e-04
2.04000000e-01	1.82013629e-02	2.88228128e-04
2.04500000e-01	1.81729776e-02	2.88282841e-04
2.05000000e-01	1.83679245e-02	2.90739300e-04
2.05500000e-01	1.82456592e-02	2.89501905e-04
2.06000000e-01	1.82964310e-02	2.89256518e-04
2.06500000e-01	1.83342537e-02	2.88694404e-04
2.07000000e-01	1.81038994e-02	2.84606492e-04
2.07500000e-01	1.80632300e-02	2.84547800e-04
2.08000000e-01	1.82978387e-02	2.89056303e-04
2.08500000e-01	1.81421216e-02	2.83755656e-04
2.09000000e-01	1.81291338e-02	2.85639118e-04
2.09500000e-01	1.82548346e-02	2.85805315e-04
2.10000000e-01	1.82317019e-02	2.85296765e-04
2.10500000e-01	1.81045709e-02	2.83169023e-04
2.11000000e-01	1.81769339e-02	2.82958400e-04
2.11500000e-01	1.80167565e-02	2.83652586e-04
2.12000000e-01	1.83581619e-02	2.85714463e-04
2.12500000e-01	1.79952655e-02	2.80793391e-04
2.13000000e-01	1.80579909e-02	2.80273706e-04
2.13500000e-01	1.81853091e-02	2.81843523e-04
2.14000000e-01	1.78387292e-02	2.77441997e-04
2.14500000e-01	1.84122097e-02	2.84480083e-04
2.15000000e-01	1.79979934e-02	2.79151176e-04
2.15500000e-01	1.81765251e-02	2.79992915e-04
2.16000000e-01	1.82088843e-02	2.80807394e-04
2.16500000e-01	1.81031738e-02	2.79891355e-04
2.17000000e-01	1.82066816e-02	2.84897909e-04
2.17500000e-01	1.83814545e-02	2.91340740e-04
2.18000000e-01	1.80436335e-02	2.86815976e-04
2.18500000e-01	1.82056270e-02	2.91598992e-04
2.19000000e-01	1.80658193e-02	2.90640443e-04
2.19500000e-01	1.79576002e-02	2.90447146e-04
2.20000000e-01	1.80503872e-02	2.92472538e-04
2.20500000e-01	1.79955873e-02	2.92894895e-04
2.21000000e-01	1.79578627e-02	2.91719737e-04
2.21500000e-01	1.80049277e-02	2.94478352e-04
2.22000000e-01	1.80199504e-02	2.94645475e-04
2.22500000e-01	1.81134149e-02	2.97154551e-04
2.23000000e-01	1.78601183e-02	2.94139935e-04
2.23500000e-01	1.76982243e-02	2.93228071e-04
2.24000000e-01	1.80475121e-02	2.97052075e-04
2.24500000e-01	1.79549936e-02	2.97899795e-04
2.25000000e-01	1.77304930e-02	2.95326681e-04
2.25500000e-01	1.80148009e-02	2.99263035e-04
2.26000000e-01	1.80308811e-02	3.01745404e-04
2.26500000e-01	1.80745329e-02	2.96201597e-04
2.27000000e-01	1.78680097e-02	2.90900157e-04
2.27500000e-01	1.77619247e-02	2.86657854e-04
2.28000000e-01	1.78599737e-02	2.88025273e-04
2.28500000e-01	1.78390368e-02	2.85063893e-04
2.29000000e-01	1.80314138e-02	2.86491727e-04
2.29500000e-01	1.77719260e-02	2.82519450e-04
2.30000000e-01	1.79375834e-02	2.83047074e-04
2.30500000e-01	1.76982815e-02	2.78702303e-04
2.31000000e-01	1.78053218e-02	2.82118552e-04
2.31500000e-01	1.80051911e-02	2.81552285e-04
2.32000000e-01	1.80130113e-02	2.81687894e-04
2.32500000e-01	1.77752681e-02	2.77450778e-04
2.33000000e-01	1.77978039e-02	2.77442603e-04
2.33500000e-01	1.79026120e-02	2.78355116e-04
2.34000000e-01	1.78138884e-02	2.76932972e-04
2.34500000e-01	1.77465416e-02	2.74285267e-04
2.35000000e-01	1.75643396e-02	2.71904669e-04
2.35500000e-01	1.79101564e-02	2.76000509e-04
2.36000000e-01	1.77331080e-02	2.73365171e-04
2.36500000e-01	1.76470203e-02	2.71704570e-04
2.37000000e-01	1.77313717e-02	2.72033579e-04
2.37500000e-01	1.77031089e-02	2.71339931e-04
2.38000000e-01	1.78764303e-02	2.72850613e-04
2.38500000e-01	1.77110508e-02	2.70924593e-04
2.39000000e-01	1.76533688e-02	2.67512418e-04
2.39500000e-01	1.76108703e-02	2.68342398e-04
2.40000000e-01	1.78028124e-02	2.70171131e-04
2.40500000e-01	1.77684986e-02	2.68374451e-04
2.41000000e-01	1.76735729e-02	2.67955968e-04
2.41500000e-01	1.76558225e-02	2.65155747e-04
2.42000000e-01	1.77819972e-02	2.68774007e-04
2.42500000e-01	1.75983639e-02	2.64914742e-04
2.43000000e-01	1.76426646e-02	2.65222643e-04
2.43500000e-01	1.78594980e-02	2.66727128e-04
2.44000000e-01	1.74860701e-02	2.62642375e-04
2.44500000e-01	1.78300156e-02	2.67129316e-04
2.45000000e-01	1.74929296e-02	2.60909905e-04
2.45500000e-01	1.76561612e-02	2.63731706e-04
2.46000000e-01	1.74628549e-02	2.61849870e-04
2.46500000e-01	1.75461920e-02	2.61729479e-04
2.47000000e-01	1.75738155e-02	2.62831751e-04
2.47500000e-01	1.78818241e-02	2.64359778e-04
2.48000000e-01	1.73952659e-02	2.58785256e-04
2.48500000e-01	1.77243474e-02	2.62018819e-04
2.49000000e-01	1.75687040e-02	2.59491522e-04
2.49500000e-01	1.73732286e-02	2.57954593e-04
2.50000000e-01	1.72774984e-02	2.54651166e-04
2.50500000e-01	1.74247172e-02	2.58674912e-04
2.51000000e-01	1.74373823e-02	2.56317645e-04
2.51500000e-01	1.74867369e-02	2.57809548e-04
2.52000000e-01	1.74748291e-02	2.57515077e-04
2.52500000e-01	1.74971483e-02	2.57213938e-04
2.53000000e-01	1.74795340e-02	2.56073526e-04
2.53500000e-01	1.74295225e-02	2.55916177e-04
2.54000000e-01	1.73107537e-02	2.54966838e-04
2.54500000e-01	1.74630329e-02	2.55109409e-04
2.55000000e-01	1.71452885e-02	2.51215309e-04
2.55500000e-01	1.74892533e-02	2.55829304e-04
2.56000000e-01	1.71263573e-02	2.50695378e-04
2.56500000e-01	1.73595740e-02	2.53741215e-04
2.57000000e-01	1.73739064e-02	2.52791290e-04
2.57500000e-01	1.75344318e-02	2.54605491e-04
2.58000000e-01	1.73112102e-02	2.51111537e-04
2.58500000e-01	1.73487809e-02	2.51948140e-04
2.59000000e-01	1.74562682e-02	2.53603645e-04
2.59500000e-01	1.72818294e-02	2.49628546e-04
2.60000000e-01	1.71241033e-02	2.48610065e-04
2.60500000e-01	1.74762680e-02	2.52459111e-04
2.61000000e-01	1.73188939e-02	2.49880061e-04
2.61500000e-01	1.72255562e-02	2.48599773e-04
2.62000000e-01	1.74352171e-02	2.50054739e-04
2.62500000e-01	1.73617316e-02	2.49364004e-04
2.63000000e-01	1.73647518e-02	2.49324384e-04
2.63500000e-01	1.73319912e-02	2.49006310e-04
2.64000000e-01	1.73184274e-02	2.49308223e-04
2.64500000e-01	1.73492323e-02	2.48157541e-04
2.65000000e-01	1.71294187e-02	2.45512422e-04
2.65500000e-01	1.72780047e-02	2.47421517e-04
2.66000000e-01	1.73378269e-02	2.47222290e-04
2.66500000e-01	1.71620728e-02	2.45280513e-04
2.67000000e-01	1.73845715e-02	2.48194840e-04
2.67500000e-01	1.70391855e-02	2.42358302e-04
2.68000000e-01	1.72295738e-02	2.45207146e-04
2.68500000e-01	1.73190477e-02	2.45529798e-04
2.69000000e-01	1.71401942e-02	2.42984667e-04
2.69500000e-01	1.73332503e-02	2.45803697e-04
2.70000000e-01	1.70972698e-02	2.41420668e-04
2.70500000e-01	1.72660689e-02	2.43527728e-04
2.71000000e-01	1.71573382e-02	2.42945929e-04
2.71500000e-01	1.71260571e-02	2.42557587e-04
2.72000000e-01	1.70246539e-02	2.39656010e-04
2.72500000e-01	1.70605727e-02	2.40435752e-04
2.73000000e-01	1.70304110e-02	2.39540599e-04
2.73500000e-01	1.73185641e-02	2.42179625e-04
2.74000000e-01	1.70303426e-02	2.38941618e-04
2.74500000e-01	1.69119389e-02	2.37820403e-04
2.75000000e-01	1.69978394e-02	2.39085025e-04
2.75500000e-01	1.70594061e-02	2.39154470e-04
2.76000000e-01	1.71144957e-02	2.39927085e-04
2.76500000e-01	1.69589038e-02	2.37485339e-04
2.77000000e-01	1.71079661e-02	2.38972517e-04
2.77500000e-01	1.70047820e-02	2.36940441e-04
2.78000000e-01	1.71058556e-02	2.38391829e-04
2.78500000e-01	1.70713020e-02	2.39034278e-04
2.79000000e-01	1.71791088e-02	2.39448828e-04
2.79500000e-01	1.71683909e-02	2.37884572e-04
2.80000000e-01	1.72576675e-02	2.39560774e-04
2.80500000e-01	1.68619080e-02	2.34080927e-04
2.81000000e-01	1.71719927e-02	2.38452817e-04
2.81500000e-01	1.71201835e-02	2.37924723e-04
2.82000000e-01	1.69315601e-02	2.33975430e-04
2.82500000e-01	1.69032278e-02	2.35237185e-04
2.83000000e-01	1.68761018e-02	2.33125636e-04
2.83500000e-01	1.69669707e-02	2.34370943e-04
2.84000000e-01	1.68642948e-02	2.32814146e-04
2.84500000e-01	1.68749448e-02	2.33522687e-04
2.85000000e-01	1.69692217e-02	2.34719341e-04
2.85500000e-01	1.71425297e-02	2.34665460e-04
2.86000000e-01	1.69465614e-02	2.33216000e-04
2.86500000e-01	1.70016030e-02	2.33982224e-04
2.87000000e-01	1.69662162e-02	2.33956636e-04
2.87500000e-01	1.70549586e-02	2.33229712e-04
2.88000000e-01	1.69876108e-02	2.31144984e-04
2.88500000e-01	1.68099498e-02	2.30842638e-04
2.89000000e-01	1.68593990e-02	2.30360507e-04
2.89500000e-01	1.66934550e-02	2.28368348e-04
2.90000000e-01	1.69713615e-02	2.31799430e-04
2.90500000e-01	1.69905153e-02	2.31139530e-04
2.91000000e-01	1.69022734e-02	2.29407281e-04
2.91500000e-01	1.68003098e-02	2.28758466e-04
2.92000000e-01	1.70303483e-02	2.30875742e-04
2.92500000e-01	1.68250642e-02	2.27800344e-04
2.93000000e-01	1.68393844e-02	2.27714345e-04
2.93500000e-01	1.68645563e-02	2.28117632e-04
2.94000000e-01	1.70332275e-02	2.29864928e-04
2.94500000e-01	1.69946779e-02	2.30572912e-04
2.95000000e-01	1.67522195e-02	2.26509449e-04
2.95500000e-01	1.68748524e-02	2.27370349e-04
2.96000000e-01	1.67354562e-02	2.26226280e-04
2.96500000e-01	1.67756347e-02	2.26994017e-04
2.97000000e-01	1.68727234e-02	2.27109807e-04
2.97500000e-01	1.67029108e-02	2.24367058e-04
2.98000000e-01	1.68587594e-02	2.26746463e-04
2.98500000e-01	1.67987336e-02	2.26897249e-04
2.99000000e-01	1.68353130e-02	2.26389525e-04
2.99500000e-01	1.66894428e-02	2.24614778e-04
3.00000000e-01	1.66713182e-02	2.24249928e-04
3.00500000e-01	1.67508587e-02	2.24009632e-04
3.01000000e-01	1.67818836e-02	2.24267316e-04
3.01500000e-01	1.67152733e-02	2.23847012e-04
3.02000000e-01	1.67468187e-02	2.23910012e-04
3.02500000e-01	1.68761989e-02	2.24579319e-04
3.03000000e-01	1.66476300e-02	2.22818622e-04
3.03500000e-01	1.66053038e-02	2.21287746e-04
3.04000000e-01	1.65921867e-02	2.21667631e-04
3.04500000e-01	1.68944923e-02	2.24279633e-04
3.05000000e-01	1.66134399e-02	2.21240187e-04
3.05500000e-01	1.66388210e-02	2.21239498e-04
3.06000000e-01	1.65707705e-02	2.19725755e-04
3.06500000e-01	1.66350908e-02	2.20557458e-04
3.07000000e-01	1.66007075e-02	2.20250043e-04
3.07500000e-01	1.66831801e-02	2.20576746e-04
3.08000000e-01	1.66826242e-02	2.21156204e-04
3.08500000e-01	1.67507461e-02	2.21655760e-04
3.09000000e-01	1.66537899e-02	2.20853045e-04
3.09500000e-01	1.66809036e-02	2.20416274e-04
3.10000000e-01	1.65934149e-02	2.19454110e-04
3.10500000e-01	1.64538097e-02	2.18186950e-04
3.11000000e-01	1.64985948e-02	2.17136496e-04
3.11500000e-01	1.68639966e-02	2.21418521e-04
3.12000000e-01	1.64853197e-02	2.17096590e-04
3.12500000e-01	1.65642162e-02	2.17758184e-04
3.13000000e-01	1.66445779e-02	2.18299839e-04
3.13500000e-01	1.64976131e-02	2.16736680e-04
3.14000000e-01	1.64642906e-02	2.15986922e-04
3.14500000e-01	1.64211801e-02	2.15324030e-04
3.15000000e-01	1.66225062e-02	2.18004725e-04
3.15500000e-01	1.66355252e-02	2.17311774e-04
3.16000000e-01	1.64562943e-02	2.15453800e-04
3.16500000e-01	1.67577432e-02	2.18400746e-04
3.17000000e-01	1.64421877e-02	2.14911283e-04
3.17500000e-01	1.65622095e-02	2.16147548e-04
3.18000000e-01	1.65539945e-02	2.16310252e-04
3.18500000e-01	1.64150770e-02	2.14347306e-04
3.19000000e-01	1.63440742e-02	2.12846926e-04
3.19500000e-01	1.64627210e-02	2.14323334e-04
3.20000000e-01	1.64826832e-02	2.14617502e-04
3.20500000e-01	1.62887962e-02	2.12182141e-04
3.21000000e-01	1.64119679e-02	2.13729938e-04
3.21500000e-01	1.65679653e-02	2.14982811e-04
3.22000000e-01	1.62875335e-02	2.11647631e-04
3.22500000e-01	1.64223954e-02	2.12213813e-04
3.23000000e-01	1.63485403e-02	2.11633669e-04
3.23500000e-01	1.62158752e-02	2.10218438e-04
3.24000000e-01	1.64435101e-02	2.12215280e-04
3.24500000e-01	1.62394717e-02	2.10865162e-04
3.25000000e-01	1.61953517e-02	2.09175846e-04
3.25500000e-01	1.62056345e-02	2.09611499e-04
3.26000000e-01	1.61018026e-02	2.07332564e-04
3.26500000e-01	1.63007385e-02	2.10255082e-04
3.27000000e-01	1.61967443e-02	2.08810583e-04
3.27500000e-01	1.62518109e-02	2.08834005e-04
3.28000000e-01	1.62727452e-02	2.09344978e-04
3.28500000e-01	1.61786105e-02	2.07199032e-04
3.29000000e-01	1.61067580e-02	2.07285427e-04
3.29500000e-01	1.63129310e-02	2.10173134e-04
3.30000000e-01	1.61950764e-02	2.07441265e-04
3.30500000e-01	1.62573746e-02	2.08976834e-04
3.31000000e-01	1.63794847e-02	2.08817633e-04
3.31500000e-01	1.59695684e-02	2.04626330e-04
3.32000000e-01	1.60701964e-02	2.05496775e-04
3.32500000e-01	1.60786212e-02	2.05287978e-04
3.33000000e-01	1.62973555e-02	2.08077086e-04
3.33500000e-01	1.61258230e-02	2.06540663e-04
3.34000000e-01	1.62404731e-02	2.06311579e-04
3.34500000e-01	1.59960445e-02	2.03633000e-04
3.35000000e-01	1.60300071e-02	2.04339878e-04
3.35500000e-01	1.61127752e-02	2.04100263e-04
3.36000000e-01	1.60253997e-02	2.03721002e-04
3.36500000e-01	1.61740541e-02	2.06241533e-04
3.37000000e-01	1.60974931e-02	2.03738568e-04
3.37500000e-01	1.61045453e-02	2.04099135e-04
3.38000000e-01	1.60429154e-02	2.02878666e-04
3.38500000e-01	1.61496100e-02	2.04593026e-04
3.39000000e-01	1.60233896e-02	2.03786616e-04
3.39500000e-01	1.61528756e-02	2.03089597e-04
3.40000000e-01	1.59562333e-02	2.02355604e-04
3.40500000e-01	1.60145167e-02	2.01785213e-04
3.41000000e-01	1.60771128e-02	2.02387425e-04
3.41500000e-01	1.61490308e-02	2.04338097e-04
3.42000000e-01	1.59980746e-02	2.01215246e-04
3.42500000e-01	1.59190335e-02	2.00539882e-04
3.43000000e-01	1.58437142e-02	1.98718009e-04
3.43500000e-01	1.59994010e-02	2.00675287e-04
3.44000000e-01	1.60424781e-02	2.02177789e-04
3.44500000e-01	1.58195549e-02	1.98647484e-04
3.45000000e-01	1.59614342e-02	2.00885377e-04
3.45500000e-01	1.59418285e-02	1.99224413e-04
3.46000000e-01	1.59407425e-02	2.00207923e-04
3.46500000e-01	1.60977346e-02	2.01394251e-04
3.47000000e-01	1.58537335e-02	1.98394083e-04
3.47500000e-01	1.57090291e-02	1.97324641e-04
3.48000000e-01	1.59102096e-02	1.98893701e-04
3.48500000e-01	1.59836213e-02	2.00242533e-04
3.49000000e-01	1.58585582e-02	1.97772739e-04
3.49500000e-01	1.59425484e-02	1.98442851e-04
3.50000000e-01	1.60086242e-02	1.62560912e-04
3.51000000e-01	1.58015106e-02	1.39383359e-04
3.52000000e-01	1.58897439e-02	1.40073364e-04
3.53000000e-01	1.57489996e-02	1.38291645e-04
3.54000000e-01	1.57316303e-02	1.38031201e-04
3.55000000e-01	1.56882888e-02	1.37525652e-04
3.56000000e-01	1.58765073e-02	1.39463866e-04
3.57000000e-01	1.58199636e-02	1.41376966e-04
3.58000000e-01	1.55807166e-02	1.40828529e-04
3.59000000e-01	1.56038688e-02	1.41850699e-04
3.60000000e-01	1.56506274e-02	1.43551190e-04
3.61000000e-01	1.57137318e-02	1.44614641e-04
3.62000000e-01	1.55701730e-02	1.44073677e-04
3.63000000e-01	1.54877641e-02	1.44194458e-04
3.64000000e-01	1.56345065e-02	1.45658217e-04
3.65000000e-01	1.54406184e-02	1.44502600e-04
3.66000000e-01	1.55464550e-02	1.43517728e-04
3.67000000e-01	1.56877959e-02	1.42380206e-04
3.68000000e-01	1.55918510e-02	1.40434129e-04
3.69000000e-01	1.54910887e-02	1.39400657e-04
3.70000000e-01	1.56169800e-02	1.39268198e-04
3.71000000e-01	1.54648489e-02	1.39743737e-04
3.72000000e-01	1.56539257e-02	1.43020658e-04
3.73000000e-01	1.54043886e-02	1.40963420e-04
3.74000000e-01	1.56264050e-02	1.42975710e-04
3.75000000e-01	1.56019418e-02	1.42572717e-04
3.76000000e-01	1.54722392e-02	1.41524941e-04
3.77000000e-01	1.54877623e-02	1.42092516e-04
3.78000000e-01	1.54307193e-02	1.41163461e-04
3.79000000e-01	1.54096663e-02	1.41104486e-04
3.80000000e-01	1.55198215e-02	1.41734203e-04
3.81000000e-01	1.54039420e-02	1.40964409e-04
3.82000000e-01	1.52757759e-02	1.39730896e-04
3.83000000e-01	1.53094602e-02	1.39748523e-04
3.84000000e-01	1.54957115e-02	1.41338613e-04
3.85000000e-01	1.54262714e-02	1.41024458e-04
3.86000000e-01	1.51952504e-02	1.38737803e-04
3.87000000e-01	1.52810603e-02	1.39499541e-04
3.88000000e-01	1.53710925e-02	1.40260299e-04
3.89000000e-01	1.52810281e-02	1.39333486e-04
3.90000000e-01	1.53194687e-02	1.39758165e-04
3.91000000e-01	1.52524596e-02	1.39038257e-04
3.92000000e-01	1.51962255e-02	1.38405874e-04
3.93000000e-01	1.52756173e-02	1.38993232e-04
3.94000000e-01	1.52341288e-02	1.38901449e-04
3.95000000e-01	1.54083443e-02	1.39867979e-04
3.96000000e-01	1.53016676e-02	1.39249977e-04
3.97000000e-01	1.52750367e-02	1.39041883e-04
3.98000000e-01	1.51608157e-02	1.37994616e-04
3.99000000e-01	1.52647159e-02	1.38814281e-04
4.00000000e-01	1.52311471e-02	1.38527290e-04
4.01000000e-01	1.51741855e-02	1.38315493e-04
4.02000000e-01	1.50684413e-02	1.37047817e-04
4.03000000e-01	1.50212610e-02	1.36977775e-04
4.04000000e-01	1.50322458e-02	1.36879970e-04
4.05000000e-01	1.51042569e-02	1.37623047e-04
4.06000000e-01	1.50515076e-02	1.36609484e-04
4.07000000e-01	1.50126488e-02	1.36644366e-04
4.08000000e-01	1.49257683e-02	1.35920187e-04
4.09000000e-01	1.50307436e-02	1.36573923e-04
4.10000000e-01	1.49852871e-02	1.36341922e-04
4.11000000e-01	1.48693716e-02	1.35333272e-04
4.12000000e-01	1.49814264e-02	1.36256014e-04
4.13000000e-01	1.50294961e-02	1.35914817e-04
4.14000000e-01	1.50540513e-02	1.36268387e-04
4.15000000e-01	1.49031134e-02	1.34807237e-04
4.16000000e-01	1.50185663e-02	1.35945629e-04
4.17000000e-01	1.47971449e-02	1.34306689e-04
4.18000000e-01	1.50388793e-02	1.37620882e-04
4.19000000e-01	1.49281491e-02	1.38788168e-04
4.20000000e-01	1.49858616e-02	1.39723387e-04
4.21000000e-01	1.50812229e-02	1.41005971e-04
4.22000000e-01	1.49631012e-02	1.40686743e-04
4.23000000e-01	1.50841800e-02	1.42143087e-04
4.24000000e-01	1.48947533e-02	1.40639724e-04
4.25000000e-01	1.50901815e-02	1.42661769e-04
4.26000000e-01	1.51355476e-02	1.43443203e-04
4.27000000e-01	1.48798745e-02	1.41044473e-04
4.28000000e-01	1.49231524e-02	1.41701454e-04
4.29000000e-01	1.49085357e-02	1.41948628e-04
4.30000000e-01	1.50516118e-02	1.42902584e-04
4.31000000e-01	1.49376854e-02	1.41480844e-04
4.32000000e-01	1.48592045e-02	1.41192498e-04
4.33000000e-01	1.49764529e-02	1.42290549e-04
4.34000000e-01	1.48878342e-02	1.41754873e-04
4.35000000e-01	1.48541518e-02	1.41631588e-04
4.36000000e-01	1.48995895e-02	1.42025797e-04
4.37000000e-01	1.49919576e-02	1.42900065e-04
4.38000000e-01	1.47677042e-02	1.40761155e-04
4.39000000e-01	1.47917282e-02	1.41755286e-04
4.40000000e-01	1.48052014e-02	1.42005970e-04
4.41000000e-01	1.47319187e-02	1.41758413e-04
4.42000000e-01	1.47988064e-02	1.42342500e-04
4.43000000e-01	1.47023783e-02	1.41587498e-04
4.44000000e-01	1.48099587e-02	1.42379451e-04
4.45000000e-01	1.47632971e-02	1.42734535e-04
4.46000000e-01	1.48710406e-02	1.43292719e-04
4.47000000e-01	1.46954874e-02	1.42467874e-04
4.48000000e-01	1.46246476e-02	1.42003187e-04
4.49000000e-01	1.45846210e-02	1.41738100e-04
4.50000000e-01	1.47622404e-02	1.43358488e-04
4.51000000e-01	1.47110077e-02	1.42735835e-04
4.52000000e-01	1.46313838e-02	1.42448639e-04
4.53000000e-01	1.46767876e-02	1.42792183e-04
4.54000000e-01	1.47095831e-02	1.42817552e-04
4.55000000e-01	1.47004956e-02	1.43246025e-04
4.56000000e-01	1.45947144e-02	1.42136241e-04
4.57000000e-01	1.46733933e-02	1.43272382e-04
4.58000000e-01	1.47990403e-02	1.44580049e-04
4.59000000e-01	1.46014791e-02	1.42948254e-04
4.60000000e-01	1.45667964e-02	1.42470750e-04
4.61000000e-01	1.46628950e-02	1.43638998e-04
4.62000000e-01	1.46538545e-02	1.43411152e-04
4.63000000e-01	1.45391907e-02	1.42729670e-04
4.64000000e-01	1.46526158e-02	1.43391145e-04
4.65000000e-01	1.45677438e-02	1.43035141e-04
4.66000000e-01	1.46670290e-02	1.44446917e-04
4.67000000e-01	1.47007235e-02	1.44429424e-04
4.68000000e-01	1.46645684e-02	1.44243583e-04
4.69000000e-01	1.45129117e-02	1.43274761e-04
4.70000000e-01	1.46249609e-02	1.44230318e-04
4.71000000e-01	1.45553763e-02	1.43491502e-04
4.72000000e-01	1.44400809e-02	1.42613838e-04
4.73000000e-01	1.45722320e-02	1.43740637e-04
4.74000000e-01	1.45451443e-02	1.43390380e-04
4.75000000e-01	1.45146958e-02	1.42966323e-04
4.76000000e-01	1.42742889e-02	1.40911684e-04
4.77000000e-01	1.44704119e-02	1.42432270e-04
4.78000000e-01	1.44776308e-02	1.42722115e-04
4.79000000e-01	1.45741056e-02	1.43893988e-04
4.80000000e-01	1.45624431e-02	1.43431140e-04
4.81000000e-01	1.43626613e-02	1.41879397e-04
4.82000000e-01	1.43899972e-02	1.42201171e-04
4.83000000e-01	1.45029077e-02	1.43337766e-04
4.84000000e-01	1.44499292e-02	1.42531316e-04
4.85000000e-01	1.43264726e-02	1.42363619e-04
4.86000000e-01	1.43672974e-02	1.42138923e-04
4.87000000e-01	1.45127752e-02	1.43815739e-04
4.88000000e-01	1.43685989e-02	1.42542127e-04
4.89000000e-01	1.42607507e-02	1.41499313e-04
4.90000000e-01	1.43673538e-02	1.43175165e-04
4.91000000e-01	1.44296476e-02	1.43118639e-04
4.92000000e-01	1.43991485e-02	1.42880239e-04
4.93000000e-01	1.42902959e-02	1.42363314e-04
4.94000000e-01	1.43706379e-02	1.43164328e-04
4.95000000e-01	1.42932903e-02	1.43423355e-04
4.96000000e-01	1.42521558e-02	1.47309520e-04
4.97000000e-01	1.43865826e-02	1.51288332e-04
4.98000000e-01	1.43488546e-02	1.52779995e-04
4.99000000e-01	1.41551241e-02	1.52100326e-04
5.00000000e-01	1.43696439e-02	1.56316167e-04
5.01000000e-01	1.43047138e-02	1.57592384e-04
5.02000000e-01	1.42311833e-02	1.59115881e-04
5.03000000e-01	1.43170012e-02	1.60343793e-04
5.04000000e-01	1.44096902e-02	1.62516857e-04
5.05000000e-01	1.42559763e-02	1.58517241e-04
5.06000000e-01	1.41982274e-02	1.54942279e-04
5.07000000e-01	1.41849366e-02	1.53598611e-04
5.08000000e-01	1.42590796e-02	1.52360114e-04
5.09000000e-01	1.41860992e-02	1.51612409e-04
5.10000000e-01	1.42822262e-02	1.51844788e-04
5.11000000e-01	1.42974672e-02	1.51038014e-04
5.12000000e-01	1.42556600e-02	1.50920415e-04
5.13000000e-01	1.41937607e-02	1.49911666e-04
5.14000000e-01	1.41544304e-02	1.49245076e-04
5.15000000e-01	1.41941939e-02	1.49214087e-04
5.16000000e-01	1.42207795e-02	1.49126542e-04
5.17000000e-01	1.42021346e-02	1.48956316e-04
5.18000000e-01	1.41637963e-02	1.47498215e-04
5.19000000e-01	1.40855145e-02	1.47055592e-04
5.20000000e-01	1.40824853e-02	1.46713574e-04
5.21000000e-01	1.42753740e-02	1.48624525e-04
5.22000000e-01	1.41736628e-02	1.46887749e-04
5.23000000e-01	1.41483543e-02	1.47085406e-04
5.24000000e-01	1.40353298e-02	1.45806606e-04
5.25000000e-01	1.41293932e-02	1.46534899e-04
5.26000000e-01	1.41841812e-02	1.46735005e-04
5.27000000e-01	1.40587034e-02	1.45738382e-04
5.28000000e-01	1.40259524e-02	1.45320703e-04
5.29000000e-01	1.39707492e-02	1.45158742e-04
5.30000000e-01	1.41156048e-02	1.46735032e-04
5.31000000e-01	1.39524992e-02	1.45530287e-04
5.32000000e-01	1.40954718e-02	1.46597370e-04
5.33000000e-01	1.38727187e-02	1.44078844e-04
5.34000000e-01	1.40960216e-02	1.46189217e-04
5.35000000e-01	1.40620949e-02	1.45667807e-04
5.36000000e-01	1.40499700e-02	1.45230743e-04
5.37000000e-01	1.39457224e-02	1.44513752e-04
5.38000000e-01	1.40072461e-02	1.45209811e-04
5.39000000e-01	1.38773459e-02	1.44276831e-04
5.40000000e-01	1.37995375e-02	1.43650950e-04
5.41000000e-01	1.40415169e-02	1.45328823e-04
5.42000000e-01	1.38861864e-02	1.44294781e-04
5.43000000e-01	1.39876185e-02	1.45002739e-04
5.44000000e-01	1.39489813e-02	1.44290610e-04
5.45000000e-01	1.39928900e-02	1.45168797e-04
5.46000000e-01	1.38602160e-02	1.43506224e-04
5.47000000e-01	1.37848000e-02	1.43626267e-04
5.48000000e-01	1.36881534e-02	1.42493422e-04
5.49000000e-01	1.37176962e-02	1.42338234e-04
5.50000000e-01	1.38928313e-02	1.44130304e-04
5.51000000e-01	1.37707229e-02	1.42734744e-04
5.52000000e-01	1.37590165e-02	1.42794795e-04
5.53000000e-01	1.36934329e-02	1.41967468e-04
5.54000000e-01	1.36563135e-02	1.41418640e-04
5.55000000e-01	1.36231200e-02	1.40484194e-04
5.56000000e-01	1.36651161e-02	1.40872160e-04
5.57000000e-01	1.37428206e-02	1.41889304e-04
5.58000000e-01	1.36745514e-02	1.41338015e-04
5.59000000e-01	1.37902221e-02	1.42155742e-04
5.60000000e-01	1.35625179e-02	1.40307529e-04
5.61000000e-01	1.37409263e-02	1.41580624e-04
5.62000000e-01	1.36704678e-02	1.41198087e-04
5.63000000e-01	1.35463926e-02	1.39985800e-04
5.64000000e-01	1.36342202e-02	1.40513635e-04
5.65000000e-01	1.35926075e-02	1.40863048e-04
5.66000000e-01	1.37825235e-02	1.42052398e-04
5.67000000e-01	1.37319918e-02	1.42010063e-04
5.68000000e-01	1.36864250e-02	1.41121960e-04
5.69000000e-01	1.35706946e-02	1.39918372e-04
5.70000000e-01	1.36452885e-02	1.40353674e-04
5.71000000e-01	1.34777111e-02	1.39287740e-04
5.72000000e-01	1.35430128e-02	1.39777152e-04
5.73000000e-01	1.34501623e-02	1.38940094e-04
5.74000000e-01	1.35910244e-02	1.39734415e-04
5.75000000e-01	1.34079064e-02	1.39103589e-04
5.76000000e-01	1.34522009e-02	1.39000719e-04
5.77000000e-01	1.35610846e-02	1.40190442e-04
5.78000000e-01	1.36198610e-02	1.41286558e-04
5.79000000e-01	1.34813565e-02	1.39330809e-04
5.80000000e-01	1.33804717e-02	1.38809186e-04
5.81000000e-01	1.34855919e-02	1.39750935e-04
5.82000000e-01	1.34324010e-02	1.38949213e-04
5.83000000e-01	1.33616219e-02	1.38935173e-04
5.84000000e-01	1.33426855e-02	1.38358144e-04
5.85000000e-01	1.34771580e-02	1.39966879e-04
5.86000000e-01	1.34333063e-02	1.39803408e-04
5.87000000e-01	1.35067864e-02	1.39896094e-04
5.88000000e-01	1.32942082e-02	1.38101116e-04
5.89000000e-01	1.32678681e-02	1.38479015e-04
5.90000000e-01	1.33329590e-02	1.38379983e-04
5.91000000e-01	1.33600724e-02	1.38864273e-04
5.92000000e-01	1.31818237e-02	1.37345111e-04
5.93000000e-01	1.33649374e-02	1.39209523e-04
5.94000000e-01	1.33679097e-02	1.38815245e-04
5.95000000e-01	1.31463274e-02	1.37112041e-04
5.96000000e-01	1.34139904e-02	1.39580311e-04
5.97000000e-01	1.33299425e-02	1.38531485e-04
5.98000000e-01	1.32095593e-02	1.37809513e-04
5.99000000e-01	1.31906951e-02	1.37547178e-04
6.00000000e-01	1.31693548e-02	1.36989979e-04
6.01000000e-01	1.33394286e-02	1.39032340e-04
6.02000000e-01	1.32766988e-02	1.38160161e-04
6.03000000e-01	1.32789212e-02	1.38561261e-04
6.04000000e-01	1.31745589e-02	1.37104816e-04
6.05000000e-01	1.32597160e-02	1.38285334e-04
6.06000000e-01	1.32744349e-02	1.37923864e-04
6.07000000e-01	1.30894904e-02	1.36574885e-04
6.08000000e-01	1.31249983e-02	1.36973630e-04
6.09000000e-01	1.31564212e-02	1.37880821e-04
6.10000000e-01	1.31816944e-02	1.37394536e-04
6.11000000e-01	1.30537197e-02	1.37072021e-04
6.12000000e-01	1.33559271e-02	1.39184907e-04
6.13000000e-01	1.31957082e-02	1.37816360e-04
6.14000000e-01	1.30823343e-02	1.36213919e-04
6.15000000e-01	1.30517462e-02	1.36905796e-04
6.16000000e-01	1.31116360e-02	1.37080535e-04
6.17000000e-01	1.29760482e-02	1.35943399e-04
6.18000000e-01	1.31498094e-02	1.36993680e-04
6.19000000e-01	1.30792560e-02	1.36773699e-04
6.20000000e-01	1.31042812e-02	1.36523937e-04
6.21000000e-01	1.30501959e-02	1.36320396e-04
6.22000000e-01	1.30506204e-02	1.35354425e-04
6.23000000e-01	1.31311604e-02	1.36414837e-04
6.24000000e-01	1.32017066e-02	1.36518944e-04
6.25000000e-01	1.30645083e-02	1.35379506e-04
6.26000000e-01	1.30146228e-02	1.34605303e-04
6.27000000e-01	1.30810361e-02	1.36006811e-04
6.28000000e-01	1.30252684e-02	1.34982411e-04
6.29000000e-01	1.31098385e-02	1.35879953e-04
6.30000000e-01	1.30157363e-02	1.34963141e-04
6.31000000e-01	1.28585896e-02	1.33816209e-04
6.32000000e-01	1.29477098e-02	1.34436148e-04
6.33000000e-01	1.31346047e-02	1.35792760e-04
6.34000000e-01	1.30464054e-02	1.38446129e-04
6.35000000e-01	1.30159869e-02	1.42841917e-04
6.36000000e-01	1.30897693e-02	1.45560506e-04
6.37000000e-01	1.30256180e-02	1.47839840e-04
6.38000000e-01	1.30401699e-02	1.49578094e-04
6.39000000e-01	1.29720905e-02	1.50125321e-04
6.40000000e-01	1.29117286e-02	1.52607821e-04
6.41000000e-01	1.31557675e-02	1.55555665e-04
6.42000000e-01	1.29762065e-02	1.56446617e-04
6.43000000e-01	1.29312172e-02	1.55359626e-04
6.44000000e-01	1.29518988e-02	1.49849782e-04
6.45000000e-01	1.30305722e-02	1.49083667e-04
6.46000000e-01	1.29895528e-02	1.46427048e-04
6.47000000e-01	1.30850883e-02	1.47094699e-04
6.48000000e-01	1.31840152e-02	1.47222455e-04
6.49000000e-01	1.30400955e-02	1.44739358e-04
6.50000000e-01	1.31995245e-02	1.45021805e-04
6.51000000e-01	1.30554821e-02	1.43738723e-04
6.52000000e-01	1.30530282e-02	1.42789395e-04
6.53000000e-01	1.30244026e-02	1.42160356e-04
6.54000000e-01	1.29525807e-02	1.41270301e-04
6.55000000e-01	1.29704897e-02	1.40577726e-04
6.56000000e-01	1.29527909e-02	1.40554638e-04
6.57000000e-01	1.30856837e-02	1.41153167e-04
6.58000000e-01	1.29844152e-02	1.40464640e-04
6.59000000e-01	1.29814331e-02	1.40115707e-04
6.60000000e-01	1.30380911e-02	1.40465898e-04
6.61000000e-01	1.28152573e-02	1.38133715e-04
6.62000000e-01	1.30103721e-02	1.40620415e-04
6.63000000e-01	1.29467140e-02	1.39986287e-04
6.64000000e-01	1.28749339e-02	1.38084288e-04
6.65000000e-01	1.27983177e-02	1.38422302e-04
6.66000000e-01	1.28562453e-02	1.38602364e-04
6.67000000e-01	1.28688877e-02	1.38544446e-04
6.68000000e-01	1.28504934e-02	1.38195883e-04
6.69000000e-01	1.29274063e-02	1.39209297e-04
6.70000000e-01	1.28033812e-02	1.37540851e-04
6.71000000e-01	1.28067501e-02	1.37940447e-04
6.72000000e-01	1.29128571e-02	1.38850173e-04
6.73000000e-01	1.28748460e-02	1.38278214e-04
6.74000000e-01	1.28161608e-02	1.37523941e-04
6.75000000e-01	1.28137330e-02	1.37412090e-04
6.76000000e-01	1.27566149e-02	1.37370071e-04
6.77000000e-01	1.27771099e-02	1.36890157e-04
6.78000000e-01	1.28356172e-02	1.37627810e-04
6.79000000e-01	1.27944372e-02	1.37240939e-04
6.80000000e-01	1.27748538e-02	1.36762632e-04
6.81000000e-01	1.27695401e-02	1.37194924e-04
6.82000000e-01	1.28522537e-02	1.38042785e-04
6.83000000e-01	1.27601094e-02	1.36452846e-04
6.84000000e-01	1.27364039e-02	1.36410118e-04
6.85000000e-01	1.28027834e-02	1.37551860e-04
6.86000000e-01	1.27980820e-02	1.37199630e-04
6.87000000e-01	1.27737855e-02	1.36922270e-04
6.88000000e-01	1.27044484e-02	1.36366085e-04
6.89000000e-01	1.28567255e-02	1.37176832e-04
6.90000000e-01	1.27210406e-02	1.36376634e-04
6.91000000e-01	1.27076443e-02	1.36354829e-04
6.92000000e-01	1.26106824e-02	1.35312502e-04
6.93000000e-01	1.27531671e-02	1.36639674e-04
6.94000000e-01	1.26559419e-02	1.35876034e-04
6.95000000e-01	1.26392364e-02	1.35787975e-04
6.96000000e-01	1.26156777e-02	1.34980554e-04
6.97000000e-01	1.26101827e-02	1.35134121e-04
6.98000000e-01	1.25896862e-02	1.34545211e-04
6.99000000e-01	1.26842228e-02	1.35521094e-04
7.00000000e-01	1.26566024e-02	1.35663470e-04
7.01000000e-01	1.25000022e-02	1.33946903e-04
7.02000000e-01	1.26990226e-02	1.36076520e-04
7.03000000e-01	1.26756120e-02	1.35602403e-04
7.04000000e-01	1.26366671e-02	1.35201218e-04
7.05000000e-01	1.25723674e-02	1.34836835e-04
7.06000000e-01	1.24584107e-02	1.33713525e-04
7.07000000e-01	1.24970307e-02	1.33707167e-04
7.08000000e-01	1.26044176e-02	1.34083035e-04
7.09000000e-01	1.24010774e-02	1.32821638e-04
7.10000000e-01	1.24329759e-02	1.33116988e-04
7.11000000e-01	1.25400413e-02	1.34400740e-04
7.12000000e-01	1.25106045e-02	1.34315115e-04
7.13000000e-01	1.24031458e-02	1.32587605e-04
7.14000000e-01	1.24085018e-02	1.33078934e-04
7.15000000e-01	1.23751480e-02	1.32770531e-04
7.16000000e-01	1.23526428e-02	1.32378257e-04
7.17000000e-01	1.24404579e-02	1.33460893e-04
7.18000000e-01	1.24344620e-02	1.33019015e-04
7.19000000e-01	1.23685320e-02	1.33254505e-04
7.20000000e-01	1.23921561e-02	1.32538462e-04
7.21000000e-01	1.22636612e-02	1.31567311e-04
7.22000000e-01	1.23929576e-02	1.33062886e-04
7.23000000e-01	1.24167623e-02	1.32834319e-04
7.24000000e-01	1.23904420e-02	1.32904049e-04
7.25000000e-01	1.23993868e-02	1.33104152e-04
7.26000000e-01	1.22817437e-02	1.31615506e-04
7.27000000e-01	1.23759274e-02	1.32532147e-04
7.28000000e-01	1.24068718e-02	1.32960302e-04
7.29000000e-01	1.22901703e-02	1.31778600e-04
7.30000000e-01	1.22896208e-02	1.31655155e-04
7.31000000e-01	1.23651771e-02	1.32401306e-04
7.32000000e-01	1.23000547e-02	1.31749801e-04
7.33000000e-01	1.22681939e-02	1.31627748e-04
7.34000000e-01	1.23731714e-02	1.32053233e-04
7.35000000e-01	1.21456828e-02	1.30107709e-04
7.36000000e-01	1.21760052e-02	1.30178091e-04
7.37000000e-01	1.21453579e-02	1.29335228e-04
7.38000000e-01	1.21728640e-02	1.29777228e-04
7.39000000e-01	1.21520779e-02	1.29649413e-04
7.40000000e-01	1.21280289e-02	1.29324801e-04
7.41000000e-01	1.22217475e-02	1.29825912e-04
7.42000000e-01	1.21757730e-02	1.29383055e-04
7.43000000e-01	1.20892182e-02	1.28892481e-04
7.44000000e-01	1.19110667e-02	1.27334405e-04
7.45000000e-01	1.22421866e-02	1.30123583e-04
7.46000000e-01	1.20935392e-02	1.28356183e-04
7.47000000e-01	1.20971171e-02	1.28549835e-04
7.48000000e-01	1.21700418e-02	1.29282192e-04
7.49000000e-01	1.22350008e-02	1.30123714e-04
7.50000000e-01	1.19872773e-02	1.27435950e-04
7.51000000e-01	1.20201177e-02	1.27696686e-04
7.52000000e-01	1.20569578e-02	1.27569325e-04
7.53000000e-01	1.21142470e-02	1.28715090e-04
7.54000000e-01	1.20036122e-02	1.27832362e-04
7.55000000e-01	1.20161837e-02	1.28132635e-04
7.56000000e-01	1.20143532e-02	1.27400341e-04
7.57000000e-01	1.20789065e-02	1.28870012e-04
7.58000000e-01	1.19735119e-02	1.27309668e-04
7.59000000e-01	1.20223275e-02	1.27558882e-04
7.60000000e-01	1.19952865e-02	1.27026013e-04
7.61000000e-01	1.20308871e-02	1.27660040e-04
7.62000000e-01	1.18845803e-02	1.25937651e-04
7.63000000e-01	1.19658137e-02	1.26409635e-04
7.64000000e-01	1.18652604e-02	1.25623088e-04
7.65000000e-01	1.18541432e-02	1.25156435e-04
7.66000000e-01	1.17970035e-02	1.24817396e-04
7.67000000e-01	1.18581348e-02	1.25485083e-04
7.68000000e-01	1.19264695e-02	1.25498944e-04
7.69000000e-01	1.19497441e-02	1.25946429e-04
7.70000000e-01	1.18566825e-02	1.25385844e-04
7.71000000e-01	1.17078013e-02	1.23881402e-04
7.72000000e-01	1.18463838e-02	1.29469482e-04
7.73000000e-01	1.19859588e-02	1.34168693e-04
7.74000000e-01	1.17385187e-02	1.34900978e-04
7.75000000e-01	1.17522261e-02	1.36924444e-04
7.76000000e-01	1.17707456e-02	1.39500019e-04
7.77000000e-01	1.17646074e-02	1.41208068e-04
7.78000000e-01	1.17653320e-02	1.43427675e-04
7.79000000e-01	1.17568306e-02	1.45145345e-04
7.80000000e-01	1.16825036e-02	1.45260323e-04
7.81000000e-01	1.17307835e-02	1.48231491e-04
7.82000000e-01	1.16181134e-02	1.48256545e-04
7.83000000e-01	1.16821080e-02	1.50687162e-04
7.84000000e-01	1.17905862e-02	1.53274856e-04
7.85000000e-01	1.16695757e-02	1.53436211e-04
7.86000000e-01	1.16347051e-02	1.54810218e-04
7.87000000e-01	1.16556116e-02	1.56386723e-04
7.88000000e-01	1.15304185e-02	1.55905986e-04
7.89000000e-01	1.16512214e-02	1.59641315e-04
7.90000000e-01	1.16872912e-02	1.61704366e-04
7.91000000e-01	1.15652398e-02	1.62114062e-04
7.92000000e-01	1.16931027e-02	1.64146852e-04
7.93000000e-01	1.16814815e-02	1.66402386e-04
7.94000000e-01	1.16418336e-02	1.66840614e-04
7.95000000e-01	1.14344058e-02	1.66948058e-04
7.96000000e-01	1.16446277e-02	1.70579473e-04
7.97000000e-01	1.15770630e-02	1.72524456e-04
7.98000000e-01	1.15709500e-02	1.73293946e-04
7.99000000e-01	1.15976935e-02	1.76071375e-04
8.00000000e-01	1.15118610e-02	1.76056588e-04
8.01000000e-01	1.14223187e-02	1.77119349e-04
8.02000000e-01	1.14998101e-02	1.79879752e-04
8.03000000e-01	1.14020254e-02	1.80645741e-04
8.04000000e-01	1.14249568e-02	1.81650888e-04
8.05000000e-01	1.14466323e-02	1.85731849e-04
8.06000000e-01	1.15979792e-02	1.88683206e-04
8.07000000e-01	1.15825465e-02	1.89462059e-04
8.08000000e-01	1.15084128e-02	1.92537691e-04
8.09000000e-01	1.14452509e-02	1.92272201e-04
8.10000000e-01	1.12337703e-02	1.92949914e-04
8.11000000e-01	1.13972307e-02	1.97586702e-04
8.12000000e-01	1.14130563e-02	1.99505350e-04
8.13000000e-01	1.12668468e-02	1.99554331e-04
8.14000000e-01	1.12843578e-02	2.01730890e-04
8.15000000e-01	1.12271289e-02	2.03525743e-04
8.16000000e-01	1.13931665e-02	2.08711727e-04
8.17000000e-01	1.14219374e-02	2.10604028e-04
8.18000000e-01	1.14633334e-02	2.14224448e-04
8.19000000e-01	1.13247980e-02	2.16715232e-04
8.20000000e-01	1.13988269e-02	2.18542786e-04
8.21000000e-01	1.11761580e-02	2.16761293e-04
8.22000000e-01	1.10734401e-02	2.20268077e-04
8.23000000e-01	1.10280802e-02	2.21233137e-04
8.24000000e-01	1.09689819e-02	2.23671973e-04
8.25000000e-01	1.11753364e-02	2.30724453e-04
8.26000000e-01	1.10577878e-02	2.33019616e-04
8.27000000e-01	1.13211659e-02	2.39050076e-04
8.28000000e-01	1.09848762e-02	2.38282705e-04
8.29000000e-01	1.10461727e-02	2.42502653e-04
8.30000000e-01	1.11639224e-02	2.46954100e-04
8.31000000e-01	1.09114802e-02	2.46198240e-04
8.32000000e-01	1.11422318e-02	2.55333227e-04
8.33000000e-01	1.10460483e-02	2.58385149e-04
8.34000000e-01	1.10811443e-02	2.62333757e-04
8.35000000e-01	1.09758341e-02	2.65908369e-04
8.36000000e-01	1.10712324e-02	2.70952764e-04
8.37000000e-01	1.09259269e-02	2.75091670e-04
8.38000000e-01	1.11246536e-02	2.85294496e-04
8.39000000e-01	1.10250544e-02	2.87687559e-04
8.40000000e-01	1.06215309e-02	2.83953217e-04
8.41000000e-01	1.04986470e-02	2.86776652e-04
8.42000000e-01	1.09386574e-02	3.06097719e-04
8.43000000e-01	1.09834052e-02	3.15232476e-04
8.44000000e-01	1.08445897e-02	3.18542771e-04
8.45000000e-01	1.12377017e-02	3.34096430e-04
8.46000000e-01	1.06688230e-02	3.31941740e-04
8.47000000e-01	1.07997098e-02	3.42351334e-04
8.48000000e-01	1.06031564e-02	3.50763719e-04
8.49000000e-01	1.10750224e-02	3.74090409e-04
8.50000000e-01	1.06989999e-02	3.76849984e-04
8.51000000e-01	1.11993658e-02	4.12776216e-04
8.52000000e-01	1.07947911e-02	4.09659391e-04
8.53000000e-01	1.03764181e-02	4.09509902e-04
8.54000000e-01	1.04880689e-02	4.40219443e-04
8.55000000e-01	1.07336234e-02	4.64087284e-04
8.56000000e-01	1.08838829e-02	4.72963805e-04
8.57000000e-01	1.05515695e-02	4.79176630e-04
8.58000000e-01	1.04785829e-02	4.87983999e-04
8.59000000e-01	1.10747879e-02	5.28109744e-04
8.60000000e-01	1.10620669e-02	5.48712870e-04
8.61000000e-01	1.06264794e-02	5.42730745e-04
8.62000000e-01	1.05464314e-02	5.60471475e-04
8.63000000e-01	1.01050132e-02	5.61603698e-04
8.64000000e-01	1.09492840e-02	6.32104245e-04
8.65000000e-01	1.05249614e-02	6.37622523e-04
8.66000000e-01	9.89496715e-03	6.42031512e-04
8.67000000e-01	9.85232894e-03	6.89025415e-04
8.68000000e-01	1.08698625e-02	7.95987035e-04
8.69000000e-01	9.53010883e-03	7.42742474e-04
8.70000000e-01	1.02036916e-02	8.91109608e-04
8.71000000e-01	1.01635042e-02	9.42849337e-04
8.72000000e-01	1.03134175e-02	1.09911675e-03
8.73000000e-01	1.08576910e-02	1.37091928e-03
8.74000000e-01	9.94516079e-03	1.60292532e-03
8.75000000e-01	1.06348941e-02	3.48913394e-03
