% Filename : SDL7_00012_00250.h5
% Date & Time : 30-Oct-2025 15:01:11
% X-ray Energy (keV) : 13.30001
% Exposure Time (s) : 0.500
% Beam Center : 1461.24000, 208.98300
% Sample to Detector Distance (SDD) (mm) : 1990.750
% Detector Pixel Size (mm) : 0.075
% Photodiode Value : 136178.000
% I0 of Sample : 0
% I0 of Standard : 1
% 
% q(A^-1)   I(q)    I(q)_SE
0.00000000e+00	1.32669601e-02	7.26660328e-03
2.50000000e-04	0.00000000e+00	0.00000000e+00
5.00000000e-04	0.00000000e+00	0.00000000e+00
7.50000000e-04	0.00000000e+00	0.00000000e+00
1.00000000e-03	0.00000000e+00	0.00000000e+00
1.25000000e-03	0.00000000e+00	0.00000000e+00
1.50000000e-03	0.00000000e+00	0.00000000e+00
1.75000000e-03	0.00000000e+00	0.00000000e+00
2.00000000e-03	0.00000000e+00	0.00000000e+00
2.25000000e-03	0.00000000e+00	0.00000000e+00
2.50000000e-03	0.00000000e+00	0.00000000e+00
2.75000000e-03	0.00000000e+00	0.00000000e+00
3.00000000e-03	0.00000000e+00	0.00000000e+00
3.25000000e-03	9.34893812e+01	8.20190861e+01
3.50000000e-03	1.96985246e+01	1.53158589e+01
3.75000000e-03	9.63133885e+00	6.99056160e+00
4.00000000e-03	7.31474193e+00	4.29884619e+00
4.25000000e-03	2.50330409e+00	9.65449622e-01
4.50000000e-03	4.05408955e+00	1.82913663e+00
4.75000000e-03	4.49758070e+00	1.78666637e+00
5.00000000e-03	3.50177315e+00	1.32874792e+00
5.25000000e-03	3.01037592e+00	1.12436031e+00
5.50000000e-03	2.48990434e+00	9.26862234e-01
5.75000000e-03	2.17284483e+00	8.03642900e-01
6.00000000e-03	1.82984324e+00	6.80767421e-01
6.25000000e-03	1.59130521e+00	6.09119109e-01
6.50000000e-03	1.36214074e+00	5.21224219e-01
6.75000000e-03	1.16796306e+00	4.47258917e-01
7.00000000e-03	1.01899178e+00	3.78095012e-01
7.25000000e-03	8.78929252e-01	3.27597963e-01
7.50000000e-03	7.65554147e-01	2.77801498e-01
7.75000000e-03	6.61447793e-01	2.37463653e-01
8.00000000e-03	6.14040089e-01	2.12116400e-01
8.25000000e-03	5.18481095e-01	1.73440919e-01
8.50000000e-03	4.57058807e-01	1.45785790e-01
8.75000000e-03	4.22177640e-01	1.31806001e-01
9.00000000e-03	3.75950279e-01	1.16039728e-01
9.25000000e-03	3.28483670e-01	9.89473888e-02
9.50000000e-03	2.97988897e-01	8.68292674e-02
9.75000000e-03	2.71551261e-01	8.26020450e-02
1.00000000e-02	2.42687605e-01	7.30459301e-02
1.02500000e-02	2.35647090e-01	7.26076814e-02
1.05000000e-02	2.08206234e-01	6.34276824e-02
1.07500000e-02	1.91789302e-01	5.81046185e-02
1.10000000e-02	1.69313611e-01	4.96496830e-02
1.12500000e-02	1.35003306e-01	3.48248119e-02
1.15000000e-02	1.46369138e-01	3.89949813e-02
1.17500000e-02	1.33047621e-01	3.59025967e-02
1.20000000e-02	1.26365673e-01	3.25217439e-02
1.22500000e-02	1.14318036e-01	2.89481735e-02
1.25000000e-02	1.11125740e-01	2.79094474e-02
1.27500000e-02	1.06401054e-01	2.69861921e-02
1.30000000e-02	9.82143640e-02	2.42562091e-02
1.32500000e-02	9.36268002e-02	2.30236172e-02
1.35000000e-02	8.73531567e-02	2.12318487e-02
1.37500000e-02	8.18153538e-02	2.05185726e-02
1.40000000e-02	7.64908957e-02	1.84040702e-02
1.42500000e-02	7.21670180e-02	1.63953101e-02
1.45000000e-02	7.11470606e-02	1.64049703e-02
1.47500000e-02	6.76121115e-02	1.54670097e-02
1.50000000e-02	6.37190735e-02	1.33320898e-02
1.52500000e-02	5.89662210e-02	1.12915061e-02
1.55000000e-02	5.67534215e-02	1.09426165e-02
1.57500000e-02	5.41102534e-02	1.03112424e-02
1.60000000e-02	5.46212806e-02	1.00579538e-02
1.62500000e-02	5.17236404e-02	9.37483596e-03
1.65000000e-02	4.99141346e-02	9.21001622e-03
1.67500000e-02	4.70116287e-02	7.97633732e-03
1.70000000e-02	4.69569828e-02	8.00114572e-03
1.72500000e-02	4.45152842e-02	7.23617911e-03
1.75000000e-02	4.41771556e-02	6.98074980e-03
1.77500000e-02	4.27889463e-02	6.57610039e-03
1.80000000e-02	4.08279351e-02	6.44544922e-03
1.82500000e-02	3.97992873e-02	5.85233715e-03
1.85000000e-02	3.93879719e-02	5.95571204e-03
1.87500000e-02	3.78422585e-02	5.01933198e-03
1.90000000e-02	3.66398703e-02	4.59246140e-03
1.92500000e-02	3.69915010e-02	4.46410158e-03
1.95000000e-02	3.37426489e-02	3.61567465e-03
1.97500000e-02	3.47089969e-02	4.05590564e-03
2.00000000e-02	3.30344399e-02	3.77950725e-03
2.02500000e-02	3.17598664e-02	3.65674211e-03
2.05000000e-02	3.27356857e-02	3.61065328e-03
2.07500000e-02	3.24182855e-02	3.40813077e-03
2.10000000e-02	3.23953358e-02	3.41929324e-03
2.12500000e-02	3.15721199e-02	3.56898291e-03
2.15000000e-02	3.19246475e-02	3.49860082e-03
2.17500000e-02	3.08268541e-02	3.04898535e-03
2.20000000e-02	3.11520430e-02	3.34814522e-03
2.22500000e-02	3.16465143e-02	3.02977827e-03
2.25000000e-02	3.01861031e-02	2.86657869e-03
2.27500000e-02	3.06277423e-02	2.93769847e-03
2.30000000e-02	2.89253810e-02	2.65413159e-03
2.32500000e-02	2.92043170e-02	2.46897833e-03
2.35000000e-02	2.90918145e-02	2.61784790e-03
2.37500000e-02	2.91243451e-02	2.56281933e-03
2.40000000e-02	2.85647639e-02	2.30015459e-03
2.42500000e-02	2.81722166e-02	2.20352295e-03
2.45000000e-02	2.68177115e-02	2.25717920e-03
2.47500000e-02	2.78396695e-02	2.08479743e-03
2.50000000e-02	2.79218035e-02	2.13601941e-03
2.52500000e-02	2.59337457e-02	1.92864274e-03
2.55000000e-02	2.69286731e-02	1.91191837e-03
2.57500000e-02	2.71496778e-02	1.91461930e-03
2.60000000e-02	2.60334893e-02	1.80317920e-03
2.62500000e-02	2.60698700e-02	1.75890129e-03
2.65000000e-02	2.55407639e-02	1.83182383e-03
2.67500000e-02	2.49562407e-02	1.56315746e-03
2.70000000e-02	2.48612575e-02	1.37751752e-03
2.72500000e-02	2.68300133e-02	1.71997425e-03
2.75000000e-02	2.54849049e-02	1.71328642e-03
2.77500000e-02	2.50947893e-02	1.59752848e-03
2.80000000e-02	2.48758707e-02	1.44137111e-03
2.82500000e-02	2.44699355e-02	1.43845691e-03
2.85000000e-02	2.61270585e-02	1.58610863e-03
2.87500000e-02	2.66699676e-02	1.59477481e-03
2.90000000e-02	2.57092606e-02	1.50115793e-03
2.92500000e-02	2.60767252e-02	1.57293601e-03
2.95000000e-02	2.55934657e-02	1.54836629e-03
2.97500000e-02	2.53587744e-02	1.36786911e-03
3.00000000e-02	2.56644282e-02	1.42669606e-03
3.02500000e-02	2.47024014e-02	1.39422385e-03
3.05000000e-02	2.50334602e-02	1.27338630e-03
3.07500000e-02	2.37160633e-02	1.21160006e-03
3.10000000e-02	2.47017969e-02	1.34203074e-03
3.12500000e-02	2.49217545e-02	1.31470082e-03
3.15000000e-02	2.44558757e-02	1.30446456e-03
3.17500000e-02	2.44510190e-02	1.24779390e-03
3.20000000e-02	2.49713546e-02	1.25953017e-03
3.22500000e-02	2.44525522e-02	1.22108694e-03
3.25000000e-02	2.41854700e-02	1.22228528e-03
3.27500000e-02	2.42515874e-02	1.25247702e-03
3.30000000e-02	2.33413253e-02	1.17491451e-03
3.32500000e-02	2.38665090e-02	1.17451158e-03
3.35000000e-02	2.35639510e-02	1.16121581e-03
3.37500000e-02	2.36958677e-02	1.16315733e-03
3.40000000e-02	2.33411730e-02	1.14492262e-03
3.42500000e-02	2.38810442e-02	1.14220335e-03
3.45000000e-02	2.28172363e-02	1.12485885e-03
3.47500000e-02	2.39504724e-02	1.14013114e-03
3.50000000e-02	2.37930928e-02	1.13062282e-03
3.52500000e-02	2.31061664e-02	1.14259594e-03
3.55000000e-02	2.29583261e-02	1.11982847e-03
3.57500000e-02	2.26305633e-02	1.09172681e-03
3.60000000e-02	2.34216906e-02	1.09623123e-03
3.62500000e-02	2.31260199e-02	1.08236584e-03
3.65000000e-02	2.18818975e-02	1.03307165e-03
3.67500000e-02	2.24629864e-02	1.05231807e-03
3.70000000e-02	2.20084100e-02	1.06033126e-03
3.72500000e-02	2.24654770e-02	1.06095638e-03
3.75000000e-02	2.19512153e-02	1.03458593e-03
3.77500000e-02	2.30781059e-02	1.06862718e-03
3.80000000e-02	2.29299460e-02	1.06611007e-03
3.82500000e-02	2.25677180e-02	1.03102685e-03
3.85000000e-02	2.21813775e-02	1.00343130e-03
3.87500000e-02	2.29412721e-02	1.02909512e-03
3.90000000e-02	2.24178740e-02	1.01645657e-03
3.92500000e-02	2.28377763e-02	1.02385916e-03
3.95000000e-02	2.16934914e-02	9.79397258e-04
3.97500000e-02	2.25016475e-02	1.00992401e-03
4.00000000e-02	2.24153359e-02	1.01332520e-03
4.02500000e-02	2.18351210e-02	9.85007080e-04
4.05000000e-02	2.26836287e-02	1.00956345e-03
4.07500000e-02	2.21866184e-02	9.75742948e-04
4.10000000e-02	2.14193287e-02	9.61618474e-04
4.12500000e-02	2.20721627e-02	9.66924879e-04
4.15000000e-02	2.20418178e-02	9.56139066e-04
4.17500000e-02	2.20945076e-02	9.65710796e-04
4.20000000e-02	2.19207587e-02	9.47044015e-04
4.22500000e-02	2.14986225e-02	9.23742974e-04
4.25000000e-02	2.17094778e-02	9.39939188e-04
4.27500000e-02	2.19024445e-02	9.45647729e-04
4.30000000e-02	2.23779489e-02	9.63962270e-04
4.32500000e-02	2.16048590e-02	9.25133781e-04
4.35000000e-02	2.16119852e-02	9.41598586e-04
4.37500000e-02	2.22314794e-02	9.35259375e-04
4.40000000e-02	2.21831390e-02	9.48343383e-04
4.42500000e-02	2.12769546e-02	9.02683388e-04
4.45000000e-02	2.18102473e-02	9.17758439e-04
4.47500000e-02	2.16184107e-02	9.10774666e-04
4.50000000e-02	2.16544764e-02	9.22223748e-04
4.52500000e-02	2.21351889e-02	9.25733187e-04
4.55000000e-02	2.18092068e-02	9.13786775e-04
4.57500000e-02	2.12195022e-02	8.97566698e-04
4.60000000e-02	2.06459322e-02	8.72612213e-04
4.62500000e-02	2.05092895e-02	8.59581996e-04
4.65000000e-02	2.18675005e-02	9.15471765e-04
4.67500000e-02	2.16078513e-02	8.95157372e-04
4.70000000e-02	2.11948953e-02	8.79246046e-04
4.72500000e-02	2.10559651e-02	8.86771623e-04
4.75000000e-02	2.13219147e-02	8.91449846e-04
4.77500000e-02	2.10759237e-02	8.65988587e-04
4.80000000e-02	2.10280908e-02	8.67888100e-04
4.82500000e-02	2.11925762e-02	8.58363540e-04
4.85000000e-02	2.17369885e-02	8.98805331e-04
4.87500000e-02	2.13992999e-02	8.69299930e-04
4.90000000e-02	2.12376577e-02	8.63410803e-04
4.92500000e-02	2.02975360e-02	8.28891786e-04
4.95000000e-02	2.12722629e-02	8.60474253e-04
4.97500000e-02	2.11477368e-02	8.64684863e-04
5.00000000e-02	2.07439219e-02	8.38218635e-04
5.02500000e-02	2.11002669e-02	8.45240309e-04
5.05000000e-02	2.11212201e-02	8.46551061e-04
5.07500000e-02	2.12107694e-02	8.52980684e-04
5.10000000e-02	2.16453068e-02	8.61265034e-04
5.12500000e-02	2.05835190e-02	8.28659713e-04
5.15000000e-02	2.03725453e-02	8.17336810e-04
5.17500000e-02	2.03078721e-02	8.15435074e-04
5.20000000e-02	2.10603349e-02	8.25695649e-04
5.22500000e-02	2.11898896e-02	8.45620536e-04
5.25000000e-02	2.06261102e-02	8.15543384e-04
5.27500000e-02	2.05115821e-02	8.19272917e-04
5.30000000e-02	2.06384938e-02	8.22749804e-04
5.32500000e-02	2.05881389e-02	8.17589736e-04
5.35000000e-02	2.04855625e-02	8.04045533e-04
5.37500000e-02	2.05707036e-02	8.01895565e-04
5.40000000e-02	2.08738194e-02	8.21014809e-04
5.42500000e-02	2.11474186e-02	8.25448820e-04
5.45000000e-02	2.14011090e-02	8.33122729e-04
5.47500000e-02	2.07342928e-02	8.03388812e-04
5.50000000e-02	2.05470190e-02	8.02564621e-04
5.52500000e-02	2.03261016e-02	7.86585082e-04
5.55000000e-02	2.02244160e-02	7.82890462e-04
5.57500000e-02	2.08463117e-02	8.10199050e-04
5.60000000e-02	2.15086033e-02	8.32366527e-04
5.62500000e-02	2.05984172e-02	8.02209064e-04
5.65000000e-02	2.04908683e-02	7.91139148e-04
5.67500000e-02	1.99326091e-02	7.62905301e-04
5.70000000e-02	2.08295156e-02	7.97513393e-04
5.72500000e-02	2.02201928e-02	7.75906578e-04
5.75000000e-02	2.06729819e-02	7.96635177e-04
5.77500000e-02	2.07561417e-02	7.89963713e-04
5.80000000e-02	2.11224322e-02	8.11187024e-04
5.82500000e-02	2.05137204e-02	7.80689781e-04
5.85000000e-02	2.07388531e-02	7.88722239e-04
5.87500000e-02	2.03804933e-02	7.63872660e-04
5.90000000e-02	2.06325561e-02	7.78079363e-04
5.92500000e-02	2.03414843e-02	7.61157011e-04
5.95000000e-02	2.04945477e-02	7.66496008e-04
5.97500000e-02	2.00689307e-02	7.64810357e-04
6.00000000e-02	2.03555239e-02	7.64348183e-04
6.02500000e-02	2.08300865e-02	7.77337379e-04
6.05000000e-02	2.06227735e-02	7.71240343e-04
6.07500000e-02	2.02364840e-02	7.61992365e-04
6.10000000e-02	2.10405246e-02	7.83281265e-04
6.12500000e-02	2.02312313e-02	7.47157637e-04
6.15000000e-02	2.01137676e-02	7.47651979e-04
6.17500000e-02	2.09627441e-02	7.71280981e-04
6.20000000e-02	2.05677739e-02	7.65854660e-04
6.22500000e-02	1.97414400e-02	7.35564156e-04
6.25000000e-02	2.05909685e-02	7.59134985e-04
6.27500000e-02	2.03382871e-02	7.48353123e-04
6.30000000e-02	2.01707732e-02	7.41360374e-04
6.32500000e-02	2.05534682e-02	7.60833301e-04
6.35000000e-02	2.02162153e-02	7.42214690e-04
6.37500000e-02	2.05923332e-02	7.52031525e-04
6.40000000e-02	1.99215643e-02	7.32044340e-04
6.42500000e-02	2.04057766e-02	7.38002207e-04
6.45000000e-02	2.04048802e-02	7.34098415e-04
6.47500000e-02	2.02720498e-02	7.38463056e-04
6.50000000e-02	2.04151792e-02	7.46327363e-04
6.52500000e-02	2.03163375e-02	7.41686588e-04
6.55000000e-02	2.06226362e-02	7.40616107e-04
6.57500000e-02	2.03654315e-02	7.32909484e-04
6.60000000e-02	1.98390507e-02	7.08526849e-04
6.62500000e-02	1.97854170e-02	7.14532084e-04
6.65000000e-02	2.00755366e-02	7.19760843e-04
6.67500000e-02	2.05137356e-02	7.29417650e-04
6.70000000e-02	2.01874615e-02	7.24783383e-04
6.72500000e-02	1.96779192e-02	7.04123131e-04
6.75000000e-02	2.08229819e-02	7.29919038e-04
6.77500000e-02	2.00596863e-02	7.19140819e-04
6.80000000e-02	2.03678014e-02	7.27901893e-04
6.82500000e-02	2.04484878e-02	7.26438043e-04
6.85000000e-02	2.01214409e-02	7.16121400e-04
6.87500000e-02	2.02549224e-02	7.15152259e-04
6.90000000e-02	2.04778813e-02	7.17099097e-04
6.92500000e-02	2.03296931e-02	7.12191337e-04
6.95000000e-02	2.00113882e-02	7.14849450e-04
6.97500000e-02	2.02366977e-02	7.15408306e-04
7.00000000e-02	2.06273246e-02	7.22347569e-04
7.02500000e-02	2.00023070e-02	7.12323146e-04
7.05000000e-02	2.00458576e-02	7.00145007e-04
7.07500000e-02	2.00457919e-02	7.04389176e-04
7.10000000e-02	1.97875665e-02	6.88942932e-04
7.12500000e-02	2.01874513e-02	7.02337909e-04
7.15000000e-02	2.02519094e-02	7.06140724e-04
7.17500000e-02	2.01854694e-02	7.04137999e-04
7.20000000e-02	2.00185230e-02	6.94966712e-04
7.22500000e-02	1.94246674e-02	6.79660295e-04
7.25000000e-02	1.98705812e-02	6.89598636e-04
7.27500000e-02	2.06046424e-02	7.11509096e-04
7.30000000e-02	2.06345659e-02	7.15338347e-04
7.32500000e-02	2.01549188e-02	7.01907614e-04
7.35000000e-02	2.01007923e-02	6.94798311e-04
7.37500000e-02	1.99055213e-02	6.78749086e-04
7.40000000e-02	1.93734523e-02	6.67900952e-04
7.42500000e-02	1.99650112e-02	6.90281560e-04
7.45000000e-02	1.98836984e-02	6.87000346e-04
7.47500000e-02	1.94577818e-02	6.66587137e-04
7.50000000e-02	2.00525359e-02	6.82656747e-04
7.52500000e-02	1.96313086e-02	6.70396125e-04
7.55000000e-02	1.93992203e-02	6.62369837e-04
7.57500000e-02	1.99378643e-02	6.76915102e-04
7.60000000e-02	1.97580195e-02	6.74087202e-04
7.62500000e-02	1.99962802e-02	6.78138671e-04
7.65000000e-02	2.06421682e-02	6.97493706e-04
7.67500000e-02	2.03884710e-02	6.90300100e-04
7.70000000e-02	2.03912942e-02	6.85256554e-04
7.72500000e-02	2.04320181e-02	6.99011558e-04
7.75000000e-02	2.00367445e-02	6.97044988e-04
7.77500000e-02	1.97791029e-02	6.90548153e-04
7.80000000e-02	2.00704711e-02	7.03062081e-04
7.82500000e-02	1.97703082e-02	7.00105731e-04
7.85000000e-02	2.02381242e-02	7.21950395e-04
7.87500000e-02	1.99709018e-02	7.10088996e-04
7.90000000e-02	2.01520110e-02	7.20080925e-04
7.92500000e-02	2.01137896e-02	7.20540668e-04
7.95000000e-02	1.96474580e-02	7.01001215e-04
7.97500000e-02	2.03266042e-02	7.29508645e-04
8.00000000e-02	1.98800000e-02	7.13939107e-04
8.02500000e-02	1.98884294e-02	7.14316205e-04
8.05000000e-02	2.03119093e-02	7.38128118e-04
8.07500000e-02	2.04604636e-02	7.52254319e-04
8.10000000e-02	2.00404034e-02	7.29613025e-04
8.12500000e-02	2.06343492e-02	7.49428978e-04
8.15000000e-02	1.97140367e-02	7.19581643e-04
8.17500000e-02	2.04363682e-02	7.42301119e-04
8.20000000e-02	1.95343565e-02	7.17691072e-04
8.22500000e-02	1.99689162e-02	7.33563859e-04
8.25000000e-02	1.96194114e-02	7.16862975e-04
8.27500000e-02	2.00260512e-02	7.35448919e-04
8.30000000e-02	2.04664343e-02	7.45025880e-04
8.32500000e-02	1.98975267e-02	7.29703260e-04
8.35000000e-02	2.00945399e-02	7.46953298e-04
8.37500000e-02	1.95857141e-02	7.19311628e-04
8.40000000e-02	2.05549211e-02	7.54789391e-04
8.42500000e-02	2.01766617e-02	7.50397426e-04
8.45000000e-02	2.00783638e-02	7.45607110e-04
8.47500000e-02	1.94925371e-02	7.25182421e-04
8.50000000e-02	1.99725752e-02	7.31540723e-04
8.52500000e-02	1.95701890e-02	7.30895334e-04
8.55000000e-02	1.90218579e-02	7.05754619e-04
8.57500000e-02	1.96626778e-02	7.25316326e-04
8.60000000e-02	1.96604158e-02	7.38230652e-04
8.62500000e-02	1.96185854e-02	7.25765720e-04
8.65000000e-02	2.00141990e-02	7.42915532e-04
8.67500000e-02	1.95619059e-02	7.24832073e-04
8.70000000e-02	2.00690021e-02	7.35840319e-04
8.72500000e-02	1.98799583e-02	7.18721586e-04
8.75000000e-02	1.99586485e-02	7.08088761e-04
8.77500000e-02	2.00449936e-02	7.04231756e-04
8.80000000e-02	1.97915077e-02	6.99899656e-04
8.82500000e-02	2.00616060e-02	7.04264913e-04
8.85000000e-02	1.94838115e-02	6.84659084e-04
8.87500000e-02	2.01339836e-02	6.90854307e-04
8.90000000e-02	1.97359184e-02	6.86682561e-04
8.92500000e-02	2.00663880e-02	6.95327361e-04
8.95000000e-02	2.07837944e-02	7.10829892e-04
8.97500000e-02	2.01077547e-02	6.87532791e-04
9.00000000e-02	2.00101329e-02	6.78008697e-04
9.02500000e-02	2.01887237e-02	6.85561756e-04
9.05000000e-02	1.98786231e-02	6.80665903e-04
9.07500000e-02	1.98538036e-02	6.70677265e-04
9.10000000e-02	1.96534051e-02	6.66796438e-04
9.12500000e-02	1.97232983e-02	6.64223299e-04
9.15000000e-02	1.98629456e-02	6.62886014e-04
9.17500000e-02	2.03547370e-02	6.83150974e-04
9.20000000e-02	1.96859737e-02	6.69172221e-04
9.22500000e-02	2.04625961e-02	6.73683842e-04
9.25000000e-02	1.96502768e-02	6.58180971e-04
9.27500000e-02	1.97031253e-02	6.59529591e-04
9.30000000e-02	1.97165987e-02	6.56609127e-04
9.32500000e-02	1.96949598e-02	6.60615771e-04
9.35000000e-02	1.93354689e-02	6.36325664e-04
9.37500000e-02	1.96097728e-02	6.44930230e-04
9.40000000e-02	1.96147517e-02	6.50290786e-04
9.42500000e-02	1.98959620e-02	6.49877610e-04
9.45000000e-02	1.97303969e-02	6.51810132e-04
9.47500000e-02	1.99232290e-02	6.58731986e-04
9.50000000e-02	1.93952290e-02	6.34150859e-04
9.52500000e-02	1.99224322e-02	6.50141465e-04
9.55000000e-02	1.97451902e-02	6.41904283e-04
9.57500000e-02	2.00166788e-02	6.55753519e-04
9.60000000e-02	2.00267526e-02	6.53759609e-04
9.62500000e-02	1.95195646e-02	6.33462495e-04
9.65000000e-02	1.90549915e-02	6.19885352e-04
9.67500000e-02	2.04237729e-02	6.58409146e-04
9.70000000e-02	1.93380799e-02	6.29585412e-04
9.72500000e-02	1.97785917e-02	6.42021793e-04
9.75000000e-02	1.98232367e-02	6.40396433e-04
9.77500000e-02	1.97232415e-02	6.29178147e-04
9.80000000e-02	2.03303185e-02	6.51171841e-04
9.82500000e-02	1.97728298e-02	6.34665067e-04
9.85000000e-02	1.93261953e-02	6.15349512e-04
9.87500000e-02	1.94046178e-02	6.17647743e-04
9.90000000e-02	1.94660213e-02	6.23836234e-04
9.92500000e-02	1.98745987e-02	6.38398346e-04
9.95000000e-02	1.98370573e-02	6.31422412e-04
9.97500000e-02	2.00166260e-02	6.35043255e-04
1.00000000e-01	1.97995566e-02	5.13917426e-04
1.00500000e-01	1.97331095e-02	4.42847118e-04
1.01000000e-01	1.94095523e-02	4.31947913e-04
1.01500000e-01	1.96129274e-02	4.35891023e-04
1.02000000e-01	1.99821615e-02	4.40736672e-04
1.02500000e-01	1.99372058e-02	4.39856915e-04
1.03000000e-01	1.93659781e-02	4.26611452e-04
1.03500000e-01	1.94775003e-02	4.30892095e-04
1.04000000e-01	1.92350895e-02	4.21976077e-04
1.04500000e-01	1.95831340e-02	4.27664724e-04
1.05000000e-01	1.95598472e-02	4.23795053e-04
1.05500000e-01	1.94738318e-02	4.24892368e-04
1.06000000e-01	1.99555489e-02	4.33706240e-04
1.06500000e-01	2.00017709e-02	4.29943476e-04
1.07000000e-01	1.98453844e-02	4.32108590e-04
1.07500000e-01	1.95662028e-02	4.35972304e-04
1.08000000e-01	1.97302548e-02	4.44939229e-04
1.08500000e-01	1.97320001e-02	4.46946956e-04
1.09000000e-01	1.99948554e-02	4.52036513e-04
1.09500000e-01	1.96439563e-02	4.51681529e-04
1.10000000e-01	1.93762873e-02	4.38046470e-04
1.10500000e-01	1.97558178e-02	4.34982626e-04
1.11000000e-01	1.97553889e-02	4.29187909e-04
1.11500000e-01	1.96609474e-02	4.24961568e-04
1.12000000e-01	1.99530492e-02	4.27811401e-04
1.12500000e-01	1.97662288e-02	4.21725501e-04
1.13000000e-01	1.95864470e-02	4.17170142e-04
1.13500000e-01	1.95506620e-02	4.16716798e-04
1.14000000e-01	1.98250491e-02	4.16647057e-04
1.14500000e-01	1.97236206e-02	4.14296700e-04
1.15000000e-01	1.93336424e-02	4.06521030e-04
1.15500000e-01	1.97544531e-02	4.14773795e-04
1.16000000e-01	1.99381677e-02	4.14467735e-04
1.16500000e-01	1.99645167e-02	4.15588996e-04
1.17000000e-01	1.97193805e-02	4.09062409e-04
1.17500000e-01	1.98062404e-02	4.09442177e-04
1.18000000e-01	1.96699285e-02	4.07972595e-04
1.18500000e-01	1.97490679e-02	4.05281453e-04
1.19000000e-01	1.95077109e-02	4.01806887e-04
1.19500000e-01	1.96784103e-02	4.02560124e-04
1.20000000e-01	1.95822661e-02	4.01399624e-04
1.20500000e-01	2.00068432e-02	4.07098741e-04
1.21000000e-01	1.98396821e-02	4.03803534e-04
1.21500000e-01	1.95157209e-02	3.97198268e-04
1.22000000e-01	1.96372238e-02	3.96442973e-04
1.22500000e-01	1.98002992e-02	3.98391472e-04
1.23000000e-01	1.95687213e-02	3.96167030e-04
1.23500000e-01	1.96664374e-02	3.94038874e-04
1.24000000e-01	1.93652070e-02	3.91910936e-04
1.24500000e-01	1.95982960e-02	3.94990699e-04
1.25000000e-01	1.97143850e-02	3.94952528e-04
1.25500000e-01	1.97086585e-02	3.94159121e-04
1.26000000e-01	1.97392732e-02	3.93823647e-04
1.26500000e-01	1.97934225e-02	3.94685800e-04
1.27000000e-01	1.96545318e-02	3.89712310e-04
1.27500000e-01	1.95292704e-02	3.89394019e-04
1.28000000e-01	1.94067833e-02	3.85832823e-04
1.28500000e-01	1.95762366e-02	3.86799661e-04
1.29000000e-01	1.99595309e-02	3.91838958e-04
1.29500000e-01	1.95767813e-02	3.86405840e-04
1.30000000e-01	1.98077086e-02	3.89088532e-04
1.30500000e-01	1.95687444e-02	3.83711880e-04
1.31000000e-01	1.98098295e-02	3.86722244e-04
1.31500000e-01	1.98611006e-02	3.87653003e-04
1.32000000e-01	1.94362925e-02	3.79124642e-04
1.32500000e-01	1.95574011e-02	3.78725865e-04
1.33000000e-01	1.92386893e-02	3.72318767e-04
1.33500000e-01	1.96381931e-02	3.78584687e-04
1.34000000e-01	1.96004927e-02	3.77384264e-04
1.34500000e-01	1.92524401e-02	3.70005772e-04
1.35000000e-01	1.96762092e-02	3.77177758e-04
1.35500000e-01	1.94650917e-02	3.70918930e-04
1.36000000e-01	1.93974547e-02	3.69914911e-04
1.36500000e-01	1.97978665e-02	3.76774386e-04
1.37000000e-01	1.94781639e-02	3.69048033e-04
1.37500000e-01	1.92093761e-02	3.66006101e-04
1.38000000e-01	1.97565341e-02	3.74626605e-04
1.38500000e-01	1.97553094e-02	3.72379981e-04
1.39000000e-01	1.95294714e-02	3.70187066e-04
1.39500000e-01	1.95425575e-02	3.69160114e-04
1.40000000e-01	1.93288469e-02	3.65450134e-04
1.40500000e-01	1.93807384e-02	3.67335468e-04
1.41000000e-01	1.90508551e-02	3.61364983e-04
1.41500000e-01	1.94952449e-02	3.66518769e-04
1.42000000e-01	1.98200522e-02	3.73249046e-04
1.42500000e-01	1.94055105e-02	3.65399886e-04
1.43000000e-01	1.92290870e-02	3.62848502e-04
1.43500000e-01	1.97806335e-02	3.69777644e-04
1.44000000e-01	1.96145138e-02	3.65771679e-04
1.44500000e-01	1.95084872e-02	3.61445744e-04
1.45000000e-01	1.91141046e-02	3.55261366e-04
1.45500000e-01	1.95477999e-02	3.62242162e-04
1.46000000e-01	1.93661831e-02	3.59778286e-04
1.46500000e-01	1.92879160e-02	3.58793615e-04
1.47000000e-01	1.94087299e-02	3.58829041e-04
1.47500000e-01	1.95889695e-02	3.60881508e-04
1.48000000e-01	1.90725831e-02	3.51603427e-04
1.48500000e-01	1.92826796e-02	3.55923407e-04
1.49000000e-01	1.94321626e-02	3.56049796e-04
1.49500000e-01	1.91202745e-02	3.50069880e-04
1.50000000e-01	1.94669319e-02	3.55481783e-04
1.50500000e-01	1.91706833e-02	3.51769722e-04
1.51000000e-01	1.92131926e-02	3.51557973e-04
1.51500000e-01	1.91620499e-02	3.48570514e-04
1.52000000e-01	1.92884031e-02	3.48924597e-04
1.52500000e-01	1.92068866e-02	3.49479878e-04
1.53000000e-01	1.92329217e-02	3.47471873e-04
1.53500000e-01	1.93883210e-02	3.49744204e-04
1.54000000e-01	1.91138973e-02	3.43913774e-04
1.54500000e-01	1.92265679e-02	3.53048151e-04
1.55000000e-01	1.90983087e-02	3.54148097e-04
1.55500000e-01	1.90059633e-02	3.55056308e-04
1.56000000e-01	1.92815390e-02	3.63223282e-04
1.56500000e-01	1.88675639e-02	3.53506214e-04
1.57000000e-01	1.88220423e-02	3.56765020e-04
1.57500000e-01	1.92276778e-02	3.56096311e-04
1.58000000e-01	1.94117478e-02	3.51615486e-04
1.58500000e-01	1.91855273e-02	3.46371529e-04
1.59000000e-01	1.91328291e-02	3.46073108e-04
1.59500000e-01	1.91664310e-02	3.44571985e-04
1.60000000e-01	1.90048998e-02	3.41847763e-04
1.60500000e-01	1.91370975e-02	3.40278521e-04
1.61000000e-01	1.91170558e-02	3.41317015e-04
1.61500000e-01	1.91917417e-02	3.41146412e-04
1.62000000e-01	1.91869873e-02	3.42003678e-04
1.62500000e-01	1.92585801e-02	3.42018019e-04
1.63000000e-01	1.92410540e-02	3.39793423e-04
1.63500000e-01	1.91401172e-02	3.40621121e-04
1.64000000e-01	1.87657506e-02	3.31566902e-04
1.64500000e-01	1.89200448e-02	3.35816980e-04
1.65000000e-01	1.89431888e-02	3.34472682e-04
1.65500000e-01	1.91416611e-02	3.36238666e-04
1.66000000e-01	1.90241090e-02	3.33716338e-04
1.66500000e-01	1.92076015e-02	3.34844673e-04
1.67000000e-01	1.92315701e-02	3.35296138e-04
1.67500000e-01	1.88868357e-02	3.30112301e-04
1.68000000e-01	1.89504178e-02	3.30330674e-04
1.68500000e-01	1.88961053e-02	3.28230188e-04
1.69000000e-01	1.89907178e-02	3.29875584e-04
1.69500000e-01	1.89366303e-02	3.28196625e-04
1.70000000e-01	1.88625453e-02	3.26367395e-04
1.70500000e-01	1.87383709e-02	3.25095505e-04
1.71000000e-01	1.90097322e-02	3.29595100e-04
1.71500000e-01	1.88543795e-02	3.25625702e-04
1.72000000e-01	1.91186263e-02	3.28641237e-04
1.72500000e-01	1.88922068e-02	3.25107532e-04
1.73000000e-01	1.89439674e-02	3.24971894e-04
1.73500000e-01	1.90292013e-02	3.25885033e-04
1.74000000e-01	1.91959161e-02	3.27021368e-04
1.74500000e-01	1.86267680e-02	3.16106029e-04
1.75000000e-01	1.87850492e-02	3.18483922e-04
1.75500000e-01	1.90730145e-02	3.22230772e-04
1.76000000e-01	1.86912106e-02	3.16573568e-04
1.76500000e-01	1.88754892e-02	3.19152970e-04
1.77000000e-01	1.85951054e-02	3.14559584e-04
1.77500000e-01	1.88364303e-02	3.19002260e-04
1.78000000e-01	1.86211259e-02	3.14588405e-04
1.78500000e-01	1.87970882e-02	3.16328765e-04
1.79000000e-01	1.86513837e-02	3.14395447e-04
1.79500000e-01	1.88692960e-02	3.19211661e-04
1.80000000e-01	1.86974012e-02	3.13977244e-04
1.80500000e-01	1.87490736e-02	3.15042545e-04
1.81000000e-01	1.86237794e-02	3.14297639e-04
1.81500000e-01	1.85327143e-02	3.10053857e-04
1.82000000e-01	1.86926486e-02	3.13277385e-04
1.82500000e-01	1.87274472e-02	3.12512973e-04
1.83000000e-01	1.83984332e-02	3.09167182e-04
1.83500000e-01	1.87489594e-02	3.12687229e-04
1.84000000e-01	1.84966782e-02	3.08912365e-04
1.84500000e-01	1.82759368e-02	3.05130713e-04
1.85000000e-01	1.87240260e-02	3.11917266e-04
1.85500000e-01	1.83273539e-02	3.06378109e-04
1.86000000e-01	1.86498509e-02	3.08965431e-04
1.86500000e-01	1.87820335e-02	3.09731764e-04
1.87000000e-01	1.86469587e-02	3.09477504e-04
1.87500000e-01	1.85137457e-02	3.05444534e-04
1.88000000e-01	1.85211183e-02	3.05353911e-04
1.88500000e-01	1.85087242e-02	3.05266029e-04
1.89000000e-01	1.84393530e-02	3.03519553e-04
1.89500000e-01	1.87763513e-02	3.08563861e-04
1.90000000e-01	1.86594286e-02	3.06157769e-04
1.90500000e-01	1.84065367e-02	3.01994908e-04
1.91000000e-01	1.86463730e-02	3.04811776e-04
1.91500000e-01	1.86797316e-02	3.05294709e-04
1.92000000e-01	1.83484677e-02	2.99205118e-04
1.92500000e-01	1.81593158e-02	2.97659689e-04
1.93000000e-01	1.83931280e-02	3.01561650e-04
1.93500000e-01	1.81609910e-02	2.95132716e-04
1.94000000e-01	1.84063760e-02	2.99569445e-04
1.94500000e-01	1.81962404e-02	2.94688827e-04
1.95000000e-01	1.83643445e-02	2.98888474e-04
1.95500000e-01	1.85074508e-02	2.96967852e-04
1.96000000e-01	1.85003192e-02	2.97424181e-04
1.96500000e-01	1.85302274e-02	2.99185152e-04
1.97000000e-01	1.81912797e-02	2.94024280e-04
1.97500000e-01	1.86041163e-02	2.98260162e-04
1.98000000e-01	1.82043329e-02	2.93598415e-04
1.98500000e-01	1.82348352e-02	2.92210867e-04
1.99000000e-01	1.83534853e-02	2.94864710e-04
1.99500000e-01	1.83091979e-02	2.92792913e-04
2.00000000e-01	1.82523349e-02	2.93198523e-04
2.00500000e-01	1.83974736e-02	2.93661759e-04
2.01000000e-01	1.82327212e-02	2.91825903e-04
2.01500000e-01	1.82050455e-02	2.91021390e-04
2.02000000e-01	1.82794747e-02	2.91644592e-04
2.02500000e-01	1.82380940e-02	2.89432490e-04
2.03000000e-01	1.82359731e-02	2.90746112e-04
2.03500000e-01	1.85406249e-02	2.94340470e-04
2.04000000e-01	1.81024818e-02	2.87584720e-04
2.04500000e-01	1.79844846e-02	2.85810785e-04
2.05000000e-01	1.83750303e-02	2.91222217e-04
2.05500000e-01	1.80691185e-02	2.86947305e-04
2.06000000e-01	1.81209215e-02	2.86813422e-04
2.06500000e-01	1.82558395e-02	2.87752373e-04
2.07000000e-01	1.83682106e-02	2.88592988e-04
2.07500000e-01	1.83228247e-02	2.88762574e-04
2.08000000e-01	1.81875821e-02	2.86862112e-04
2.08500000e-01	1.81687549e-02	2.85489693e-04
2.09000000e-01	1.81073245e-02	2.83548748e-04
2.09500000e-01	1.81704014e-02	2.83677669e-04
2.10000000e-01	1.83944102e-02	2.86664318e-04
2.10500000e-01	1.84414300e-02	2.87803469e-04
2.11000000e-01	1.81400935e-02	2.83184618e-04
2.11500000e-01	1.84853814e-02	2.88699121e-04
2.12000000e-01	1.80612493e-02	2.81227293e-04
2.12500000e-01	1.80037219e-02	2.80210658e-04
2.13000000e-01	1.78258456e-02	2.77420717e-04
2.13500000e-01	1.81649567e-02	2.81682514e-04
2.14000000e-01	1.79085183e-02	2.79371191e-04
2.14500000e-01	1.81033427e-02	2.79917002e-04
2.15000000e-01	1.82311094e-02	2.83059795e-04
2.15500000e-01	1.80937620e-02	2.78506691e-04
2.16000000e-01	1.79857868e-02	2.77254261e-04
2.16500000e-01	1.80251829e-02	2.77888706e-04
2.17000000e-01	1.81569594e-02	2.83955891e-04
2.17500000e-01	1.80870902e-02	2.87957391e-04
2.18000000e-01	1.80447759e-02	2.86889042e-04
2.18500000e-01	1.79420333e-02	2.87192282e-04
2.19000000e-01	1.80605341e-02	2.91671209e-04
2.19500000e-01	1.79327503e-02	2.88759864e-04
2.20000000e-01	1.80244261e-02	2.94036970e-04
2.20500000e-01	1.79878150e-02	2.91641423e-04
2.21000000e-01	1.79535201e-02	2.92079824e-04
2.21500000e-01	1.81692850e-02	2.97932409e-04
2.22000000e-01	1.76859762e-02	2.89531519e-04
2.22500000e-01	1.81126457e-02	2.96370231e-04
2.23000000e-01	1.80995480e-02	2.96475672e-04
2.23500000e-01	1.77996547e-02	2.93561989e-04
2.24000000e-01	1.80791951e-02	2.98377807e-04
2.24500000e-01	1.76290929e-02	2.92953921e-04
2.25000000e-01	1.80189436e-02	2.99463638e-04
2.25500000e-01	1.79426869e-02	2.97730801e-04
2.26000000e-01	1.79853525e-02	3.00051466e-04
2.26500000e-01	1.79912593e-02	2.94878002e-04
2.27000000e-01	1.80173432e-02	2.91892625e-04
2.27500000e-01	1.78097010e-02	2.88032830e-04
2.28000000e-01	1.80565625e-02	2.89071299e-04
2.28500000e-01	1.79580016e-02	2.87300742e-04
2.29000000e-01	1.78574100e-02	2.82839553e-04
2.29500000e-01	1.80511752e-02	2.87178428e-04
2.30000000e-01	1.78168735e-02	2.81117076e-04
2.30500000e-01	1.81154726e-02	2.84232363e-04
2.31000000e-01	1.78586964e-02	2.80945980e-04
2.31500000e-01	1.77354937e-02	2.77551582e-04
2.32000000e-01	1.77630476e-02	2.77027417e-04
2.32500000e-01	1.77451268e-02	2.77904677e-04
2.33000000e-01	1.77821570e-02	2.76642755e-04
2.33500000e-01	1.77916744e-02	2.75557158e-04
2.34000000e-01	1.76813544e-02	2.75441515e-04
2.34500000e-01	1.78775554e-02	2.77681000e-04
2.35000000e-01	1.77399066e-02	2.74120155e-04
2.35500000e-01	1.75735609e-02	2.72413695e-04
2.36000000e-01	1.77238314e-02	2.73166568e-04
2.36500000e-01	1.77119005e-02	2.72255495e-04
2.37000000e-01	1.78133670e-02	2.73466809e-04
2.37500000e-01	1.76483779e-02	2.70556958e-04
2.38000000e-01	1.77056622e-02	2.69911780e-04
2.38500000e-01	1.76845316e-02	2.70050108e-04
2.39000000e-01	1.76640616e-02	2.67455156e-04
2.39500000e-01	1.77331279e-02	2.69447154e-04
2.40000000e-01	1.76592214e-02	2.67737351e-04
2.40500000e-01	1.75912904e-02	2.66429330e-04
2.41000000e-01	1.76368305e-02	2.66643201e-04
2.41500000e-01	1.76355794e-02	2.65701076e-04
2.42000000e-01	1.78135991e-02	2.68154492e-04
2.42500000e-01	1.77718304e-02	2.66849344e-04
2.43000000e-01	1.78352857e-02	2.68196114e-04
2.43500000e-01	1.72768684e-02	2.59245437e-04
2.44000000e-01	1.76467241e-02	2.63949608e-04
2.44500000e-01	1.77102087e-02	2.64449426e-04
2.45000000e-01	1.75986226e-02	2.63297888e-04
2.45500000e-01	1.74316217e-02	2.61518018e-04
2.46000000e-01	1.74873464e-02	2.61629264e-04
2.46500000e-01	1.75274963e-02	2.61128118e-04
2.47000000e-01	1.75845005e-02	2.62111562e-04
2.47500000e-01	1.74091649e-02	2.58410146e-04
2.48000000e-01	1.75454135e-02	2.61186871e-04
2.48500000e-01	1.75005114e-02	2.58727934e-04
2.49000000e-01	1.75085428e-02	2.59514366e-04
2.49500000e-01	1.73037939e-02	2.55906220e-04
2.50000000e-01	1.74935092e-02	2.58356991e-04
2.50500000e-01	1.75673906e-02	2.60612120e-04
2.51000000e-01	1.74228688e-02	2.55683289e-04
2.51500000e-01	1.74425902e-02	2.57304689e-04
2.52000000e-01	1.75843927e-02	2.59408609e-04
2.52500000e-01	1.75618218e-02	2.56785504e-04
2.53000000e-01	1.74735313e-02	2.56186767e-04
2.53500000e-01	1.75799185e-02	2.57932240e-04
2.54000000e-01	1.74851290e-02	2.56023498e-04
2.54500000e-01	1.73571792e-02	2.53933179e-04
2.55000000e-01	1.76385950e-02	2.57322676e-04
2.55500000e-01	1.73477301e-02	2.53916820e-04
2.56000000e-01	1.75100062e-02	2.55215567e-04
2.56500000e-01	1.74468302e-02	2.54448800e-04
2.57000000e-01	1.72904880e-02	2.51343047e-04
2.57500000e-01	1.73713992e-02	2.53306877e-04
2.58000000e-01	1.74799101e-02	2.53463683e-04
2.58500000e-01	1.72967869e-02	2.50958147e-04
2.59000000e-01	1.74427633e-02	2.52209896e-04
2.59500000e-01	1.71564364e-02	2.48108826e-04
2.60000000e-01	1.73905755e-02	2.51502025e-04
2.60500000e-01	1.73314981e-02	2.51201023e-04
2.61000000e-01	1.72023560e-02	2.48282972e-04
2.61500000e-01	1.73264235e-02	2.49486271e-04
2.62000000e-01	1.73254472e-02	2.49188619e-04
2.62500000e-01	1.72842435e-02	2.49781571e-04
2.63000000e-01	1.72304225e-02	2.48349583e-04
2.63500000e-01	1.72550044e-02	2.46901128e-04
2.64000000e-01	1.72981526e-02	2.48415459e-04
2.64500000e-01	1.70978275e-02	2.45453125e-04
2.65000000e-01	1.73486236e-02	2.48330410e-04
2.65500000e-01	1.69376996e-02	2.43181361e-04
2.66000000e-01	1.72065929e-02	2.45330316e-04
2.66500000e-01	1.72157088e-02	2.45072206e-04
2.67000000e-01	1.73517673e-02	2.46846882e-04
2.67500000e-01	1.73292790e-02	2.45925628e-04
2.68000000e-01	1.72486165e-02	2.45320439e-04
2.68500000e-01	1.71393311e-02	2.44399131e-04
2.69000000e-01	1.72974447e-02	2.43899960e-04
2.69500000e-01	1.72653567e-02	2.43891839e-04
2.70000000e-01	1.71152777e-02	2.41683240e-04
2.70500000e-01	1.70792629e-02	2.41043944e-04
2.71000000e-01	1.70376345e-02	2.40547827e-04
2.71500000e-01	1.70778428e-02	2.40629324e-04
2.72000000e-01	1.72008879e-02	2.40897482e-04
2.72500000e-01	1.68335524e-02	2.38631405e-04
2.73000000e-01	1.72562045e-02	2.42189266e-04
2.73500000e-01	1.71184626e-02	2.41208096e-04
2.74000000e-01	1.70759587e-02	2.40221169e-04
2.74500000e-01	1.69966074e-02	2.39268214e-04
2.75000000e-01	1.71630874e-02	2.39550893e-04
2.75500000e-01	1.71863525e-02	2.41050896e-04
2.76000000e-01	1.70314221e-02	2.37758580e-04
2.76500000e-01	1.71182856e-02	2.39517125e-04
2.77000000e-01	1.69023653e-02	2.36252866e-04
2.77500000e-01	1.69672043e-02	2.37368016e-04
2.78000000e-01	1.70084497e-02	2.37369715e-04
2.78500000e-01	1.70343766e-02	2.37740545e-04
2.79000000e-01	1.69219880e-02	2.36210024e-04
2.79500000e-01	1.70658701e-02	2.37227739e-04
2.80000000e-01	1.70631927e-02	2.37476850e-04
2.80500000e-01	1.70783553e-02	2.36459429e-04
2.81000000e-01	1.69743437e-02	2.36606881e-04
2.81500000e-01	1.70579495e-02	2.36751620e-04
2.82000000e-01	1.69331451e-02	2.34748544e-04
2.82500000e-01	1.71261946e-02	2.36922377e-04
2.83000000e-01	1.69952965e-02	2.35300250e-04
2.83500000e-01	1.71603039e-02	2.36087970e-04
2.84000000e-01	1.71060557e-02	2.35938052e-04
2.84500000e-01	1.69488813e-02	2.34903206e-04
2.85000000e-01	1.68116197e-02	2.31713941e-04
2.85500000e-01	1.68104029e-02	2.30989291e-04
2.86000000e-01	1.68910766e-02	2.32997814e-04
2.86500000e-01	1.68554109e-02	2.31025158e-04
2.87000000e-01	1.70084751e-02	2.34264693e-04
2.87500000e-01	1.69218317e-02	2.31604428e-04
2.88000000e-01	1.67769031e-02	2.29070081e-04
2.88500000e-01	1.69612986e-02	2.32814978e-04
2.89000000e-01	1.68765076e-02	2.31780167e-04
2.89500000e-01	1.70777273e-02	2.32755448e-04
2.90000000e-01	1.70088156e-02	2.31709997e-04
2.90500000e-01	1.70411559e-02	2.32378956e-04
2.91000000e-01	1.70853630e-02	2.32570731e-04
2.91500000e-01	1.66579094e-02	2.26336231e-04
2.92000000e-01	1.66940572e-02	2.27604520e-04
2.92500000e-01	1.68554431e-02	2.28518738e-04
2.93000000e-01	1.66902659e-02	2.26745932e-04
2.93500000e-01	1.70351068e-02	2.31141814e-04
2.94000000e-01	1.67482002e-02	2.27488597e-04
2.94500000e-01	1.66476605e-02	2.26288571e-04
2.95000000e-01	1.67124685e-02	2.25996908e-04
2.95500000e-01	1.67933620e-02	2.27087893e-04
2.96000000e-01	1.68644545e-02	2.27847058e-04
2.96500000e-01	1.68586583e-02	2.26326543e-04
2.97000000e-01	1.68378024e-02	2.26727062e-04
2.97500000e-01	1.67617038e-02	2.25261581e-04
2.98000000e-01	1.67057268e-02	2.25555273e-04
2.98500000e-01	1.70086959e-02	2.28581431e-04
2.99000000e-01	1.67195883e-02	2.25228806e-04
2.99500000e-01	1.69636030e-02	2.28440143e-04
3.00000000e-01	1.68368373e-02	2.25737781e-04
3.00500000e-01	1.69763679e-02	2.27415280e-04
3.01000000e-01	1.66718918e-02	2.23502786e-04
3.01500000e-01	1.65966172e-02	2.21768624e-04
3.02000000e-01	1.68063910e-02	2.24355039e-04
3.02500000e-01	1.66232031e-02	2.22152547e-04
3.03000000e-01	1.68066951e-02	2.25017553e-04
3.03500000e-01	1.66722447e-02	2.22060495e-04
3.04000000e-01	1.65840500e-02	2.22125373e-04
3.04500000e-01	1.65656263e-02	2.19865685e-04
3.05000000e-01	1.65397024e-02	2.20730249e-04
3.05500000e-01	1.67155920e-02	2.22844309e-04
3.06000000e-01	1.65894097e-02	2.19586447e-04
3.06500000e-01	1.66616653e-02	2.21317313e-04
3.07000000e-01	1.66443249e-02	2.20875611e-04
3.07500000e-01	1.66542392e-02	2.20954619e-04
3.08000000e-01	1.69082759e-02	2.23817875e-04
3.08500000e-01	1.66607076e-02	2.20725871e-04
3.09000000e-01	1.67434621e-02	2.21308884e-04
3.09500000e-01	1.65255425e-02	2.18839054e-04
3.10000000e-01	1.67243108e-02	2.21217305e-04
3.10500000e-01	1.65087477e-02	2.18582096e-04
3.11000000e-01	1.66295674e-02	2.19023869e-04
3.11500000e-01	1.66588200e-02	2.19347105e-04
3.12000000e-01	1.66335343e-02	2.19408946e-04
3.12500000e-01	1.64819948e-02	2.16744646e-04
3.13000000e-01	1.65009732e-02	2.16988858e-04
3.13500000e-01	1.65092098e-02	2.16721018e-04
3.14000000e-01	1.65814815e-02	2.17984700e-04
3.14500000e-01	1.65236554e-02	2.16606777e-04
3.15000000e-01	1.65459738e-02	2.17678690e-04
3.15500000e-01	1.65814905e-02	2.17306628e-04
3.16000000e-01	1.64568244e-02	2.16222564e-04
3.16500000e-01	1.64228386e-02	2.14073627e-04
3.17000000e-01	1.64405516e-02	2.14946770e-04
3.17500000e-01	1.64921710e-02	2.15806717e-04
3.18000000e-01	1.65728108e-02	2.15380611e-04
3.18500000e-01	1.64483430e-02	2.14209344e-04
3.19000000e-01	1.65839919e-02	2.14949500e-04
3.19500000e-01	1.66889478e-02	2.16439544e-04
3.20000000e-01	1.61933980e-02	2.11411943e-04
3.20500000e-01	1.63790843e-02	2.12392016e-04
3.21000000e-01	1.62865627e-02	2.11685444e-04
3.21500000e-01	1.64652378e-02	2.13832970e-04
3.22000000e-01	1.62864009e-02	2.10658301e-04
3.22500000e-01	1.64354640e-02	2.12979122e-04
3.23000000e-01	1.65664639e-02	2.13866414e-04
3.23500000e-01	1.64068906e-02	2.13254157e-04
3.24000000e-01	1.63254291e-02	2.10688845e-04
3.24500000e-01	1.62323639e-02	2.10130640e-04
3.25000000e-01	1.62714145e-02	2.09939850e-04
3.25500000e-01	1.64198034e-02	2.11309208e-04
3.26000000e-01	1.61438627e-02	2.08779569e-04
3.26500000e-01	1.64399843e-02	2.11047243e-04
3.27000000e-01	1.62999136e-02	2.09663553e-04
3.27500000e-01	1.62188723e-02	2.08429086e-04
3.28000000e-01	1.63239824e-02	2.09553178e-04
3.28500000e-01	1.61276270e-02	2.07768987e-04
3.29000000e-01	1.64475833e-02	2.10301758e-04
3.29500000e-01	1.63709847e-02	2.10589612e-04
3.30000000e-01	1.62797919e-02	2.08864118e-04
3.30500000e-01	1.63150205e-02	2.08701812e-04
3.31000000e-01	1.61770863e-02	2.07102395e-04
3.31500000e-01	1.63597836e-02	2.09020103e-04
3.32000000e-01	1.60266633e-02	2.05599783e-04
3.32500000e-01	1.59267799e-02	2.04055648e-04
3.33000000e-01	1.61320997e-02	2.06593175e-04
3.33500000e-01	1.62440625e-02	2.07921704e-04
3.34000000e-01	1.60400667e-02	2.05020211e-04
3.34500000e-01	1.61471442e-02	2.06167659e-04
3.35000000e-01	1.64123693e-02	2.07794947e-04
3.35500000e-01	1.61921794e-02	2.06120146e-04
3.36000000e-01	1.60995224e-02	2.05000282e-04
3.36500000e-01	1.59938059e-02	2.03464233e-04
3.37000000e-01	1.61861974e-02	2.04912255e-04
3.37500000e-01	1.59833372e-02	2.02892076e-04
3.38000000e-01	1.61623440e-02	2.04482627e-04
3.38500000e-01	1.61212791e-02	2.04061263e-04
3.39000000e-01	1.60976888e-02	2.03623689e-04
3.39500000e-01	1.58813064e-02	2.00768018e-04
3.40000000e-01	1.59817394e-02	2.03003740e-04
3.40500000e-01	1.61068353e-02	2.03895568e-04
3.41000000e-01	1.60152033e-02	2.01451324e-04
3.41500000e-01	1.60435207e-02	2.02105170e-04
3.42000000e-01	1.60950127e-02	2.02672997e-04
3.42500000e-01	1.61689682e-02	2.04016413e-04
3.43000000e-01	1.61938263e-02	2.03376124e-04
3.43500000e-01	1.61304457e-02	2.02393919e-04
3.44000000e-01	1.59863254e-02	2.01487824e-04
3.44500000e-01	1.60595943e-02	2.01083481e-04
3.45000000e-01	1.59829520e-02	2.01511054e-04
3.45500000e-01	1.59181397e-02	1.99293072e-04
3.46000000e-01	1.59894007e-02	2.00811952e-04
3.46500000e-01	1.59107253e-02	1.99395837e-04
3.47000000e-01	1.57989143e-02	1.97804847e-04
3.47500000e-01	1.59086681e-02	1.99618048e-04
3.48000000e-01	1.58926598e-02	1.99088524e-04
3.48500000e-01	1.58438247e-02	1.98970622e-04
3.49000000e-01	1.57605770e-02	1.97687976e-04
3.49500000e-01	1.59200123e-02	1.99016570e-04
3.50000000e-01	1.58509213e-02	1.61485779e-04
3.51000000e-01	1.59362383e-02	1.40317574e-04
3.52000000e-01	1.57711948e-02	1.39064994e-04
3.53000000e-01	1.57608272e-02	1.37995192e-04
3.54000000e-01	1.58571493e-02	1.38613396e-04
3.55000000e-01	1.58452656e-02	1.38717923e-04
3.56000000e-01	1.57822509e-02	1.38877467e-04
3.57000000e-01	1.56741354e-02	1.40134510e-04
3.58000000e-01	1.56527203e-02	1.41443305e-04
3.59000000e-01	1.57257837e-02	1.42929811e-04
3.60000000e-01	1.56909339e-02	1.43670420e-04
3.61000000e-01	1.56096238e-02	1.43529186e-04
3.62000000e-01	1.54660444e-02	1.42676793e-04
3.63000000e-01	1.55617428e-02	1.44168021e-04
3.64000000e-01	1.56839454e-02	1.46017088e-04
3.65000000e-01	1.55832219e-02	1.45364211e-04
3.66000000e-01	1.56232871e-02	1.44041939e-04
3.67000000e-01	1.56492170e-02	1.42129432e-04
3.68000000e-01	1.55366944e-02	1.40253580e-04
3.69000000e-01	1.55438881e-02	1.39853478e-04
3.70000000e-01	1.55241700e-02	1.38566392e-04
3.71000000e-01	1.56015526e-02	1.41164457e-04
3.72000000e-01	1.55196206e-02	1.41398627e-04
3.73000000e-01	1.55725227e-02	1.42384087e-04
3.74000000e-01	1.54112195e-02	1.41113904e-04
3.75000000e-01	1.55628145e-02	1.42085646e-04
3.76000000e-01	1.54770911e-02	1.41495941e-04
3.77000000e-01	1.55648582e-02	1.42582477e-04
3.78000000e-01	1.54461248e-02	1.41398682e-04
3.79000000e-01	1.55364150e-02	1.41872802e-04
3.80000000e-01	1.54984250e-02	1.41284223e-04
3.81000000e-01	1.53555337e-02	1.40175827e-04
3.82000000e-01	1.54563757e-02	1.41251105e-04
3.83000000e-01	1.54611778e-02	1.40958349e-04
3.84000000e-01	1.53377610e-02	1.40165616e-04
3.85000000e-01	1.54495867e-02	1.41057764e-04
3.86000000e-01	1.53219778e-02	1.39920882e-04
3.87000000e-01	1.52980163e-02	1.39774610e-04
3.88000000e-01	1.52254791e-02	1.38869269e-04
3.89000000e-01	1.53883447e-02	1.40292568e-04
3.90000000e-01	1.53432055e-02	1.39700344e-04
3.91000000e-01	1.52708853e-02	1.39066752e-04
3.92000000e-01	1.52850007e-02	1.39632925e-04
3.93000000e-01	1.51896723e-02	1.38104560e-04
3.94000000e-01	1.52187009e-02	1.39000466e-04
3.95000000e-01	1.51711136e-02	1.38227908e-04
3.96000000e-01	1.51372143e-02	1.37879117e-04
3.97000000e-01	1.52537146e-02	1.38680482e-04
3.98000000e-01	1.52884716e-02	1.38995746e-04
3.99000000e-01	1.51659025e-02	1.38413009e-04
4.00000000e-01	1.50232907e-02	1.36932476e-04
4.01000000e-01	1.50043915e-02	1.36529619e-04
4.02000000e-01	1.51743672e-02	1.38634786e-04
4.03000000e-01	1.50623437e-02	1.36879527e-04
4.04000000e-01	1.50428168e-02	1.36822102e-04
4.05000000e-01	1.50313202e-02	1.36813132e-04
4.06000000e-01	1.50847894e-02	1.37631348e-04
4.07000000e-01	1.50225534e-02	1.36636885e-04
4.08000000e-01	1.49783160e-02	1.36523007e-04
4.09000000e-01	1.49514801e-02	1.35878120e-04
4.10000000e-01	1.50024518e-02	1.36739042e-04
4.11000000e-01	1.49933242e-02	1.36123726e-04
4.12000000e-01	1.49695640e-02	1.36144380e-04
4.13000000e-01	1.49229560e-02	1.35507432e-04
4.14000000e-01	1.49802867e-02	1.36086632e-04
4.15000000e-01	1.50391280e-02	1.36197627e-04
4.16000000e-01	1.51036594e-02	1.36657055e-04
4.17000000e-01	1.49455688e-02	1.35683068e-04
4.18000000e-01	1.50645769e-02	1.38072078e-04
4.19000000e-01	1.50454150e-02	1.39599833e-04
4.20000000e-01	1.49000252e-02	1.39097411e-04
4.21000000e-01	1.50530259e-02	1.41125256e-04
4.22000000e-01	1.50237425e-02	1.41007560e-04
4.23000000e-01	1.49406471e-02	1.40769257e-04
4.24000000e-01	1.50378662e-02	1.42275824e-04
4.25000000e-01	1.49676929e-02	1.41551075e-04
4.26000000e-01	1.50506178e-02	1.42539296e-04
4.27000000e-01	1.48656167e-02	1.40675398e-04
4.28000000e-01	1.48223877e-02	1.40684051e-04
4.29000000e-01	1.48933292e-02	1.41663936e-04
4.30000000e-01	1.48484979e-02	1.41147028e-04
4.31000000e-01	1.49262424e-02	1.41685979e-04
4.32000000e-01	1.48374733e-02	1.41086389e-04
4.33000000e-01	1.47786412e-02	1.40630043e-04
4.34000000e-01	1.49458517e-02	1.41915328e-04
4.35000000e-01	1.48906658e-02	1.41712853e-04
4.36000000e-01	1.48778267e-02	1.41774547e-04
4.37000000e-01	1.48237149e-02	1.41727737e-04
4.38000000e-01	1.47582896e-02	1.41636025e-04
4.39000000e-01	1.48035991e-02	1.41650141e-04
4.40000000e-01	1.47833566e-02	1.41644834e-04
4.41000000e-01	1.47895399e-02	1.41807706e-04
4.42000000e-01	1.47527456e-02	1.42136969e-04
4.43000000e-01	1.48617905e-02	1.42740461e-04
4.44000000e-01	1.47860334e-02	1.42928224e-04
4.45000000e-01	1.47358909e-02	1.42211620e-04
4.46000000e-01	1.47352474e-02	1.42461229e-04
4.47000000e-01	1.47298560e-02	1.42644297e-04
4.48000000e-01	1.47043834e-02	1.42102435e-04
4.49000000e-01	1.48180115e-02	1.43337570e-04
4.50000000e-01	1.48419204e-02	1.43739304e-04
4.51000000e-01	1.47069714e-02	1.42769635e-04
4.52000000e-01	1.47189774e-02	1.43026527e-04
4.53000000e-01	1.47294525e-02	1.43463433e-04
4.54000000e-01	1.47355924e-02	1.43329533e-04
4.55000000e-01	1.46257187e-02	1.42310097e-04
4.56000000e-01	1.47412239e-02	1.43607389e-04
4.57000000e-01	1.45405989e-02	1.41851061e-04
4.58000000e-01	1.47870345e-02	1.44269749e-04
4.59000000e-01	1.45597503e-02	1.42314584e-04
4.60000000e-01	1.46780742e-02	1.43507813e-04
4.61000000e-01	1.46490501e-02	1.43469982e-04
4.62000000e-01	1.46064443e-02	1.43454017e-04
4.63000000e-01	1.45834031e-02	1.42870410e-04
4.64000000e-01	1.45268979e-02	1.42736521e-04
4.65000000e-01	1.45252160e-02	1.42541597e-04
4.66000000e-01	1.46161415e-02	1.43319417e-04
4.67000000e-01	1.46273772e-02	1.43920710e-04
4.68000000e-01	1.45719117e-02	1.43508852e-04
4.69000000e-01	1.45267900e-02	1.43284104e-04
4.70000000e-01	1.45086212e-02	1.43095322e-04
4.71000000e-01	1.45288592e-02	1.43131675e-04
4.72000000e-01	1.46105307e-02	1.43590220e-04
4.73000000e-01	1.44466519e-02	1.42411834e-04
4.74000000e-01	1.44840740e-02	1.42640066e-04
4.75000000e-01	1.43670149e-02	1.41430326e-04
4.76000000e-01	1.45567942e-02	1.43314113e-04
4.77000000e-01	1.44366115e-02	1.42465386e-04
4.78000000e-01	1.45698848e-02	1.43610864e-04
4.79000000e-01	1.44983433e-02	1.42665511e-04
4.80000000e-01	1.43802338e-02	1.41867461e-04
4.81000000e-01	1.44733939e-02	1.43042810e-04
4.82000000e-01	1.43507364e-02	1.41702521e-04
4.83000000e-01	1.42948508e-02	1.41418297e-04
4.84000000e-01	1.42821992e-02	1.41248876e-04
4.85000000e-01	1.42820364e-02	1.41320983e-04
4.86000000e-01	1.42581835e-02	1.41210541e-04
4.87000000e-01	1.42822544e-02	1.41748532e-04
4.88000000e-01	1.43812522e-02	1.41959723e-04
4.89000000e-01	1.43012676e-02	1.41968519e-04
4.90000000e-01	1.42974952e-02	1.41875626e-04
4.91000000e-01	1.43309625e-02	1.42366141e-04
4.92000000e-01	1.42667845e-02	1.42015966e-04
4.93000000e-01	1.43823684e-02	1.42518146e-04
4.94000000e-01	1.44047947e-02	1.43068526e-04
4.95000000e-01	1.43244234e-02	1.44013511e-04
4.96000000e-01	1.43973805e-02	1.48282858e-04
4.97000000e-01	1.43738953e-02	1.51047266e-04
4.98000000e-01	1.41737205e-02	1.50873447e-04
4.99000000e-01	1.42326880e-02	1.53714092e-04
5.00000000e-01	1.42687565e-02	1.55396493e-04
5.01000000e-01	1.42604655e-02	1.56892711e-04
5.02000000e-01	1.42543159e-02	1.58940929e-04
5.03000000e-01	1.40849357e-02	1.58438359e-04
5.04000000e-01	1.42769584e-02	1.61682360e-04
5.05000000e-01	1.43887977e-02	1.59997600e-04
5.06000000e-01	1.43125091e-02	1.55176165e-04
5.07000000e-01	1.41939699e-02	1.53514633e-04
5.08000000e-01	1.43636288e-02	1.53357408e-04
5.09000000e-01	1.41990871e-02	1.51335123e-04
5.10000000e-01	1.40660896e-02	1.49515107e-04
5.11000000e-01	1.42143883e-02	1.50624224e-04
5.12000000e-01	1.43545142e-02	1.51946066e-04
5.13000000e-01	1.41743766e-02	1.49583527e-04
5.14000000e-01	1.41405812e-02	1.48874318e-04
5.15000000e-01	1.42206097e-02	1.48560314e-04
5.16000000e-01	1.40806369e-02	1.47959162e-04
5.17000000e-01	1.40714540e-02	1.47873449e-04
5.18000000e-01	1.42637276e-02	1.48629754e-04
5.19000000e-01	1.40880502e-02	1.46776857e-04
5.20000000e-01	1.40939656e-02	1.46291173e-04
5.21000000e-01	1.41886973e-02	1.47163810e-04
5.22000000e-01	1.41021415e-02	1.46802434e-04
5.23000000e-01	1.42084588e-02	1.47202179e-04
5.24000000e-01	1.39212253e-02	1.44888533e-04
5.25000000e-01	1.40712335e-02	1.46083747e-04
5.26000000e-01	1.39664694e-02	1.45433085e-04
5.27000000e-01	1.40326714e-02	1.45747220e-04
5.28000000e-01	1.40566794e-02	1.45873134e-04
5.29000000e-01	1.41015414e-02	1.46612952e-04
5.30000000e-01	1.41346592e-02	1.47006075e-04
5.31000000e-01	1.39468601e-02	1.45210239e-04
5.32000000e-01	1.38827973e-02	1.44755663e-04
5.33000000e-01	1.40425691e-02	1.45743942e-04
5.34000000e-01	1.38509159e-02	1.44012511e-04
5.35000000e-01	1.39286547e-02	1.44837595e-04
5.36000000e-01	1.39034678e-02	1.43950405e-04
5.37000000e-01	1.39289605e-02	1.44499084e-04
5.38000000e-01	1.40623746e-02	1.45537589e-04
5.39000000e-01	1.38356742e-02	1.44292500e-04
5.40000000e-01	1.39916543e-02	1.44906845e-04
5.41000000e-01	1.38417375e-02	1.43734713e-04
5.42000000e-01	1.38514803e-02	1.43849237e-04
5.43000000e-01	1.39322263e-02	1.44232388e-04
5.44000000e-01	1.37941398e-02	1.43180816e-04
5.45000000e-01	1.37992803e-02	1.43615077e-04
5.46000000e-01	1.38571184e-02	1.44051577e-04
5.47000000e-01	1.37650742e-02	1.42990171e-04
5.48000000e-01	1.37312472e-02	1.42456131e-04
5.49000000e-01	1.38471541e-02	1.43663248e-04
5.50000000e-01	1.38654907e-02	1.43655908e-04
5.51000000e-01	1.37924269e-02	1.42806078e-04
5.52000000e-01	1.36455491e-02	1.41151163e-04
5.53000000e-01	1.38018172e-02	1.42444726e-04
5.54000000e-01	1.37126929e-02	1.41431400e-04
5.55000000e-01	1.36972945e-02	1.41287919e-04
5.56000000e-01	1.36596208e-02	1.40777162e-04
5.57000000e-01	1.38115253e-02	1.42365640e-04
5.58000000e-01	1.37497994e-02	1.42305286e-04
5.59000000e-01	1.37299673e-02	1.41545421e-04
5.60000000e-01	1.37378864e-02	1.42637264e-04
5.61000000e-01	1.38187645e-02	1.42370957e-04
5.62000000e-01	1.36759551e-02	1.41400655e-04
5.63000000e-01	1.36462681e-02	1.41384967e-04
5.64000000e-01	1.36744521e-02	1.40992475e-04
5.65000000e-01	1.34364964e-02	1.38530279e-04
5.66000000e-01	1.37647004e-02	1.41904609e-04
5.67000000e-01	1.35838450e-02	1.40909922e-04
5.68000000e-01	1.36712185e-02	1.41662667e-04
5.69000000e-01	1.35937065e-02	1.39829404e-04
5.70000000e-01	1.36257369e-02	1.40638857e-04
5.71000000e-01	1.36057355e-02	1.40056281e-04
5.72000000e-01	1.36272020e-02	1.40608327e-04
5.73000000e-01	1.35799294e-02	1.40468688e-04
5.74000000e-01	1.32911936e-02	1.37744978e-04
5.75000000e-01	1.33474517e-02	1.38692239e-04
5.76000000e-01	1.33832006e-02	1.38744451e-04
5.77000000e-01	1.34602939e-02	1.39112098e-04
5.78000000e-01	1.34034717e-02	1.39152198e-04
5.79000000e-01	1.33535857e-02	1.38498733e-04
5.80000000e-01	1.34681755e-02	1.39428659e-04
5.81000000e-01	1.34201265e-02	1.39022135e-04
5.82000000e-01	1.34526345e-02	1.39486812e-04
5.83000000e-01	1.33203318e-02	1.38277999e-04
5.84000000e-01	1.33813849e-02	1.38918372e-04
5.85000000e-01	1.33848452e-02	1.38719382e-04
5.86000000e-01	1.34394343e-02	1.39180518e-04
5.87000000e-01	1.34291008e-02	1.39537049e-04
5.88000000e-01	1.33855565e-02	1.39085737e-04
5.89000000e-01	1.34881746e-02	1.39865260e-04
5.90000000e-01	1.34168329e-02	1.38803303e-04
5.91000000e-01	1.32951327e-02	1.38613303e-04
5.92000000e-01	1.35064308e-02	1.40124389e-04
5.93000000e-01	1.33748912e-02	1.38819405e-04
5.94000000e-01	1.33440737e-02	1.38703661e-04
5.95000000e-01	1.33366433e-02	1.38864917e-04
5.96000000e-01	1.33435699e-02	1.39127738e-04
5.97000000e-01	1.33850943e-02	1.38969343e-04
5.98000000e-01	1.33131579e-02	1.38269216e-04
5.99000000e-01	1.32169312e-02	1.37887505e-04
6.00000000e-01	1.31703612e-02	1.36951197e-04
6.01000000e-01	1.33132076e-02	1.38793727e-04
6.02000000e-01	1.33230950e-02	1.38619145e-04
6.03000000e-01	1.33034082e-02	1.38434386e-04
6.04000000e-01	1.31882188e-02	1.37388809e-04
6.05000000e-01	1.32463023e-02	1.38226097e-04
6.06000000e-01	1.32601812e-02	1.37764664e-04
6.07000000e-01	1.32177063e-02	1.38028192e-04
6.08000000e-01	1.32057395e-02	1.37799916e-04
6.09000000e-01	1.31522142e-02	1.37212467e-04
6.10000000e-01	1.32027432e-02	1.37835583e-04
6.11000000e-01	1.32356387e-02	1.38117983e-04
6.12000000e-01	1.31993714e-02	1.37339038e-04
6.13000000e-01	1.31542377e-02	1.37423851e-04
6.14000000e-01	1.32732127e-02	1.38322085e-04
6.15000000e-01	1.32373826e-02	1.37946281e-04
6.16000000e-01	1.31370455e-02	1.36705346e-04
6.17000000e-01	1.31825811e-02	1.37579138e-04
6.18000000e-01	1.29804190e-02	1.36169814e-04
6.19000000e-01	1.31801699e-02	1.37013362e-04
6.20000000e-01	1.30109867e-02	1.35317979e-04
6.21000000e-01	1.31913308e-02	1.37345603e-04
6.22000000e-01	1.31773811e-02	1.37031373e-04
6.23000000e-01	1.30245990e-02	1.35396236e-04
6.24000000e-01	1.30831313e-02	1.35869138e-04
6.25000000e-01	1.30597547e-02	1.35553640e-04
6.26000000e-01	1.31826941e-02	1.36420155e-04
6.27000000e-01	1.29291907e-02	1.34260406e-04
6.28000000e-01	1.30149578e-02	1.35070969e-04
6.29000000e-01	1.30921149e-02	1.35543728e-04
6.30000000e-01	1.30320418e-02	1.35327375e-04
6.31000000e-01	1.30619970e-02	1.35450088e-04
6.32000000e-01	1.29940003e-02	1.34992579e-04
6.33000000e-01	1.30479635e-02	1.34885652e-04
6.34000000e-01	1.30322588e-02	1.38482006e-04
6.35000000e-01	1.29887093e-02	1.42059957e-04
6.36000000e-01	1.30576531e-02	1.45207292e-04
6.37000000e-01	1.29560024e-02	1.47202271e-04
6.38000000e-01	1.32205042e-02	1.51574017e-04
6.39000000e-01	1.30640545e-02	1.51134673e-04
6.40000000e-01	1.29264751e-02	1.51846116e-04
6.41000000e-01	1.30017826e-02	1.53632849e-04
6.42000000e-01	1.30510916e-02	1.56931029e-04
6.43000000e-01	1.30245957e-02	1.56328360e-04
6.44000000e-01	1.31604505e-02	1.51420467e-04
6.45000000e-01	1.31938049e-02	1.50402453e-04
6.46000000e-01	1.31442096e-02	1.48708950e-04
6.47000000e-01	1.30070929e-02	1.45852340e-04
6.48000000e-01	1.28770826e-02	1.43602661e-04
6.49000000e-01	1.28696632e-02	1.42938281e-04
6.50000000e-01	1.31536209e-02	1.45398558e-04
6.51000000e-01	1.29759466e-02	1.43074654e-04
6.52000000e-01	1.28822799e-02	1.41443232e-04
6.53000000e-01	1.29204270e-02	1.41064274e-04
6.54000000e-01	1.29130135e-02	1.40914090e-04
6.55000000e-01	1.30488637e-02	1.41326704e-04
6.56000000e-01	1.30742416e-02	1.41549340e-04
6.57000000e-01	1.31338431e-02	1.42239925e-04
6.58000000e-01	1.29865647e-02	1.40340605e-04
6.59000000e-01	1.29542469e-02	1.39775588e-04
6.60000000e-01	1.31492432e-02	1.41812108e-04
6.61000000e-01	1.28746067e-02	1.39297835e-04
6.62000000e-01	1.29254846e-02	1.39797579e-04
6.63000000e-01	1.29200391e-02	1.39478029e-04
6.64000000e-01	1.29626548e-02	1.40170959e-04
6.65000000e-01	1.28237530e-02	1.38695012e-04
6.66000000e-01	1.29364777e-02	1.39003494e-04
6.67000000e-01	1.30587747e-02	1.40415140e-04
6.68000000e-01	1.28430751e-02	1.38269750e-04
6.69000000e-01	1.28882224e-02	1.38504441e-04
6.70000000e-01	1.29808788e-02	1.39606522e-04
6.71000000e-01	1.28421756e-02	1.37983554e-04
6.72000000e-01	1.28823656e-02	1.38552561e-04
6.73000000e-01	1.27742601e-02	1.36889805e-04
6.74000000e-01	1.28164811e-02	1.37763466e-04
6.75000000e-01	1.27795808e-02	1.36877191e-04
6.76000000e-01	1.28466022e-02	1.38305778e-04
6.77000000e-01	1.28715717e-02	1.37909047e-04
6.78000000e-01	1.28950887e-02	1.37800232e-04
6.79000000e-01	1.27685063e-02	1.37673805e-04
6.80000000e-01	1.27738485e-02	1.37324566e-04
6.81000000e-01	1.27402278e-02	1.36368820e-04
6.82000000e-01	1.27416514e-02	1.36728802e-04
6.83000000e-01	1.26524319e-02	1.35516470e-04
6.84000000e-01	1.27328680e-02	1.36151174e-04
6.85000000e-01	1.27948208e-02	1.37013541e-04
6.86000000e-01	1.27430433e-02	1.36538481e-04
6.87000000e-01	1.27170633e-02	1.36129777e-04
6.88000000e-01	1.27086905e-02	1.36041153e-04
6.89000000e-01	1.27196343e-02	1.36223045e-04
6.90000000e-01	1.26503310e-02	1.35588774e-04
6.91000000e-01	1.27297489e-02	1.35975079e-04
6.92000000e-01	1.27128814e-02	1.36176555e-04
6.93000000e-01	1.26999705e-02	1.35550111e-04
6.94000000e-01	1.27622786e-02	1.36732218e-04
6.95000000e-01	1.25999702e-02	1.35589338e-04
6.96000000e-01	1.26135991e-02	1.35130846e-04
6.97000000e-01	1.26110402e-02	1.35237930e-04
6.98000000e-01	1.26763850e-02	1.35748339e-04
6.99000000e-01	1.25915676e-02	1.35052003e-04
7.00000000e-01	1.24966815e-02	1.33933359e-04
7.01000000e-01	1.25722877e-02	1.34462250e-04
7.02000000e-01	1.25526992e-02	1.34507781e-04
7.03000000e-01	1.25928361e-02	1.34882929e-04
7.04000000e-01	1.26067930e-02	1.35374836e-04
7.05000000e-01	1.24706174e-02	1.33802506e-04
7.06000000e-01	1.25370531e-02	1.34421204e-04
7.07000000e-01	1.25249095e-02	1.34051886e-04
7.08000000e-01	1.25775922e-02	1.34177086e-04
7.09000000e-01	1.26866418e-02	1.35353320e-04
7.10000000e-01	1.25315357e-02	1.34280599e-04
7.11000000e-01	1.23923031e-02	1.32795148e-04
7.12000000e-01	1.24656938e-02	1.33579681e-04
7.13000000e-01	1.25172209e-02	1.33847595e-04
7.14000000e-01	1.25050353e-02	1.33541843e-04
7.15000000e-01	1.23619835e-02	1.32546530e-04
7.16000000e-01	1.23888288e-02	1.32508893e-04
7.17000000e-01	1.24752682e-02	1.33461564e-04
7.18000000e-01	1.23289133e-02	1.31833466e-04
7.19000000e-01	1.24026225e-02	1.32927867e-04
7.20000000e-01	1.22710015e-02	1.31464595e-04
7.21000000e-01	1.23554135e-02	1.32431036e-04
7.22000000e-01	1.23282983e-02	1.31977272e-04
7.23000000e-01	1.22456687e-02	1.31099418e-04
7.24000000e-01	1.21578511e-02	1.30168146e-04
7.25000000e-01	1.21268832e-02	1.30024753e-04
7.26000000e-01	1.23065415e-02	1.31705987e-04
7.27000000e-01	1.23776430e-02	1.32518438e-04
7.28000000e-01	1.22503569e-02	1.31572548e-04
7.29000000e-01	1.23320221e-02	1.32215670e-04
7.30000000e-01	1.23710596e-02	1.32261371e-04
7.31000000e-01	1.22249711e-02	1.30785098e-04
7.32000000e-01	1.21462288e-02	1.30917917e-04
7.33000000e-01	1.21486292e-02	1.30214447e-04
7.34000000e-01	1.22744011e-02	1.31287871e-04
7.35000000e-01	1.22059385e-02	1.30878661e-04
7.36000000e-01	1.23875561e-02	1.32212134e-04
7.37000000e-01	1.21140256e-02	1.29415274e-04
7.38000000e-01	1.21410776e-02	1.29199280e-04
7.39000000e-01	1.22050421e-02	1.30017257e-04
7.40000000e-01	1.21551011e-02	1.29307146e-04
7.41000000e-01	1.23124047e-02	1.30582023e-04
7.42000000e-01	1.21111997e-02	1.28694751e-04
7.43000000e-01	1.21698511e-02	1.29082194e-04
7.44000000e-01	1.21254438e-02	1.28695195e-04
7.45000000e-01	1.21210156e-02	1.28267984e-04
7.46000000e-01	1.21487200e-02	1.28834948e-04
7.47000000e-01	1.20950210e-02	1.28445106e-04
7.48000000e-01	1.20818193e-02	1.28422934e-04
7.49000000e-01	1.21466152e-02	1.28746529e-04
7.50000000e-01	1.21495864e-02	1.29040283e-04
7.51000000e-01	1.20613553e-02	1.28093580e-04
7.52000000e-01	1.19988614e-02	1.27525642e-04
7.53000000e-01	1.19916358e-02	1.27930309e-04
7.54000000e-01	1.20149958e-02	1.27697568e-04
7.55000000e-01	1.19810161e-02	1.27490843e-04
7.56000000e-01	1.20602272e-02	1.28116852e-04
7.57000000e-01	1.20082666e-02	1.27658061e-04
7.58000000e-01	1.19114707e-02	1.27116008e-04
7.59000000e-01	1.18977683e-02	1.26687536e-04
7.60000000e-01	1.19932793e-02	1.27572050e-04
7.61000000e-01	1.20311982e-02	1.27324156e-04
7.62000000e-01	1.19257924e-02	1.26386970e-04
7.63000000e-01	1.20719268e-02	1.27186990e-04
7.64000000e-01	1.20037516e-02	1.26280446e-04
7.65000000e-01	1.19210882e-02	1.25766482e-04
7.66000000e-01	1.19685036e-02	1.26468455e-04
7.67000000e-01	1.18308398e-02	1.25293126e-04
7.68000000e-01	1.18596061e-02	1.24879092e-04
7.69000000e-01	1.19658937e-02	1.26384428e-04
7.70000000e-01	1.17845394e-02	1.24253061e-04
7.71000000e-01	1.20118216e-02	1.26627729e-04
7.72000000e-01	1.20093023e-02	1.30393223e-04
7.73000000e-01	1.17484195e-02	1.32352408e-04
7.74000000e-01	1.19067577e-02	1.36271264e-04
7.75000000e-01	1.17810718e-02	1.37658359e-04
7.76000000e-01	1.19169487e-02	1.40392142e-04
7.77000000e-01	1.18082858e-02	1.41644750e-04
7.78000000e-01	1.17777561e-02	1.43532579e-04
7.79000000e-01	1.17717399e-02	1.44571810e-04
7.80000000e-01	1.17443670e-02	1.45741960e-04
7.81000000e-01	1.18705544e-02	1.49523149e-04
7.82000000e-01	1.16401470e-02	1.47703640e-04
7.83000000e-01	1.17802333e-02	1.51123467e-04
7.84000000e-01	1.15944417e-02	1.51001537e-04
7.85000000e-01	1.14879419e-02	1.51749895e-04
7.86000000e-01	1.16137095e-02	1.54041484e-04
7.87000000e-01	1.15617076e-02	1.55600517e-04
7.88000000e-01	1.15875459e-02	1.57295659e-04
7.89000000e-01	1.15750306e-02	1.58318197e-04
7.90000000e-01	1.16265866e-02	1.61453597e-04
7.91000000e-01	1.15581646e-02	1.61999692e-04
7.92000000e-01	1.15272462e-02	1.62090285e-04
7.93000000e-01	1.17842894e-02	1.67248625e-04
7.94000000e-01	1.15796840e-02	1.66877987e-04
7.95000000e-01	1.15956226e-02	1.68038000e-04
7.96000000e-01	1.16792352e-02	1.72231900e-04
7.97000000e-01	1.15005596e-02	1.70883396e-04
7.98000000e-01	1.14548139e-02	1.72936982e-04
7.99000000e-01	1.15792078e-02	1.75861825e-04
8.00000000e-01	1.15848952e-02	1.77562826e-04
8.01000000e-01	1.13948086e-02	1.77059163e-04
8.02000000e-01	1.14374902e-02	1.79120622e-04
8.03000000e-01	1.14188612e-02	1.80585639e-04
8.04000000e-01	1.14203341e-02	1.82919024e-04
8.05000000e-01	1.14574876e-02	1.85345739e-04
8.06000000e-01	1.14184825e-02	1.86721322e-04
8.07000000e-01	1.11514949e-02	1.84486974e-04
8.08000000e-01	1.14173177e-02	1.92144638e-04
8.09000000e-01	1.13417121e-02	1.90394889e-04
8.10000000e-01	1.13578776e-02	1.93752518e-04
8.11000000e-01	1.14474238e-02	1.95998565e-04
8.12000000e-01	1.15818171e-02	2.01300192e-04
8.13000000e-01	1.13151509e-02	1.99594296e-04
8.14000000e-01	1.12291770e-02	2.00871799e-04
8.15000000e-01	1.13548075e-02	2.05178541e-04
8.16000000e-01	1.14439234e-02	2.08763205e-04
8.17000000e-01	1.12559340e-02	2.08855232e-04
8.18000000e-01	1.14070028e-02	2.14365755e-04
8.19000000e-01	1.12639919e-02	2.14325386e-04
8.20000000e-01	1.13276160e-02	2.17895044e-04
8.21000000e-01	1.12893774e-02	2.19172202e-04
8.22000000e-01	1.14553889e-02	2.25743486e-04
8.23000000e-01	1.08410096e-02	2.17555541e-04
8.24000000e-01	1.10213014e-02	2.23875046e-04
8.25000000e-01	1.11038574e-02	2.29395745e-04
8.26000000e-01	1.14629677e-02	2.39804808e-04
8.27000000e-01	1.11590695e-02	2.35850574e-04
8.28000000e-01	1.11629666e-02	2.39097516e-04
8.29000000e-01	1.09979178e-02	2.41352960e-04
8.30000000e-01	1.08027186e-02	2.40144415e-04
8.31000000e-01	1.09919720e-02	2.49536239e-04
8.32000000e-01	1.11139696e-02	2.55497198e-04
8.33000000e-01	1.10001234e-02	2.58710649e-04
8.34000000e-01	1.08703227e-02	2.61025343e-04
8.35000000e-01	1.10735838e-02	2.67755201e-04
8.36000000e-01	1.08791849e-02	2.66138263e-04
8.37000000e-01	1.09877647e-02	2.75984685e-04
8.38000000e-01	1.08925449e-02	2.80804497e-04
8.39000000e-01	1.10273178e-02	2.90855663e-04
8.40000000e-01	1.08837258e-02	2.92242216e-04
8.41000000e-01	1.10846845e-02	3.02509639e-04
8.42000000e-01	1.09810827e-02	3.07574422e-04
8.43000000e-01	1.08084540e-02	3.10316357e-04
8.44000000e-01	1.06994259e-02	3.12541260e-04
8.45000000e-01	1.06504541e-02	3.20905975e-04
8.46000000e-01	1.11978580e-02	3.43491315e-04
8.47000000e-01	1.07596860e-02	3.45922627e-04
8.48000000e-01	1.11716822e-02	3.72227277e-04
8.49000000e-01	1.09173399e-02	3.69920229e-04
8.50000000e-01	1.05895157e-02	3.75830253e-04
8.51000000e-01	1.12098198e-02	4.04383998e-04
8.52000000e-01	1.04107653e-02	3.97045384e-04
8.53000000e-01	1.05444850e-02	4.19216159e-04
8.54000000e-01	1.07102296e-02	4.35857888e-04
8.55000000e-01	1.06143039e-02	4.48813668e-04
8.56000000e-01	1.10191392e-02	4.83511402e-04
8.57000000e-01	1.06965324e-02	4.82723956e-04
8.58000000e-01	1.00660519e-02	4.79380314e-04
8.59000000e-01	1.07015911e-02	5.09646565e-04
8.60000000e-01	1.04650171e-02	5.16396534e-04
8.61000000e-01	1.04002782e-02	5.30491630e-04
8.62000000e-01	1.06357257e-02	5.76713444e-04
8.63000000e-01	1.04974787e-02	6.01326954e-04
8.64000000e-01	1.10101356e-02	6.32271561e-04
8.65000000e-01	1.04906612e-02	6.32486992e-04
8.66000000e-01	1.03636299e-02	6.63230156e-04
8.67000000e-01	9.68680851e-03	6.66969677e-04
8.68000000e-01	1.10680674e-02	7.72874189e-04
8.69000000e-01	1.01448494e-02	7.96994016e-04
8.70000000e-01	9.55442769e-03	8.39950814e-04
8.71000000e-01	1.12040073e-02	1.03272739e-03
8.72000000e-01	1.11701494e-02	1.14097854e-03
8.73000000e-01	1.06681128e-02	1.32763317e-03
8.74000000e-01	9.43367014e-03	1.46415259e-03
8.75000000e-01	9.28667780e-03	3.51004074e-03
