% Filename : SDL7_00012_00101.h5
% Date & Time : 30-Oct-2025 14:52:11
% X-ray Energy (keV) : 13.30001
% Exposure Time (s) : 0.500
% Beam Center : 1461.24000, 208.98300
% Sample to Detector Distance (SDD) (mm) : 1990.750
% Detector Pixel Size (mm) : 0.075
% Photodiode Value : 135018.000
% I0 of Sample : 0
% I0 of Standard : 1
% 
% q(A^-1)   I(q)    I(q)_SE
0.00000000e+00	1.87333389e-02	1.01906283e-02
2.50000000e-04	0.00000000e+00	0.00000000e+00
5.00000000e-04	0.00000000e+00	0.00000000e+00
7.50000000e-04	0.00000000e+00	0.00000000e+00
1.00000000e-03	0.00000000e+00	0.00000000e+00
1.25000000e-03	0.00000000e+00	0.00000000e+00
1.50000000e-03	0.00000000e+00	0.00000000e+00
1.75000000e-03	0.00000000e+00	0.00000000e+00
2.00000000e-03	0.00000000e+00	0.00000000e+00
2.25000000e-03	0.00000000e+00	0.00000000e+00
2.50000000e-03	0.00000000e+00	0.00000000e+00
2.75000000e-03	0.00000000e+00	0.00000000e+00
3.00000000e-03	0.00000000e+00	0.00000000e+00
3.25000000e-03	3.72874056e+01	3.50710137e+01
3.50000000e-03	8.71958643e+00	6.99724767e+00
3.75000000e-03	4.18991255e+00	2.81939726e+00
4.00000000e-03	3.36607734e+00	2.22922179e+00
4.25000000e-03	9.19823778e-01	1.38847738e-01
4.50000000e-03	1.85189012e+00	8.61361968e-01
4.75000000e-03	2.08790066e+00	8.02430250e-01
5.00000000e-03	1.63319753e+00	6.09376855e-01
5.25000000e-03	1.32038769e+00	4.70313098e-01
5.50000000e-03	1.14221776e+00	4.12084562e-01
5.75000000e-03	9.36959323e-01	3.09026930e-01
6.00000000e-03	7.91879578e-01	2.73589139e-01
6.25000000e-03	6.87841729e-01	2.21095670e-01
6.50000000e-03	5.80240789e-01	1.87076892e-01
6.75000000e-03	4.99739329e-01	1.57817287e-01
7.00000000e-03	4.21216425e-01	1.22090523e-01
7.25000000e-03	3.88368726e-01	1.15227867e-01
7.50000000e-03	3.28810520e-01	9.36312122e-02
7.75000000e-03	3.00015384e-01	8.70902214e-02
8.00000000e-03	2.64268505e-01	7.32108157e-02
8.25000000e-03	2.25498536e-01	6.13591232e-02
8.50000000e-03	2.10539289e-01	5.84385304e-02
8.75000000e-03	1.83091764e-01	4.66826551e-02
9.00000000e-03	1.67321465e-01	4.63023333e-02
9.25000000e-03	1.50308925e-01	3.61514918e-02
9.50000000e-03	1.38138625e-01	3.31457441e-02
9.75000000e-03	1.22769986e-01	2.82408160e-02
1.00000000e-02	1.12133823e-01	2.44739928e-02
1.02500000e-02	1.06915130e-01	2.55356057e-02
1.05000000e-02	9.14581057e-02	1.81860356e-02
1.07500000e-02	9.05486416e-02	1.97073118e-02
1.10000000e-02	7.99510593e-02	1.56201719e-02
1.12500000e-02	7.75915017e-02	1.55171757e-02
1.15000000e-02	7.28728419e-02	1.36572245e-02
1.17500000e-02	5.92487831e-02	8.69957246e-03
1.20000000e-02	6.33501892e-02	1.14280942e-02
1.22500000e-02	5.99538804e-02	1.02344915e-02
1.25000000e-02	5.83995327e-02	9.31436802e-03
1.27500000e-02	5.24700042e-02	7.62420391e-03
1.30000000e-02	5.28497638e-02	7.86382548e-03
1.32500000e-02	4.73833833e-02	6.83538651e-03
1.35000000e-02	4.71490858e-02	6.51908982e-03
1.37500000e-02	4.43128794e-02	5.97040980e-03
1.40000000e-02	4.23327780e-02	4.98074457e-03
1.42500000e-02	4.09574881e-02	4.79810769e-03
1.45000000e-02	3.84960794e-02	4.48122280e-03
1.47500000e-02	3.72398180e-02	3.68022531e-03
1.50000000e-02	3.82059229e-02	4.20173200e-03
1.52500000e-02	3.62890096e-02	4.01448215e-03
1.55000000e-02	3.51650300e-02	3.26348287e-03
1.57500000e-02	3.30247339e-02	3.19593607e-03
1.60000000e-02	3.31183440e-02	2.96039000e-03
1.62500000e-02	3.10099607e-02	2.51550124e-03
1.65000000e-02	3.08597631e-02	2.49910579e-03
1.67500000e-02	3.03666504e-02	2.24318616e-03
1.70000000e-02	2.92749430e-02	2.30412432e-03
1.72500000e-02	2.97269301e-02	2.10365261e-03
1.75000000e-02	2.81732646e-02	1.98426692e-03
1.77500000e-02	2.84381414e-02	1.92979020e-03
1.80000000e-02	2.69735018e-02	1.75124625e-03
1.82500000e-02	2.66498715e-02	1.78466102e-03
1.85000000e-02	2.65553293e-02	1.67970530e-03
1.87500000e-02	2.66058580e-02	1.62264074e-03
1.90000000e-02	2.62335387e-02	1.61073043e-03
1.92500000e-02	2.61372070e-02	1.50197185e-03
1.95000000e-02	2.55215618e-02	1.51006510e-03
1.97500000e-02	2.56650334e-02	1.45444752e-03
2.00000000e-02	2.59117037e-02	1.53044187e-03
2.02500000e-02	2.54125582e-02	1.35987351e-03
2.05000000e-02	2.52695853e-02	1.35319204e-03
2.07500000e-02	2.49814693e-02	1.36254334e-03
2.10000000e-02	2.43374371e-02	1.27419171e-03
2.12500000e-02	2.54812326e-02	1.35695703e-03
2.15000000e-02	2.43661759e-02	1.28813354e-03
2.17500000e-02	2.46859832e-02	1.31236354e-03
2.20000000e-02	2.36253128e-02	1.25974898e-03
2.22500000e-02	2.44171441e-02	1.29638773e-03
2.25000000e-02	2.39641552e-02	1.30173867e-03
2.27500000e-02	2.39761324e-02	1.27057688e-03
2.30000000e-02	2.35152579e-02	1.27657123e-03
2.32500000e-02	2.34606766e-02	1.23032680e-03
2.35000000e-02	2.44330366e-02	1.31139106e-03
2.37500000e-02	2.40910572e-02	1.25394134e-03
2.40000000e-02	2.36905599e-02	1.24102310e-03
2.42500000e-02	2.32391887e-02	1.19971945e-03
2.45000000e-02	2.26451859e-02	1.19145106e-03
2.47500000e-02	2.42953281e-02	1.25210652e-03
2.50000000e-02	2.29860874e-02	1.19357032e-03
2.52500000e-02	2.26632274e-02	1.16598539e-03
2.55000000e-02	2.27820565e-02	1.18294805e-03
2.57500000e-02	2.31200988e-02	1.17679758e-03
2.60000000e-02	2.27886424e-02	1.15929838e-03
2.62500000e-02	2.37911932e-02	1.23130679e-03
2.65000000e-02	2.22192044e-02	1.14408060e-03
2.67500000e-02	2.25921938e-02	1.15263061e-03
2.70000000e-02	2.19936639e-02	1.11204341e-03
2.72500000e-02	2.25487529e-02	1.13001498e-03
2.75000000e-02	2.28222591e-02	1.15054173e-03
2.77500000e-02	2.30814092e-02	1.17859718e-03
2.80000000e-02	2.25697188e-02	1.11329267e-03
2.82500000e-02	2.29506676e-02	1.14366539e-03
2.85000000e-02	2.41622318e-02	1.19489823e-03
2.87500000e-02	2.29020867e-02	1.16512941e-03
2.90000000e-02	2.35985472e-02	1.18356498e-03
2.92500000e-02	2.31355456e-02	1.13290912e-03
2.95000000e-02	2.33781288e-02	1.15719399e-03
2.97500000e-02	2.29626168e-02	1.12005264e-03
3.00000000e-02	2.29705306e-02	1.13484636e-03
3.02500000e-02	2.34923390e-02	1.17882530e-03
3.05000000e-02	2.34778574e-02	1.12953540e-03
3.07500000e-02	2.33528162e-02	1.13098769e-03
3.10000000e-02	2.48661463e-02	1.19893521e-03
3.12500000e-02	2.33411460e-02	1.14992960e-03
3.15000000e-02	2.24227603e-02	1.07593626e-03
3.17500000e-02	2.25700778e-02	1.05992688e-03
3.20000000e-02	2.17415891e-02	1.04748885e-03
3.22500000e-02	2.29889982e-02	1.10265564e-03
3.25000000e-02	2.31948274e-02	1.10249237e-03
3.27500000e-02	2.30216657e-02	1.06690244e-03
3.30000000e-02	2.19754395e-02	1.04565249e-03
3.32500000e-02	2.26220087e-02	1.07398236e-03
3.35000000e-02	2.17850909e-02	1.03138091e-03
3.37500000e-02	2.22415268e-02	1.04728549e-03
3.40000000e-02	2.20261079e-02	1.02520412e-03
3.42500000e-02	2.17166442e-02	1.02314592e-03
3.45000000e-02	2.24535114e-02	1.04802796e-03
3.47500000e-02	2.24613796e-02	1.03851899e-03
3.50000000e-02	2.19918010e-02	1.02233907e-03
3.52500000e-02	2.20223454e-02	1.02563558e-03
3.55000000e-02	2.11836021e-02	9.57821676e-04
3.57500000e-02	2.16153126e-02	1.00504517e-03
3.60000000e-02	2.22832927e-02	1.01532314e-03
3.62500000e-02	2.14358880e-02	9.95096009e-04
3.65000000e-02	2.21305740e-02	1.00654949e-03
3.67500000e-02	2.19790387e-02	9.99031035e-04
3.70000000e-02	2.15142316e-02	9.73312031e-04
3.72500000e-02	2.23865180e-02	9.96820277e-04
3.75000000e-02	2.07967054e-02	9.52275825e-04
3.77500000e-02	2.19443743e-02	9.78981549e-04
3.80000000e-02	2.10077452e-02	9.37247031e-04
3.82500000e-02	2.13106683e-02	9.43889823e-04
3.85000000e-02	2.12020076e-02	9.55190271e-04
3.87500000e-02	2.15301719e-02	9.49454059e-04
3.90000000e-02	2.12328067e-02	9.50781674e-04
3.92500000e-02	2.13511376e-02	9.45495099e-04
3.95000000e-02	2.15690531e-02	9.57477945e-04
3.97500000e-02	2.10371503e-02	9.27043504e-04
4.00000000e-02	2.15626037e-02	9.53391852e-04
4.02500000e-02	2.08738458e-02	9.12127478e-04
4.05000000e-02	2.12159238e-02	9.26165698e-04
4.07500000e-02	2.11021326e-02	9.18346247e-04
4.10000000e-02	2.09620649e-02	9.22685975e-04
4.12500000e-02	2.11673420e-02	9.25393774e-04
4.15000000e-02	2.09909225e-02	9.12448768e-04
4.17500000e-02	2.12030241e-02	9.16057005e-04
4.20000000e-02	2.16922285e-02	9.25199836e-04
4.22500000e-02	2.20918642e-02	9.46641733e-04
4.25000000e-02	2.17566275e-02	9.35986983e-04
4.27500000e-02	2.10117207e-02	8.90632794e-04
4.30000000e-02	2.10497368e-02	9.04204419e-04
4.32500000e-02	2.14723669e-02	9.12756693e-04
4.35000000e-02	2.14897867e-02	9.21960625e-04
4.37500000e-02	2.03678305e-02	8.62328164e-04
4.40000000e-02	2.10558406e-02	8.89877571e-04
4.42500000e-02	2.11819340e-02	8.95484624e-04
4.45000000e-02	2.09332276e-02	8.81315999e-04
4.47500000e-02	2.11693585e-02	8.89797626e-04
4.50000000e-02	2.15134322e-02	9.12149401e-04
4.52500000e-02	2.08008465e-02	8.64807471e-04
4.55000000e-02	2.16030022e-02	9.04709277e-04
4.57500000e-02	2.10982368e-02	8.71583913e-04
4.60000000e-02	2.10340875e-02	8.75686446e-04
4.62500000e-02	2.11064617e-02	8.88987408e-04
4.65000000e-02	2.08097928e-02	8.68720090e-04
4.67500000e-02	2.03721792e-02	8.35032707e-04
4.70000000e-02	2.08742520e-02	8.56925287e-04
4.72500000e-02	2.11373295e-02	8.66837448e-04
4.75000000e-02	2.12900497e-02	8.76360336e-04
4.77500000e-02	2.06655579e-02	8.43452644e-04
4.80000000e-02	2.15083506e-02	8.82772059e-04
4.82500000e-02	2.03323242e-02	8.22081113e-04
4.85000000e-02	2.14061363e-02	8.82044515e-04
4.87500000e-02	2.07492881e-02	8.48216148e-04
4.90000000e-02	2.09494230e-02	8.41228586e-04
4.92500000e-02	2.07038588e-02	8.34285790e-04
4.95000000e-02	2.07173136e-02	8.42220237e-04
4.97500000e-02	2.12191254e-02	8.63791028e-04
5.00000000e-02	2.08403885e-02	8.43111159e-04
5.02500000e-02	2.00669856e-02	8.03614359e-04
5.05000000e-02	1.98709065e-02	8.05870037e-04
5.07500000e-02	1.97701762e-02	8.01566228e-04
5.10000000e-02	2.11287633e-02	8.40350382e-04
5.12500000e-02	2.06730480e-02	8.30825835e-04
5.15000000e-02	2.10903659e-02	8.31358822e-04
5.17500000e-02	2.04956419e-02	8.28224069e-04
5.20000000e-02	2.12609173e-02	8.40042838e-04
5.22500000e-02	2.15045628e-02	8.58128213e-04
5.25000000e-02	2.04726952e-02	8.13792052e-04
5.27500000e-02	2.09390753e-02	8.29945702e-04
5.30000000e-02	2.09793003e-02	8.29638002e-04
5.32500000e-02	2.05456947e-02	8.07480485e-04
5.35000000e-02	2.04871764e-02	8.13495725e-04
5.37500000e-02	2.03910381e-02	7.95759592e-04
5.40000000e-02	2.04350697e-02	7.96451577e-04
5.42500000e-02	2.08747580e-02	8.04072982e-04
5.45000000e-02	2.06021110e-02	8.12472948e-04
5.47500000e-02	1.97771123e-02	7.68397332e-04
5.50000000e-02	2.02130221e-02	7.87242455e-04
5.52500000e-02	2.10369437e-02	8.15286449e-04
5.55000000e-02	2.05281764e-02	7.94286440e-04
5.57500000e-02	2.07180591e-02	8.05203990e-04
5.60000000e-02	2.03148627e-02	7.73736509e-04
5.62500000e-02	2.02902136e-02	7.85369565e-04
5.65000000e-02	2.06546782e-02	7.87643444e-04
5.67500000e-02	2.08132617e-02	7.95454007e-04
5.70000000e-02	2.05776218e-02	7.81634417e-04
5.72500000e-02	1.99980927e-02	7.64378422e-04
5.75000000e-02	1.99350222e-02	7.71739000e-04
5.77500000e-02	2.01974216e-02	7.63694711e-04
5.80000000e-02	2.05186742e-02	7.80032530e-04
5.82500000e-02	2.04511177e-02	7.69905279e-04
5.85000000e-02	1.94430713e-02	7.43526455e-04
5.87500000e-02	2.02715763e-02	7.63909500e-04
5.90000000e-02	2.03585936e-02	7.68423533e-04
5.92500000e-02	2.02573668e-02	7.64488181e-04
5.95000000e-02	2.01212790e-02	7.60431088e-04
5.97500000e-02	1.94179547e-02	7.36973638e-04
6.00000000e-02	2.01037863e-02	7.48732413e-04
6.02500000e-02	1.99036137e-02	7.46642099e-04
6.05000000e-02	2.09679282e-02	7.79654304e-04
6.07500000e-02	2.04161565e-02	7.66051989e-04
6.10000000e-02	2.05292945e-02	7.66726709e-04
6.12500000e-02	2.01699129e-02	7.53118388e-04
6.15000000e-02	1.95720569e-02	7.28802009e-04
6.17500000e-02	2.05054288e-02	7.59067436e-04
6.20000000e-02	1.94411925e-02	7.21236691e-04
6.22500000e-02	2.04045691e-02	7.53567975e-04
6.25000000e-02	2.05301396e-02	7.62217959e-04
6.27500000e-02	2.02509643e-02	7.40583066e-04
6.30000000e-02	2.01147300e-02	7.34877445e-04
6.32500000e-02	1.97567580e-02	7.27130973e-04
6.35000000e-02	2.00605823e-02	7.40788882e-04
6.37500000e-02	2.03944760e-02	7.55661545e-04
6.40000000e-02	1.95652784e-02	7.18336375e-04
6.42500000e-02	2.04229435e-02	7.36692168e-04
6.45000000e-02	2.00440742e-02	7.33297834e-04
6.47500000e-02	2.01379261e-02	7.36048133e-04
6.50000000e-02	2.00862266e-02	7.34553624e-04
6.52500000e-02	2.01061043e-02	7.25273508e-04
6.55000000e-02	1.99977372e-02	7.21335535e-04
6.57500000e-02	2.05133588e-02	7.42305806e-04
6.60000000e-02	1.99610737e-02	7.19438615e-04
6.62500000e-02	2.02315081e-02	7.30025329e-04
6.65000000e-02	2.00671336e-02	7.13478594e-04
6.67500000e-02	2.00581828e-02	7.19353420e-04
6.70000000e-02	1.98567059e-02	7.17704754e-04
6.72500000e-02	2.01188573e-02	7.15574252e-04
6.75000000e-02	2.11541447e-02	7.50082554e-04
6.77500000e-02	2.03576602e-02	7.26489483e-04
6.80000000e-02	2.01091977e-02	7.16617702e-04
6.82500000e-02	2.02202891e-02	7.10779348e-04
6.85000000e-02	2.04793837e-02	7.35755091e-04
6.87500000e-02	1.94672740e-02	6.94169495e-04
6.90000000e-02	2.04832941e-02	7.16714379e-04
6.92500000e-02	2.01842969e-02	7.13321529e-04
6.95000000e-02	2.01156034e-02	7.12798033e-04
6.97500000e-02	1.99140035e-02	7.06605385e-04
7.00000000e-02	1.96288563e-02	6.94022521e-04
7.02500000e-02	1.94518333e-02	6.85300369e-04
7.05000000e-02	1.99346022e-02	7.01098125e-04
7.07500000e-02	1.98220868e-02	7.02601029e-04
7.10000000e-02	1.97809099e-02	6.89358837e-04
7.12500000e-02	1.99061810e-02	6.88341741e-04
7.15000000e-02	2.01306727e-02	6.95217446e-04
7.17500000e-02	2.01680116e-02	7.04014237e-04
7.20000000e-02	1.97921468e-02	6.90023938e-04
7.22500000e-02	2.04064101e-02	7.08006792e-04
7.25000000e-02	2.03097086e-02	7.00655061e-04
7.27500000e-02	2.04028204e-02	7.05891798e-04
7.30000000e-02	1.98832338e-02	6.88588883e-04
7.32500000e-02	1.99608806e-02	6.88489355e-04
7.35000000e-02	1.99868317e-02	6.90018944e-04
7.37500000e-02	1.97448560e-02	6.76680570e-04
7.40000000e-02	2.02938809e-02	6.97382255e-04
7.42500000e-02	2.06903068e-02	7.08301102e-04
7.45000000e-02	2.00010238e-02	6.88535456e-04
7.47500000e-02	2.00695460e-02	6.85182169e-04
7.50000000e-02	1.92205761e-02	6.54858893e-04
7.52500000e-02	2.04662453e-02	6.89807919e-04
7.55000000e-02	1.96950512e-02	6.70266421e-04
7.57500000e-02	2.02626644e-02	6.86059473e-04
7.60000000e-02	2.00571704e-02	6.83870319e-04
7.62500000e-02	1.97275587e-02	6.71071792e-04
7.65000000e-02	2.02899618e-02	6.85942318e-04
7.67500000e-02	2.00132497e-02	6.71474975e-04
7.70000000e-02	2.00022467e-02	6.73386066e-04
7.72500000e-02	2.03040024e-02	6.93947762e-04
7.75000000e-02	2.00643263e-02	6.96874088e-04
7.77500000e-02	1.93136501e-02	6.77679670e-04
7.80000000e-02	2.01871121e-02	7.09882011e-04
7.82500000e-02	1.99813411e-02	7.06083126e-04
7.85000000e-02	1.93723296e-02	6.85700304e-04
7.87500000e-02	1.99924726e-02	7.07336716e-04
7.90000000e-02	1.97837726e-02	7.11025279e-04
7.92500000e-02	1.98121177e-02	7.06249180e-04
7.95000000e-02	1.95404431e-02	7.05151141e-04
7.97500000e-02	2.02220186e-02	7.28688379e-04
8.00000000e-02	2.00507982e-02	7.22594626e-04
8.02500000e-02	2.05328028e-02	7.34777752e-04
8.05000000e-02	1.97798054e-02	7.12328087e-04
8.07500000e-02	2.01707283e-02	7.38666063e-04
8.10000000e-02	1.95043220e-02	7.04728379e-04
8.12500000e-02	1.94985915e-02	7.12867492e-04
8.15000000e-02	1.97530616e-02	7.14458353e-04
8.17500000e-02	2.01419849e-02	7.39331131e-04
8.20000000e-02	2.02428777e-02	7.42826701e-04
8.22500000e-02	2.04008915e-02	7.50024592e-04
8.25000000e-02	2.00269830e-02	7.32341459e-04
8.27500000e-02	2.00655486e-02	7.32622531e-04
8.30000000e-02	2.00486511e-02	7.31161596e-04
8.32500000e-02	1.99167820e-02	7.32339402e-04
8.35000000e-02	2.02272513e-02	7.47321354e-04
8.37500000e-02	1.98037974e-02	7.30562101e-04
8.40000000e-02	2.04506028e-02	7.55154360e-04
8.42500000e-02	1.97997014e-02	7.37175477e-04
8.45000000e-02	2.00172459e-02	7.45051219e-04
8.47500000e-02	1.93913175e-02	7.19542542e-04
8.50000000e-02	1.97153291e-02	7.30670826e-04
8.52500000e-02	2.03713331e-02	7.62958513e-04
8.55000000e-02	2.01962307e-02	7.46975778e-04
8.57500000e-02	1.97971189e-02	7.35916144e-04
8.60000000e-02	1.96276925e-02	7.39451721e-04
8.62500000e-02	2.01811671e-02	7.48847620e-04
8.65000000e-02	1.96773514e-02	7.30011157e-04
8.67500000e-02	1.99109281e-02	7.38717906e-04
8.70000000e-02	2.01971442e-02	7.29673367e-04
8.72500000e-02	2.01468208e-02	7.19849546e-04
8.75000000e-02	1.99313837e-02	7.06819201e-04
8.77500000e-02	1.96234967e-02	7.00172130e-04
8.80000000e-02	2.00133260e-02	7.05570860e-04
8.82500000e-02	1.97278598e-02	6.88474604e-04
8.85000000e-02	2.00755163e-02	7.05943236e-04
8.87500000e-02	2.00361388e-02	6.97120262e-04
8.90000000e-02	1.96999056e-02	6.86292043e-04
8.92500000e-02	2.02982695e-02	6.98000145e-04
8.95000000e-02	1.96166502e-02	6.79856338e-04
8.97500000e-02	2.00909720e-02	6.89562977e-04
9.00000000e-02	2.02108597e-02	6.85248461e-04
9.02500000e-02	1.94070188e-02	6.62753871e-04
9.05000000e-02	2.00879654e-02	6.82066989e-04
9.07500000e-02	1.94852402e-02	6.62859047e-04
9.10000000e-02	2.00014299e-02	6.76381878e-04
9.12500000e-02	1.96205037e-02	6.58586172e-04
9.15000000e-02	1.99115556e-02	6.71048206e-04
9.17500000e-02	2.06333459e-02	6.98728587e-04
9.20000000e-02	1.92270730e-02	6.46740409e-04
9.22500000e-02	1.98392849e-02	6.62410497e-04
9.25000000e-02	1.94062989e-02	6.47244011e-04
9.27500000e-02	1.96426648e-02	6.55057710e-04
9.30000000e-02	2.00140827e-02	6.67287254e-04
9.32500000e-02	2.00386162e-02	6.62389453e-04
9.35000000e-02	1.97589606e-02	6.49481864e-04
9.37500000e-02	1.97962173e-02	6.55323267e-04
9.40000000e-02	1.99598261e-02	6.64368841e-04
9.42500000e-02	1.93575517e-02	6.39087082e-04
9.45000000e-02	1.95928667e-02	6.43574743e-04
9.47500000e-02	1.97779159e-02	6.44644131e-04
9.50000000e-02	1.97740103e-02	6.45527225e-04
9.52500000e-02	1.96347160e-02	6.40740696e-04
9.55000000e-02	2.01164327e-02	6.55146135e-04
9.57500000e-02	1.94894582e-02	6.37310424e-04
9.60000000e-02	1.96144764e-02	6.34269827e-04
9.62500000e-02	1.98482090e-02	6.45196597e-04
9.65000000e-02	2.02071661e-02	6.54037867e-04
9.67500000e-02	1.95957671e-02	6.29759944e-04
9.70000000e-02	1.94093947e-02	6.28879264e-04
9.72500000e-02	1.95367666e-02	6.29472955e-04
9.75000000e-02	1.94345876e-02	6.25275694e-04
9.77500000e-02	2.02637310e-02	6.48220318e-04
9.80000000e-02	1.99987421e-02	6.40937669e-04
9.82500000e-02	1.98745852e-02	6.36454156e-04
9.85000000e-02	1.96313752e-02	6.28591358e-04
9.87500000e-02	1.97900524e-02	6.25957383e-04
9.90000000e-02	1.95871062e-02	6.23644777e-04
9.92500000e-02	1.98473403e-02	6.34986806e-04
9.95000000e-02	1.95359859e-02	6.22706700e-04
9.97500000e-02	1.98014759e-02	6.31494976e-04
1.00000000e-01	1.92720214e-02	4.97195734e-04
1.00500000e-01	1.97966256e-02	4.43987997e-04
1.01000000e-01	1.97560949e-02	4.41407852e-04
1.01500000e-01	1.97548401e-02	4.37981723e-04
1.02000000e-01	2.01012529e-02	4.42919240e-04
1.02500000e-01	1.95514286e-02	4.31076328e-04
1.03000000e-01	1.96106901e-02	4.33875754e-04
1.03500000e-01	1.95671372e-02	4.30256626e-04
1.04000000e-01	1.96202425e-02	4.30820892e-04
1.04500000e-01	1.95106074e-02	4.28048600e-04
1.05000000e-01	1.96635456e-02	4.28071655e-04
1.05500000e-01	1.96021694e-02	4.24599819e-04
1.06000000e-01	1.96001419e-02	4.26136551e-04
1.06500000e-01	1.96843474e-02	4.25038285e-04
1.07000000e-01	1.94625326e-02	4.29488524e-04
1.07500000e-01	1.97977660e-02	4.41254437e-04
1.08000000e-01	1.95240627e-02	4.40670154e-04
1.08500000e-01	1.94044639e-02	4.42801233e-04
1.09000000e-01	1.92620284e-02	4.39748890e-04
1.09500000e-01	1.95597146e-02	4.47875475e-04
1.10000000e-01	1.96989645e-02	4.44284046e-04
1.10500000e-01	1.94751392e-02	4.30995577e-04
1.11000000e-01	1.96934519e-02	4.31314215e-04
1.11500000e-01	1.95155965e-02	4.22127688e-04
1.12000000e-01	1.99438073e-02	4.27178029e-04
1.12500000e-01	1.92551321e-02	4.10706932e-04
1.13000000e-01	2.00897708e-02	4.26933162e-04
1.13500000e-01	1.97353508e-02	4.16431997e-04
1.14000000e-01	1.96515153e-02	4.14894349e-04
1.14500000e-01	1.98912409e-02	4.16997664e-04
1.15000000e-01	1.95486548e-02	4.07440745e-04
1.15500000e-01	1.95142253e-02	4.10003651e-04
1.16000000e-01	1.95260083e-02	4.08017938e-04
1.16500000e-01	1.98383405e-02	4.13045606e-04
1.17000000e-01	1.94475001e-02	4.05234984e-04
1.17500000e-01	1.99728589e-02	4.12914207e-04
1.18000000e-01	1.94964429e-02	4.05266662e-04
1.18500000e-01	1.95479641e-02	4.02534917e-04
1.19000000e-01	1.93533952e-02	3.99423896e-04
1.19500000e-01	1.96095433e-02	4.01187189e-04
1.20000000e-01	1.95761966e-02	4.01512752e-04
1.20500000e-01	1.99050450e-02	4.06830333e-04
1.21000000e-01	1.93174691e-02	3.94514179e-04
1.21500000e-01	1.99332172e-02	4.03000970e-04
1.22000000e-01	1.98432513e-02	4.01865708e-04
1.22500000e-01	1.93805618e-02	3.94405900e-04
1.23000000e-01	1.98025898e-02	3.98548803e-04
1.23500000e-01	1.94537570e-02	3.91829418e-04
1.24000000e-01	1.98753891e-02	4.00294780e-04
1.24500000e-01	1.95628768e-02	3.91548277e-04
1.25000000e-01	1.93515586e-02	3.87491712e-04
1.25500000e-01	1.95944374e-02	3.91955323e-04
1.26000000e-01	1.95192663e-02	3.92502084e-04
1.26500000e-01	1.95237672e-02	3.88211834e-04
1.27000000e-01	1.96314692e-02	3.90677487e-04
1.27500000e-01	1.96289553e-02	3.89020064e-04
1.28000000e-01	1.92822911e-02	3.81374812e-04
1.28500000e-01	1.94631199e-02	3.85025994e-04
1.29000000e-01	1.92047483e-02	3.79580357e-04
1.29500000e-01	1.91673367e-02	3.78543474e-04
1.30000000e-01	1.99190432e-02	3.90379757e-04
1.30500000e-01	1.97811281e-02	3.86763091e-04
1.31000000e-01	1.93901099e-02	3.79800151e-04
1.31500000e-01	1.91474055e-02	3.74589402e-04
1.32000000e-01	1.94829455e-02	3.79030032e-04
1.32500000e-01	1.95779794e-02	3.79007184e-04
1.33000000e-01	1.92863678e-02	3.73907014e-04
1.33500000e-01	1.96528987e-02	3.78752506e-04
1.34000000e-01	1.94703115e-02	3.76025282e-04
1.34500000e-01	1.97449350e-02	3.78565476e-04
1.35000000e-01	1.94754320e-02	3.73732018e-04
1.35500000e-01	1.96849744e-02	3.76334017e-04
1.36000000e-01	1.95298048e-02	3.73256929e-04
1.36500000e-01	1.97122288e-02	3.77022252e-04
1.37000000e-01	1.95447553e-02	3.70427267e-04
1.37500000e-01	1.91888338e-02	3.64841425e-04
1.38000000e-01	1.96434303e-02	3.74624939e-04
1.38500000e-01	1.93366577e-02	3.69188038e-04
1.39000000e-01	1.96928163e-02	3.76020167e-04
1.39500000e-01	1.98970972e-02	3.76223926e-04
1.40000000e-01	1.98431116e-02	3.75047655e-04
1.40500000e-01	1.91956256e-02	3.63259920e-04
1.41000000e-01	1.96000175e-02	3.68356674e-04
1.41500000e-01	1.95924714e-02	3.69128190e-04
1.42000000e-01	1.94019584e-02	3.63782186e-04
1.42500000e-01	1.95213954e-02	3.66325764e-04
1.43000000e-01	1.97142248e-02	3.69791248e-04
1.43500000e-01	1.93861825e-02	3.63718460e-04
1.44000000e-01	1.93127581e-02	3.61108546e-04
1.44500000e-01	1.94830099e-02	3.60514620e-04
1.45000000e-01	1.92940122e-02	3.60269917e-04
1.45500000e-01	1.93091603e-02	3.59330896e-04
1.46000000e-01	1.94464769e-02	3.58925969e-04
1.46500000e-01	1.95453634e-02	3.61570579e-04
1.47000000e-01	1.95122603e-02	3.59633392e-04
1.47500000e-01	1.94428609e-02	3.58623557e-04
1.48000000e-01	1.93159451e-02	3.56465340e-04
1.48500000e-01	1.94219441e-02	3.57901235e-04
1.49000000e-01	1.89788266e-02	3.48889662e-04
1.49500000e-01	1.95978127e-02	3.58964474e-04
1.50000000e-01	1.94023028e-02	3.53696247e-04
1.50500000e-01	1.93160615e-02	3.54722106e-04
1.51000000e-01	1.90475228e-02	3.49217386e-04
1.51500000e-01	1.95935741e-02	3.54590196e-04
1.52000000e-01	1.94298040e-02	3.51647459e-04
1.52500000e-01	1.93366259e-02	3.52712139e-04
1.53000000e-01	1.93332877e-02	3.50618687e-04
1.53500000e-01	1.92139929e-02	3.47589430e-04
1.54000000e-01	1.92326205e-02	3.48110127e-04
1.54500000e-01	1.94972242e-02	3.59269091e-04
1.55000000e-01	1.92581211e-02	3.58343135e-04
1.55500000e-01	1.93693365e-02	3.64242410e-04
1.56000000e-01	1.92240667e-02	3.62113386e-04
1.56500000e-01	1.90921466e-02	3.58930821e-04
1.57000000e-01	1.92877717e-02	3.63251534e-04
1.57500000e-01	1.91335108e-02	3.53703925e-04
1.58000000e-01	1.90640532e-02	3.45973838e-04
1.58500000e-01	1.90351139e-02	3.45561958e-04
1.59000000e-01	1.92103431e-02	3.46202805e-04
1.59500000e-01	1.89233143e-02	3.41303636e-04
1.60000000e-01	1.89642340e-02	3.40660508e-04
1.60500000e-01	1.92752487e-02	3.43498339e-04
1.61000000e-01	1.90727096e-02	3.40927342e-04
1.61500000e-01	1.90790047e-02	3.40311781e-04
1.62000000e-01	1.89761811e-02	3.37802624e-04
1.62500000e-01	1.87765716e-02	3.33354479e-04
1.63000000e-01	1.93665132e-02	3.41488307e-04
1.63500000e-01	1.90106469e-02	3.37638355e-04
1.64000000e-01	1.88312495e-02	3.32336312e-04
1.64500000e-01	1.91081971e-02	3.39948057e-04
1.65000000e-01	1.91875056e-02	3.38591081e-04
1.65500000e-01	1.90817881e-02	3.35721388e-04
1.66000000e-01	1.89464562e-02	3.32710088e-04
1.66500000e-01	1.90280305e-02	3.34270993e-04
1.67000000e-01	1.89807736e-02	3.33691819e-04
1.67500000e-01	1.90114895e-02	3.33457921e-04
1.68000000e-01	1.93847024e-02	3.39005920e-04
1.68500000e-01	1.89652040e-02	3.30084563e-04
1.69000000e-01	1.87835477e-02	3.27696035e-04
1.69500000e-01	1.87074036e-02	3.24350623e-04
1.70000000e-01	1.90369318e-02	3.31348856e-04
1.70500000e-01	1.89964504e-02	3.27886236e-04
1.71000000e-01	1.88080156e-02	3.25202883e-04
1.71500000e-01	1.91351878e-02	3.31517879e-04
1.72000000e-01	1.89863540e-02	3.27064487e-04
1.72500000e-01	1.88770861e-02	3.25000667e-04
1.73000000e-01	1.84865947e-02	3.18165068e-04
1.73500000e-01	1.89303833e-02	3.23872509e-04
1.74000000e-01	1.88016135e-02	3.20939932e-04
1.74500000e-01	1.87215506e-02	3.18528152e-04
1.75000000e-01	1.90363563e-02	3.23806882e-04
1.75500000e-01	1.88561961e-02	3.20378150e-04
1.76000000e-01	1.87210600e-02	3.16971453e-04
1.76500000e-01	1.86150163e-02	3.16976926e-04
1.77000000e-01	1.86402917e-02	3.16533197e-04
1.77500000e-01	1.87956424e-02	3.18109144e-04
1.78000000e-01	1.86482153e-02	3.14710949e-04
1.78500000e-01	1.87146713e-02	3.16102302e-04
1.79000000e-01	1.87441632e-02	3.15552559e-04
1.79500000e-01	1.88007977e-02	3.18292869e-04
1.80000000e-01	1.88895212e-02	3.18393883e-04
1.80500000e-01	1.86048533e-02	3.13116123e-04
1.81000000e-01	1.87084962e-02	3.15128086e-04
1.81500000e-01	1.86976818e-02	3.12284757e-04
1.82000000e-01	1.81528861e-02	3.04358314e-04
1.82500000e-01	1.85069680e-02	3.09306312e-04
1.83000000e-01	1.84740190e-02	3.11081740e-04
1.83500000e-01	1.85556981e-02	3.10564232e-04
1.84000000e-01	1.83079289e-02	3.06023346e-04
1.84500000e-01	1.85964885e-02	3.08910888e-04
1.85000000e-01	1.85607953e-02	3.08725568e-04
1.85500000e-01	1.84667981e-02	3.06659040e-04
1.86000000e-01	1.86392014e-02	3.10384509e-04
1.86500000e-01	1.84107764e-02	3.06211879e-04
1.87000000e-01	1.84357634e-02	3.05289659e-04
1.87500000e-01	1.85002595e-02	3.04973954e-04
1.88000000e-01	1.86579725e-02	3.07610810e-04
1.88500000e-01	1.86367293e-02	3.06427038e-04
1.89000000e-01	1.85072037e-02	3.05169300e-04
1.89500000e-01	1.83455204e-02	3.02984298e-04
1.90000000e-01	1.85635771e-02	3.04545153e-04
1.90500000e-01	1.85844569e-02	3.05341906e-04
1.91000000e-01	1.83649140e-02	3.00729438e-04
1.91500000e-01	1.85454625e-02	3.03861015e-04
1.92000000e-01	1.83607404e-02	2.99485668e-04
1.92500000e-01	1.84424146e-02	3.02236061e-04
1.93000000e-01	1.83436878e-02	2.98607269e-04
1.93500000e-01	1.85028042e-02	3.02269510e-04
1.94000000e-01	1.82971349e-02	2.98376443e-04
1.94500000e-01	1.86416988e-02	3.02256076e-04
1.95000000e-01	1.82457193e-02	2.96322887e-04
1.95500000e-01	1.85181840e-02	2.98806087e-04
1.96000000e-01	1.85676192e-02	2.99801511e-04
1.96500000e-01	1.81481548e-02	2.94632822e-04
1.97000000e-01	1.82382311e-02	2.93980014e-04
1.97500000e-01	1.84041248e-02	2.96097987e-04
1.98000000e-01	1.80585434e-02	2.91216707e-04
1.98500000e-01	1.84682444e-02	2.97176863e-04
1.99000000e-01	1.82838566e-02	2.93390166e-04
1.99500000e-01	1.82301398e-02	2.91832243e-04
2.00000000e-01	1.81109614e-02	2.90279568e-04
2.00500000e-01	1.80286327e-02	2.88695124e-04
2.01000000e-01	1.81658920e-02	2.89691711e-04
2.01500000e-01	1.81472468e-02	2.88468282e-04
2.02000000e-01	1.82934503e-02	2.91956918e-04
2.02500000e-01	1.84986122e-02	2.93314935e-04
2.03000000e-01	1.83988328e-02	2.92619862e-04
2.03500000e-01	1.83801444e-02	2.91821133e-04
2.04000000e-01	1.81913839e-02	2.89284763e-04
2.04500000e-01	1.79716607e-02	2.85745412e-04
2.05000000e-01	1.83235560e-02	2.90439571e-04
2.05500000e-01	1.79877183e-02	2.86845257e-04
2.06000000e-01	1.80793222e-02	2.85980492e-04
2.06500000e-01	1.80838677e-02	2.86063960e-04
2.07000000e-01	1.77968002e-02	2.80335399e-04
2.07500000e-01	1.81925595e-02	2.86892621e-04
2.08000000e-01	1.82447657e-02	2.87056996e-04
2.08500000e-01	1.80470800e-02	2.83916647e-04
2.09000000e-01	1.82518472e-02	2.86919467e-04
2.09500000e-01	1.81520871e-02	2.84769728e-04
2.10000000e-01	1.79134273e-02	2.83337469e-04
2.10500000e-01	1.80785814e-02	2.84113570e-04
2.11000000e-01	1.80382539e-02	2.81244582e-04
2.11500000e-01	1.79688633e-02	2.80917916e-04
2.12000000e-01	1.83848089e-02	2.85342546e-04
2.12500000e-01	1.80323069e-02	2.80975429e-04
2.13000000e-01	1.82027148e-02	2.82822833e-04
2.13500000e-01	1.80115891e-02	2.79622327e-04
2.14000000e-01	1.81055123e-02	2.81061076e-04
2.14500000e-01	1.81122230e-02	2.79796436e-04
2.15000000e-01	1.79990178e-02	2.79477914e-04
2.15500000e-01	1.79693773e-02	2.76893105e-04
2.16000000e-01	1.82148461e-02	2.81145103e-04
2.16500000e-01	1.81955450e-02	2.80353171e-04
2.17000000e-01	1.81130133e-02	2.82679745e-04
2.17500000e-01	1.79493421e-02	2.85535715e-04
2.18000000e-01	1.78718728e-02	2.85017146e-04
2.18500000e-01	1.80679926e-02	2.89988768e-04
2.19000000e-01	1.80408534e-02	2.90388943e-04
2.19500000e-01	1.82636106e-02	2.93881984e-04
2.20000000e-01	1.80196364e-02	2.92260290e-04
2.20500000e-01	1.78475250e-02	2.90946845e-04
2.21000000e-01	1.80258653e-02	2.92932771e-04
2.21500000e-01	1.81587515e-02	2.98299192e-04
2.22000000e-01	1.80059285e-02	2.95023545e-04
2.22500000e-01	1.80968917e-02	2.96565778e-04
2.23000000e-01	1.80068389e-02	2.95545329e-04
2.23500000e-01	1.77143932e-02	2.93262324e-04
2.24000000e-01	1.77326035e-02	2.93914192e-04
2.24500000e-01	1.78555091e-02	2.96018861e-04
2.25000000e-01	1.77815939e-02	2.95646839e-04
2.25500000e-01	1.77624409e-02	2.94812632e-04
2.26000000e-01	1.78465271e-02	2.97510006e-04
2.26500000e-01	1.81228574e-02	2.98040548e-04
2.27000000e-01	1.77860232e-02	2.90625772e-04
2.27500000e-01	1.77968891e-02	2.87514096e-04
2.28000000e-01	1.79790044e-02	2.88326492e-04
2.28500000e-01	1.76211695e-02	2.82269893e-04
2.29000000e-01	1.79132692e-02	2.86477751e-04
2.29500000e-01	1.78505745e-02	2.82781344e-04
2.30000000e-01	1.78858803e-02	2.82555524e-04
2.30500000e-01	1.78965092e-02	2.82376171e-04
2.31000000e-01	1.76572199e-02	2.77223986e-04
2.31500000e-01	1.77084700e-02	2.77591519e-04
2.32000000e-01	1.81646795e-02	2.84433364e-04
2.32500000e-01	1.77452295e-02	2.77735073e-04
2.33000000e-01	1.79094258e-02	2.78967763e-04
2.33500000e-01	1.76433526e-02	2.74462558e-04
2.34000000e-01	1.80170805e-02	2.78520367e-04
2.34500000e-01	1.80330851e-02	2.77492525e-04
2.35000000e-01	1.77287103e-02	2.75566972e-04
2.35500000e-01	1.78178095e-02	2.73828897e-04
2.36000000e-01	1.75677962e-02	2.71902146e-04
2.36500000e-01	1.77414913e-02	2.72922886e-04
2.37000000e-01	1.75724637e-02	2.69570496e-04
2.37500000e-01	1.78304251e-02	2.72815168e-04
2.38000000e-01	1.78342214e-02	2.71356781e-04
2.38500000e-01	1.76369182e-02	2.69818265e-04
2.39000000e-01	1.77502012e-02	2.69997200e-04
2.39500000e-01	1.76324639e-02	2.68733601e-04
2.40000000e-01	1.79128285e-02	2.70440156e-04
2.40500000e-01	1.75981555e-02	2.67547116e-04
2.41000000e-01	1.78106872e-02	2.69872405e-04
2.41500000e-01	1.76616907e-02	2.66332095e-04
2.42000000e-01	1.74180930e-02	2.63406957e-04
2.42500000e-01	1.77484355e-02	2.66992818e-04
2.43000000e-01	1.76676855e-02	2.66017020e-04
2.43500000e-01	1.79965036e-02	2.69689490e-04
2.44000000e-01	1.76967241e-02	2.64803712e-04
2.44500000e-01	1.75946782e-02	2.63320909e-04
2.45000000e-01	1.75678172e-02	2.62054962e-04
2.45500000e-01	1.77131142e-02	2.65386353e-04
2.46000000e-01	1.75573560e-02	2.62238145e-04
2.46500000e-01	1.77425461e-02	2.64304324e-04
2.47000000e-01	1.74535756e-02	2.60057016e-04
2.47500000e-01	1.75791458e-02	2.60737507e-04
2.48000000e-01	1.76632078e-02	2.61401849e-04
2.48500000e-01	1.74276839e-02	2.58182789e-04
2.49000000e-01	1.77651011e-02	2.63014052e-04
2.49500000e-01	1.73860798e-02	2.58673258e-04
2.50000000e-01	1.74442451e-02	2.58323217e-04
2.50500000e-01	1.74981227e-02	2.59740032e-04
2.51000000e-01	1.73187189e-02	2.56339384e-04
2.51500000e-01	1.72333641e-02	2.54229531e-04
2.52000000e-01	1.73370651e-02	2.55281790e-04
2.52500000e-01	1.73600861e-02	2.55652471e-04
2.53000000e-01	1.73696555e-02	2.56391284e-04
2.53500000e-01	1.74456430e-02	2.56217324e-04
2.54000000e-01	1.73197669e-02	2.54987520e-04
2.54500000e-01	1.71743766e-02	2.52456708e-04
2.55000000e-01	1.73230401e-02	2.54508350e-04
2.55500000e-01	1.73492330e-02	2.54592540e-04
2.56000000e-01	1.73334921e-02	2.52564534e-04
2.56500000e-01	1.71550693e-02	2.50143590e-04
2.57000000e-01	1.73861535e-02	2.53249746e-04
2.57500000e-01	1.75368247e-02	2.54936127e-04
2.58000000e-01	1.73878785e-02	2.52984292e-04
2.58500000e-01	1.75438573e-02	2.54666622e-04
2.59000000e-01	1.74076331e-02	2.52749524e-04
2.59500000e-01	1.73932903e-02	2.51384779e-04
2.60000000e-01	1.72387504e-02	2.49041325e-04
2.60500000e-01	1.71764749e-02	2.48744512e-04
2.61000000e-01	1.71774939e-02	2.48045704e-04
2.61500000e-01	1.72064325e-02	2.48947719e-04
2.62000000e-01	1.72399058e-02	2.47582225e-04
2.62500000e-01	1.73114410e-02	2.50583674e-04
2.63000000e-01	1.71526550e-02	2.46835544e-04
2.63500000e-01	1.71524206e-02	2.47325551e-04
2.64000000e-01	1.72216442e-02	2.46922178e-04
2.64500000e-01	1.72215914e-02	2.47396474e-04
2.65000000e-01	1.72894858e-02	2.48213884e-04
2.65500000e-01	1.71457891e-02	2.45795153e-04
2.66000000e-01	1.71835806e-02	2.45505645e-04
2.66500000e-01	1.73087999e-02	2.46294670e-04
2.67000000e-01	1.70834184e-02	2.44066842e-04
2.67500000e-01	1.73376093e-02	2.46807305e-04
2.68000000e-01	1.74617928e-02	2.47811822e-04
2.68500000e-01	1.69397650e-02	2.41126059e-04
2.69000000e-01	1.72282109e-02	2.44279924e-04
2.69500000e-01	1.71872146e-02	2.42279445e-04
2.70000000e-01	1.72446185e-02	2.44507693e-04
2.70500000e-01	1.72989491e-02	2.44426417e-04
2.71000000e-01	1.69310350e-02	2.39254837e-04
2.71500000e-01	1.71396406e-02	2.42204228e-04
2.72000000e-01	1.71018886e-02	2.41549343e-04
2.72500000e-01	1.70636427e-02	2.40969025e-04
2.73000000e-01	1.71801024e-02	2.41392300e-04
2.73500000e-01	1.71014937e-02	2.41179107e-04
2.74000000e-01	1.72345507e-02	2.42314804e-04
2.74500000e-01	1.72105086e-02	2.41566379e-04
2.75000000e-01	1.70230348e-02	2.39036359e-04
2.75500000e-01	1.72905128e-02	2.42368286e-04
2.76000000e-01	1.70195304e-02	2.38553915e-04
2.76500000e-01	1.70431479e-02	2.38762144e-04
2.77000000e-01	1.70992999e-02	2.39095570e-04
2.77500000e-01	1.69653907e-02	2.37834503e-04
2.78000000e-01	1.73037811e-02	2.40982941e-04
2.78500000e-01	1.72284359e-02	2.41277193e-04
2.79000000e-01	1.71646872e-02	2.38474625e-04
2.79500000e-01	1.69547879e-02	2.36183950e-04
2.80000000e-01	1.71546131e-02	2.37960054e-04
2.80500000e-01	1.68463062e-02	2.34287180e-04
2.81000000e-01	1.71155292e-02	2.38186505e-04
2.81500000e-01	1.69753868e-02	2.36168186e-04
2.82000000e-01	1.69861751e-02	2.36155407e-04
2.82500000e-01	1.68695099e-02	2.34829280e-04
2.83000000e-01	1.69980832e-02	2.35521617e-04
2.83500000e-01	1.69670471e-02	2.34208557e-04
2.84000000e-01	1.68714899e-02	2.33256994e-04
2.84500000e-01	1.69297527e-02	2.34549939e-04
2.85000000e-01	1.69080260e-02	2.33417273e-04
2.85500000e-01	1.70192090e-02	2.34131975e-04
2.86000000e-01	1.67727532e-02	2.31627831e-04
2.86500000e-01	1.69351778e-02	2.32951061e-04
2.87000000e-01	1.70704781e-02	2.34448285e-04
2.87500000e-01	1.69843751e-02	2.32630808e-04
2.88000000e-01	1.71941061e-02	2.34773715e-04
2.88500000e-01	1.69290583e-02	2.31886134e-04
2.89000000e-01	1.69360524e-02	2.32182301e-04
2.89500000e-01	1.70701513e-02	2.32991979e-04
2.90000000e-01	1.69539756e-02	2.30806017e-04
2.90500000e-01	1.69584958e-02	2.31106614e-04
2.91000000e-01	1.68444254e-02	2.28967734e-04
2.91500000e-01	1.70872371e-02	2.31240578e-04
2.92000000e-01	1.68901907e-02	2.29253676e-04
2.92500000e-01	1.65782794e-02	2.25355356e-04
2.93000000e-01	1.67974635e-02	2.29036173e-04
2.93500000e-01	1.68230556e-02	2.27987699e-04
2.94000000e-01	1.69126563e-02	2.28788507e-04
2.94500000e-01	1.70646018e-02	2.30612271e-04
2.95000000e-01	1.68282748e-02	2.27870557e-04
2.95500000e-01	1.66690810e-02	2.26336008e-04
2.96000000e-01	1.68859249e-02	2.27423883e-04
2.96500000e-01	1.66931255e-02	2.25870208e-04
2.97000000e-01	1.66829109e-02	2.25804425e-04
2.97500000e-01	1.67463534e-02	2.25985864e-04
2.98000000e-01	1.67860421e-02	2.26314729e-04
2.98500000e-01	1.68208757e-02	2.26783721e-04
2.99000000e-01	1.70328986e-02	2.28423531e-04
2.99500000e-01	1.68262285e-02	2.26606579e-04
3.00000000e-01	1.68510797e-02	2.26439182e-04
3.00500000e-01	1.68980180e-02	2.28054569e-04
3.01000000e-01	1.68767191e-02	2.25022196e-04
3.01500000e-01	1.67823185e-02	2.24769998e-04
3.02000000e-01	1.66735449e-02	2.24427091e-04
3.02500000e-01	1.66489001e-02	2.22544630e-04
3.03000000e-01	1.67316041e-02	2.23778961e-04
3.03500000e-01	1.67643990e-02	2.23871657e-04
3.04000000e-01	1.68222296e-02	2.23846991e-04
3.04500000e-01	1.67603052e-02	2.23564430e-04
3.05000000e-01	1.65017268e-02	2.20065227e-04
3.05500000e-01	1.66235395e-02	2.22100084e-04
3.06000000e-01	1.65949859e-02	2.19909645e-04
3.06500000e-01	1.65672392e-02	2.20718688e-04
3.07000000e-01	1.66363839e-02	2.20600008e-04
3.07500000e-01	1.64792933e-02	2.18026783e-04
3.08000000e-01	1.65287541e-02	2.19687254e-04
3.08500000e-01	1.67130531e-02	2.20406972e-04
3.09000000e-01	1.66935907e-02	2.21391804e-04
3.09500000e-01	1.65351728e-02	2.17749090e-04
3.10000000e-01	1.66720757e-02	2.20424983e-04
3.10500000e-01	1.64182319e-02	2.16445891e-04
3.11000000e-01	1.63193734e-02	2.15530683e-04
3.11500000e-01	1.67146712e-02	2.19704040e-04
3.12000000e-01	1.64501603e-02	2.16634676e-04
3.12500000e-01	1.66242897e-02	2.18262413e-04
3.13000000e-01	1.64823703e-02	2.16951882e-04
3.13500000e-01	1.63633804e-02	2.15207068e-04
3.14000000e-01	1.63274705e-02	2.14347846e-04
3.14500000e-01	1.64540704e-02	2.15650899e-04
3.15000000e-01	1.65077408e-02	2.16087865e-04
3.15500000e-01	1.64595848e-02	2.15747724e-04
3.16000000e-01	1.63056846e-02	2.14287955e-04
3.16500000e-01	1.64094495e-02	2.14499968e-04
3.17000000e-01	1.64995174e-02	2.15691094e-04
3.17500000e-01	1.64043027e-02	2.14833769e-04
3.18000000e-01	1.65066368e-02	2.16001231e-04
3.18500000e-01	1.64581556e-02	2.14423024e-04
3.19000000e-01	1.65449049e-02	2.14861615e-04
3.19500000e-01	1.64794075e-02	2.14779872e-04
3.20000000e-01	1.63683296e-02	2.13496751e-04
3.20500000e-01	1.63349445e-02	2.13016315e-04
3.21000000e-01	1.64534250e-02	2.13896730e-04
3.21500000e-01	1.62787749e-02	2.11922867e-04
3.22000000e-01	1.63198209e-02	2.12298089e-04
3.22500000e-01	1.61959795e-02	2.10731372e-04
3.23000000e-01	1.64948937e-02	2.13954196e-04
3.23500000e-01	1.62432139e-02	2.10781171e-04
3.24000000e-01	1.60667685e-02	2.08586320e-04
3.24500000e-01	1.62763870e-02	2.10693425e-04
3.25000000e-01	1.60314615e-02	2.08313341e-04
3.25500000e-01	1.62408398e-02	2.09818503e-04
3.26000000e-01	1.64087826e-02	2.11472475e-04
3.26500000e-01	1.61264153e-02	2.08007058e-04
3.27000000e-01	1.64775417e-02	2.12331936e-04
3.27500000e-01	1.62970871e-02	2.09143198e-04
3.28000000e-01	1.60197656e-02	2.06836253e-04
3.28500000e-01	1.60499248e-02	2.06650338e-04
3.29000000e-01	1.62279084e-02	2.07547214e-04
3.29500000e-01	1.61486331e-02	2.08375410e-04
3.30000000e-01	1.62216435e-02	2.09217620e-04
3.30500000e-01	1.61817200e-02	2.08040968e-04
3.31000000e-01	1.61875934e-02	2.07082004e-04
3.31500000e-01	1.62233319e-02	2.07354892e-04
3.32000000e-01	1.62085844e-02	2.07643453e-04
3.32500000e-01	1.61929454e-02	2.07488335e-04
3.33000000e-01	1.62143750e-02	2.06869264e-04
3.33500000e-01	1.60256480e-02	2.04459632e-04
3.34000000e-01	1.61630448e-02	2.06116110e-04
3.34500000e-01	1.61278626e-02	2.06323423e-04
3.35000000e-01	1.62874604e-02	2.06494557e-04
3.35500000e-01	1.60397435e-02	2.05072896e-04
3.36000000e-01	1.62628006e-02	2.06713001e-04
3.36500000e-01	1.62382793e-02	2.06244155e-04
3.37000000e-01	1.58109129e-02	2.00583214e-04
3.37500000e-01	1.60523842e-02	2.03545038e-04
3.38000000e-01	1.61364595e-02	2.04922512e-04
3.38500000e-01	1.59326473e-02	2.02163308e-04
3.39000000e-01	1.60085004e-02	2.03437222e-04
3.39500000e-01	1.60436722e-02	2.02369512e-04
3.40000000e-01	1.61583635e-02	2.04904905e-04
3.40500000e-01	1.61212655e-02	2.03547943e-04
3.41000000e-01	1.60338601e-02	2.02037689e-04
3.41500000e-01	1.58700195e-02	2.00954964e-04
3.42000000e-01	1.61987910e-02	2.04278472e-04
3.42500000e-01	1.60056290e-02	2.02074742e-04
3.43000000e-01	1.60596519e-02	2.02216041e-04
3.43500000e-01	1.60791725e-02	2.02504087e-04
3.44000000e-01	1.62353443e-02	2.03893727e-04
3.44500000e-01	1.58470348e-02	1.99285448e-04
3.45000000e-01	1.60665637e-02	2.01709216e-04
3.45500000e-01	1.58946606e-02	1.99526005e-04
3.46000000e-01	1.58487468e-02	1.99336558e-04
3.46500000e-01	1.59537476e-02	2.00243083e-04
3.47000000e-01	1.58715663e-02	1.98676223e-04
3.47500000e-01	1.60657811e-02	2.01044241e-04
3.48000000e-01	1.58599779e-02	1.98492959e-04
3.48500000e-01	1.58802892e-02	1.98529225e-04
3.49000000e-01	1.60484693e-02	1.99702812e-04
3.49500000e-01	1.60216626e-02	2.00172268e-04
3.50000000e-01	1.57924922e-02	1.60631705e-04
3.51000000e-01	1.57812034e-02	1.39528588e-04
3.52000000e-01	1.58623841e-02	1.39767931e-04
3.53000000e-01	1.58375066e-02	1.39072626e-04
3.54000000e-01	1.58721978e-02	1.39195642e-04
3.55000000e-01	1.57459027e-02	1.37986862e-04
3.56000000e-01	1.57355096e-02	1.38522736e-04
3.57000000e-01	1.57272468e-02	1.40838497e-04
3.58000000e-01	1.56447964e-02	1.41418496e-04
3.59000000e-01	1.56463700e-02	1.42283906e-04
3.60000000e-01	1.56619615e-02	1.43429985e-04
3.61000000e-01	1.55800032e-02	1.43590147e-04
3.62000000e-01	1.56872237e-02	1.44906921e-04
3.63000000e-01	1.56944256e-02	1.45773681e-04
3.64000000e-01	1.55101538e-02	1.45103789e-04
3.65000000e-01	1.55653482e-02	1.45426496e-04
3.66000000e-01	1.57012022e-02	1.44792989e-04
3.67000000e-01	1.56533548e-02	1.42501782e-04
3.68000000e-01	1.56088542e-02	1.40685124e-04
3.69000000e-01	1.55260421e-02	1.39607617e-04
3.70000000e-01	1.55687960e-02	1.39289773e-04
3.71000000e-01	1.55247770e-02	1.40827514e-04
3.72000000e-01	1.57059958e-02	1.43720815e-04
3.73000000e-01	1.55341574e-02	1.41811776e-04
3.74000000e-01	1.55531584e-02	1.42135164e-04
3.75000000e-01	1.54657965e-02	1.41938762e-04
3.76000000e-01	1.55018141e-02	1.42085557e-04
3.77000000e-01	1.54187797e-02	1.41550736e-04
3.78000000e-01	1.54738027e-02	1.41585583e-04
3.79000000e-01	1.53472786e-02	1.40969997e-04
3.80000000e-01	1.53000767e-02	1.40214272e-04
3.81000000e-01	1.53847614e-02	1.40999812e-04
3.82000000e-01	1.53663010e-02	1.40324428e-04
3.83000000e-01	1.54276704e-02	1.41128545e-04
3.84000000e-01	1.53710307e-02	1.40664689e-04
3.85000000e-01	1.54650130e-02	1.41270692e-04
3.86000000e-01	1.53503122e-02	1.40172442e-04
3.87000000e-01	1.53624938e-02	1.39952132e-04
3.88000000e-01	1.53686798e-02	1.40436936e-04
3.89000000e-01	1.52839668e-02	1.39583900e-04
3.90000000e-01	1.52065447e-02	1.38838494e-04
3.91000000e-01	1.51636781e-02	1.38366623e-04
3.92000000e-01	1.53740623e-02	1.39742622e-04
3.93000000e-01	1.51943370e-02	1.38833461e-04
3.94000000e-01	1.50563481e-02	1.37508980e-04
3.95000000e-01	1.52016224e-02	1.38898322e-04
3.96000000e-01	1.51761357e-02	1.38687702e-04
3.97000000e-01	1.52723411e-02	1.39045858e-04
3.98000000e-01	1.51967624e-02	1.38561814e-04
3.99000000e-01	1.51797209e-02	1.38449344e-04
4.00000000e-01	1.51085470e-02	1.38191649e-04
4.01000000e-01	1.50073169e-02	1.36906985e-04
4.02000000e-01	1.50071121e-02	1.36797541e-04
4.03000000e-01	1.50202943e-02	1.36944284e-04
4.04000000e-01	1.51807865e-02	1.37890344e-04
4.05000000e-01	1.50314323e-02	1.37191652e-04
4.06000000e-01	1.50611495e-02	1.37461725e-04
4.07000000e-01	1.51177213e-02	1.37658326e-04
4.08000000e-01	1.49964060e-02	1.36546136e-04
4.09000000e-01	1.49496487e-02	1.36259042e-04
4.10000000e-01	1.49958758e-02	1.36409711e-04
4.11000000e-01	1.49924669e-02	1.36796523e-04
4.12000000e-01	1.49595057e-02	1.36435660e-04
4.13000000e-01	1.48964173e-02	1.35725629e-04
4.14000000e-01	1.50332871e-02	1.36657038e-04
4.15000000e-01	1.49757319e-02	1.35510934e-04
4.16000000e-01	1.49702811e-02	1.36055363e-04
4.17000000e-01	1.49305275e-02	1.35101827e-04
4.18000000e-01	1.49853775e-02	1.37424976e-04
4.19000000e-01	1.48888566e-02	1.38357276e-04
4.20000000e-01	1.50036309e-02	1.39961954e-04
4.21000000e-01	1.51663124e-02	1.42171912e-04
4.22000000e-01	1.50562575e-02	1.41357463e-04
4.23000000e-01	1.51032924e-02	1.42285363e-04
4.24000000e-01	1.51068286e-02	1.42839834e-04
4.25000000e-01	1.50070772e-02	1.42256796e-04
4.26000000e-01	1.49770792e-02	1.42082759e-04
4.27000000e-01	1.50205269e-02	1.42292885e-04
4.28000000e-01	1.49577907e-02	1.41889676e-04
4.29000000e-01	1.48860909e-02	1.41860662e-04
4.30000000e-01	1.49866184e-02	1.42315354e-04
4.31000000e-01	1.48877483e-02	1.41274857e-04
4.32000000e-01	1.48437367e-02	1.40998658e-04
4.33000000e-01	1.48756406e-02	1.41924593e-04
4.34000000e-01	1.48074113e-02	1.40885129e-04
4.35000000e-01	1.48527369e-02	1.41476123e-04
4.36000000e-01	1.48737861e-02	1.42059879e-04
4.37000000e-01	1.48906190e-02	1.42199453e-04
4.38000000e-01	1.47181254e-02	1.41259043e-04
4.39000000e-01	1.47161579e-02	1.41614020e-04
4.40000000e-01	1.47120828e-02	1.41487710e-04
4.41000000e-01	1.48642389e-02	1.42634259e-04
4.42000000e-01	1.48578892e-02	1.43204318e-04
4.43000000e-01	1.46640791e-02	1.41686135e-04
4.44000000e-01	1.47038279e-02	1.42088972e-04
4.45000000e-01	1.47349150e-02	1.42418742e-04
4.46000000e-01	1.46338641e-02	1.41580156e-04
4.47000000e-01	1.48066067e-02	1.43160397e-04
4.48000000e-01	1.47244056e-02	1.42487584e-04
4.49000000e-01	1.46687841e-02	1.42399702e-04
4.50000000e-01	1.47827579e-02	1.43501030e-04
4.51000000e-01	1.47091865e-02	1.42934884e-04
4.52000000e-01	1.46320612e-02	1.42605494e-04
4.53000000e-01	1.46978545e-02	1.43336957e-04
4.54000000e-01	1.46123235e-02	1.42037269e-04
4.55000000e-01	1.45994041e-02	1.42747610e-04
4.56000000e-01	1.45075007e-02	1.41899998e-04
4.57000000e-01	1.47317370e-02	1.43970226e-04
4.58000000e-01	1.45682457e-02	1.42707472e-04
4.59000000e-01	1.45175966e-02	1.42215342e-04
4.60000000e-01	1.46748084e-02	1.43920132e-04
4.61000000e-01	1.45987968e-02	1.43411660e-04
4.62000000e-01	1.47643113e-02	1.44843864e-04
4.63000000e-01	1.44528935e-02	1.42384908e-04
4.64000000e-01	1.46427310e-02	1.43810269e-04
4.65000000e-01	1.47354294e-02	1.44545201e-04
4.66000000e-01	1.45447535e-02	1.43372228e-04
4.67000000e-01	1.45108978e-02	1.43484754e-04
4.68000000e-01	1.44969127e-02	1.42834021e-04
4.69000000e-01	1.46064267e-02	1.44056533e-04
4.70000000e-01	1.46174402e-02	1.44488996e-04
4.71000000e-01	1.45434657e-02	1.43239111e-04
4.72000000e-01	1.44910319e-02	1.42920497e-04
4.73000000e-01	1.46315949e-02	1.44123303e-04
4.74000000e-01	1.44327155e-02	1.42293884e-04
4.75000000e-01	1.44671921e-02	1.42567465e-04
4.76000000e-01	1.43981095e-02	1.41845685e-04
4.77000000e-01	1.43908138e-02	1.41748640e-04
4.78000000e-01	1.44151697e-02	1.42218925e-04
4.79000000e-01	1.44552247e-02	1.42968791e-04
4.80000000e-01	1.43750015e-02	1.42262456e-04
4.81000000e-01	1.44351992e-02	1.42662304e-04
4.82000000e-01	1.44272772e-02	1.42964739e-04
4.83000000e-01	1.43175554e-02	1.42009083e-04
4.84000000e-01	1.43541992e-02	1.42416200e-04
4.85000000e-01	1.44380759e-02	1.43231115e-04
4.86000000e-01	1.43382587e-02	1.42352211e-04
4.87000000e-01	1.44360468e-02	1.43534262e-04
4.88000000e-01	1.44091534e-02	1.42997092e-04
4.89000000e-01	1.44526758e-02	1.43738820e-04
4.90000000e-01	1.43187500e-02	1.42624912e-04
4.91000000e-01	1.42397913e-02	1.41535935e-04
4.92000000e-01	1.42315422e-02	1.41859944e-04
4.93000000e-01	1.42911579e-02	1.42820844e-04
4.94000000e-01	1.43386038e-02	1.42930195e-04
4.95000000e-01	1.43025494e-02	1.43594171e-04
4.96000000e-01	1.42570465e-02	1.46721935e-04
4.97000000e-01	1.42848346e-02	1.50332619e-04
4.98000000e-01	1.43702395e-02	1.52740532e-04
4.99000000e-01	1.41939972e-02	1.53178911e-04
5.00000000e-01	1.40899022e-02	1.54228943e-04
5.01000000e-01	1.42869347e-02	1.57731502e-04
5.02000000e-01	1.43515237e-02	1.59723822e-04
5.03000000e-01	1.44257832e-02	1.61656794e-04
5.04000000e-01	1.43336179e-02	1.62046221e-04
5.05000000e-01	1.43402260e-02	1.59402296e-04
5.06000000e-01	1.43159235e-02	1.55800623e-04
5.07000000e-01	1.42388070e-02	1.53655622e-04
5.08000000e-01	1.41996910e-02	1.52327153e-04
5.09000000e-01	1.42820487e-02	1.52793316e-04
5.10000000e-01	1.42693455e-02	1.52067018e-04
5.11000000e-01	1.41970640e-02	1.50293653e-04
5.12000000e-01	1.41132864e-02	1.49013919e-04
5.13000000e-01	1.41752821e-02	1.49945402e-04
5.14000000e-01	1.40730333e-02	1.48382657e-04
5.15000000e-01	1.42221223e-02	1.48960657e-04
5.16000000e-01	1.41384810e-02	1.48381690e-04
5.17000000e-01	1.41614760e-02	1.48623133e-04
5.18000000e-01	1.41331080e-02	1.48228906e-04
5.19000000e-01	1.40782490e-02	1.47017509e-04
5.20000000e-01	1.41089388e-02	1.46843941e-04
5.21000000e-01	1.42103429e-02	1.48124104e-04
5.22000000e-01	1.40846809e-02	1.46480066e-04
5.23000000e-01	1.40270822e-02	1.45748498e-04
5.24000000e-01	1.40233849e-02	1.45964426e-04
5.25000000e-01	1.39820510e-02	1.45186326e-04
5.26000000e-01	1.39384576e-02	1.44742483e-04
5.27000000e-01	1.39607579e-02	1.45127879e-04
5.28000000e-01	1.40175155e-02	1.46061915e-04
5.29000000e-01	1.38913753e-02	1.44602030e-04
5.30000000e-01	1.39514954e-02	1.45336683e-04
5.31000000e-01	1.39433818e-02	1.45730487e-04
5.32000000e-01	1.40016545e-02	1.45269688e-04
5.33000000e-01	1.40706141e-02	1.46125047e-04
5.34000000e-01	1.40159152e-02	1.45523245e-04
5.35000000e-01	1.39122949e-02	1.45312860e-04
5.36000000e-01	1.39030500e-02	1.44499468e-04
5.37000000e-01	1.38186781e-02	1.43810726e-04
5.38000000e-01	1.39915975e-02	1.45010504e-04
5.39000000e-01	1.39131403e-02	1.44464637e-04
5.40000000e-01	1.37910918e-02	1.43567392e-04
5.41000000e-01	1.38556611e-02	1.43926220e-04
5.42000000e-01	1.38844523e-02	1.44938829e-04
5.43000000e-01	1.37882487e-02	1.43530651e-04
5.44000000e-01	1.37399617e-02	1.42500180e-04
5.45000000e-01	1.38644851e-02	1.43940998e-04
5.46000000e-01	1.37687307e-02	1.43156841e-04
5.47000000e-01	1.38009272e-02	1.43501631e-04
5.48000000e-01	1.37534101e-02	1.43417471e-04
5.49000000e-01	1.36888592e-02	1.42010060e-04
5.50000000e-01	1.37003162e-02	1.42414270e-04
5.51000000e-01	1.37238830e-02	1.42389437e-04
5.52000000e-01	1.38773277e-02	1.43807129e-04
5.53000000e-01	1.37348649e-02	1.42298506e-04
5.54000000e-01	1.37025204e-02	1.41953028e-04
5.55000000e-01	1.36483537e-02	1.41695337e-04
5.56000000e-01	1.36104640e-02	1.40738520e-04
5.57000000e-01	1.37187042e-02	1.41657966e-04
5.58000000e-01	1.37111404e-02	1.41300691e-04
5.59000000e-01	1.37876492e-02	1.42415994e-04
5.60000000e-01	1.37231913e-02	1.42161894e-04
5.61000000e-01	1.37218554e-02	1.41437260e-04
5.62000000e-01	1.34856052e-02	1.39558925e-04
5.63000000e-01	1.35979824e-02	1.40932375e-04
5.64000000e-01	1.36941529e-02	1.41446539e-04
5.65000000e-01	1.35951600e-02	1.40649185e-04
5.66000000e-01	1.35166614e-02	1.39884350e-04
5.67000000e-01	1.35444717e-02	1.40355861e-04
5.68000000e-01	1.35040702e-02	1.40060489e-04
5.69000000e-01	1.35071036e-02	1.39851923e-04
5.70000000e-01	1.35944568e-02	1.40338586e-04
5.71000000e-01	1.36752993e-02	1.41698467e-04
5.72000000e-01	1.33885358e-02	1.38981981e-04
5.73000000e-01	1.36311210e-02	1.40796806e-04
5.74000000e-01	1.35638844e-02	1.40401813e-04
5.75000000e-01	1.34588520e-02	1.39879031e-04
5.76000000e-01	1.33906967e-02	1.38963301e-04
5.77000000e-01	1.35036352e-02	1.39740636e-04
5.78000000e-01	1.34273113e-02	1.39360382e-04
5.79000000e-01	1.34756652e-02	1.39873681e-04
5.80000000e-01	1.34566182e-02	1.39179984e-04
5.81000000e-01	1.34094092e-02	1.38769283e-04
5.82000000e-01	1.33620265e-02	1.38597392e-04
5.83000000e-01	1.34376373e-02	1.39793220e-04
5.84000000e-01	1.33199449e-02	1.38047998e-04
5.85000000e-01	1.33720072e-02	1.39040980e-04
5.86000000e-01	1.32759321e-02	1.37973462e-04
5.87000000e-01	1.33230943e-02	1.38468231e-04
5.88000000e-01	1.33751008e-02	1.39117138e-04
5.89000000e-01	1.32854328e-02	1.38716269e-04
5.90000000e-01	1.33514224e-02	1.38708732e-04
5.91000000e-01	1.33810256e-02	1.39251374e-04
5.92000000e-01	1.32796107e-02	1.38076320e-04
5.93000000e-01	1.32233550e-02	1.37745577e-04
5.94000000e-01	1.32480992e-02	1.37616946e-04
5.95000000e-01	1.32730442e-02	1.37951731e-04
5.96000000e-01	1.34384636e-02	1.39871268e-04
5.97000000e-01	1.34040887e-02	1.39369660e-04
5.98000000e-01	1.31929044e-02	1.37665194e-04
5.99000000e-01	1.33136343e-02	1.38770049e-04
6.00000000e-01	1.31002871e-02	1.36386666e-04
6.01000000e-01	1.31218368e-02	1.37067625e-04
6.02000000e-01	1.32502543e-02	1.38355580e-04
6.03000000e-01	1.33288317e-02	1.39411394e-04
6.04000000e-01	1.33224932e-02	1.39101913e-04
6.05000000e-01	1.32025461e-02	1.37330179e-04
6.06000000e-01	1.32786092e-02	1.38536718e-04
6.07000000e-01	1.31640717e-02	1.37453643e-04
6.08000000e-01	1.31446538e-02	1.36786361e-04
6.09000000e-01	1.31898451e-02	1.37499302e-04
6.10000000e-01	1.30571787e-02	1.36785277e-04
6.11000000e-01	1.31655601e-02	1.37891914e-04
6.12000000e-01	1.30931857e-02	1.37449426e-04
6.13000000e-01	1.30246559e-02	1.36629176e-04
6.14000000e-01	1.31844751e-02	1.37418859e-04
6.15000000e-01	1.32006744e-02	1.38060835e-04
6.16000000e-01	1.31764284e-02	1.37685627e-04
6.17000000e-01	1.30234493e-02	1.35868453e-04
6.18000000e-01	1.32115667e-02	1.37880102e-04
6.19000000e-01	1.31694058e-02	1.36962642e-04
6.20000000e-01	1.30841883e-02	1.36358270e-04
6.21000000e-01	1.31691988e-02	1.36949015e-04
6.22000000e-01	1.30653439e-02	1.36216703e-04
6.23000000e-01	1.31344617e-02	1.36163575e-04
6.24000000e-01	1.29388391e-02	1.34715081e-04
6.25000000e-01	1.30388615e-02	1.35139873e-04
6.26000000e-01	1.30074469e-02	1.35105540e-04
6.27000000e-01	1.29918999e-02	1.34780985e-04
6.28000000e-01	1.29320831e-02	1.34167641e-04
6.29000000e-01	1.29961185e-02	1.34792309e-04
6.30000000e-01	1.29551496e-02	1.34873734e-04
6.31000000e-01	1.29573950e-02	1.34339351e-04
6.32000000e-01	1.30426396e-02	1.35265617e-04
6.33000000e-01	1.30040477e-02	1.35053187e-04
6.34000000e-01	1.30693836e-02	1.39175256e-04
6.35000000e-01	1.31220259e-02	1.43714427e-04
6.36000000e-01	1.30285025e-02	1.45115651e-04
6.37000000e-01	1.30939517e-02	1.48410870e-04
6.38000000e-01	1.29507727e-02	1.48773482e-04
6.39000000e-01	1.29887212e-02	1.50996403e-04
6.40000000e-01	1.29722369e-02	1.53695774e-04
6.41000000e-01	1.29861339e-02	1.54447103e-04
6.42000000e-01	1.31037323e-02	1.57363055e-04
6.43000000e-01	1.31430441e-02	1.58538018e-04
6.44000000e-01	1.29807962e-02	1.50092807e-04
6.45000000e-01	1.29246156e-02	1.48195512e-04
6.46000000e-01	1.30775023e-02	1.47793941e-04
6.47000000e-01	1.30764495e-02	1.46190296e-04
6.48000000e-01	1.31871010e-02	1.46862050e-04
6.49000000e-01	1.30733348e-02	1.45372804e-04
6.50000000e-01	1.30035870e-02	1.43946375e-04
6.51000000e-01	1.30252043e-02	1.43232201e-04
6.52000000e-01	1.30482679e-02	1.43275212e-04
6.53000000e-01	1.29351983e-02	1.41722223e-04
6.54000000e-01	1.29769522e-02	1.41305322e-04
6.55000000e-01	1.29048618e-02	1.40630378e-04
6.56000000e-01	1.29748983e-02	1.41118748e-04
6.57000000e-01	1.29821726e-02	1.40240983e-04
6.58000000e-01	1.31038812e-02	1.42087734e-04
6.59000000e-01	1.28435917e-02	1.38995128e-04
6.60000000e-01	1.30908590e-02	1.41002173e-04
6.61000000e-01	1.28315470e-02	1.38713285e-04
6.62000000e-01	1.28801645e-02	1.39343907e-04
6.63000000e-01	1.28945568e-02	1.39184446e-04
6.64000000e-01	1.30196925e-02	1.40286108e-04
6.65000000e-01	1.30674257e-02	1.41326675e-04
6.66000000e-01	1.28677837e-02	1.39047945e-04
6.67000000e-01	1.28437929e-02	1.38620389e-04
6.68000000e-01	1.27227429e-02	1.37475538e-04
6.69000000e-01	1.29042136e-02	1.38997483e-04
6.70000000e-01	1.27687092e-02	1.37377507e-04
6.71000000e-01	1.29926150e-02	1.39814837e-04
6.72000000e-01	1.28171118e-02	1.37966090e-04
6.73000000e-01	1.27858630e-02	1.37645912e-04
6.74000000e-01	1.28922479e-02	1.38863390e-04
6.75000000e-01	1.28316244e-02	1.37810524e-04
6.76000000e-01	1.26811625e-02	1.36536682e-04
6.77000000e-01	1.28707361e-02	1.38580105e-04
6.78000000e-01	1.26258886e-02	1.36380494e-04
6.79000000e-01	1.28162433e-02	1.38047724e-04
6.80000000e-01	1.28121901e-02	1.37142199e-04
6.81000000e-01	1.26740337e-02	1.36259327e-04
6.82000000e-01	1.27731972e-02	1.37574220e-04
6.83000000e-01	1.27196594e-02	1.36680780e-04
6.84000000e-01	1.26880038e-02	1.36631878e-04
6.85000000e-01	1.26464281e-02	1.35746640e-04
6.86000000e-01	1.26483597e-02	1.35649851e-04
6.87000000e-01	1.27818352e-02	1.36920435e-04
6.88000000e-01	1.27327492e-02	1.36875420e-04
6.89000000e-01	1.26867789e-02	1.36153696e-04
6.90000000e-01	1.27862039e-02	1.37217957e-04
6.91000000e-01	1.26443034e-02	1.35698554e-04
6.92000000e-01	1.26247275e-02	1.35305761e-04
6.93000000e-01	1.28189943e-02	1.36946162e-04
6.94000000e-01	1.27836087e-02	1.36828060e-04
6.95000000e-01	1.27228501e-02	1.36564549e-04
6.96000000e-01	1.26672561e-02	1.35290721e-04
6.97000000e-01	1.26622336e-02	1.35761348e-04
6.98000000e-01	1.28278974e-02	1.37076171e-04
6.99000000e-01	1.25917992e-02	1.34908580e-04
7.00000000e-01	1.25339651e-02	1.34477151e-04
7.01000000e-01	1.25805546e-02	1.34529484e-04
7.02000000e-01	1.26119828e-02	1.35275530e-04
7.03000000e-01	1.25682579e-02	1.34893570e-04
7.04000000e-01	1.24361009e-02	1.33784775e-04
7.05000000e-01	1.26637045e-02	1.36085826e-04
7.06000000e-01	1.25416984e-02	1.34307807e-04
7.07000000e-01	1.24882715e-02	1.33738473e-04
7.08000000e-01	1.24988864e-02	1.33365691e-04
7.09000000e-01	1.24061850e-02	1.32936539e-04
7.10000000e-01	1.24955037e-02	1.34203959e-04
7.11000000e-01	1.23792713e-02	1.32946012e-04
7.12000000e-01	1.24887573e-02	1.33362824e-04
7.13000000e-01	1.25161288e-02	1.34130959e-04
7.14000000e-01	1.22820439e-02	1.32554384e-04
7.15000000e-01	1.23720289e-02	1.32829230e-04
7.16000000e-01	1.24043623e-02	1.33012968e-04
7.17000000e-01	1.23110917e-02	1.32387644e-04
7.18000000e-01	1.22852026e-02	1.32262634e-04
7.19000000e-01	1.23907017e-02	1.33289707e-04
7.20000000e-01	1.23704279e-02	1.32619027e-04
7.21000000e-01	1.22654044e-02	1.32129945e-04
7.22000000e-01	1.21576161e-02	1.30730845e-04
7.23000000e-01	1.21586392e-02	1.30569408e-04
7.24000000e-01	1.22477253e-02	1.31902703e-04
7.25000000e-01	1.23781114e-02	1.33085841e-04
7.26000000e-01	1.23270351e-02	1.32326228e-04
7.27000000e-01	1.23784397e-02	1.33063406e-04
7.28000000e-01	1.23954829e-02	1.33350482e-04
7.29000000e-01	1.23093076e-02	1.32225414e-04
7.30000000e-01	1.21993254e-02	1.31155787e-04
7.31000000e-01	1.21650120e-02	1.30995721e-04
7.32000000e-01	1.21381718e-02	1.31202154e-04
7.33000000e-01	1.21433571e-02	1.30509272e-04
7.34000000e-01	1.21944690e-02	1.30807619e-04
7.35000000e-01	1.21638750e-02	1.30340357e-04
7.36000000e-01	1.20739504e-02	1.29231235e-04
7.37000000e-01	1.20843152e-02	1.29404461e-04
7.38000000e-01	1.21926140e-02	1.29866070e-04
7.39000000e-01	1.21643183e-02	1.29663937e-04
7.40000000e-01	1.20658561e-02	1.28074025e-04
7.41000000e-01	1.20923718e-02	1.28627874e-04
7.42000000e-01	1.20916086e-02	1.28146185e-04
7.43000000e-01	1.20137144e-02	1.27698173e-04
7.44000000e-01	1.20221603e-02	1.27983623e-04
7.45000000e-01	1.21032529e-02	1.28717961e-04
7.46000000e-01	1.20236876e-02	1.28285894e-04
7.47000000e-01	1.20996839e-02	1.28971317e-04
7.48000000e-01	1.20243054e-02	1.28134271e-04
7.49000000e-01	1.20246137e-02	1.28530632e-04
7.50000000e-01	1.20292958e-02	1.28218977e-04
7.51000000e-01	1.18772922e-02	1.26761240e-04
7.52000000e-01	1.20168622e-02	1.28040126e-04
7.53000000e-01	1.21097492e-02	1.28677814e-04
7.54000000e-01	1.20939325e-02	1.28806972e-04
7.55000000e-01	1.20797541e-02	1.28536857e-04
7.56000000e-01	1.21106163e-02	1.28876606e-04
7.57000000e-01	1.21089184e-02	1.28980050e-04
7.58000000e-01	1.19782219e-02	1.27456090e-04
7.59000000e-01	1.20517685e-02	1.28090846e-04
7.60000000e-01	1.19492742e-02	1.26780385e-04
7.61000000e-01	1.18917234e-02	1.26238512e-04
7.62000000e-01	1.19797896e-02	1.26969126e-04
7.63000000e-01	1.18891041e-02	1.26519773e-04
7.64000000e-01	1.18823975e-02	1.25718286e-04
7.65000000e-01	1.18165531e-02	1.24812167e-04
7.66000000e-01	1.18278425e-02	1.25248168e-04
7.67000000e-01	1.18806735e-02	1.25345865e-04
7.68000000e-01	1.16715728e-02	1.23406183e-04
7.69000000e-01	1.18494903e-02	1.25503828e-04
7.70000000e-01	1.17587058e-02	1.24542788e-04
7.71000000e-01	1.17725318e-02	1.24123832e-04
7.72000000e-01	1.18097752e-02	1.28639075e-04
7.73000000e-01	1.17725429e-02	1.32537171e-04
7.74000000e-01	1.18749300e-02	1.36400083e-04
7.75000000e-01	1.17284492e-02	1.36376773e-04
7.76000000e-01	1.18514266e-02	1.40535871e-04
7.77000000e-01	1.18139691e-02	1.41777684e-04
7.78000000e-01	1.18259834e-02	1.44257250e-04
7.79000000e-01	1.17071076e-02	1.44488630e-04
7.80000000e-01	1.18384108e-02	1.47411012e-04
7.81000000e-01	1.17052230e-02	1.47691119e-04
7.82000000e-01	1.16637310e-02	1.48639649e-04
7.83000000e-01	1.17922102e-02	1.51896490e-04
7.84000000e-01	1.16765564e-02	1.52255230e-04
7.85000000e-01	1.15324641e-02	1.52296664e-04
7.86000000e-01	1.16971925e-02	1.55489405e-04
7.87000000e-01	1.16497764e-02	1.56532687e-04
7.88000000e-01	1.16065850e-02	1.57402843e-04
7.89000000e-01	1.15167706e-02	1.57698355e-04
7.90000000e-01	1.16173015e-02	1.61520760e-04
7.91000000e-01	1.15756594e-02	1.62027457e-04
7.92000000e-01	1.15480083e-02	1.62650969e-04
7.93000000e-01	1.14170350e-02	1.64120222e-04
7.94000000e-01	1.16296096e-02	1.68175213e-04
7.95000000e-01	1.13886612e-02	1.66784306e-04
7.96000000e-01	1.15733072e-02	1.70511849e-04
7.97000000e-01	1.16520499e-02	1.73246867e-04
7.98000000e-01	1.15408166e-02	1.74090866e-04
7.99000000e-01	1.13614542e-02	1.73411527e-04
8.00000000e-01	1.14375790e-02	1.75447296e-04
8.01000000e-01	1.15085376e-02	1.77842263e-04
8.02000000e-01	1.12317121e-02	1.75736691e-04
8.03000000e-01	1.14986513e-02	1.82275134e-04
8.04000000e-01	1.13773195e-02	1.81889313e-04
8.05000000e-01	1.13298037e-02	1.83609422e-04
8.06000000e-01	1.12947524e-02	1.86165638e-04
8.07000000e-01	1.13239496e-02	1.85589716e-04
8.08000000e-01	1.13358674e-02	1.90278527e-04
8.09000000e-01	1.11347564e-02	1.89242254e-04
8.10000000e-01	1.12689574e-02	1.92892981e-04
8.11000000e-01	1.13359696e-02	1.95702880e-04
8.12000000e-01	1.13109270e-02	1.97979176e-04
8.13000000e-01	1.15627040e-02	2.02830507e-04
8.14000000e-01	1.14024685e-02	2.03704473e-04
8.15000000e-01	1.11931122e-02	2.02898043e-04
8.16000000e-01	1.12858302e-02	2.07094115e-04
8.17000000e-01	1.11809860e-02	2.07779489e-04
8.18000000e-01	1.11994063e-02	2.11582580e-04
8.19000000e-01	1.14713493e-02	2.17780259e-04
8.20000000e-01	1.11553873e-02	2.15906341e-04
8.21000000e-01	1.11676658e-02	2.18483289e-04
8.22000000e-01	1.13534281e-02	2.24489441e-04
8.23000000e-01	1.12911896e-02	2.26018387e-04
8.24000000e-01	1.11641120e-02	2.28446967e-04
8.25000000e-01	1.12238870e-02	2.31274690e-04
8.26000000e-01	1.11906598e-02	2.34437346e-04
8.27000000e-01	1.10770714e-02	2.34307008e-04
8.28000000e-01	1.08884022e-02	2.35668406e-04
8.29000000e-01	1.11967407e-02	2.44887911e-04
8.30000000e-01	1.10331927e-02	2.44813068e-04
8.31000000e-01	1.10901027e-02	2.51354127e-04
8.32000000e-01	1.11368866e-02	2.55089339e-04
8.33000000e-01	1.10036231e-02	2.56942802e-04
8.34000000e-01	1.09473726e-02	2.61183135e-04
8.35000000e-01	1.09394024e-02	2.67387999e-04
8.36000000e-01	1.10559930e-02	2.69890126e-04
8.37000000e-01	1.11462644e-02	2.82096068e-04
8.38000000e-01	1.10051283e-02	2.81859730e-04
8.39000000e-01	1.07894707e-02	2.85176678e-04
8.40000000e-01	1.09514518e-02	2.94120953e-04
8.41000000e-01	1.08302898e-02	2.92484614e-04
8.42000000e-01	1.08856443e-02	3.02901824e-04
8.43000000e-01	1.08509731e-02	3.09445967e-04
8.44000000e-01	1.07323194e-02	3.15455414e-04
8.45000000e-01	1.07517731e-02	3.23183060e-04
8.46000000e-01	1.05834417e-02	3.29434461e-04
8.47000000e-01	1.06985036e-02	3.39448759e-04
8.48000000e-01	1.06531293e-02	3.54236568e-04
8.49000000e-01	1.09822082e-02	3.70686840e-04
8.50000000e-01	1.11454325e-02	3.89543648e-04
8.51000000e-01	1.07615982e-02	3.95821088e-04
8.52000000e-01	1.12101607e-02	4.13463320e-04
8.53000000e-01	1.07753033e-02	4.25006870e-04
8.54000000e-01	1.04646818e-02	4.39302999e-04
8.55000000e-01	1.04496671e-02	4.53191979e-04
8.56000000e-01	1.04170424e-02	4.63908996e-04
8.57000000e-01	1.04747712e-02	4.77212690e-04
8.58000000e-01	1.10269489e-02	5.03697256e-04
8.59000000e-01	1.02834791e-02	4.99739116e-04
8.60000000e-01	1.08710546e-02	5.26868514e-04
8.61000000e-01	1.08180160e-02	5.49416804e-04
8.62000000e-01	1.06256161e-02	5.54657683e-04
8.63000000e-01	1.04342223e-02	5.77474647e-04
8.64000000e-01	1.01474348e-02	5.93751228e-04
8.65000000e-01	1.00053189e-02	6.06300014e-04
8.66000000e-01	1.04961450e-02	6.79371016e-04
8.67000000e-01	1.01940991e-02	6.93725767e-04
8.68000000e-01	9.71916928e-03	7.10511719e-04
8.69000000e-01	1.03812161e-02	7.89292119e-04
8.70000000e-01	1.02451166e-02	8.36469154e-04
8.71000000e-01	1.05762875e-02	9.85386487e-04
8.72000000e-01	1.16282441e-02	1.20238148e-03
8.73000000e-01	1.11541034e-02	1.38677392e-03
8.74000000e-01	1.02084851e-02	1.66731437e-03
8.75000000e-01	1.07045236e-02	3.39680055e-03
