% Filename : SDL7_00012_00258.h5
% Date & Time : 30-Oct-2025 15:01:41
% X-ray Energy (keV) : 13.30001
% Exposure Time (s) : 0.500
% Beam Center : 1461.24000, 208.98300
% Sample to Detector Distance (SDD) (mm) : 1990.750
% Detector Pixel Size (mm) : 0.075
% Photodiode Value : 136454.000
% I0 of Sample : 0
% I0 of Standard : 1
% 
% q(A^-1)   I(q)    I(q)_SE
0.00000000e+00	1.45641578e-02	8.05365998e-03
2.50000000e-04	0.00000000e+00	0.00000000e+00
5.00000000e-04	0.00000000e+00	0.00000000e+00
7.50000000e-04	0.00000000e+00	0.00000000e+00
1.00000000e-03	0.00000000e+00	0.00000000e+00
1.25000000e-03	0.00000000e+00	0.00000000e+00
1.50000000e-03	0.00000000e+00	0.00000000e+00
1.75000000e-03	0.00000000e+00	0.00000000e+00
2.00000000e-03	0.00000000e+00	0.00000000e+00
2.25000000e-03	0.00000000e+00	0.00000000e+00
2.50000000e-03	0.00000000e+00	0.00000000e+00
2.75000000e-03	0.00000000e+00	0.00000000e+00
3.00000000e-03	0.00000000e+00	0.00000000e+00
3.25000000e-03	1.07740228e+00	6.23229448e-01
3.50000000e-03	1.19576637e+00	2.57965316e-01
3.75000000e-03	9.75140947e-01	1.64118557e-01
4.00000000e-03	8.22566364e-01	1.26169514e-01
4.25000000e-03	6.74432701e-01	8.48025599e-02
4.50000000e-03	6.98410201e-01	8.87271628e-02
4.75000000e-03	6.35340578e-01	7.42829006e-02
5.00000000e-03	5.07455767e-01	5.41242245e-02
5.25000000e-03	4.31548161e-01	4.53046945e-02
5.50000000e-03	3.73433717e-01	3.77086136e-02
5.75000000e-03	3.23620655e-01	3.18197291e-02
6.00000000e-03	2.79587431e-01	2.63665174e-02
6.25000000e-03	2.53456032e-01	2.36404363e-02
6.50000000e-03	2.13427403e-01	1.90707929e-02
6.75000000e-03	1.87107272e-01	1.66931466e-02
7.00000000e-03	1.67806475e-01	1.46894864e-02
7.25000000e-03	1.50659317e-01	1.29336645e-02
7.50000000e-03	1.38898536e-01	1.16493226e-02
7.75000000e-03	1.23220111e-01	1.01735162e-02
8.00000000e-03	1.12701911e-01	9.23848894e-03
8.25000000e-03	1.02050698e-01	7.94365720e-03
8.50000000e-03	9.48652397e-02	7.26739729e-03
8.75000000e-03	8.48896329e-02	6.51561453e-03
9.00000000e-03	8.07279079e-02	6.12676179e-03
9.25000000e-03	7.66132756e-02	5.62597899e-03
9.50000000e-03	6.89227251e-02	4.92039656e-03
9.75000000e-03	6.52686039e-02	4.69946525e-03
1.00000000e-02	6.06629107e-02	4.30700219e-03
1.02500000e-02	5.68649866e-02	4.05640074e-03
1.05000000e-02	5.38001713e-02	3.63609445e-03
1.07500000e-02	4.90300702e-02	3.35019693e-03
1.10000000e-02	4.76237429e-02	3.22652223e-03
1.12500000e-02	4.78183820e-02	3.23583398e-03
1.15000000e-02	4.43882866e-02	2.95728638e-03
1.17500000e-02	4.05061156e-02	2.64345976e-03
1.20000000e-02	4.02965434e-02	2.61147660e-03
1.22500000e-02	3.79740086e-02	2.40601712e-03
1.25000000e-02	3.74430394e-02	2.38706321e-03
1.27500000e-02	3.50926050e-02	2.21112560e-03
1.30000000e-02	3.41959744e-02	2.12216100e-03
1.32500000e-02	3.45492687e-02	2.11344669e-03
1.35000000e-02	3.26786851e-02	2.00880306e-03
1.37500000e-02	3.10130048e-02	1.90513995e-03
1.40000000e-02	3.03828005e-02	1.83992137e-03
1.42500000e-02	3.02154586e-02	1.80120651e-03
1.45000000e-02	3.07324780e-02	1.82350601e-03
1.47500000e-02	2.88195148e-02	1.71838680e-03
1.50000000e-02	2.86397421e-02	1.68042796e-03
1.52500000e-02	2.73212726e-02	1.61036821e-03
1.55000000e-02	2.74085639e-02	1.56714639e-03
1.57500000e-02	2.68435071e-02	1.53036501e-03
1.60000000e-02	2.59955521e-02	1.48038942e-03
1.62500000e-02	2.55908455e-02	1.47501747e-03
1.65000000e-02	2.55334650e-02	1.42327656e-03
1.67500000e-02	2.49363182e-02	1.37969948e-03
1.70000000e-02	2.52545027e-02	1.39457215e-03
1.72500000e-02	2.46907564e-02	1.36030772e-03
1.75000000e-02	2.47993873e-02	1.35413583e-03
1.77500000e-02	2.46925352e-02	1.32758605e-03
1.80000000e-02	2.53676306e-02	1.35191034e-03
1.82500000e-02	2.49815523e-02	1.31529788e-03
1.85000000e-02	2.40417377e-02	1.29553710e-03
1.87500000e-02	2.32941873e-02	1.23065118e-03
1.90000000e-02	2.35635577e-02	1.24422506e-03
1.92500000e-02	2.45542547e-02	1.26219538e-03
1.95000000e-02	2.32575443e-02	1.21698017e-03
1.97500000e-02	2.42323372e-02	1.24463792e-03
2.00000000e-02	2.36292021e-02	1.20772986e-03
2.02500000e-02	2.40331902e-02	1.21206780e-03
2.05000000e-02	2.32825429e-02	1.16076725e-03
2.07500000e-02	2.29657815e-02	1.13325947e-03
2.10000000e-02	2.27208515e-02	1.14491704e-03
2.12500000e-02	2.31649852e-02	1.17485847e-03
2.15000000e-02	2.32191561e-02	1.16625898e-03
2.17500000e-02	2.26799273e-02	1.15606593e-03
2.20000000e-02	2.26468466e-02	1.16250826e-03
2.22500000e-02	2.21701436e-02	1.12763773e-03
2.25000000e-02	2.21223961e-02	1.13725406e-03
2.27500000e-02	2.28420073e-02	1.14692050e-03
2.30000000e-02	2.19715045e-02	1.12442534e-03
2.32500000e-02	2.19656161e-02	1.10532010e-03
2.35000000e-02	2.30491603e-02	1.17020115e-03
2.37500000e-02	2.22347361e-02	1.12239472e-03
2.40000000e-02	2.19226106e-02	1.11875641e-03
2.42500000e-02	2.32618816e-02	1.16773035e-03
2.45000000e-02	2.22455196e-02	1.12697445e-03
2.47500000e-02	2.24096663e-02	1.11593891e-03
2.50000000e-02	2.25541262e-02	1.13095241e-03
2.52500000e-02	2.15015447e-02	1.09393611e-03
2.55000000e-02	2.18134784e-02	1.08864012e-03
2.57500000e-02	2.19106041e-02	1.09598812e-03
2.60000000e-02	2.19341332e-02	1.09696012e-03
2.62500000e-02	2.14227801e-02	1.07580812e-03
2.65000000e-02	2.27434927e-02	1.12394556e-03
2.67500000e-02	2.17571072e-02	1.06179662e-03
2.70000000e-02	2.21112258e-02	1.09621496e-03
2.72500000e-02	2.18620318e-02	1.06779252e-03
2.75000000e-02	2.26028211e-02	1.11775492e-03
2.77500000e-02	2.16223777e-02	1.07045505e-03
2.80000000e-02	2.23714672e-02	1.08091369e-03
2.82500000e-02	2.27484820e-02	1.09115935e-03
2.85000000e-02	2.27902070e-02	1.10759230e-03
2.87500000e-02	2.17821941e-02	1.06686093e-03
2.90000000e-02	2.23514780e-02	1.08764836e-03
2.92500000e-02	2.29390999e-02	1.08126219e-03
2.95000000e-02	2.26305155e-02	1.09062994e-03
2.97500000e-02	2.32690377e-02	1.11147268e-03
3.00000000e-02	2.31087456e-02	1.11360972e-03
3.02500000e-02	2.31965842e-02	1.12091193e-03
3.05000000e-02	2.37777176e-02	1.11368174e-03
3.07500000e-02	2.26981678e-02	1.07889273e-03
3.10000000e-02	2.26622542e-02	1.07831061e-03
3.12500000e-02	2.31630697e-02	1.12187556e-03
3.15000000e-02	2.25818072e-02	1.06925628e-03
3.17500000e-02	2.17880819e-02	1.01444785e-03
3.20000000e-02	2.18769360e-02	1.04413356e-03
3.22500000e-02	2.17236837e-02	1.02452668e-03
3.25000000e-02	2.26986288e-02	1.06954271e-03
3.27500000e-02	2.14109870e-02	1.01229138e-03
3.30000000e-02	2.13206473e-02	9.95244896e-04
3.32500000e-02	2.21419047e-02	1.02389804e-03
3.35000000e-02	2.12520983e-02	9.89208126e-04
3.37500000e-02	2.15323536e-02	1.00296545e-03
3.40000000e-02	2.20277902e-02	1.01417667e-03
3.42500000e-02	2.10753789e-02	9.62435901e-04
3.45000000e-02	2.15740172e-02	1.00049425e-03
3.47500000e-02	2.15806721e-02	9.91277619e-04
3.50000000e-02	2.18130545e-02	9.94978232e-04
3.52500000e-02	2.18170232e-02	1.01212252e-03
3.55000000e-02	2.15485936e-02	9.80387334e-04
3.57500000e-02	2.19382619e-02	1.00451126e-03
3.60000000e-02	2.14596673e-02	9.77372241e-04
3.62500000e-02	2.15927840e-02	9.82703436e-04
3.65000000e-02	2.19234102e-02	9.95476602e-04
3.67500000e-02	2.18070885e-02	9.87244075e-04
3.70000000e-02	2.13385277e-02	9.68688677e-04
3.72500000e-02	2.12090522e-02	9.57071970e-04
3.75000000e-02	2.11280571e-02	9.66022347e-04
3.77500000e-02	2.11462032e-02	9.52087021e-04
3.80000000e-02	2.12590904e-02	9.68153184e-04
3.82500000e-02	2.10782443e-02	9.37334679e-04
3.85000000e-02	2.15452057e-02	9.65611239e-04
3.87500000e-02	2.17988387e-02	9.67222012e-04
3.90000000e-02	2.10341439e-02	9.36667788e-04
3.92500000e-02	2.13826198e-02	9.40191657e-04
3.95000000e-02	2.14634665e-02	9.47712797e-04
3.97500000e-02	2.11066653e-02	9.35542798e-04
4.00000000e-02	2.12955959e-02	9.30147856e-04
4.02500000e-02	2.06861977e-02	9.18157279e-04
4.05000000e-02	2.16617109e-02	9.49914807e-04
4.07500000e-02	2.10903405e-02	8.98782144e-04
4.10000000e-02	2.05986954e-02	9.04182104e-04
4.12500000e-02	2.10544464e-02	9.24223570e-04
4.15000000e-02	2.11405002e-02	9.09289789e-04
4.17500000e-02	2.07007784e-02	8.88330759e-04
4.20000000e-02	2.15326919e-02	9.17468720e-04
4.22500000e-02	2.07000514e-02	8.83497803e-04
4.25000000e-02	2.15966173e-02	9.20957540e-04
4.27500000e-02	2.03287547e-02	8.67195171e-04
4.30000000e-02	2.04124074e-02	8.71420124e-04
4.32500000e-02	2.16361029e-02	9.17036591e-04
4.35000000e-02	2.12940986e-02	9.09456344e-04
4.37500000e-02	2.07059387e-02	8.71032292e-04
4.40000000e-02	2.05644594e-02	8.71730190e-04
4.42500000e-02	2.04092282e-02	8.62254757e-04
4.45000000e-02	2.10639992e-02	8.80526578e-04
4.47500000e-02	2.07347758e-02	8.70961620e-04
4.50000000e-02	2.11104978e-02	8.94178881e-04
4.52500000e-02	2.13216763e-02	8.99398547e-04
4.55000000e-02	2.02650479e-02	8.54159933e-04
4.57500000e-02	2.00966555e-02	8.39845888e-04
4.60000000e-02	2.08774564e-02	8.64169842e-04
4.62500000e-02	2.12290647e-02	8.85184713e-04
4.65000000e-02	2.09095400e-02	8.65539944e-04
4.67500000e-02	2.02277567e-02	8.37076145e-04
4.70000000e-02	2.10539372e-02	8.67113012e-04
4.72500000e-02	2.09993063e-02	8.68609008e-04
4.75000000e-02	2.09454200e-02	8.73294854e-04
4.77500000e-02	2.06890505e-02	8.50581701e-04
4.80000000e-02	2.09993461e-02	8.65913114e-04
4.82500000e-02	2.12115923e-02	8.63197129e-04
4.85000000e-02	2.05283902e-02	8.44471104e-04
4.87500000e-02	2.02558995e-02	8.25144850e-04
4.90000000e-02	2.12352004e-02	8.57636421e-04
4.92500000e-02	2.08032235e-02	8.37968128e-04
4.95000000e-02	2.06277075e-02	8.33219940e-04
4.97500000e-02	2.15278800e-02	8.74451872e-04
5.00000000e-02	2.11536188e-02	8.60595144e-04
5.02500000e-02	2.05359360e-02	8.18316762e-04
5.05000000e-02	2.02311224e-02	8.13333769e-04
5.07500000e-02	2.01751029e-02	8.11391518e-04
5.10000000e-02	2.05820238e-02	8.21991435e-04
5.12500000e-02	2.05418855e-02	8.23397674e-04
5.15000000e-02	2.02083931e-02	8.05117573e-04
5.17500000e-02	2.08917055e-02	8.35897017e-04
5.20000000e-02	2.01495567e-02	8.01035999e-04
5.22500000e-02	2.06418106e-02	8.23748686e-04
5.25000000e-02	2.03919532e-02	8.09280187e-04
5.27500000e-02	2.00365949e-02	7.87382285e-04
5.30000000e-02	1.95808241e-02	7.81716385e-04
5.32500000e-02	2.07315994e-02	8.11856367e-04
5.35000000e-02	2.01054154e-02	7.96980066e-04
5.37500000e-02	2.07809866e-02	8.10857393e-04
5.40000000e-02	2.03839464e-02	7.99836228e-04
5.42500000e-02	2.04989789e-02	7.92640938e-04
5.45000000e-02	2.06488224e-02	8.03922717e-04
5.47500000e-02	2.00903272e-02	7.83761291e-04
5.50000000e-02	2.01375085e-02	7.81350723e-04
5.52500000e-02	2.06613223e-02	8.02567633e-04
5.55000000e-02	1.99446143e-02	7.70011606e-04
5.57500000e-02	2.03262471e-02	7.86462651e-04
5.60000000e-02	2.04359917e-02	7.85082691e-04
5.62500000e-02	2.02490177e-02	7.82545050e-04
5.65000000e-02	1.95050439e-02	7.49682626e-04
5.67500000e-02	2.09238349e-02	8.00971471e-04
5.70000000e-02	2.04751533e-02	7.83666176e-04
5.72500000e-02	2.10650382e-02	8.08042076e-04
5.75000000e-02	2.00513688e-02	7.76172719e-04
5.77500000e-02	1.97084459e-02	7.46191715e-04
5.80000000e-02	2.10079888e-02	7.94087589e-04
5.82500000e-02	2.10453325e-02	7.91622811e-04
5.85000000e-02	1.97127503e-02	7.57081457e-04
5.87500000e-02	2.07139719e-02	7.81423154e-04
5.90000000e-02	2.04028331e-02	7.70750788e-04
5.92500000e-02	2.07078606e-02	7.85630373e-04
5.95000000e-02	2.07133117e-02	7.74610875e-04
5.97500000e-02	1.98231896e-02	7.45525229e-04
6.00000000e-02	2.08521355e-02	7.76380285e-04
6.02500000e-02	2.01144038e-02	7.51747384e-04
6.05000000e-02	2.00251254e-02	7.45640538e-04
6.07500000e-02	2.01437987e-02	7.59254370e-04
6.10000000e-02	2.04559000e-02	7.59494314e-04
6.12500000e-02	2.05875342e-02	7.67606895e-04
6.15000000e-02	1.98242211e-02	7.31941925e-04
6.17500000e-02	2.03909999e-02	7.52513423e-04
6.20000000e-02	1.98447822e-02	7.37810775e-04
6.22500000e-02	2.00102228e-02	7.39528206e-04
6.25000000e-02	2.02076712e-02	7.48036537e-04
6.27500000e-02	2.02254282e-02	7.39323049e-04
6.30000000e-02	2.02296006e-02	7.45470636e-04
6.32500000e-02	2.06170563e-02	7.59274215e-04
6.35000000e-02	2.05508854e-02	7.47762959e-04
6.37500000e-02	1.98477633e-02	7.27861945e-04
6.40000000e-02	2.00460769e-02	7.33202705e-04
6.42500000e-02	2.02080185e-02	7.28939430e-04
6.45000000e-02	1.98980922e-02	7.25338508e-04
6.47500000e-02	1.99641312e-02	7.31412297e-04
6.50000000e-02	1.99562107e-02	7.22336231e-04
6.52500000e-02	2.00285741e-02	7.26303759e-04
6.55000000e-02	2.00768572e-02	7.29996931e-04
6.57500000e-02	2.02332668e-02	7.26457504e-04
6.60000000e-02	2.02674104e-02	7.30514792e-04
6.62500000e-02	1.98793196e-02	7.19237446e-04
6.65000000e-02	1.99401781e-02	7.09689236e-04
6.67500000e-02	2.03514166e-02	7.29892129e-04
6.70000000e-02	1.99661799e-02	7.12171862e-04
6.72500000e-02	2.02341709e-02	7.27005830e-04
6.75000000e-02	1.96119404e-02	6.97804741e-04
6.77500000e-02	1.97497739e-02	7.03566705e-04
6.80000000e-02	2.00650008e-02	7.16603056e-04
6.82500000e-02	2.00905367e-02	7.10501084e-04
6.85000000e-02	2.00702778e-02	7.16126988e-04
6.87500000e-02	2.03065367e-02	7.19391573e-04
6.90000000e-02	1.94394363e-02	6.94270095e-04
6.92500000e-02	1.97879991e-02	6.91285717e-04
6.95000000e-02	1.98111449e-02	7.08190655e-04
6.97500000e-02	1.94382967e-02	6.89929329e-04
7.00000000e-02	2.00848714e-02	7.04427735e-04
7.02500000e-02	2.02437109e-02	7.12839689e-04
7.05000000e-02	1.97448518e-02	6.93430596e-04
7.07500000e-02	2.01985826e-02	7.08977795e-04
7.10000000e-02	1.98424349e-02	6.93923028e-04
7.12500000e-02	1.98316719e-02	6.91964075e-04
7.15000000e-02	1.95920420e-02	6.76147468e-04
7.17500000e-02	2.05969385e-02	7.09762152e-04
7.20000000e-02	2.00728332e-02	7.02707753e-04
7.22500000e-02	1.94101102e-02	6.75013037e-04
7.25000000e-02	1.98205533e-02	6.85739018e-04
7.27500000e-02	2.02226341e-02	7.01296192e-04
7.30000000e-02	1.97722602e-02	6.90633836e-04
7.32500000e-02	1.94359294e-02	6.69411002e-04
7.35000000e-02	1.98107285e-02	6.83650000e-04
7.37500000e-02	2.02948044e-02	6.93165446e-04
7.40000000e-02	2.00367141e-02	6.87811909e-04
7.42500000e-02	1.99537230e-02	6.84811613e-04
7.45000000e-02	2.06135408e-02	7.05229814e-04
7.47500000e-02	2.02074036e-02	6.91313356e-04
7.50000000e-02	2.01505171e-02	6.88457219e-04
7.52500000e-02	2.04610649e-02	6.94185761e-04
7.55000000e-02	1.96629254e-02	6.68646567e-04
7.57500000e-02	1.96554627e-02	6.71179596e-04
7.60000000e-02	2.03155725e-02	6.90865047e-04
7.62500000e-02	1.92498943e-02	6.54835651e-04
7.65000000e-02	1.98168070e-02	6.76405093e-04
7.67500000e-02	1.96852663e-02	6.60198714e-04
7.70000000e-02	1.96568266e-02	6.64070502e-04
7.72500000e-02	1.98481019e-02	6.82462145e-04
7.75000000e-02	1.96361470e-02	6.80698172e-04
7.77500000e-02	2.01831763e-02	6.98498997e-04
7.80000000e-02	1.92620052e-02	6.77700033e-04
7.82500000e-02	1.97914357e-02	6.98541146e-04
7.85000000e-02	1.97009186e-02	6.98187147e-04
7.87500000e-02	1.98383789e-02	7.02191056e-04
7.90000000e-02	1.99864328e-02	7.13752628e-04
7.92500000e-02	1.97601161e-02	7.04749467e-04
7.95000000e-02	1.99436102e-02	7.06946736e-04
7.97500000e-02	1.98338754e-02	7.15182212e-04
8.00000000e-02	2.01299223e-02	7.21749770e-04
8.02500000e-02	2.08065381e-02	7.46892021e-04
8.05000000e-02	1.97199588e-02	7.10540588e-04
8.07500000e-02	2.02348305e-02	7.39063450e-04
8.10000000e-02	1.97087651e-02	7.15332964e-04
8.12500000e-02	2.00675118e-02	7.28319976e-04
8.15000000e-02	1.96849101e-02	7.08327214e-04
8.17500000e-02	1.95087675e-02	7.13175310e-04
8.20000000e-02	2.01171954e-02	7.30861854e-04
8.22500000e-02	2.00765511e-02	7.33249311e-04
8.25000000e-02	1.97227265e-02	7.23611071e-04
8.27500000e-02	1.94499743e-02	7.10598555e-04
8.30000000e-02	2.01479752e-02	7.44385678e-04
8.32500000e-02	1.93458392e-02	7.10919342e-04
8.35000000e-02	2.00369628e-02	7.42595093e-04
8.37500000e-02	2.00389956e-02	7.33439388e-04
8.40000000e-02	1.99185140e-02	7.35640445e-04
8.42500000e-02	1.92657489e-02	7.20069414e-04
8.45000000e-02	1.94570294e-02	7.28492000e-04
8.47500000e-02	1.98547299e-02	7.39136245e-04
8.50000000e-02	1.87094471e-02	6.89954197e-04
8.52500000e-02	1.98608602e-02	7.31192791e-04
8.55000000e-02	1.98769173e-02	7.36953892e-04
8.57500000e-02	1.98219797e-02	7.40834457e-04
8.60000000e-02	1.95522451e-02	7.31603340e-04
8.62500000e-02	1.92568264e-02	7.13125143e-04
8.65000000e-02	2.04941309e-02	7.63651033e-04
8.67500000e-02	1.93936447e-02	7.18741711e-04
8.70000000e-02	1.97874335e-02	7.18746776e-04
8.72500000e-02	1.94489732e-02	7.02298997e-04
8.75000000e-02	2.02753486e-02	7.20263027e-04
8.77500000e-02	2.00402082e-02	7.11681210e-04
8.80000000e-02	1.96797457e-02	6.96903712e-04
8.82500000e-02	2.00260867e-02	7.02385224e-04
8.85000000e-02	1.95759202e-02	6.90871389e-04
8.87500000e-02	2.04489354e-02	7.00269735e-04
8.90000000e-02	1.98894864e-02	6.84485024e-04
8.92500000e-02	1.95157139e-02	6.75831885e-04
8.95000000e-02	1.99976570e-02	6.89242016e-04
8.97500000e-02	1.97641299e-02	6.80541595e-04
9.00000000e-02	1.92949766e-02	6.55350448e-04
9.02500000e-02	1.92552911e-02	6.58743116e-04
9.05000000e-02	1.95999727e-02	6.67604906e-04
9.07500000e-02	1.94406941e-02	6.55611411e-04
9.10000000e-02	1.96136531e-02	6.64236384e-04
9.12500000e-02	1.98645405e-02	6.69566002e-04
9.15000000e-02	1.96695009e-02	6.61398478e-04
9.17500000e-02	1.96277383e-02	6.64255762e-04
9.20000000e-02	1.96737745e-02	6.58874890e-04
9.22500000e-02	1.95893675e-02	6.55104756e-04
9.25000000e-02	1.96559152e-02	6.53328183e-04
9.27500000e-02	1.96041690e-02	6.52217386e-04
9.30000000e-02	2.02877968e-02	6.73887035e-04
9.32500000e-02	2.01547915e-02	6.71651134e-04
9.35000000e-02	1.94616676e-02	6.43826136e-04
9.37500000e-02	2.01301440e-02	6.58164069e-04
9.40000000e-02	1.96377895e-02	6.48944544e-04
9.42500000e-02	1.99572491e-02	6.55392578e-04
9.45000000e-02	1.99414635e-02	6.51042870e-04
9.47500000e-02	1.93713030e-02	6.36593193e-04
9.50000000e-02	1.97452180e-02	6.41557228e-04
9.52500000e-02	1.97424281e-02	6.51318721e-04
9.55000000e-02	2.02733397e-02	6.55133862e-04
9.57500000e-02	1.93583268e-02	6.29717256e-04
9.60000000e-02	2.00423380e-02	6.50479653e-04
9.62500000e-02	1.99578318e-02	6.44442807e-04
9.65000000e-02	1.97285478e-02	6.39690355e-04
9.67500000e-02	1.98838740e-02	6.47514398e-04
9.70000000e-02	2.00794541e-02	6.52637167e-04
9.72500000e-02	2.01544931e-02	6.45958490e-04
9.75000000e-02	1.97320876e-02	6.36490219e-04
9.77500000e-02	1.97250679e-02	6.29455931e-04
9.80000000e-02	1.96746282e-02	6.30788879e-04
9.82500000e-02	2.06091020e-02	6.58575322e-04
9.85000000e-02	1.99546231e-02	6.36156488e-04
9.87500000e-02	1.96567026e-02	6.27593452e-04
9.90000000e-02	1.98086211e-02	6.30634947e-04
9.92500000e-02	1.90840435e-02	6.11299770e-04
9.95000000e-02	1.90413890e-02	6.07769337e-04
9.97500000e-02	1.99514264e-02	6.31828543e-04
1.00000000e-01	1.97567804e-02	5.08775531e-04
1.00500000e-01	1.99462005e-02	4.48296164e-04
1.01000000e-01	1.97361898e-02	4.41541030e-04
1.01500000e-01	2.00043505e-02	4.46592693e-04
1.02000000e-01	1.92853579e-02	4.26861288e-04
1.02500000e-01	1.96272254e-02	4.33270202e-04
1.03000000e-01	1.99269821e-02	4.36928491e-04
1.03500000e-01	1.94262752e-02	4.27882286e-04
1.04000000e-01	1.99214556e-02	4.35635289e-04
1.04500000e-01	1.96802196e-02	4.29382998e-04
1.05000000e-01	1.97093704e-02	4.26068656e-04
1.05500000e-01	1.96330288e-02	4.26606853e-04
1.06000000e-01	2.00359304e-02	4.32009273e-04
1.06500000e-01	1.99632193e-02	4.31761978e-04
1.07000000e-01	1.97444073e-02	4.32220304e-04
1.07500000e-01	1.96198036e-02	4.39238844e-04
1.08000000e-01	1.97233918e-02	4.43212407e-04
1.08500000e-01	1.98490561e-02	4.47968439e-04
1.09000000e-01	1.95227369e-02	4.46041405e-04
1.09500000e-01	1.94993755e-02	4.47695084e-04
1.10000000e-01	1.96963506e-02	4.45082235e-04
1.10500000e-01	1.95773392e-02	4.33308296e-04
1.11000000e-01	1.95677932e-02	4.25819162e-04
1.11500000e-01	1.98553593e-02	4.30782411e-04
1.12000000e-01	1.97019351e-02	4.22393430e-04
1.12500000e-01	1.96148846e-02	4.20389282e-04
1.13000000e-01	1.92801312e-02	4.10551828e-04
1.13500000e-01	1.96269271e-02	4.15007662e-04
1.14000000e-01	1.96848791e-02	4.15370203e-04
1.14500000e-01	1.94042158e-02	4.09383165e-04
1.15000000e-01	1.96046120e-02	4.10269662e-04
1.15500000e-01	1.99298772e-02	4.15612472e-04
1.16000000e-01	1.96947096e-02	4.11983506e-04
1.16500000e-01	1.93243532e-02	4.01806736e-04
1.17000000e-01	1.96352993e-02	4.08850819e-04
1.17500000e-01	1.95539412e-02	4.05890576e-04
1.18000000e-01	1.99040516e-02	4.12996413e-04
1.18500000e-01	1.99635114e-02	4.09132776e-04
1.19000000e-01	1.96950314e-02	4.08483613e-04
1.19500000e-01	1.93705271e-02	3.98402089e-04
1.20000000e-01	2.00942379e-02	4.10720333e-04
1.20500000e-01	1.91233023e-02	3.90403573e-04
1.21000000e-01	1.96841934e-02	4.02214750e-04
1.21500000e-01	1.96354026e-02	4.01089572e-04
1.22000000e-01	1.95471557e-02	3.98082625e-04
1.22500000e-01	1.94843157e-02	3.93630367e-04
1.23000000e-01	1.95574968e-02	3.96605846e-04
1.23500000e-01	1.94891893e-02	3.91497522e-04
1.24000000e-01	1.99400371e-02	4.02431184e-04
1.24500000e-01	1.97144028e-02	3.95298210e-04
1.25000000e-01	1.95334265e-02	3.91378605e-04
1.25500000e-01	1.95431941e-02	3.90650268e-04
1.26000000e-01	1.98327262e-02	3.95717274e-04
1.26500000e-01	1.93878541e-02	3.87209331e-04
1.27000000e-01	1.97547908e-02	3.92381571e-04
1.27500000e-01	1.98395197e-02	3.92927460e-04
1.28000000e-01	1.94299640e-02	3.83127379e-04
1.28500000e-01	1.94459797e-02	3.83568294e-04
1.29000000e-01	1.95179859e-02	3.85095373e-04
1.29500000e-01	1.95198161e-02	3.83000420e-04
1.30000000e-01	1.98384566e-02	3.89031034e-04
1.30500000e-01	1.96636745e-02	3.84764867e-04
1.31000000e-01	1.96250019e-02	3.83468091e-04
1.31500000e-01	1.92707356e-02	3.77674717e-04
1.32000000e-01	1.95376939e-02	3.81062417e-04
1.32500000e-01	1.99847108e-02	3.85491530e-04
1.33000000e-01	1.94156755e-02	3.75847598e-04
1.33500000e-01	1.94551308e-02	3.73275341e-04
1.34000000e-01	1.92139002e-02	3.71981726e-04
1.34500000e-01	1.97304341e-02	3.77486193e-04
1.35000000e-01	1.95527694e-02	3.73875654e-04
1.35500000e-01	1.92932483e-02	3.69218838e-04
1.36000000e-01	1.96769716e-02	3.74734603e-04
1.36500000e-01	1.95583684e-02	3.75221927e-04
1.37000000e-01	1.97275840e-02	3.75018782e-04
1.37500000e-01	1.94569780e-02	3.70355489e-04
1.38000000e-01	1.95788386e-02	3.69437995e-04
1.38500000e-01	1.95266526e-02	3.68919427e-04
1.39000000e-01	1.96086235e-02	3.70479429e-04
1.39500000e-01	1.97138805e-02	3.72792534e-04
1.40000000e-01	1.95014376e-02	3.68174538e-04
1.40500000e-01	1.94212701e-02	3.65837865e-04
1.41000000e-01	1.94414321e-02	3.67352590e-04
1.41500000e-01	1.94818854e-02	3.66848480e-04
1.42000000e-01	1.95882852e-02	3.66323728e-04
1.42500000e-01	1.96982529e-02	3.70446295e-04
1.43000000e-01	1.92603815e-02	3.59672672e-04
1.43500000e-01	1.94109503e-02	3.62153232e-04
1.44000000e-01	1.93918316e-02	3.61527690e-04
1.44500000e-01	1.93425968e-02	3.58932203e-04
1.45000000e-01	1.93986365e-02	3.61868870e-04
1.45500000e-01	1.95180738e-02	3.61566541e-04
1.46000000e-01	1.94094032e-02	3.58732709e-04
1.46500000e-01	1.93117449e-02	3.58157775e-04
1.47000000e-01	1.93096989e-02	3.57068414e-04
1.47500000e-01	1.91442296e-02	3.53646068e-04
1.48000000e-01	1.95142717e-02	3.59291806e-04
1.48500000e-01	1.94127951e-02	3.55445572e-04
1.49000000e-01	1.96279728e-02	3.60223255e-04
1.49500000e-01	1.92031304e-02	3.51089440e-04
1.50000000e-01	1.92320595e-02	3.51170141e-04
1.50500000e-01	1.93040091e-02	3.53262062e-04
1.51000000e-01	1.91716260e-02	3.50846888e-04
1.51500000e-01	1.93496509e-02	3.51752603e-04
1.52000000e-01	1.90034589e-02	3.44417112e-04
1.52500000e-01	1.93613560e-02	3.50612935e-04
1.53000000e-01	1.92247774e-02	3.46203890e-04
1.53500000e-01	1.88683660e-02	3.42477273e-04
1.54000000e-01	1.94141634e-02	3.48634743e-04
1.54500000e-01	1.91354977e-02	3.52574810e-04
1.55000000e-01	1.92413607e-02	3.58754204e-04
1.55500000e-01	1.92751715e-02	3.61451869e-04
1.56000000e-01	1.91790468e-02	3.61199572e-04
1.56500000e-01	1.91183987e-02	3.61293751e-04
1.57000000e-01	1.92655754e-02	3.62525910e-04
1.57500000e-01	1.90144448e-02	3.52476750e-04
1.58000000e-01	1.89376942e-02	3.44422307e-04
1.58500000e-01	1.90449772e-02	3.43814985e-04
1.59000000e-01	1.91033863e-02	3.44595140e-04
1.59500000e-01	1.90538214e-02	3.42380170e-04
1.60000000e-01	1.92447570e-02	3.46170222e-04
1.60500000e-01	1.92751066e-02	3.45676021e-04
1.61000000e-01	1.90744691e-02	3.40689243e-04
1.61500000e-01	1.88395333e-02	3.35304886e-04
1.62000000e-01	1.90427143e-02	3.38845819e-04
1.62500000e-01	1.93317735e-02	3.41980380e-04
1.63000000e-01	1.90278831e-02	3.36334963e-04
1.63500000e-01	1.90434972e-02	3.37583441e-04
1.64000000e-01	1.89993210e-02	3.36377131e-04
1.64500000e-01	1.89083749e-02	3.33691254e-04
1.65000000e-01	1.90852076e-02	3.35286453e-04
1.65500000e-01	1.90314632e-02	3.34735055e-04
1.66000000e-01	1.88927168e-02	3.33575814e-04
1.66500000e-01	1.90766651e-02	3.34255421e-04
1.67000000e-01	1.87872629e-02	3.29838311e-04
1.67500000e-01	1.85930844e-02	3.26375289e-04
1.68000000e-01	1.87697327e-02	3.27762936e-04
1.68500000e-01	1.87016488e-02	3.25268948e-04
1.69000000e-01	1.92129877e-02	3.32998572e-04
1.69500000e-01	1.87678435e-02	3.25522026e-04
1.70000000e-01	1.92501951e-02	3.32122383e-04
1.70500000e-01	1.85022531e-02	3.20330268e-04
1.71000000e-01	1.91058218e-02	3.30147732e-04
1.71500000e-01	1.87895775e-02	3.24659504e-04
1.72000000e-01	1.87793325e-02	3.22888951e-04
1.72500000e-01	1.88804501e-02	3.24886451e-04
1.73000000e-01	1.87381950e-02	3.20413527e-04
1.73500000e-01	1.86932410e-02	3.18631262e-04
1.74000000e-01	1.88893075e-02	3.22547786e-04
1.74500000e-01	1.88050804e-02	3.20832817e-04
1.75000000e-01	1.89811866e-02	3.22301308e-04
1.75500000e-01	1.88979935e-02	3.19991320e-04
1.76000000e-01	1.88713346e-02	3.18440297e-04
1.76500000e-01	1.86637434e-02	3.15255103e-04
1.77000000e-01	1.87738164e-02	3.17620868e-04
1.77500000e-01	1.88087608e-02	3.19306915e-04
1.78000000e-01	1.88775952e-02	3.19653215e-04
1.78500000e-01	1.86355095e-02	3.14141293e-04
1.79000000e-01	1.87759363e-02	3.16590060e-04
1.79500000e-01	1.87216461e-02	3.15598311e-04
1.80000000e-01	1.86722740e-02	3.14654246e-04
1.80500000e-01	1.86008821e-02	3.13034319e-04
1.81000000e-01	1.85448503e-02	3.12108620e-04
1.81500000e-01	1.88737727e-02	3.14958815e-04
1.82000000e-01	1.85351621e-02	3.10498493e-04
1.82500000e-01	1.89731540e-02	3.15682534e-04
1.83000000e-01	1.86037988e-02	3.11455739e-04
1.83500000e-01	1.86073180e-02	3.10413131e-04
1.84000000e-01	1.84716316e-02	3.08662404e-04
1.84500000e-01	1.86873318e-02	3.10177103e-04
1.85000000e-01	1.85605702e-02	3.09215573e-04
1.85500000e-01	1.86490047e-02	3.10543109e-04
1.86000000e-01	1.84764194e-02	3.07335610e-04
1.86500000e-01	1.87085396e-02	3.09005702e-04
1.87000000e-01	1.86778707e-02	3.09176684e-04
1.87500000e-01	1.85445909e-02	3.05740798e-04
1.88000000e-01	1.86687462e-02	3.06875672e-04
1.88500000e-01	1.85622466e-02	3.06364513e-04
1.89000000e-01	1.87900321e-02	3.09962531e-04
1.89500000e-01	1.87624221e-02	3.07776729e-04
1.90000000e-01	1.85846996e-02	3.03852891e-04
1.90500000e-01	1.82040234e-02	2.98248755e-04
1.91000000e-01	1.86486816e-02	3.04708337e-04
1.91500000e-01	1.82570535e-02	2.99511607e-04
1.92000000e-01	1.87181784e-02	3.04315941e-04
1.92500000e-01	1.84589850e-02	3.01176146e-04
1.93000000e-01	1.86256912e-02	3.04023865e-04
1.93500000e-01	1.84160330e-02	2.98700637e-04
1.94000000e-01	1.81909910e-02	2.95604288e-04
1.94500000e-01	1.83870268e-02	2.98721431e-04
1.95000000e-01	1.85677027e-02	3.00824414e-04
1.95500000e-01	1.83349140e-02	2.95546581e-04
1.96000000e-01	1.83247708e-02	2.97191326e-04
1.96500000e-01	1.83638700e-02	2.96709176e-04
1.97000000e-01	1.84244277e-02	2.97646051e-04
1.97500000e-01	1.87308932e-02	3.01389361e-04
1.98000000e-01	1.81936490e-02	2.92517337e-04
1.98500000e-01	1.85193865e-02	2.98160699e-04
1.99000000e-01	1.83923767e-02	2.94719324e-04
1.99500000e-01	1.81655758e-02	2.91137758e-04
2.00000000e-01	1.84566319e-02	2.95102021e-04
2.00500000e-01	1.82619910e-02	2.92960075e-04
2.01000000e-01	1.83521712e-02	2.92008223e-04
2.01500000e-01	1.82320147e-02	2.91022658e-04
2.02000000e-01	1.83902225e-02	2.92385821e-04
2.02500000e-01	1.82510460e-02	2.89482165e-04
2.03000000e-01	1.83041671e-02	2.90876325e-04
2.03500000e-01	1.81531435e-02	2.89170974e-04
2.04000000e-01	1.82616064e-02	2.89580826e-04
2.04500000e-01	1.83056681e-02	2.90995103e-04
2.05000000e-01	1.82463606e-02	2.87532561e-04
2.05500000e-01	1.81809333e-02	2.87518859e-04
2.06000000e-01	1.81943866e-02	2.87619888e-04
2.06500000e-01	1.81425964e-02	2.86322846e-04
2.07000000e-01	1.83609975e-02	2.88492993e-04
2.07500000e-01	1.82479422e-02	2.86205454e-04
2.08000000e-01	1.81728023e-02	2.85935661e-04
2.08500000e-01	1.82318598e-02	2.85883174e-04
2.09000000e-01	1.81134249e-02	2.84059928e-04
2.09500000e-01	1.82815827e-02	2.85280578e-04
2.10000000e-01	1.79389647e-02	2.80808283e-04
2.10500000e-01	1.82206888e-02	2.85352695e-04
2.11000000e-01	1.79480709e-02	2.79250287e-04
2.11500000e-01	1.82504719e-02	2.84256686e-04
2.12000000e-01	1.81085127e-02	2.83174067e-04
2.12500000e-01	1.78425402e-02	2.78015112e-04
2.13000000e-01	1.80480490e-02	2.80774640e-04
2.13500000e-01	1.78985844e-02	2.77328667e-04
2.14000000e-01	1.79634762e-02	2.80330724e-04
2.14500000e-01	1.80129102e-02	2.78579480e-04
2.15000000e-01	1.80232861e-02	2.79876942e-04
2.15500000e-01	1.80648029e-02	2.78660753e-04
2.16000000e-01	1.80461466e-02	2.77938989e-04
2.16500000e-01	1.80539046e-02	2.78246130e-04
2.17000000e-01	1.80828321e-02	2.83101084e-04
2.17500000e-01	1.82350885e-02	2.88938400e-04
2.18000000e-01	1.80855834e-02	2.87462853e-04
2.18500000e-01	1.80028487e-02	2.88626140e-04
2.19000000e-01	1.79531340e-02	2.87907017e-04
2.19500000e-01	1.79603760e-02	2.89359429e-04
2.20000000e-01	1.77229265e-02	2.87471391e-04
2.20500000e-01	1.79896227e-02	2.91198451e-04
2.21000000e-01	1.78020447e-02	2.90050023e-04
2.21500000e-01	1.78674327e-02	2.92946346e-04
2.22000000e-01	1.79546101e-02	2.93646065e-04
2.22500000e-01	1.80890531e-02	2.94830558e-04
2.23000000e-01	1.80269171e-02	2.95994757e-04
2.23500000e-01	1.80300243e-02	2.98721530e-04
2.24000000e-01	1.79723063e-02	2.96372251e-04
2.24500000e-01	1.78602202e-02	2.97243523e-04
2.25000000e-01	1.78206328e-02	2.97534799e-04
2.25500000e-01	1.82072960e-02	3.01226715e-04
2.26000000e-01	1.79332850e-02	2.98520413e-04
2.26500000e-01	1.78877568e-02	2.92063391e-04
2.27000000e-01	1.77680584e-02	2.88944423e-04
2.27500000e-01	1.80579396e-02	2.89407954e-04
2.28000000e-01	1.78727691e-02	2.87332206e-04
2.28500000e-01	1.80836615e-02	2.87850133e-04
2.29000000e-01	1.81576369e-02	2.88517656e-04
2.29500000e-01	1.79168458e-02	2.83412996e-04
2.30000000e-01	1.76074571e-02	2.78343425e-04
2.30500000e-01	1.77608398e-02	2.79950057e-04
2.31000000e-01	1.78156306e-02	2.80901972e-04
2.31500000e-01	1.78771298e-02	2.79078392e-04
2.32000000e-01	1.76525112e-02	2.76791059e-04
2.32500000e-01	1.78893517e-02	2.78618022e-04
2.33000000e-01	1.79247868e-02	2.77852034e-04
2.33500000e-01	1.79588755e-02	2.78070328e-04
2.34000000e-01	1.78351730e-02	2.76280694e-04
2.34500000e-01	1.79888843e-02	2.76167779e-04
2.35000000e-01	1.79071011e-02	2.76216077e-04
2.35500000e-01	1.76578908e-02	2.71332776e-04
2.36000000e-01	1.78238820e-02	2.74425200e-04
2.36500000e-01	1.77395629e-02	2.72669722e-04
2.37000000e-01	1.78187645e-02	2.72760952e-04
2.37500000e-01	1.76465463e-02	2.70497593e-04
2.38000000e-01	1.77836018e-02	2.69494908e-04
2.38500000e-01	1.74728354e-02	2.66895122e-04
2.39000000e-01	1.75021843e-02	2.66698121e-04
2.39500000e-01	1.76991140e-02	2.69508956e-04
2.40000000e-01	1.78399351e-02	2.70457659e-04
2.40500000e-01	1.73420418e-02	2.62112089e-04
2.41000000e-01	1.76186493e-02	2.66887875e-04
2.41500000e-01	1.77002717e-02	2.66482075e-04
2.42000000e-01	1.77647969e-02	2.67848329e-04
2.42500000e-01	1.77059387e-02	2.66641791e-04
2.43000000e-01	1.77467540e-02	2.66943675e-04
2.43500000e-01	1.73809640e-02	2.60970367e-04
2.44000000e-01	1.75580671e-02	2.62196860e-04
2.44500000e-01	1.75621536e-02	2.64669450e-04
2.45000000e-01	1.72946780e-02	2.59491755e-04
2.45500000e-01	1.74909970e-02	2.60604007e-04
2.46000000e-01	1.74073757e-02	2.61422901e-04
2.46500000e-01	1.77090886e-02	2.63497508e-04
2.47000000e-01	1.76697888e-02	2.62846288e-04
2.47500000e-01	1.75434246e-02	2.59676688e-04
2.48000000e-01	1.75671961e-02	2.59821825e-04
2.48500000e-01	1.74151636e-02	2.57837056e-04
2.49000000e-01	1.71589530e-02	2.54082878e-04
2.49500000e-01	1.73292212e-02	2.57567006e-04
2.50000000e-01	1.75268449e-02	2.58214191e-04
2.50500000e-01	1.74399806e-02	2.58779044e-04
2.51000000e-01	1.74560496e-02	2.57459088e-04
2.51500000e-01	1.76922485e-02	2.59790794e-04
2.52000000e-01	1.72533841e-02	2.54410425e-04
2.52500000e-01	1.73221250e-02	2.55068656e-04
2.53000000e-01	1.75081452e-02	2.56139337e-04
2.53500000e-01	1.71582231e-02	2.50953637e-04
2.54000000e-01	1.76123461e-02	2.57629873e-04
2.54500000e-01	1.76067710e-02	2.56611670e-04
2.55000000e-01	1.75278774e-02	2.56036526e-04
2.55500000e-01	1.74910696e-02	2.55121696e-04
2.56000000e-01	1.72882748e-02	2.52899247e-04
2.56500000e-01	1.74904573e-02	2.55140656e-04
2.57000000e-01	1.73956185e-02	2.52586404e-04
2.57500000e-01	1.72115533e-02	2.50435430e-04
2.58000000e-01	1.73297879e-02	2.51638523e-04
2.58500000e-01	1.73550315e-02	2.51556486e-04
2.59000000e-01	1.73411510e-02	2.51502223e-04
2.59500000e-01	1.70941781e-02	2.47103788e-04
2.60000000e-01	1.73395369e-02	2.51044697e-04
2.60500000e-01	1.73764141e-02	2.51135438e-04
2.61000000e-01	1.72057097e-02	2.47608628e-04
2.61500000e-01	1.72822337e-02	2.49872427e-04
2.62000000e-01	1.71872346e-02	2.46457193e-04
2.62500000e-01	1.72145179e-02	2.48199317e-04
2.63000000e-01	1.71444557e-02	2.45563215e-04
2.63500000e-01	1.73077476e-02	2.49111134e-04
2.64000000e-01	1.73354981e-02	2.47904820e-04
2.64500000e-01	1.72994851e-02	2.48497760e-04
2.65000000e-01	1.72612166e-02	2.47145014e-04
2.65500000e-01	1.70264488e-02	2.44464470e-04
2.66000000e-01	1.72709414e-02	2.47861154e-04
2.66500000e-01	1.70214072e-02	2.43067269e-04
2.67000000e-01	1.71509722e-02	2.43679783e-04
2.67500000e-01	1.71881129e-02	2.44454624e-04
2.68000000e-01	1.72265881e-02	2.44258846e-04
2.68500000e-01	1.74510383e-02	2.47432264e-04
2.69000000e-01	1.72616598e-02	2.44609453e-04
2.69500000e-01	1.72982215e-02	2.45260960e-04
2.70000000e-01	1.72558374e-02	2.44006533e-04
2.70500000e-01	1.72850636e-02	2.44686292e-04
2.71000000e-01	1.70530774e-02	2.40832422e-04
2.71500000e-01	1.72081920e-02	2.42880089e-04
2.72000000e-01	1.71495548e-02	2.40811210e-04
2.72500000e-01	1.70144767e-02	2.40227482e-04
2.73000000e-01	1.70181987e-02	2.39600649e-04
2.73500000e-01	1.70164023e-02	2.39965519e-04
2.74000000e-01	1.69449852e-02	2.39035566e-04
2.74500000e-01	1.72160375e-02	2.41017595e-04
2.75000000e-01	1.70228630e-02	2.38563762e-04
2.75500000e-01	1.71852374e-02	2.40826620e-04
2.76000000e-01	1.69922994e-02	2.38382077e-04
2.76500000e-01	1.69745062e-02	2.38378188e-04
2.77000000e-01	1.71643691e-02	2.39611957e-04
2.77500000e-01	1.71402841e-02	2.39301722e-04
2.78000000e-01	1.70428399e-02	2.37842284e-04
2.78500000e-01	1.69031862e-02	2.37326554e-04
2.79000000e-01	1.71065324e-02	2.39156026e-04
2.79500000e-01	1.69775880e-02	2.36081692e-04
2.80000000e-01	1.69917693e-02	2.36536980e-04
2.80500000e-01	1.72052015e-02	2.38235129e-04
2.81000000e-01	1.69246781e-02	2.35402960e-04
2.81500000e-01	1.68616245e-02	2.33900891e-04
2.82000000e-01	1.71230148e-02	2.37148369e-04
2.82500000e-01	1.71511470e-02	2.37598169e-04
2.83000000e-01	1.70723260e-02	2.36444011e-04
2.83500000e-01	1.70316601e-02	2.35064234e-04
2.84000000e-01	1.68626492e-02	2.32340867e-04
2.84500000e-01	1.70474225e-02	2.34690307e-04
2.85000000e-01	1.71910023e-02	2.37118471e-04
2.85500000e-01	1.69592662e-02	2.33032638e-04
2.86000000e-01	1.70934743e-02	2.36053814e-04
2.86500000e-01	1.69066333e-02	2.32490705e-04
2.87000000e-01	1.70678110e-02	2.33534544e-04
2.87500000e-01	1.67542205e-02	2.30555075e-04
2.88000000e-01	1.69545200e-02	2.31617739e-04
2.88500000e-01	1.69053531e-02	2.31103139e-04
2.89000000e-01	1.69981201e-02	2.32011787e-04
2.89500000e-01	1.68934751e-02	2.31156318e-04
2.90000000e-01	1.70209847e-02	2.31372443e-04
2.90500000e-01	1.68169449e-02	2.29739925e-04
2.91000000e-01	1.66428137e-02	2.26686660e-04
2.91500000e-01	1.69000598e-02	2.30019361e-04
2.92000000e-01	1.68409901e-02	2.29210873e-04
2.92500000e-01	1.66546282e-02	2.25976732e-04
2.93000000e-01	1.71118794e-02	2.31731216e-04
2.93500000e-01	1.67204438e-02	2.27304931e-04
2.94000000e-01	1.67782771e-02	2.27309774e-04
2.94500000e-01	1.69281211e-02	2.29094551e-04
2.95000000e-01	1.67517185e-02	2.26598546e-04
2.95500000e-01	1.68864533e-02	2.28888675e-04
2.96000000e-01	1.67898775e-02	2.27319604e-04
2.96500000e-01	1.67387711e-02	2.25932037e-04
2.97000000e-01	1.67863963e-02	2.27075478e-04
2.97500000e-01	1.67041480e-02	2.24580740e-04
2.98000000e-01	1.67481437e-02	2.25899000e-04
2.98500000e-01	1.66840854e-02	2.24137133e-04
2.99000000e-01	1.68357902e-02	2.25971124e-04
2.99500000e-01	1.66957246e-02	2.23757773e-04
3.00000000e-01	1.68427059e-02	2.25590076e-04
3.00500000e-01	1.66809562e-02	2.23660372e-04
3.01000000e-01	1.67798988e-02	2.24415389e-04
3.01500000e-01	1.68481516e-02	2.25293959e-04
3.02000000e-01	1.67992637e-02	2.24126619e-04
3.02500000e-01	1.66821488e-02	2.23201516e-04
3.03000000e-01	1.68342456e-02	2.25006565e-04
3.03500000e-01	1.67017072e-02	2.22206593e-04
3.04000000e-01	1.68494195e-02	2.24731006e-04
3.04500000e-01	1.67771437e-02	2.22559056e-04
3.05000000e-01	1.66346221e-02	2.22058194e-04
3.05500000e-01	1.68271710e-02	2.23655471e-04
3.06000000e-01	1.68067227e-02	2.22113660e-04
3.06500000e-01	1.67559949e-02	2.22566217e-04
3.07000000e-01	1.67773770e-02	2.21766733e-04
3.07500000e-01	1.67442037e-02	2.22149463e-04
3.08000000e-01	1.66116667e-02	2.20376385e-04
3.08500000e-01	1.65530646e-02	2.19019440e-04
3.09000000e-01	1.64957690e-02	2.18247266e-04
3.09500000e-01	1.65355390e-02	2.18308303e-04
3.10000000e-01	1.63793436e-02	2.16598775e-04
3.10500000e-01	1.65648403e-02	2.18205139e-04
3.11000000e-01	1.63583952e-02	2.16511865e-04
3.11500000e-01	1.66970862e-02	2.20571792e-04
3.12000000e-01	1.65732146e-02	2.17848050e-04
3.12500000e-01	1.64356644e-02	2.16296507e-04
3.13000000e-01	1.65472788e-02	2.16857087e-04
3.13500000e-01	1.66195000e-02	2.17632384e-04
3.14000000e-01	1.64364405e-02	2.15689375e-04
3.14500000e-01	1.66419741e-02	2.17698050e-04
3.15000000e-01	1.63455559e-02	2.14775639e-04
3.15500000e-01	1.64790073e-02	2.15251555e-04
3.16000000e-01	1.64945480e-02	2.15584847e-04
3.16500000e-01	1.64569600e-02	2.14942011e-04
3.17000000e-01	1.65640781e-02	2.17193712e-04
3.17500000e-01	1.63893891e-02	2.14337296e-04
3.18000000e-01	1.65319195e-02	2.16174726e-04
3.18500000e-01	1.65391559e-02	2.16318775e-04
3.19000000e-01	1.66512961e-02	2.16119173e-04
3.19500000e-01	1.64421946e-02	2.13611854e-04
3.20000000e-01	1.65603986e-02	2.15838109e-04
3.20500000e-01	1.65867376e-02	2.15029358e-04
3.21000000e-01	1.63808929e-02	2.12475952e-04
3.21500000e-01	1.62640579e-02	2.11011308e-04
3.22000000e-01	1.63243768e-02	2.11894112e-04
3.22500000e-01	1.60599013e-02	2.09443633e-04
3.23000000e-01	1.61775715e-02	2.09043090e-04
3.23500000e-01	1.64041119e-02	2.12847441e-04
3.24000000e-01	1.62183156e-02	2.08788408e-04
3.24500000e-01	1.61777393e-02	2.09442399e-04
3.25000000e-01	1.63661543e-02	2.10865894e-04
3.25500000e-01	1.62082618e-02	2.09292032e-04
3.26000000e-01	1.63250311e-02	2.09193879e-04
3.26500000e-01	1.62647556e-02	2.09898189e-04
3.27000000e-01	1.61521034e-02	2.08462768e-04
3.27500000e-01	1.61815143e-02	2.08089847e-04
3.28000000e-01	1.64088923e-02	2.11714570e-04
3.28500000e-01	1.63381733e-02	2.09921390e-04
3.29000000e-01	1.61140725e-02	2.06856156e-04
3.29500000e-01	1.62612289e-02	2.09524346e-04
3.30000000e-01	1.64228152e-02	2.09989350e-04
3.30500000e-01	1.59223078e-02	2.05163632e-04
3.31000000e-01	1.63459689e-02	2.08439165e-04
3.31500000e-01	1.64768974e-02	2.09287518e-04
3.32000000e-01	1.62104895e-02	2.08563572e-04
3.32500000e-01	1.60468499e-02	2.05219020e-04
3.33000000e-01	1.63922103e-02	2.09087296e-04
3.33500000e-01	1.61186652e-02	2.05593222e-04
3.34000000e-01	1.62066740e-02	2.06088159e-04
3.34500000e-01	1.61910613e-02	2.06274480e-04
3.35000000e-01	1.60621646e-02	2.03987731e-04
3.35500000e-01	1.61390939e-02	2.05658070e-04
3.36000000e-01	1.60561932e-02	2.03877790e-04
3.36500000e-01	1.60832508e-02	2.03910953e-04
3.37000000e-01	1.62020185e-02	2.05474693e-04
3.37500000e-01	1.60646513e-02	2.04196940e-04
3.38000000e-01	1.59723308e-02	2.02633043e-04
3.38500000e-01	1.61156449e-02	2.04501777e-04
3.39000000e-01	1.60134259e-02	2.03446463e-04
3.39500000e-01	1.59986988e-02	2.01938840e-04
3.40000000e-01	1.59544336e-02	2.02760195e-04
3.40500000e-01	1.59334637e-02	2.01564251e-04
3.41000000e-01	1.60880417e-02	2.03023403e-04
3.41500000e-01	1.59910339e-02	2.02716232e-04
3.42000000e-01	1.61536968e-02	2.03659088e-04
3.42500000e-01	1.60054193e-02	2.01474251e-04
3.43000000e-01	1.58534305e-02	1.99947579e-04
3.43500000e-01	1.59742273e-02	2.00481585e-04
3.44000000e-01	1.59707511e-02	2.00780128e-04
3.44500000e-01	1.60024253e-02	2.00464080e-04
3.45000000e-01	1.58258067e-02	1.98581547e-04
3.45500000e-01	1.57949901e-02	1.97888646e-04
3.46000000e-01	1.59675458e-02	2.00245299e-04
3.46500000e-01	1.59491345e-02	2.00171527e-04
3.47000000e-01	1.58691539e-02	1.97765797e-04
3.47500000e-01	1.58875188e-02	1.98523247e-04
3.48000000e-01	1.60029010e-02	2.00335826e-04
3.48500000e-01	1.58019791e-02	1.97873645e-04
3.49000000e-01	1.58388175e-02	1.97592759e-04
3.49500000e-01	1.58024454e-02	1.97562937e-04
3.50000000e-01	1.58702381e-02	1.61281479e-04
3.51000000e-01	1.58852107e-02	1.40189832e-04
3.52000000e-01	1.58384668e-02	1.39428403e-04
3.53000000e-01	1.57623701e-02	1.38003126e-04
3.54000000e-01	1.59060159e-02	1.39167906e-04
3.55000000e-01	1.57320491e-02	1.38159407e-04
3.56000000e-01	1.57524458e-02	1.38536945e-04
3.57000000e-01	1.58210225e-02	1.41289845e-04
3.58000000e-01	1.57441544e-02	1.41789026e-04
3.59000000e-01	1.56681683e-02	1.42125451e-04
3.60000000e-01	1.56889266e-02	1.43346664e-04
3.61000000e-01	1.56406153e-02	1.43745913e-04
3.62000000e-01	1.56214710e-02	1.44312301e-04
3.63000000e-01	1.55925570e-02	1.44667787e-04
3.64000000e-01	1.56987751e-02	1.45822456e-04
3.65000000e-01	1.54879773e-02	1.44695878e-04
3.66000000e-01	1.55071126e-02	1.43195878e-04
3.67000000e-01	1.56101499e-02	1.41633383e-04
3.68000000e-01	1.55024088e-02	1.40287121e-04
3.69000000e-01	1.56956025e-02	1.40805465e-04
3.70000000e-01	1.55980235e-02	1.39701666e-04
3.71000000e-01	1.55744683e-02	1.41052666e-04
3.72000000e-01	1.55225697e-02	1.41698952e-04
3.73000000e-01	1.55000639e-02	1.41922693e-04
3.74000000e-01	1.55625400e-02	1.42237447e-04
3.75000000e-01	1.54854168e-02	1.41286093e-04
3.76000000e-01	1.55590811e-02	1.42543979e-04
3.77000000e-01	1.53188019e-02	1.40584372e-04
3.78000000e-01	1.52979294e-02	1.40250033e-04
3.79000000e-01	1.54932869e-02	1.41673123e-04
3.80000000e-01	1.53501837e-02	1.39875205e-04
3.81000000e-01	1.52477751e-02	1.39610888e-04
3.82000000e-01	1.52632016e-02	1.39518582e-04
3.83000000e-01	1.53594128e-02	1.40243708e-04
3.84000000e-01	1.54103591e-02	1.40587959e-04
3.85000000e-01	1.53317693e-02	1.40002311e-04
3.86000000e-01	1.53414477e-02	1.39973158e-04
3.87000000e-01	1.54031304e-02	1.40500902e-04
3.88000000e-01	1.53660256e-02	1.40171723e-04
3.89000000e-01	1.53188473e-02	1.39940824e-04
3.90000000e-01	1.52311226e-02	1.39018037e-04
3.91000000e-01	1.53352578e-02	1.39584664e-04
3.92000000e-01	1.53010463e-02	1.39173692e-04
3.93000000e-01	1.52231296e-02	1.38652854e-04
3.94000000e-01	1.53263436e-02	1.39612844e-04
3.95000000e-01	1.53524272e-02	1.39609748e-04
3.96000000e-01	1.52365580e-02	1.38745293e-04
3.97000000e-01	1.52103595e-02	1.38372137e-04
3.98000000e-01	1.52241368e-02	1.38786761e-04
3.99000000e-01	1.51272002e-02	1.37809957e-04
4.00000000e-01	1.50992029e-02	1.37759327e-04
4.01000000e-01	1.51252996e-02	1.37648954e-04
4.02000000e-01	1.51853314e-02	1.38142660e-04
4.03000000e-01	1.50843757e-02	1.37052754e-04
4.04000000e-01	1.50495047e-02	1.37286303e-04
4.05000000e-01	1.50860324e-02	1.37320804e-04
4.06000000e-01	1.49893401e-02	1.36699148e-04
4.07000000e-01	1.51448625e-02	1.37659439e-04
4.08000000e-01	1.49997054e-02	1.36358155e-04
4.09000000e-01	1.50361470e-02	1.36613810e-04
4.10000000e-01	1.50784493e-02	1.37048061e-04
4.11000000e-01	1.49327521e-02	1.35729341e-04
4.12000000e-01	1.48501478e-02	1.34992716e-04
4.13000000e-01	1.49906176e-02	1.35820885e-04
4.14000000e-01	1.49883923e-02	1.35753888e-04
4.15000000e-01	1.49925647e-02	1.36085388e-04
4.16000000e-01	1.49498926e-02	1.35262607e-04
4.17000000e-01	1.49498727e-02	1.35501629e-04
4.18000000e-01	1.48898961e-02	1.36628261e-04
4.19000000e-01	1.49578210e-02	1.38668260e-04
4.20000000e-01	1.50141346e-02	1.39783866e-04
4.21000000e-01	1.49918476e-02	1.40184402e-04
4.22000000e-01	1.50647591e-02	1.41130899e-04
4.23000000e-01	1.50145928e-02	1.41440710e-04
4.24000000e-01	1.49058167e-02	1.40712093e-04
4.25000000e-01	1.49329349e-02	1.41275278e-04
4.26000000e-01	1.49584449e-02	1.41836948e-04
4.27000000e-01	1.49738800e-02	1.41121751e-04
4.28000000e-01	1.48856635e-02	1.41393668e-04
4.29000000e-01	1.50492294e-02	1.42903924e-04
4.30000000e-01	1.49103358e-02	1.41382422e-04
4.31000000e-01	1.49600938e-02	1.42108708e-04
4.32000000e-01	1.46979859e-02	1.39549678e-04
4.33000000e-01	1.48827242e-02	1.41454014e-04
4.34000000e-01	1.47553130e-02	1.40395185e-04
4.35000000e-01	1.50267596e-02	1.42703971e-04
4.36000000e-01	1.47155058e-02	1.40568837e-04
4.37000000e-01	1.49221631e-02	1.42692101e-04
4.38000000e-01	1.48057444e-02	1.41833999e-04
4.39000000e-01	1.47357826e-02	1.41152084e-04
4.40000000e-01	1.48434081e-02	1.42265737e-04
4.41000000e-01	1.47699181e-02	1.41692098e-04
4.42000000e-01	1.47521226e-02	1.41721429e-04
4.43000000e-01	1.48242337e-02	1.42463817e-04
4.44000000e-01	1.47521927e-02	1.42281455e-04
4.45000000e-01	1.47082375e-02	1.42158492e-04
4.46000000e-01	1.46527239e-02	1.41393386e-04
4.47000000e-01	1.47784757e-02	1.42774148e-04
4.48000000e-01	1.46937357e-02	1.42481954e-04
4.49000000e-01	1.48353905e-02	1.44326554e-04
4.50000000e-01	1.45619984e-02	1.41465208e-04
4.51000000e-01	1.46482365e-02	1.41974069e-04
4.52000000e-01	1.47375371e-02	1.43137729e-04
4.53000000e-01	1.45762942e-02	1.42070609e-04
4.54000000e-01	1.46176700e-02	1.42033184e-04
4.55000000e-01	1.46377432e-02	1.42592310e-04
4.56000000e-01	1.46215312e-02	1.42438743e-04
4.57000000e-01	1.46198921e-02	1.42677803e-04
4.58000000e-01	1.46757909e-02	1.43309799e-04
4.59000000e-01	1.46649642e-02	1.43369823e-04
4.60000000e-01	1.46160159e-02	1.42972652e-04
4.61000000e-01	1.45678434e-02	1.43256550e-04
4.62000000e-01	1.46969448e-02	1.43815902e-04
4.63000000e-01	1.45328447e-02	1.42671907e-04
4.64000000e-01	1.46210890e-02	1.43625885e-04
4.65000000e-01	1.47353152e-02	1.44520917e-04
4.66000000e-01	1.45802787e-02	1.43103875e-04
4.67000000e-01	1.45060381e-02	1.42814032e-04
4.68000000e-01	1.46427806e-02	1.43984174e-04
4.69000000e-01	1.46530926e-02	1.44266282e-04
4.70000000e-01	1.44833771e-02	1.42715759e-04
4.71000000e-01	1.44455013e-02	1.42185491e-04
4.72000000e-01	1.45649879e-02	1.44034590e-04
4.73000000e-01	1.44430671e-02	1.42629361e-04
4.74000000e-01	1.45226521e-02	1.42752521e-04
4.75000000e-01	1.44867833e-02	1.42434879e-04
4.76000000e-01	1.44450137e-02	1.42588852e-04
4.77000000e-01	1.44115014e-02	1.42114519e-04
4.78000000e-01	1.44190636e-02	1.42122342e-04
4.79000000e-01	1.43711800e-02	1.42180958e-04
4.80000000e-01	1.42803568e-02	1.41390183e-04
4.81000000e-01	1.42511981e-02	1.41208340e-04
4.82000000e-01	1.43157416e-02	1.41553652e-04
4.83000000e-01	1.43160259e-02	1.41256939e-04
4.84000000e-01	1.43023616e-02	1.41870769e-04
4.85000000e-01	1.44405581e-02	1.43054778e-04
4.86000000e-01	1.43601502e-02	1.41789997e-04
4.87000000e-01	1.42484882e-02	1.41629333e-04
4.88000000e-01	1.42875633e-02	1.41374558e-04
4.89000000e-01	1.43133831e-02	1.42186302e-04
4.90000000e-01	1.43912997e-02	1.43138576e-04
4.91000000e-01	1.44209902e-02	1.42930247e-04
4.92000000e-01	1.43141182e-02	1.42026535e-04
4.93000000e-01	1.43540320e-02	1.42946352e-04
4.94000000e-01	1.42429223e-02	1.41554424e-04
4.95000000e-01	1.42635367e-02	1.43021582e-04
4.96000000e-01	1.41745609e-02	1.46513109e-04
4.97000000e-01	1.43296485e-02	1.50758238e-04
4.98000000e-01	1.42735092e-02	1.51469455e-04
4.99000000e-01	1.43205834e-02	1.54347858e-04
5.00000000e-01	1.41564872e-02	1.54213185e-04
5.01000000e-01	1.41781057e-02	1.56090700e-04
5.02000000e-01	1.43230979e-02	1.58568306e-04
5.03000000e-01	1.42706109e-02	1.59917392e-04
5.04000000e-01	1.42558767e-02	1.61010502e-04
5.05000000e-01	1.39824915e-02	1.55731828e-04
5.06000000e-01	1.42124012e-02	1.54917328e-04
5.07000000e-01	1.42681729e-02	1.53713169e-04
5.08000000e-01	1.40813630e-02	1.51049113e-04
5.09000000e-01	1.41959670e-02	1.51337221e-04
5.10000000e-01	1.41528326e-02	1.50438283e-04
5.11000000e-01	1.43107608e-02	1.50957057e-04
5.12000000e-01	1.43250526e-02	1.51422154e-04
5.13000000e-01	1.42661598e-02	1.50835323e-04
5.14000000e-01	1.41906942e-02	1.49035366e-04
5.15000000e-01	1.42086621e-02	1.49132242e-04
5.16000000e-01	1.42349413e-02	1.49076650e-04
5.17000000e-01	1.41225035e-02	1.47765311e-04
5.18000000e-01	1.40089662e-02	1.46617429e-04
5.19000000e-01	1.41054667e-02	1.47166869e-04
5.20000000e-01	1.40358130e-02	1.45773318e-04
5.21000000e-01	1.40953744e-02	1.46389487e-04
5.22000000e-01	1.40366587e-02	1.46333897e-04
5.23000000e-01	1.41600309e-02	1.46617808e-04
5.24000000e-01	1.40952699e-02	1.46208984e-04
5.25000000e-01	1.41168347e-02	1.46399697e-04
5.26000000e-01	1.41182127e-02	1.46472571e-04
5.27000000e-01	1.41599227e-02	1.47071801e-04
5.28000000e-01	1.39823316e-02	1.44529476e-04
5.29000000e-01	1.39954718e-02	1.45040021e-04
5.30000000e-01	1.42040752e-02	1.47237884e-04
5.31000000e-01	1.39478158e-02	1.45085854e-04
5.32000000e-01	1.40269666e-02	1.45554328e-04
5.33000000e-01	1.39855330e-02	1.45190099e-04
5.34000000e-01	1.39861015e-02	1.45068525e-04
5.35000000e-01	1.39765741e-02	1.44899658e-04
5.36000000e-01	1.38716636e-02	1.43979648e-04
5.37000000e-01	1.38724986e-02	1.44160752e-04
5.38000000e-01	1.39420030e-02	1.44477471e-04
5.39000000e-01	1.39596793e-02	1.44971163e-04
5.40000000e-01	1.40271613e-02	1.45610988e-04
5.41000000e-01	1.38219210e-02	1.43702683e-04
5.42000000e-01	1.39020447e-02	1.43848557e-04
5.43000000e-01	1.39514798e-02	1.45083887e-04
5.44000000e-01	1.39072693e-02	1.44429531e-04
5.45000000e-01	1.36117749e-02	1.41968711e-04
5.46000000e-01	1.39685163e-02	1.44664999e-04
5.47000000e-01	1.37405109e-02	1.43190769e-04
5.48000000e-01	1.37659907e-02	1.43074684e-04
5.49000000e-01	1.37645219e-02	1.42717469e-04
5.50000000e-01	1.36878211e-02	1.42361845e-04
5.51000000e-01	1.37393669e-02	1.42117929e-04
5.52000000e-01	1.37045723e-02	1.41400875e-04
5.53000000e-01	1.37051603e-02	1.41783457e-04
5.54000000e-01	1.36873769e-02	1.41261692e-04
5.55000000e-01	1.37107063e-02	1.40911079e-04
5.56000000e-01	1.35566612e-02	1.40257168e-04
5.57000000e-01	1.36993216e-02	1.41462475e-04
5.58000000e-01	1.37368967e-02	1.41900194e-04
5.59000000e-01	1.36925237e-02	1.41400482e-04
5.60000000e-01	1.36373647e-02	1.41035054e-04
5.61000000e-01	1.36595744e-02	1.41076795e-04
5.62000000e-01	1.36842482e-02	1.40851299e-04
5.63000000e-01	1.35730811e-02	1.40416281e-04
5.64000000e-01	1.35843075e-02	1.40249752e-04
5.65000000e-01	1.35295541e-02	1.39668761e-04
5.66000000e-01	1.36464520e-02	1.41315916e-04
5.67000000e-01	1.35895211e-02	1.40488867e-04
5.68000000e-01	1.35665052e-02	1.40405062e-04
5.69000000e-01	1.35278972e-02	1.39605442e-04
5.70000000e-01	1.36915830e-02	1.41486239e-04
5.71000000e-01	1.34030039e-02	1.38396091e-04
5.72000000e-01	1.34664290e-02	1.39192986e-04
5.73000000e-01	1.33973709e-02	1.38537887e-04
5.74000000e-01	1.34025980e-02	1.38431995e-04
5.75000000e-01	1.34751652e-02	1.40233012e-04
5.76000000e-01	1.35740970e-02	1.40568380e-04
5.77000000e-01	1.35147145e-02	1.39450665e-04
5.78000000e-01	1.34833248e-02	1.39847280e-04
5.79000000e-01	1.35933591e-02	1.40440852e-04
5.80000000e-01	1.35300164e-02	1.40469508e-04
5.81000000e-01	1.34646410e-02	1.39711571e-04
5.82000000e-01	1.32857695e-02	1.37818793e-04
5.83000000e-01	1.33557892e-02	1.38786039e-04
5.84000000e-01	1.32935714e-02	1.38036298e-04
5.85000000e-01	1.34457475e-02	1.39873259e-04
5.86000000e-01	1.34808499e-02	1.39616613e-04
5.87000000e-01	1.34476933e-02	1.39288382e-04
5.88000000e-01	1.35349505e-02	1.40226406e-04
5.89000000e-01	1.32166282e-02	1.37793395e-04
5.90000000e-01	1.33325346e-02	1.38072757e-04
5.91000000e-01	1.33064327e-02	1.38317428e-04
5.92000000e-01	1.33529094e-02	1.38510471e-04
5.93000000e-01	1.33482437e-02	1.38666597e-04
5.94000000e-01	1.32878344e-02	1.38309828e-04
5.95000000e-01	1.32986982e-02	1.38269900e-04
5.96000000e-01	1.32856453e-02	1.37974898e-04
5.97000000e-01	1.32601854e-02	1.37588899e-04
5.98000000e-01	1.32752540e-02	1.38239168e-04
5.99000000e-01	1.32394021e-02	1.38048311e-04
6.00000000e-01	1.31242113e-02	1.36862686e-04
6.01000000e-01	1.33062330e-02	1.38445375e-04
6.02000000e-01	1.33457335e-02	1.38501090e-04
6.03000000e-01	1.32858623e-02	1.38309641e-04
6.04000000e-01	1.31802562e-02	1.37072241e-04
6.05000000e-01	1.31975292e-02	1.37371194e-04
6.06000000e-01	1.32423206e-02	1.37662040e-04
6.07000000e-01	1.31665224e-02	1.37305915e-04
6.08000000e-01	1.32132456e-02	1.37694835e-04
6.09000000e-01	1.31345770e-02	1.36974953e-04
6.10000000e-01	1.32232989e-02	1.38053068e-04
6.11000000e-01	1.30959197e-02	1.36575337e-04
6.12000000e-01	1.32484962e-02	1.38073524e-04
6.13000000e-01	1.31006876e-02	1.37269788e-04
6.14000000e-01	1.30795730e-02	1.36662607e-04
6.15000000e-01	1.31441332e-02	1.36987233e-04
6.16000000e-01	1.32505785e-02	1.37929122e-04
6.17000000e-01	1.31800102e-02	1.37233434e-04
6.18000000e-01	1.31476346e-02	1.37170758e-04
6.19000000e-01	1.30539731e-02	1.35942646e-04
6.20000000e-01	1.30947238e-02	1.36232796e-04
6.21000000e-01	1.31411624e-02	1.36563196e-04
6.22000000e-01	1.30981419e-02	1.35896029e-04
6.23000000e-01	1.30361327e-02	1.35295298e-04
6.24000000e-01	1.31181605e-02	1.35580677e-04
6.25000000e-01	1.29654843e-02	1.34551169e-04
6.26000000e-01	1.30858658e-02	1.35611255e-04
6.27000000e-01	1.30369676e-02	1.34897804e-04
6.28000000e-01	1.30676966e-02	1.35124179e-04
6.29000000e-01	1.29685128e-02	1.34435885e-04
6.30000000e-01	1.28610084e-02	1.33776453e-04
6.31000000e-01	1.29624568e-02	1.34629325e-04
6.32000000e-01	1.30811225e-02	1.35192853e-04
6.33000000e-01	1.29753398e-02	1.34404347e-04
6.34000000e-01	1.29051861e-02	1.37211029e-04
6.35000000e-01	1.30130438e-02	1.42512681e-04
6.36000000e-01	1.30414637e-02	1.44861455e-04
6.37000000e-01	1.29053564e-02	1.45992652e-04
6.38000000e-01	1.30650450e-02	1.49364614e-04
6.39000000e-01	1.30078713e-02	1.50956193e-04
6.40000000e-01	1.30238593e-02	1.53296099e-04
6.41000000e-01	1.31083497e-02	1.55201611e-04
6.42000000e-01	1.30727535e-02	1.57398296e-04
6.43000000e-01	1.30760131e-02	1.57278083e-04
6.44000000e-01	1.30402996e-02	1.50861263e-04
6.45000000e-01	1.29968828e-02	1.48353137e-04
6.46000000e-01	1.29556919e-02	1.46361826e-04
6.47000000e-01	1.30594921e-02	1.46103409e-04
6.48000000e-01	1.30208716e-02	1.45558409e-04
6.49000000e-01	1.27998748e-02	1.42444536e-04
6.50000000e-01	1.29349944e-02	1.42363183e-04
6.51000000e-01	1.29764100e-02	1.43144359e-04
6.52000000e-01	1.31177540e-02	1.43132773e-04
6.53000000e-01	1.30086454e-02	1.42458623e-04
6.54000000e-01	1.28829090e-02	1.40371445e-04
6.55000000e-01	1.29739895e-02	1.40722354e-04
6.56000000e-01	1.30878343e-02	1.41919985e-04
6.57000000e-01	1.30204741e-02	1.41175637e-04
6.58000000e-01	1.29550532e-02	1.39862965e-04
6.59000000e-01	1.29577359e-02	1.39860019e-04
6.60000000e-01	1.28171042e-02	1.38700240e-04
6.61000000e-01	1.30249477e-02	1.40470680e-04
6.62000000e-01	1.29904284e-02	1.40143081e-04
6.63000000e-01	1.30076065e-02	1.40105731e-04
6.64000000e-01	1.28137464e-02	1.38447123e-04
6.65000000e-01	1.29429440e-02	1.39555596e-04
6.66000000e-01	1.28921266e-02	1.38202460e-04
6.67000000e-01	1.28414957e-02	1.38515737e-04
6.68000000e-01	1.28374135e-02	1.38176128e-04
6.69000000e-01	1.28885040e-02	1.38564732e-04
6.70000000e-01	1.27972809e-02	1.37400257e-04
6.71000000e-01	1.28636509e-02	1.39006387e-04
6.72000000e-01	1.29140509e-02	1.38568785e-04
6.73000000e-01	1.27819420e-02	1.37430970e-04
6.74000000e-01	1.27290411e-02	1.36866277e-04
6.75000000e-01	1.28525529e-02	1.37978570e-04
6.76000000e-01	1.27002823e-02	1.36596134e-04
6.77000000e-01	1.27425808e-02	1.36744757e-04
6.78000000e-01	1.27665440e-02	1.37146137e-04
6.79000000e-01	1.28691595e-02	1.38117932e-04
6.80000000e-01	1.26657975e-02	1.36234993e-04
6.81000000e-01	1.27273024e-02	1.36164377e-04
6.82000000e-01	1.26597668e-02	1.35590983e-04
6.83000000e-01	1.27499591e-02	1.37055820e-04
6.84000000e-01	1.26972799e-02	1.36288831e-04
6.85000000e-01	1.28253625e-02	1.37860814e-04
6.86000000e-01	1.26775496e-02	1.36161232e-04
6.87000000e-01	1.27729676e-02	1.36564431e-04
6.88000000e-01	1.28685416e-02	1.37928641e-04
6.89000000e-01	1.26802699e-02	1.35757695e-04
6.90000000e-01	1.26033948e-02	1.35117685e-04
6.91000000e-01	1.27197786e-02	1.36179649e-04
6.92000000e-01	1.27797000e-02	1.36641005e-04
6.93000000e-01	1.26354725e-02	1.35046489e-04
6.94000000e-01	1.25817238e-02	1.34500690e-04
6.95000000e-01	1.25297797e-02	1.34463762e-04
6.96000000e-01	1.26545817e-02	1.35534849e-04
6.97000000e-01	1.27058653e-02	1.35517207e-04
6.98000000e-01	1.26588338e-02	1.35772539e-04
6.99000000e-01	1.25175849e-02	1.34269952e-04
7.00000000e-01	1.24212065e-02	1.33227138e-04
7.01000000e-01	1.25383490e-02	1.34424723e-04
7.02000000e-01	1.24477899e-02	1.33942388e-04
7.03000000e-01	1.26345384e-02	1.35172887e-04
7.04000000e-01	1.27029509e-02	1.35964806e-04
7.05000000e-01	1.25482958e-02	1.34687288e-04
7.06000000e-01	1.25877603e-02	1.34664572e-04
7.07000000e-01	1.26108665e-02	1.34667964e-04
7.08000000e-01	1.24225794e-02	1.32358218e-04
7.09000000e-01	1.24857435e-02	1.33460030e-04
7.10000000e-01	1.25583930e-02	1.34447162e-04
7.11000000e-01	1.23910578e-02	1.32784329e-04
7.12000000e-01	1.25134486e-02	1.33620998e-04
7.13000000e-01	1.24332719e-02	1.33074583e-04
7.14000000e-01	1.23982171e-02	1.32930368e-04
7.15000000e-01	1.23989945e-02	1.32604012e-04
7.16000000e-01	1.23633453e-02	1.32582765e-04
7.17000000e-01	1.23540190e-02	1.32138547e-04
7.18000000e-01	1.24490691e-02	1.33234796e-04
7.19000000e-01	1.24875446e-02	1.33490703e-04
7.20000000e-01	1.23008898e-02	1.31426763e-04
7.21000000e-01	1.23185321e-02	1.32096302e-04
7.22000000e-01	1.23640411e-02	1.31622105e-04
7.23000000e-01	1.23686562e-02	1.32451543e-04
7.24000000e-01	1.22605518e-02	1.31650446e-04
7.25000000e-01	1.22431819e-02	1.31128679e-04
7.26000000e-01	1.22418091e-02	1.31185133e-04
7.27000000e-01	1.22010509e-02	1.31205822e-04
7.28000000e-01	1.23397112e-02	1.32210205e-04
7.29000000e-01	1.22162642e-02	1.31059484e-04
7.30000000e-01	1.22938212e-02	1.31749900e-04
7.31000000e-01	1.22663914e-02	1.31453946e-04
7.32000000e-01	1.21721802e-02	1.31190662e-04
7.33000000e-01	1.22287363e-02	1.31688516e-04
7.34000000e-01	1.22723976e-02	1.31365448e-04
7.35000000e-01	1.22752199e-02	1.31123435e-04
7.36000000e-01	1.21876819e-02	1.30527738e-04
7.37000000e-01	1.21825224e-02	1.29667462e-04
7.38000000e-01	1.21115070e-02	1.28700890e-04
7.39000000e-01	1.21470484e-02	1.29071174e-04
7.40000000e-01	1.21604471e-02	1.29425377e-04
7.41000000e-01	1.22178866e-02	1.29955047e-04
7.42000000e-01	1.19913161e-02	1.27532707e-04
7.43000000e-01	1.20556586e-02	1.28472197e-04
7.44000000e-01	1.20088564e-02	1.27588558e-04
7.45000000e-01	1.22361808e-02	1.29621638e-04
7.46000000e-01	1.20852106e-02	1.28847619e-04
7.47000000e-01	1.19669656e-02	1.27211842e-04
7.48000000e-01	1.21597831e-02	1.29209638e-04
7.49000000e-01	1.19660932e-02	1.27460432e-04
7.50000000e-01	1.20814642e-02	1.28316951e-04
7.51000000e-01	1.20369607e-02	1.27856013e-04
7.52000000e-01	1.20119184e-02	1.27964529e-04
7.53000000e-01	1.21237086e-02	1.28998646e-04
7.54000000e-01	1.20777187e-02	1.28297493e-04
7.55000000e-01	1.19962154e-02	1.27238988e-04
7.56000000e-01	1.20242229e-02	1.27748731e-04
7.57000000e-01	1.19702808e-02	1.27257114e-04
7.58000000e-01	1.20298737e-02	1.27690698e-04
7.59000000e-01	1.20344321e-02	1.27416564e-04
7.60000000e-01	1.19842693e-02	1.26681925e-04
7.61000000e-01	1.19345739e-02	1.26497120e-04
7.62000000e-01	1.19565872e-02	1.26400022e-04
7.63000000e-01	1.19305000e-02	1.26000589e-04
7.64000000e-01	1.18792112e-02	1.25813953e-04
7.65000000e-01	1.18448657e-02	1.24897880e-04
7.66000000e-01	1.19512028e-02	1.25822982e-04
7.67000000e-01	1.18797403e-02	1.25046980e-04
7.68000000e-01	1.19334057e-02	1.25649436e-04
7.69000000e-01	1.18342591e-02	1.24790380e-04
7.70000000e-01	1.18490068e-02	1.25243459e-04
7.71000000e-01	1.18231689e-02	1.24157178e-04
7.72000000e-01	1.19503843e-02	1.30051701e-04
7.73000000e-01	1.17246540e-02	1.31490532e-04
7.74000000e-01	1.18692575e-02	1.35779392e-04
7.75000000e-01	1.17339353e-02	1.36358764e-04
7.76000000e-01	1.17609536e-02	1.39539948e-04
7.77000000e-01	1.18180952e-02	1.42074008e-04
7.78000000e-01	1.17215181e-02	1.43152569e-04
7.79000000e-01	1.16711647e-02	1.44392484e-04
7.80000000e-01	1.18189803e-02	1.47092518e-04
7.81000000e-01	1.16891163e-02	1.47052084e-04
7.82000000e-01	1.15770199e-02	1.47831551e-04
7.83000000e-01	1.17273784e-02	1.51478370e-04
7.84000000e-01	1.17095001e-02	1.52451809e-04
7.85000000e-01	1.18033675e-02	1.55911280e-04
7.86000000e-01	1.18701711e-02	1.57764013e-04
7.87000000e-01	1.15330781e-02	1.55028236e-04
7.88000000e-01	1.17435191e-02	1.58997198e-04
7.89000000e-01	1.16156716e-02	1.58610994e-04
7.90000000e-01	1.17508292e-02	1.61777011e-04
7.91000000e-01	1.15099348e-02	1.60572179e-04
7.92000000e-01	1.14156195e-02	1.62060088e-04
7.93000000e-01	1.15271899e-02	1.63399836e-04
7.94000000e-01	1.15736129e-02	1.66692394e-04
7.95000000e-01	1.15929561e-02	1.68218703e-04
7.96000000e-01	1.16532572e-02	1.71008358e-04
7.97000000e-01	1.13433637e-02	1.68902458e-04
7.98000000e-01	1.14570186e-02	1.72250964e-04
7.99000000e-01	1.13345551e-02	1.72504074e-04
8.00000000e-01	1.15103985e-02	1.76133653e-04
8.01000000e-01	1.15005713e-02	1.78590030e-04
8.02000000e-01	1.14754128e-02	1.79246078e-04
8.03000000e-01	1.15189827e-02	1.81531953e-04
8.04000000e-01	1.16127109e-02	1.86403921e-04
8.05000000e-01	1.13720042e-02	1.82867753e-04
8.06000000e-01	1.13083628e-02	1.84249673e-04
8.07000000e-01	1.11594696e-02	1.85763273e-04
8.08000000e-01	1.14416685e-02	1.90500633e-04
8.09000000e-01	1.13372739e-02	1.91179589e-04
8.10000000e-01	1.12737459e-02	1.93038403e-04
8.11000000e-01	1.11876299e-02	1.93143795e-04
8.12000000e-01	1.13921984e-02	1.99613577e-04
8.13000000e-01	1.14466602e-02	2.02438298e-04
8.14000000e-01	1.12859277e-02	2.01135931e-04
8.15000000e-01	1.12230861e-02	2.03387186e-04
8.16000000e-01	1.11936427e-02	2.04079640e-04
8.17000000e-01	1.12839953e-02	2.08988751e-04
8.18000000e-01	1.12352800e-02	2.09952634e-04
8.19000000e-01	1.12099472e-02	2.12043569e-04
8.20000000e-01	1.09926486e-02	2.12013101e-04
8.21000000e-01	1.11884720e-02	2.18887441e-04
8.22000000e-01	1.12156690e-02	2.21668104e-04
8.23000000e-01	1.13208859e-02	2.26563286e-04
8.24000000e-01	1.09305619e-02	2.22438943e-04
8.25000000e-01	1.11879950e-02	2.29235400e-04
8.26000000e-01	1.12445274e-02	2.34336324e-04
8.27000000e-01	1.09443525e-02	2.33600166e-04
8.28000000e-01	1.10454074e-02	2.38875339e-04
8.29000000e-01	1.11563391e-02	2.45098786e-04
8.30000000e-01	1.12974401e-02	2.47597472e-04
8.31000000e-01	1.10099666e-02	2.49969585e-04
8.32000000e-01	1.09119841e-02	2.49237748e-04
8.33000000e-01	1.10444272e-02	2.59814635e-04
8.34000000e-01	1.14527065e-02	2.69463289e-04
8.35000000e-01	1.13159182e-02	2.73225419e-04
8.36000000e-01	1.10633410e-02	2.74262338e-04
8.37000000e-01	1.11014473e-02	2.80996014e-04
8.38000000e-01	1.11759983e-02	2.86607571e-04
8.39000000e-01	1.08699432e-02	2.85838974e-04
8.40000000e-01	1.06984546e-02	2.89860716e-04
8.41000000e-01	1.07109519e-02	2.96477094e-04
8.42000000e-01	1.08495679e-02	3.00943706e-04
8.43000000e-01	1.08862320e-02	3.12449630e-04
8.44000000e-01	1.08775673e-02	3.18962121e-04
8.45000000e-01	1.11436774e-02	3.30770271e-04
8.46000000e-01	1.05096042e-02	3.23401554e-04
8.47000000e-01	1.09333463e-02	3.51464173e-04
8.48000000e-01	1.08489084e-02	3.53538447e-04
8.49000000e-01	1.07357551e-02	3.60993843e-04
8.50000000e-01	1.10237617e-02	3.86563119e-04
8.51000000e-01	1.07286952e-02	3.91798529e-04
8.52000000e-01	1.07562152e-02	4.09365631e-04
8.53000000e-01	1.03288931e-02	4.14558491e-04
8.54000000e-01	1.06217612e-02	4.49692703e-04
8.55000000e-01	1.05993279e-02	4.55414629e-04
8.56000000e-01	1.04029884e-02	4.60648777e-04
8.57000000e-01	1.08769850e-02	4.80122417e-04
8.58000000e-01	1.04438436e-02	4.86792877e-04
8.59000000e-01	1.03787586e-02	5.01068626e-04
8.60000000e-01	1.03830294e-02	5.17471816e-04
8.61000000e-01	1.03049698e-02	5.28766745e-04
8.62000000e-01	1.02727839e-02	5.53576323e-04
8.63000000e-01	1.05304802e-02	5.74579798e-04
8.64000000e-01	1.05379391e-02	6.12275012e-04
8.65000000e-01	1.02494301e-02	6.19827431e-04
8.66000000e-01	1.02565996e-02	6.58773386e-04
8.67000000e-01	9.98998543e-03	6.78410236e-04
8.68000000e-01	1.05511042e-02	7.54821467e-04
8.69000000e-01	1.12844068e-02	8.34948160e-04
8.70000000e-01	1.08147915e-02	9.09921303e-04
8.71000000e-01	1.06207244e-02	9.93254459e-04
8.72000000e-01	1.07096163e-02	1.13797385e-03
8.73000000e-01	9.69896692e-03	1.22630870e-03
8.74000000e-01	9.80687061e-03	1.58130921e-03
8.75000000e-01	1.05918647e-02	3.41850752e-03
