% Filename : SDL7_00012_00032.h5
% Date & Time : 30-Oct-2025 14:47:59
% X-ray Energy (keV) : 13.30001
% Exposure Time (s) : 0.500
% Beam Center : 1461.24000, 208.98300
% Sample to Detector Distance (SDD) (mm) : 1990.750
% Detector Pixel Size (mm) : 0.075
% Photodiode Value : 135919.000
% I0 of Sample : 0
% I0 of Standard : 1
% 
% q(A^-1)   I(q)    I(q)_SE
0.00000000e+00	1.72799531e-02	8.71633168e-03
2.50000000e-04	0.00000000e+00	0.00000000e+00
5.00000000e-04	0.00000000e+00	0.00000000e+00
7.50000000e-04	0.00000000e+00	0.00000000e+00
1.00000000e-03	0.00000000e+00	0.00000000e+00
1.25000000e-03	0.00000000e+00	0.00000000e+00
1.50000000e-03	0.00000000e+00	0.00000000e+00
1.75000000e-03	0.00000000e+00	0.00000000e+00
2.00000000e-03	0.00000000e+00	0.00000000e+00
2.25000000e-03	0.00000000e+00	0.00000000e+00
2.50000000e-03	0.00000000e+00	0.00000000e+00
2.75000000e-03	0.00000000e+00	0.00000000e+00
3.00000000e-03	0.00000000e+00	0.00000000e+00
3.25000000e-03	2.88098928e+02	1.67118156e+02
3.50000000e-03	3.17686889e+02	7.02594660e+01
3.75000000e-03	2.72727727e+02	4.78785920e+01
4.00000000e-03	2.27158106e+02	3.58450342e+01
4.25000000e-03	1.66161139e+02	2.22626728e+01
4.50000000e-03	1.39289249e+02	1.67993839e+01
4.75000000e-03	1.20910571e+02	1.40135331e+01
5.00000000e-03	9.43717398e+01	1.04157507e+01
5.25000000e-03	8.09520801e+01	8.75876019e+00
5.50000000e-03	6.71022611e+01	6.97583568e+00
5.75000000e-03	5.72427955e+01	5.77672771e+00
6.00000000e-03	4.80704004e+01	4.62408132e+00
6.25000000e-03	4.15358276e+01	3.99749162e+00
6.50000000e-03	3.57337708e+01	3.36484461e+00
6.75000000e-03	3.09765887e+01	2.89847940e+00
7.00000000e-03	2.66312482e+01	2.40935231e+00
7.25000000e-03	2.34283694e+01	2.06181986e+00
7.50000000e-03	2.02873021e+01	1.76717599e+00
7.75000000e-03	1.79736810e+01	1.53453157e+00
8.00000000e-03	1.58939075e+01	1.35075846e+00
8.25000000e-03	1.41803972e+01	1.14015462e+00
8.50000000e-03	1.26085921e+01	1.00906760e+00
8.75000000e-03	1.10995590e+01	8.81533612e-01
9.00000000e-03	9.86665546e+00	7.72839093e-01
9.25000000e-03	8.96023310e+00	6.86752360e-01
9.50000000e-03	7.95208073e+00	5.99082226e-01
9.75000000e-03	7.03125736e+00	5.27679715e-01
1.00000000e-02	6.47062758e+00	4.71114328e-01
1.02500000e-02	5.73873926e+00	4.27301665e-01
1.05000000e-02	5.33611067e+00	3.79155426e-01
1.07500000e-02	4.85001171e+00	3.45011297e-01
1.10000000e-02	4.43763942e+00	3.07426510e-01
1.12500000e-02	4.03617261e+00	2.85172448e-01
1.15000000e-02	3.74391537e+00	2.60592151e-01
1.17500000e-02	3.39023716e+00	2.30763820e-01
1.20000000e-02	3.18065524e+00	2.17433047e-01
1.22500000e-02	2.93611460e+00	1.94013439e-01
1.25000000e-02	2.70752133e+00	1.78123759e-01
1.27500000e-02	2.53870426e+00	1.66645667e-01
1.30000000e-02	2.31357011e+00	1.49264716e-01
1.32500000e-02	2.18677149e+00	1.37911090e-01
1.35000000e-02	2.02599376e+00	1.27956446e-01
1.37500000e-02	1.85905411e+00	1.17056609e-01
1.40000000e-02	1.76779425e+00	1.10206217e-01
1.42500000e-02	1.63562977e+00	9.95221103e-02
1.45000000e-02	1.54363454e+00	9.41770769e-02
1.47500000e-02	1.44555557e+00	8.73573050e-02
1.50000000e-02	1.34460629e+00	8.03450723e-02
1.52500000e-02	1.25516443e+00	7.44410130e-02
1.55000000e-02	1.17502867e+00	6.87668926e-02
1.57500000e-02	1.10616167e+00	6.45187939e-02
1.60000000e-02	1.03530325e+00	5.98036819e-02
1.62500000e-02	9.86562162e-01	5.71778655e-02
1.65000000e-02	9.25895172e-01	5.23989906e-02
1.67500000e-02	8.96650894e-01	4.98607768e-02
1.70000000e-02	8.45668343e-01	4.68180364e-02
1.72500000e-02	7.78066000e-01	4.28972130e-02
1.75000000e-02	7.47401278e-01	4.12281150e-02
1.77500000e-02	7.10581033e-01	3.85697889e-02
1.80000000e-02	6.69404123e-01	3.65955896e-02
1.82500000e-02	6.43988603e-01	3.38193851e-02
1.85000000e-02	6.08667661e-01	3.28753970e-02
1.87500000e-02	5.70522668e-01	3.03131082e-02
1.90000000e-02	5.43458902e-01	2.85021412e-02
1.92500000e-02	5.26083867e-01	2.73285218e-02
1.95000000e-02	4.95729586e-01	2.54811450e-02
1.97500000e-02	4.65236172e-01	2.42225062e-02
2.00000000e-02	4.49540351e-01	2.30044936e-02
2.02500000e-02	4.40180172e-01	2.24487838e-02
2.05000000e-02	4.25357198e-01	2.11207684e-02
2.07500000e-02	3.97986744e-01	1.98610141e-02
2.10000000e-02	3.84430190e-01	1.94351198e-02
2.12500000e-02	3.64674870e-01	1.83359208e-02
2.15000000e-02	3.48796088e-01	1.73316431e-02
2.17500000e-02	3.43410171e-01	1.72613325e-02
2.20000000e-02	3.31361447e-01	1.67317625e-02
2.22500000e-02	3.18817674e-01	1.60458711e-02
2.25000000e-02	3.06849521e-01	1.56301002e-02
2.27500000e-02	2.90499393e-01	1.44122832e-02
2.30000000e-02	2.88033359e-01	1.46198586e-02
2.32500000e-02	2.73321510e-01	1.35160494e-02
2.35000000e-02	2.57317285e-01	1.29867344e-02
2.37500000e-02	2.49302986e-01	1.24854915e-02
2.40000000e-02	2.40322831e-01	1.20083047e-02
2.42500000e-02	2.36593143e-01	1.18825744e-02
2.45000000e-02	2.23600800e-01	1.12227929e-02
2.47500000e-02	2.18982128e-01	1.08163185e-02
2.50000000e-02	2.11927394e-01	1.05464402e-02
2.52500000e-02	2.05957793e-01	1.02523104e-02
2.55000000e-02	1.95507000e-01	9.53345589e-03
2.57500000e-02	1.96459282e-01	9.62126814e-03
2.60000000e-02	1.87806528e-01	9.12527222e-03
2.62500000e-02	1.78234966e-01	8.74602337e-03
2.65000000e-02	1.74610852e-01	8.51483646e-03
2.67500000e-02	1.71438627e-01	8.29778374e-03
2.70000000e-02	1.67589643e-01	8.14868560e-03
2.72500000e-02	1.61998720e-01	7.71891442e-03
2.75000000e-02	1.56438030e-01	7.64680487e-03
2.77500000e-02	1.52397318e-01	7.45288723e-03
2.80000000e-02	1.47903709e-01	7.03281888e-03
2.82500000e-02	1.41826794e-01	6.68940264e-03
2.85000000e-02	1.39881274e-01	6.70147360e-03
2.87500000e-02	1.36842523e-01	6.55320033e-03
2.90000000e-02	1.32751748e-01	6.34579516e-03
2.92500000e-02	1.26430323e-01	5.88228210e-03
2.95000000e-02	1.27826097e-01	6.08765453e-03
2.97500000e-02	1.22662606e-01	5.73692125e-03
3.00000000e-02	1.18218735e-01	5.58045098e-03
3.02500000e-02	1.17871801e-01	5.57492560e-03
3.05000000e-02	1.12348719e-01	5.16625240e-03
3.07500000e-02	1.12400571e-01	5.17688321e-03
3.10000000e-02	1.10190480e-01	5.10624683e-03
3.12500000e-02	1.05913390e-01	4.92055537e-03
3.15000000e-02	1.05516448e-01	4.85540579e-03
3.17500000e-02	1.00650656e-01	4.55571759e-03
3.20000000e-02	1.01875543e-01	4.68227937e-03
3.22500000e-02	9.54654169e-02	4.39737409e-03
3.25000000e-02	9.35609929e-02	4.32222634e-03
3.27500000e-02	9.28591752e-02	4.21540016e-03
3.30000000e-02	9.12362966e-02	4.15365231e-03
3.32500000e-02	8.88442390e-02	3.98964389e-03
3.35000000e-02	8.76900260e-02	4.01144180e-03
3.37500000e-02	8.55594723e-02	3.83811755e-03
3.40000000e-02	8.33643450e-02	3.77210794e-03
3.42500000e-02	8.04810170e-02	3.56316935e-03
3.45000000e-02	7.98465870e-02	3.57715147e-03
3.47500000e-02	7.77303862e-02	3.48433112e-03
3.50000000e-02	7.71398955e-02	3.43787365e-03
3.52500000e-02	7.62532261e-02	3.41493138e-03
3.55000000e-02	7.28299222e-02	3.20671766e-03
3.57500000e-02	7.20996937e-02	3.18397667e-03
3.60000000e-02	7.15731518e-02	3.14729601e-03
3.62500000e-02	6.92048190e-02	3.06774793e-03
3.65000000e-02	6.89740738e-02	3.03986434e-03
3.67500000e-02	6.64108087e-02	2.92283607e-03
3.70000000e-02	6.48953875e-02	2.84533436e-03
3.72500000e-02	6.53466365e-02	2.83939034e-03
3.75000000e-02	6.42710179e-02	2.82119787e-03
3.77500000e-02	6.19380370e-02	2.66562806e-03
3.80000000e-02	6.18149848e-02	2.67754243e-03
3.82500000e-02	6.13134643e-02	2.64248795e-03
3.85000000e-02	5.93299422e-02	2.58260070e-03
3.87500000e-02	5.95653515e-02	2.53972618e-03
3.90000000e-02	5.94525576e-02	2.55417118e-03
3.92500000e-02	5.69822195e-02	2.41738275e-03
3.95000000e-02	5.51942787e-02	2.35264008e-03
3.97500000e-02	5.58056099e-02	2.36328912e-03
4.00000000e-02	5.53884719e-02	2.34154101e-03
4.02500000e-02	5.43623051e-02	2.29089904e-03
4.05000000e-02	5.41224680e-02	2.27374620e-03
4.07500000e-02	5.42938633e-02	2.28062967e-03
4.10000000e-02	5.21493450e-02	2.19617176e-03
4.12500000e-02	5.16182344e-02	2.18359485e-03
4.15000000e-02	5.05138313e-02	2.10432728e-03
4.17500000e-02	5.05156810e-02	2.11928923e-03
4.20000000e-02	4.83804471e-02	1.99773866e-03
4.22500000e-02	4.93427343e-02	2.04002586e-03
4.25000000e-02	4.87240495e-02	2.01441671e-03
4.27500000e-02	4.92546901e-02	2.01987336e-03
4.30000000e-02	4.73079022e-02	1.95464838e-03
4.32500000e-02	4.59554882e-02	1.88104510e-03
4.35000000e-02	4.67240494e-02	1.92201070e-03
4.37500000e-02	4.52576085e-02	1.84007111e-03
4.40000000e-02	4.64446364e-02	1.90840125e-03
4.42500000e-02	4.52754435e-02	1.84745651e-03
4.45000000e-02	4.45847368e-02	1.79765178e-03
4.47500000e-02	4.31285713e-02	1.76609451e-03
4.50000000e-02	4.40043956e-02	1.78972353e-03
4.52500000e-02	4.27893620e-02	1.73061516e-03
4.55000000e-02	4.22607410e-02	1.70482030e-03
4.57500000e-02	4.13997964e-02	1.66138721e-03
4.60000000e-02	4.17459873e-02	1.67351227e-03
4.62500000e-02	4.19835661e-02	1.69826193e-03
4.65000000e-02	3.97437038e-02	1.59101881e-03
4.67500000e-02	4.09378729e-02	1.62251687e-03
4.70000000e-02	4.06769272e-02	1.61600233e-03
4.72500000e-02	4.08079004e-02	1.61757453e-03
4.75000000e-02	4.03823301e-02	1.59886433e-03
4.77500000e-02	3.90042772e-02	1.54087451e-03
4.80000000e-02	3.97554256e-02	1.56385636e-03
4.82500000e-02	3.90904587e-02	1.53941342e-03
4.85000000e-02	3.71754351e-02	1.47775294e-03
4.87500000e-02	3.84761721e-02	1.50293968e-03
4.90000000e-02	3.79482520e-02	1.47696037e-03
4.92500000e-02	3.64235751e-02	1.43144199e-03
4.95000000e-02	3.73398050e-02	1.45360282e-03
4.97500000e-02	3.62127755e-02	1.42999174e-03
5.00000000e-02	3.62745993e-02	1.40981681e-03
5.02500000e-02	3.57578300e-02	1.38148168e-03
5.05000000e-02	3.61153942e-02	1.39841894e-03
5.07500000e-02	3.53183098e-02	1.37596704e-03
5.10000000e-02	3.60290540e-02	1.39657221e-03
5.12500000e-02	3.47604286e-02	1.34768416e-03
5.15000000e-02	3.46122725e-02	1.32689956e-03
5.17500000e-02	3.45317147e-02	1.32964596e-03
5.20000000e-02	3.45516886e-02	1.32971262e-03
5.22500000e-02	3.36799131e-02	1.29370983e-03
5.25000000e-02	3.46334049e-02	1.32156228e-03
5.27500000e-02	3.32740337e-02	1.26936421e-03
5.30000000e-02	3.32417253e-02	1.27789615e-03
5.32500000e-02	3.39303902e-02	1.28985690e-03
5.35000000e-02	3.35874567e-02	1.27893079e-03
5.37500000e-02	3.27988257e-02	1.24623101e-03
5.40000000e-02	3.37250717e-02	1.28349474e-03
5.42500000e-02	3.17564998e-02	1.20591098e-03
5.45000000e-02	3.22006290e-02	1.21986650e-03
5.47500000e-02	3.15220960e-02	1.18983986e-03
5.50000000e-02	3.18371916e-02	1.20193289e-03
5.52500000e-02	3.17178574e-02	1.19531689e-03
5.55000000e-02	3.22300891e-02	1.19721646e-03
5.57500000e-02	3.17527552e-02	1.19389972e-03
5.60000000e-02	3.19239584e-02	1.19359314e-03
5.62500000e-02	3.11233338e-02	1.16768936e-03
5.65000000e-02	3.02965136e-02	1.13568630e-03
5.67500000e-02	3.10435767e-02	1.15583897e-03
5.70000000e-02	3.03754866e-02	1.12795960e-03
5.72500000e-02	3.02519783e-02	1.12987067e-03
5.75000000e-02	3.04501020e-02	1.12924754e-03
5.77500000e-02	3.00539692e-02	1.10627311e-03
5.80000000e-02	2.97189578e-02	1.09777305e-03
5.82500000e-02	3.02805474e-02	1.11914633e-03
5.85000000e-02	2.97896740e-02	1.10201729e-03
5.87500000e-02	2.97120640e-02	1.09904636e-03
5.90000000e-02	2.97250316e-02	1.08919887e-03
5.92500000e-02	2.97141296e-02	1.09433689e-03
5.95000000e-02	2.94274311e-02	1.06848815e-03
5.97500000e-02	2.94340299e-02	1.08318685e-03
6.00000000e-02	2.93113813e-02	1.06495167e-03
6.02500000e-02	2.91113478e-02	1.05865887e-03
6.05000000e-02	2.78658899e-02	1.01462072e-03
6.07500000e-02	2.79012801e-02	1.01843685e-03
6.10000000e-02	2.84473782e-02	1.03137178e-03
6.12500000e-02	2.82967992e-02	1.02359957e-03
6.15000000e-02	2.81016399e-02	1.01112649e-03
6.17500000e-02	2.76003042e-02	9.96585758e-04
6.20000000e-02	2.86801486e-02	1.03468112e-03
6.22500000e-02	2.89980151e-02	1.04387096e-03
6.25000000e-02	2.83110071e-02	1.01761005e-03
6.27500000e-02	2.71841600e-02	9.73370394e-04
6.30000000e-02	2.72215884e-02	9.78443822e-04
6.32500000e-02	2.71882776e-02	9.76423209e-04
6.35000000e-02	2.71911407e-02	9.74509146e-04
6.37500000e-02	2.78940197e-02	9.98484684e-04
6.40000000e-02	2.75429323e-02	9.75396357e-04
6.42500000e-02	2.70266064e-02	9.52063417e-04
6.45000000e-02	2.73344301e-02	9.76478329e-04
6.47500000e-02	2.71246546e-02	9.70717723e-04
6.50000000e-02	2.73810225e-02	9.69733761e-04
6.52500000e-02	2.68367973e-02	9.46809277e-04
6.55000000e-02	2.66214857e-02	9.43498589e-04
6.57500000e-02	2.69477781e-02	9.50103754e-04
6.60000000e-02	2.62477102e-02	9.26357630e-04
6.62500000e-02	2.63250592e-02	9.28985194e-04
6.65000000e-02	2.63339524e-02	9.19988291e-04
6.67500000e-02	2.59217700e-02	9.08616030e-04
6.70000000e-02	2.64173233e-02	9.27967597e-04
6.72500000e-02	2.59059406e-02	9.10438133e-04
6.75000000e-02	2.54941716e-02	8.85803617e-04
6.77500000e-02	2.61402844e-02	9.11332138e-04
6.80000000e-02	2.59586831e-02	9.03794688e-04
6.82500000e-02	2.60469940e-02	9.08157577e-04
6.85000000e-02	2.49607322e-02	8.69853848e-04
6.87500000e-02	2.59220015e-02	9.00300139e-04
6.90000000e-02	2.60298259e-02	8.93140385e-04
6.92500000e-02	2.55323328e-02	8.83669847e-04
6.95000000e-02	2.50942393e-02	8.70905255e-04
6.97500000e-02	2.55367566e-02	8.82780658e-04
7.00000000e-02	2.59272280e-02	8.84848815e-04
7.02500000e-02	2.50732666e-02	8.64441966e-04
7.05000000e-02	2.51729557e-02	8.66576625e-04
7.07500000e-02	2.52020366e-02	8.70491847e-04
7.10000000e-02	2.46236502e-02	8.41318159e-04
7.12500000e-02	2.53953233e-02	8.66734686e-04
7.15000000e-02	2.56936785e-02	8.68597779e-04
7.17500000e-02	2.55630924e-02	8.68021883e-04
7.20000000e-02	2.52461572e-02	8.65004902e-04
7.22500000e-02	2.47007928e-02	8.38854122e-04
7.25000000e-02	2.47670544e-02	8.39045187e-04
7.27500000e-02	2.46201721e-02	8.37770619e-04
7.30000000e-02	2.50247248e-02	8.57435327e-04
7.32500000e-02	2.45704906e-02	8.34259844e-04
7.35000000e-02	2.45282596e-02	8.30865663e-04
7.37500000e-02	2.45707594e-02	8.26085640e-04
7.40000000e-02	2.51104329e-02	8.44226243e-04
7.42500000e-02	2.47689333e-02	8.33115202e-04
7.45000000e-02	2.40382974e-02	8.07925727e-04
7.47500000e-02	2.40553413e-02	8.06670914e-04
7.50000000e-02	2.47333447e-02	8.24826823e-04
7.52500000e-02	2.45367365e-02	8.27486837e-04
7.55000000e-02	2.39411996e-02	8.06126052e-04
7.57500000e-02	2.42788621e-02	8.11531903e-04
7.60000000e-02	2.41994677e-02	8.11262830e-04
7.62500000e-02	2.36968898e-02	7.95346200e-04
7.65000000e-02	2.43922308e-02	8.14811060e-04
7.67500000e-02	2.47258264e-02	8.22462630e-04
7.70000000e-02	2.41808159e-02	8.01844617e-04
7.72500000e-02	2.42110716e-02	8.19024542e-04
7.75000000e-02	2.45761852e-02	8.39471626e-04
7.77500000e-02	2.45505817e-02	8.35292407e-04
7.80000000e-02	2.40589127e-02	8.25317491e-04
7.82500000e-02	2.37501480e-02	8.24788494e-04
7.85000000e-02	2.36241330e-02	8.19139598e-04
7.87500000e-02	2.37856868e-02	8.34591853e-04
7.90000000e-02	2.31142880e-02	8.11036985e-04
7.92500000e-02	2.40065765e-02	8.39005328e-04
7.95000000e-02	2.37103955e-02	8.35261621e-04
7.97500000e-02	2.44725431e-02	8.64903211e-04
8.00000000e-02	2.27353020e-02	8.12623144e-04
8.02500000e-02	2.40954629e-02	8.53635648e-04
8.05000000e-02	2.36262817e-02	8.32631289e-04
8.07500000e-02	2.40955608e-02	8.65161499e-04
8.10000000e-02	2.36559359e-02	8.41129471e-04
8.12500000e-02	2.27442968e-02	8.19237623e-04
8.15000000e-02	2.36792638e-02	8.40482265e-04
8.17500000e-02	2.37432318e-02	8.52192574e-04
8.20000000e-02	2.28928844e-02	8.27222680e-04
8.22500000e-02	2.32378044e-02	8.43815990e-04
8.25000000e-02	2.32568626e-02	8.40295514e-04
8.27500000e-02	2.26757962e-02	8.17749522e-04
8.30000000e-02	2.36708141e-02	8.62094597e-04
8.32500000e-02	2.26199182e-02	8.21435987e-04
8.35000000e-02	2.36346856e-02	8.69847983e-04
8.37500000e-02	2.30154179e-02	8.30281109e-04
8.40000000e-02	2.36022772e-02	8.54812702e-04
8.42500000e-02	2.27286133e-02	8.31617846e-04
8.45000000e-02	2.36373161e-02	8.68073165e-04
8.47500000e-02	2.30335523e-02	8.37900001e-04
8.50000000e-02	2.24432991e-02	8.23376037e-04
8.52500000e-02	2.26086260e-02	8.30148283e-04
8.55000000e-02	2.20934101e-02	8.11914176e-04
8.57500000e-02	2.26580228e-02	8.30552560e-04
8.60000000e-02	2.26794589e-02	8.35234868e-04
8.62500000e-02	2.24072381e-02	8.23463051e-04
8.65000000e-02	2.26987227e-02	8.32831583e-04
8.67500000e-02	2.24640668e-02	8.25799110e-04
8.70000000e-02	2.26034680e-02	8.10377731e-04
8.72500000e-02	2.28177765e-02	8.02231728e-04
8.75000000e-02	2.28592867e-02	8.04213814e-04
8.77500000e-02	2.23397286e-02	7.81081901e-04
8.80000000e-02	2.25399864e-02	7.90300904e-04
8.82500000e-02	2.17756673e-02	7.60420597e-04
8.85000000e-02	2.17604637e-02	7.59352633e-04
8.87500000e-02	2.25740532e-02	7.72617265e-04
8.90000000e-02	2.25378349e-02	7.69052236e-04
8.92500000e-02	2.24779859e-02	7.67272976e-04
8.95000000e-02	2.28580667e-02	7.78922648e-04
8.97500000e-02	2.19661209e-02	7.43813461e-04
9.00000000e-02	2.21232083e-02	7.41207769e-04
9.02500000e-02	2.18325274e-02	7.33166237e-04
9.05000000e-02	2.18746392e-02	7.39110031e-04
9.07500000e-02	2.24888756e-02	7.58540377e-04
9.10000000e-02	2.20327749e-02	7.36897418e-04
9.12500000e-02	2.25352387e-02	7.45856108e-04
9.15000000e-02	2.17519238e-02	7.23484400e-04
9.17500000e-02	2.14473920e-02	7.19197405e-04
9.20000000e-02	2.20341102e-02	7.30127929e-04
9.22500000e-02	2.16900196e-02	7.15473603e-04
9.25000000e-02	2.15512432e-02	7.07971542e-04
9.27500000e-02	2.19132851e-02	7.19991137e-04
9.30000000e-02	2.16582405e-02	7.16332820e-04
9.32500000e-02	2.22452236e-02	7.32012469e-04
9.35000000e-02	2.18302960e-02	7.12835237e-04
9.37500000e-02	2.21950659e-02	7.21638530e-04
9.40000000e-02	2.24043257e-02	7.32702543e-04
9.42500000e-02	2.19414436e-02	7.11770584e-04
9.45000000e-02	2.16864442e-02	7.05132236e-04
9.47500000e-02	2.22858668e-02	7.25575869e-04
9.50000000e-02	2.16361995e-02	7.01045657e-04
9.52500000e-02	2.14637805e-02	6.96766607e-04
9.55000000e-02	2.16766370e-02	7.00038693e-04
9.57500000e-02	2.22739131e-02	7.16838991e-04
9.60000000e-02	2.14640872e-02	6.89655250e-04
9.62500000e-02	2.17086087e-02	6.99038052e-04
9.65000000e-02	2.13608968e-02	6.93915950e-04
9.67500000e-02	2.13482815e-02	6.86196517e-04
9.70000000e-02	2.14173251e-02	6.88470621e-04
9.72500000e-02	2.16142748e-02	6.92286713e-04
9.75000000e-02	2.19496205e-02	6.99314459e-04
9.77500000e-02	2.20393095e-02	6.99574027e-04
9.80000000e-02	2.15354198e-02	6.86400796e-04
9.82500000e-02	2.09312986e-02	6.70289787e-04
9.85000000e-02	2.15619378e-02	6.85672366e-04
9.87500000e-02	2.16435541e-02	6.82840855e-04
9.90000000e-02	2.19123478e-02	6.83092767e-04
9.92500000e-02	2.17706336e-02	6.85990961e-04
9.95000000e-02	2.19597487e-02	6.90846444e-04
9.97500000e-02	2.13366194e-02	6.72799545e-04
1.00000000e-01	2.14698490e-02	5.50817625e-04
1.00500000e-01	2.13277533e-02	4.78778090e-04
1.01000000e-01	2.12365451e-02	4.71059481e-04
1.01500000e-01	2.15480756e-02	4.74742752e-04
1.02000000e-01	2.14948852e-02	4.70972499e-04
1.02500000e-01	2.14004325e-02	4.68955803e-04
1.03000000e-01	2.16334645e-02	4.73196741e-04
1.03500000e-01	2.12642020e-02	4.62372408e-04
1.04000000e-01	2.10999311e-02	4.59134949e-04
1.04500000e-01	2.10731636e-02	4.56715323e-04
1.05000000e-01	2.09453052e-02	4.53049924e-04
1.05500000e-01	2.10962037e-02	4.54505584e-04
1.06000000e-01	2.13654759e-02	4.59555643e-04
1.06500000e-01	2.10521165e-02	4.49932553e-04
1.07000000e-01	2.13884290e-02	4.63937873e-04
1.07500000e-01	2.10473122e-02	4.65049121e-04
1.08000000e-01	2.15198801e-02	4.79710144e-04
1.08500000e-01	2.12551044e-02	4.78478364e-04
1.09000000e-01	2.10059254e-02	4.74523283e-04
1.09500000e-01	2.09380581e-02	4.74537885e-04
1.10000000e-01	2.03421419e-02	4.56948804e-04
1.10500000e-01	2.10611640e-02	4.62511999e-04
1.11000000e-01	2.13668816e-02	4.60877132e-04
1.11500000e-01	2.11591244e-02	4.55006700e-04
1.12000000e-01	2.07920737e-02	4.42797048e-04
1.12500000e-01	2.07225351e-02	4.40642623e-04
1.13000000e-01	2.08992965e-02	4.43832349e-04
1.13500000e-01	2.05863211e-02	4.35591745e-04
1.14000000e-01	2.07761440e-02	4.35314309e-04
1.14500000e-01	2.09273803e-02	4.38275115e-04
1.15000000e-01	2.06336585e-02	4.30356372e-04
1.15500000e-01	2.08894551e-02	4.34960739e-04
1.16000000e-01	2.07435800e-02	4.31807872e-04
1.16500000e-01	2.12228808e-02	4.38148575e-04
1.17000000e-01	2.06177294e-02	4.26086257e-04
1.17500000e-01	2.08670855e-02	4.29509455e-04
1.18000000e-01	2.10841093e-02	4.34596261e-04
1.18500000e-01	2.07995769e-02	4.26051685e-04
1.19000000e-01	2.08205325e-02	4.27815972e-04
1.19500000e-01	2.07493204e-02	4.21940895e-04
1.20000000e-01	2.09688134e-02	4.24973874e-04
1.20500000e-01	2.09665946e-02	4.24547307e-04
1.21000000e-01	2.07682364e-02	4.20688908e-04
1.21500000e-01	2.07478749e-02	4.18864243e-04
1.22000000e-01	2.08220644e-02	4.20727393e-04
1.22500000e-01	2.07480004e-02	4.16925048e-04
1.23000000e-01	2.06794180e-02	4.15846389e-04
1.23500000e-01	2.08894721e-02	4.16959442e-04
1.24000000e-01	2.10397761e-02	4.23590625e-04
1.24500000e-01	2.06643318e-02	4.14222227e-04
1.25000000e-01	2.08372961e-02	4.16220857e-04
1.25500000e-01	2.06927486e-02	4.12864303e-04
1.26000000e-01	2.05917394e-02	4.08679661e-04
1.26500000e-01	2.03637380e-02	4.03503519e-04
1.27000000e-01	2.06145408e-02	4.08781388e-04
1.27500000e-01	2.06488583e-02	4.08813399e-04
1.28000000e-01	2.05462948e-02	4.07269242e-04
1.28500000e-01	2.05396860e-02	4.02251930e-04
1.29000000e-01	2.03828067e-02	3.99940092e-04
1.29500000e-01	2.07949886e-02	4.05814665e-04
1.30000000e-01	2.06574705e-02	4.03155666e-04
1.30500000e-01	2.06549547e-02	4.03065998e-04
1.31000000e-01	2.02726267e-02	3.96517133e-04
1.31500000e-01	2.07883371e-02	4.02127604e-04
1.32000000e-01	2.06329729e-02	3.99914499e-04
1.32500000e-01	2.07402221e-02	3.99821583e-04
1.33000000e-01	2.07188094e-02	3.98981976e-04
1.33500000e-01	2.05072340e-02	3.93151612e-04
1.34000000e-01	2.06766961e-02	3.96924067e-04
1.34500000e-01	2.05436795e-02	3.90988991e-04
1.35000000e-01	2.03854718e-02	3.87467693e-04
1.35500000e-01	2.05541746e-02	3.88947419e-04
1.36000000e-01	2.07633299e-02	3.91244274e-04
1.36500000e-01	2.06350524e-02	3.92164108e-04
1.37000000e-01	2.04425470e-02	3.85262607e-04
1.37500000e-01	2.07207682e-02	3.91505465e-04
1.38000000e-01	2.03281650e-02	3.85086906e-04
1.38500000e-01	2.05257545e-02	3.85633139e-04
1.39000000e-01	2.01122877e-02	3.80378044e-04
1.39500000e-01	2.06571817e-02	3.86471854e-04
1.40000000e-01	2.03080936e-02	3.84163384e-04
1.40500000e-01	2.03229152e-02	3.83259683e-04
1.41000000e-01	2.00807514e-02	3.75643640e-04
1.41500000e-01	1.98915742e-02	3.74055062e-04
1.42000000e-01	2.05155350e-02	3.82498769e-04
1.42500000e-01	2.02173023e-02	3.76057172e-04
1.43000000e-01	2.04032360e-02	3.80334322e-04
1.43500000e-01	2.01007931e-02	3.74324167e-04
1.44000000e-01	1.99452875e-02	3.72769035e-04
1.44500000e-01	2.01958207e-02	3.74163689e-04
1.45000000e-01	2.00204905e-02	3.70290778e-04
1.45500000e-01	2.05532541e-02	3.79659263e-04
1.46000000e-01	2.00521929e-02	3.70405991e-04
1.46500000e-01	2.02541723e-02	3.73993410e-04
1.47000000e-01	2.00039377e-02	3.68469772e-04
1.47500000e-01	2.00829809e-02	3.69510160e-04
1.48000000e-01	2.00330603e-02	3.68761229e-04
1.48500000e-01	1.99405831e-02	3.66040954e-04
1.49000000e-01	1.99495058e-02	3.65381687e-04
1.49500000e-01	1.98202162e-02	3.62457755e-04
1.50000000e-01	2.01350799e-02	3.65988426e-04
1.50500000e-01	2.00464242e-02	3.66238923e-04
1.51000000e-01	2.02788859e-02	3.68372726e-04
1.51500000e-01	2.00074662e-02	3.59713278e-04
1.52000000e-01	1.99330113e-02	3.58818261e-04
1.52500000e-01	1.98877210e-02	3.60407384e-04
1.53000000e-01	1.98804294e-02	3.58774059e-04
1.53500000e-01	2.01105507e-02	3.60600626e-04
1.54000000e-01	2.00435050e-02	3.60651651e-04
1.54500000e-01	1.98546248e-02	3.63788991e-04
1.55000000e-01	1.98303548e-02	3.68688608e-04
1.55500000e-01	1.95912678e-02	3.67209907e-04
1.56000000e-01	1.96891461e-02	3.69807751e-04
1.56500000e-01	1.97970175e-02	3.71092090e-04
1.57000000e-01	1.97450492e-02	3.71054550e-04
1.57500000e-01	2.00064370e-02	3.68336772e-04
1.58000000e-01	1.94826277e-02	3.55760700e-04
1.58500000e-01	1.97677565e-02	3.57800637e-04
1.59000000e-01	1.94932007e-02	3.49683152e-04
1.59500000e-01	1.96795187e-02	3.52785453e-04
1.60000000e-01	1.98819420e-02	3.56557373e-04
1.60500000e-01	1.97879847e-02	3.53033421e-04
1.61000000e-01	1.92977421e-02	3.44542779e-04
1.61500000e-01	1.96737062e-02	3.49339888e-04
1.62000000e-01	1.96561046e-02	3.48677166e-04
1.62500000e-01	1.91956316e-02	3.40952448e-04
1.63000000e-01	1.93658267e-02	3.41304328e-04
1.63500000e-01	1.95731960e-02	3.46980856e-04
1.64000000e-01	1.93530409e-02	3.40507575e-04
1.64500000e-01	1.91697307e-02	3.37479026e-04
1.65000000e-01	1.96262346e-02	3.45586314e-04
1.65500000e-01	1.98340690e-02	3.47115090e-04
1.66000000e-01	1.95229721e-02	3.42240557e-04
1.66500000e-01	1.94415922e-02	3.39386535e-04
1.67000000e-01	1.94410378e-02	3.39533878e-04
1.67500000e-01	1.93250949e-02	3.37121050e-04
1.68000000e-01	1.97334131e-02	3.42659665e-04
1.68500000e-01	1.95471693e-02	3.38654345e-04
1.69000000e-01	1.93737918e-02	3.36061985e-04
1.69500000e-01	1.93999902e-02	3.35627791e-04
1.70000000e-01	1.91091658e-02	3.30353507e-04
1.70500000e-01	1.95004777e-02	3.37550679e-04
1.71000000e-01	1.93258293e-02	3.34637232e-04
1.71500000e-01	1.93551430e-02	3.32673170e-04
1.72000000e-01	1.90717591e-02	3.27530048e-04
1.72500000e-01	1.96054648e-02	3.37447014e-04
1.73000000e-01	1.91325691e-02	3.28397924e-04
1.73500000e-01	1.93331689e-02	3.28643047e-04
1.74000000e-01	1.91575539e-02	3.27447969e-04
1.74500000e-01	1.94117698e-02	3.29554865e-04
1.75000000e-01	1.95753706e-02	3.29567565e-04
1.75500000e-01	1.91515070e-02	3.23938348e-04
1.76000000e-01	1.91246234e-02	3.23708413e-04
1.76500000e-01	1.95242588e-02	3.30711253e-04
1.77000000e-01	1.93134188e-02	3.25417164e-04
1.77500000e-01	1.92225230e-02	3.24921442e-04
1.78000000e-01	1.91742371e-02	3.21829402e-04
1.78500000e-01	1.92340267e-02	3.23300583e-04
1.79000000e-01	1.90196912e-02	3.18895053e-04
1.79500000e-01	1.91320229e-02	3.22047277e-04
1.80000000e-01	1.92635270e-02	3.23975702e-04
1.80500000e-01	1.90730885e-02	3.20737226e-04
1.81000000e-01	1.91264115e-02	3.21458163e-04
1.81500000e-01	1.90393634e-02	3.17530342e-04
1.82000000e-01	1.91161754e-02	3.19253391e-04
1.82500000e-01	1.92225132e-02	3.19222602e-04
1.83000000e-01	1.91174358e-02	3.20868462e-04
1.83500000e-01	1.89171083e-02	3.15351382e-04
1.84000000e-01	1.90510889e-02	3.16645519e-04
1.84500000e-01	1.87710412e-02	3.12236759e-04
1.85000000e-01	1.91514471e-02	3.19215388e-04
1.85500000e-01	1.89762921e-02	3.13088678e-04
1.86000000e-01	1.89668082e-02	3.12636933e-04
1.86500000e-01	1.90027275e-02	3.14921777e-04
1.87000000e-01	1.89925335e-02	3.13971583e-04
1.87500000e-01	1.89670249e-02	3.12788782e-04
1.88000000e-01	1.88041689e-02	3.10460932e-04
1.88500000e-01	1.87695358e-02	3.08991794e-04
1.89000000e-01	1.87125809e-02	3.07407206e-04
1.89500000e-01	1.88999251e-02	3.10217424e-04
1.90000000e-01	1.90258984e-02	3.10491928e-04
1.90500000e-01	1.89645221e-02	3.10127020e-04
1.91000000e-01	1.88089633e-02	3.07626158e-04
1.91500000e-01	1.89722078e-02	3.09308423e-04
1.92000000e-01	1.87390516e-02	3.06104275e-04
1.92500000e-01	1.88402334e-02	3.07965941e-04
1.93000000e-01	1.85943423e-02	3.03040468e-04
1.93500000e-01	1.88672833e-02	3.07116092e-04
1.94000000e-01	1.89598116e-02	3.07046789e-04
1.94500000e-01	1.84124222e-02	2.99680488e-04
1.95000000e-01	1.86482671e-02	3.02573005e-04
1.95500000e-01	1.86836504e-02	3.01598700e-04
1.96000000e-01	1.89113651e-02	3.03997835e-04
1.96500000e-01	1.84796346e-02	2.98843985e-04
1.97000000e-01	1.86277075e-02	3.00580029e-04
1.97500000e-01	1.88266988e-02	3.02160816e-04
1.98000000e-01	1.87680243e-02	3.01558891e-04
1.98500000e-01	1.86142129e-02	2.99678425e-04
1.99000000e-01	1.86487622e-02	2.97540544e-04
1.99500000e-01	1.87264067e-02	2.98959735e-04
2.00000000e-01	1.87465018e-02	2.99676784e-04
2.00500000e-01	1.84813413e-02	2.96254255e-04
2.01000000e-01	1.86969958e-02	2.98527059e-04
2.01500000e-01	1.86477497e-02	2.96728527e-04
2.02000000e-01	1.88014391e-02	2.99239164e-04
2.02500000e-01	1.87844546e-02	2.97392501e-04
2.03000000e-01	1.83926023e-02	2.92745974e-04
2.03500000e-01	1.87158847e-02	2.97165529e-04
2.04000000e-01	1.85880343e-02	2.93036476e-04
2.04500000e-01	1.85521074e-02	2.94305788e-04
2.05000000e-01	1.83797600e-02	2.90148529e-04
2.05500000e-01	1.82423636e-02	2.87913375e-04
2.06000000e-01	1.85835853e-02	2.91498825e-04
2.06500000e-01	1.84539451e-02	2.91703664e-04
2.07000000e-01	1.83410930e-02	2.87782238e-04
2.07500000e-01	1.86934792e-02	2.93217286e-04
2.08000000e-01	1.86480437e-02	2.94302061e-04
2.08500000e-01	1.84644167e-02	2.88699144e-04
2.09000000e-01	1.82854710e-02	2.87805483e-04
2.09500000e-01	1.82881948e-02	2.85927316e-04
2.10000000e-01	1.83928210e-02	2.87659242e-04
2.10500000e-01	1.86201376e-02	2.91515023e-04
2.11000000e-01	1.84198524e-02	2.86275825e-04
2.11500000e-01	1.83430266e-02	2.84807142e-04
2.12000000e-01	1.84204268e-02	2.85712219e-04
2.12500000e-01	1.83648720e-02	2.85694600e-04
2.13000000e-01	1.84417223e-02	2.86630970e-04
2.13500000e-01	1.82199980e-02	2.82760207e-04
2.14000000e-01	1.81520159e-02	2.82381113e-04
2.14500000e-01	1.84706882e-02	2.84900641e-04
2.15000000e-01	1.84559966e-02	2.87377743e-04
2.15500000e-01	1.81723339e-02	2.79284249e-04
2.16000000e-01	1.85056588e-02	2.84678823e-04
2.16500000e-01	1.85281724e-02	2.85052778e-04
2.17000000e-01	1.80887917e-02	2.82385283e-04
2.17500000e-01	1.83547189e-02	2.90491758e-04
2.18000000e-01	1.78851347e-02	2.84309483e-04
2.18500000e-01	1.81110468e-02	2.90203609e-04
2.19000000e-01	1.82759623e-02	2.93268521e-04
2.19500000e-01	1.79248576e-02	2.89191595e-04
2.20000000e-01	1.83216664e-02	2.97480655e-04
2.20500000e-01	1.81158133e-02	2.92805990e-04
2.21000000e-01	1.82232432e-02	2.96542073e-04
2.21500000e-01	1.82828855e-02	2.99085781e-04
2.22000000e-01	1.81759177e-02	2.97910769e-04
2.22500000e-01	1.81733492e-02	2.97255609e-04
2.23000000e-01	1.79970566e-02	2.95461744e-04
2.23500000e-01	1.79249143e-02	2.96195571e-04
2.24000000e-01	1.83717659e-02	3.02720087e-04
2.24500000e-01	1.80927782e-02	3.00648427e-04
2.25000000e-01	1.81334171e-02	3.00483996e-04
2.25500000e-01	1.79791064e-02	3.00042550e-04
2.26000000e-01	1.82435199e-02	3.04349818e-04
2.26500000e-01	1.80103286e-02	2.94017432e-04
2.27000000e-01	1.80292400e-02	2.92821364e-04
2.27500000e-01	1.80398372e-02	2.90257123e-04
2.28000000e-01	1.78723176e-02	2.87008855e-04
2.28500000e-01	1.80704439e-02	2.88487859e-04
2.29000000e-01	1.80730253e-02	2.86221473e-04
2.29500000e-01	1.80248283e-02	2.85278651e-04
2.30000000e-01	1.82562956e-02	2.88104052e-04
2.30500000e-01	1.82547450e-02	2.86517898e-04
2.31000000e-01	1.80968909e-02	2.83669857e-04
2.31500000e-01	1.81158037e-02	2.83096851e-04
2.32000000e-01	1.81171959e-02	2.82547844e-04
2.32500000e-01	1.79145604e-02	2.79317352e-04
2.33000000e-01	1.78988704e-02	2.77626892e-04
2.33500000e-01	1.83510865e-02	2.84466601e-04
2.34000000e-01	1.81179248e-02	2.79537020e-04
2.34500000e-01	1.80943053e-02	2.80615490e-04
2.35000000e-01	1.82218524e-02	2.80812919e-04
2.35500000e-01	1.81065862e-02	2.78227832e-04
2.36000000e-01	1.80457407e-02	2.76963582e-04
2.36500000e-01	1.80272374e-02	2.76870736e-04
2.37000000e-01	1.80278541e-02	2.76398665e-04
2.37500000e-01	1.77726699e-02	2.73225644e-04
2.38000000e-01	1.79977554e-02	2.74219630e-04
2.38500000e-01	1.79061222e-02	2.73307200e-04
2.39000000e-01	1.77470748e-02	2.70507622e-04
2.39500000e-01	1.79000357e-02	2.72244413e-04
2.40000000e-01	1.79231561e-02	2.70784503e-04
2.40500000e-01	1.79317805e-02	2.71185108e-04
2.41000000e-01	1.79745276e-02	2.71633808e-04
2.41500000e-01	1.78175738e-02	2.68173127e-04
2.42000000e-01	1.79913280e-02	2.70676218e-04
2.42500000e-01	1.76162054e-02	2.65091461e-04
2.43000000e-01	1.80708461e-02	2.69827811e-04
2.43500000e-01	1.79651280e-02	2.69413974e-04
2.44000000e-01	1.80859054e-02	2.69758807e-04
2.44500000e-01	1.80513311e-02	2.70613651e-04
2.45000000e-01	1.78066883e-02	2.64774099e-04
2.45500000e-01	1.76718784e-02	2.64747619e-04
2.46000000e-01	1.78036508e-02	2.65326726e-04
2.46500000e-01	1.77307678e-02	2.62978203e-04
2.47000000e-01	1.77553991e-02	2.64624862e-04
2.47500000e-01	1.76821202e-02	2.60703273e-04
2.48000000e-01	1.77380684e-02	2.63591260e-04
2.48500000e-01	1.76781424e-02	2.61018196e-04
2.49000000e-01	1.76473369e-02	2.61672037e-04
2.49500000e-01	1.76682221e-02	2.59940358e-04
2.50000000e-01	1.76429907e-02	2.59077536e-04
2.50500000e-01	1.77958836e-02	2.62908279e-04
2.51000000e-01	1.74204194e-02	2.56587770e-04
2.51500000e-01	1.74400716e-02	2.56809163e-04
2.52000000e-01	1.78031691e-02	2.60964700e-04
2.52500000e-01	1.75606914e-02	2.58426538e-04
2.53000000e-01	1.78076979e-02	2.61332223e-04
2.53500000e-01	1.75462242e-02	2.56848127e-04
2.54000000e-01	1.75884001e-02	2.57534238e-04
2.54500000e-01	1.74901197e-02	2.55805781e-04
2.55000000e-01	1.75686194e-02	2.55656333e-04
2.55500000e-01	1.75924871e-02	2.55948030e-04
2.56000000e-01	1.76147901e-02	2.56545761e-04
2.56500000e-01	1.75397088e-02	2.55703971e-04
2.57000000e-01	1.76937147e-02	2.56836904e-04
2.57500000e-01	1.75686143e-02	2.55307680e-04
2.58000000e-01	1.73327665e-02	2.52496860e-04
2.58500000e-01	1.77935148e-02	2.57838980e-04
2.59000000e-01	1.77794628e-02	2.57288436e-04
2.59500000e-01	1.73685314e-02	2.50639796e-04
2.60000000e-01	1.76290738e-02	2.54656329e-04
2.60500000e-01	1.75033528e-02	2.53115144e-04
2.61000000e-01	1.73109001e-02	2.49891818e-04
2.61500000e-01	1.73093642e-02	2.49230525e-04
2.62000000e-01	1.75192115e-02	2.51141375e-04
2.62500000e-01	1.76271412e-02	2.53177854e-04
2.63000000e-01	1.73650629e-02	2.50621114e-04
2.63500000e-01	1.76011931e-02	2.51146694e-04
2.64000000e-01	1.75737280e-02	2.52191246e-04
2.64500000e-01	1.74873944e-02	2.51888432e-04
2.65000000e-01	1.75523807e-02	2.50395606e-04
2.65500000e-01	1.74721228e-02	2.49275911e-04
2.66000000e-01	1.73862450e-02	2.48577129e-04
2.66500000e-01	1.74825794e-02	2.48629508e-04
2.67000000e-01	1.74740926e-02	2.48483327e-04
2.67500000e-01	1.75761711e-02	2.49213272e-04
2.68000000e-01	1.73597573e-02	2.46675116e-04
2.68500000e-01	1.74472837e-02	2.46136974e-04
2.69000000e-01	1.73063614e-02	2.45576195e-04
2.69500000e-01	1.72590265e-02	2.43548622e-04
2.70000000e-01	1.72270320e-02	2.44260311e-04
2.70500000e-01	1.73809713e-02	2.45697141e-04
2.71000000e-01	1.74080832e-02	2.44498524e-04
2.71500000e-01	1.72854771e-02	2.43620409e-04
2.72000000e-01	1.71830550e-02	2.42295235e-04
2.72500000e-01	1.73662980e-02	2.45143477e-04
2.73000000e-01	1.75309259e-02	2.45948963e-04
2.73500000e-01	1.74596718e-02	2.44330205e-04
2.74000000e-01	1.73627323e-02	2.43388362e-04
2.74500000e-01	1.71865835e-02	2.39453460e-04
2.75000000e-01	1.76257657e-02	2.45540545e-04
2.75500000e-01	1.73801457e-02	2.43681435e-04
2.76000000e-01	1.71663074e-02	2.41126171e-04
2.76500000e-01	1.71970888e-02	2.39888010e-04
2.77000000e-01	1.74327634e-02	2.43093385e-04
2.77500000e-01	1.72584397e-02	2.41519836e-04
2.78000000e-01	1.72713313e-02	2.40349496e-04
2.78500000e-01	1.70023517e-02	2.37984421e-04
2.79000000e-01	1.73138436e-02	2.40544099e-04
2.79500000e-01	1.72101942e-02	2.39370995e-04
2.80000000e-01	1.70347202e-02	2.36891364e-04
2.80500000e-01	1.72713882e-02	2.39928542e-04
2.81000000e-01	1.73176086e-02	2.39508588e-04
2.81500000e-01	1.72866321e-02	2.39145669e-04
2.82000000e-01	1.72194950e-02	2.38180189e-04
2.82500000e-01	1.72071520e-02	2.38803321e-04
2.83000000e-01	1.72643038e-02	2.38029794e-04
2.83500000e-01	1.71739910e-02	2.35961304e-04
2.84000000e-01	1.72639739e-02	2.37664184e-04
2.84500000e-01	1.71031599e-02	2.36987839e-04
2.85000000e-01	1.73101668e-02	2.37139336e-04
2.85500000e-01	1.74187728e-02	2.39154985e-04
2.86000000e-01	1.71675638e-02	2.35992379e-04
2.86500000e-01	1.69821967e-02	2.32596655e-04
2.87000000e-01	1.71884453e-02	2.35629357e-04
2.87500000e-01	1.70199092e-02	2.32912384e-04
2.88000000e-01	1.71419792e-02	2.34609812e-04
2.88500000e-01	1.70183388e-02	2.32843283e-04
2.89000000e-01	1.69354713e-02	2.31399112e-04
2.89500000e-01	1.70046139e-02	2.32530915e-04
2.90000000e-01	1.69974406e-02	2.31632567e-04
2.90500000e-01	1.71314425e-02	2.33076465e-04
2.91000000e-01	1.69068260e-02	2.30134339e-04
2.91500000e-01	1.69252275e-02	2.29940255e-04
2.92000000e-01	1.68674571e-02	2.28869003e-04
2.92500000e-01	1.70710901e-02	2.31428825e-04
2.93000000e-01	1.71975797e-02	2.32966012e-04
2.93500000e-01	1.68690404e-02	2.28630803e-04
2.94000000e-01	1.71091644e-02	2.30930234e-04
2.94500000e-01	1.70196897e-02	2.30661891e-04
2.95000000e-01	1.69766825e-02	2.28760587e-04
2.95500000e-01	1.70425768e-02	2.30487980e-04
2.96000000e-01	1.71033455e-02	2.30824929e-04
2.96500000e-01	1.69103241e-02	2.28218801e-04
2.97000000e-01	1.68002136e-02	2.26257604e-04
2.97500000e-01	1.69159682e-02	2.27067678e-04
2.98000000e-01	1.69829583e-02	2.28903038e-04
2.98500000e-01	1.69221147e-02	2.27553261e-04
2.99000000e-01	1.69938588e-02	2.28610986e-04
2.99500000e-01	1.67894939e-02	2.26067667e-04
3.00000000e-01	1.70807751e-02	2.29341531e-04
3.00500000e-01	1.70001239e-02	2.28942143e-04
3.01000000e-01	1.69113985e-02	2.25303213e-04
3.01500000e-01	1.65761365e-02	2.23061990e-04
3.02000000e-01	1.69157840e-02	2.25175568e-04
3.02500000e-01	1.69514135e-02	2.26073438e-04
3.03000000e-01	1.70162699e-02	2.27714669e-04
3.03500000e-01	1.70345704e-02	2.25496472e-04
3.04000000e-01	1.68554403e-02	2.25754985e-04
3.04500000e-01	1.69612555e-02	2.25700674e-04
3.05000000e-01	1.69522235e-02	2.25671956e-04
3.05500000e-01	1.69004564e-02	2.24438358e-04
3.06000000e-01	1.68986897e-02	2.22750965e-04
3.06500000e-01	1.66716411e-02	2.20995804e-04
3.07000000e-01	1.66809224e-02	2.20859793e-04
3.07500000e-01	1.70228185e-02	2.25376525e-04
3.08000000e-01	1.69133154e-02	2.23570815e-04
3.08500000e-01	1.68069291e-02	2.21773500e-04
3.09000000e-01	1.67802298e-02	2.22107914e-04
3.09500000e-01	1.67293288e-02	2.19922184e-04
3.10000000e-01	1.67360934e-02	2.21538165e-04
3.10500000e-01	1.66272783e-02	2.19351596e-04
3.11000000e-01	1.66950272e-02	2.19282053e-04
3.11500000e-01	1.67504244e-02	2.20482325e-04
3.12000000e-01	1.68314094e-02	2.21118869e-04
3.12500000e-01	1.67440714e-02	2.20130207e-04
3.13000000e-01	1.67122361e-02	2.18783810e-04
3.13500000e-01	1.65721168e-02	2.17226532e-04
3.14000000e-01	1.67147824e-02	2.18803989e-04
3.14500000e-01	1.67564456e-02	2.19077027e-04
3.15000000e-01	1.65509310e-02	2.17380327e-04
3.15500000e-01	1.66069798e-02	2.16395872e-04
3.16000000e-01	1.66334781e-02	2.17602728e-04
3.16500000e-01	1.66995358e-02	2.18024678e-04
3.17000000e-01	1.65745596e-02	2.16094624e-04
3.17500000e-01	1.65134471e-02	2.15574254e-04
3.18000000e-01	1.66440779e-02	2.16798261e-04
3.18500000e-01	1.67685550e-02	2.18402710e-04
3.19000000e-01	1.64801520e-02	2.14620912e-04
3.19500000e-01	1.65772988e-02	2.16358265e-04
3.20000000e-01	1.64987423e-02	2.14858110e-04
3.20500000e-01	1.66520261e-02	2.16102852e-04
3.21000000e-01	1.64801573e-02	2.14892507e-04
3.21500000e-01	1.64779605e-02	2.13191853e-04
3.22000000e-01	1.65077382e-02	2.13986753e-04
3.22500000e-01	1.66054430e-02	2.15179247e-04
3.23000000e-01	1.65278670e-02	2.13152475e-04
3.23500000e-01	1.64998722e-02	2.13700703e-04
3.24000000e-01	1.62893945e-02	2.10366505e-04
3.24500000e-01	1.63448411e-02	2.10907560e-04
3.25000000e-01	1.63227933e-02	2.10943747e-04
3.25500000e-01	1.65234942e-02	2.12742751e-04
3.26000000e-01	1.63748474e-02	2.10652457e-04
3.26500000e-01	1.64458122e-02	2.11252193e-04
3.27000000e-01	1.63198378e-02	2.10184600e-04
3.27500000e-01	1.66493793e-02	2.13254444e-04
3.28000000e-01	1.62818299e-02	2.09448555e-04
3.28500000e-01	1.64298242e-02	2.10504201e-04
3.29000000e-01	1.63762853e-02	2.10084726e-04
3.29500000e-01	1.63624040e-02	2.10147850e-04
3.30000000e-01	1.66518084e-02	2.13061975e-04
3.30500000e-01	1.63908464e-02	2.09730813e-04
3.31000000e-01	1.63806590e-02	2.09456094e-04
3.31500000e-01	1.65804191e-02	2.10807863e-04
3.32000000e-01	1.64280715e-02	2.10640798e-04
3.32500000e-01	1.63425514e-02	2.08873212e-04
3.33000000e-01	1.62078567e-02	2.06924903e-04
3.33500000e-01	1.62609200e-02	2.07694229e-04
3.34000000e-01	1.63396399e-02	2.07852856e-04
3.34500000e-01	1.62599180e-02	2.07181539e-04
3.35000000e-01	1.60579177e-02	2.04642232e-04
3.35500000e-01	1.61426558e-02	2.04821151e-04
3.36000000e-01	1.62020401e-02	2.05873450e-04
3.36500000e-01	1.61936841e-02	2.05985507e-04
3.37000000e-01	1.65158790e-02	2.09119546e-04
3.37500000e-01	1.59656221e-02	2.03493988e-04
3.38000000e-01	1.61227344e-02	2.04218249e-04
3.38500000e-01	1.61967134e-02	2.05186935e-04
3.39000000e-01	1.62188835e-02	2.05624708e-04
3.39500000e-01	1.62670437e-02	2.04655622e-04
3.40000000e-01	1.61835419e-02	2.04188992e-04
3.40500000e-01	1.61513484e-02	2.04608400e-04
3.41000000e-01	1.62670156e-02	2.04564145e-04
3.41500000e-01	1.62299871e-02	2.05842429e-04
3.42000000e-01	1.60658622e-02	2.02722368e-04
3.42500000e-01	1.63611638e-02	2.05828237e-04
3.43000000e-01	1.63629206e-02	2.05574771e-04
3.43500000e-01	1.63175220e-02	2.04130301e-04
3.44000000e-01	1.62667001e-02	2.05484500e-04
3.44500000e-01	1.61509168e-02	2.02714709e-04
3.45000000e-01	1.60171307e-02	2.01022106e-04
3.45500000e-01	1.61730466e-02	2.01830575e-04
3.46000000e-01	1.62471323e-02	2.03684563e-04
3.46500000e-01	1.61900069e-02	2.02698935e-04
3.47000000e-01	1.60243860e-02	2.00235606e-04
3.47500000e-01	1.62988547e-02	2.02743094e-04
3.48000000e-01	1.60106749e-02	2.00400690e-04
3.48500000e-01	1.61574809e-02	2.01896786e-04
3.49000000e-01	1.59530787e-02	1.99152256e-04
3.49500000e-01	1.59883026e-02	1.99486001e-04
3.50000000e-01	1.59310811e-02	1.61765461e-04
3.51000000e-01	1.61248498e-02	1.42041777e-04
3.52000000e-01	1.59554472e-02	1.39912034e-04
3.53000000e-01	1.59976200e-02	1.40189656e-04
3.54000000e-01	1.60399509e-02	1.40039126e-04
3.55000000e-01	1.60011467e-02	1.39745189e-04
3.56000000e-01	1.60019485e-02	1.40556268e-04
3.57000000e-01	1.58437326e-02	1.41589959e-04
3.58000000e-01	1.59958030e-02	1.44196121e-04
3.59000000e-01	1.57466815e-02	1.42863384e-04
3.60000000e-01	1.57575696e-02	1.44091343e-04
3.61000000e-01	1.57835021e-02	1.45100903e-04
3.62000000e-01	1.56569440e-02	1.44521317e-04
3.63000000e-01	1.59168479e-02	1.47215401e-04
3.64000000e-01	1.56975750e-02	1.45643145e-04
3.65000000e-01	1.57827213e-02	1.47220046e-04
3.66000000e-01	1.57319707e-02	1.44739456e-04
3.67000000e-01	1.56971605e-02	1.42827671e-04
3.68000000e-01	1.57567009e-02	1.41936433e-04
3.69000000e-01	1.57576999e-02	1.41377720e-04
3.70000000e-01	1.56606703e-02	1.40209737e-04
3.71000000e-01	1.58920120e-02	1.43596669e-04
3.72000000e-01	1.56532687e-02	1.42910276e-04
3.73000000e-01	1.55401885e-02	1.42220204e-04
3.74000000e-01	1.55826480e-02	1.42460079e-04
3.75000000e-01	1.56487061e-02	1.43097878e-04
3.76000000e-01	1.58089102e-02	1.44285948e-04
3.77000000e-01	1.56292197e-02	1.43153215e-04
3.78000000e-01	1.55942814e-02	1.42467374e-04
3.79000000e-01	1.56910127e-02	1.43335125e-04
3.80000000e-01	1.55224313e-02	1.41766413e-04
3.81000000e-01	1.54783680e-02	1.41586049e-04
3.82000000e-01	1.54097551e-02	1.40865289e-04
3.83000000e-01	1.55442054e-02	1.41797057e-04
3.84000000e-01	1.55555396e-02	1.41923875e-04
3.85000000e-01	1.55346879e-02	1.41832828e-04
3.86000000e-01	1.56031736e-02	1.42313065e-04
3.87000000e-01	1.53518255e-02	1.40363806e-04
3.88000000e-01	1.54670034e-02	1.40874403e-04
3.89000000e-01	1.54584567e-02	1.41045905e-04
3.90000000e-01	1.54680148e-02	1.40708667e-04
3.91000000e-01	1.53652493e-02	1.39898503e-04
3.92000000e-01	1.52902307e-02	1.39572898e-04
3.93000000e-01	1.53771230e-02	1.39784933e-04
3.94000000e-01	1.54024699e-02	1.40170903e-04
3.95000000e-01	1.52801985e-02	1.38999818e-04
3.96000000e-01	1.54556764e-02	1.40444516e-04
3.97000000e-01	1.51916995e-02	1.38442491e-04
3.98000000e-01	1.51863339e-02	1.38415063e-04
3.99000000e-01	1.53085722e-02	1.39520228e-04
4.00000000e-01	1.51976473e-02	1.38407133e-04
4.01000000e-01	1.52356657e-02	1.38599087e-04
4.02000000e-01	1.51942727e-02	1.38294066e-04
4.03000000e-01	1.51308951e-02	1.37777472e-04
4.04000000e-01	1.51566009e-02	1.37766387e-04
4.05000000e-01	1.52745508e-02	1.38813900e-04
4.06000000e-01	1.51289478e-02	1.37524357e-04
4.07000000e-01	1.51092255e-02	1.36919396e-04
4.08000000e-01	1.52432373e-02	1.38662556e-04
4.09000000e-01	1.51806539e-02	1.37666187e-04
4.10000000e-01	1.51269338e-02	1.37171782e-04
4.11000000e-01	1.51788360e-02	1.37903229e-04
4.12000000e-01	1.51182605e-02	1.37536627e-04
4.13000000e-01	1.51488093e-02	1.37217704e-04
4.14000000e-01	1.51834494e-02	1.37775693e-04
4.15000000e-01	1.50630185e-02	1.36474558e-04
4.16000000e-01	1.50392662e-02	1.36284894e-04
4.17000000e-01	1.49813639e-02	1.35819896e-04
4.18000000e-01	1.50529407e-02	1.37460143e-04
4.19000000e-01	1.51211273e-02	1.40170719e-04
4.20000000e-01	1.50769355e-02	1.40974687e-04
4.21000000e-01	1.52085095e-02	1.41982331e-04
4.22000000e-01	1.50807049e-02	1.41486854e-04
4.23000000e-01	1.50017968e-02	1.41531239e-04
4.24000000e-01	1.51239370e-02	1.42817745e-04
4.25000000e-01	1.50661410e-02	1.42791721e-04
4.26000000e-01	1.51045716e-02	1.42734930e-04
4.27000000e-01	1.50920407e-02	1.42593205e-04
4.28000000e-01	1.51335894e-02	1.43040007e-04
4.29000000e-01	1.49850107e-02	1.42143567e-04
4.30000000e-01	1.51559379e-02	1.43393798e-04
4.31000000e-01	1.50724418e-02	1.42446680e-04
4.32000000e-01	1.50267557e-02	1.43038769e-04
4.33000000e-01	1.50292220e-02	1.42665449e-04
4.34000000e-01	1.50139531e-02	1.42486767e-04
4.35000000e-01	1.49643580e-02	1.42275928e-04
4.36000000e-01	1.48237821e-02	1.41584840e-04
4.37000000e-01	1.49494591e-02	1.42348897e-04
4.38000000e-01	1.50348371e-02	1.43768613e-04
4.39000000e-01	1.47515015e-02	1.41488791e-04
4.40000000e-01	1.49448553e-02	1.43446136e-04
4.41000000e-01	1.48504993e-02	1.42366201e-04
4.42000000e-01	1.48795863e-02	1.43071194e-04
4.43000000e-01	1.49435062e-02	1.43722350e-04
4.44000000e-01	1.48860055e-02	1.43415493e-04
4.45000000e-01	1.47967342e-02	1.42814740e-04
4.46000000e-01	1.49887161e-02	1.44815513e-04
4.47000000e-01	1.47535925e-02	1.42621125e-04
4.48000000e-01	1.49309576e-02	1.44703773e-04
4.49000000e-01	1.48854406e-02	1.43994419e-04
4.50000000e-01	1.47287603e-02	1.43341009e-04
4.51000000e-01	1.47557299e-02	1.43124438e-04
4.52000000e-01	1.47908030e-02	1.43413255e-04
4.53000000e-01	1.48006291e-02	1.43843541e-04
4.54000000e-01	1.46880024e-02	1.43458826e-04
4.55000000e-01	1.48371620e-02	1.44408113e-04
4.56000000e-01	1.48045236e-02	1.44249862e-04
4.57000000e-01	1.48075121e-02	1.44386619e-04
4.58000000e-01	1.47100176e-02	1.43548179e-04
4.59000000e-01	1.46711150e-02	1.44068880e-04
4.60000000e-01	1.47499894e-02	1.44135101e-04
4.61000000e-01	1.47879200e-02	1.44610538e-04
4.62000000e-01	1.47958279e-02	1.44677455e-04
4.63000000e-01	1.47603161e-02	1.44612673e-04
4.64000000e-01	1.46619263e-02	1.43796955e-04
4.65000000e-01	1.46358894e-02	1.43964195e-04
4.66000000e-01	1.46882575e-02	1.44221786e-04
4.67000000e-01	1.45687292e-02	1.43379549e-04
4.68000000e-01	1.47000447e-02	1.44550452e-04
4.69000000e-01	1.46744999e-02	1.45037207e-04
4.70000000e-01	1.46542072e-02	1.44314795e-04
4.71000000e-01	1.45288932e-02	1.42927495e-04
4.72000000e-01	1.46260522e-02	1.43719906e-04
4.73000000e-01	1.45726468e-02	1.43465909e-04
4.74000000e-01	1.44383225e-02	1.42006297e-04
4.75000000e-01	1.43075747e-02	1.41768869e-04
4.76000000e-01	1.45365005e-02	1.42804421e-04
4.77000000e-01	1.46063254e-02	1.43641165e-04
4.78000000e-01	1.46208177e-02	1.43889371e-04
4.79000000e-01	1.44199048e-02	1.42136907e-04
4.80000000e-01	1.45415467e-02	1.43258506e-04
4.81000000e-01	1.44500244e-02	1.42552451e-04
4.82000000e-01	1.46076863e-02	1.44366939e-04
4.83000000e-01	1.45033454e-02	1.43367970e-04
4.84000000e-01	1.44278254e-02	1.42339906e-04
4.85000000e-01	1.44744447e-02	1.43096841e-04
4.86000000e-01	1.45461131e-02	1.43602772e-04
4.87000000e-01	1.45004146e-02	1.43450124e-04
4.88000000e-01	1.43290950e-02	1.42158723e-04
4.89000000e-01	1.44139479e-02	1.42817496e-04
4.90000000e-01	1.44468124e-02	1.43265488e-04
4.91000000e-01	1.44036443e-02	1.42934806e-04
4.92000000e-01	1.44958019e-02	1.43975155e-04
4.93000000e-01	1.43510358e-02	1.42395430e-04
4.94000000e-01	1.44876734e-02	1.43792928e-04
4.95000000e-01	1.43420690e-02	1.43818869e-04
4.96000000e-01	1.43994877e-02	1.48342851e-04
4.97000000e-01	1.44643314e-02	1.51504752e-04
4.98000000e-01	1.44117597e-02	1.53372484e-04
4.99000000e-01	1.43141487e-02	1.54293989e-04
5.00000000e-01	1.43555594e-02	1.56765634e-04
5.01000000e-01	1.44543795e-02	1.58896528e-04
5.02000000e-01	1.43250335e-02	1.58970558e-04
5.03000000e-01	1.44024659e-02	1.61661159e-04
5.04000000e-01	1.43232444e-02	1.61824103e-04
5.05000000e-01	1.43644253e-02	1.59611610e-04
5.06000000e-01	1.42719849e-02	1.55269988e-04
5.07000000e-01	1.43532828e-02	1.54880758e-04
5.08000000e-01	1.44244252e-02	1.53990429e-04
5.09000000e-01	1.42897435e-02	1.52179400e-04
5.10000000e-01	1.45632760e-02	1.54582835e-04
5.11000000e-01	1.43146074e-02	1.51614734e-04
5.12000000e-01	1.42530211e-02	1.50595247e-04
5.13000000e-01	1.43278687e-02	1.51395876e-04
5.14000000e-01	1.43383194e-02	1.51078236e-04
5.15000000e-01	1.42046583e-02	1.48824257e-04
5.16000000e-01	1.42951814e-02	1.49616104e-04
5.17000000e-01	1.42604339e-02	1.49439860e-04
5.18000000e-01	1.42206079e-02	1.48606947e-04
5.19000000e-01	1.42506807e-02	1.48408704e-04
5.20000000e-01	1.42390524e-02	1.48234760e-04
5.21000000e-01	1.42636690e-02	1.48158232e-04
5.22000000e-01	1.42757826e-02	1.48035921e-04
5.23000000e-01	1.40984043e-02	1.46353246e-04
5.24000000e-01	1.41094911e-02	1.46664976e-04
5.25000000e-01	1.42488093e-02	1.47809452e-04
5.26000000e-01	1.40567400e-02	1.45583438e-04
5.27000000e-01	1.40902525e-02	1.46295107e-04
5.28000000e-01	1.42028261e-02	1.47092757e-04
5.29000000e-01	1.41115244e-02	1.46166863e-04
5.30000000e-01	1.41220739e-02	1.46645067e-04
5.31000000e-01	1.42138681e-02	1.47835846e-04
5.32000000e-01	1.40113623e-02	1.45525101e-04
5.33000000e-01	1.41169620e-02	1.46199376e-04
5.34000000e-01	1.39872249e-02	1.44667572e-04
5.35000000e-01	1.39617688e-02	1.44914695e-04
5.36000000e-01	1.39299601e-02	1.44506132e-04
5.37000000e-01	1.40427582e-02	1.45578401e-04
5.38000000e-01	1.39751415e-02	1.45236846e-04
5.39000000e-01	1.39455308e-02	1.45372013e-04
5.40000000e-01	1.39612406e-02	1.45223066e-04
5.41000000e-01	1.40582397e-02	1.46007005e-04
5.42000000e-01	1.39349890e-02	1.44881027e-04
5.43000000e-01	1.39883306e-02	1.44997356e-04
5.44000000e-01	1.39517519e-02	1.45180882e-04
5.45000000e-01	1.40018206e-02	1.45277313e-04
5.46000000e-01	1.40657802e-02	1.45893682e-04
5.47000000e-01	1.40076879e-02	1.45366366e-04
5.48000000e-01	1.40183162e-02	1.45408367e-04
5.49000000e-01	1.39218308e-02	1.44463135e-04
5.50000000e-01	1.39598547e-02	1.44422317e-04
5.51000000e-01	1.40037001e-02	1.44520300e-04
5.52000000e-01	1.38767689e-02	1.42864816e-04
5.53000000e-01	1.37501765e-02	1.42420259e-04
5.54000000e-01	1.39647536e-02	1.44024647e-04
5.55000000e-01	1.38893181e-02	1.43132246e-04
5.56000000e-01	1.38583389e-02	1.42508813e-04
5.57000000e-01	1.38787268e-02	1.43043555e-04
5.58000000e-01	1.36469502e-02	1.40814520e-04
5.59000000e-01	1.37739328e-02	1.41993953e-04
5.60000000e-01	1.37105155e-02	1.41688955e-04
5.61000000e-01	1.37549690e-02	1.41858545e-04
5.62000000e-01	1.39327899e-02	1.43927319e-04
5.63000000e-01	1.38160465e-02	1.42578285e-04
5.64000000e-01	1.36839160e-02	1.41149207e-04
5.65000000e-01	1.36844776e-02	1.41646386e-04
5.66000000e-01	1.37897141e-02	1.42364855e-04
5.67000000e-01	1.37566562e-02	1.42006798e-04
5.68000000e-01	1.36648652e-02	1.41499636e-04
5.69000000e-01	1.36710334e-02	1.41074862e-04
5.70000000e-01	1.37686155e-02	1.41920719e-04
5.71000000e-01	1.37467688e-02	1.41675816e-04
5.72000000e-01	1.36276394e-02	1.40586281e-04
5.73000000e-01	1.36720728e-02	1.41509895e-04
5.74000000e-01	1.37204682e-02	1.41267891e-04
5.75000000e-01	1.35542277e-02	1.40088101e-04
5.76000000e-01	1.35828671e-02	1.40436738e-04
5.77000000e-01	1.35983428e-02	1.40597492e-04
5.78000000e-01	1.35270415e-02	1.40135262e-04
5.79000000e-01	1.35892408e-02	1.41080069e-04
5.80000000e-01	1.36283975e-02	1.41056998e-04
5.81000000e-01	1.35277997e-02	1.40069967e-04
5.82000000e-01	1.35067181e-02	1.39700645e-04
5.83000000e-01	1.35735109e-02	1.40825402e-04
5.84000000e-01	1.35756129e-02	1.41047726e-04
5.85000000e-01	1.34779131e-02	1.40021539e-04
5.86000000e-01	1.34238828e-02	1.39218652e-04
5.87000000e-01	1.32953427e-02	1.37553309e-04
5.88000000e-01	1.34758193e-02	1.39351357e-04
5.89000000e-01	1.34800690e-02	1.40023432e-04
5.90000000e-01	1.33955943e-02	1.39245720e-04
5.91000000e-01	1.33906269e-02	1.38955329e-04
5.92000000e-01	1.35680189e-02	1.40497761e-04
5.93000000e-01	1.34709323e-02	1.40218353e-04
5.94000000e-01	1.34433213e-02	1.39667028e-04
5.95000000e-01	1.34326105e-02	1.39317675e-04
5.96000000e-01	1.33027967e-02	1.38186079e-04
5.97000000e-01	1.33857402e-02	1.39084365e-04
5.98000000e-01	1.34862923e-02	1.40122049e-04
5.99000000e-01	1.34580756e-02	1.39885575e-04
6.00000000e-01	1.31950497e-02	1.37550984e-04
6.01000000e-01	1.32658136e-02	1.38047533e-04
6.02000000e-01	1.33031927e-02	1.38332579e-04
6.03000000e-01	1.33316204e-02	1.38634929e-04
6.04000000e-01	1.33889811e-02	1.39222040e-04
6.05000000e-01	1.32404857e-02	1.37841649e-04
6.06000000e-01	1.32506944e-02	1.38131940e-04
6.07000000e-01	1.33369802e-02	1.39134479e-04
6.08000000e-01	1.33090099e-02	1.38398217e-04
6.09000000e-01	1.32505059e-02	1.38396708e-04
6.10000000e-01	1.32790287e-02	1.38506480e-04
6.11000000e-01	1.32150121e-02	1.37719617e-04
6.12000000e-01	1.33166031e-02	1.38833676e-04
6.13000000e-01	1.33096332e-02	1.38854345e-04
6.14000000e-01	1.32391403e-02	1.38031194e-04
6.15000000e-01	1.31753998e-02	1.37516693e-04
6.16000000e-01	1.31587974e-02	1.37413252e-04
6.17000000e-01	1.31818719e-02	1.37645445e-04
6.18000000e-01	1.32731429e-02	1.38436671e-04
6.19000000e-01	1.31359479e-02	1.36657448e-04
6.20000000e-01	1.32155736e-02	1.37941607e-04
6.21000000e-01	1.32530575e-02	1.37574902e-04
6.22000000e-01	1.32219827e-02	1.37390928e-04
6.23000000e-01	1.32278223e-02	1.37221384e-04
6.24000000e-01	1.31778650e-02	1.36457159e-04
6.25000000e-01	1.30931075e-02	1.34959302e-04
6.26000000e-01	1.31385815e-02	1.35777410e-04
6.27000000e-01	1.30878791e-02	1.35667524e-04
6.28000000e-01	1.31541861e-02	1.36048580e-04
6.29000000e-01	1.31766936e-02	1.36324587e-04
6.30000000e-01	1.31879952e-02	1.36675120e-04
6.31000000e-01	1.30945502e-02	1.35808240e-04
6.32000000e-01	1.31632976e-02	1.36417417e-04
6.33000000e-01	1.31963248e-02	1.36520519e-04
6.34000000e-01	1.32130049e-02	1.40348966e-04
6.35000000e-01	1.31789145e-02	1.44295496e-04
6.36000000e-01	1.32705078e-02	1.47533977e-04
6.37000000e-01	1.32361568e-02	1.50033761e-04
6.38000000e-01	1.32239950e-02	1.51339722e-04
6.39000000e-01	1.32307175e-02	1.53255264e-04
6.40000000e-01	1.31545131e-02	1.54389416e-04
6.41000000e-01	1.32239936e-02	1.57227550e-04
6.42000000e-01	1.31540274e-02	1.57761917e-04
6.43000000e-01	1.32191054e-02	1.58620535e-04
6.44000000e-01	1.30628548e-02	1.50877693e-04
6.45000000e-01	1.32351067e-02	1.50839356e-04
6.46000000e-01	1.32096600e-02	1.48773232e-04
6.47000000e-01	1.32055286e-02	1.48464142e-04
6.48000000e-01	1.31734896e-02	1.46446797e-04
6.49000000e-01	1.32146460e-02	1.46366003e-04
6.50000000e-01	1.31206708e-02	1.44871923e-04
6.51000000e-01	1.30720314e-02	1.43732293e-04
6.52000000e-01	1.30671548e-02	1.43462365e-04
6.53000000e-01	1.30312618e-02	1.42032354e-04
6.54000000e-01	1.31034863e-02	1.42488254e-04
6.55000000e-01	1.31383284e-02	1.42869200e-04
6.56000000e-01	1.30739747e-02	1.41822480e-04
6.57000000e-01	1.29850184e-02	1.41081270e-04
6.58000000e-01	1.32070107e-02	1.42472982e-04
6.59000000e-01	1.31121863e-02	1.41760102e-04
6.60000000e-01	1.30635904e-02	1.41438718e-04
6.61000000e-01	1.29889876e-02	1.39887297e-04
6.62000000e-01	1.30796279e-02	1.41009370e-04
6.63000000e-01	1.29420349e-02	1.39550702e-04
6.64000000e-01	1.29738625e-02	1.39689459e-04
6.65000000e-01	1.30488539e-02	1.40496873e-04
6.66000000e-01	1.31480332e-02	1.41642527e-04
6.67000000e-01	1.31105964e-02	1.41001710e-04
6.68000000e-01	1.29161528e-02	1.39126051e-04
6.69000000e-01	1.29162495e-02	1.38467137e-04
6.70000000e-01	1.29017483e-02	1.38768859e-04
6.71000000e-01	1.29420012e-02	1.39320857e-04
6.72000000e-01	1.28550034e-02	1.37997225e-04
6.73000000e-01	1.29426939e-02	1.39081660e-04
6.74000000e-01	1.27946911e-02	1.37110082e-04
6.75000000e-01	1.29587847e-02	1.38592150e-04
6.76000000e-01	1.29030117e-02	1.38656657e-04
6.77000000e-01	1.30468335e-02	1.39849010e-04
6.78000000e-01	1.28990023e-02	1.38545056e-04
6.79000000e-01	1.28802147e-02	1.38324457e-04
6.80000000e-01	1.30341983e-02	1.39560674e-04
6.81000000e-01	1.29024591e-02	1.38172528e-04
6.82000000e-01	1.28158150e-02	1.37608910e-04
6.83000000e-01	1.28898434e-02	1.37826027e-04
6.84000000e-01	1.28082090e-02	1.37771319e-04
6.85000000e-01	1.28307892e-02	1.37134392e-04
6.86000000e-01	1.29289739e-02	1.38544707e-04
6.87000000e-01	1.27623197e-02	1.36800893e-04
6.88000000e-01	1.28410732e-02	1.37432478e-04
6.89000000e-01	1.28367178e-02	1.37088230e-04
6.90000000e-01	1.27340231e-02	1.36451168e-04
6.91000000e-01	1.28293584e-02	1.37103289e-04
6.92000000e-01	1.28578291e-02	1.37227603e-04
6.93000000e-01	1.28688851e-02	1.37373236e-04
6.94000000e-01	1.26509326e-02	1.35194112e-04
6.95000000e-01	1.27321167e-02	1.36382521e-04
6.96000000e-01	1.27343481e-02	1.36416469e-04
6.97000000e-01	1.27084958e-02	1.36151730e-04
6.98000000e-01	1.27633797e-02	1.36241257e-04
6.99000000e-01	1.25694206e-02	1.34774111e-04
7.00000000e-01	1.26605715e-02	1.35280968e-04
7.01000000e-01	1.27077154e-02	1.35870526e-04
7.02000000e-01	1.27507963e-02	1.36412002e-04
7.03000000e-01	1.27965224e-02	1.36575403e-04
7.04000000e-01	1.26701046e-02	1.35577665e-04
7.05000000e-01	1.25699397e-02	1.34883461e-04
7.06000000e-01	1.26236549e-02	1.35666287e-04
7.07000000e-01	1.25922736e-02	1.34562997e-04
7.08000000e-01	1.25631743e-02	1.33924385e-04
7.09000000e-01	1.25276284e-02	1.33844394e-04
7.10000000e-01	1.25336839e-02	1.33262550e-04
7.11000000e-01	1.25329213e-02	1.34319468e-04
7.12000000e-01	1.25286299e-02	1.33724380e-04
7.13000000e-01	1.25926843e-02	1.34671935e-04
7.14000000e-01	1.25028611e-02	1.34053434e-04
7.15000000e-01	1.25079278e-02	1.34233984e-04
7.16000000e-01	1.25815349e-02	1.34594264e-04
7.17000000e-01	1.26210226e-02	1.34834914e-04
7.18000000e-01	1.23200395e-02	1.32141014e-04
7.19000000e-01	1.24991734e-02	1.33718680e-04
7.20000000e-01	1.24940629e-02	1.33907709e-04
7.21000000e-01	1.25188143e-02	1.33860708e-04
7.22000000e-01	1.24621220e-02	1.33862106e-04
7.23000000e-01	1.25891234e-02	1.34858169e-04
7.24000000e-01	1.25179609e-02	1.33650549e-04
7.25000000e-01	1.24434030e-02	1.33459685e-04
7.26000000e-01	1.24027519e-02	1.32812373e-04
7.27000000e-01	1.24327685e-02	1.32661471e-04
7.28000000e-01	1.24325793e-02	1.33114123e-04
7.29000000e-01	1.23781007e-02	1.32516233e-04
7.30000000e-01	1.23170658e-02	1.31973593e-04
7.31000000e-01	1.23989651e-02	1.32501769e-04
7.32000000e-01	1.23364452e-02	1.32181347e-04
7.33000000e-01	1.23683464e-02	1.32448328e-04
7.34000000e-01	1.23117929e-02	1.31415482e-04
7.35000000e-01	1.23958798e-02	1.32588513e-04
7.36000000e-01	1.24727572e-02	1.32924153e-04
7.37000000e-01	1.21673913e-02	1.29892239e-04
7.38000000e-01	1.21868596e-02	1.30018961e-04
7.39000000e-01	1.23081345e-02	1.30732927e-04
7.40000000e-01	1.22229194e-02	1.30019921e-04
7.41000000e-01	1.21182965e-02	1.28230216e-04
7.42000000e-01	1.22521080e-02	1.30290145e-04
7.43000000e-01	1.22392546e-02	1.29225575e-04
7.44000000e-01	1.22796946e-02	1.30203938e-04
7.45000000e-01	1.22739445e-02	1.29830188e-04
7.46000000e-01	1.21776903e-02	1.29060311e-04
7.47000000e-01	1.21105818e-02	1.28777274e-04
7.48000000e-01	1.22217977e-02	1.29754299e-04
7.49000000e-01	1.20985560e-02	1.28867478e-04
7.50000000e-01	1.21719065e-02	1.29029795e-04
7.51000000e-01	1.22016460e-02	1.29695018e-04
7.52000000e-01	1.21374733e-02	1.29047121e-04
7.53000000e-01	1.22446971e-02	1.29633483e-04
7.54000000e-01	1.20861517e-02	1.28347476e-04
7.55000000e-01	1.21680473e-02	1.29148210e-04
7.56000000e-01	1.20848750e-02	1.28485177e-04
7.57000000e-01	1.20928083e-02	1.28835654e-04
7.58000000e-01	1.20959413e-02	1.28316739e-04
7.59000000e-01	1.21286751e-02	1.28640401e-04
7.60000000e-01	1.22023393e-02	1.29027106e-04
7.61000000e-01	1.21836051e-02	1.28887570e-04
7.62000000e-01	1.19769070e-02	1.26707322e-04
7.63000000e-01	1.20037475e-02	1.26857455e-04
7.64000000e-01	1.20695891e-02	1.27085516e-04
7.65000000e-01	1.20692784e-02	1.26654705e-04
7.66000000e-01	1.21214262e-02	1.27316581e-04
7.67000000e-01	1.19109783e-02	1.25787466e-04
7.68000000e-01	1.20390367e-02	1.26388446e-04
7.69000000e-01	1.19118903e-02	1.26058539e-04
7.70000000e-01	1.19409933e-02	1.25355556e-04
7.71000000e-01	1.20216395e-02	1.26741387e-04
7.72000000e-01	1.21034503e-02	1.31584990e-04
7.73000000e-01	1.20066589e-02	1.34881691e-04
7.74000000e-01	1.20116956e-02	1.36917584e-04
7.75000000e-01	1.19991398e-02	1.39566252e-04
7.76000000e-01	1.18909008e-02	1.40748527e-04
7.77000000e-01	1.19581577e-02	1.43779136e-04
7.78000000e-01	1.19281976e-02	1.45026198e-04
7.79000000e-01	1.19200314e-02	1.45671626e-04
7.80000000e-01	1.19290673e-02	1.47965660e-04
7.81000000e-01	1.17938123e-02	1.48296036e-04
7.82000000e-01	1.18604156e-02	1.51057394e-04
7.83000000e-01	1.17480397e-02	1.51399260e-04
7.84000000e-01	1.20156946e-02	1.55773392e-04
7.85000000e-01	1.18510968e-02	1.54838471e-04
7.86000000e-01	1.17226190e-02	1.55115661e-04
7.87000000e-01	1.17634007e-02	1.58201081e-04
7.88000000e-01	1.17406823e-02	1.58351663e-04
7.89000000e-01	1.17393834e-02	1.60459215e-04
7.90000000e-01	1.16837309e-02	1.61631139e-04
7.91000000e-01	1.17277477e-02	1.64013516e-04
7.92000000e-01	1.16829184e-02	1.64299956e-04
7.93000000e-01	1.17000286e-02	1.67078226e-04
7.94000000e-01	1.16820365e-02	1.68198292e-04
7.95000000e-01	1.17305717e-02	1.70267306e-04
7.96000000e-01	1.17708411e-02	1.71809795e-04
7.97000000e-01	1.16585428e-02	1.73280855e-04
7.98000000e-01	1.15300580e-02	1.73291830e-04
7.99000000e-01	1.17806263e-02	1.78328770e-04
8.00000000e-01	1.16889913e-02	1.79510594e-04
8.01000000e-01	1.15650616e-02	1.79195001e-04
8.02000000e-01	1.15161388e-02	1.79769505e-04
8.03000000e-01	1.18326439e-02	1.85492818e-04
8.04000000e-01	1.16435681e-02	1.84778259e-04
8.05000000e-01	1.15807302e-02	1.87817621e-04
8.06000000e-01	1.15576996e-02	1.87632884e-04
8.07000000e-01	1.15227608e-02	1.89187865e-04
8.08000000e-01	1.14664379e-02	1.91153851e-04
8.09000000e-01	1.14685850e-02	1.92906175e-04
8.10000000e-01	1.14398625e-02	1.95894688e-04
8.11000000e-01	1.14897521e-02	1.97901071e-04
8.12000000e-01	1.16746051e-02	2.04060936e-04
8.13000000e-01	1.15743079e-02	2.04337499e-04
8.14000000e-01	1.15072418e-02	2.04129830e-04
8.15000000e-01	1.15247945e-02	2.10119969e-04
8.16000000e-01	1.13917428e-02	2.08798419e-04
8.17000000e-01	1.13508096e-02	2.10415759e-04
8.18000000e-01	1.12335823e-02	2.09904901e-04
8.19000000e-01	1.13508439e-02	2.15147674e-04
8.20000000e-01	1.13625936e-02	2.17677212e-04
8.21000000e-01	1.14841388e-02	2.24157232e-04
8.22000000e-01	1.14616888e-02	2.26283830e-04
8.23000000e-01	1.11613267e-02	2.23865675e-04
8.24000000e-01	1.14814848e-02	2.33274823e-04
8.25000000e-01	1.14124348e-02	2.35051536e-04
8.26000000e-01	1.13567664e-02	2.37020879e-04
8.27000000e-01	1.14656433e-02	2.41187164e-04
8.28000000e-01	1.13347851e-02	2.43354176e-04
8.29000000e-01	1.10257860e-02	2.41936226e-04
8.30000000e-01	1.11056896e-02	2.46347558e-04
8.31000000e-01	1.13268412e-02	2.53658460e-04
8.32000000e-01	1.12224069e-02	2.55955885e-04
8.33000000e-01	1.12058126e-02	2.62181228e-04
8.34000000e-01	1.11122284e-02	2.61199737e-04
8.35000000e-01	1.10714877e-02	2.67243708e-04
8.36000000e-01	1.10938115e-02	2.72778389e-04
8.37000000e-01	1.11792574e-02	2.80585640e-04
8.38000000e-01	1.13638962e-02	2.90344829e-04
8.39000000e-01	1.10335439e-02	2.89904367e-04
8.40000000e-01	1.10427472e-02	2.93871963e-04
8.41000000e-01	1.07827266e-02	2.96020196e-04
8.42000000e-01	1.09991922e-02	3.06602244e-04
8.43000000e-01	1.09790924e-02	3.15591199e-04
8.44000000e-01	1.07815195e-02	3.17574751e-04
8.45000000e-01	1.08755073e-02	3.28682361e-04
8.46000000e-01	1.10512870e-02	3.38694576e-04
8.47000000e-01	1.09182510e-02	3.48897283e-04
8.48000000e-01	1.09572860e-02	3.60666411e-04
8.49000000e-01	1.08026463e-02	3.65748701e-04
8.50000000e-01	1.08604099e-02	3.79437895e-04
8.51000000e-01	1.09654641e-02	3.96674680e-04
8.52000000e-01	1.09978632e-02	4.16939040e-04
8.53000000e-01	1.09378959e-02	4.32505838e-04
8.54000000e-01	1.07916080e-02	4.46952723e-04
8.55000000e-01	1.01849087e-02	4.42577925e-04
8.56000000e-01	1.12868461e-02	4.93651842e-04
8.57000000e-01	1.06082129e-02	4.82283837e-04
8.58000000e-01	1.06463849e-02	4.97754105e-04
8.59000000e-01	1.05748880e-02	5.09570743e-04
8.60000000e-01	1.05285805e-02	5.24900197e-04
8.61000000e-01	1.08488376e-02	5.58752795e-04
8.62000000e-01	1.04342058e-02	5.45605477e-04
8.63000000e-01	1.04521630e-02	5.86521396e-04
8.64000000e-01	1.08409375e-02	6.22451772e-04
8.65000000e-01	1.02248116e-02	6.30218383e-04
8.66000000e-01	1.11034376e-02	7.10352850e-04
8.67000000e-01	1.02399474e-02	6.77409933e-04
8.68000000e-01	1.11075619e-02	7.81953366e-04
8.69000000e-01	1.09900158e-02	8.47278945e-04
8.70000000e-01	1.09581438e-02	9.38856447e-04
8.71000000e-01	1.00684173e-02	9.32824458e-04
8.72000000e-01	1.15511515e-02	1.22608792e-03
8.73000000e-01	1.08003661e-02	1.31358069e-03
8.74000000e-01	9.84545430e-03	1.59969660e-03
8.75000000e-01	1.06335343e-02	3.37426745e-03
