% Filename : SDL7_00010_00011.h5
% Date & Time : 30-Oct-2025 14:42:26
% X-ray Energy (keV) : 13.30001
% Exposure Time (s) : 0.500
% Beam Center : 1461.24000, 208.98300
% Sample to Detector Distance (SDD) (mm) : 1990.750
% Detector Pixel Size (mm) : 0.075
% Photodiode Value : 135458.000
% I0 of Sample : 0
% I0 of Standard : 1
% 
% q(A^-1)   I(q)    I(q)_SE
0.00000000e+00	9.33624821e-03	4.80890247e-03
2.50000000e-04	0.00000000e+00	0.00000000e+00
5.00000000e-04	0.00000000e+00	0.00000000e+00
7.50000000e-04	0.00000000e+00	0.00000000e+00
1.00000000e-03	0.00000000e+00	0.00000000e+00
1.25000000e-03	0.00000000e+00	0.00000000e+00
1.50000000e-03	0.00000000e+00	0.00000000e+00
1.75000000e-03	0.00000000e+00	0.00000000e+00
2.00000000e-03	0.00000000e+00	0.00000000e+00
2.25000000e-03	0.00000000e+00	0.00000000e+00
2.50000000e-03	0.00000000e+00	0.00000000e+00
2.75000000e-03	0.00000000e+00	0.00000000e+00
3.00000000e-03	0.00000000e+00	0.00000000e+00
3.25000000e-03	2.92950858e+01	1.71064688e+01
3.50000000e-03	1.07866512e+01	4.37945703e+00
3.75000000e-03	6.34854051e+00	2.41644876e+00
4.00000000e-03	5.45598005e+00	1.89277790e+00
4.25000000e-03	3.07794928e+00	1.06588034e+00
4.50000000e-03	3.86721289e+00	1.12240478e+00
4.75000000e-03	4.37980506e+00	1.15767248e+00
5.00000000e-03	3.33924126e+00	8.51263724e-01
5.25000000e-03	2.85478261e+00	7.30962923e-01
5.50000000e-03	2.34385105e+00	5.89206401e-01
5.75000000e-03	2.02336552e+00	5.03551933e-01
6.00000000e-03	1.63873950e+00	4.01176038e-01
6.25000000e-03	1.44571502e+00	3.50609833e-01
6.50000000e-03	1.20956102e+00	2.89729486e-01
6.75000000e-03	1.05188893e+00	2.47747599e-01
7.00000000e-03	9.03293423e-01	2.09626532e-01
7.25000000e-03	7.84584805e-01	1.81387104e-01
7.50000000e-03	6.51439521e-01	1.52470824e-01
7.75000000e-03	5.98601848e-01	1.35685809e-01
8.00000000e-03	5.46339804e-01	1.21689487e-01
8.25000000e-03	4.55929377e-01	9.86123329e-02
8.50000000e-03	4.11437331e-01	8.79053101e-02
8.75000000e-03	3.79050775e-01	8.05388407e-02
9.00000000e-03	3.42137985e-01	7.31532145e-02
9.25000000e-03	3.02464906e-01	6.37354828e-02
9.50000000e-03	2.68436885e-01	5.48096257e-02
9.75000000e-03	2.47130244e-01	4.95559551e-02
1.00000000e-02	2.11120326e-01	4.26496690e-02
1.02500000e-02	2.11794919e-01	4.16448440e-02
1.05000000e-02	1.88550713e-01	3.62025380e-02
1.07500000e-02	1.76778628e-01	3.39936941e-02
1.10000000e-02	1.60402570e-01	3.02050673e-02
1.12500000e-02	1.42811578e-01	2.59247249e-02
1.15000000e-02	1.38740455e-01	2.53891390e-02
1.17500000e-02	1.22143150e-01	2.25356802e-02
1.20000000e-02	1.19609719e-01	2.19111184e-02
1.22500000e-02	1.14851894e-01	1.99151596e-02
1.25000000e-02	1.08175124e-01	1.82588729e-02
1.27500000e-02	1.02303409e-01	1.70234250e-02
1.30000000e-02	9.50937686e-02	1.55569837e-02
1.32500000e-02	8.79531820e-02	1.35632350e-02
1.35000000e-02	8.35390060e-02	1.30206615e-02
1.37500000e-02	8.00258918e-02	1.23739316e-02
1.40000000e-02	7.43943587e-02	1.11919908e-02
1.42500000e-02	6.67679296e-02	9.72602866e-03
1.45000000e-02	6.67755673e-02	9.46066971e-03
1.47500000e-02	6.40975473e-02	9.58436161e-03
1.50000000e-02	6.26737957e-02	8.71164944e-03
1.52500000e-02	5.88040996e-02	7.95742981e-03
1.55000000e-02	5.55235971e-02	7.01614323e-03
1.57500000e-02	5.20845915e-02	6.74681266e-03
1.60000000e-02	5.16660127e-02	6.39918514e-03
1.62500000e-02	4.94689841e-02	6.08563830e-03
1.65000000e-02	4.87535051e-02	5.63429628e-03
1.67500000e-02	4.61762553e-02	5.20811254e-03
1.70000000e-02	4.53894166e-02	5.39126262e-03
1.72500000e-02	4.33961734e-02	4.74930839e-03
1.75000000e-02	4.24533820e-02	4.58944093e-03
1.77500000e-02	4.01171007e-02	4.00727379e-03
1.80000000e-02	3.95122012e-02	3.99564673e-03
1.82500000e-02	3.88378765e-02	3.64838858e-03
1.85000000e-02	3.79719272e-02	3.70250257e-03
1.87500000e-02	3.77213031e-02	3.51228130e-03
1.90000000e-02	3.58771110e-02	3.32282947e-03
1.92500000e-02	3.48624324e-02	3.21322395e-03
1.95000000e-02	3.49668036e-02	2.96440653e-03
1.97500000e-02	3.53183163e-02	3.01180481e-03
2.00000000e-02	3.30869868e-02	2.71991699e-03
2.02500000e-02	3.14850719e-02	2.55101069e-03
2.05000000e-02	3.19843002e-02	2.52652621e-03
2.07500000e-02	3.09631958e-02	2.30461423e-03
2.10000000e-02	3.23517049e-02	2.44717686e-03
2.12500000e-02	3.14793268e-02	2.41827075e-03
2.15000000e-02	3.04175276e-02	2.23950626e-03
2.17500000e-02	3.08929801e-02	2.27719493e-03
2.20000000e-02	3.00227834e-02	2.17812585e-03
2.22500000e-02	2.82171473e-02	1.93216722e-03
2.25000000e-02	2.88005116e-02	1.98297424e-03
2.27500000e-02	2.93671311e-02	2.03259331e-03
2.30000000e-02	2.96277910e-02	2.03777825e-03
2.32500000e-02	2.85857959e-02	1.88447862e-03
2.35000000e-02	2.81995689e-02	1.86956349e-03
2.37500000e-02	2.73828318e-02	1.75327342e-03
2.40000000e-02	2.75036787e-02	1.79840719e-03
2.42500000e-02	2.81711972e-02	1.73354371e-03
2.45000000e-02	2.73395198e-02	1.68029689e-03
2.47500000e-02	2.70024635e-02	1.62858849e-03
2.50000000e-02	2.78149357e-02	1.70170370e-03
2.52500000e-02	2.65473895e-02	1.58466299e-03
2.55000000e-02	2.71545321e-02	1.58330090e-03
2.57500000e-02	2.66137299e-02	1.57737472e-03
2.60000000e-02	2.62131456e-02	1.51730571e-03
2.62500000e-02	2.52424739e-02	1.45336392e-03
2.65000000e-02	2.61925278e-02	1.46225929e-03
2.67500000e-02	2.58843919e-02	1.46741346e-03
2.70000000e-02	2.65548438e-02	1.51157833e-03
2.72500000e-02	2.61174670e-02	1.47353430e-03
2.75000000e-02	2.53383633e-02	1.41937675e-03
2.77500000e-02	2.48128971e-02	1.37073396e-03
2.80000000e-02	2.61947171e-02	1.38344037e-03
2.82500000e-02	2.53331460e-02	1.36142552e-03
2.85000000e-02	2.61463598e-02	1.36732751e-03
2.87500000e-02	2.57251726e-02	1.33170188e-03
2.90000000e-02	2.56346386e-02	1.34120734e-03
2.92500000e-02	2.44531149e-02	1.24257619e-03
2.95000000e-02	2.52440401e-02	1.30070160e-03
2.97500000e-02	2.55710520e-02	1.27473119e-03
3.00000000e-02	2.57714005e-02	1.33079311e-03
3.02500000e-02	2.52834464e-02	1.28522635e-03
3.05000000e-02	2.42700508e-02	1.20470361e-03
3.07500000e-02	2.54418136e-02	1.26848478e-03
3.10000000e-02	2.47567434e-02	1.24670575e-03
3.12500000e-02	2.55111665e-02	1.26112149e-03
3.15000000e-02	2.43963793e-02	1.20443192e-03
3.17500000e-02	2.41970485e-02	1.17176481e-03
3.20000000e-02	2.52263603e-02	1.23906936e-03
3.22500000e-02	2.42263922e-02	1.18461115e-03
3.25000000e-02	2.38719501e-02	1.16069394e-03
3.27500000e-02	2.37647764e-02	1.12024914e-03
3.30000000e-02	2.30296705e-02	1.10436539e-03
3.32500000e-02	2.31806445e-02	1.10009761e-03
3.35000000e-02	2.30309095e-02	1.11676880e-03
3.37500000e-02	2.43636338e-02	1.15248160e-03
3.40000000e-02	2.36009278e-02	1.12937005e-03
3.42500000e-02	2.36983699e-02	1.10078212e-03
3.45000000e-02	2.35504506e-02	1.10600189e-03
3.47500000e-02	2.30641626e-02	1.08072892e-03
3.50000000e-02	2.36807187e-02	1.10751670e-03
3.52500000e-02	2.27585447e-02	1.06772825e-03
3.55000000e-02	2.26683606e-02	1.05385381e-03
3.57500000e-02	2.24340122e-02	1.04370102e-03
3.60000000e-02	2.27869115e-02	1.05390638e-03
3.62500000e-02	2.22068987e-02	1.04112274e-03
3.65000000e-02	2.26462289e-02	1.03492630e-03
3.67500000e-02	2.38379097e-02	1.08839860e-03
3.70000000e-02	2.25765824e-02	1.02354925e-03
3.72500000e-02	2.25255874e-02	1.03590983e-03
3.75000000e-02	2.24857160e-02	1.02639800e-03
3.77500000e-02	2.20159454e-02	9.94757232e-04
3.80000000e-02	2.29265894e-02	1.03117124e-03
3.82500000e-02	2.29752740e-02	1.02197580e-03
3.85000000e-02	2.28278164e-02	1.03020131e-03
3.87500000e-02	2.15420213e-02	9.61236835e-04
3.90000000e-02	2.28033482e-02	1.02226594e-03
3.92500000e-02	2.18543519e-02	9.63612292e-04
3.95000000e-02	2.26648451e-02	9.98512687e-04
3.97500000e-02	2.19212045e-02	9.72423084e-04
4.00000000e-02	2.25021725e-02	9.98074257e-04
4.02500000e-02	2.21447261e-02	9.82661097e-04
4.05000000e-02	2.15910412e-02	9.46760265e-04
4.07500000e-02	2.16298403e-02	9.42659881e-04
4.10000000e-02	2.18128307e-02	9.61199777e-04
4.12500000e-02	2.17388948e-02	9.57066528e-04
4.15000000e-02	2.22211773e-02	9.64861998e-04
4.17500000e-02	2.12903537e-02	9.28384981e-04
4.20000000e-02	2.14986535e-02	9.27252634e-04
4.22500000e-02	2.21199868e-02	9.42471365e-04
4.25000000e-02	2.13772600e-02	9.22675865e-04
4.27500000e-02	2.17595480e-02	9.31325482e-04
4.30000000e-02	2.13773806e-02	9.08510158e-04
4.32500000e-02	2.10704448e-02	8.97048320e-04
4.35000000e-02	2.17115155e-02	9.33832933e-04
4.37500000e-02	2.17782911e-02	9.18397940e-04
4.40000000e-02	2.10780398e-02	9.03854465e-04
4.42500000e-02	2.27297325e-02	9.65587050e-04
4.45000000e-02	2.17051453e-02	9.02892419e-04
4.47500000e-02	2.15493876e-02	9.15231347e-04
4.50000000e-02	2.12509003e-02	8.93163552e-04
4.52500000e-02	2.19606203e-02	9.16204409e-04
4.55000000e-02	2.17217152e-02	9.01360799e-04
4.57500000e-02	2.15484229e-02	9.01647011e-04
4.60000000e-02	2.12265680e-02	8.84014746e-04
4.62500000e-02	2.15370829e-02	8.98563520e-04
4.65000000e-02	2.15912937e-02	8.89878662e-04
4.67500000e-02	2.08557691e-02	8.61473673e-04
4.70000000e-02	2.13004948e-02	8.69745434e-04
4.72500000e-02	2.12883572e-02	8.77546114e-04
4.75000000e-02	2.13352159e-02	8.80441152e-04
4.77500000e-02	2.14168200e-02	8.76949861e-04
4.80000000e-02	2.14662655e-02	8.84060548e-04
4.82500000e-02	2.22056371e-02	9.09375315e-04
4.85000000e-02	2.10185692e-02	8.65985046e-04
4.87500000e-02	2.13260340e-02	8.70262389e-04
4.90000000e-02	2.17857123e-02	8.79009297e-04
4.92500000e-02	2.11873706e-02	8.60565157e-04
4.95000000e-02	2.13989482e-02	8.70603095e-04
4.97500000e-02	2.13013720e-02	8.65088459e-04
5.00000000e-02	2.07523220e-02	8.39027080e-04
5.02500000e-02	2.09197442e-02	8.47229961e-04
5.05000000e-02	2.10801032e-02	8.41988227e-04
5.07500000e-02	2.08939535e-02	8.44865596e-04
5.10000000e-02	2.09334247e-02	8.42042467e-04
5.12500000e-02	2.07933450e-02	8.37811882e-04
5.15000000e-02	2.05264605e-02	8.10670648e-04
5.17500000e-02	2.10386924e-02	8.40399042e-04
5.20000000e-02	2.08459471e-02	8.32236944e-04
5.22500000e-02	2.04432811e-02	8.20194661e-04
5.25000000e-02	2.03674246e-02	8.05207244e-04
5.27500000e-02	2.11407783e-02	8.28594746e-04
5.30000000e-02	2.09307099e-02	8.32295247e-04
5.32500000e-02	2.09547635e-02	8.22538831e-04
5.35000000e-02	2.06459516e-02	8.18459004e-04
5.37500000e-02	2.04643614e-02	8.02305057e-04
5.40000000e-02	2.13722006e-02	8.32798634e-04
5.42500000e-02	2.12535338e-02	8.27377417e-04
5.45000000e-02	2.05035880e-02	8.00531224e-04
5.47500000e-02	2.09757957e-02	8.20884310e-04
5.50000000e-02	2.11839464e-02	8.19642738e-04
5.52500000e-02	2.11674831e-02	8.21665949e-04
5.55000000e-02	2.13500532e-02	8.24684640e-04
5.57500000e-02	2.09446117e-02	8.13977420e-04
5.60000000e-02	2.05985226e-02	7.89617266e-04
5.62500000e-02	2.02305061e-02	7.73506980e-04
5.65000000e-02	2.12766857e-02	8.12483260e-04
5.67500000e-02	2.10899817e-02	8.14323337e-04
5.70000000e-02	2.06438496e-02	7.88987962e-04
5.72500000e-02	2.09467862e-02	8.02748981e-04
5.75000000e-02	2.03995745e-02	7.85917013e-04
5.77500000e-02	2.07894469e-02	7.84087694e-04
5.80000000e-02	2.02352823e-02	7.75725158e-04
5.82500000e-02	2.02180389e-02	7.65463273e-04
5.85000000e-02	2.04489462e-02	7.68912713e-04
5.87500000e-02	2.01054673e-02	7.57558166e-04
5.90000000e-02	2.07777318e-02	7.81677638e-04
5.92500000e-02	2.07956123e-02	7.81765850e-04
5.95000000e-02	2.06792091e-02	7.70283877e-04
5.97500000e-02	2.07011019e-02	7.79883056e-04
6.00000000e-02	2.02889653e-02	7.59125588e-04
6.02500000e-02	2.03434899e-02	7.66851214e-04
6.05000000e-02	2.08651786e-02	7.73682799e-04
6.07500000e-02	2.12650903e-02	7.95756704e-04
6.10000000e-02	2.05488293e-02	7.66976451e-04
6.12500000e-02	2.02530213e-02	7.58897687e-04
6.15000000e-02	2.03859079e-02	7.56512097e-04
6.17500000e-02	2.02970042e-02	7.54194912e-04
6.20000000e-02	2.00077159e-02	7.38740953e-04
6.22500000e-02	2.04344123e-02	7.48027985e-04
6.25000000e-02	2.06552798e-02	7.63795409e-04
6.27500000e-02	2.05186400e-02	7.51899654e-04
6.30000000e-02	1.96535342e-02	7.22943145e-04
6.32500000e-02	2.09303391e-02	7.64348842e-04
6.35000000e-02	2.05629037e-02	7.53815672e-04
6.37500000e-02	2.01999938e-02	7.39314787e-04
6.40000000e-02	2.01658028e-02	7.34956810e-04
6.42500000e-02	2.00630784e-02	7.25107708e-04
6.45000000e-02	2.03715661e-02	7.39328685e-04
6.47500000e-02	2.04401618e-02	7.43097634e-04
6.50000000e-02	2.05127634e-02	7.48421609e-04
6.52500000e-02	2.01650370e-02	7.28366427e-04
6.55000000e-02	1.98625560e-02	7.19702346e-04
6.57500000e-02	2.02742257e-02	7.33900589e-04
6.60000000e-02	1.96495434e-02	7.15375053e-04
6.62500000e-02	2.06298690e-02	7.50156577e-04
6.65000000e-02	1.98322631e-02	7.07235795e-04
6.67500000e-02	1.97337228e-02	7.04109281e-04
6.70000000e-02	2.03642667e-02	7.31904107e-04
6.72500000e-02	2.03191865e-02	7.26117849e-04
6.75000000e-02	2.02062173e-02	7.16442924e-04
6.77500000e-02	2.04219758e-02	7.23885276e-04
6.80000000e-02	1.98383269e-02	7.12869064e-04
6.82500000e-02	2.01598366e-02	7.19553181e-04
6.85000000e-02	2.01704165e-02	7.26973767e-04
6.87500000e-02	2.01346056e-02	7.14082763e-04
6.90000000e-02	2.00356191e-02	7.12489951e-04
6.92500000e-02	2.05509520e-02	7.24358901e-04
6.95000000e-02	2.01852469e-02	7.16752569e-04
6.97500000e-02	1.99730540e-02	7.06570951e-04
7.00000000e-02	2.04465456e-02	7.19453071e-04
7.02500000e-02	2.00021499e-02	6.97837093e-04
7.05000000e-02	2.01221333e-02	7.03251330e-04
7.07500000e-02	1.96346949e-02	6.92131644e-04
7.10000000e-02	2.01040472e-02	7.06570521e-04
7.12500000e-02	2.05112985e-02	7.15649999e-04
7.15000000e-02	2.00602959e-02	6.96914769e-04
7.17500000e-02	2.01425557e-02	7.01262854e-04
7.20000000e-02	2.01199013e-02	7.02716755e-04
7.22500000e-02	2.03002623e-02	7.03839840e-04
7.25000000e-02	2.02338286e-02	6.98238546e-04
7.27500000e-02	2.01378028e-02	6.94736268e-04
7.30000000e-02	2.03829156e-02	6.99399791e-04
7.32500000e-02	1.98716427e-02	6.77539251e-04
7.35000000e-02	2.01977814e-02	6.96020185e-04
7.37500000e-02	1.99967398e-02	6.88409490e-04
7.40000000e-02	1.94813082e-02	6.71575181e-04
7.42500000e-02	2.00515926e-02	6.91953536e-04
7.45000000e-02	2.03190684e-02	7.00485857e-04
7.47500000e-02	2.03319009e-02	6.95579710e-04
7.50000000e-02	1.98078162e-02	6.78598834e-04
7.52500000e-02	2.01013972e-02	6.86218622e-04
7.55000000e-02	1.97931989e-02	6.77215627e-04
7.57500000e-02	2.01538134e-02	6.82944450e-04
7.60000000e-02	2.00875611e-02	6.83287400e-04
7.62500000e-02	2.03937002e-02	6.87350071e-04
7.65000000e-02	2.00338456e-02	6.83251056e-04
7.67500000e-02	2.01610606e-02	6.85358857e-04
7.70000000e-02	2.00122621e-02	6.72800384e-04
7.72500000e-02	2.03258933e-02	6.98341432e-04
7.75000000e-02	2.05159008e-02	7.08893929e-04
7.77500000e-02	2.00299988e-02	6.93836387e-04
7.80000000e-02	2.04602686e-02	7.07846996e-04
7.82500000e-02	2.04756566e-02	7.23212578e-04
7.85000000e-02	2.03977708e-02	7.25152312e-04
7.87500000e-02	1.97934791e-02	6.97457428e-04
7.90000000e-02	2.01910183e-02	7.19325130e-04
7.92500000e-02	2.03573270e-02	7.30822365e-04
7.95000000e-02	1.98470546e-02	7.10573097e-04
7.97500000e-02	1.98566102e-02	7.11095875e-04
8.00000000e-02	2.00653773e-02	7.16651170e-04
8.02500000e-02	2.02515776e-02	7.27386036e-04
8.05000000e-02	2.03451730e-02	7.33212875e-04
8.07500000e-02	2.11096505e-02	7.64034558e-04
8.10000000e-02	2.02446721e-02	7.29702135e-04
8.12500000e-02	2.00296556e-02	7.33431956e-04
8.15000000e-02	1.99920551e-02	7.26680452e-04
8.17500000e-02	2.01371799e-02	7.35795385e-04
8.20000000e-02	2.03586028e-02	7.40025695e-04
8.22500000e-02	1.96829446e-02	7.17315005e-04
8.25000000e-02	2.00173342e-02	7.28025724e-04
8.27500000e-02	2.01324957e-02	7.34505162e-04
8.30000000e-02	1.99277085e-02	7.32241513e-04
8.32500000e-02	1.93200850e-02	7.13821942e-04
8.35000000e-02	1.96157198e-02	7.26259799e-04
8.37500000e-02	2.01146192e-02	7.34431875e-04
8.40000000e-02	1.95833674e-02	7.33392501e-04
8.42500000e-02	2.02612874e-02	7.48470840e-04
8.45000000e-02	1.91286916e-02	7.10146965e-04
8.47500000e-02	1.94764832e-02	7.23605414e-04
8.50000000e-02	2.00899841e-02	7.39161711e-04
8.52500000e-02	1.99954221e-02	7.45802137e-04
8.55000000e-02	1.99098481e-02	7.45216277e-04
8.57500000e-02	1.95895727e-02	7.35112779e-04
8.60000000e-02	2.03276596e-02	7.59327885e-04
8.62500000e-02	1.99619291e-02	7.46393471e-04
8.65000000e-02	2.01376750e-02	7.50182832e-04
8.67500000e-02	1.97166123e-02	7.34568812e-04
8.70000000e-02	2.01149880e-02	7.31413774e-04
8.72500000e-02	1.97834827e-02	7.09100946e-04
8.75000000e-02	1.93818354e-02	6.88467838e-04
8.77500000e-02	1.95237330e-02	6.90017934e-04
8.80000000e-02	1.99999305e-02	7.05963201e-04
8.82500000e-02	1.99287482e-02	7.00431468e-04
8.85000000e-02	1.98013880e-02	6.92097826e-04
8.87500000e-02	1.94949709e-02	6.77282152e-04
8.90000000e-02	2.01007006e-02	6.94948225e-04
8.92500000e-02	1.99556544e-02	6.87011825e-04
8.95000000e-02	2.00855198e-02	6.92345689e-04
8.97500000e-02	1.98561664e-02	6.80822682e-04
9.00000000e-02	2.00542720e-02	6.78665419e-04
9.02500000e-02	1.95411225e-02	6.62226543e-04
9.05000000e-02	1.96287941e-02	6.69038861e-04
9.07500000e-02	1.99878658e-02	6.80385966e-04
9.10000000e-02	2.02889442e-02	6.84959480e-04
9.12500000e-02	1.99918863e-02	6.69668792e-04
9.15000000e-02	2.01042044e-02	6.78889611e-04
9.17500000e-02	1.97767580e-02	6.71759103e-04
9.20000000e-02	1.97998843e-02	6.67015629e-04
9.22500000e-02	2.02582782e-02	6.71291353e-04
9.25000000e-02	1.94667010e-02	6.48357189e-04
9.27500000e-02	1.99498287e-02	6.61340569e-04
9.30000000e-02	1.98761157e-02	6.63492236e-04
9.32500000e-02	2.01519837e-02	6.72227594e-04
9.35000000e-02	1.96407712e-02	6.49589923e-04
9.37500000e-02	2.00677200e-02	6.64769965e-04
9.40000000e-02	1.98408435e-02	6.57551536e-04
9.42500000e-02	1.99883747e-02	6.55492394e-04
9.45000000e-02	1.98130925e-02	6.50619646e-04
9.47500000e-02	1.97581027e-02	6.53153919e-04
9.50000000e-02	1.94014013e-02	6.31373003e-04
9.52500000e-02	1.94609885e-02	6.34664376e-04
9.55000000e-02	1.94089304e-02	6.33753523e-04
9.57500000e-02	2.01099239e-02	6.54133850e-04
9.60000000e-02	1.98289428e-02	6.44462480e-04
9.62500000e-02	1.92591195e-02	6.30331885e-04
9.65000000e-02	2.00810303e-02	6.49445326e-04
9.67500000e-02	1.95793358e-02	6.33747587e-04
9.70000000e-02	1.97802770e-02	6.39907181e-04
9.72500000e-02	1.98879959e-02	6.40645109e-04
9.75000000e-02	1.95557453e-02	6.29446816e-04
9.77500000e-02	1.94624465e-02	6.22204318e-04
9.80000000e-02	1.95733534e-02	6.26909201e-04
9.82500000e-02	1.99670480e-02	6.41149969e-04
9.85000000e-02	2.00088875e-02	6.38597660e-04
9.87500000e-02	1.98557377e-02	6.26300144e-04
9.90000000e-02	1.95193002e-02	6.21154541e-04
9.92500000e-02	1.99970355e-02	6.35357404e-04
9.95000000e-02	1.94350970e-02	6.17848876e-04
9.97500000e-02	1.94425713e-02	6.23522091e-04
1.00000000e-01	1.93770809e-02	4.99566102e-04
1.00500000e-01	1.95147540e-02	4.40547585e-04
1.01000000e-01	1.94047909e-02	4.33311746e-04
1.01500000e-01	1.96723222e-02	4.35715577e-04
1.02000000e-01	1.94775568e-02	4.32501810e-04
1.02500000e-01	1.98354558e-02	4.37387283e-04
1.03000000e-01	1.98813149e-02	4.36731519e-04
1.03500000e-01	1.98888438e-02	4.38480561e-04
1.04000000e-01	1.98665245e-02	4.35538581e-04
1.04500000e-01	1.98308259e-02	4.33027469e-04
1.05000000e-01	1.95821808e-02	4.24617677e-04
1.05500000e-01	1.97870982e-02	4.29888440e-04
1.06000000e-01	1.98608290e-02	4.29812127e-04
1.06500000e-01	1.95858480e-02	4.23091689e-04
1.07000000e-01	1.96266569e-02	4.32295052e-04
1.07500000e-01	1.98232383e-02	4.43309862e-04
1.08000000e-01	2.01534377e-02	4.52551942e-04
1.08500000e-01	1.97609830e-02	4.46095991e-04
1.09000000e-01	2.00073431e-02	4.56822661e-04
1.09500000e-01	1.93991839e-02	4.43124994e-04
1.10000000e-01	2.01062843e-02	4.54123590e-04
1.10500000e-01	1.94543468e-02	4.29057385e-04
1.11000000e-01	1.97058012e-02	4.28811735e-04
1.11500000e-01	1.99607469e-02	4.31673634e-04
1.12000000e-01	1.97387513e-02	4.21251376e-04
1.12500000e-01	1.94337798e-02	4.12804154e-04
1.13000000e-01	2.01998900e-02	4.30822281e-04
1.13500000e-01	1.97305022e-02	4.17451753e-04
1.14000000e-01	1.98864370e-02	4.17898142e-04
1.14500000e-01	1.98595396e-02	4.15996882e-04
1.15000000e-01	1.98787585e-02	4.15504684e-04
1.15500000e-01	1.98666864e-02	4.15265879e-04
1.16000000e-01	1.96779764e-02	4.12302304e-04
1.16500000e-01	1.99651691e-02	4.16008340e-04
1.17000000e-01	1.97600850e-02	4.10750569e-04
1.17500000e-01	1.99026816e-02	4.11773937e-04
1.18000000e-01	1.98629168e-02	4.11314074e-04
1.18500000e-01	1.95524549e-02	4.03948657e-04
1.19000000e-01	1.94422462e-02	4.02347207e-04
1.19500000e-01	1.98868733e-02	4.06141228e-04
1.20000000e-01	1.96553878e-02	4.02725728e-04
1.20500000e-01	1.96739650e-02	4.02532558e-04
1.21000000e-01	1.96751227e-02	3.99261703e-04
1.21500000e-01	1.96944988e-02	4.00531535e-04
1.22000000e-01	2.00898736e-02	4.05728913e-04
1.22500000e-01	1.94035253e-02	3.93972105e-04
1.23000000e-01	1.95719183e-02	3.96368385e-04
1.23500000e-01	1.99311403e-02	4.01895803e-04
1.24000000e-01	1.97539930e-02	4.00860179e-04
1.24500000e-01	1.96677847e-02	3.94730656e-04
1.25000000e-01	1.96737473e-02	3.95190358e-04
1.25500000e-01	1.94354856e-02	3.89061602e-04
1.26000000e-01	1.96688711e-02	3.91103586e-04
1.26500000e-01	1.96379434e-02	3.88904546e-04
1.27000000e-01	1.96828055e-02	3.92289893e-04
1.27500000e-01	1.95312564e-02	3.87078859e-04
1.28000000e-01	1.95760548e-02	3.88496625e-04
1.28500000e-01	1.98629453e-02	3.92064085e-04
1.29000000e-01	1.96982364e-02	3.87745987e-04
1.29500000e-01	1.97826299e-02	3.89831341e-04
1.30000000e-01	1.96561936e-02	3.88203317e-04
1.30500000e-01	1.98066830e-02	3.86506848e-04
1.31000000e-01	1.93098784e-02	3.77014348e-04
1.31500000e-01	1.97866192e-02	3.84989491e-04
1.32000000e-01	1.96751205e-02	3.82972016e-04
1.32500000e-01	1.91972418e-02	3.73343852e-04
1.33000000e-01	1.97404463e-02	3.82499820e-04
1.33500000e-01	1.91178778e-02	3.70243311e-04
1.34000000e-01	1.97214630e-02	3.78674232e-04
1.34500000e-01	1.97321173e-02	3.76356424e-04
1.35000000e-01	1.93610146e-02	3.72159314e-04
1.35500000e-01	1.97244909e-02	3.76138040e-04
1.36000000e-01	1.93890666e-02	3.69876127e-04
1.36500000e-01	1.95882230e-02	3.74130777e-04
1.37000000e-01	1.95167143e-02	3.69259481e-04
1.37500000e-01	1.94742587e-02	3.67826540e-04
1.38000000e-01	1.97050867e-02	3.73025701e-04
1.38500000e-01	1.96363372e-02	3.70488025e-04
1.39000000e-01	1.98516692e-02	3.75399578e-04
1.39500000e-01	1.96552207e-02	3.71382391e-04
1.40000000e-01	1.95624729e-02	3.69420930e-04
1.40500000e-01	1.95231820e-02	3.69342832e-04
1.41000000e-01	1.96644310e-02	3.70348360e-04
1.41500000e-01	1.97520754e-02	3.73542662e-04
1.42000000e-01	1.91977238e-02	3.59506641e-04
1.42500000e-01	1.97229266e-02	3.70602843e-04
1.43000000e-01	1.93370670e-02	3.62187963e-04
1.43500000e-01	1.93003084e-02	3.60712469e-04
1.44000000e-01	1.95287005e-02	3.64432622e-04
1.44500000e-01	1.93574590e-02	3.59661085e-04
1.45000000e-01	1.93877275e-02	3.61304936e-04
1.45500000e-01	1.92181986e-02	3.57243966e-04
1.46000000e-01	1.94578666e-02	3.60940288e-04
1.46500000e-01	1.92202221e-02	3.56454023e-04
1.47000000e-01	1.96337200e-02	3.61130205e-04
1.47500000e-01	1.93253858e-02	3.55785927e-04
1.48000000e-01	1.93838831e-02	3.56578040e-04
1.48500000e-01	1.90569160e-02	3.51309103e-04
1.49000000e-01	1.95161728e-02	3.56578320e-04
1.49500000e-01	1.94860096e-02	3.56614570e-04
1.50000000e-01	1.94432177e-02	3.55142675e-04
1.50500000e-01	1.95629016e-02	3.57380460e-04
1.51000000e-01	1.92676380e-02	3.52546041e-04
1.51500000e-01	1.90752400e-02	3.46434080e-04
1.52000000e-01	1.92212799e-02	3.46771870e-04
1.52500000e-01	1.89316688e-02	3.44480026e-04
1.53000000e-01	1.93836466e-02	3.49464221e-04
1.53500000e-01	1.91796751e-02	3.45547483e-04
1.54000000e-01	1.93088504e-02	3.47609343e-04
1.54500000e-01	1.91129686e-02	3.53325264e-04
1.55000000e-01	1.92906215e-02	3.58217357e-04
1.55500000e-01	1.90797248e-02	3.56773360e-04
1.56000000e-01	1.94799651e-02	3.65957375e-04
1.56500000e-01	1.91778641e-02	3.61486509e-04
1.57000000e-01	1.93285598e-02	3.64202107e-04
1.57500000e-01	1.89350759e-02	3.49323481e-04
1.58000000e-01	1.92007191e-02	3.48771116e-04
1.58500000e-01	1.90488048e-02	3.44069696e-04
1.59000000e-01	1.91546040e-02	3.45912794e-04
1.59500000e-01	1.90039747e-02	3.43849905e-04
1.60000000e-01	1.90833293e-02	3.44872344e-04
1.60500000e-01	1.90922155e-02	3.42187354e-04
1.61000000e-01	1.91476104e-02	3.44465928e-04
1.61500000e-01	1.92820590e-02	3.43055655e-04
1.62000000e-01	1.89793223e-02	3.38842277e-04
1.62500000e-01	1.89882706e-02	3.39748749e-04
1.63000000e-01	1.90319772e-02	3.36469273e-04
1.63500000e-01	1.90396346e-02	3.37911878e-04
1.64000000e-01	1.88222420e-02	3.33266185e-04
1.64500000e-01	1.91239621e-02	3.37816457e-04
1.65000000e-01	1.91404242e-02	3.38679816e-04
1.65500000e-01	1.91196041e-02	3.36620782e-04
1.66000000e-01	1.90291018e-02	3.35094126e-04
1.66500000e-01	1.89825193e-02	3.32422660e-04
1.67000000e-01	1.88148226e-02	3.29351907e-04
1.67500000e-01	1.89134957e-02	3.32033963e-04
1.68000000e-01	1.90361811e-02	3.33128982e-04
1.68500000e-01	1.89705200e-02	3.30869557e-04
1.69000000e-01	1.89628373e-02	3.30344924e-04
1.69500000e-01	1.88100206e-02	3.25722197e-04
1.70000000e-01	1.88681696e-02	3.25478963e-04
1.70500000e-01	1.87669213e-02	3.25466171e-04
1.71000000e-01	1.87347126e-02	3.23087004e-04
1.71500000e-01	1.89607018e-02	3.27336031e-04
1.72000000e-01	1.90058416e-02	3.27194944e-04
1.72500000e-01	1.86994795e-02	3.22837857e-04
1.73000000e-01	1.87289761e-02	3.21904725e-04
1.73500000e-01	1.87375685e-02	3.19639170e-04
1.74000000e-01	1.89279355e-02	3.22706400e-04
1.74500000e-01	1.87707095e-02	3.19598274e-04
1.75000000e-01	1.91124972e-02	3.23682314e-04
1.75500000e-01	1.88419378e-02	3.19428250e-04
1.76000000e-01	1.89161752e-02	3.20790336e-04
1.76500000e-01	1.89441349e-02	3.20151203e-04
1.77000000e-01	1.90004213e-02	3.19544347e-04
1.77500000e-01	1.85980031e-02	3.14904290e-04
1.78000000e-01	1.86782728e-02	3.14848619e-04
1.78500000e-01	1.90051827e-02	3.20875784e-04
1.79000000e-01	1.87899397e-02	3.15466338e-04
1.79500000e-01	1.87432109e-02	3.15506022e-04
1.80000000e-01	1.88037566e-02	3.15744536e-04
1.80500000e-01	1.88614581e-02	3.17424343e-04
1.81000000e-01	1.85611379e-02	3.13005609e-04
1.81500000e-01	1.87663465e-02	3.13781602e-04
1.82000000e-01	1.87472270e-02	3.13900643e-04
1.82500000e-01	1.85242460e-02	3.09618094e-04
1.83000000e-01	1.87017654e-02	3.13084342e-04
1.83500000e-01	1.84386411e-02	3.07880175e-04
1.84000000e-01	1.84489061e-02	3.07155642e-04
1.84500000e-01	1.85009913e-02	3.09710365e-04
1.85000000e-01	1.82633048e-02	3.05709490e-04
1.85500000e-01	1.86144264e-02	3.09542243e-04
1.86000000e-01	1.88162124e-02	3.12296854e-04
1.86500000e-01	1.84593879e-02	3.06660616e-04
1.87000000e-01	1.83747646e-02	3.04451185e-04
1.87500000e-01	1.86154802e-02	3.08478145e-04
1.88000000e-01	1.86783846e-02	3.08579752e-04
1.88500000e-01	1.82174087e-02	3.01247329e-04
1.89000000e-01	1.84988310e-02	3.04510562e-04
1.89500000e-01	1.87032703e-02	3.06446236e-04
1.90000000e-01	1.84769778e-02	3.03429292e-04
1.90500000e-01	1.84890379e-02	3.03770009e-04
1.91000000e-01	1.83019916e-02	3.00083180e-04
1.91500000e-01	1.85387384e-02	3.03548672e-04
1.92000000e-01	1.84103116e-02	3.00898454e-04
1.92500000e-01	1.81270013e-02	2.96200439e-04
1.93000000e-01	1.83923701e-02	2.99756439e-04
1.93500000e-01	1.84179403e-02	3.00584726e-04
1.94000000e-01	1.85966305e-02	3.02920547e-04
1.94500000e-01	1.83015293e-02	2.97059917e-04
1.95000000e-01	1.85177004e-02	2.99623067e-04
1.95500000e-01	1.83219360e-02	2.97029703e-04
1.96000000e-01	1.80027753e-02	2.92792079e-04
1.96500000e-01	1.81104880e-02	2.93810706e-04
1.97000000e-01	1.81313748e-02	2.92323156e-04
1.97500000e-01	1.81523556e-02	2.93339796e-04
1.98000000e-01	1.85106775e-02	2.97988306e-04
1.98500000e-01	1.85423848e-02	2.97232939e-04
1.99000000e-01	1.85370533e-02	2.98071792e-04
1.99500000e-01	1.84138136e-02	2.94181162e-04
2.00000000e-01	1.83827232e-02	2.94361882e-04
2.00500000e-01	1.81378404e-02	2.89962088e-04
2.01000000e-01	1.80219294e-02	2.89066519e-04
2.01500000e-01	1.82655350e-02	2.92676571e-04
2.02000000e-01	1.82639968e-02	2.91882452e-04
2.02500000e-01	1.82243725e-02	2.89527614e-04
2.03000000e-01	1.81098945e-02	2.89421089e-04
2.03500000e-01	1.83511876e-02	2.92166709e-04
2.04000000e-01	1.83233430e-02	2.90679517e-04
2.04500000e-01	1.84146850e-02	2.92847058e-04
2.05000000e-01	1.81191887e-02	2.86268951e-04
2.05500000e-01	1.82393798e-02	2.89007714e-04
2.06000000e-01	1.83130406e-02	2.89205998e-04
2.06500000e-01	1.77965132e-02	2.82466631e-04
2.07000000e-01	1.82336126e-02	2.87662282e-04
2.07500000e-01	1.83289777e-02	2.89088123e-04
2.08000000e-01	1.82248017e-02	2.87065237e-04
2.08500000e-01	1.80780925e-02	2.82777034e-04
2.09000000e-01	1.83827341e-02	2.88154656e-04
2.09500000e-01	1.81795572e-02	2.84749104e-04
2.10000000e-01	1.81672524e-02	2.84298786e-04
2.10500000e-01	1.79572680e-02	2.82491022e-04
2.11000000e-01	1.80022951e-02	2.81146869e-04
2.11500000e-01	1.82183588e-02	2.84096405e-04
2.12000000e-01	1.81916037e-02	2.83360293e-04
2.12500000e-01	1.82152821e-02	2.83634030e-04
2.13000000e-01	1.82091171e-02	2.82014435e-04
2.13500000e-01	1.81268167e-02	2.81604338e-04
2.14000000e-01	1.81522315e-02	2.82885132e-04
2.14500000e-01	1.83573619e-02	2.83387679e-04
2.15000000e-01	1.82438676e-02	2.84119917e-04
2.15500000e-01	1.78379099e-02	2.76338709e-04
2.16000000e-01	1.79028885e-02	2.75940156e-04
2.16500000e-01	1.78921501e-02	2.76910370e-04
2.17000000e-01	1.81245739e-02	2.83033893e-04
2.17500000e-01	1.79441635e-02	2.84520191e-04
2.18000000e-01	1.81468370e-02	2.89594643e-04
2.18500000e-01	1.80072225e-02	2.88473028e-04
2.19000000e-01	1.78121724e-02	2.88423312e-04
2.19500000e-01	1.78444641e-02	2.88258561e-04
2.20000000e-01	1.79717841e-02	2.93063650e-04
2.20500000e-01	1.76890998e-02	2.88125223e-04
2.21000000e-01	1.80876182e-02	2.94076008e-04
2.21500000e-01	1.79141347e-02	2.94136351e-04
2.22000000e-01	1.79006827e-02	2.94159711e-04
2.22500000e-01	1.80665772e-02	2.95074732e-04
2.23000000e-01	1.80879943e-02	2.97377388e-04
2.23500000e-01	1.80157319e-02	2.96260513e-04
2.24000000e-01	1.76528666e-02	2.92541008e-04
2.24500000e-01	1.78633030e-02	2.97071303e-04
2.25000000e-01	1.77740915e-02	2.95470598e-04
2.25500000e-01	1.78378451e-02	2.97516906e-04
2.26000000e-01	1.81238494e-02	3.03289635e-04
2.26500000e-01	1.77706649e-02	2.92423178e-04
2.27000000e-01	1.76821526e-02	2.86969292e-04
2.27500000e-01	1.79664778e-02	2.89994081e-04
2.28000000e-01	1.77210569e-02	2.85088641e-04
2.28500000e-01	1.77240077e-02	2.82312365e-04
2.29000000e-01	1.81539812e-02	2.88489644e-04
2.29500000e-01	1.78322099e-02	2.81608241e-04
2.30000000e-01	1.77328834e-02	2.80455459e-04
2.30500000e-01	1.77402760e-02	2.79260812e-04
2.31000000e-01	1.81354959e-02	2.84703689e-04
2.31500000e-01	1.76728034e-02	2.77060510e-04
2.32000000e-01	1.79959091e-02	2.82491814e-04
2.32500000e-01	1.76688537e-02	2.76356593e-04
2.33000000e-01	1.78688522e-02	2.78113195e-04
2.33500000e-01	1.79593429e-02	2.78091413e-04
2.34000000e-01	1.79168720e-02	2.78826616e-04
2.34500000e-01	1.78577732e-02	2.75770534e-04
2.35000000e-01	1.74520798e-02	2.70698913e-04
2.35500000e-01	1.77714338e-02	2.73568015e-04
2.36000000e-01	1.75116893e-02	2.70692415e-04
2.36500000e-01	1.78938624e-02	2.75365385e-04
2.37000000e-01	1.78027700e-02	2.72545934e-04
2.37500000e-01	1.77184941e-02	2.70075096e-04
2.38000000e-01	1.78786703e-02	2.73183640e-04
2.38500000e-01	1.76182786e-02	2.68900536e-04
2.39000000e-01	1.78569955e-02	2.71153082e-04
2.39500000e-01	1.76770013e-02	2.68434954e-04
2.40000000e-01	1.78099210e-02	2.69741995e-04
2.40500000e-01	1.75344982e-02	2.66311475e-04
2.41000000e-01	1.78817463e-02	2.70419731e-04
2.41500000e-01	1.76024833e-02	2.65835846e-04
2.42000000e-01	1.78816349e-02	2.70288393e-04
2.42500000e-01	1.75564094e-02	2.64448273e-04
2.43000000e-01	1.77187146e-02	2.66304012e-04
2.43500000e-01	1.76224503e-02	2.65707573e-04
2.44000000e-01	1.76971158e-02	2.65915958e-04
2.44500000e-01	1.78938852e-02	2.66495837e-04
2.45000000e-01	1.77496414e-02	2.63851996e-04
2.45500000e-01	1.76690677e-02	2.62786528e-04
2.46000000e-01	1.77132838e-02	2.65217881e-04
2.46500000e-01	1.75501598e-02	2.59932306e-04
2.47000000e-01	1.75338437e-02	2.61126539e-04
2.47500000e-01	1.75768865e-02	2.61163948e-04
2.48000000e-01	1.76892644e-02	2.61894733e-04
2.48500000e-01	1.74134478e-02	2.57882609e-04
2.49000000e-01	1.76174753e-02	2.60899743e-04
2.49500000e-01	1.74284096e-02	2.58155782e-04
2.50000000e-01	1.74664444e-02	2.57788095e-04
2.50500000e-01	1.74747801e-02	2.57650920e-04
2.51000000e-01	1.73444749e-02	2.56760848e-04
2.51500000e-01	1.74049133e-02	2.56798970e-04
2.52000000e-01	1.75303617e-02	2.58680302e-04
2.52500000e-01	1.72533621e-02	2.54129515e-04
2.53000000e-01	1.74385167e-02	2.56362827e-04
2.53500000e-01	1.73958913e-02	2.56389542e-04
2.54000000e-01	1.73042360e-02	2.53942006e-04
2.54500000e-01	1.74477109e-02	2.56600753e-04
2.55000000e-01	1.75742930e-02	2.56720485e-04
2.55500000e-01	1.74149985e-02	2.54713919e-04
2.56000000e-01	1.73735900e-02	2.53235822e-04
2.56500000e-01	1.72301290e-02	2.50843028e-04
2.57000000e-01	1.73738901e-02	2.52303974e-04
2.57500000e-01	1.73185840e-02	2.51783702e-04
2.58000000e-01	1.71324802e-02	2.49865210e-04
2.58500000e-01	1.75697867e-02	2.54818906e-04
2.59000000e-01	1.73688512e-02	2.52344211e-04
2.59500000e-01	1.73233343e-02	2.50291337e-04
2.60000000e-01	1.73644230e-02	2.51878790e-04
2.60500000e-01	1.73229204e-02	2.49613688e-04
2.61000000e-01	1.71759993e-02	2.47926400e-04
2.61500000e-01	1.75114730e-02	2.53361992e-04
2.62000000e-01	1.72562403e-02	2.47534565e-04
2.62500000e-01	1.73594380e-02	2.50216102e-04
2.63000000e-01	1.73917707e-02	2.48969704e-04
2.63500000e-01	1.72485298e-02	2.48220356e-04
2.64000000e-01	1.71623918e-02	2.47362184e-04
2.64500000e-01	1.73641037e-02	2.48909668e-04
2.65000000e-01	1.73057892e-02	2.47012632e-04
2.65500000e-01	1.73625391e-02	2.48341003e-04
2.66000000e-01	1.72153640e-02	2.46031646e-04
2.66500000e-01	1.71995699e-02	2.45111034e-04
2.67000000e-01	1.73536183e-02	2.46514516e-04
2.67500000e-01	1.70845095e-02	2.43811248e-04
2.68000000e-01	1.71864568e-02	2.44660067e-04
2.68500000e-01	1.72288158e-02	2.44873698e-04
2.69000000e-01	1.72558874e-02	2.44472567e-04
2.69500000e-01	1.70711358e-02	2.41520532e-04
2.70000000e-01	1.71180179e-02	2.42334164e-04
2.70500000e-01	1.70517842e-02	2.41062417e-04
2.71000000e-01	1.71760721e-02	2.41578772e-04
2.71500000e-01	1.72500718e-02	2.43851359e-04
2.72000000e-01	1.72129683e-02	2.41839736e-04
2.72500000e-01	1.70575781e-02	2.41712108e-04
2.73000000e-01	1.71742570e-02	2.42219352e-04
2.73500000e-01	1.70791193e-02	2.39850031e-04
2.74000000e-01	1.71303923e-02	2.40112206e-04
2.74500000e-01	1.70192936e-02	2.39011976e-04
2.75000000e-01	1.70952808e-02	2.40350131e-04
2.75500000e-01	1.70680279e-02	2.39850301e-04
2.76000000e-01	1.69469869e-02	2.36720456e-04
2.76500000e-01	1.71103125e-02	2.39559956e-04
2.77000000e-01	1.70570352e-02	2.38701317e-04
2.77500000e-01	1.69439302e-02	2.38805404e-04
2.78000000e-01	1.69602574e-02	2.36966566e-04
2.78500000e-01	1.71966400e-02	2.39907722e-04
2.79000000e-01	1.71042765e-02	2.38448673e-04
2.79500000e-01	1.72347227e-02	2.40419800e-04
2.80000000e-01	1.71019895e-02	2.38229615e-04
2.80500000e-01	1.69726535e-02	2.36244494e-04
2.81000000e-01	1.69773063e-02	2.35932541e-04
2.81500000e-01	1.71932152e-02	2.38355068e-04
2.82000000e-01	1.70131664e-02	2.36172382e-04
2.82500000e-01	1.71317975e-02	2.38426520e-04
2.83000000e-01	1.69092781e-02	2.33139748e-04
2.83500000e-01	1.70500559e-02	2.36029017e-04
2.84000000e-01	1.70613241e-02	2.35691232e-04
2.84500000e-01	1.70024787e-02	2.34318952e-04
2.85000000e-01	1.69777286e-02	2.33936265e-04
2.85500000e-01	1.69843106e-02	2.33177225e-04
2.86000000e-01	1.68389395e-02	2.31899734e-04
2.86500000e-01	1.70505458e-02	2.34030233e-04
2.87000000e-01	1.68699881e-02	2.31867698e-04
2.87500000e-01	1.67828312e-02	2.30372198e-04
2.88000000e-01	1.67957901e-02	2.29085147e-04
2.88500000e-01	1.68237095e-02	2.31002110e-04
2.89000000e-01	1.69482798e-02	2.31471524e-04
2.89500000e-01	1.67421990e-02	2.29231193e-04
2.90000000e-01	1.68929475e-02	2.30670147e-04
2.90500000e-01	1.68863050e-02	2.30039949e-04
2.91000000e-01	1.69829441e-02	2.31473009e-04
2.91500000e-01	1.68790890e-02	2.29902687e-04
2.92000000e-01	1.67036167e-02	2.27978863e-04
2.92500000e-01	1.71144554e-02	2.32764895e-04
2.93000000e-01	1.67465826e-02	2.27710825e-04
2.93500000e-01	1.67581183e-02	2.27242362e-04
2.94000000e-01	1.69543546e-02	2.29303903e-04
2.94500000e-01	1.67972287e-02	2.27868381e-04
2.95000000e-01	1.66963786e-02	2.26669448e-04
2.95500000e-01	1.69031030e-02	2.29220948e-04
2.96000000e-01	1.69300733e-02	2.28259832e-04
2.96500000e-01	1.69192185e-02	2.28401689e-04
2.97000000e-01	1.66731432e-02	2.25972793e-04
2.97500000e-01	1.66428606e-02	2.25064258e-04
2.98000000e-01	1.68886707e-02	2.27163203e-04
2.98500000e-01	1.69587207e-02	2.28816791e-04
2.99000000e-01	1.68206913e-02	2.25758262e-04
2.99500000e-01	1.68069382e-02	2.26364651e-04
3.00000000e-01	1.68796506e-02	2.26663646e-04
3.00500000e-01	1.66153450e-02	2.24010966e-04
3.01000000e-01	1.67248155e-02	2.23131832e-04
3.01500000e-01	1.66554687e-02	2.23839474e-04
3.02000000e-01	1.67824815e-02	2.24681191e-04
3.02500000e-01	1.65200786e-02	2.21363286e-04
3.03000000e-01	1.68354553e-02	2.25066919e-04
3.03500000e-01	1.66031560e-02	2.21498857e-04
3.04000000e-01	1.67227402e-02	2.23746954e-04
3.04500000e-01	1.67481768e-02	2.23154938e-04
3.05000000e-01	1.67887326e-02	2.23611672e-04
3.05500000e-01	1.65525613e-02	2.20567631e-04
3.06000000e-01	1.67335907e-02	2.21633174e-04
3.06500000e-01	1.66332359e-02	2.22277034e-04
3.07000000e-01	1.67306947e-02	2.21567253e-04
3.07500000e-01	1.66077054e-02	2.20081575e-04
3.08000000e-01	1.65107294e-02	2.19164517e-04
3.08500000e-01	1.65947192e-02	2.18886599e-04
3.09000000e-01	1.63445000e-02	2.16296817e-04
3.09500000e-01	1.65488104e-02	2.18887407e-04
3.10000000e-01	1.65227108e-02	2.18234527e-04
3.10500000e-01	1.66048171e-02	2.19728607e-04
3.11000000e-01	1.65236275e-02	2.17027788e-04
3.11500000e-01	1.64580956e-02	2.16867820e-04
3.12000000e-01	1.65407335e-02	2.17808193e-04
3.12500000e-01	1.64600743e-02	2.16648578e-04
3.13000000e-01	1.66291578e-02	2.18550697e-04
3.13500000e-01	1.63836259e-02	2.15240525e-04
3.14000000e-01	1.66942742e-02	2.19543298e-04
3.14500000e-01	1.66831345e-02	2.18489290e-04
3.15000000e-01	1.65060778e-02	2.16729338e-04
3.15500000e-01	1.64544633e-02	2.15648646e-04
3.16000000e-01	1.64570963e-02	2.15394296e-04
3.16500000e-01	1.63629314e-02	2.14503695e-04
3.17000000e-01	1.65191278e-02	2.15803150e-04
3.17500000e-01	1.66735296e-02	2.17753395e-04
3.18000000e-01	1.65758580e-02	2.16933197e-04
3.18500000e-01	1.64432071e-02	2.14352489e-04
3.19000000e-01	1.63774632e-02	2.13113879e-04
3.19500000e-01	1.64743071e-02	2.13885610e-04
3.20000000e-01	1.62255979e-02	2.12007983e-04
3.20500000e-01	1.63589393e-02	2.12316994e-04
3.21000000e-01	1.63120464e-02	2.11916293e-04
3.21500000e-01	1.64003556e-02	2.12918819e-04
3.22000000e-01	1.62881754e-02	2.11642202e-04
3.22500000e-01	1.63577287e-02	2.12832372e-04
3.23000000e-01	1.62626484e-02	2.10648213e-04
3.23500000e-01	1.62883380e-02	2.11154376e-04
3.24000000e-01	1.63184115e-02	2.10627253e-04
3.24500000e-01	1.61350417e-02	2.08614720e-04
3.25000000e-01	1.63473515e-02	2.10948579e-04
3.25500000e-01	1.63677268e-02	2.11517739e-04
3.26000000e-01	1.63370400e-02	2.10701170e-04
3.26500000e-01	1.63200540e-02	2.09921581e-04
3.27000000e-01	1.60158337e-02	2.05755642e-04
3.27500000e-01	1.62297364e-02	2.09099131e-04
3.28000000e-01	1.63844969e-02	2.11434464e-04
3.28500000e-01	1.64145398e-02	2.11023560e-04
3.29000000e-01	1.62905712e-02	2.09571667e-04
3.29500000e-01	1.62106798e-02	2.08942863e-04
3.30000000e-01	1.64189138e-02	2.10017469e-04
3.30500000e-01	1.62807376e-02	2.08225725e-04
3.31000000e-01	1.60063043e-02	2.04866387e-04
3.31500000e-01	1.61589958e-02	2.07228867e-04
3.32000000e-01	1.62570715e-02	2.08327162e-04
3.32500000e-01	1.61532372e-02	2.06386025e-04
3.33000000e-01	1.62055861e-02	2.07349167e-04
3.33500000e-01	1.62088958e-02	2.06759369e-04
3.34000000e-01	1.61895917e-02	2.06893997e-04
3.34500000e-01	1.61995434e-02	2.06722477e-04
3.35000000e-01	1.61840991e-02	2.05364508e-04
3.35500000e-01	1.62302384e-02	2.06590958e-04
3.36000000e-01	1.60115840e-02	2.03390825e-04
3.36500000e-01	1.59650740e-02	2.03322309e-04
3.37000000e-01	1.59996934e-02	2.03518899e-04
3.37500000e-01	1.60638412e-02	2.03320023e-04
3.38000000e-01	1.60764058e-02	2.03680911e-04
3.38500000e-01	1.60862708e-02	2.03145799e-04
3.39000000e-01	1.61121146e-02	2.04841942e-04
3.39500000e-01	1.62348096e-02	2.04807010e-04
3.40000000e-01	1.61671913e-02	2.05459344e-04
3.40500000e-01	1.59138337e-02	2.01290238e-04
3.41000000e-01	1.60821386e-02	2.02305374e-04
3.41500000e-01	1.61067212e-02	2.03753310e-04
3.42000000e-01	1.60655181e-02	2.02284897e-04
3.42500000e-01	1.58933838e-02	2.00728696e-04
3.43000000e-01	1.59787452e-02	2.01717954e-04
3.43500000e-01	1.59877253e-02	2.01557151e-04
3.44000000e-01	1.59975066e-02	2.01313605e-04
3.44500000e-01	1.59777184e-02	2.00606289e-04
3.45000000e-01	1.59371918e-02	2.00198506e-04
3.45500000e-01	1.58721263e-02	1.99267715e-04
3.46000000e-01	1.59439056e-02	2.00720912e-04
3.46500000e-01	1.58691537e-02	1.99156358e-04
3.47000000e-01	1.58576151e-02	1.98352038e-04
3.47500000e-01	1.58802686e-02	1.98634301e-04
3.48000000e-01	1.58306219e-02	1.98158249e-04
3.48500000e-01	1.59008927e-02	1.99255982e-04
3.49000000e-01	1.60294342e-02	1.99540353e-04
3.49500000e-01	1.59370663e-02	1.98863878e-04
3.50000000e-01	1.57978404e-02	1.61288576e-04
3.51000000e-01	1.58740692e-02	1.39531853e-04
3.52000000e-01	1.57764434e-02	1.38941561e-04
3.53000000e-01	1.57329829e-02	1.37833205e-04
3.54000000e-01	1.57454475e-02	1.38273082e-04
3.55000000e-01	1.57279442e-02	1.37807754e-04
3.56000000e-01	1.58968870e-02	1.39631925e-04
3.57000000e-01	1.57029415e-02	1.40543917e-04
3.58000000e-01	1.56032697e-02	1.41030845e-04
3.59000000e-01	1.57401537e-02	1.42899148e-04
3.60000000e-01	1.56272153e-02	1.43332241e-04
3.61000000e-01	1.56577650e-02	1.43867113e-04
3.62000000e-01	1.56416226e-02	1.44718216e-04
3.63000000e-01	1.56343369e-02	1.45082634e-04
3.64000000e-01	1.57095407e-02	1.45866739e-04
3.65000000e-01	1.56479534e-02	1.45904102e-04
3.66000000e-01	1.55830457e-02	1.43785274e-04
3.67000000e-01	1.54667750e-02	1.40959858e-04
3.68000000e-01	1.54653491e-02	1.40363918e-04
3.69000000e-01	1.54635642e-02	1.39018311e-04
3.70000000e-01	1.55210490e-02	1.38763970e-04
3.71000000e-01	1.55580157e-02	1.41014089e-04
3.72000000e-01	1.54767963e-02	1.41301807e-04
3.73000000e-01	1.55331464e-02	1.42111918e-04
3.74000000e-01	1.54272696e-02	1.40964547e-04
3.75000000e-01	1.55051240e-02	1.42134644e-04
3.76000000e-01	1.55885436e-02	1.42645551e-04
3.77000000e-01	1.53966170e-02	1.41072190e-04
3.78000000e-01	1.54130377e-02	1.41524989e-04
3.79000000e-01	1.53472012e-02	1.40865749e-04
3.80000000e-01	1.54946914e-02	1.41330805e-04
3.81000000e-01	1.53452192e-02	1.40082772e-04
3.82000000e-01	1.53731458e-02	1.40388759e-04
3.83000000e-01	1.53313016e-02	1.39793907e-04
3.84000000e-01	1.54101528e-02	1.40748961e-04
3.85000000e-01	1.52906671e-02	1.39870807e-04
3.86000000e-01	1.53962511e-02	1.40290488e-04
3.87000000e-01	1.53724936e-02	1.40285446e-04
3.88000000e-01	1.51763863e-02	1.38645943e-04
3.89000000e-01	1.52440646e-02	1.39565852e-04
3.90000000e-01	1.53103938e-02	1.39625508e-04
3.91000000e-01	1.52084387e-02	1.38520926e-04
3.92000000e-01	1.53306041e-02	1.39670328e-04
3.93000000e-01	1.52804300e-02	1.39150990e-04
3.94000000e-01	1.52507391e-02	1.38842396e-04
3.95000000e-01	1.51994127e-02	1.38213959e-04
3.96000000e-01	1.52351297e-02	1.38813890e-04
3.97000000e-01	1.51897931e-02	1.38399929e-04
3.98000000e-01	1.51341334e-02	1.38058295e-04
3.99000000e-01	1.51135969e-02	1.38051157e-04
4.00000000e-01	1.51342010e-02	1.38142225e-04
4.01000000e-01	1.52826749e-02	1.39020945e-04
4.02000000e-01	1.51039506e-02	1.37576182e-04
4.03000000e-01	1.51453075e-02	1.37668672e-04
4.04000000e-01	1.49783817e-02	1.36618033e-04
4.05000000e-01	1.51186304e-02	1.37918659e-04
4.06000000e-01	1.51395111e-02	1.37718585e-04
4.07000000e-01	1.48990290e-02	1.35856986e-04
4.08000000e-01	1.49872258e-02	1.36207682e-04
4.09000000e-01	1.51473467e-02	1.37314649e-04
4.10000000e-01	1.49083566e-02	1.35586658e-04
4.11000000e-01	1.50027798e-02	1.36565485e-04
4.12000000e-01	1.49686379e-02	1.35540249e-04
4.13000000e-01	1.51558820e-02	1.37230587e-04
4.14000000e-01	1.49793389e-02	1.36098256e-04
4.15000000e-01	1.48543791e-02	1.34399013e-04
4.16000000e-01	1.50464155e-02	1.36688386e-04
4.17000000e-01	1.50186263e-02	1.36326589e-04
4.18000000e-01	1.50424703e-02	1.37700210e-04
4.19000000e-01	1.50507309e-02	1.39842237e-04
4.20000000e-01	1.50640435e-02	1.40469446e-04
4.21000000e-01	1.51340578e-02	1.41612887e-04
4.22000000e-01	1.50388644e-02	1.40982404e-04
4.23000000e-01	1.51294796e-02	1.42264369e-04
4.24000000e-01	1.50122922e-02	1.42039146e-04
4.25000000e-01	1.50052224e-02	1.41910820e-04
4.26000000e-01	1.50736429e-02	1.42428512e-04
4.27000000e-01	1.50989219e-02	1.42436441e-04
4.28000000e-01	1.47551958e-02	1.39735811e-04
4.29000000e-01	1.49812648e-02	1.42632490e-04
4.30000000e-01	1.50126076e-02	1.42588860e-04
4.31000000e-01	1.49827904e-02	1.41801176e-04
4.32000000e-01	1.47632099e-02	1.40761669e-04
4.33000000e-01	1.48571948e-02	1.41390654e-04
4.34000000e-01	1.47871088e-02	1.40778335e-04
4.35000000e-01	1.47935652e-02	1.41557880e-04
4.36000000e-01	1.48844764e-02	1.42006473e-04
4.37000000e-01	1.48333910e-02	1.41895722e-04
4.38000000e-01	1.48733612e-02	1.41943727e-04
4.39000000e-01	1.47628408e-02	1.41583402e-04
4.40000000e-01	1.47805953e-02	1.41750943e-04
4.41000000e-01	1.47841394e-02	1.42493746e-04
4.42000000e-01	1.46305223e-02	1.40909239e-04
4.43000000e-01	1.46926771e-02	1.41357682e-04
4.44000000e-01	1.47309886e-02	1.41897421e-04
4.45000000e-01	1.48156618e-02	1.42893557e-04
4.46000000e-01	1.47098853e-02	1.42480677e-04
4.47000000e-01	1.47132184e-02	1.42390958e-04
4.48000000e-01	1.45894816e-02	1.41670088e-04
4.49000000e-01	1.46921401e-02	1.42892803e-04
4.50000000e-01	1.47227007e-02	1.43460954e-04
4.51000000e-01	1.46219868e-02	1.42218822e-04
4.52000000e-01	1.46456646e-02	1.42621772e-04
4.53000000e-01	1.47175637e-02	1.43519832e-04
4.54000000e-01	1.47042433e-02	1.43167296e-04
4.55000000e-01	1.45207309e-02	1.41493682e-04
4.56000000e-01	1.45994942e-02	1.42652965e-04
4.57000000e-01	1.46525445e-02	1.42728921e-04
4.58000000e-01	1.45659515e-02	1.42638874e-04
4.59000000e-01	1.46131148e-02	1.42884232e-04
4.60000000e-01	1.46730886e-02	1.43702236e-04
4.61000000e-01	1.45558308e-02	1.42934289e-04
4.62000000e-01	1.46748087e-02	1.43810930e-04
4.63000000e-01	1.46158804e-02	1.43161710e-04
4.64000000e-01	1.45180169e-02	1.42894241e-04
4.65000000e-01	1.46438733e-02	1.44225149e-04
4.66000000e-01	1.45643173e-02	1.43178707e-04
4.67000000e-01	1.45165278e-02	1.42981015e-04
4.68000000e-01	1.45261947e-02	1.43312985e-04
4.69000000e-01	1.45012003e-02	1.42812967e-04
4.70000000e-01	1.46199256e-02	1.44293315e-04
4.71000000e-01	1.45224715e-02	1.43591732e-04
4.72000000e-01	1.45806845e-02	1.43917816e-04
4.73000000e-01	1.45376612e-02	1.43075814e-04
4.74000000e-01	1.44411298e-02	1.41975291e-04
4.75000000e-01	1.44078616e-02	1.42050746e-04
4.76000000e-01	1.43270556e-02	1.41435772e-04
4.77000000e-01	1.45725196e-02	1.43594296e-04
4.78000000e-01	1.45479576e-02	1.43353313e-04
4.79000000e-01	1.42969697e-02	1.41382921e-04
4.80000000e-01	1.44225143e-02	1.42700024e-04
4.81000000e-01	1.43439549e-02	1.41769991e-04
4.82000000e-01	1.43819156e-02	1.41955106e-04
4.83000000e-01	1.44002016e-02	1.42440959e-04
4.84000000e-01	1.44463742e-02	1.43026871e-04
4.85000000e-01	1.43772076e-02	1.42413437e-04
4.86000000e-01	1.44007967e-02	1.42277545e-04
4.87000000e-01	1.42837225e-02	1.41525042e-04
4.88000000e-01	1.43491071e-02	1.42466809e-04
4.89000000e-01	1.43522505e-02	1.42388101e-04
4.90000000e-01	1.43003025e-02	1.42414324e-04
4.91000000e-01	1.42250278e-02	1.41330543e-04
4.92000000e-01	1.43908723e-02	1.42638826e-04
4.93000000e-01	1.43196458e-02	1.42415334e-04
4.94000000e-01	1.43106944e-02	1.42558061e-04
4.95000000e-01	1.41484174e-02	1.42082105e-04
4.96000000e-01	1.44140590e-02	1.48939095e-04
4.97000000e-01	1.43386332e-02	1.50880110e-04
4.98000000e-01	1.44080866e-02	1.53369915e-04
4.99000000e-01	1.42059922e-02	1.53505937e-04
5.00000000e-01	1.42847795e-02	1.55527515e-04
5.01000000e-01	1.44231703e-02	1.58335513e-04
5.02000000e-01	1.42550283e-02	1.58533883e-04
5.03000000e-01	1.42420327e-02	1.59909457e-04
5.04000000e-01	1.43199526e-02	1.61641451e-04
5.05000000e-01	1.42440636e-02	1.58075630e-04
5.06000000e-01	1.42808355e-02	1.55221368e-04
5.07000000e-01	1.43208031e-02	1.53812860e-04
5.08000000e-01	1.42533025e-02	1.52373975e-04
5.09000000e-01	1.42146779e-02	1.51750352e-04
5.10000000e-01	1.42412494e-02	1.51680209e-04
5.11000000e-01	1.43205901e-02	1.51876376e-04
5.12000000e-01	1.42499871e-02	1.50956311e-04
5.13000000e-01	1.42162744e-02	1.50228163e-04
5.14000000e-01	1.42212869e-02	1.49639559e-04
5.15000000e-01	1.41301887e-02	1.48077670e-04
5.16000000e-01	1.40178064e-02	1.47126534e-04
5.17000000e-01	1.41517311e-02	1.48097206e-04
5.18000000e-01	1.40888776e-02	1.47185504e-04
5.19000000e-01	1.41479325e-02	1.47766267e-04
5.20000000e-01	1.41767625e-02	1.47367399e-04
5.21000000e-01	1.41264521e-02	1.47160668e-04
5.22000000e-01	1.40025279e-02	1.45547629e-04
5.23000000e-01	1.40926689e-02	1.46263019e-04
5.24000000e-01	1.41662046e-02	1.47183357e-04
5.25000000e-01	1.40273156e-02	1.45202313e-04
5.26000000e-01	1.39240885e-02	1.44864913e-04
5.27000000e-01	1.40016396e-02	1.45100018e-04
5.28000000e-01	1.40764677e-02	1.46123601e-04
5.29000000e-01	1.40016605e-02	1.45668508e-04
5.30000000e-01	1.41139560e-02	1.46389582e-04
5.31000000e-01	1.39448525e-02	1.45260107e-04
5.32000000e-01	1.40449992e-02	1.45982932e-04
5.33000000e-01	1.39758758e-02	1.44938165e-04
5.34000000e-01	1.40141725e-02	1.45199860e-04
5.35000000e-01	1.37937515e-02	1.43813601e-04
5.36000000e-01	1.39172160e-02	1.44091347e-04
5.37000000e-01	1.38919050e-02	1.44528530e-04
5.38000000e-01	1.37650563e-02	1.43200747e-04
5.39000000e-01	1.39950558e-02	1.45358575e-04
5.40000000e-01	1.40384175e-02	1.45248168e-04
5.41000000e-01	1.39865921e-02	1.45139352e-04
5.42000000e-01	1.39267553e-02	1.44679679e-04
5.43000000e-01	1.39696152e-02	1.44770002e-04
5.44000000e-01	1.39255228e-02	1.44563143e-04
5.45000000e-01	1.38746900e-02	1.44623657e-04
5.46000000e-01	1.37701366e-02	1.43139348e-04
5.47000000e-01	1.38687854e-02	1.44930616e-04
5.48000000e-01	1.36758052e-02	1.41877282e-04
5.49000000e-01	1.37470536e-02	1.42675987e-04
5.50000000e-01	1.39207086e-02	1.44131309e-04
5.51000000e-01	1.37876491e-02	1.42835025e-04
5.52000000e-01	1.38086024e-02	1.42874128e-04
5.53000000e-01	1.38014510e-02	1.42424040e-04
5.54000000e-01	1.37555163e-02	1.42022885e-04
5.55000000e-01	1.37343675e-02	1.41747256e-04
5.56000000e-01	1.38300228e-02	1.42962690e-04
5.57000000e-01	1.37813670e-02	1.42257002e-04
5.58000000e-01	1.36962340e-02	1.41248803e-04
5.59000000e-01	1.36961776e-02	1.41627354e-04
5.60000000e-01	1.36493059e-02	1.41365284e-04
5.61000000e-01	1.36878245e-02	1.41102551e-04
5.62000000e-01	1.36045859e-02	1.41112748e-04
5.63000000e-01	1.37049836e-02	1.41759501e-04
5.64000000e-01	1.35587034e-02	1.40142323e-04
5.65000000e-01	1.35843270e-02	1.40679298e-04
5.66000000e-01	1.36744191e-02	1.41522239e-04
5.67000000e-01	1.36409802e-02	1.41135189e-04
5.68000000e-01	1.35305148e-02	1.40350688e-04
5.69000000e-01	1.35964880e-02	1.40262899e-04
5.70000000e-01	1.35580405e-02	1.40033921e-04
5.71000000e-01	1.35771967e-02	1.40383112e-04
5.72000000e-01	1.34719180e-02	1.38815524e-04
5.73000000e-01	1.34195984e-02	1.39468859e-04
5.74000000e-01	1.35567837e-02	1.40038241e-04
5.75000000e-01	1.35024414e-02	1.39585725e-04
5.76000000e-01	1.35048477e-02	1.39749327e-04
5.77000000e-01	1.34622171e-02	1.39406909e-04
5.78000000e-01	1.34151227e-02	1.39202990e-04
5.79000000e-01	1.35214745e-02	1.40090838e-04
5.80000000e-01	1.34536977e-02	1.39582773e-04
5.81000000e-01	1.34347732e-02	1.38709359e-04
5.82000000e-01	1.35290330e-02	1.40082326e-04
5.83000000e-01	1.34756229e-02	1.39754623e-04
5.84000000e-01	1.33268578e-02	1.38398585e-04
5.85000000e-01	1.34278120e-02	1.39542220e-04
5.86000000e-01	1.34258139e-02	1.39641566e-04
5.87000000e-01	1.32716586e-02	1.37502769e-04
5.88000000e-01	1.34947080e-02	1.39887664e-04
5.89000000e-01	1.32741607e-02	1.37620183e-04
5.90000000e-01	1.33550165e-02	1.38806515e-04
5.91000000e-01	1.33007271e-02	1.38177360e-04
5.92000000e-01	1.33987645e-02	1.39021355e-04
5.93000000e-01	1.34468007e-02	1.39944289e-04
5.94000000e-01	1.33507537e-02	1.38406046e-04
5.95000000e-01	1.34124400e-02	1.39316011e-04
5.96000000e-01	1.32824647e-02	1.38541114e-04
5.97000000e-01	1.31867546e-02	1.36999980e-04
5.98000000e-01	1.33138836e-02	1.38402466e-04
5.99000000e-01	1.33256892e-02	1.38763204e-04
6.00000000e-01	1.32448703e-02	1.38150277e-04
6.01000000e-01	1.33396727e-02	1.38671515e-04
6.02000000e-01	1.32637160e-02	1.38102952e-04
6.03000000e-01	1.31965419e-02	1.37716610e-04
6.04000000e-01	1.31316766e-02	1.36695553e-04
6.05000000e-01	1.32523330e-02	1.38754369e-04
6.06000000e-01	1.31993706e-02	1.37795038e-04
6.07000000e-01	1.32284438e-02	1.38342912e-04
6.08000000e-01	1.31060594e-02	1.36876913e-04
6.09000000e-01	1.32648145e-02	1.38301708e-04
6.10000000e-01	1.30824841e-02	1.36389745e-04
6.11000000e-01	1.31293672e-02	1.37259739e-04
6.12000000e-01	1.31516756e-02	1.37225587e-04
6.13000000e-01	1.31550670e-02	1.37479371e-04
6.14000000e-01	1.32135383e-02	1.37734851e-04
6.15000000e-01	1.31401299e-02	1.37203973e-04
6.16000000e-01	1.31570824e-02	1.36878282e-04
6.17000000e-01	1.29852595e-02	1.36179764e-04
6.18000000e-01	1.29614276e-02	1.35928224e-04
6.19000000e-01	1.31254011e-02	1.36488909e-04
6.20000000e-01	1.29913726e-02	1.35515241e-04
6.21000000e-01	1.31464097e-02	1.36753218e-04
6.22000000e-01	1.31296602e-02	1.36440246e-04
6.23000000e-01	1.31900324e-02	1.36574526e-04
6.24000000e-01	1.31154286e-02	1.35801947e-04
6.25000000e-01	1.31396886e-02	1.35742553e-04
6.26000000e-01	1.29676174e-02	1.34679982e-04
6.27000000e-01	1.30838044e-02	1.36291941e-04
6.28000000e-01	1.31144568e-02	1.36176538e-04
6.29000000e-01	1.31245109e-02	1.35777553e-04
6.30000000e-01	1.31021217e-02	1.35879152e-04
6.31000000e-01	1.30500765e-02	1.36168226e-04
6.32000000e-01	1.31145159e-02	1.35669596e-04
6.33000000e-01	1.29836756e-02	1.34519440e-04
6.34000000e-01	1.30721172e-02	1.38656376e-04
6.35000000e-01	1.30983511e-02	1.42852107e-04
6.36000000e-01	1.31818152e-02	1.46583285e-04
6.37000000e-01	1.28694259e-02	1.45969494e-04
6.38000000e-01	1.30066956e-02	1.49277945e-04
6.39000000e-01	1.29216393e-02	1.50070628e-04
6.40000000e-01	1.29280164e-02	1.52522608e-04
6.41000000e-01	1.30262770e-02	1.54737754e-04
6.42000000e-01	1.30230938e-02	1.55934330e-04
6.43000000e-01	1.30095079e-02	1.56388241e-04
6.44000000e-01	1.31144020e-02	1.51925793e-04
6.45000000e-01	1.29578129e-02	1.47809724e-04
6.46000000e-01	1.30002768e-02	1.47038534e-04
6.47000000e-01	1.30410968e-02	1.46228909e-04
6.48000000e-01	1.30594286e-02	1.45600227e-04
6.49000000e-01	1.30076699e-02	1.44015342e-04
6.50000000e-01	1.30640232e-02	1.44010847e-04
6.51000000e-01	1.30567740e-02	1.43400661e-04
6.52000000e-01	1.30438424e-02	1.43092637e-04
6.53000000e-01	1.28631505e-02	1.40379470e-04
6.54000000e-01	1.30356393e-02	1.41875842e-04
6.55000000e-01	1.30489642e-02	1.41578998e-04
6.56000000e-01	1.29336372e-02	1.40833409e-04
6.57000000e-01	1.29819584e-02	1.40982316e-04
6.58000000e-01	1.29420012e-02	1.40686197e-04
6.59000000e-01	1.29399777e-02	1.39926035e-04
6.60000000e-01	1.29262731e-02	1.39400956e-04
6.61000000e-01	1.30043096e-02	1.40101166e-04
6.62000000e-01	1.30560902e-02	1.40979521e-04
6.63000000e-01	1.29628215e-02	1.40189880e-04
6.64000000e-01	1.29398445e-02	1.39715806e-04
6.65000000e-01	1.28757218e-02	1.38882217e-04
6.66000000e-01	1.29952074e-02	1.40251192e-04
6.67000000e-01	1.28918832e-02	1.39152950e-04
6.68000000e-01	1.29405145e-02	1.39273831e-04
6.69000000e-01	1.28575122e-02	1.38554896e-04
6.70000000e-01	1.28974555e-02	1.38980171e-04
6.71000000e-01	1.27383545e-02	1.37119155e-04
6.72000000e-01	1.29599551e-02	1.39263986e-04
6.73000000e-01	1.28655368e-02	1.38161025e-04
6.74000000e-01	1.29041063e-02	1.38795762e-04
6.75000000e-01	1.28085563e-02	1.37344496e-04
6.76000000e-01	1.28261339e-02	1.37949437e-04
6.77000000e-01	1.28531296e-02	1.37468663e-04
6.78000000e-01	1.27273950e-02	1.36505708e-04
6.79000000e-01	1.27318560e-02	1.37153255e-04
6.80000000e-01	1.28715091e-02	1.37571834e-04
6.81000000e-01	1.28165713e-02	1.37340339e-04
6.82000000e-01	1.27787412e-02	1.37023453e-04
6.83000000e-01	1.27735136e-02	1.36816122e-04
6.84000000e-01	1.26536802e-02	1.35800689e-04
6.85000000e-01	1.28171889e-02	1.37119936e-04
6.86000000e-01	1.26541701e-02	1.35918547e-04
6.87000000e-01	1.28345966e-02	1.37956682e-04
6.88000000e-01	1.27719327e-02	1.36989205e-04
6.89000000e-01	1.27447416e-02	1.36407048e-04
6.90000000e-01	1.27106892e-02	1.36367823e-04
6.91000000e-01	1.27252375e-02	1.36386919e-04
6.92000000e-01	1.27164501e-02	1.36690620e-04
6.93000000e-01	1.27795040e-02	1.36813997e-04
6.94000000e-01	1.28047793e-02	1.36522807e-04
6.95000000e-01	1.27505730e-02	1.36348455e-04
6.96000000e-01	1.25947680e-02	1.34947688e-04
6.97000000e-01	1.25868378e-02	1.35023126e-04
6.98000000e-01	1.26476797e-02	1.35325853e-04
6.99000000e-01	1.26246281e-02	1.35502238e-04
7.00000000e-01	1.27216576e-02	1.36522419e-04
7.01000000e-01	1.25032631e-02	1.34338114e-04
7.02000000e-01	1.26725366e-02	1.35594011e-04
7.03000000e-01	1.26597700e-02	1.35602569e-04
7.04000000e-01	1.25353953e-02	1.34544140e-04
7.05000000e-01	1.24623674e-02	1.33422086e-04
7.06000000e-01	1.25827178e-02	1.34633771e-04
7.07000000e-01	1.26637982e-02	1.35525149e-04
7.08000000e-01	1.25511519e-02	1.33967931e-04
7.09000000e-01	1.25844054e-02	1.34779590e-04
7.10000000e-01	1.24874094e-02	1.33431442e-04
7.11000000e-01	1.24384616e-02	1.33102979e-04
7.12000000e-01	1.25144321e-02	1.34045382e-04
7.13000000e-01	1.25281165e-02	1.33869852e-04
7.14000000e-01	1.24085364e-02	1.33141134e-04
7.15000000e-01	1.24918724e-02	1.34057876e-04
7.16000000e-01	1.24444190e-02	1.33355704e-04
7.17000000e-01	1.23892204e-02	1.33211937e-04
7.18000000e-01	1.22529901e-02	1.31461203e-04
7.19000000e-01	1.24094988e-02	1.32649889e-04
7.20000000e-01	1.23507521e-02	1.32443421e-04
7.21000000e-01	1.23119890e-02	1.32238957e-04
7.22000000e-01	1.22399457e-02	1.31525255e-04
7.23000000e-01	1.23830412e-02	1.32897219e-04
7.24000000e-01	1.23122341e-02	1.32641870e-04
7.25000000e-01	1.23148307e-02	1.32194411e-04
7.26000000e-01	1.23100459e-02	1.31803720e-04
7.27000000e-01	1.21787176e-02	1.31181626e-04
7.28000000e-01	1.22953859e-02	1.31872915e-04
7.29000000e-01	1.22556443e-02	1.31682172e-04
7.30000000e-01	1.22982584e-02	1.31673454e-04
7.31000000e-01	1.22489438e-02	1.31595371e-04
7.32000000e-01	1.24233331e-02	1.33142464e-04
7.33000000e-01	1.21004982e-02	1.29689654e-04
7.34000000e-01	1.22949385e-02	1.32007010e-04
7.35000000e-01	1.21358274e-02	1.29970393e-04
7.36000000e-01	1.20580125e-02	1.29418658e-04
7.37000000e-01	1.22062671e-02	1.30403934e-04
7.38000000e-01	1.22039289e-02	1.29916054e-04
7.39000000e-01	1.21491308e-02	1.28989363e-04
7.40000000e-01	1.21916536e-02	1.29251109e-04
7.41000000e-01	1.20384834e-02	1.28038036e-04
7.42000000e-01	1.22273785e-02	1.30074390e-04
7.43000000e-01	1.21476439e-02	1.29176564e-04
7.44000000e-01	1.20787761e-02	1.28407174e-04
7.45000000e-01	1.21269878e-02	1.29180762e-04
7.46000000e-01	1.20839416e-02	1.29156265e-04
7.47000000e-01	1.21676590e-02	1.29509149e-04
7.48000000e-01	1.22166175e-02	1.29563374e-04
7.49000000e-01	1.22366640e-02	1.30039728e-04
7.50000000e-01	1.19856255e-02	1.27837307e-04
7.51000000e-01	1.20102619e-02	1.28017279e-04
7.52000000e-01	1.20580442e-02	1.28613306e-04
7.53000000e-01	1.20424299e-02	1.28003195e-04
7.54000000e-01	1.19498611e-02	1.27231533e-04
7.55000000e-01	1.20978067e-02	1.28800666e-04
7.56000000e-01	1.19939967e-02	1.27884118e-04
7.57000000e-01	1.19261933e-02	1.26951668e-04
7.58000000e-01	1.19405664e-02	1.27431440e-04
7.59000000e-01	1.19510202e-02	1.27203059e-04
7.60000000e-01	1.20781992e-02	1.27934477e-04
7.61000000e-01	1.20206712e-02	1.27296820e-04
7.62000000e-01	1.19016571e-02	1.26117580e-04
7.63000000e-01	1.18813943e-02	1.25843846e-04
7.64000000e-01	1.19944781e-02	1.26809552e-04
7.65000000e-01	1.18302550e-02	1.24565529e-04
7.66000000e-01	1.19907832e-02	1.26288712e-04
7.67000000e-01	1.18748707e-02	1.25885702e-04
7.68000000e-01	1.18098315e-02	1.24751243e-04
7.69000000e-01	1.17900955e-02	1.24928838e-04
7.70000000e-01	1.17246100e-02	1.24136903e-04
7.71000000e-01	1.18363350e-02	1.24530419e-04
7.72000000e-01	1.19632596e-02	1.29783298e-04
7.73000000e-01	1.18224653e-02	1.32727788e-04
7.74000000e-01	1.19603908e-02	1.37187543e-04
7.75000000e-01	1.17597797e-02	1.36984061e-04
7.76000000e-01	1.17300240e-02	1.39042911e-04
7.77000000e-01	1.18503675e-02	1.41826676e-04
7.78000000e-01	1.17184554e-02	1.42899228e-04
7.79000000e-01	1.18187315e-02	1.45086601e-04
7.80000000e-01	1.18671555e-02	1.47608236e-04
7.81000000e-01	1.17056828e-02	1.47723146e-04
7.82000000e-01	1.17145139e-02	1.49274860e-04
7.83000000e-01	1.16710550e-02	1.50498324e-04
7.84000000e-01	1.15800781e-02	1.51022606e-04
7.85000000e-01	1.16525540e-02	1.53746286e-04
7.86000000e-01	1.15721240e-02	1.54400197e-04
7.87000000e-01	1.16376889e-02	1.55474155e-04
7.88000000e-01	1.16774593e-02	1.58883423e-04
7.89000000e-01	1.15823273e-02	1.59149352e-04
7.90000000e-01	1.15704374e-02	1.60979247e-04
7.91000000e-01	1.16417744e-02	1.62614013e-04
7.92000000e-01	1.17197630e-02	1.65457895e-04
7.93000000e-01	1.17993337e-02	1.68183586e-04
7.94000000e-01	1.15469885e-02	1.65860401e-04
7.95000000e-01	1.13446897e-02	1.65758835e-04
7.96000000e-01	1.14503119e-02	1.68950589e-04
7.97000000e-01	1.15519943e-02	1.72425024e-04
7.98000000e-01	1.15684743e-02	1.72918874e-04
7.99000000e-01	1.15162858e-02	1.75265687e-04
8.00000000e-01	1.14801523e-02	1.76285857e-04
8.01000000e-01	1.13624438e-02	1.76525996e-04
8.02000000e-01	1.14501508e-02	1.79090525e-04
8.03000000e-01	1.14594757e-02	1.81825154e-04
8.04000000e-01	1.15723311e-02	1.84564911e-04
8.05000000e-01	1.14099713e-02	1.85045027e-04
8.06000000e-01	1.14937828e-02	1.87493749e-04
8.07000000e-01	1.13635556e-02	1.87819668e-04
8.08000000e-01	1.14241195e-02	1.91118647e-04
8.09000000e-01	1.13698948e-02	1.91952324e-04
8.10000000e-01	1.12663464e-02	1.92489295e-04
8.11000000e-01	1.14595090e-02	1.98367530e-04
8.12000000e-01	1.15158810e-02	2.00518277e-04
8.13000000e-01	1.11902459e-02	1.98884197e-04
8.14000000e-01	1.13979150e-02	2.03387214e-04
8.15000000e-01	1.12139152e-02	2.02883051e-04
8.16000000e-01	1.13526192e-02	2.08033278e-04
8.17000000e-01	1.13569716e-02	2.09567512e-04
8.18000000e-01	1.12666971e-02	2.11628045e-04
8.19000000e-01	1.10063241e-02	2.08669176e-04
8.20000000e-01	1.12884176e-02	2.16092128e-04
8.21000000e-01	1.12417652e-02	2.18715582e-04
8.22000000e-01	1.12202322e-02	2.22113422e-04
8.23000000e-01	1.13823372e-02	2.27056623e-04
8.24000000e-01	1.11278502e-02	2.26656622e-04
8.25000000e-01	1.11153301e-02	2.28261447e-04
8.26000000e-01	1.13319687e-02	2.36990307e-04
8.27000000e-01	1.08995785e-02	2.31000094e-04
8.28000000e-01	1.09973765e-02	2.37490944e-04
8.29000000e-01	1.09575789e-02	2.39614499e-04
8.30000000e-01	1.10080488e-02	2.45548989e-04
8.31000000e-01	1.09085612e-02	2.46434434e-04
8.32000000e-01	1.12986753e-02	2.57615978e-04
8.33000000e-01	1.10605641e-02	2.59119600e-04
8.34000000e-01	1.08548040e-02	2.58705413e-04
8.35000000e-01	1.08192131e-02	2.62642535e-04
8.36000000e-01	1.11403171e-02	2.72990144e-04
8.37000000e-01	1.11032130e-02	2.77892293e-04
8.38000000e-01	1.11066750e-02	2.84787184e-04
8.39000000e-01	1.08212185e-02	2.83635840e-04
8.40000000e-01	1.07539912e-02	2.87972953e-04
8.41000000e-01	1.07140634e-02	2.96030680e-04
8.42000000e-01	1.08615756e-02	3.06243233e-04
8.43000000e-01	1.10636812e-02	3.17763661e-04
8.44000000e-01	1.07748734e-02	3.15997492e-04
8.45000000e-01	1.13462863e-02	3.43776387e-04
8.46000000e-01	1.12883197e-02	3.47654244e-04
8.47000000e-01	1.10902997e-02	3.53654094e-04
8.48000000e-01	1.05642584e-02	3.45034754e-04
8.49000000e-01	1.06293002e-02	3.63017711e-04
8.50000000e-01	1.09238618e-02	3.82567201e-04
8.51000000e-01	1.03648040e-02	3.82635572e-04
8.52000000e-01	1.04660940e-02	3.95183063e-04
8.53000000e-01	1.04942957e-02	4.08372163e-04
8.54000000e-01	1.05469265e-02	4.38857780e-04
8.55000000e-01	1.06053392e-02	4.51104405e-04
8.56000000e-01	1.05138585e-02	4.65104205e-04
8.57000000e-01	1.06443228e-02	4.81297080e-04
8.58000000e-01	1.04897864e-02	4.91220726e-04
8.59000000e-01	1.04468799e-02	5.08800292e-04
8.60000000e-01	1.06431900e-02	5.30094053e-04
8.61000000e-01	1.00347194e-02	5.29938617e-04
8.62000000e-01	1.06518014e-02	5.61852416e-04
8.63000000e-01	1.10339718e-02	6.06100923e-04
8.64000000e-01	1.05080793e-02	6.10168047e-04
8.65000000e-01	1.03769466e-02	6.21658138e-04
8.66000000e-01	1.00140992e-02	6.40234433e-04
8.67000000e-01	1.04861409e-02	6.97941015e-04
8.68000000e-01	1.08501258e-02	7.82877545e-04
8.69000000e-01	1.00500239e-02	7.74000269e-04
8.70000000e-01	9.93380002e-03	8.41001189e-04
8.71000000e-01	1.18597013e-02	1.10393275e-03
8.72000000e-01	1.11894356e-02	1.16582145e-03
8.73000000e-01	1.07248239e-02	1.30120080e-03
8.74000000e-01	1.18547689e-02	1.94593438e-03
8.75000000e-01	8.89146661e-03	3.20587107e-03
