% Filename : SDL7c_00015_00005.h5
% Date & Time : 30-Oct-2025 16:14:23
% X-ray Energy (keV) : 13.30001
% Exposure Time (s) : 0.500
% Beam Center : 1461.24000, 208.98300
% Sample to Detector Distance (SDD) (mm) : 1990.750
% Detector Pixel Size (mm) : 0.075
% Photodiode Value : 139969.000
% I0 of Sample : 0
% I0 of Standard : 1
% 
% q(A^-1)   I(q)    I(q)_SE
0.00000000e+00	2.58153544e-03	1.82542122e-03
2.50000000e-04	0.00000000e+00	0.00000000e+00
5.00000000e-04	0.00000000e+00	0.00000000e+00
7.50000000e-04	0.00000000e+00	0.00000000e+00
1.00000000e-03	0.00000000e+00	0.00000000e+00
1.25000000e-03	0.00000000e+00	0.00000000e+00
1.50000000e-03	0.00000000e+00	0.00000000e+00
1.75000000e-03	0.00000000e+00	0.00000000e+00
2.00000000e-03	0.00000000e+00	0.00000000e+00
2.25000000e-03	0.00000000e+00	0.00000000e+00
2.50000000e-03	0.00000000e+00	0.00000000e+00
2.75000000e-03	0.00000000e+00	0.00000000e+00
3.00000000e-03	0.00000000e+00	0.00000000e+00
3.25000000e-03	4.42220750e+02	3.89238397e+02
3.50000000e-03	7.54983750e+01	6.05267850e+01
3.75000000e-03	3.80365881e+01	2.69959464e+01
4.00000000e-03	2.91243378e+01	1.98188436e+01
4.25000000e-03	6.25913787e+00	2.31349905e+00
4.50000000e-03	1.48106925e+01	8.52384820e+00
4.75000000e-03	1.85784930e+01	8.11403422e+00
5.00000000e-03	1.35032491e+01	5.64395333e+00
5.25000000e-03	1.13186984e+01	4.58013192e+00
5.50000000e-03	9.30806617e+00	3.69719886e+00
5.75000000e-03	8.15420405e+00	3.16780926e+00
6.00000000e-03	6.49884144e+00	2.52058074e+00
6.25000000e-03	5.79168721e+00	2.15694903e+00
6.50000000e-03	5.02741596e+00	1.92188146e+00
6.75000000e-03	4.30613499e+00	1.60558161e+00
7.00000000e-03	3.72631128e+00	1.38324449e+00
7.25000000e-03	3.23291556e+00	1.17960248e+00
7.50000000e-03	2.72200419e+00	9.86714994e-01
7.75000000e-03	2.44313865e+00	8.63746850e-01
8.00000000e-03	2.23637142e+00	7.96406149e-01
8.25000000e-03	1.90714808e+00	6.64279486e-01
8.50000000e-03	1.72950358e+00	6.09286063e-01
8.75000000e-03	1.58476330e+00	5.55764256e-01
9.00000000e-03	1.40654378e+00	4.87441911e-01
9.25000000e-03	1.23280507e+00	4.25219867e-01
9.50000000e-03	1.12679183e+00	3.89689662e-01
9.75000000e-03	9.88786017e-01	3.32274302e-01
1.00000000e-02	8.58775634e-01	2.93944012e-01
1.02500000e-02	8.56588184e-01	2.91146794e-01
1.05000000e-02	7.46053294e-01	2.42900661e-01
1.07500000e-02	6.83768237e-01	2.21369825e-01
1.10000000e-02	6.07173538e-01	1.93861677e-01
1.12500000e-02	5.49466426e-01	1.85557753e-01
1.15000000e-02	5.22931327e-01	1.61877085e-01
1.17500000e-02	3.97675113e-01	1.24138910e-01
1.20000000e-02	4.37405552e-01	1.41807648e-01
1.22500000e-02	4.21914494e-01	1.29697947e-01
1.25000000e-02	3.78361188e-01	1.11768963e-01
1.27500000e-02	3.58845821e-01	1.06320337e-01
1.30000000e-02	3.45388516e-01	1.03914992e-01
1.32500000e-02	3.08686344e-01	8.86149275e-02
1.35000000e-02	2.88719525e-01	8.17046749e-02
1.37500000e-02	2.78468485e-01	7.76015722e-02
1.40000000e-02	2.59027797e-01	7.15821685e-02
1.42500000e-02	2.36048722e-01	6.34416750e-02
1.45000000e-02	2.30055390e-01	6.12355133e-02
1.47500000e-02	2.14743758e-01	5.66442815e-02
1.50000000e-02	2.03833046e-01	5.46079270e-02
1.52500000e-02	1.85137383e-01	4.88113791e-02
1.55000000e-02	1.79337554e-01	4.61808971e-02
1.57500000e-02	1.69989822e-01	4.37985927e-02
1.60000000e-02	1.57103471e-01	4.05307452e-02
1.62500000e-02	1.52343498e-01	3.80186931e-02
1.65000000e-02	1.42755877e-01	3.55011518e-02
1.67500000e-02	1.30734032e-01	3.14179133e-02
1.70000000e-02	1.28836012e-01	3.13522461e-02
1.72500000e-02	1.24226538e-01	2.99506268e-02
1.75000000e-02	1.16853607e-01	2.71562598e-02
1.77500000e-02	1.12558825e-01	2.62352291e-02
1.80000000e-02	1.09585414e-01	2.43619742e-02
1.82500000e-02	1.02049138e-01	2.21910196e-02
1.85000000e-02	9.88703031e-02	2.19302381e-02
1.87500000e-02	9.32035774e-02	1.99950406e-02
1.90000000e-02	9.33172734e-02	1.96517313e-02
1.92500000e-02	8.37429056e-02	1.72329018e-02
1.95000000e-02	8.28137235e-02	1.71685444e-02
1.97500000e-02	8.26055120e-02	1.69541097e-02
2.00000000e-02	7.06987182e-02	1.31435023e-02
2.02500000e-02	6.65539478e-02	1.33147995e-02
2.05000000e-02	7.28801855e-02	1.39641229e-02
2.07500000e-02	7.01317621e-02	1.31123928e-02
2.10000000e-02	6.88840987e-02	1.23433075e-02
2.12500000e-02	6.95992831e-02	1.25461977e-02
2.15000000e-02	6.69986026e-02	1.17969004e-02
2.17500000e-02	6.52697354e-02	1.13954345e-02
2.20000000e-02	6.27830021e-02	1.07767936e-02
2.22500000e-02	6.33300667e-02	1.08071365e-02
2.25000000e-02	6.06500652e-02	1.02431734e-02
2.27500000e-02	5.93478283e-02	9.93201588e-03
2.30000000e-02	5.83653410e-02	9.40784185e-03
2.32500000e-02	5.69618637e-02	8.82046216e-03
2.35000000e-02	5.53173327e-02	8.53574632e-03
2.37500000e-02	5.57377177e-02	8.62901235e-03
2.40000000e-02	5.40699742e-02	8.31439146e-03
2.42500000e-02	5.13375065e-02	7.47415564e-03
2.45000000e-02	5.11759903e-02	7.46400927e-03
2.47500000e-02	5.16185537e-02	7.01822725e-03
2.50000000e-02	4.97915053e-02	6.94879709e-03
2.52500000e-02	4.85894313e-02	6.72239561e-03
2.55000000e-02	4.73048868e-02	6.25616579e-03
2.57500000e-02	4.67315061e-02	5.90744044e-03
2.60000000e-02	4.53833502e-02	5.77783768e-03
2.62500000e-02	4.47179142e-02	5.54822925e-03
2.65000000e-02	4.43646599e-02	5.33375887e-03
2.67500000e-02	4.41881939e-02	5.30372407e-03
2.70000000e-02	4.07001220e-02	4.71605880e-03
2.72500000e-02	4.25676158e-02	5.04410318e-03
2.75000000e-02	3.91377553e-02	4.18940089e-03
2.77500000e-02	4.03803776e-02	4.32915708e-03
2.80000000e-02	3.89300976e-02	4.06167145e-03
2.82500000e-02	3.95124357e-02	4.19167538e-03
2.85000000e-02	4.03759871e-02	4.11214539e-03
2.87500000e-02	3.90820852e-02	4.08109145e-03
2.90000000e-02	3.79916216e-02	3.82234643e-03
2.92500000e-02	3.72075452e-02	3.71560329e-03
2.95000000e-02	3.79400834e-02	3.59333515e-03
2.97500000e-02	3.80109147e-02	3.73287136e-03
3.00000000e-02	3.73447538e-02	3.53131193e-03
3.02500000e-02	3.68069769e-02	3.37811402e-03
3.05000000e-02	3.54622431e-02	3.02280088e-03
3.07500000e-02	3.64600062e-02	3.21159966e-03
3.10000000e-02	3.50516222e-02	3.03285774e-03
3.12500000e-02	3.52645924e-02	3.09991789e-03
3.15000000e-02	3.48146106e-02	2.90621901e-03
3.17500000e-02	3.43428856e-02	2.80723476e-03
3.20000000e-02	3.28151118e-02	2.62126760e-03
3.22500000e-02	3.45471296e-02	2.85525169e-03
3.25000000e-02	3.41896507e-02	2.67420451e-03
3.27500000e-02	3.29063520e-02	2.46627327e-03
3.30000000e-02	3.15819511e-02	2.27143611e-03
3.32500000e-02	3.25885340e-02	2.30561309e-03
3.35000000e-02	3.19973227e-02	2.37173003e-03
3.37500000e-02	3.17845613e-02	2.20805136e-03
3.40000000e-02	3.03428491e-02	2.11266696e-03
3.42500000e-02	3.04767436e-02	2.13933033e-03
3.45000000e-02	2.97325268e-02	2.15064712e-03
3.47500000e-02	3.02544587e-02	2.04692873e-03
3.50000000e-02	2.84307416e-02	1.97886419e-03
3.52500000e-02	3.00654229e-02	1.98162015e-03
3.55000000e-02	2.98623112e-02	1.91014428e-03
3.57500000e-02	2.93170848e-02	1.89497625e-03
3.60000000e-02	2.88853408e-02	1.74483121e-03
3.62500000e-02	2.85249946e-02	1.80185196e-03
3.65000000e-02	2.80037903e-02	1.70021029e-03
3.67500000e-02	2.92772095e-02	1.87280306e-03
3.70000000e-02	2.79538308e-02	1.78086952e-03
3.72500000e-02	2.73581540e-02	1.58619974e-03
3.75000000e-02	2.75375687e-02	1.68273929e-03
3.77500000e-02	2.74706217e-02	1.54571987e-03
3.80000000e-02	2.77467426e-02	1.60582882e-03
3.82500000e-02	2.72607088e-02	1.56816935e-03
3.85000000e-02	2.65576212e-02	1.52299944e-03
3.87500000e-02	2.67443267e-02	1.52732272e-03
3.90000000e-02	2.75935904e-02	1.57062533e-03
3.92500000e-02	2.61214421e-02	1.40286743e-03
3.95000000e-02	2.57137322e-02	1.36109963e-03
3.97500000e-02	2.55553424e-02	1.35446492e-03
4.00000000e-02	2.66232322e-02	1.43058150e-03
4.02500000e-02	2.55517853e-02	1.32151339e-03
4.05000000e-02	2.65276098e-02	1.35761881e-03
4.07500000e-02	2.54123637e-02	1.28202230e-03
4.10000000e-02	2.58421490e-02	1.32088446e-03
4.12500000e-02	2.64011307e-02	1.34281560e-03
4.15000000e-02	2.66367297e-02	1.30900352e-03
4.17500000e-02	2.49276007e-02	1.23759414e-03
4.20000000e-02	2.48343903e-02	1.22130953e-03
4.22500000e-02	2.57197392e-02	1.25907785e-03
4.25000000e-02	2.49678671e-02	1.17462984e-03
4.27500000e-02	2.52212076e-02	1.17099188e-03
4.30000000e-02	2.49631894e-02	1.14230064e-03
4.32500000e-02	2.47750454e-02	1.16589252e-03
4.35000000e-02	2.39222508e-02	1.13691868e-03
4.37500000e-02	2.40493663e-02	1.14083951e-03
4.40000000e-02	2.42417509e-02	1.13035117e-03
4.42500000e-02	2.40687021e-02	1.11244126e-03
4.45000000e-02	2.45849884e-02	1.12927869e-03
4.47500000e-02	2.47709573e-02	1.14013381e-03
4.50000000e-02	2.45745224e-02	1.11619151e-03
4.52500000e-02	2.44980584e-02	1.08703361e-03
4.55000000e-02	2.40588978e-02	1.09876320e-03
4.57500000e-02	2.45073980e-02	1.07736223e-03
4.60000000e-02	2.33398873e-02	1.04639055e-03
4.62500000e-02	2.32444313e-02	1.02008269e-03
4.65000000e-02	2.43549923e-02	1.07998975e-03
4.67500000e-02	2.39761460e-02	1.03296232e-03
4.70000000e-02	2.33393218e-02	1.01091556e-03
4.72500000e-02	2.42851586e-02	1.06603746e-03
4.75000000e-02	2.34965129e-02	1.02712232e-03
4.77500000e-02	2.37134168e-02	1.03078583e-03
4.80000000e-02	2.23269766e-02	9.52905701e-04
4.82500000e-02	2.31724469e-02	1.00472003e-03
4.85000000e-02	2.33437848e-02	1.01450969e-03
4.87500000e-02	2.28909551e-02	9.83113158e-04
4.90000000e-02	2.27944933e-02	9.63663075e-04
4.92500000e-02	2.26036802e-02	9.48559849e-04
4.95000000e-02	2.21259303e-02	9.30102720e-04
4.97500000e-02	2.32349415e-02	9.65778580e-04
5.00000000e-02	2.28502436e-02	9.46913441e-04
5.02500000e-02	2.21123683e-02	9.15171364e-04
5.05000000e-02	2.21819933e-02	9.34432129e-04
5.07500000e-02	2.27083577e-02	9.51455964e-04
5.10000000e-02	2.32081996e-02	9.61261845e-04
5.12500000e-02	2.25138890e-02	9.19284546e-04
5.15000000e-02	2.20854534e-02	9.04689779e-04
5.17500000e-02	2.22908990e-02	9.05364080e-04
5.20000000e-02	2.25995534e-02	9.08574950e-04
5.22500000e-02	2.30338535e-02	9.37018614e-04
5.25000000e-02	2.21311136e-02	8.77028772e-04
5.27500000e-02	2.21996127e-02	8.91485777e-04
5.30000000e-02	2.24577606e-02	9.12294377e-04
5.32500000e-02	2.27000089e-02	9.04910950e-04
5.35000000e-02	2.23293840e-02	8.97941185e-04
5.37500000e-02	2.20640232e-02	8.73871916e-04
5.40000000e-02	2.24966606e-02	8.97281453e-04
5.42500000e-02	2.16886028e-02	8.59844363e-04
5.45000000e-02	2.23567773e-02	8.75766151e-04
5.47500000e-02	2.16914149e-02	8.62311897e-04
5.50000000e-02	2.17050265e-02	8.60678517e-04
5.52500000e-02	2.21091926e-02	8.67294117e-04
5.55000000e-02	2.14681467e-02	8.39460215e-04
5.57500000e-02	2.20242786e-02	8.61996572e-04
5.60000000e-02	2.18877599e-02	8.51898765e-04
5.62500000e-02	2.10245431e-02	8.21122911e-04
5.65000000e-02	2.17595017e-02	8.57492264e-04
5.67500000e-02	2.22132891e-02	8.59989032e-04
5.70000000e-02	2.16058445e-02	8.32352029e-04
5.72500000e-02	2.09061100e-02	8.11377666e-04
5.75000000e-02	2.19324241e-02	8.50164522e-04
5.77500000e-02	2.21491506e-02	8.41482588e-04
5.80000000e-02	2.14359801e-02	8.26655683e-04
5.82500000e-02	2.13635350e-02	8.08832748e-04
5.85000000e-02	2.18128232e-02	8.34850622e-04
5.87500000e-02	2.09129565e-02	7.97770171e-04
5.90000000e-02	2.20152429e-02	8.28640612e-04
5.92500000e-02	2.12945571e-02	7.99140856e-04
5.95000000e-02	2.17096034e-02	8.17499850e-04
5.97500000e-02	2.16281928e-02	8.18446153e-04
6.00000000e-02	2.06780008e-02	7.82442535e-04
6.02500000e-02	2.12368355e-02	7.96349497e-04
6.05000000e-02	2.10420027e-02	7.93483994e-04
6.07500000e-02	2.15047424e-02	8.02818370e-04
6.10000000e-02	2.10825455e-02	7.89273087e-04
6.12500000e-02	2.14148301e-02	8.01890035e-04
6.15000000e-02	2.09474814e-02	7.71735808e-04
6.17500000e-02	2.19156792e-02	8.07743162e-04
6.20000000e-02	2.11251553e-02	7.77553552e-04
6.22500000e-02	2.09632664e-02	7.70349259e-04
6.25000000e-02	2.12672637e-02	7.82745599e-04
6.27500000e-02	2.15569539e-02	7.94451067e-04
6.30000000e-02	2.11784414e-02	7.74684622e-04
6.32500000e-02	2.07791755e-02	7.56007331e-04
6.35000000e-02	2.08047450e-02	7.63121399e-04
6.37500000e-02	2.13943399e-02	7.78884919e-04
6.40000000e-02	2.12618209e-02	7.82837399e-04
6.42500000e-02	2.08946723e-02	7.57876014e-04
6.45000000e-02	2.11767598e-02	7.65789179e-04
6.47500000e-02	2.14382634e-02	7.77014362e-04
6.50000000e-02	2.12635993e-02	7.67326738e-04
6.52500000e-02	2.14650931e-02	7.71582994e-04
6.55000000e-02	2.02313689e-02	7.33003532e-04
6.57500000e-02	2.15510752e-02	7.74900659e-04
6.60000000e-02	2.05317552e-02	7.38116294e-04
6.62500000e-02	2.10460220e-02	7.63462241e-04
6.65000000e-02	2.06762008e-02	7.39252818e-04
6.67500000e-02	2.10592330e-02	7.49477544e-04
6.70000000e-02	2.19483191e-02	7.80235729e-04
6.72500000e-02	2.15361417e-02	7.73440179e-04
6.75000000e-02	2.08110580e-02	7.40129652e-04
6.77500000e-02	2.01576670e-02	7.23720871e-04
6.80000000e-02	2.07801774e-02	7.41759090e-04
6.82500000e-02	2.11190915e-02	7.44443392e-04
6.85000000e-02	2.10097552e-02	7.49558968e-04
6.87500000e-02	2.08445802e-02	7.39116696e-04
6.90000000e-02	2.11843378e-02	7.38689467e-04
6.92500000e-02	2.10687952e-02	7.44766204e-04
6.95000000e-02	2.06953323e-02	7.29951273e-04
6.97500000e-02	2.06316124e-02	7.25128368e-04
7.00000000e-02	2.01672600e-02	7.09565790e-04
7.02500000e-02	2.10258371e-02	7.31449368e-04
7.05000000e-02	2.06699747e-02	7.19070360e-04
7.07500000e-02	2.04899073e-02	7.17835578e-04
7.10000000e-02	2.08583656e-02	7.26559890e-04
7.12500000e-02	2.07957305e-02	7.20323465e-04
7.15000000e-02	1.98819903e-02	6.88725700e-04
7.17500000e-02	2.07677531e-02	7.18538365e-04
7.20000000e-02	2.03518891e-02	7.06166559e-04
7.22500000e-02	2.04706257e-02	7.08811180e-04
7.25000000e-02	2.09194544e-02	7.23465861e-04
7.27500000e-02	2.04697212e-02	7.11282068e-04
7.30000000e-02	2.04301614e-02	7.05232492e-04
7.32500000e-02	2.09786411e-02	7.13000798e-04
7.35000000e-02	2.07530186e-02	7.14985092e-04
7.37500000e-02	2.02321360e-02	6.89878021e-04
7.40000000e-02	2.04639316e-02	7.01635239e-04
7.42500000e-02	2.11355318e-02	7.23948564e-04
7.45000000e-02	2.02460231e-02	6.91637921e-04
7.47500000e-02	2.02966265e-02	6.93561554e-04
7.50000000e-02	2.05479990e-02	6.96916061e-04
7.52500000e-02	2.05247382e-02	7.01152428e-04
7.55000000e-02	2.05212204e-02	6.98517082e-04
7.57500000e-02	2.00318029e-02	6.81541431e-04
7.60000000e-02	2.03786590e-02	6.90810498e-04
7.62500000e-02	2.00689994e-02	6.75793240e-04
7.65000000e-02	2.07871885e-02	6.99487337e-04
7.67500000e-02	2.02802169e-02	6.79865200e-04
7.70000000e-02	2.04921406e-02	6.85321020e-04
7.72500000e-02	2.03225770e-02	6.94103534e-04
7.75000000e-02	2.02682423e-02	7.04767320e-04
7.77500000e-02	2.07367518e-02	7.27818928e-04
7.80000000e-02	2.08919419e-02	7.25609644e-04
7.82500000e-02	2.01583483e-02	7.09923982e-04
7.85000000e-02	2.07331947e-02	7.31672340e-04
7.87500000e-02	2.02383346e-02	7.10085730e-04
7.90000000e-02	2.03363015e-02	7.22364892e-04
7.92500000e-02	2.07488531e-02	7.33018448e-04
7.95000000e-02	2.06963194e-02	7.35516291e-04
7.97500000e-02	2.02629581e-02	7.34238574e-04
8.00000000e-02	2.01746707e-02	7.23070256e-04
8.02500000e-02	2.07355933e-02	7.47289471e-04
8.05000000e-02	1.99941400e-02	7.25505913e-04
8.07500000e-02	2.09998796e-02	7.58269907e-04
8.10000000e-02	2.05329358e-02	7.44175991e-04
8.12500000e-02	2.07140497e-02	7.51756303e-04
8.15000000e-02	2.02383748e-02	7.26035873e-04
8.17500000e-02	2.02935288e-02	7.44365508e-04
8.20000000e-02	2.06072339e-02	7.46653259e-04
8.22500000e-02	2.04435640e-02	7.45603161e-04
8.25000000e-02	2.03426911e-02	7.36736308e-04
8.27500000e-02	2.06291248e-02	7.47446424e-04
8.30000000e-02	2.05441546e-02	7.49879605e-04
8.32500000e-02	2.00956687e-02	7.32260398e-04
8.35000000e-02	2.02766146e-02	7.44096369e-04
8.37500000e-02	1.99468727e-02	7.26549129e-04
8.40000000e-02	2.07135825e-02	7.58390808e-04
8.42500000e-02	2.10092786e-02	7.70003535e-04
8.45000000e-02	2.03315419e-02	7.46370848e-04
8.47500000e-02	2.02494838e-02	7.43832897e-04
8.50000000e-02	1.99813726e-02	7.31738748e-04
8.52500000e-02	2.02114127e-02	7.52061210e-04
8.55000000e-02	2.05282567e-02	7.60260959e-04
8.57500000e-02	2.04830936e-02	7.57897268e-04
8.60000000e-02	2.14786223e-02	7.99137828e-04
8.62500000e-02	2.04753862e-02	7.53629101e-04
8.65000000e-02	1.98581461e-02	7.36423744e-04
8.67500000e-02	2.00957821e-02	7.37599988e-04
8.70000000e-02	2.07481180e-02	7.57902671e-04
8.72500000e-02	1.98820718e-02	7.09807241e-04
8.75000000e-02	1.99578887e-02	7.06583582e-04
8.77500000e-02	2.02142382e-02	7.03147516e-04
8.80000000e-02	2.03193835e-02	7.13908424e-04
8.82500000e-02	1.99275477e-02	7.02694424e-04
8.85000000e-02	1.99078512e-02	7.01968312e-04
8.87500000e-02	2.00969049e-02	6.88443291e-04
8.90000000e-02	2.03041286e-02	7.03923398e-04
8.92500000e-02	2.02496879e-02	6.93648392e-04
8.95000000e-02	2.00729284e-02	6.85607044e-04
8.97500000e-02	1.99850676e-02	6.79376116e-04
9.00000000e-02	1.95793344e-02	6.64376856e-04
9.02500000e-02	2.02422072e-02	6.85296259e-04
9.05000000e-02	1.95819717e-02	6.61185092e-04
9.07500000e-02	2.02319397e-02	6.86290789e-04
9.10000000e-02	2.03445969e-02	6.81776557e-04
9.12500000e-02	2.04840714e-02	6.78394802e-04
9.15000000e-02	1.98864228e-02	6.63762242e-04
9.17500000e-02	1.99853708e-02	6.70751757e-04
9.20000000e-02	2.00458066e-02	6.73832519e-04
9.22500000e-02	2.03316735e-02	6.68231654e-04
9.25000000e-02	2.03790266e-02	6.76695331e-04
9.27500000e-02	1.99894406e-02	6.61668050e-04
9.30000000e-02	1.99371775e-02	6.57822953e-04
9.32500000e-02	2.01224849e-02	6.72499194e-04
9.35000000e-02	2.03362310e-02	6.71368054e-04
9.37500000e-02	1.99019401e-02	6.51797146e-04
9.40000000e-02	2.02494652e-02	6.72550107e-04
9.42500000e-02	1.99423629e-02	6.55176877e-04
9.45000000e-02	1.97669082e-02	6.52698197e-04
9.47500000e-02	2.05101713e-02	6.65904135e-04
9.50000000e-02	1.98462416e-02	6.45581598e-04
9.52500000e-02	2.05192534e-02	6.61469711e-04
9.55000000e-02	1.95359287e-02	6.36495176e-04
9.57500000e-02	1.95381640e-02	6.39471677e-04
9.60000000e-02	1.95726725e-02	6.34869413e-04
9.62500000e-02	1.98510563e-02	6.37108257e-04
9.65000000e-02	2.00444226e-02	6.45373924e-04
9.67500000e-02	1.96421107e-02	6.29583546e-04
9.70000000e-02	1.99909906e-02	6.38417700e-04
9.72500000e-02	2.04137723e-02	6.63064006e-04
9.75000000e-02	2.00826718e-02	6.43345871e-04
9.77500000e-02	1.98316635e-02	6.28563240e-04
9.80000000e-02	1.99725531e-02	6.38499648e-04
9.82500000e-02	1.99806624e-02	6.44776318e-04
9.85000000e-02	2.01978099e-02	6.42285886e-04
9.87500000e-02	1.97554489e-02	6.23665066e-04
9.90000000e-02	1.99385535e-02	6.30623156e-04
9.92500000e-02	1.97833389e-02	6.26798548e-04
9.95000000e-02	1.94366288e-02	6.14689718e-04
9.97500000e-02	2.00687569e-02	6.36836208e-04
1.00000000e-01	1.99149800e-02	5.13051578e-04
1.00500000e-01	1.99426092e-02	4.45440773e-04
1.01000000e-01	2.00150713e-02	4.43627517e-04
1.01500000e-01	1.99853932e-02	4.39644229e-04
1.02000000e-01	2.00301320e-02	4.39096505e-04
1.02500000e-01	1.99732358e-02	4.41014868e-04
1.03000000e-01	1.96222414e-02	4.31476351e-04
1.03500000e-01	1.99512714e-02	4.36779595e-04
1.04000000e-01	1.95950721e-02	4.28602609e-04
1.04500000e-01	2.01645235e-02	4.36893073e-04
1.05000000e-01	1.99762201e-02	4.33781604e-04
1.05500000e-01	2.01098652e-02	4.34505357e-04
1.06000000e-01	1.96486183e-02	4.23450265e-04
1.06500000e-01	1.99189858e-02	4.29212348e-04
1.07000000e-01	1.96235563e-02	4.28506850e-04
1.07500000e-01	1.98063996e-02	4.40109180e-04
1.08000000e-01	1.95401631e-02	4.35907179e-04
1.08500000e-01	1.99545342e-02	4.50106798e-04
1.09000000e-01	1.99195225e-02	4.51858784e-04
1.09500000e-01	1.97669110e-02	4.52310423e-04
1.10000000e-01	2.01200648e-02	4.51324168e-04
1.10500000e-01	1.99487827e-02	4.40470624e-04
1.11000000e-01	1.98717949e-02	4.32233841e-04
1.11500000e-01	1.96243336e-02	4.24034495e-04
1.12000000e-01	2.00033368e-02	4.27039613e-04
1.12500000e-01	1.99148421e-02	4.21660835e-04
1.13000000e-01	2.02133250e-02	4.29015077e-04
1.13500000e-01	1.98759628e-02	4.18415252e-04
1.14000000e-01	1.98645752e-02	4.18586047e-04
1.14500000e-01	1.98724127e-02	4.16702411e-04
1.15000000e-01	1.96085284e-02	4.08239828e-04
1.15500000e-01	2.00068062e-02	4.17134433e-04
1.16000000e-01	1.98081053e-02	4.12636168e-04
1.16500000e-01	1.99566091e-02	4.15560696e-04
1.17000000e-01	1.95868505e-02	4.05564460e-04
1.17500000e-01	2.00700690e-02	4.15434351e-04
1.18000000e-01	1.99588093e-02	4.12950101e-04
1.18500000e-01	2.00847071e-02	4.11222482e-04
1.19000000e-01	1.97624244e-02	4.04403517e-04
1.19500000e-01	1.96982812e-02	4.01850684e-04
1.20000000e-01	1.99791789e-02	4.07792701e-04
1.20500000e-01	1.95446664e-02	3.98023820e-04
1.21000000e-01	1.95967224e-02	3.97655490e-04
1.21500000e-01	1.95153460e-02	3.95568552e-04
1.22000000e-01	1.97140072e-02	3.98607298e-04
1.22500000e-01	1.99128895e-02	4.02246513e-04
1.23000000e-01	1.99509691e-02	4.02114293e-04
1.23500000e-01	2.00589832e-02	4.04553341e-04
1.24000000e-01	1.99602153e-02	4.01445132e-04
1.24500000e-01	1.97227795e-02	3.94091986e-04
1.25000000e-01	1.94523109e-02	3.88722532e-04
1.25500000e-01	1.97187130e-02	3.92568302e-04
1.26000000e-01	1.98785745e-02	3.95165521e-04
1.26500000e-01	1.97366705e-02	3.91828146e-04
1.27000000e-01	1.99066654e-02	3.91857385e-04
1.27500000e-01	1.99544115e-02	3.93891212e-04
1.28000000e-01	1.98987246e-02	3.91149945e-04
1.28500000e-01	1.98197723e-02	3.89925863e-04
1.29000000e-01	1.99074232e-02	3.89394028e-04
1.29500000e-01	1.99239192e-02	3.88706036e-04
1.30000000e-01	1.94752595e-02	3.81062886e-04
1.30500000e-01	1.96593298e-02	3.83054333e-04
1.31000000e-01	1.99318674e-02	3.87874163e-04
1.31500000e-01	1.98731835e-02	3.87028529e-04
1.32000000e-01	1.96198932e-02	3.80516339e-04
1.32500000e-01	1.98451592e-02	3.82561725e-04
1.33000000e-01	1.99804857e-02	3.85520373e-04
1.33500000e-01	1.96564401e-02	3.75982128e-04
1.34000000e-01	1.97401823e-02	3.79400788e-04
1.34500000e-01	1.97973320e-02	3.78448596e-04
1.35000000e-01	1.96980602e-02	3.75734719e-04
1.35500000e-01	2.00798782e-02	3.81335570e-04
1.36000000e-01	1.98762540e-02	3.76242256e-04
1.36500000e-01	1.99044782e-02	3.79121121e-04
1.37000000e-01	1.95651897e-02	3.68858025e-04
1.37500000e-01	1.99951870e-02	3.76893873e-04
1.38000000e-01	1.95728393e-02	3.69025569e-04
1.38500000e-01	2.00045699e-02	3.78275933e-04
1.39000000e-01	1.96331604e-02	3.71442001e-04
1.39500000e-01	1.98198870e-02	3.71735490e-04
1.40000000e-01	1.95938111e-02	3.68977415e-04
1.40500000e-01	1.95553872e-02	3.66685138e-04
1.41000000e-01	1.96616965e-02	3.67777893e-04
1.41500000e-01	1.97424636e-02	3.71272901e-04
1.42000000e-01	1.95705027e-02	3.65366000e-04
1.42500000e-01	1.94319570e-02	3.64004863e-04
1.43000000e-01	1.95629039e-02	3.66304705e-04
1.43500000e-01	1.94914704e-02	3.60582916e-04
1.44000000e-01	2.00278834e-02	3.71267252e-04
1.44500000e-01	1.96333669e-02	3.61489697e-04
1.45000000e-01	1.95044887e-02	3.61670927e-04
1.45500000e-01	1.95622456e-02	3.61088930e-04
1.46000000e-01	1.96979740e-02	3.64540390e-04
1.46500000e-01	1.94298733e-02	3.59032439e-04
1.47000000e-01	1.97354599e-02	3.63210513e-04
1.47500000e-01	2.00760989e-02	3.66860430e-04
1.48000000e-01	1.97130697e-02	3.61304316e-04
1.48500000e-01	1.96155999e-02	3.59240614e-04
1.49000000e-01	1.94695483e-02	3.56070931e-04
1.49500000e-01	1.94543885e-02	3.55247619e-04
1.50000000e-01	1.94452665e-02	3.53300057e-04
1.50500000e-01	1.96594606e-02	3.58692406e-04
1.51000000e-01	1.94679979e-02	3.53441826e-04
1.51500000e-01	1.93628733e-02	3.50296405e-04
1.52000000e-01	1.94735211e-02	3.51168506e-04
1.52500000e-01	1.91198808e-02	3.44903573e-04
1.53000000e-01	1.96024333e-02	3.52606872e-04
1.53500000e-01	1.94367317e-02	3.49330386e-04
1.54000000e-01	1.94867791e-02	3.50396916e-04
1.54500000e-01	1.91462600e-02	3.49580752e-04
1.55000000e-01	1.95998179e-02	3.62343846e-04
1.55500000e-01	1.92507267e-02	3.60427257e-04
1.56000000e-01	1.92404231e-02	3.61513075e-04
1.56500000e-01	1.92326010e-02	3.60310911e-04
1.57000000e-01	1.91666778e-02	3.62542929e-04
1.57500000e-01	1.94397885e-02	3.58187733e-04
1.58000000e-01	1.92874829e-02	3.49823235e-04
1.58500000e-01	1.92244895e-02	3.46057499e-04
1.59000000e-01	1.91689381e-02	3.44409683e-04
1.59500000e-01	1.90920961e-02	3.42003132e-04
1.60000000e-01	1.91767904e-02	3.42604135e-04
1.60500000e-01	1.91039450e-02	3.40955048e-04
1.61000000e-01	1.90857510e-02	3.41980495e-04
1.61500000e-01	1.91635403e-02	3.40494546e-04
1.62000000e-01	1.93268413e-02	3.42188465e-04
1.62500000e-01	1.91956556e-02	3.40488388e-04
1.63000000e-01	1.90150329e-02	3.37056882e-04
1.63500000e-01	1.93104337e-02	3.42352909e-04
1.64000000e-01	1.90269895e-02	3.35031649e-04
1.64500000e-01	1.91176303e-02	3.36513128e-04
1.65000000e-01	1.91702259e-02	3.34709605e-04
1.65500000e-01	1.90621157e-02	3.34342078e-04
1.66000000e-01	1.89654189e-02	3.32689281e-04
1.66500000e-01	1.89384943e-02	3.30233326e-04
1.67000000e-01	1.92652266e-02	3.35075143e-04
1.67500000e-01	1.90743150e-02	3.33003150e-04
1.68000000e-01	1.92287999e-02	3.34397278e-04
1.68500000e-01	1.92406246e-02	3.33580176e-04
1.69000000e-01	1.92627437e-02	3.34683702e-04
1.69500000e-01	1.91548876e-02	3.31062393e-04
1.70000000e-01	1.91164628e-02	3.29314377e-04
1.70500000e-01	1.90452992e-02	3.28032253e-04
1.71000000e-01	1.91093092e-02	3.29634341e-04
1.71500000e-01	1.90255210e-02	3.28386401e-04
1.72000000e-01	1.87403093e-02	3.21935367e-04
1.72500000e-01	1.88658527e-02	3.24617545e-04
1.73000000e-01	1.88378357e-02	3.23106179e-04
1.73500000e-01	1.88118915e-02	3.20334090e-04
1.74000000e-01	1.88423403e-02	3.21410320e-04
1.74500000e-01	1.89771158e-02	3.20221700e-04
1.75000000e-01	1.90877050e-02	3.21162994e-04
1.75500000e-01	1.85280080e-02	3.12886323e-04
1.76000000e-01	1.90029842e-02	3.20313343e-04
1.76500000e-01	1.89411546e-02	3.19350079e-04
1.77000000e-01	1.89113437e-02	3.19119137e-04
1.77500000e-01	1.88177105e-02	3.16307710e-04
1.78000000e-01	1.90175040e-02	3.18071870e-04
1.78500000e-01	1.87101376e-02	3.15353588e-04
1.79000000e-01	1.87678106e-02	3.15511471e-04
1.79500000e-01	1.85413622e-02	3.12710676e-04
1.80000000e-01	1.90143254e-02	3.19259880e-04
1.80500000e-01	1.86902963e-02	3.12812513e-04
1.81000000e-01	1.86344403e-02	3.11630424e-04
1.81500000e-01	1.89239908e-02	3.16377355e-04
1.82000000e-01	1.89052871e-02	3.15138947e-04
1.82500000e-01	1.87929775e-02	3.12785279e-04
1.83000000e-01	1.91190248e-02	3.18254039e-04
1.83500000e-01	1.84213980e-02	3.07496191e-04
1.84000000e-01	1.85458767e-02	3.09041985e-04
1.84500000e-01	1.87175871e-02	3.10803443e-04
1.85000000e-01	1.86453982e-02	3.09129686e-04
1.85500000e-01	1.84511069e-02	3.05970858e-04
1.86000000e-01	1.86771833e-02	3.09063300e-04
1.86500000e-01	1.86335186e-02	3.07006549e-04
1.87000000e-01	1.88681518e-02	3.09763302e-04
1.87500000e-01	1.85298914e-02	3.04288197e-04
1.88000000e-01	1.83706985e-02	3.01846776e-04
1.88500000e-01	1.85939598e-02	3.04604300e-04
1.89000000e-01	1.86612364e-02	3.06008557e-04
1.89500000e-01	1.87121884e-02	3.07215835e-04
1.90000000e-01	1.86482502e-02	3.04944390e-04
1.90500000e-01	1.84348661e-02	3.00742765e-04
1.91000000e-01	1.84682533e-02	3.01336228e-04
1.91500000e-01	1.84602421e-02	3.01307462e-04
1.92000000e-01	1.85421688e-02	3.02176085e-04
1.92500000e-01	1.83820571e-02	2.98226020e-04
1.93000000e-01	1.83413110e-02	2.98527787e-04
1.93500000e-01	1.85880934e-02	3.00593742e-04
1.94000000e-01	1.85422507e-02	3.00392289e-04
1.94500000e-01	1.82363193e-02	2.95554188e-04
1.95000000e-01	1.84634876e-02	2.98794445e-04
1.95500000e-01	1.82469668e-02	2.94517694e-04
1.96000000e-01	1.84792939e-02	2.97994725e-04
1.96500000e-01	1.85576808e-02	2.99475761e-04
1.97000000e-01	1.82832725e-02	2.94525536e-04
1.97500000e-01	1.84646865e-02	2.95532461e-04
1.98000000e-01	1.84318768e-02	2.95082674e-04
1.98500000e-01	1.83514506e-02	2.93463632e-04
1.99000000e-01	1.84482181e-02	2.94243048e-04
1.99500000e-01	1.82682935e-02	2.92111031e-04
2.00000000e-01	1.83746378e-02	2.93308500e-04
2.00500000e-01	1.83711467e-02	2.91825538e-04
2.01000000e-01	1.84116742e-02	2.93526728e-04
2.01500000e-01	1.82465992e-02	2.90801606e-04
2.02000000e-01	1.83354253e-02	2.91020898e-04
2.02500000e-01	1.85116400e-02	2.93296211e-04
2.03000000e-01	1.84332823e-02	2.92216216e-04
2.03500000e-01	1.84351926e-02	2.91944368e-04
2.04000000e-01	1.82311264e-02	2.88384563e-04
2.04500000e-01	1.82559421e-02	2.88054401e-04
2.05000000e-01	1.83400423e-02	2.88613552e-04
2.05500000e-01	1.81995945e-02	2.85864307e-04
2.06000000e-01	1.79941453e-02	2.84408690e-04
2.06500000e-01	1.82733873e-02	2.88092365e-04
2.07000000e-01	1.84067981e-02	2.88637984e-04
2.07500000e-01	1.83776960e-02	2.87700162e-04
2.08000000e-01	1.85434018e-02	2.90597734e-04
2.08500000e-01	1.82626711e-02	2.84818202e-04
2.09000000e-01	1.80634447e-02	2.82219064e-04
2.09500000e-01	1.84810786e-02	2.88022622e-04
2.10000000e-01	1.84116470e-02	2.86644293e-04
2.10500000e-01	1.82525055e-02	2.84259718e-04
2.11000000e-01	1.80306860e-02	2.80307601e-04
2.11500000e-01	1.82376276e-02	2.83921770e-04
2.12000000e-01	1.85162616e-02	2.86617485e-04
2.12500000e-01	1.82734544e-02	2.82368865e-04
2.13000000e-01	1.79999236e-02	2.77642810e-04
2.13500000e-01	1.81112487e-02	2.79746834e-04
2.14000000e-01	1.80296311e-02	2.79737783e-04
2.14500000e-01	1.82126136e-02	2.79844555e-04
2.15000000e-01	1.82174059e-02	2.81719807e-04
2.15500000e-01	1.82869239e-02	2.79717745e-04
2.16000000e-01	1.82493921e-02	2.80102892e-04
2.16500000e-01	1.79378612e-02	2.76008663e-04
2.17000000e-01	1.80902633e-02	2.82628972e-04
2.17500000e-01	1.80144482e-02	2.84555131e-04
2.18000000e-01	1.79050996e-02	2.83415571e-04
2.18500000e-01	1.81348669e-02	2.90933667e-04
2.19000000e-01	1.81281623e-02	2.90473367e-04
2.19500000e-01	1.78371444e-02	2.86831100e-04
2.20000000e-01	1.80788571e-02	2.92430745e-04
2.20500000e-01	1.80756350e-02	2.93994875e-04
2.21000000e-01	1.80535536e-02	2.94628046e-04
2.21500000e-01	1.79913031e-02	2.93253076e-04
2.22000000e-01	1.81593350e-02	2.95884168e-04
2.22500000e-01	1.80533516e-02	2.94654744e-04
2.23000000e-01	1.79541100e-02	2.93678529e-04
2.23500000e-01	1.80741662e-02	2.97744676e-04
2.24000000e-01	1.81272500e-02	2.98842271e-04
2.24500000e-01	1.80473465e-02	2.99345300e-04
2.25000000e-01	1.78292152e-02	2.95252002e-04
2.25500000e-01	1.78918627e-02	2.98299724e-04
2.26000000e-01	1.79964284e-02	2.98639187e-04
2.26500000e-01	1.80421684e-02	2.95492348e-04
2.27000000e-01	1.80397937e-02	2.93224978e-04
2.27500000e-01	1.81291565e-02	2.91974119e-04
2.28000000e-01	1.78698218e-02	2.87032678e-04
2.28500000e-01	1.78753998e-02	2.84731269e-04
2.29000000e-01	1.80453997e-02	2.86771171e-04
2.29500000e-01	1.79319164e-02	2.83046759e-04
2.30000000e-01	1.78589709e-02	2.80854089e-04
2.30500000e-01	1.77933878e-02	2.79420696e-04
2.31000000e-01	1.79020734e-02	2.80668685e-04
2.31500000e-01	1.83376678e-02	2.85866232e-04
2.32000000e-01	1.79011374e-02	2.79750792e-04
2.32500000e-01	1.76414625e-02	2.75626858e-04
2.33000000e-01	1.77982691e-02	2.76336472e-04
2.33500000e-01	1.78144395e-02	2.75558353e-04
2.34000000e-01	1.79830278e-02	2.77365004e-04
2.34500000e-01	1.79012660e-02	2.76292353e-04
2.35000000e-01	1.78337477e-02	2.75188246e-04
2.35500000e-01	1.76244095e-02	2.72360703e-04
2.36000000e-01	1.78932568e-02	2.73847261e-04
2.36500000e-01	1.78899122e-02	2.74469781e-04
2.37000000e-01	1.79413039e-02	2.74239133e-04
2.37500000e-01	1.76087411e-02	2.69128075e-04
2.38000000e-01	1.80805542e-02	2.74363430e-04
2.38500000e-01	1.75759385e-02	2.67967443e-04
2.39000000e-01	1.78358074e-02	2.70244927e-04
2.39500000e-01	1.76352047e-02	2.67916259e-04
2.40000000e-01	1.76795676e-02	2.67308601e-04
2.40500000e-01	1.77532101e-02	2.66483358e-04
2.41000000e-01	1.78825606e-02	2.70178522e-04
2.41500000e-01	1.77823373e-02	2.67315759e-04
2.42000000e-01	1.75872509e-02	2.64109457e-04
2.42500000e-01	1.75284588e-02	2.63019454e-04
2.43000000e-01	1.77225468e-02	2.66162248e-04
2.43500000e-01	1.76864785e-02	2.65638645e-04
2.44000000e-01	1.78785206e-02	2.66235301e-04
2.44500000e-01	1.76839476e-02	2.64241607e-04
2.45000000e-01	1.74531125e-02	2.58419915e-04
2.45500000e-01	1.77219138e-02	2.64180126e-04
2.46000000e-01	1.76485164e-02	2.63336409e-04
2.46500000e-01	1.75018697e-02	2.60125054e-04
2.47000000e-01	1.74114465e-02	2.58398009e-04
2.47500000e-01	1.74238767e-02	2.57200345e-04
2.48000000e-01	1.76285308e-02	2.60274780e-04
2.48500000e-01	1.76612741e-02	2.60143071e-04
2.49000000e-01	1.75402598e-02	2.59459561e-04
2.49500000e-01	1.74404380e-02	2.57031702e-04
2.50000000e-01	1.75955087e-02	2.58928691e-04
2.50500000e-01	1.74558340e-02	2.57453909e-04
2.51000000e-01	1.75774781e-02	2.58390226e-04
2.51500000e-01	1.73783714e-02	2.55889723e-04
2.52000000e-01	1.72931023e-02	2.54416733e-04
2.52500000e-01	1.71819117e-02	2.52752640e-04
2.53000000e-01	1.72688572e-02	2.54629538e-04
2.53500000e-01	1.75454642e-02	2.55943865e-04
2.54000000e-01	1.74535081e-02	2.55653391e-04
2.54500000e-01	1.75642222e-02	2.56040652e-04
2.55000000e-01	1.76588195e-02	2.56686976e-04
2.55500000e-01	1.73747479e-02	2.53416288e-04
2.56000000e-01	1.74865414e-02	2.54348618e-04
2.56500000e-01	1.75599814e-02	2.56034081e-04
2.57000000e-01	1.77223276e-02	2.57421266e-04
2.57500000e-01	1.74595009e-02	2.52326061e-04
2.58000000e-01	1.74186380e-02	2.51919301e-04
2.58500000e-01	1.74088508e-02	2.52616397e-04
2.59000000e-01	1.73943470e-02	2.52030664e-04
2.59500000e-01	1.73934930e-02	2.51494675e-04
2.60000000e-01	1.75487424e-02	2.52995496e-04
2.60500000e-01	1.74321918e-02	2.50971883e-04
2.61000000e-01	1.74357766e-02	2.50089754e-04
2.61500000e-01	1.73855512e-02	2.49599621e-04
2.62000000e-01	1.74459893e-02	2.50261949e-04
2.62500000e-01	1.73131904e-02	2.48867700e-04
2.63000000e-01	1.73625356e-02	2.47538318e-04
2.63500000e-01	1.74376702e-02	2.50141256e-04
2.64000000e-01	1.73553154e-02	2.47857489e-04
2.64500000e-01	1.72595198e-02	2.46355385e-04
2.65000000e-01	1.72827819e-02	2.47649553e-04
2.65500000e-01	1.72619969e-02	2.45927513e-04
2.66000000e-01	1.73625172e-02	2.46939218e-04
2.66500000e-01	1.73074013e-02	2.45937765e-04
2.67000000e-01	1.73144060e-02	2.45129367e-04
2.67500000e-01	1.73505240e-02	2.45586057e-04
2.68000000e-01	1.74913803e-02	2.47240903e-04
2.68500000e-01	1.72269700e-02	2.43688203e-04
2.69000000e-01	1.71713981e-02	2.42869931e-04
2.69500000e-01	1.72167815e-02	2.43817951e-04
2.70000000e-01	1.72339179e-02	2.42937041e-04
2.70500000e-01	1.74131778e-02	2.44328655e-04
2.71000000e-01	1.71561307e-02	2.40709238e-04
2.71500000e-01	1.69143858e-02	2.37823979e-04
2.72000000e-01	1.72794555e-02	2.43037577e-04
2.72500000e-01	1.72952812e-02	2.42637138e-04
2.73000000e-01	1.70512975e-02	2.39298077e-04
2.73500000e-01	1.71624032e-02	2.39917940e-04
2.74000000e-01	1.71163924e-02	2.39923961e-04
2.74500000e-01	1.70646306e-02	2.39474400e-04
2.75000000e-01	1.71172885e-02	2.39405314e-04
2.75500000e-01	1.71648450e-02	2.40328633e-04
2.76000000e-01	1.71897196e-02	2.40476617e-04
2.76500000e-01	1.70879036e-02	2.39890869e-04
2.77000000e-01	1.72125646e-02	2.38287927e-04
2.77500000e-01	1.71702633e-02	2.39614757e-04
2.78000000e-01	1.69848374e-02	2.36501783e-04
2.78500000e-01	1.70792432e-02	2.37216699e-04
2.79000000e-01	1.72762202e-02	2.39803938e-04
2.79500000e-01	1.70094741e-02	2.36385028e-04
2.80000000e-01	1.70028571e-02	2.36853267e-04
2.80500000e-01	1.71258351e-02	2.36976911e-04
2.81000000e-01	1.69547814e-02	2.34835579e-04
2.81500000e-01	1.70721957e-02	2.35735746e-04
2.82000000e-01	1.69248770e-02	2.34214245e-04
2.82500000e-01	1.70466659e-02	2.35486421e-04
2.83000000e-01	1.70839360e-02	2.35289972e-04
2.83500000e-01	1.67959616e-02	2.31538294e-04
2.84000000e-01	1.70019308e-02	2.34147610e-04
2.84500000e-01	1.69680499e-02	2.33751407e-04
2.85000000e-01	1.70887542e-02	2.34953291e-04
2.85500000e-01	1.69191453e-02	2.31703459e-04
2.86000000e-01	1.70475999e-02	2.34060756e-04
2.86500000e-01	1.72590704e-02	2.35143892e-04
2.87000000e-01	1.71100012e-02	2.34276239e-04
2.87500000e-01	1.71144092e-02	2.33255708e-04
2.88000000e-01	1.69636562e-02	2.31090612e-04
2.88500000e-01	1.71347512e-02	2.32905932e-04
2.89000000e-01	1.69689215e-02	2.31363471e-04
2.89500000e-01	1.67481285e-02	2.28751900e-04
2.90000000e-01	1.69682936e-02	2.30866988e-04
2.90500000e-01	1.70042600e-02	2.30828895e-04
2.91000000e-01	1.69836781e-02	2.29700271e-04
2.91500000e-01	1.71282263e-02	2.31496234e-04
2.92000000e-01	1.69479815e-02	2.29652179e-04
2.92500000e-01	1.68280702e-02	2.27934257e-04
2.93000000e-01	1.67804894e-02	2.27234049e-04
2.93500000e-01	1.69870294e-02	2.28746928e-04
2.94000000e-01	1.70299956e-02	2.29092482e-04
2.94500000e-01	1.67081226e-02	2.26319321e-04
2.95000000e-01	1.66130930e-02	2.24894263e-04
2.95500000e-01	1.68552272e-02	2.27220031e-04
2.96000000e-01	1.69233572e-02	2.27382862e-04
2.96500000e-01	1.68244339e-02	2.26441561e-04
2.97000000e-01	1.68462037e-02	2.27041050e-04
2.97500000e-01	1.67318509e-02	2.23936987e-04
2.98000000e-01	1.68104542e-02	2.26104270e-04
2.98500000e-01	1.70893523e-02	2.29463572e-04
2.99000000e-01	1.66233226e-02	2.22308352e-04
2.99500000e-01	1.69951755e-02	2.27439726e-04
3.00000000e-01	1.69660227e-02	2.26605966e-04
3.00500000e-01	1.68955661e-02	2.27021853e-04
3.01000000e-01	1.66085961e-02	2.21965499e-04
3.01500000e-01	1.68090415e-02	2.24041154e-04
3.02000000e-01	1.68674487e-02	2.24540616e-04
3.02500000e-01	1.67096128e-02	2.22481299e-04
3.03000000e-01	1.67921765e-02	2.23339732e-04
3.03500000e-01	1.66025895e-02	2.20469428e-04
3.04000000e-01	1.68024280e-02	2.23566849e-04
3.04500000e-01	1.67885219e-02	2.22559108e-04
3.05000000e-01	1.66203717e-02	2.20887365e-04
3.05500000e-01	1.67490109e-02	2.21629325e-04
3.06000000e-01	1.66834259e-02	2.20146089e-04
3.06500000e-01	1.67355727e-02	2.21415744e-04
3.07000000e-01	1.70122712e-02	2.23432103e-04
3.07500000e-01	1.66690939e-02	2.19517511e-04
3.08000000e-01	1.65998899e-02	2.19518731e-04
3.08500000e-01	1.66190744e-02	2.19310926e-04
3.09000000e-01	1.65746606e-02	2.18828682e-04
3.09500000e-01	1.67021792e-02	2.19891795e-04
3.10000000e-01	1.66775687e-02	2.19417746e-04
3.10500000e-01	1.65789965e-02	2.18049385e-04
3.11000000e-01	1.68417490e-02	2.20478577e-04
3.11500000e-01	1.63171972e-02	2.14295434e-04
3.12000000e-01	1.66097864e-02	2.17545440e-04
3.12500000e-01	1.64975748e-02	2.16624156e-04
3.13000000e-01	1.66190639e-02	2.17361787e-04
3.13500000e-01	1.64099277e-02	2.15682633e-04
3.14000000e-01	1.65844229e-02	2.17104713e-04
3.14500000e-01	1.66222699e-02	2.17344881e-04
3.15000000e-01	1.63803441e-02	2.14006652e-04
3.15500000e-01	1.63630202e-02	2.13716972e-04
3.16000000e-01	1.64132710e-02	2.14465097e-04
3.16500000e-01	1.66154741e-02	2.15393031e-04
3.17000000e-01	1.65771155e-02	2.16349082e-04
3.17500000e-01	1.65100500e-02	2.14885594e-04
3.18000000e-01	1.63806465e-02	2.13141536e-04
3.18500000e-01	1.65704068e-02	2.14056731e-04
3.19000000e-01	1.63366612e-02	2.12050631e-04
3.19500000e-01	1.63423873e-02	2.12063167e-04
3.20000000e-01	1.65524852e-02	2.15012046e-04
3.20500000e-01	1.65994689e-02	2.14195052e-04
3.21000000e-01	1.64229569e-02	2.13405722e-04
3.21500000e-01	1.65147927e-02	2.13687184e-04
3.22000000e-01	1.64720460e-02	2.13007754e-04
3.22500000e-01	1.63633381e-02	2.11962582e-04
3.23000000e-01	1.61486219e-02	2.08712342e-04
3.23500000e-01	1.63188865e-02	2.11155642e-04
3.24000000e-01	1.63844076e-02	2.11028725e-04
3.24500000e-01	1.62897204e-02	2.10689274e-04
3.25000000e-01	1.63055167e-02	2.09317429e-04
3.25500000e-01	1.64646740e-02	2.11378281e-04
3.26000000e-01	1.63644812e-02	2.10626540e-04
3.26500000e-01	1.62982024e-02	2.08684426e-04
3.27000000e-01	1.63138987e-02	2.09803462e-04
3.27500000e-01	1.62544935e-02	2.08691877e-04
3.28000000e-01	1.63360034e-02	2.09120382e-04
3.28500000e-01	1.62395311e-02	2.07239208e-04
3.29000000e-01	1.63175202e-02	2.09069337e-04
3.29500000e-01	1.64632730e-02	2.10760485e-04
3.30000000e-01	1.62912557e-02	2.08490886e-04
3.30500000e-01	1.62666271e-02	2.07901829e-04
3.31000000e-01	1.60562817e-02	2.05061584e-04
3.31500000e-01	1.61394627e-02	2.05888849e-04
3.32000000e-01	1.62118495e-02	2.06409026e-04
3.32500000e-01	1.61279263e-02	2.04883255e-04
3.33000000e-01	1.62628247e-02	2.07377739e-04
3.33500000e-01	1.61724323e-02	2.06369204e-04
3.34000000e-01	1.62630414e-02	2.06751350e-04
3.34500000e-01	1.64040929e-02	2.07771725e-04
3.35000000e-01	1.61878889e-02	2.05436157e-04
3.35500000e-01	1.61915824e-02	2.05077610e-04
3.36000000e-01	1.60530235e-02	2.03779724e-04
3.36500000e-01	1.61802754e-02	2.04783056e-04
3.37000000e-01	1.61603398e-02	2.04645675e-04
3.37500000e-01	1.60520620e-02	2.03192927e-04
3.38000000e-01	1.59826772e-02	2.02777713e-04
3.38500000e-01	1.61934573e-02	2.03762805e-04
3.39000000e-01	1.60495590e-02	2.02521499e-04
3.39500000e-01	1.60951960e-02	2.01859224e-04
3.40000000e-01	1.60449917e-02	2.01896842e-04
3.40500000e-01	1.62598831e-02	2.04153237e-04
3.41000000e-01	1.61538745e-02	2.03130920e-04
3.41500000e-01	1.62041465e-02	2.04131549e-04
3.42000000e-01	1.59761516e-02	2.00932204e-04
3.42500000e-01	1.60304984e-02	2.01480453e-04
3.43000000e-01	1.60309523e-02	2.00747887e-04
3.43500000e-01	1.60170699e-02	2.00431498e-04
3.44000000e-01	1.59303748e-02	2.00344789e-04
3.44500000e-01	1.60217262e-02	2.00298289e-04
3.45000000e-01	1.61066685e-02	2.01489790e-04
3.45500000e-01	1.60214098e-02	1.99333666e-04
3.46000000e-01	1.59748586e-02	2.00253693e-04
3.46500000e-01	1.61248810e-02	2.01394759e-04
3.47000000e-01	1.60135290e-02	1.99840769e-04
3.47500000e-01	1.60022766e-02	1.99815587e-04
3.48000000e-01	1.61407779e-02	2.00211651e-04
3.48500000e-01	1.59216387e-02	1.98548581e-04
3.49000000e-01	1.61053465e-02	1.99962112e-04
3.49500000e-01	1.59786477e-02	1.98164757e-04
3.50000000e-01	1.59078816e-02	1.61271797e-04
3.51000000e-01	1.58979364e-02	1.39437667e-04
3.52000000e-01	1.57484498e-02	1.38230923e-04
3.53000000e-01	1.57997917e-02	1.38075494e-04
3.54000000e-01	1.57576173e-02	1.37398627e-04
3.55000000e-01	1.57840087e-02	1.37867623e-04
3.56000000e-01	1.58647774e-02	1.39201932e-04
3.57000000e-01	1.58402251e-02	1.41250716e-04
3.58000000e-01	1.57630462e-02	1.41810826e-04
3.59000000e-01	1.58319713e-02	1.43155419e-04
3.60000000e-01	1.56994545e-02	1.43287632e-04
3.61000000e-01	1.56876255e-02	1.43515446e-04
3.62000000e-01	1.55381565e-02	1.43178900e-04
3.63000000e-01	1.57560048e-02	1.45465079e-04
3.64000000e-01	1.56804322e-02	1.45415503e-04
3.65000000e-01	1.55722312e-02	1.44742178e-04
3.66000000e-01	1.55522449e-02	1.43136928e-04
3.67000000e-01	1.56382966e-02	1.41468395e-04
3.68000000e-01	1.54488167e-02	1.39147466e-04
3.69000000e-01	1.56674510e-02	1.40228197e-04
3.70000000e-01	1.57208827e-02	1.39956240e-04
3.71000000e-01	1.55692018e-02	1.40367822e-04
3.72000000e-01	1.56999769e-02	1.42545577e-04
3.73000000e-01	1.55766897e-02	1.42031735e-04
3.74000000e-01	1.55719391e-02	1.41735676e-04
3.75000000e-01	1.55197555e-02	1.41061817e-04
3.76000000e-01	1.55641266e-02	1.41889917e-04
3.77000000e-01	1.55098396e-02	1.41468198e-04
3.78000000e-01	1.54489084e-02	1.40743119e-04
3.79000000e-01	1.54011526e-02	1.40051632e-04
3.80000000e-01	1.54287353e-02	1.40536360e-04
3.81000000e-01	1.54930266e-02	1.40982316e-04
3.82000000e-01	1.53815283e-02	1.40192001e-04
3.83000000e-01	1.53523029e-02	1.39583687e-04
3.84000000e-01	1.54504817e-02	1.40633570e-04
3.85000000e-01	1.53181480e-02	1.39742083e-04
3.86000000e-01	1.53522567e-02	1.39698909e-04
3.87000000e-01	1.53112104e-02	1.39302157e-04
3.88000000e-01	1.55416632e-02	1.40748045e-04
3.89000000e-01	1.53751835e-02	1.39497489e-04
3.90000000e-01	1.52552906e-02	1.38422514e-04
3.91000000e-01	1.53379337e-02	1.39331736e-04
3.92000000e-01	1.52890095e-02	1.38957198e-04
3.93000000e-01	1.51242752e-02	1.37449177e-04
3.94000000e-01	1.53519413e-02	1.38946430e-04
3.95000000e-01	1.52092042e-02	1.37935648e-04
3.96000000e-01	1.52581066e-02	1.38504039e-04
3.97000000e-01	1.52321754e-02	1.37875056e-04
3.98000000e-01	1.50651270e-02	1.36708236e-04
3.99000000e-01	1.52990886e-02	1.39178984e-04
4.00000000e-01	1.53086085e-02	1.38724241e-04
4.01000000e-01	1.51319131e-02	1.37495390e-04
4.02000000e-01	1.51067018e-02	1.36958937e-04
4.03000000e-01	1.51745943e-02	1.37868513e-04
4.04000000e-01	1.50935922e-02	1.36693048e-04
4.05000000e-01	1.50291054e-02	1.36374786e-04
4.06000000e-01	1.50891202e-02	1.36848363e-04
4.07000000e-01	1.51366836e-02	1.37068646e-04
4.08000000e-01	1.50911198e-02	1.36915586e-04
4.09000000e-01	1.50821256e-02	1.36597151e-04
4.10000000e-01	1.51805943e-02	1.37151651e-04
4.11000000e-01	1.50494026e-02	1.35998198e-04
4.12000000e-01	1.49269284e-02	1.35548918e-04
4.13000000e-01	1.49306761e-02	1.35209143e-04
4.14000000e-01	1.48753129e-02	1.34879627e-04
4.15000000e-01	1.49783828e-02	1.34979630e-04
4.16000000e-01	1.51148622e-02	1.36606137e-04
4.17000000e-01	1.49731866e-02	1.35012780e-04
4.18000000e-01	1.50596837e-02	1.37391528e-04
4.19000000e-01	1.50043420e-02	1.38820958e-04
4.20000000e-01	1.50586269e-02	1.39885537e-04
4.21000000e-01	1.50209693e-02	1.39687219e-04
4.22000000e-01	1.51452072e-02	1.41722043e-04
4.23000000e-01	1.48890731e-02	1.40045149e-04
4.24000000e-01	1.50363052e-02	1.41413561e-04
4.25000000e-01	1.49004643e-02	1.40328703e-04
4.26000000e-01	1.49959904e-02	1.41490661e-04
4.27000000e-01	1.49866096e-02	1.41243086e-04
4.28000000e-01	1.50853821e-02	1.42111111e-04
4.29000000e-01	1.49436731e-02	1.41734014e-04
4.30000000e-01	1.49318122e-02	1.41203124e-04
4.31000000e-01	1.50122806e-02	1.42023585e-04
4.32000000e-01	1.49481658e-02	1.41525044e-04
4.33000000e-01	1.49028510e-02	1.41321572e-04
4.34000000e-01	1.50010434e-02	1.42241644e-04
4.35000000e-01	1.49369759e-02	1.41570166e-04
4.36000000e-01	1.48260275e-02	1.40898685e-04
4.37000000e-01	1.48187600e-02	1.41364517e-04
4.38000000e-01	1.49456572e-02	1.42462383e-04
4.39000000e-01	1.48205126e-02	1.41320240e-04
4.40000000e-01	1.46349909e-02	1.40166082e-04
4.41000000e-01	1.48456550e-02	1.41764928e-04
4.42000000e-01	1.49798084e-02	1.43031752e-04
4.43000000e-01	1.49582808e-02	1.43364882e-04
4.44000000e-01	1.46933715e-02	1.41138386e-04
4.45000000e-01	1.47762456e-02	1.42108345e-04
4.46000000e-01	1.48067489e-02	1.42771603e-04
4.47000000e-01	1.46741958e-02	1.41659261e-04
4.48000000e-01	1.47830515e-02	1.42523522e-04
4.49000000e-01	1.47898460e-02	1.42925315e-04
4.50000000e-01	1.48622159e-02	1.43473667e-04
4.51000000e-01	1.46544597e-02	1.41602456e-04
4.52000000e-01	1.48194753e-02	1.43641653e-04
4.53000000e-01	1.46725061e-02	1.42404877e-04
4.54000000e-01	1.46520618e-02	1.42130371e-04
4.55000000e-01	1.47383965e-02	1.43190767e-04
4.56000000e-01	1.45923519e-02	1.41673951e-04
4.57000000e-01	1.46887675e-02	1.42768752e-04
4.58000000e-01	1.47351336e-02	1.43628907e-04
4.59000000e-01	1.46755043e-02	1.42971293e-04
4.60000000e-01	1.46602921e-02	1.43052608e-04
4.61000000e-01	1.46825530e-02	1.43073423e-04
4.62000000e-01	1.46556187e-02	1.42726313e-04
4.63000000e-01	1.47770209e-02	1.44249851e-04
4.64000000e-01	1.46795340e-02	1.43469276e-04
4.65000000e-01	1.46594509e-02	1.43597561e-04
4.66000000e-01	1.45576352e-02	1.43019302e-04
4.67000000e-01	1.45180205e-02	1.42287862e-04
4.68000000e-01	1.46138221e-02	1.43132182e-04
4.69000000e-01	1.45792259e-02	1.42806231e-04
4.70000000e-01	1.45461402e-02	1.43380873e-04
4.71000000e-01	1.45341376e-02	1.42993109e-04
4.72000000e-01	1.43873650e-02	1.41360047e-04
4.73000000e-01	1.44957888e-02	1.42349415e-04
4.74000000e-01	1.45470071e-02	1.42821033e-04
4.75000000e-01	1.45434176e-02	1.42254780e-04
4.76000000e-01	1.45100026e-02	1.42339335e-04
4.77000000e-01	1.45200351e-02	1.42320930e-04
4.78000000e-01	1.44115066e-02	1.41436896e-04
4.79000000e-01	1.44197343e-02	1.41281015e-04
4.80000000e-01	1.44128205e-02	1.41481205e-04
4.81000000e-01	1.44684545e-02	1.42322230e-04
4.82000000e-01	1.43246814e-02	1.40962306e-04
4.83000000e-01	1.44597601e-02	1.42225156e-04
4.84000000e-01	1.43611438e-02	1.41617601e-04
4.85000000e-01	1.44067814e-02	1.42310187e-04
4.86000000e-01	1.43254542e-02	1.42032623e-04
4.87000000e-01	1.44355906e-02	1.42161024e-04
4.88000000e-01	1.43959714e-02	1.42372602e-04
4.89000000e-01	1.44035869e-02	1.42946761e-04
4.90000000e-01	1.44071673e-02	1.42423347e-04
4.91000000e-01	1.43514727e-02	1.41831694e-04
4.92000000e-01	1.43561935e-02	1.41910919e-04
4.93000000e-01	1.42850134e-02	1.41749839e-04
4.94000000e-01	1.43486619e-02	1.41796886e-04
4.95000000e-01	1.42696830e-02	1.42418958e-04
4.96000000e-01	1.43029828e-02	1.46840589e-04
4.97000000e-01	1.43913626e-02	1.50119363e-04
4.98000000e-01	1.43620183e-02	1.52336837e-04
4.99000000e-01	1.43601727e-02	1.54361990e-04
5.00000000e-01	1.41456729e-02	1.53847074e-04
5.01000000e-01	1.42862077e-02	1.56775086e-04
5.02000000e-01	1.44097891e-02	1.59297298e-04
5.03000000e-01	1.44608799e-02	1.61603857e-04
5.04000000e-01	1.43881856e-02	1.61761705e-04
5.05000000e-01	1.44027999e-02	1.59113889e-04
5.06000000e-01	1.43353377e-02	1.55624837e-04
5.07000000e-01	1.43475032e-02	1.53944264e-04
5.08000000e-01	1.41338970e-02	1.50417039e-04
5.09000000e-01	1.43081583e-02	1.51636080e-04
5.10000000e-01	1.43627045e-02	1.51979840e-04
5.11000000e-01	1.41255772e-02	1.49434251e-04
5.12000000e-01	1.43057455e-02	1.51083811e-04
5.13000000e-01	1.40896412e-02	1.48766762e-04
5.14000000e-01	1.41623108e-02	1.48393821e-04
5.15000000e-01	1.42194722e-02	1.48744451e-04
5.16000000e-01	1.40895790e-02	1.47331115e-04
5.17000000e-01	1.40664764e-02	1.46928076e-04
5.18000000e-01	1.42093817e-02	1.48265925e-04
5.19000000e-01	1.42367251e-02	1.47727989e-04
5.20000000e-01	1.40715126e-02	1.45682036e-04
5.21000000e-01	1.40503872e-02	1.45691416e-04
5.22000000e-01	1.41837900e-02	1.46484902e-04
5.23000000e-01	1.41507347e-02	1.45988744e-04
5.24000000e-01	1.41054963e-02	1.45803569e-04
5.25000000e-01	1.41133619e-02	1.45818171e-04
5.26000000e-01	1.40990534e-02	1.45718538e-04
5.27000000e-01	1.41005965e-02	1.45676170e-04
5.28000000e-01	1.42119193e-02	1.47350912e-04
5.29000000e-01	1.41896080e-02	1.46922641e-04
5.30000000e-01	1.39812910e-02	1.44500706e-04
5.31000000e-01	1.39195268e-02	1.43955363e-04
5.32000000e-01	1.40661381e-02	1.45396200e-04
5.33000000e-01	1.39489471e-02	1.44661474e-04
5.34000000e-01	1.40238349e-02	1.45037563e-04
5.35000000e-01	1.40355798e-02	1.45521664e-04
5.36000000e-01	1.39212299e-02	1.43652975e-04
5.37000000e-01	1.39661613e-02	1.44727860e-04
5.38000000e-01	1.40507329e-02	1.45587089e-04
5.39000000e-01	1.40560272e-02	1.45488746e-04
5.40000000e-01	1.39891118e-02	1.44281748e-04
5.41000000e-01	1.39054717e-02	1.44010516e-04
5.42000000e-01	1.37751634e-02	1.42931797e-04
5.43000000e-01	1.39674892e-02	1.44964695e-04
5.44000000e-01	1.39932028e-02	1.44249058e-04
5.45000000e-01	1.38571861e-02	1.43521459e-04
5.46000000e-01	1.38174335e-02	1.42910616e-04
5.47000000e-01	1.37206190e-02	1.42808958e-04
5.48000000e-01	1.38772068e-02	1.42972318e-04
5.49000000e-01	1.39549616e-02	1.44359586e-04
5.50000000e-01	1.37598201e-02	1.42235955e-04
5.51000000e-01	1.38374894e-02	1.43053311e-04
5.52000000e-01	1.38647297e-02	1.42971425e-04
5.53000000e-01	1.37729245e-02	1.41603115e-04
5.54000000e-01	1.37372194e-02	1.41291838e-04
5.55000000e-01	1.36682033e-02	1.40363940e-04
5.56000000e-01	1.37891952e-02	1.41720336e-04
5.57000000e-01	1.36787917e-02	1.40531826e-04
5.58000000e-01	1.37050198e-02	1.40864340e-04
5.59000000e-01	1.37191588e-02	1.41279805e-04
5.60000000e-01	1.37833720e-02	1.41903370e-04
5.61000000e-01	1.36367938e-02	1.40006912e-04
5.62000000e-01	1.36588227e-02	1.40774561e-04
5.63000000e-01	1.36133112e-02	1.40095801e-04
5.64000000e-01	1.37171502e-02	1.41073577e-04
5.65000000e-01	1.37125360e-02	1.41193423e-04
5.66000000e-01	1.35012755e-02	1.39249237e-04
5.67000000e-01	1.36861288e-02	1.40936799e-04
5.68000000e-01	1.36781350e-02	1.40750720e-04
5.69000000e-01	1.38302450e-02	1.41735583e-04
5.70000000e-01	1.36611420e-02	1.40597173e-04
5.71000000e-01	1.35690176e-02	1.39787496e-04
5.72000000e-01	1.36217397e-02	1.40031289e-04
5.73000000e-01	1.35670204e-02	1.40109572e-04
5.74000000e-01	1.35742292e-02	1.39778484e-04
5.75000000e-01	1.34921127e-02	1.39346272e-04
5.76000000e-01	1.36124653e-02	1.40337465e-04
5.77000000e-01	1.34834572e-02	1.39571010e-04
5.78000000e-01	1.36594032e-02	1.40726076e-04
5.79000000e-01	1.33934619e-02	1.38377791e-04
5.80000000e-01	1.35332818e-02	1.39953352e-04
5.81000000e-01	1.34627694e-02	1.38814107e-04
5.82000000e-01	1.34911936e-02	1.39063599e-04
5.83000000e-01	1.34177692e-02	1.38294841e-04
5.84000000e-01	1.34410094e-02	1.38846204e-04
5.85000000e-01	1.33855362e-02	1.38518899e-04
5.86000000e-01	1.33009994e-02	1.38107583e-04
5.87000000e-01	1.34534056e-02	1.38828299e-04
5.88000000e-01	1.33793472e-02	1.38222775e-04
5.89000000e-01	1.34179464e-02	1.38741717e-04
5.90000000e-01	1.33368086e-02	1.37642590e-04
5.91000000e-01	1.32958761e-02	1.37836281e-04
5.92000000e-01	1.34812363e-02	1.39365734e-04
5.93000000e-01	1.33357966e-02	1.38301166e-04
5.94000000e-01	1.34131533e-02	1.38356495e-04
5.95000000e-01	1.34209548e-02	1.38527341e-04
5.96000000e-01	1.34361190e-02	1.39360232e-04
5.97000000e-01	1.33304582e-02	1.38123133e-04
5.98000000e-01	1.34207057e-02	1.38311805e-04
5.99000000e-01	1.31158424e-02	1.36353598e-04
6.00000000e-01	1.33743988e-02	1.38276891e-04
6.01000000e-01	1.32920221e-02	1.38144180e-04
6.02000000e-01	1.33390619e-02	1.38319249e-04
6.03000000e-01	1.33018828e-02	1.37744899e-04
6.04000000e-01	1.31848153e-02	1.36924559e-04
6.05000000e-01	1.31887285e-02	1.37271370e-04
6.06000000e-01	1.32945284e-02	1.37714588e-04
6.07000000e-01	1.32772044e-02	1.37722235e-04
6.08000000e-01	1.31280234e-02	1.36758239e-04
6.09000000e-01	1.33783862e-02	1.38517158e-04
6.10000000e-01	1.32725300e-02	1.38159632e-04
6.11000000e-01	1.32472476e-02	1.37336744e-04
6.12000000e-01	1.31800647e-02	1.37003498e-04
6.13000000e-01	1.33431979e-02	1.38687452e-04
6.14000000e-01	1.32194402e-02	1.37112730e-04
6.15000000e-01	1.31774398e-02	1.37067051e-04
6.16000000e-01	1.31499843e-02	1.36968780e-04
6.17000000e-01	1.32017496e-02	1.37449689e-04
6.18000000e-01	1.32647117e-02	1.38121023e-04
6.19000000e-01	1.30659813e-02	1.35519340e-04
6.20000000e-01	1.31883072e-02	1.36519243e-04
6.21000000e-01	1.31344814e-02	1.35538215e-04
6.22000000e-01	1.31028250e-02	1.35923585e-04
6.23000000e-01	1.32045235e-02	1.36313138e-04
6.24000000e-01	1.31299857e-02	1.35416477e-04
6.25000000e-01	1.29816011e-02	1.34344241e-04
6.26000000e-01	1.31316996e-02	1.35399405e-04
6.27000000e-01	1.29754119e-02	1.34135253e-04
6.28000000e-01	1.31530971e-02	1.35591198e-04
6.29000000e-01	1.30696928e-02	1.34692766e-04
6.30000000e-01	1.29349050e-02	1.34001439e-04
6.31000000e-01	1.29780819e-02	1.33761321e-04
6.32000000e-01	1.30748867e-02	1.35252336e-04
6.33000000e-01	1.31664305e-02	1.35876324e-04
6.34000000e-01	1.30749084e-02	1.38534651e-04
6.35000000e-01	1.30944703e-02	1.42753774e-04
6.36000000e-01	1.30586431e-02	1.45210838e-04
6.37000000e-01	1.29171750e-02	1.45571926e-04
6.38000000e-01	1.31766290e-02	1.49892598e-04
6.39000000e-01	1.30047305e-02	1.50634763e-04
6.40000000e-01	1.31916041e-02	1.54100279e-04
6.41000000e-01	1.31430780e-02	1.55125302e-04
6.42000000e-01	1.30250526e-02	1.55965176e-04
6.43000000e-01	1.30208713e-02	1.56056224e-04
6.44000000e-01	1.30412700e-02	1.50330778e-04
6.45000000e-01	1.32496899e-02	1.50604895e-04
6.46000000e-01	1.30847909e-02	1.47328070e-04
6.47000000e-01	1.31078393e-02	1.46048726e-04
6.48000000e-01	1.33085264e-02	1.47401615e-04
6.49000000e-01	1.32287857e-02	1.45756937e-04
6.50000000e-01	1.30577557e-02	1.43313127e-04
6.51000000e-01	1.31157260e-02	1.43734546e-04
6.52000000e-01	1.30253638e-02	1.42111949e-04
6.53000000e-01	1.29669562e-02	1.41066243e-04
6.54000000e-01	1.30758366e-02	1.41803581e-04
6.55000000e-01	1.30503380e-02	1.41269602e-04
6.56000000e-01	1.30551418e-02	1.40832723e-04
6.57000000e-01	1.31208845e-02	1.41723576e-04
6.58000000e-01	1.29083789e-02	1.39358595e-04
6.59000000e-01	1.30430815e-02	1.40276791e-04
6.60000000e-01	1.29707182e-02	1.39354065e-04
6.61000000e-01	1.29773873e-02	1.39578090e-04
6.62000000e-01	1.30151601e-02	1.40341632e-04
6.63000000e-01	1.29833315e-02	1.39591414e-04
6.64000000e-01	1.28790972e-02	1.38058313e-04
6.65000000e-01	1.30182194e-02	1.39751047e-04
6.66000000e-01	1.30351935e-02	1.39326433e-04
6.67000000e-01	1.29911496e-02	1.39206679e-04
6.68000000e-01	1.29933486e-02	1.38797689e-04
6.69000000e-01	1.29383811e-02	1.38316095e-04
6.70000000e-01	1.30159267e-02	1.39270270e-04
6.71000000e-01	1.28572801e-02	1.37605205e-04
6.72000000e-01	1.28506139e-02	1.37763255e-04
6.73000000e-01	1.28564205e-02	1.37806301e-04
6.74000000e-01	1.27671223e-02	1.36729423e-04
6.75000000e-01	1.28066581e-02	1.37123560e-04
6.76000000e-01	1.29147064e-02	1.38290765e-04
6.77000000e-01	1.28575222e-02	1.37310034e-04
6.78000000e-01	1.28910651e-02	1.37485171e-04
6.79000000e-01	1.28314573e-02	1.36840529e-04
6.80000000e-01	1.27739383e-02	1.36487278e-04
6.81000000e-01	1.28396221e-02	1.36753627e-04
6.82000000e-01	1.27723804e-02	1.36140472e-04
6.83000000e-01	1.27473426e-02	1.36182606e-04
6.84000000e-01	1.29227679e-02	1.38208718e-04
6.85000000e-01	1.28541372e-02	1.37184953e-04
6.86000000e-01	1.27976191e-02	1.36689376e-04
6.87000000e-01	1.27488418e-02	1.36157966e-04
6.88000000e-01	1.27262782e-02	1.35151820e-04
6.89000000e-01	1.27399223e-02	1.35891820e-04
6.90000000e-01	1.29096408e-02	1.38130582e-04
6.91000000e-01	1.27828466e-02	1.36185440e-04
6.92000000e-01	1.27988174e-02	1.36122637e-04
6.93000000e-01	1.27813214e-02	1.36640569e-04
6.94000000e-01	1.26651329e-02	1.35024893e-04
6.95000000e-01	1.26484437e-02	1.34730566e-04
6.96000000e-01	1.26418047e-02	1.35032034e-04
6.97000000e-01	1.28220347e-02	1.36398940e-04
6.98000000e-01	1.27294845e-02	1.35756384e-04
6.99000000e-01	1.26508740e-02	1.34636132e-04
7.00000000e-01	1.24568103e-02	1.33513305e-04
7.01000000e-01	1.27667797e-02	1.36007071e-04
7.02000000e-01	1.25787631e-02	1.34336066e-04
7.03000000e-01	1.26198132e-02	1.34321839e-04
7.04000000e-01	1.24913512e-02	1.33668550e-04
7.05000000e-01	1.25768310e-02	1.34257663e-04
7.06000000e-01	1.26138258e-02	1.34832167e-04
7.07000000e-01	1.24805235e-02	1.33059686e-04
7.08000000e-01	1.24440175e-02	1.32024639e-04
7.09000000e-01	1.25926528e-02	1.34229735e-04
7.10000000e-01	1.25305879e-02	1.33718540e-04
7.11000000e-01	1.25368377e-02	1.33111743e-04
7.12000000e-01	1.25126878e-02	1.33501202e-04
7.13000000e-01	1.24967153e-02	1.33159436e-04
7.14000000e-01	1.23935980e-02	1.31798002e-04
7.15000000e-01	1.24984095e-02	1.33865611e-04
7.16000000e-01	1.24528378e-02	1.32708668e-04
7.17000000e-01	1.24658196e-02	1.33153028e-04
7.18000000e-01	1.24371223e-02	1.32427577e-04
7.19000000e-01	1.23184620e-02	1.31063315e-04
7.20000000e-01	1.24111996e-02	1.32274673e-04
7.21000000e-01	1.24886550e-02	1.33040460e-04
7.22000000e-01	1.23356681e-02	1.31703371e-04
7.23000000e-01	1.24976353e-02	1.33330747e-04
7.24000000e-01	1.23257614e-02	1.31480221e-04
7.25000000e-01	1.24034270e-02	1.32069680e-04
7.26000000e-01	1.24587120e-02	1.32847845e-04
7.27000000e-01	1.24947623e-02	1.32936975e-04
7.28000000e-01	1.24025006e-02	1.32309750e-04
7.29000000e-01	1.22669249e-02	1.31249223e-04
7.30000000e-01	1.22185082e-02	1.30505060e-04
7.31000000e-01	1.21406533e-02	1.29659428e-04
7.32000000e-01	1.22629934e-02	1.31257754e-04
7.33000000e-01	1.22893487e-02	1.31151739e-04
7.34000000e-01	1.23136226e-02	1.31295143e-04
7.35000000e-01	1.24061140e-02	1.31935921e-04
7.36000000e-01	1.22388583e-02	1.30132111e-04
7.37000000e-01	1.22306676e-02	1.29750689e-04
7.38000000e-01	1.23103093e-02	1.30217697e-04
7.39000000e-01	1.22495092e-02	1.29896083e-04
7.40000000e-01	1.21683291e-02	1.28857300e-04
7.41000000e-01	1.21530382e-02	1.28442178e-04
7.42000000e-01	1.21304755e-02	1.28190098e-04
7.43000000e-01	1.21438638e-02	1.28752510e-04
7.44000000e-01	1.21673566e-02	1.28252003e-04
7.45000000e-01	1.22230711e-02	1.29161517e-04
7.46000000e-01	1.21641307e-02	1.28910747e-04
7.47000000e-01	1.21895730e-02	1.28727235e-04
7.48000000e-01	1.23361920e-02	1.29951767e-04
7.49000000e-01	1.21471764e-02	1.28208038e-04
7.50000000e-01	1.21156885e-02	1.27990522e-04
7.51000000e-01	1.21261044e-02	1.28346699e-04
7.52000000e-01	1.19573025e-02	1.26869562e-04
7.53000000e-01	1.20719009e-02	1.27916493e-04
7.54000000e-01	1.19772292e-02	1.27051453e-04
7.55000000e-01	1.20482621e-02	1.27912083e-04
7.56000000e-01	1.20832754e-02	1.28026509e-04
7.57000000e-01	1.20119505e-02	1.27066166e-04
7.58000000e-01	1.19967257e-02	1.26682594e-04
7.59000000e-01	1.21342184e-02	1.28214804e-04
7.60000000e-01	1.19766414e-02	1.26022887e-04
7.61000000e-01	1.19151639e-02	1.26020025e-04
7.62000000e-01	1.19563857e-02	1.26143038e-04
7.63000000e-01	1.19296310e-02	1.25218867e-04
7.64000000e-01	1.17036668e-02	1.23386536e-04
7.65000000e-01	1.18843661e-02	1.24760022e-04
7.66000000e-01	1.19124874e-02	1.25067076e-04
7.67000000e-01	1.19379969e-02	1.25735779e-04
7.68000000e-01	1.20110994e-02	1.25857280e-04
7.69000000e-01	1.19421231e-02	1.25727686e-04
7.70000000e-01	1.19556942e-02	1.25752537e-04
7.71000000e-01	1.19113641e-02	1.25172133e-04
7.72000000e-01	1.20110525e-02	1.29822750e-04
7.73000000e-01	1.18833302e-02	1.32647247e-04
7.74000000e-01	1.18103299e-02	1.34415551e-04
7.75000000e-01	1.19202123e-02	1.37741452e-04
7.76000000e-01	1.18892066e-02	1.39948497e-04
7.77000000e-01	1.17568769e-02	1.40100993e-04
7.78000000e-01	1.17705470e-02	1.42667283e-04
7.79000000e-01	1.18055619e-02	1.44686240e-04
7.80000000e-01	1.17823122e-02	1.45812192e-04
7.81000000e-01	1.16342495e-02	1.45712876e-04
7.82000000e-01	1.18852493e-02	1.50616989e-04
7.83000000e-01	1.16669312e-02	1.49046115e-04
7.84000000e-01	1.17994329e-02	1.52964535e-04
7.85000000e-01	1.17418132e-02	1.54252197e-04
7.86000000e-01	1.16783540e-02	1.54342396e-04
7.87000000e-01	1.16856743e-02	1.56545150e-04
7.88000000e-01	1.16300408e-02	1.56628084e-04
7.89000000e-01	1.15378843e-02	1.57979373e-04
7.90000000e-01	1.15461009e-02	1.59219042e-04
7.91000000e-01	1.14749337e-02	1.60217205e-04
7.92000000e-01	1.15777425e-02	1.62554416e-04
7.93000000e-01	1.15694592e-02	1.64272304e-04
7.94000000e-01	1.15573178e-02	1.66175115e-04
7.95000000e-01	1.15592813e-02	1.67463488e-04
7.96000000e-01	1.17838121e-02	1.72546914e-04
7.97000000e-01	1.15080670e-02	1.70674680e-04
7.98000000e-01	1.14829304e-02	1.71588732e-04
7.99000000e-01	1.15414916e-02	1.74519655e-04
8.00000000e-01	1.16917659e-02	1.77802027e-04
8.01000000e-01	1.14416978e-02	1.75650947e-04
8.02000000e-01	1.14348024e-02	1.77790457e-04
8.03000000e-01	1.15070470e-02	1.81577087e-04
8.04000000e-01	1.15473779e-02	1.83673697e-04
8.05000000e-01	1.14637625e-02	1.84935787e-04
8.06000000e-01	1.16634964e-02	1.89220651e-04
8.07000000e-01	1.15369180e-02	1.88620894e-04
8.08000000e-01	1.15942181e-02	1.91990511e-04
8.09000000e-01	1.13632306e-02	1.91024823e-04
8.10000000e-01	1.13617494e-02	1.93296354e-04
8.11000000e-01	1.14026745e-02	1.95785786e-04
8.12000000e-01	1.13046118e-02	1.97743464e-04
8.13000000e-01	1.12372082e-02	1.97583728e-04
8.14000000e-01	1.12820586e-02	2.01721616e-04
8.15000000e-01	1.11809517e-02	2.02238899e-04
8.16000000e-01	1.13188899e-02	2.05434937e-04
8.17000000e-01	1.12556336e-02	2.07114246e-04
8.18000000e-01	1.14622012e-02	2.14556945e-04
8.19000000e-01	1.14059023e-02	2.15293133e-04
8.20000000e-01	1.11404227e-02	2.13162361e-04
8.21000000e-01	1.10984350e-02	2.15266305e-04
8.22000000e-01	1.10628761e-02	2.18600278e-04
8.23000000e-01	1.12024670e-02	2.22939668e-04
8.24000000e-01	1.11492722e-02	2.26106782e-04
8.25000000e-01	1.14474117e-02	2.34169545e-04
8.26000000e-01	1.09713569e-02	2.29962776e-04
8.27000000e-01	1.12629624e-02	2.38517031e-04
8.28000000e-01	1.09272189e-02	2.33521522e-04
8.29000000e-01	1.10556527e-02	2.41281396e-04
8.30000000e-01	1.10499527e-02	2.43129368e-04
8.31000000e-01	1.10365296e-02	2.47868408e-04
8.32000000e-01	1.11150554e-02	2.53149038e-04
8.33000000e-01	1.08434133e-02	2.54337794e-04
8.34000000e-01	1.11828306e-02	2.62185816e-04
8.35000000e-01	1.09989652e-02	2.65448560e-04
8.36000000e-01	1.09568768e-02	2.70561533e-04
8.37000000e-01	1.10523193e-02	2.74686040e-04
8.38000000e-01	1.10282054e-02	2.80366196e-04
8.39000000e-01	1.10231454e-02	2.87011070e-04
8.40000000e-01	1.08674687e-02	2.91204047e-04
8.41000000e-01	1.11949256e-02	3.06322098e-04
8.42000000e-01	1.09514387e-02	3.04560890e-04
8.43000000e-01	1.07671123e-02	3.10125749e-04
8.44000000e-01	1.06942910e-02	3.12306025e-04
8.45000000e-01	1.09364225e-02	3.26836238e-04
8.46000000e-01	1.10176890e-02	3.36745943e-04
8.47000000e-01	1.07575759e-02	3.43110253e-04
8.48000000e-01	1.11842516e-02	3.64508626e-04
8.49000000e-01	1.11718677e-02	3.76353949e-04
8.50000000e-01	1.04650133e-02	3.65900124e-04
8.51000000e-01	1.10536504e-02	4.02711293e-04
8.52000000e-01	1.11362086e-02	4.20861689e-04
8.53000000e-01	1.08432493e-02	4.27966515e-04
8.54000000e-01	1.08227440e-02	4.41546919e-04
8.55000000e-01	1.07064863e-02	4.60142691e-04
8.56000000e-01	1.08803993e-02	4.74819026e-04
8.57000000e-01	1.04138557e-02	4.71595216e-04
8.58000000e-01	1.05324088e-02	4.90219459e-04
8.59000000e-01	1.05625355e-02	5.05093013e-04
8.60000000e-01	1.02747641e-02	5.16147314e-04
8.61000000e-01	1.05349190e-02	5.36358807e-04
8.62000000e-01	1.07686193e-02	5.66617310e-04
8.63000000e-01	1.02977430e-02	5.66795585e-04
8.64000000e-01	1.12775428e-02	6.41754597e-04
8.65000000e-01	1.01686870e-02	6.14969178e-04
8.66000000e-01	1.01528525e-02	6.35955855e-04
8.67000000e-01	1.01324651e-02	6.68633816e-04
8.68000000e-01	1.06968748e-02	7.52790083e-04
8.69000000e-01	9.82895160e-03	7.67183466e-04
8.70000000e-01	1.06166069e-02	9.00130357e-04
8.71000000e-01	1.06880171e-02	9.67834905e-04
8.72000000e-01	1.03242531e-02	1.07701656e-03
8.73000000e-01	1.08139308e-02	1.30079375e-03
8.74000000e-01	1.16639036e-02	1.81902305e-03
8.75000000e-01	9.03515888e-03	3.07257009e-03
