% Filename : SDL7c_thin_00028_00011.h5
% Date & Time : 30-Oct-2025 17:10:04
% X-ray Energy (keV) : 13.30001
% Exposure Time (s) : 0.500
% Beam Center : 1461.24000, 208.98300
% Sample to Detector Distance (SDD) (mm) : 1990.750
% Detector Pixel Size (mm) : 0.075
% Photodiode Value : 141563.000
% I0 of Sample : 0
% I0 of Standard : 1
% 
% q(A^-1)   I(q)    I(q)_SE
0.00000000e+00	8.93359861e-03	4.94280336e-03
2.50000000e-04	0.00000000e+00	0.00000000e+00
5.00000000e-04	0.00000000e+00	0.00000000e+00
7.50000000e-04	0.00000000e+00	0.00000000e+00
1.00000000e-03	0.00000000e+00	0.00000000e+00
1.25000000e-03	0.00000000e+00	0.00000000e+00
1.50000000e-03	0.00000000e+00	0.00000000e+00
1.75000000e-03	0.00000000e+00	0.00000000e+00
2.00000000e-03	0.00000000e+00	0.00000000e+00
2.25000000e-03	0.00000000e+00	0.00000000e+00
2.50000000e-03	0.00000000e+00	0.00000000e+00
2.75000000e-03	0.00000000e+00	0.00000000e+00
3.00000000e-03	0.00000000e+00	0.00000000e+00
3.25000000e-03	4.71315048e+00	2.73502439e+00
3.50000000e-03	2.02447851e+00	5.58985755e-01
3.75000000e-03	1.50386177e+00	3.34816282e-01
4.00000000e-03	1.34996417e+00	2.82974882e-01
4.25000000e-03	9.31062711e-01	1.52250938e-01
4.50000000e-03	1.22966127e+00	2.24752170e-01
4.75000000e-03	1.34665759e+00	2.53056894e-01
5.00000000e-03	1.06705377e+00	1.89570397e-01
5.25000000e-03	8.88204317e-01	1.55794047e-01
5.50000000e-03	7.61636306e-01	1.31950003e-01
5.75000000e-03	6.33876411e-01	1.03496346e-01
6.00000000e-03	5.38214310e-01	8.45440251e-02
6.25000000e-03	4.76102120e-01	7.47126747e-02
6.50000000e-03	4.09396223e-01	6.01984644e-02
6.75000000e-03	3.50450589e-01	5.06411991e-02
7.00000000e-03	3.11672403e-01	4.28189369e-02
7.25000000e-03	2.66634655e-01	3.56514090e-02
7.50000000e-03	2.33885225e-01	3.10472091e-02
7.75000000e-03	2.08679984e-01	2.71599786e-02
8.00000000e-03	1.95301845e-01	2.50546677e-02
8.25000000e-03	1.70706276e-01	2.04472130e-02
8.50000000e-03	1.59158856e-01	1.87671958e-02
8.75000000e-03	1.40119957e-01	1.67956836e-02
9.00000000e-03	1.26289830e-01	1.40332697e-02
9.25000000e-03	1.16247095e-01	1.25018855e-02
9.50000000e-03	1.05839894e-01	1.11101690e-02
9.75000000e-03	9.99234106e-02	1.07042976e-02
1.00000000e-02	8.53973128e-02	8.45222388e-03
1.02500000e-02	8.27499729e-02	8.60816318e-03
1.05000000e-02	7.78901961e-02	7.49090372e-03
1.07500000e-02	7.26552349e-02	6.85483320e-03
1.10000000e-02	6.74522521e-02	6.13996268e-03
1.12500000e-02	6.02312106e-02	5.47617681e-03
1.15000000e-02	5.93375600e-02	5.24069864e-03
1.17500000e-02	5.43240349e-02	4.41741342e-03
1.20000000e-02	5.46729827e-02	4.75564582e-03
1.22500000e-02	5.21520864e-02	4.28973790e-03
1.25000000e-02	5.28933452e-02	4.27861500e-03
1.27500000e-02	4.97008768e-02	3.97349054e-03
1.30000000e-02	4.57645118e-02	3.64730908e-03
1.32500000e-02	4.35123457e-02	3.30892236e-03
1.35000000e-02	4.08592009e-02	3.04375179e-03
1.37500000e-02	3.96396208e-02	2.94964960e-03
1.40000000e-02	3.87580601e-02	2.89210409e-03
1.42500000e-02	3.67483024e-02	2.52920044e-03
1.45000000e-02	3.74166089e-02	2.60035564e-03
1.47500000e-02	3.46319726e-02	2.30449061e-03
1.50000000e-02	3.45622414e-02	2.23043224e-03
1.52500000e-02	3.34594179e-02	2.21013066e-03
1.55000000e-02	3.09954336e-02	1.97526861e-03
1.57500000e-02	3.09479328e-02	1.95601477e-03
1.60000000e-02	3.07377535e-02	1.92016668e-03
1.62500000e-02	2.97530288e-02	1.82135702e-03
1.65000000e-02	2.91601092e-02	1.71992122e-03
1.67500000e-02	2.81268564e-02	1.65802362e-03
1.70000000e-02	2.77450511e-02	1.66900361e-03
1.72500000e-02	2.84772764e-02	1.64996349e-03
1.75000000e-02	2.80746134e-02	1.61653575e-03
1.77500000e-02	2.63017786e-02	1.49725764e-03
1.80000000e-02	2.62673893e-02	1.48296188e-03
1.82500000e-02	2.56218133e-02	1.36045027e-03
1.85000000e-02	2.66914591e-02	1.47980425e-03
1.87500000e-02	2.59122768e-02	1.41510411e-03
1.90000000e-02	2.57558979e-02	1.39634232e-03
1.92500000e-02	2.48958961e-02	1.32092750e-03
1.95000000e-02	2.54391476e-02	1.33281039e-03
1.97500000e-02	2.52365249e-02	1.34841724e-03
2.00000000e-02	2.48528480e-02	1.30850817e-03
2.02500000e-02	2.44286530e-02	1.27484522e-03
2.05000000e-02	2.34091781e-02	1.19978446e-03
2.07500000e-02	2.41114617e-02	1.21807905e-03
2.10000000e-02	2.42860992e-02	1.24218055e-03
2.12500000e-02	2.43239184e-02	1.24663110e-03
2.15000000e-02	2.33622710e-02	1.18398841e-03
2.17500000e-02	2.33160666e-02	1.19620584e-03
2.20000000e-02	2.36040253e-02	1.19727757e-03
2.22500000e-02	2.39829530e-02	1.21845119e-03
2.25000000e-02	2.33951122e-02	1.20915976e-03
2.27500000e-02	2.33899029e-02	1.17514709e-03
2.30000000e-02	2.34255599e-02	1.20732046e-03
2.32500000e-02	2.25919445e-02	1.15101706e-03
2.35000000e-02	2.32823147e-02	1.18183401e-03
2.37500000e-02	2.25935901e-02	1.16042448e-03
2.40000000e-02	2.36826707e-02	1.20497450e-03
2.42500000e-02	2.29891035e-02	1.16366681e-03
2.45000000e-02	2.29565251e-02	1.17208734e-03
2.47500000e-02	2.38613446e-02	1.18982077e-03
2.50000000e-02	2.23508274e-02	1.12483864e-03
2.52500000e-02	2.27536178e-02	1.13739842e-03
2.55000000e-02	2.31338018e-02	1.14659006e-03
2.57500000e-02	2.28723288e-02	1.13730114e-03
2.60000000e-02	2.24460414e-02	1.12033130e-03
2.62500000e-02	2.25084051e-02	1.12978271e-03
2.65000000e-02	2.29694401e-02	1.13387270e-03
2.67500000e-02	2.16062236e-02	1.05954965e-03
2.70000000e-02	2.22829160e-02	1.10333926e-03
2.72500000e-02	2.20260840e-02	1.07587667e-03
2.75000000e-02	2.26165950e-02	1.13083317e-03
2.77500000e-02	2.24613078e-02	1.11480543e-03
2.80000000e-02	2.33051053e-02	1.11744732e-03
2.82500000e-02	2.23540957e-02	1.07806799e-03
2.85000000e-02	2.28639619e-02	1.10716330e-03
2.87500000e-02	2.35568079e-02	1.14793420e-03
2.90000000e-02	2.23919744e-02	1.09263303e-03
2.92500000e-02	2.23197401e-02	1.06598074e-03
2.95000000e-02	2.30367185e-02	1.11204806e-03
2.97500000e-02	2.27721863e-02	1.09612948e-03
3.00000000e-02	2.22184082e-02	1.08347740e-03
3.02500000e-02	2.26494387e-02	1.09960853e-03
3.05000000e-02	2.37684546e-02	1.10605580e-03
3.07500000e-02	2.27405865e-02	1.09573669e-03
3.10000000e-02	2.25749560e-02	1.07132002e-03
3.12500000e-02	2.32760186e-02	1.11270618e-03
3.15000000e-02	2.20750662e-02	1.04869051e-03
3.17500000e-02	2.24887558e-02	1.04676701e-03
3.20000000e-02	2.23474226e-02	1.04079487e-03
3.22500000e-02	2.17109029e-02	1.03533735e-03
3.25000000e-02	2.24464480e-02	1.06575200e-03
3.27500000e-02	2.21419486e-02	1.03531632e-03
3.30000000e-02	2.22710236e-02	1.02370136e-03
3.32500000e-02	2.25006734e-02	1.04400172e-03
3.35000000e-02	2.19844548e-02	1.03287588e-03
3.37500000e-02	2.22328328e-02	1.02920125e-03
3.40000000e-02	2.27648947e-02	1.05622695e-03
3.42500000e-02	2.22531374e-02	1.01202851e-03
3.45000000e-02	2.24917668e-02	1.03725158e-03
3.47500000e-02	2.22992182e-02	1.02317945e-03
3.50000000e-02	2.21346725e-02	1.01302090e-03
3.52500000e-02	2.13354105e-02	9.82521092e-04
3.55000000e-02	2.12390524e-02	9.64120299e-04
3.57500000e-02	2.13486284e-02	9.76064512e-04
3.60000000e-02	2.13031563e-02	9.64411926e-04
3.62500000e-02	2.12240741e-02	9.69109672e-04
3.65000000e-02	2.18266810e-02	9.95354765e-04
3.67500000e-02	2.13469784e-02	9.56375405e-04
3.70000000e-02	2.12282403e-02	9.59351619e-04
3.72500000e-02	2.12299117e-02	9.56280942e-04
3.75000000e-02	2.13365004e-02	9.57489980e-04
3.77500000e-02	2.15489316e-02	9.66350530e-04
3.80000000e-02	2.17621064e-02	9.67892819e-04
3.82500000e-02	2.19058216e-02	9.68819619e-04
3.85000000e-02	2.14580221e-02	9.44985914e-04
3.87500000e-02	2.15442706e-02	9.44713382e-04
3.90000000e-02	2.03944753e-02	9.23660827e-04
3.92500000e-02	2.13054127e-02	9.19695718e-04
3.95000000e-02	2.10321055e-02	9.14641775e-04
3.97500000e-02	2.13185547e-02	9.38213542e-04
4.00000000e-02	2.12303376e-02	9.28102476e-04
4.02500000e-02	2.20231099e-02	9.58347874e-04
4.05000000e-02	2.05840409e-02	8.97760247e-04
4.07500000e-02	2.16579458e-02	9.28605712e-04
4.10000000e-02	2.04363455e-02	8.91640315e-04
4.12500000e-02	2.07786979e-02	9.07224153e-04
4.15000000e-02	2.09950421e-02	9.00304875e-04
4.17500000e-02	2.11494153e-02	9.11864085e-04
4.20000000e-02	2.12415196e-02	9.07053141e-04
4.22500000e-02	2.06073046e-02	8.81090812e-04
4.25000000e-02	2.14079649e-02	9.08786371e-04
4.27500000e-02	2.10181985e-02	8.96078527e-04
4.30000000e-02	2.14319656e-02	9.20251380e-04
4.32500000e-02	2.10719728e-02	8.98520437e-04
4.35000000e-02	2.13698174e-02	9.06107724e-04
4.37500000e-02	2.12650996e-02	8.85022227e-04
4.40000000e-02	2.08047353e-02	8.73460747e-04
4.42500000e-02	2.11121234e-02	8.93554093e-04
4.45000000e-02	2.20944834e-02	9.18765865e-04
4.47500000e-02	2.12325328e-02	8.92605308e-04
4.50000000e-02	2.05684146e-02	8.71045562e-04
4.52500000e-02	2.07688850e-02	8.66572839e-04
4.55000000e-02	2.10073992e-02	8.70575106e-04
4.57500000e-02	2.11016935e-02	8.67815713e-04
4.60000000e-02	2.15104175e-02	8.94943835e-04
4.62500000e-02	2.04282968e-02	8.40250048e-04
4.65000000e-02	2.08444982e-02	8.59213517e-04
4.67500000e-02	2.06307788e-02	8.41794216e-04
4.70000000e-02	2.04967052e-02	8.37290999e-04
4.72500000e-02	1.99634193e-02	8.10895967e-04
4.75000000e-02	2.06749243e-02	8.50863341e-04
4.77500000e-02	2.07984797e-02	8.49148145e-04
4.80000000e-02	2.03677412e-02	8.30392435e-04
4.82500000e-02	2.15329896e-02	8.72250248e-04
4.85000000e-02	2.10994762e-02	8.72093806e-04
4.87500000e-02	2.13076859e-02	8.66947918e-04
4.90000000e-02	2.10869220e-02	8.51182357e-04
4.92500000e-02	2.05339032e-02	8.34229264e-04
4.95000000e-02	2.08800236e-02	8.42128146e-04
4.97500000e-02	2.05931383e-02	8.41506998e-04
5.00000000e-02	2.07800556e-02	8.41763529e-04
5.02500000e-02	2.05076625e-02	8.11866088e-04
5.05000000e-02	2.06049318e-02	8.15323068e-04
5.07500000e-02	2.08599096e-02	8.30551333e-04
5.10000000e-02	2.03624800e-02	8.09812048e-04
5.12500000e-02	2.05564222e-02	8.29033824e-04
5.15000000e-02	2.06267356e-02	8.19557817e-04
5.17500000e-02	2.09049369e-02	8.29164439e-04
5.20000000e-02	2.02154921e-02	8.02954951e-04
5.22500000e-02	2.05609205e-02	8.22694509e-04
5.25000000e-02	2.07998785e-02	8.22186808e-04
5.27500000e-02	2.02352131e-02	7.97633009e-04
5.30000000e-02	1.96413445e-02	7.81908156e-04
5.32500000e-02	2.04140742e-02	8.01341137e-04
5.35000000e-02	2.06672822e-02	8.10825619e-04
5.37500000e-02	2.01341923e-02	7.87066359e-04
5.40000000e-02	2.05234391e-02	8.03760013e-04
5.42500000e-02	2.03309421e-02	7.90024385e-04
5.45000000e-02	2.04176785e-02	7.91234222e-04
5.47500000e-02	2.01848674e-02	7.79146912e-04
5.50000000e-02	2.00419421e-02	7.85676144e-04
5.52500000e-02	2.07660414e-02	7.96642210e-04
5.55000000e-02	2.03348468e-02	7.79965653e-04
5.57500000e-02	2.05199608e-02	7.87829060e-04
5.60000000e-02	2.04439005e-02	7.92007835e-04
5.62500000e-02	2.04437165e-02	7.91862325e-04
5.65000000e-02	2.06683812e-02	7.88511974e-04
5.67500000e-02	2.09923871e-02	8.09234875e-04
5.70000000e-02	1.98114470e-02	7.54429680e-04
5.72500000e-02	2.08565632e-02	7.90806975e-04
5.75000000e-02	2.02067780e-02	7.82458724e-04
5.77500000e-02	2.00516229e-02	7.56968766e-04
5.80000000e-02	2.05609042e-02	7.77090668e-04
5.82500000e-02	1.96650457e-02	7.42566947e-04
5.85000000e-02	2.02871218e-02	7.64828610e-04
5.87500000e-02	2.02316468e-02	7.62529736e-04
5.90000000e-02	1.99496302e-02	7.51047613e-04
5.92500000e-02	2.04262795e-02	7.60120167e-04
5.95000000e-02	2.00939697e-02	7.51487187e-04
5.97500000e-02	1.98140029e-02	7.46143142e-04
6.00000000e-02	2.07071413e-02	7.71037611e-04
6.02500000e-02	2.06536655e-02	7.70942385e-04
6.05000000e-02	2.00371714e-02	7.46822768e-04
6.07500000e-02	2.08745951e-02	7.73111611e-04
6.10000000e-02	2.10816578e-02	7.77687152e-04
6.12500000e-02	2.05446692e-02	7.55826349e-04
6.15000000e-02	1.98883819e-02	7.36909054e-04
6.17500000e-02	2.04855866e-02	7.54796414e-04
6.20000000e-02	2.04096142e-02	7.52725440e-04
6.22500000e-02	2.02402846e-02	7.47750928e-04
6.25000000e-02	2.07470639e-02	7.58757146e-04
6.27500000e-02	1.96656672e-02	7.19198265e-04
6.30000000e-02	1.95955459e-02	7.18210056e-04
6.32500000e-02	1.98356429e-02	7.23009809e-04
6.35000000e-02	2.04906290e-02	7.48967874e-04
6.37500000e-02	1.99797304e-02	7.32612121e-04
6.40000000e-02	2.06146728e-02	7.53220583e-04
6.42500000e-02	1.98740080e-02	7.18244624e-04
6.45000000e-02	2.07035165e-02	7.47668758e-04
6.47500000e-02	2.01677413e-02	7.27835357e-04
6.50000000e-02	1.99366236e-02	7.16698728e-04
6.52500000e-02	1.99828664e-02	7.22053016e-04
6.55000000e-02	2.01379544e-02	7.30075642e-04
6.57500000e-02	2.10505011e-02	7.58882671e-04
6.60000000e-02	2.00029357e-02	7.17468884e-04
6.62500000e-02	2.02152370e-02	7.27288899e-04
6.65000000e-02	1.98243514e-02	7.03064032e-04
6.67500000e-02	2.02549670e-02	7.22289115e-04
6.70000000e-02	2.00283176e-02	7.19182539e-04
6.72500000e-02	2.03326850e-02	7.27110811e-04
6.75000000e-02	1.98556134e-02	6.97440879e-04
6.77500000e-02	1.92117487e-02	6.81858933e-04
6.80000000e-02	2.06218412e-02	7.30087453e-04
6.82500000e-02	2.02009225e-02	7.17465333e-04
6.85000000e-02	2.01932106e-02	7.20992105e-04
6.87500000e-02	2.01339147e-02	7.06126879e-04
6.90000000e-02	1.99551888e-02	7.02382548e-04
6.92500000e-02	2.01176452e-02	7.07896935e-04
6.95000000e-02	1.94836493e-02	6.86633319e-04
6.97500000e-02	1.92153023e-02	6.79600257e-04
7.00000000e-02	1.99401763e-02	6.97907489e-04
7.02500000e-02	2.02990750e-02	7.05335871e-04
7.05000000e-02	2.02489356e-02	7.03408889e-04
7.07500000e-02	1.96755928e-02	6.88614725e-04
7.10000000e-02	2.00361832e-02	6.97426506e-04
7.12500000e-02	1.96893783e-02	6.88624985e-04
7.15000000e-02	2.04694518e-02	7.08735196e-04
7.17500000e-02	2.03614348e-02	7.06202627e-04
7.20000000e-02	2.02573913e-02	7.05629652e-04
7.22500000e-02	1.97490232e-02	6.80270674e-04
7.25000000e-02	2.00913071e-02	6.94289564e-04
7.27500000e-02	2.00633213e-02	6.95272668e-04
7.30000000e-02	2.01527554e-02	6.91898288e-04
7.32500000e-02	1.95890270e-02	6.73606867e-04
7.35000000e-02	2.07738871e-02	7.15774328e-04
7.37500000e-02	2.02090176e-02	6.89243451e-04
7.40000000e-02	2.08358898e-02	7.07383469e-04
7.42500000e-02	2.02665531e-02	6.94622989e-04
7.45000000e-02	2.00922798e-02	6.82684635e-04
7.47500000e-02	1.97731029e-02	6.71255515e-04
7.50000000e-02	2.02751846e-02	6.85567146e-04
7.52500000e-02	1.99804987e-02	6.78354247e-04
7.55000000e-02	1.97471946e-02	6.66523332e-04
7.57500000e-02	1.97925188e-02	6.69207104e-04
7.60000000e-02	2.04051737e-02	6.92570862e-04
7.62500000e-02	1.95553101e-02	6.67887222e-04
7.65000000e-02	1.98523979e-02	6.64184764e-04
7.67500000e-02	1.98210683e-02	6.67915871e-04
7.70000000e-02	2.00730462e-02	6.72599519e-04
7.72500000e-02	1.98509202e-02	6.85302232e-04
7.75000000e-02	2.02206910e-02	7.00358602e-04
7.77500000e-02	1.99886303e-02	6.95479783e-04
7.80000000e-02	2.00326435e-02	7.01190015e-04
7.82500000e-02	2.00099123e-02	6.99798260e-04
7.85000000e-02	2.07040386e-02	7.25438749e-04
7.87500000e-02	2.04692705e-02	7.22170290e-04
7.90000000e-02	2.04331624e-02	7.28255547e-04
7.92500000e-02	1.94894597e-02	6.98798790e-04
7.95000000e-02	1.99725651e-02	7.16974043e-04
7.97500000e-02	1.96711798e-02	7.10062674e-04
8.00000000e-02	2.01966568e-02	7.16102847e-04
8.02500000e-02	2.02865689e-02	7.24295117e-04
8.05000000e-02	1.95035129e-02	6.96951445e-04
8.07500000e-02	2.00948128e-02	7.29066939e-04
8.10000000e-02	1.99587828e-02	7.22838792e-04
8.12500000e-02	2.02199073e-02	7.31252112e-04
8.15000000e-02	2.02125122e-02	7.28859280e-04
8.17500000e-02	2.08243832e-02	7.53975667e-04
8.20000000e-02	2.04909645e-02	7.43441365e-04
8.22500000e-02	1.98910127e-02	7.24271377e-04
8.25000000e-02	2.00500148e-02	7.26470256e-04
8.27500000e-02	2.01703264e-02	7.33924719e-04
8.30000000e-02	1.97893832e-02	7.24031929e-04
8.32500000e-02	1.89155749e-02	7.00881281e-04
8.35000000e-02	2.02006339e-02	7.41847746e-04
8.37500000e-02	2.05827450e-02	7.47213546e-04
8.40000000e-02	1.99337762e-02	7.33748577e-04
8.42500000e-02	2.02694938e-02	7.50858619e-04
8.45000000e-02	1.96243631e-02	7.35440986e-04
8.47500000e-02	1.93780830e-02	7.18899603e-04
8.50000000e-02	1.97994365e-02	7.29042609e-04
8.52500000e-02	1.98411298e-02	7.37817907e-04
8.55000000e-02	2.01291848e-02	7.44818243e-04
8.57500000e-02	1.98083694e-02	7.45280914e-04
8.60000000e-02	2.02752112e-02	7.51942645e-04
8.62500000e-02	1.96674986e-02	7.35284486e-04
8.65000000e-02	1.94873251e-02	7.17872102e-04
8.67500000e-02	2.04034558e-02	7.51008918e-04
8.70000000e-02	2.00182609e-02	7.24984735e-04
8.72500000e-02	2.00145108e-02	7.12549746e-04
8.75000000e-02	2.03018132e-02	7.20232349e-04
8.77500000e-02	2.00457143e-02	7.08118926e-04
8.80000000e-02	1.99029171e-02	7.05351316e-04
8.82500000e-02	1.99030716e-02	6.94046009e-04
8.85000000e-02	2.00152442e-02	7.01050787e-04
8.87500000e-02	1.99974174e-02	6.84101404e-04
8.90000000e-02	1.98842177e-02	6.84934745e-04
8.92500000e-02	1.93503471e-02	6.67941084e-04
8.95000000e-02	1.97525329e-02	6.77788563e-04
8.97500000e-02	2.02142890e-02	6.90370966e-04
9.00000000e-02	1.99405073e-02	6.70031549e-04
9.02500000e-02	1.98348413e-02	6.75216905e-04
9.05000000e-02	1.97522017e-02	6.73810926e-04
9.07500000e-02	1.93579526e-02	6.54928539e-04
9.10000000e-02	2.02099557e-02	6.77197769e-04
9.12500000e-02	1.95013044e-02	6.52950041e-04
9.15000000e-02	1.97027937e-02	6.61171660e-04
9.17500000e-02	1.95309825e-02	6.62054562e-04
9.20000000e-02	1.96426105e-02	6.58397963e-04
9.22500000e-02	2.06622491e-02	6.91496269e-04
9.25000000e-02	2.01933050e-02	6.71189007e-04
9.27500000e-02	2.00798877e-02	6.68130999e-04
9.30000000e-02	2.02100831e-02	6.67660837e-04
9.32500000e-02	2.01235880e-02	6.66165498e-04
9.35000000e-02	2.03354916e-02	6.68971096e-04
9.37500000e-02	2.01105597e-02	6.63833343e-04
9.40000000e-02	1.94342408e-02	6.44851448e-04
9.42500000e-02	1.95859054e-02	6.38212011e-04
9.45000000e-02	1.99263068e-02	6.49965673e-04
9.47500000e-02	2.02069529e-02	6.58419794e-04
9.50000000e-02	1.92813238e-02	6.25872528e-04
9.52500000e-02	1.98000440e-02	6.40422278e-04
9.55000000e-02	1.94204548e-02	6.28174966e-04
9.57500000e-02	1.96872479e-02	6.40316113e-04
9.60000000e-02	1.99636716e-02	6.41903967e-04
9.62500000e-02	2.00341066e-02	6.46652896e-04
9.65000000e-02	2.00461435e-02	6.44943144e-04
9.67500000e-02	1.94455862e-02	6.23496504e-04
9.70000000e-02	1.98563348e-02	6.40135635e-04
9.72500000e-02	1.97339270e-02	6.36165754e-04
9.75000000e-02	2.02338233e-02	6.48045461e-04
9.77500000e-02	1.95681449e-02	6.28137417e-04
9.80000000e-02	1.96989725e-02	6.28539847e-04
9.82500000e-02	1.97638014e-02	6.27662674e-04
9.85000000e-02	1.97089898e-02	6.29387891e-04
9.87500000e-02	1.95530611e-02	6.22138057e-04
9.90000000e-02	1.91617640e-02	6.13605421e-04
9.92500000e-02	1.95163784e-02	6.19232568e-04
9.95000000e-02	1.96515551e-02	6.23398026e-04
9.97500000e-02	1.97911707e-02	6.28675869e-04
1.00000000e-01	1.91147695e-02	4.95709577e-04
1.00500000e-01	1.97279685e-02	4.41009342e-04
1.01000000e-01	1.95578212e-02	4.34584072e-04
1.01500000e-01	1.96511091e-02	4.34912667e-04
1.02000000e-01	1.94284463e-02	4.29746151e-04
1.02500000e-01	1.94807703e-02	4.29950025e-04
1.03000000e-01	2.01560454e-02	4.40598563e-04
1.03500000e-01	1.97228198e-02	4.31928348e-04
1.04000000e-01	1.94216676e-02	4.25764224e-04
1.04500000e-01	1.95064209e-02	4.25573694e-04
1.05000000e-01	1.95727451e-02	4.23336857e-04
1.05500000e-01	1.90954501e-02	4.15962258e-04
1.06000000e-01	1.96730805e-02	4.25141438e-04
1.06500000e-01	1.95752802e-02	4.21005671e-04
1.07000000e-01	1.97241749e-02	4.30061083e-04
1.07500000e-01	1.97317684e-02	4.38748062e-04
1.08000000e-01	1.96665297e-02	4.38952738e-04
1.08500000e-01	1.99739471e-02	4.46877449e-04
1.09000000e-01	1.95320536e-02	4.41261435e-04
1.09500000e-01	1.98124614e-02	4.52023677e-04
1.10000000e-01	1.99136462e-02	4.48398911e-04
1.10500000e-01	1.95287180e-02	4.31029877e-04
1.11000000e-01	1.99045696e-02	4.31030786e-04
1.11500000e-01	1.96309419e-02	4.22541682e-04
1.12000000e-01	1.97907961e-02	4.24992170e-04
1.12500000e-01	1.98051021e-02	4.20482995e-04
1.13000000e-01	1.98089846e-02	4.19352022e-04
1.13500000e-01	1.94997762e-02	4.11039139e-04
1.14000000e-01	2.01179358e-02	4.23147835e-04
1.14500000e-01	1.95926655e-02	4.11318893e-04
1.15000000e-01	1.97712760e-02	4.12203989e-04
1.15500000e-01	1.94355176e-02	4.06965623e-04
1.16000000e-01	1.95404106e-02	4.06715354e-04
1.16500000e-01	1.97147929e-02	4.08481985e-04
1.17000000e-01	1.92640609e-02	3.98309536e-04
1.17500000e-01	1.96631719e-02	4.04547191e-04
1.18000000e-01	1.97289952e-02	4.07313398e-04
1.18500000e-01	1.94982465e-02	3.98427974e-04
1.19000000e-01	1.96900774e-02	4.03827231e-04
1.19500000e-01	1.97547613e-02	4.03418297e-04
1.20000000e-01	1.98101786e-02	4.04234480e-04
1.20500000e-01	1.94838386e-02	3.99060989e-04
1.21000000e-01	1.94970712e-02	3.96260287e-04
1.21500000e-01	1.98488641e-02	3.99992862e-04
1.22000000e-01	1.96974788e-02	3.97744476e-04
1.22500000e-01	1.95274724e-02	3.93137022e-04
1.23000000e-01	1.94803253e-02	3.92228568e-04
1.23500000e-01	1.95888569e-02	3.92157009e-04
1.24000000e-01	1.97370629e-02	3.97366171e-04
1.24500000e-01	1.97977938e-02	3.94267310e-04
1.25000000e-01	1.93534558e-02	3.87300807e-04
1.25500000e-01	1.96979364e-02	3.92108492e-04
1.26000000e-01	1.96547413e-02	3.90936088e-04
1.26500000e-01	1.94505153e-02	3.86847965e-04
1.27000000e-01	1.95196329e-02	3.85599095e-04
1.27500000e-01	1.98395233e-02	3.92035761e-04
1.28000000e-01	1.97780537e-02	3.90797240e-04
1.28500000e-01	1.95904689e-02	3.83162449e-04
1.29000000e-01	1.94983240e-02	3.83839629e-04
1.29500000e-01	1.96432656e-02	3.83873941e-04
1.30000000e-01	1.95259605e-02	3.82445001e-04
1.30500000e-01	1.96143586e-02	3.83349157e-04
1.31000000e-01	1.96639238e-02	3.81921508e-04
1.31500000e-01	1.94606477e-02	3.79827210e-04
1.32000000e-01	1.93527677e-02	3.75732439e-04
1.32500000e-01	1.93715272e-02	3.73810526e-04
1.33000000e-01	1.95031187e-02	3.78503998e-04
1.33500000e-01	1.93638433e-02	3.69405423e-04
1.34000000e-01	1.94638738e-02	3.74266428e-04
1.34500000e-01	1.96625155e-02	3.74902928e-04
1.35000000e-01	1.97857953e-02	3.76566156e-04
1.35500000e-01	1.96701334e-02	3.73746196e-04
1.36000000e-01	1.93821833e-02	3.66421506e-04
1.36500000e-01	1.97893941e-02	3.75861286e-04
1.37000000e-01	1.95992559e-02	3.71835636e-04
1.37500000e-01	1.97417216e-02	3.73558250e-04
1.38000000e-01	1.96321010e-02	3.69887554e-04
1.38500000e-01	1.92985123e-02	3.62849509e-04
1.39000000e-01	1.94798668e-02	3.67449522e-04
1.39500000e-01	1.93079720e-02	3.64112690e-04
1.40000000e-01	1.94351022e-02	3.67090021e-04
1.40500000e-01	1.97236582e-02	3.71882732e-04
1.41000000e-01	1.96478142e-02	3.68076608e-04
1.41500000e-01	1.96653673e-02	3.70196360e-04
1.42000000e-01	1.95128376e-02	3.63774449e-04
1.42500000e-01	1.93946318e-02	3.62114990e-04
1.43000000e-01	1.94227086e-02	3.62611505e-04
1.43500000e-01	1.96459309e-02	3.67154642e-04
1.44000000e-01	1.96765617e-02	3.64546208e-04
1.44500000e-01	1.96695727e-02	3.63855973e-04
1.45000000e-01	1.93651312e-02	3.59870993e-04
1.45500000e-01	1.96743615e-02	3.63785595e-04
1.46000000e-01	1.92015781e-02	3.55199786e-04
1.46500000e-01	1.94506935e-02	3.57522555e-04
1.47000000e-01	1.90523068e-02	3.49112526e-04
1.47500000e-01	1.93089437e-02	3.54367299e-04
1.48000000e-01	1.93048632e-02	3.54316331e-04
1.48500000e-01	1.90965311e-02	3.51749425e-04
1.49000000e-01	1.92700856e-02	3.51881547e-04
1.49500000e-01	1.95485934e-02	3.57490552e-04
1.50000000e-01	1.95364561e-02	3.56947583e-04
1.50500000e-01	1.95802864e-02	3.56068110e-04
1.51000000e-01	1.93713172e-02	3.51140322e-04
1.51500000e-01	1.92305645e-02	3.48744719e-04
1.52000000e-01	1.94925922e-02	3.50831006e-04
1.52500000e-01	1.95710201e-02	3.53084902e-04
1.53000000e-01	1.91213277e-02	3.44764149e-04
1.53500000e-01	1.92434753e-02	3.47133643e-04
1.54000000e-01	1.94013541e-02	3.47762817e-04
1.54500000e-01	1.93661502e-02	3.55847019e-04
1.55000000e-01	1.92908824e-02	3.57566131e-04
1.55500000e-01	1.92632392e-02	3.58586041e-04
1.56000000e-01	1.93617724e-02	3.61455015e-04
1.56500000e-01	1.92821360e-02	3.60876672e-04
1.57000000e-01	1.91794868e-02	3.59619034e-04
1.57500000e-01	1.94279348e-02	3.57986934e-04
1.58000000e-01	1.93006798e-02	3.48701159e-04
1.58500000e-01	1.93048205e-02	3.47908896e-04
1.59000000e-01	1.90856532e-02	3.42794970e-04
1.59500000e-01	1.93715443e-02	3.48478472e-04
1.60000000e-01	1.91731742e-02	3.43552968e-04
1.60500000e-01	1.92833697e-02	3.42812398e-04
1.61000000e-01	1.91566719e-02	3.41366050e-04
1.61500000e-01	1.89738645e-02	3.36024225e-04
1.62000000e-01	1.93559273e-02	3.42293875e-04
1.62500000e-01	1.87198249e-02	3.33324701e-04
1.63000000e-01	1.91552415e-02	3.36982152e-04
1.63500000e-01	1.90793534e-02	3.37206987e-04
1.64000000e-01	1.91292534e-02	3.35292174e-04
1.64500000e-01	1.90342254e-02	3.34791876e-04
1.65000000e-01	1.89993456e-02	3.33048194e-04
1.65500000e-01	1.87713229e-02	3.28072786e-04
1.66000000e-01	1.88583720e-02	3.29708215e-04
1.66500000e-01	1.90155235e-02	3.31782207e-04
1.67000000e-01	1.89184416e-02	3.30537637e-04
1.67500000e-01	1.91740230e-02	3.33012379e-04
1.68000000e-01	1.90015451e-02	3.30099753e-04
1.68500000e-01	1.90061875e-02	3.28356332e-04
1.69000000e-01	1.87993123e-02	3.27282494e-04
1.69500000e-01	1.86888283e-02	3.23558126e-04
1.70000000e-01	1.87706711e-02	3.25217395e-04
1.70500000e-01	1.89410327e-02	3.25079102e-04
1.71000000e-01	1.87188893e-02	3.21953330e-04
1.71500000e-01	1.89947214e-02	3.26798634e-04
1.72000000e-01	1.89477270e-02	3.25870662e-04
1.72500000e-01	1.87809240e-02	3.21343028e-04
1.73000000e-01	1.88009686e-02	3.22099338e-04
1.73500000e-01	1.86834626e-02	3.17383633e-04
1.74000000e-01	1.88243351e-02	3.19563623e-04
1.74500000e-01	1.86853614e-02	3.16310582e-04
1.75000000e-01	1.90589664e-02	3.20530071e-04
1.75500000e-01	1.88117363e-02	3.16586051e-04
1.76000000e-01	1.86339895e-02	3.13836773e-04
1.76500000e-01	1.86762255e-02	3.14225182e-04
1.77000000e-01	1.87073223e-02	3.15064469e-04
1.77500000e-01	1.87376368e-02	3.15518768e-04
1.78000000e-01	1.86043478e-02	3.13066176e-04
1.78500000e-01	1.87087210e-02	3.13775280e-04
1.79000000e-01	1.85675786e-02	3.12998586e-04
1.79500000e-01	1.90057698e-02	3.17883742e-04
1.80000000e-01	1.88002238e-02	3.16521896e-04
1.80500000e-01	1.85905609e-02	3.11411306e-04
1.81000000e-01	1.86599233e-02	3.12152975e-04
1.81500000e-01	1.85914704e-02	3.08421953e-04
1.82000000e-01	1.86704405e-02	3.11470375e-04
1.82500000e-01	1.88786790e-02	3.13893936e-04
1.83000000e-01	1.86218436e-02	3.09818501e-04
1.83500000e-01	1.85475863e-02	3.07979656e-04
1.84000000e-01	1.89709690e-02	3.13739895e-04
1.84500000e-01	1.85187420e-02	3.06613915e-04
1.85000000e-01	1.84635519e-02	3.06187290e-04
1.85500000e-01	1.83915367e-02	3.04076807e-04
1.86000000e-01	1.85730283e-02	3.07071332e-04
1.86500000e-01	1.86065840e-02	3.07411725e-04
1.87000000e-01	1.85340637e-02	3.05572074e-04
1.87500000e-01	1.86450728e-02	3.06770688e-04
1.88000000e-01	1.83263253e-02	3.01637240e-04
1.88500000e-01	1.84300153e-02	3.01235606e-04
1.89000000e-01	1.85511882e-02	3.03385199e-04
1.89500000e-01	1.84519665e-02	3.01804024e-04
1.90000000e-01	1.86490361e-02	3.04267798e-04
1.90500000e-01	1.85323004e-02	3.02112118e-04
1.91000000e-01	1.83676956e-02	3.00148068e-04
1.91500000e-01	1.85847159e-02	3.01935031e-04
1.92000000e-01	1.87120743e-02	3.03702733e-04
1.92500000e-01	1.85055496e-02	3.00204660e-04
1.93000000e-01	1.82321692e-02	2.95228164e-04
1.93500000e-01	1.82984360e-02	2.96894656e-04
1.94000000e-01	1.85391238e-02	3.00091185e-04
1.94500000e-01	1.84287282e-02	2.97398486e-04
1.95000000e-01	1.83397016e-02	2.96737791e-04
1.95500000e-01	1.83284116e-02	2.94421828e-04
1.96000000e-01	1.83606578e-02	2.96718046e-04
1.96500000e-01	1.81888574e-02	2.93418063e-04
1.97000000e-01	1.82890068e-02	2.94727346e-04
1.97500000e-01	1.83062336e-02	2.94599098e-04
1.98000000e-01	1.81759614e-02	2.92045332e-04
1.98500000e-01	1.80064409e-02	2.87940070e-04
1.99000000e-01	1.82565509e-02	2.92356534e-04
1.99500000e-01	1.84984968e-02	2.94601588e-04
2.00000000e-01	1.84780858e-02	2.94897149e-04
2.00500000e-01	1.85372049e-02	2.95252952e-04
2.01000000e-01	1.83748724e-02	2.92027698e-04
2.01500000e-01	1.83109016e-02	2.91205036e-04
2.02000000e-01	1.83623295e-02	2.90429508e-04
2.02500000e-01	1.81433841e-02	2.86952908e-04
2.03000000e-01	1.81755718e-02	2.87770547e-04
2.03500000e-01	1.83188140e-02	2.89792597e-04
2.04000000e-01	1.82624211e-02	2.88787419e-04
2.04500000e-01	1.81512315e-02	2.86132422e-04
2.05000000e-01	1.81723032e-02	2.86172467e-04
2.05500000e-01	1.84373109e-02	2.90415894e-04
2.06000000e-01	1.80424147e-02	2.83685265e-04
2.06500000e-01	1.83221979e-02	2.88250502e-04
2.07000000e-01	1.82226247e-02	2.84780916e-04
2.07500000e-01	1.82993212e-02	2.86845072e-04
2.08000000e-01	1.82593947e-02	2.87432380e-04
2.08500000e-01	1.81666261e-02	2.83175724e-04
2.09000000e-01	1.78332335e-02	2.80300738e-04
2.09500000e-01	1.80743002e-02	2.82112527e-04
2.10000000e-01	1.83193802e-02	2.84217775e-04
2.10500000e-01	1.80536366e-02	2.81157005e-04
2.11000000e-01	1.81600690e-02	2.81713037e-04
2.11500000e-01	1.81317303e-02	2.81833272e-04
2.12000000e-01	1.81180504e-02	2.80153210e-04
2.12500000e-01	1.80742718e-02	2.79762676e-04
2.13000000e-01	1.80405676e-02	2.79637320e-04
2.13500000e-01	1.80819619e-02	2.80869928e-04
2.14000000e-01	1.79790216e-02	2.78165378e-04
2.14500000e-01	1.80325500e-02	2.78598773e-04
2.15000000e-01	1.80759419e-02	2.78736386e-04
2.15500000e-01	1.78794582e-02	2.74787583e-04
2.16000000e-01	1.79534255e-02	2.76017879e-04
2.16500000e-01	1.80869766e-02	2.76811060e-04
2.17000000e-01	1.78524122e-02	2.77973899e-04
2.17500000e-01	1.81615812e-02	2.86920893e-04
2.18000000e-01	1.81564677e-02	2.86993418e-04
2.18500000e-01	1.80909863e-02	2.87311138e-04
2.19000000e-01	1.79421216e-02	2.87371248e-04
2.19500000e-01	1.81461928e-02	2.90503797e-04
2.20000000e-01	1.78517843e-02	2.88800048e-04
2.20500000e-01	1.80408232e-02	2.91960418e-04
2.21000000e-01	1.80476130e-02	2.92259116e-04
2.21500000e-01	1.79923179e-02	2.92861455e-04
2.22000000e-01	1.77363559e-02	2.89184021e-04
2.22500000e-01	1.78343558e-02	2.92902076e-04
2.23000000e-01	1.77003905e-02	2.90864981e-04
2.23500000e-01	1.78865007e-02	2.93543265e-04
2.24000000e-01	1.80957706e-02	2.97680388e-04
2.24500000e-01	1.79070889e-02	2.95545440e-04
2.25000000e-01	1.79682885e-02	2.97587968e-04
2.25500000e-01	1.79333498e-02	2.98313993e-04
2.26000000e-01	1.77332948e-02	2.94536558e-04
2.26500000e-01	1.79350066e-02	2.92474229e-04
2.27000000e-01	1.78725692e-02	2.89598259e-04
2.27500000e-01	1.77164979e-02	2.84228220e-04
2.28000000e-01	1.78545503e-02	2.85391439e-04
2.28500000e-01	1.81731692e-02	2.88235437e-04
2.29000000e-01	1.78422090e-02	2.82097063e-04
2.29500000e-01	1.79788447e-02	2.83379141e-04
2.30000000e-01	1.77757330e-02	2.80706508e-04
2.30500000e-01	1.78382473e-02	2.78859338e-04
2.31000000e-01	1.78946081e-02	2.80205272e-04
2.31500000e-01	1.76853671e-02	2.75234122e-04
2.32000000e-01	1.78661103e-02	2.77841064e-04
2.32500000e-01	1.78598774e-02	2.77463898e-04
2.33000000e-01	1.78121145e-02	2.76430746e-04
2.33500000e-01	1.77518794e-02	2.75013526e-04
2.34000000e-01	1.77443619e-02	2.73498824e-04
2.34500000e-01	1.75796873e-02	2.71745626e-04
2.35000000e-01	1.79182504e-02	2.75618381e-04
2.35500000e-01	1.77194177e-02	2.71740593e-04
2.36000000e-01	1.78694930e-02	2.74069022e-04
2.36500000e-01	1.76665502e-02	2.70772949e-04
2.37000000e-01	1.78137051e-02	2.71970138e-04
2.37500000e-01	1.75546388e-02	2.68731066e-04
2.38000000e-01	1.76450910e-02	2.68523754e-04
2.38500000e-01	1.75512184e-02	2.67726946e-04
2.39000000e-01	1.76278236e-02	2.66791792e-04
2.39500000e-01	1.79728963e-02	2.71608699e-04
2.40000000e-01	1.78995212e-02	2.70611025e-04
2.40500000e-01	1.74787384e-02	2.63787654e-04
2.41000000e-01	1.77317867e-02	2.66379063e-04
2.41500000e-01	1.76630186e-02	2.65118061e-04
2.42000000e-01	1.76363043e-02	2.64937767e-04
2.42500000e-01	1.76127387e-02	2.65104385e-04
2.43000000e-01	1.77252460e-02	2.64061891e-04
2.43500000e-01	1.77257843e-02	2.63792749e-04
2.44000000e-01	1.76668246e-02	2.63018383e-04
2.44500000e-01	1.76483964e-02	2.63093184e-04
2.45000000e-01	1.77782147e-02	2.63435012e-04
2.45500000e-01	1.76488650e-02	2.61368428e-04
2.46000000e-01	1.76879617e-02	2.63115177e-04
2.46500000e-01	1.75908635e-02	2.61010792e-04
2.47000000e-01	1.74475247e-02	2.58981109e-04
2.47500000e-01	1.74672164e-02	2.56560621e-04
2.48000000e-01	1.72932976e-02	2.55576428e-04
2.48500000e-01	1.73948330e-02	2.56433191e-04
2.49000000e-01	1.72322499e-02	2.54296704e-04
2.49500000e-01	1.72904865e-02	2.55537017e-04
2.50000000e-01	1.74275676e-02	2.56202550e-04
2.50500000e-01	1.75435209e-02	2.59691412e-04
2.51000000e-01	1.72468175e-02	2.53108686e-04
2.51500000e-01	1.72748010e-02	2.53404402e-04
2.52000000e-01	1.75643824e-02	2.57213566e-04
2.52500000e-01	1.74293894e-02	2.54593571e-04
2.53000000e-01	1.75680776e-02	2.56870648e-04
2.53500000e-01	1.70964589e-02	2.50111577e-04
2.54000000e-01	1.76558190e-02	2.57366539e-04
2.54500000e-01	1.75714410e-02	2.56375799e-04
2.55000000e-01	1.73884709e-02	2.53006159e-04
2.55500000e-01	1.73519188e-02	2.53379342e-04
2.56000000e-01	1.74071927e-02	2.52977336e-04
2.56500000e-01	1.73025467e-02	2.51362285e-04
2.57000000e-01	1.72876622e-02	2.50904637e-04
2.57500000e-01	1.73879888e-02	2.52028889e-04
2.58000000e-01	1.72111164e-02	2.49933927e-04
2.58500000e-01	1.73553168e-02	2.51445821e-04
2.59000000e-01	1.72769923e-02	2.49296592e-04
2.59500000e-01	1.72040810e-02	2.48133365e-04
2.60000000e-01	1.72127208e-02	2.49012718e-04
2.60500000e-01	1.72913106e-02	2.49321509e-04
2.61000000e-01	1.72698268e-02	2.48526516e-04
2.61500000e-01	1.72482862e-02	2.48620540e-04
2.62000000e-01	1.72352271e-02	2.47589758e-04
2.62500000e-01	1.70815415e-02	2.45524137e-04
2.63000000e-01	1.71606758e-02	2.46122513e-04
2.63500000e-01	1.73763340e-02	2.47169592e-04
2.64000000e-01	1.72747802e-02	2.47283890e-04
2.64500000e-01	1.72046427e-02	2.46133454e-04
2.65000000e-01	1.73111665e-02	2.46975418e-04
2.65500000e-01	1.74492466e-02	2.48011468e-04
2.66000000e-01	1.73362254e-02	2.46021601e-04
2.66500000e-01	1.71062765e-02	2.43661288e-04
2.67000000e-01	1.71225619e-02	2.42426806e-04
2.67500000e-01	1.72349702e-02	2.44426468e-04
2.68000000e-01	1.71410232e-02	2.42924847e-04
2.68500000e-01	1.72262087e-02	2.43548067e-04
2.69000000e-01	1.69072521e-02	2.39107171e-04
2.69500000e-01	1.71705119e-02	2.42107182e-04
2.70000000e-01	1.72762634e-02	2.42765508e-04
2.70500000e-01	1.71138852e-02	2.41341450e-04
2.71000000e-01	1.74027560e-02	2.44699738e-04
2.71500000e-01	1.70112465e-02	2.39017772e-04
2.72000000e-01	1.71289264e-02	2.39726944e-04
2.72500000e-01	1.69405549e-02	2.38127656e-04
2.73000000e-01	1.72857521e-02	2.41226047e-04
2.73500000e-01	1.70160157e-02	2.38204201e-04
2.74000000e-01	1.69931879e-02	2.37672184e-04
2.74500000e-01	1.69801278e-02	2.37128254e-04
2.75000000e-01	1.71384970e-02	2.38936064e-04
2.75500000e-01	1.71126150e-02	2.38429185e-04
2.76000000e-01	1.71605763e-02	2.38949950e-04
2.76500000e-01	1.71487645e-02	2.38840150e-04
2.77000000e-01	1.70239831e-02	2.37408069e-04
2.77500000e-01	1.70824980e-02	2.37367037e-04
2.78000000e-01	1.68613883e-02	2.35241098e-04
2.78500000e-01	1.70144896e-02	2.36156944e-04
2.79000000e-01	1.70965408e-02	2.37133977e-04
2.79500000e-01	1.70948279e-02	2.36580821e-04
2.80000000e-01	1.70545220e-02	2.36241722e-04
2.80500000e-01	1.70767662e-02	2.36183633e-04
2.81000000e-01	1.69774177e-02	2.34021814e-04
2.81500000e-01	1.70160799e-02	2.34755751e-04
2.82000000e-01	1.70532056e-02	2.34880531e-04
2.82500000e-01	1.67906511e-02	2.32614637e-04
2.83000000e-01	1.69653522e-02	2.33559774e-04
2.83500000e-01	1.70128280e-02	2.34008049e-04
2.84000000e-01	1.68907058e-02	2.31570829e-04
2.84500000e-01	1.70454157e-02	2.34574874e-04
2.85000000e-01	1.70083125e-02	2.33660234e-04
2.85500000e-01	1.71974726e-02	2.35283162e-04
2.86000000e-01	1.68142508e-02	2.31266804e-04
2.86500000e-01	1.70481418e-02	2.32376396e-04
2.87000000e-01	1.69209579e-02	2.32195921e-04
2.87500000e-01	1.68829149e-02	2.29458595e-04
2.88000000e-01	1.67869550e-02	2.28078141e-04
2.88500000e-01	1.66893695e-02	2.28666061e-04
2.89000000e-01	1.68271791e-02	2.28647707e-04
2.89500000e-01	1.68703041e-02	2.29637005e-04
2.90000000e-01	1.69268680e-02	2.29788248e-04
2.90500000e-01	1.69088651e-02	2.30102706e-04
2.91000000e-01	1.67831966e-02	2.27228496e-04
2.91500000e-01	1.70644078e-02	2.31116898e-04
2.92000000e-01	1.67543153e-02	2.26902866e-04
2.92500000e-01	1.69388499e-02	2.29134459e-04
2.93000000e-01	1.68987261e-02	2.28239592e-04
2.93500000e-01	1.67310458e-02	2.26335239e-04
2.94000000e-01	1.68109178e-02	2.26334097e-04
2.94500000e-01	1.67601130e-02	2.26601653e-04
2.95000000e-01	1.68471387e-02	2.27004693e-04
2.95500000e-01	1.68103051e-02	2.26428093e-04
2.96000000e-01	1.70427567e-02	2.28761888e-04
2.96500000e-01	1.68427635e-02	2.26176025e-04
2.97000000e-01	1.67923985e-02	2.25441849e-04
2.97500000e-01	1.69054634e-02	2.26135599e-04
2.98000000e-01	1.68727212e-02	2.25765356e-04
2.98500000e-01	1.68041430e-02	2.25888686e-04
2.99000000e-01	1.69443286e-02	2.26529870e-04
2.99500000e-01	1.67361303e-02	2.24186283e-04
3.00000000e-01	1.66670962e-02	2.23394758e-04
3.00500000e-01	1.67527649e-02	2.23675447e-04
3.01000000e-01	1.67453559e-02	2.22868966e-04
3.01500000e-01	1.66492407e-02	2.23137683e-04
3.02000000e-01	1.68206354e-02	2.24235352e-04
3.02500000e-01	1.68245643e-02	2.23278365e-04
3.03000000e-01	1.67346991e-02	2.22660710e-04
3.03500000e-01	1.67898656e-02	2.22075541e-04
3.04000000e-01	1.66581883e-02	2.21655241e-04
3.04500000e-01	1.65401003e-02	2.19394063e-04
3.05000000e-01	1.65718430e-02	2.20237857e-04
3.05500000e-01	1.68102348e-02	2.22245982e-04
3.06000000e-01	1.67340346e-02	2.20002605e-04
3.06500000e-01	1.67110036e-02	2.20954196e-04
3.07000000e-01	1.67617891e-02	2.21068406e-04
3.07500000e-01	1.65778218e-02	2.19220390e-04
3.08000000e-01	1.65561735e-02	2.18092424e-04
3.08500000e-01	1.67936493e-02	2.20987544e-04
3.09000000e-01	1.67388823e-02	2.20075357e-04
3.09500000e-01	1.66144314e-02	2.18657746e-04
3.10000000e-01	1.66327519e-02	2.18398641e-04
3.10500000e-01	1.66577153e-02	2.19076093e-04
3.11000000e-01	1.66289500e-02	2.18161660e-04
3.11500000e-01	1.66190156e-02	2.18245040e-04
3.12000000e-01	1.65493473e-02	2.16802834e-04
3.12500000e-01	1.65906298e-02	2.17597078e-04
3.13000000e-01	1.67647596e-02	2.18064412e-04
3.13500000e-01	1.63170449e-02	2.13893515e-04
3.14000000e-01	1.67194632e-02	2.17819157e-04
3.14500000e-01	1.66074858e-02	2.16654195e-04
3.15000000e-01	1.63587899e-02	2.14065068e-04
3.15500000e-01	1.66042201e-02	2.16498922e-04
3.16000000e-01	1.65635220e-02	2.15682379e-04
3.16500000e-01	1.65549558e-02	2.14843769e-04
3.17000000e-01	1.65266611e-02	2.15117064e-04
3.17500000e-01	1.64300467e-02	2.12941261e-04
3.18000000e-01	1.61432419e-02	2.09524790e-04
3.18500000e-01	1.64135631e-02	2.13283208e-04
3.19000000e-01	1.64514175e-02	2.12728088e-04
3.19500000e-01	1.65220086e-02	2.13970669e-04
3.20000000e-01	1.64170090e-02	2.12402465e-04
3.20500000e-01	1.62471446e-02	2.09796064e-04
3.21000000e-01	1.60909474e-02	2.08887404e-04
3.21500000e-01	1.63697702e-02	2.11793537e-04
3.22000000e-01	1.63907062e-02	2.11463169e-04
3.22500000e-01	1.62880137e-02	2.09706541e-04
3.23000000e-01	1.64301006e-02	2.11083126e-04
3.23500000e-01	1.63224649e-02	2.10827301e-04
3.24000000e-01	1.62169837e-02	2.08934729e-04
3.24500000e-01	1.63271767e-02	2.10575479e-04
3.25000000e-01	1.62007910e-02	2.07712328e-04
3.25500000e-01	1.62647469e-02	2.09058347e-04
3.26000000e-01	1.61991264e-02	2.07928440e-04
3.26500000e-01	1.61404233e-02	2.07143832e-04
3.27000000e-01	1.62295790e-02	2.07896346e-04
3.27500000e-01	1.62607952e-02	2.08867417e-04
3.28000000e-01	1.62192577e-02	2.07417973e-04
3.28500000e-01	1.61679313e-02	2.06427246e-04
3.29000000e-01	1.60109113e-02	2.04892021e-04
3.29500000e-01	1.60769269e-02	2.05673292e-04
3.30000000e-01	1.62494620e-02	2.07043754e-04
3.30500000e-01	1.61967599e-02	2.06851875e-04
3.31000000e-01	1.62109195e-02	2.05812424e-04
3.31500000e-01	1.60988034e-02	2.05006001e-04
3.32000000e-01	1.61850118e-02	2.07073442e-04
3.32500000e-01	1.62960290e-02	2.07029298e-04
3.33000000e-01	1.61513295e-02	2.05462452e-04
3.33500000e-01	1.61804206e-02	2.05167277e-04
3.34000000e-01	1.63806341e-02	2.07430512e-04
3.34500000e-01	1.60846724e-02	2.03987767e-04
3.35000000e-01	1.62445672e-02	2.05402132e-04
3.35500000e-01	1.62487492e-02	2.06050802e-04
3.36000000e-01	1.61585444e-02	2.03742424e-04
3.36500000e-01	1.62389983e-02	2.04620723e-04
3.37000000e-01	1.61060319e-02	2.03207011e-04
3.37500000e-01	1.59845085e-02	2.01984162e-04
3.38000000e-01	1.59860259e-02	2.01453176e-04
3.38500000e-01	1.60510278e-02	2.02485806e-04
3.39000000e-01	1.59356953e-02	2.01387067e-04
3.39500000e-01	1.59983850e-02	2.00995075e-04
3.40000000e-01	1.61147282e-02	2.03005300e-04
3.40500000e-01	1.59899416e-02	2.00998369e-04
3.41000000e-01	1.60914222e-02	2.01748321e-04
3.41500000e-01	1.60464325e-02	2.01962011e-04
3.42000000e-01	1.58177980e-02	1.97841020e-04
3.42500000e-01	1.59490912e-02	1.99948255e-04
3.43000000e-01	1.59096317e-02	1.98963202e-04
3.43500000e-01	1.60088623e-02	1.99842508e-04
3.44000000e-01	1.59879546e-02	2.00389180e-04
3.44500000e-01	1.58026535e-02	1.98352722e-04
3.45000000e-01	1.59592564e-02	1.99115022e-04
3.45500000e-01	1.59180164e-02	1.98253672e-04
3.46000000e-01	1.57123386e-02	1.96404361e-04
3.46500000e-01	1.58279376e-02	1.97872216e-04
3.47000000e-01	1.58668387e-02	1.97872982e-04
3.47500000e-01	1.59549850e-02	1.98844355e-04
3.48000000e-01	1.59384155e-02	1.98401076e-04
3.48500000e-01	1.59885474e-02	1.98448705e-04
3.49000000e-01	1.60571206e-02	1.99032440e-04
3.49500000e-01	1.58122461e-02	1.95925476e-04
3.50000000e-01	1.59467378e-02	1.61367354e-04
3.51000000e-01	1.57332443e-02	1.37940982e-04
3.52000000e-01	1.58829638e-02	1.39239986e-04
3.53000000e-01	1.57931206e-02	1.37544220e-04
3.54000000e-01	1.57368029e-02	1.37282213e-04
3.55000000e-01	1.58103919e-02	1.38047129e-04
3.56000000e-01	1.58108150e-02	1.38366223e-04
3.57000000e-01	1.56862831e-02	1.39674865e-04
3.58000000e-01	1.57032856e-02	1.40774038e-04
3.59000000e-01	1.57933186e-02	1.43217764e-04
3.60000000e-01	1.56303848e-02	1.42376040e-04
3.61000000e-01	1.55630366e-02	1.42384246e-04
3.62000000e-01	1.56430807e-02	1.43701326e-04
3.63000000e-01	1.56479953e-02	1.44118464e-04
3.64000000e-01	1.55432163e-02	1.43864517e-04
3.65000000e-01	1.56961669e-02	1.45718717e-04
3.66000000e-01	1.55689399e-02	1.43097229e-04
3.67000000e-01	1.55678520e-02	1.40928893e-04
3.68000000e-01	1.54879884e-02	1.39134671e-04
3.69000000e-01	1.54992244e-02	1.38680062e-04
3.70000000e-01	1.55312583e-02	1.38235059e-04
3.71000000e-01	1.56279089e-02	1.40411863e-04
3.72000000e-01	1.55369350e-02	1.40998620e-04
3.73000000e-01	1.55501385e-02	1.41240151e-04
3.74000000e-01	1.55891219e-02	1.41628258e-04
3.75000000e-01	1.55449700e-02	1.41505890e-04
3.76000000e-01	1.54852132e-02	1.41326924e-04
3.77000000e-01	1.54162958e-02	1.40509559e-04
3.78000000e-01	1.54919423e-02	1.41151229e-04
3.79000000e-01	1.53875390e-02	1.40159683e-04
3.80000000e-01	1.53374067e-02	1.39733432e-04
3.81000000e-01	1.54333713e-02	1.40541990e-04
3.82000000e-01	1.53703291e-02	1.39330966e-04
3.83000000e-01	1.54362707e-02	1.40281815e-04
3.84000000e-01	1.54609777e-02	1.40353786e-04
3.85000000e-01	1.53656839e-02	1.39650800e-04
3.86000000e-01	1.54013876e-02	1.40117430e-04
3.87000000e-01	1.52939379e-02	1.39230374e-04
3.88000000e-01	1.53240517e-02	1.38945798e-04
3.89000000e-01	1.53186130e-02	1.38947303e-04
3.90000000e-01	1.52620816e-02	1.38374398e-04
3.91000000e-01	1.52790759e-02	1.38336898e-04
3.92000000e-01	1.53146626e-02	1.38715499e-04
3.93000000e-01	1.53573336e-02	1.39143684e-04
3.94000000e-01	1.51700999e-02	1.37541199e-04
3.95000000e-01	1.52490974e-02	1.37875715e-04
3.96000000e-01	1.51302233e-02	1.37322634e-04
3.97000000e-01	1.52982936e-02	1.38590404e-04
3.98000000e-01	1.51357992e-02	1.37071056e-04
3.99000000e-01	1.52397693e-02	1.38042235e-04
4.00000000e-01	1.51913341e-02	1.37836106e-04
4.01000000e-01	1.51999933e-02	1.37505497e-04
4.02000000e-01	1.51293423e-02	1.37056209e-04
4.03000000e-01	1.50756187e-02	1.36298279e-04
4.04000000e-01	1.50738300e-02	1.36306246e-04
4.05000000e-01	1.51433266e-02	1.36980704e-04
4.06000000e-01	1.51236494e-02	1.36931758e-04
4.07000000e-01	1.51035749e-02	1.36725338e-04
4.08000000e-01	1.50131442e-02	1.36036317e-04
4.09000000e-01	1.50074133e-02	1.35563435e-04
4.10000000e-01	1.50065914e-02	1.35500311e-04
4.11000000e-01	1.50496582e-02	1.36045091e-04
4.12000000e-01	1.50681673e-02	1.36364999e-04
4.13000000e-01	1.49294427e-02	1.34971419e-04
4.14000000e-01	1.48941364e-02	1.34492757e-04
4.15000000e-01	1.49455162e-02	1.34954571e-04
4.16000000e-01	1.50298537e-02	1.35738867e-04
4.17000000e-01	1.48937608e-02	1.34183079e-04
4.18000000e-01	1.50331775e-02	1.36964006e-04
4.19000000e-01	1.49846686e-02	1.38666559e-04
4.20000000e-01	1.48286001e-02	1.37702440e-04
4.21000000e-01	1.50357507e-02	1.40007494e-04
4.22000000e-01	1.50202276e-02	1.40425260e-04
4.23000000e-01	1.49889511e-02	1.40860625e-04
4.24000000e-01	1.50240759e-02	1.40700710e-04
4.25000000e-01	1.49533750e-02	1.40820656e-04
4.26000000e-01	1.50485261e-02	1.41614405e-04
4.27000000e-01	1.50433068e-02	1.41541650e-04
4.28000000e-01	1.49623037e-02	1.41133407e-04
4.29000000e-01	1.50997798e-02	1.43229846e-04
4.30000000e-01	1.49699754e-02	1.41232998e-04
4.31000000e-01	1.50240746e-02	1.41537756e-04
4.32000000e-01	1.49509074e-02	1.41472250e-04
4.33000000e-01	1.49469140e-02	1.41410219e-04
4.34000000e-01	1.48886892e-02	1.41016634e-04
4.35000000e-01	1.48025142e-02	1.40543860e-04
4.36000000e-01	1.48233929e-02	1.40843705e-04
4.37000000e-01	1.49022046e-02	1.41683862e-04
4.38000000e-01	1.46844778e-02	1.40158275e-04
4.39000000e-01	1.48037495e-02	1.41348991e-04
4.40000000e-01	1.47057453e-02	1.40193791e-04
4.41000000e-01	1.47482755e-02	1.40792531e-04
4.42000000e-01	1.48156004e-02	1.41804779e-04
4.43000000e-01	1.48435256e-02	1.42153408e-04
4.44000000e-01	1.48246863e-02	1.42347853e-04
4.45000000e-01	1.45991485e-02	1.39999126e-04
4.46000000e-01	1.46891127e-02	1.41147055e-04
4.47000000e-01	1.46095093e-02	1.41119249e-04
4.48000000e-01	1.45783963e-02	1.40857908e-04
4.49000000e-01	1.47142493e-02	1.41734147e-04
4.50000000e-01	1.47367600e-02	1.42252804e-04
4.51000000e-01	1.47807344e-02	1.42280123e-04
4.52000000e-01	1.46270364e-02	1.41527046e-04
4.53000000e-01	1.47805472e-02	1.43142708e-04
4.54000000e-01	1.45625389e-02	1.40884086e-04
4.55000000e-01	1.47149228e-02	1.42826086e-04
4.56000000e-01	1.46256049e-02	1.41965510e-04
4.57000000e-01	1.46277969e-02	1.42052385e-04
4.58000000e-01	1.46984697e-02	1.42693272e-04
4.59000000e-01	1.46280333e-02	1.42767187e-04
4.60000000e-01	1.46749844e-02	1.43201037e-04
4.61000000e-01	1.46102645e-02	1.42487377e-04
4.62000000e-01	1.45449024e-02	1.41824953e-04
4.63000000e-01	1.47046590e-02	1.43565282e-04
4.64000000e-01	1.47296491e-02	1.43917148e-04
4.65000000e-01	1.45794308e-02	1.42824413e-04
4.66000000e-01	1.44658555e-02	1.41868136e-04
4.67000000e-01	1.44816611e-02	1.41661542e-04
4.68000000e-01	1.45739351e-02	1.42974789e-04
4.69000000e-01	1.45396406e-02	1.42527894e-04
4.70000000e-01	1.44596411e-02	1.42032815e-04
4.71000000e-01	1.45179414e-02	1.42697510e-04
4.72000000e-01	1.43217817e-02	1.40631092e-04
4.73000000e-01	1.45402702e-02	1.42840327e-04
4.74000000e-01	1.44346890e-02	1.41617773e-04
4.75000000e-01	1.44007645e-02	1.41237296e-04
4.76000000e-01	1.44628087e-02	1.41416510e-04
4.77000000e-01	1.44529379e-02	1.41589515e-04
4.78000000e-01	1.45018329e-02	1.42107276e-04
4.79000000e-01	1.43305185e-02	1.40776733e-04
4.80000000e-01	1.44681679e-02	1.42031053e-04
4.81000000e-01	1.44832263e-02	1.42104818e-04
4.82000000e-01	1.44543200e-02	1.42400194e-04
4.83000000e-01	1.43063134e-02	1.40905033e-04
4.84000000e-01	1.44026306e-02	1.41649400e-04
4.85000000e-01	1.44006367e-02	1.41686749e-04
4.86000000e-01	1.44997746e-02	1.42884633e-04
4.87000000e-01	1.43330705e-02	1.41044105e-04
4.88000000e-01	1.43743416e-02	1.42270760e-04
4.89000000e-01	1.44773073e-02	1.42979049e-04
4.90000000e-01	1.43262244e-02	1.41699583e-04
4.91000000e-01	1.43303681e-02	1.41377033e-04
4.92000000e-01	1.42181756e-02	1.40797816e-04
4.93000000e-01	1.43173653e-02	1.42232860e-04
4.94000000e-01	1.43329032e-02	1.41918411e-04
4.95000000e-01	1.42553995e-02	1.42635904e-04
4.96000000e-01	1.42988286e-02	1.47006920e-04
4.97000000e-01	1.42276913e-02	1.48649048e-04
4.98000000e-01	1.42636721e-02	1.51034088e-04
4.99000000e-01	1.42557817e-02	1.52888449e-04
5.00000000e-01	1.44233299e-02	1.56100093e-04
5.01000000e-01	1.41853802e-02	1.55149461e-04
5.02000000e-01	1.42429904e-02	1.57409143e-04
5.03000000e-01	1.42526909e-02	1.59071995e-04
5.04000000e-01	1.43609957e-02	1.61019023e-04
5.05000000e-01	1.44710037e-02	1.60153511e-04
5.06000000e-01	1.41625627e-02	1.53341943e-04
5.07000000e-01	1.42714666e-02	1.53167549e-04
5.08000000e-01	1.43235474e-02	1.52436963e-04
5.09000000e-01	1.42825587e-02	1.51422799e-04
5.10000000e-01	1.42675199e-02	1.50808526e-04
5.11000000e-01	1.42407810e-02	1.49859983e-04
5.12000000e-01	1.42104218e-02	1.49493378e-04
5.13000000e-01	1.40561221e-02	1.48354687e-04
5.14000000e-01	1.41374551e-02	1.48235895e-04
5.15000000e-01	1.42097015e-02	1.48175851e-04
5.16000000e-01	1.41750077e-02	1.48106804e-04
5.17000000e-01	1.41416359e-02	1.47306204e-04
5.18000000e-01	1.39951441e-02	1.45952513e-04
5.19000000e-01	1.42331027e-02	1.47355472e-04
5.20000000e-01	1.41166780e-02	1.46314381e-04
5.21000000e-01	1.41123809e-02	1.45691139e-04
5.22000000e-01	1.40593094e-02	1.45658036e-04
5.23000000e-01	1.40305402e-02	1.44624584e-04
5.24000000e-01	1.42390226e-02	1.46805668e-04
5.25000000e-01	1.40108472e-02	1.44894695e-04
5.26000000e-01	1.41059062e-02	1.45122861e-04
5.27000000e-01	1.40756546e-02	1.44918797e-04
5.28000000e-01	1.39862950e-02	1.44451694e-04
5.29000000e-01	1.40579120e-02	1.44935723e-04
5.30000000e-01	1.39760372e-02	1.44265961e-04
5.31000000e-01	1.39065253e-02	1.43969044e-04
5.32000000e-01	1.39891893e-02	1.44462825e-04
5.33000000e-01	1.38727084e-02	1.43001576e-04
5.34000000e-01	1.39928041e-02	1.44630782e-04
5.35000000e-01	1.39706045e-02	1.43976021e-04
5.36000000e-01	1.38393782e-02	1.43171031e-04
5.37000000e-01	1.39740832e-02	1.43995698e-04
5.38000000e-01	1.39161518e-02	1.43776391e-04
5.39000000e-01	1.39585698e-02	1.43650948e-04
5.40000000e-01	1.37432794e-02	1.41697211e-04
5.41000000e-01	1.38021247e-02	1.43110442e-04
5.42000000e-01	1.39668203e-02	1.43828077e-04
5.43000000e-01	1.39371399e-02	1.43965163e-04
5.44000000e-01	1.37852055e-02	1.42207312e-04
5.45000000e-01	1.40056685e-02	1.44470883e-04
5.46000000e-01	1.37193894e-02	1.41761266e-04
5.47000000e-01	1.38347056e-02	1.43233548e-04
5.48000000e-01	1.38548656e-02	1.42590612e-04
5.49000000e-01	1.36720896e-02	1.41241101e-04
5.50000000e-01	1.38178798e-02	1.42874268e-04
5.51000000e-01	1.37802659e-02	1.42215177e-04
5.52000000e-01	1.37909380e-02	1.42129990e-04
5.53000000e-01	1.37604943e-02	1.41201468e-04
5.54000000e-01	1.37842997e-02	1.41700324e-04
5.55000000e-01	1.36969189e-02	1.40295998e-04
5.56000000e-01	1.37282869e-02	1.41399784e-04
5.57000000e-01	1.36436931e-02	1.40201505e-04
5.58000000e-01	1.37565626e-02	1.41454712e-04
5.59000000e-01	1.37721202e-02	1.41180466e-04
5.60000000e-01	1.36589410e-02	1.40617133e-04
5.61000000e-01	1.37436171e-02	1.40828210e-04
5.62000000e-01	1.36825950e-02	1.40849661e-04
5.63000000e-01	1.36311182e-02	1.39852343e-04
5.64000000e-01	1.36924854e-02	1.40734227e-04
5.65000000e-01	1.37413090e-02	1.41207051e-04
5.66000000e-01	1.36744912e-02	1.40606277e-04
5.67000000e-01	1.35928160e-02	1.40113884e-04
5.68000000e-01	1.35812847e-02	1.40035250e-04
5.69000000e-01	1.37635417e-02	1.40883405e-04
5.70000000e-01	1.35525308e-02	1.38924426e-04
5.71000000e-01	1.36952475e-02	1.40417353e-04
5.72000000e-01	1.35275029e-02	1.39289644e-04
5.73000000e-01	1.34595342e-02	1.38811006e-04
5.74000000e-01	1.35220356e-02	1.38776547e-04
5.75000000e-01	1.36536718e-02	1.40023763e-04
5.76000000e-01	1.34252768e-02	1.38346577e-04
5.77000000e-01	1.35470823e-02	1.39491127e-04
5.78000000e-01	1.34837277e-02	1.39073534e-04
5.79000000e-01	1.34542194e-02	1.38203494e-04
5.80000000e-01	1.34882309e-02	1.39171692e-04
5.81000000e-01	1.34750764e-02	1.39012740e-04
5.82000000e-01	1.34395600e-02	1.38570358e-04
5.83000000e-01	1.35346124e-02	1.39736866e-04
5.84000000e-01	1.34497143e-02	1.38877521e-04
5.85000000e-01	1.33454061e-02	1.38421496e-04
5.86000000e-01	1.33617379e-02	1.38313712e-04
5.87000000e-01	1.32543053e-02	1.37022952e-04
5.88000000e-01	1.33890199e-02	1.38195134e-04
5.89000000e-01	1.33446896e-02	1.37848551e-04
5.90000000e-01	1.34758006e-02	1.39354556e-04
5.91000000e-01	1.33498102e-02	1.37956425e-04
5.92000000e-01	1.33149652e-02	1.37305381e-04
5.93000000e-01	1.33704552e-02	1.38625872e-04
5.94000000e-01	1.31195854e-02	1.36303391e-04
5.95000000e-01	1.33692944e-02	1.38379705e-04
5.96000000e-01	1.31910575e-02	1.36921938e-04
5.97000000e-01	1.33364808e-02	1.37646041e-04
5.98000000e-01	1.32809541e-02	1.37650590e-04
5.99000000e-01	1.32911361e-02	1.37490293e-04
6.00000000e-01	1.33969916e-02	1.38232016e-04
6.01000000e-01	1.32314484e-02	1.36966531e-04
6.02000000e-01	1.32249061e-02	1.37198754e-04
6.03000000e-01	1.31313059e-02	1.36132256e-04
6.04000000e-01	1.31014533e-02	1.36111243e-04
6.05000000e-01	1.33592137e-02	1.38222473e-04
6.06000000e-01	1.32551506e-02	1.37232239e-04
6.07000000e-01	1.33013037e-02	1.37727062e-04
6.08000000e-01	1.31191899e-02	1.36079723e-04
6.09000000e-01	1.31703973e-02	1.36525296e-04
6.10000000e-01	1.33496789e-02	1.38240796e-04
6.11000000e-01	1.31896602e-02	1.36835761e-04
6.12000000e-01	1.31126033e-02	1.36034101e-04
6.13000000e-01	1.30902505e-02	1.36368885e-04
6.14000000e-01	1.32600579e-02	1.37157497e-04
6.15000000e-01	1.31489576e-02	1.36409580e-04
6.16000000e-01	1.31290931e-02	1.36331856e-04
6.17000000e-01	1.30633331e-02	1.35842740e-04
6.18000000e-01	1.32200041e-02	1.37244174e-04
6.19000000e-01	1.30210686e-02	1.35265221e-04
6.20000000e-01	1.31274894e-02	1.35866842e-04
6.21000000e-01	1.31286689e-02	1.35618018e-04
6.22000000e-01	1.31358138e-02	1.35600881e-04
6.23000000e-01	1.30072895e-02	1.34615298e-04
6.24000000e-01	1.32513755e-02	1.36599676e-04
6.25000000e-01	1.30200366e-02	1.34400359e-04
6.26000000e-01	1.30255744e-02	1.34272503e-04
6.27000000e-01	1.29537512e-02	1.33689768e-04
6.28000000e-01	1.30169866e-02	1.34158756e-04
6.29000000e-01	1.29441900e-02	1.33765842e-04
6.30000000e-01	1.29043065e-02	1.33050327e-04
6.31000000e-01	1.30294508e-02	1.34564133e-04
6.32000000e-01	1.31114026e-02	1.35464250e-04
6.33000000e-01	1.31154410e-02	1.35540917e-04
6.34000000e-01	1.29513436e-02	1.36838645e-04
6.35000000e-01	1.30553793e-02	1.42039358e-04
6.36000000e-01	1.30970075e-02	1.45199533e-04
6.37000000e-01	1.30913774e-02	1.47265274e-04
6.38000000e-01	1.31400204e-02	1.50050016e-04
6.39000000e-01	1.31003909e-02	1.51137457e-04
6.40000000e-01	1.30545271e-02	1.52444134e-04
6.41000000e-01	1.30301554e-02	1.54326294e-04
6.42000000e-01	1.31323961e-02	1.56753049e-04
6.43000000e-01	1.29512939e-02	1.54753154e-04
6.44000000e-01	1.29050878e-02	1.48653849e-04
6.45000000e-01	1.31832505e-02	1.49454441e-04
6.46000000e-01	1.29605460e-02	1.45544658e-04
6.47000000e-01	1.30806352e-02	1.46191873e-04
6.48000000e-01	1.31169634e-02	1.45254553e-04
6.49000000e-01	1.30607366e-02	1.44147836e-04
6.50000000e-01	1.30471279e-02	1.42776594e-04
6.51000000e-01	1.30941574e-02	1.43597736e-04
6.52000000e-01	1.30006362e-02	1.41541918e-04
6.53000000e-01	1.30062309e-02	1.40876721e-04
6.54000000e-01	1.28538873e-02	1.39270925e-04
6.55000000e-01	1.32207270e-02	1.42617685e-04
6.56000000e-01	1.30234997e-02	1.40640246e-04
6.57000000e-01	1.29642687e-02	1.39416787e-04
6.58000000e-01	1.28755141e-02	1.38990458e-04
6.59000000e-01	1.29984836e-02	1.39544533e-04
6.60000000e-01	1.29801184e-02	1.39151477e-04
6.61000000e-01	1.29137576e-02	1.38145507e-04
6.62000000e-01	1.28992769e-02	1.38722582e-04
6.63000000e-01	1.29832700e-02	1.39319174e-04
6.64000000e-01	1.28657116e-02	1.38330515e-04
6.65000000e-01	1.29038833e-02	1.38898538e-04
6.66000000e-01	1.29535231e-02	1.38737791e-04
6.67000000e-01	1.28160855e-02	1.36973188e-04
6.68000000e-01	1.30045454e-02	1.39150742e-04
6.69000000e-01	1.28805520e-02	1.37592191e-04
6.70000000e-01	1.28660426e-02	1.37496300e-04
6.71000000e-01	1.28717585e-02	1.37973140e-04
6.72000000e-01	1.29256347e-02	1.37709064e-04
6.73000000e-01	1.28947351e-02	1.37947700e-04
6.74000000e-01	1.28510166e-02	1.37221715e-04
6.75000000e-01	1.26309779e-02	1.35240057e-04
6.76000000e-01	1.27808858e-02	1.36487380e-04
6.77000000e-01	1.28206709e-02	1.36847123e-04
6.78000000e-01	1.27864074e-02	1.36703722e-04
6.79000000e-01	1.29117940e-02	1.37401549e-04
6.80000000e-01	1.28063498e-02	1.36393882e-04
6.81000000e-01	1.28716543e-02	1.37072218e-04
6.82000000e-01	1.26492068e-02	1.34981845e-04
6.83000000e-01	1.27191856e-02	1.35651783e-04
6.84000000e-01	1.28448450e-02	1.36965330e-04
6.85000000e-01	1.26855052e-02	1.35333324e-04
6.86000000e-01	1.25929987e-02	1.34204497e-04
6.87000000e-01	1.26415412e-02	1.34719330e-04
6.88000000e-01	1.27095007e-02	1.35310506e-04
6.89000000e-01	1.26893116e-02	1.35030705e-04
6.90000000e-01	1.27210629e-02	1.35629921e-04
6.91000000e-01	1.27667562e-02	1.36090654e-04
6.92000000e-01	1.25885264e-02	1.34579198e-04
6.93000000e-01	1.26164360e-02	1.34361332e-04
6.94000000e-01	1.28035790e-02	1.35736957e-04
6.95000000e-01	1.26607321e-02	1.34991098e-04
6.96000000e-01	1.27661101e-02	1.35301957e-04
6.97000000e-01	1.25891288e-02	1.34602490e-04
6.98000000e-01	1.26235000e-02	1.34233422e-04
6.99000000e-01	1.26565058e-02	1.34813799e-04
7.00000000e-01	1.26782051e-02	1.34468135e-04
7.01000000e-01	1.24868824e-02	1.33206670e-04
7.02000000e-01	1.26670734e-02	1.34542073e-04
7.03000000e-01	1.26527017e-02	1.34433859e-04
7.04000000e-01	1.24831366e-02	1.33327964e-04
7.05000000e-01	1.24966982e-02	1.33125057e-04
7.06000000e-01	1.25578090e-02	1.33554103e-04
7.07000000e-01	1.24194260e-02	1.32134904e-04
7.08000000e-01	1.24419019e-02	1.32072525e-04
7.09000000e-01	1.25480283e-02	1.33378454e-04
7.10000000e-01	1.24459497e-02	1.32383644e-04
7.11000000e-01	1.24280657e-02	1.32661793e-04
7.12000000e-01	1.24380406e-02	1.32049932e-04
7.13000000e-01	1.25304624e-02	1.33622449e-04
7.14000000e-01	1.25798414e-02	1.33803635e-04
7.15000000e-01	1.24493942e-02	1.32445685e-04
7.16000000e-01	1.24492109e-02	1.32556043e-04
7.17000000e-01	1.24503560e-02	1.32797087e-04
7.18000000e-01	1.24173065e-02	1.31670031e-04
7.19000000e-01	1.23574436e-02	1.31347682e-04
7.20000000e-01	1.23683308e-02	1.31773645e-04
7.21000000e-01	1.23844673e-02	1.31563440e-04
7.22000000e-01	1.24155925e-02	1.32501937e-04
7.23000000e-01	1.24927870e-02	1.33112793e-04
7.24000000e-01	1.23055805e-02	1.31800251e-04
7.25000000e-01	1.23467634e-02	1.30961590e-04
7.26000000e-01	1.24262802e-02	1.32180374e-04
7.27000000e-01	1.22566787e-02	1.30907764e-04
7.28000000e-01	1.23254205e-02	1.31589253e-04
7.29000000e-01	1.22678766e-02	1.30938146e-04
7.30000000e-01	1.23117212e-02	1.31479374e-04
7.31000000e-01	1.22185313e-02	1.30104133e-04
7.32000000e-01	1.21699263e-02	1.29899763e-04
7.33000000e-01	1.22089764e-02	1.30221996e-04
7.34000000e-01	1.21586744e-02	1.29610726e-04
7.35000000e-01	1.22079309e-02	1.30038648e-04
7.36000000e-01	1.21796332e-02	1.29386610e-04
7.37000000e-01	1.21607862e-02	1.28836289e-04
7.38000000e-01	1.22143752e-02	1.29356964e-04
7.39000000e-01	1.20710468e-02	1.27857209e-04
7.40000000e-01	1.22460872e-02	1.29493803e-04
7.41000000e-01	1.22254941e-02	1.28799672e-04
7.42000000e-01	1.22693185e-02	1.29349415e-04
7.43000000e-01	1.22177887e-02	1.28508974e-04
7.44000000e-01	1.21370827e-02	1.27812624e-04
7.45000000e-01	1.22428547e-02	1.29146467e-04
7.46000000e-01	1.19445152e-02	1.26108184e-04
7.47000000e-01	1.21553693e-02	1.28109868e-04
7.48000000e-01	1.21085699e-02	1.28058988e-04
7.49000000e-01	1.20955549e-02	1.27926051e-04
7.50000000e-01	1.20024542e-02	1.26491262e-04
7.51000000e-01	1.19496243e-02	1.26427988e-04
7.52000000e-01	1.19973624e-02	1.26926021e-04
7.53000000e-01	1.20598764e-02	1.27172745e-04
7.54000000e-01	1.21124007e-02	1.27824438e-04
7.55000000e-01	1.20718537e-02	1.27597304e-04
7.56000000e-01	1.21190968e-02	1.27887130e-04
7.57000000e-01	1.20303042e-02	1.27094178e-04
7.58000000e-01	1.19391066e-02	1.26166775e-04
7.59000000e-01	1.20218827e-02	1.27054212e-04
7.60000000e-01	1.20563241e-02	1.27071174e-04
7.61000000e-01	1.19567871e-02	1.26126493e-04
7.62000000e-01	1.18750853e-02	1.24586777e-04
7.63000000e-01	1.19463438e-02	1.25574365e-04
7.64000000e-01	1.18916671e-02	1.24718376e-04
7.65000000e-01	1.18808307e-02	1.24876339e-04
7.66000000e-01	1.18233895e-02	1.24095227e-04
7.67000000e-01	1.19271139e-02	1.25184910e-04
7.68000000e-01	1.19091017e-02	1.24845790e-04
7.69000000e-01	1.18264834e-02	1.24004653e-04
7.70000000e-01	1.19120755e-02	1.24585067e-04
7.71000000e-01	1.17670460e-02	1.23315830e-04
7.72000000e-01	1.17523133e-02	1.27144240e-04
7.73000000e-01	1.18467644e-02	1.32118890e-04
7.74000000e-01	1.17613950e-02	1.34033356e-04
7.75000000e-01	1.19742934e-02	1.37733146e-04
7.76000000e-01	1.17725793e-02	1.38273465e-04
7.77000000e-01	1.17919493e-02	1.40661360e-04
7.78000000e-01	1.17749677e-02	1.42467776e-04
7.79000000e-01	1.18690646e-02	1.45230471e-04
7.80000000e-01	1.16463738e-02	1.44511880e-04
7.81000000e-01	1.18647628e-02	1.48010635e-04
7.82000000e-01	1.17309217e-02	1.48478373e-04
7.83000000e-01	1.17745590e-02	1.51007545e-04
7.84000000e-01	1.16927961e-02	1.51488603e-04
7.85000000e-01	1.17603609e-02	1.53599404e-04
7.86000000e-01	1.16612602e-02	1.54350095e-04
7.87000000e-01	1.17436506e-02	1.56799286e-04
7.88000000e-01	1.16668636e-02	1.57548866e-04
7.89000000e-01	1.15826848e-02	1.57575460e-04
7.90000000e-01	1.16693653e-02	1.59634069e-04
7.91000000e-01	1.15921191e-02	1.61040878e-04
7.92000000e-01	1.16057601e-02	1.62043785e-04
7.93000000e-01	1.14847270e-02	1.62839794e-04
7.94000000e-01	1.16468134e-02	1.66811774e-04
7.95000000e-01	1.15634534e-02	1.67793434e-04
7.96000000e-01	1.14710412e-02	1.67594046e-04
7.97000000e-01	1.14588815e-02	1.69230263e-04
7.98000000e-01	1.15974485e-02	1.72735166e-04
7.99000000e-01	1.15523557e-02	1.74251786e-04
8.00000000e-01	1.15223836e-02	1.75420692e-04
8.01000000e-01	1.13648770e-02	1.75230323e-04
8.02000000e-01	1.16966724e-02	1.81148425e-04
8.03000000e-01	1.14866463e-02	1.81061891e-04
8.04000000e-01	1.16009912e-02	1.84539843e-04
8.05000000e-01	1.14402344e-02	1.83900954e-04
8.06000000e-01	1.12078176e-02	1.82244801e-04
8.07000000e-01	1.14212531e-02	1.87650771e-04
8.08000000e-01	1.13829075e-02	1.89006460e-04
8.09000000e-01	1.14582162e-02	1.92368275e-04
8.10000000e-01	1.13232608e-02	1.91422248e-04
8.11000000e-01	1.13831460e-02	1.95765178e-04
8.12000000e-01	1.13481182e-02	1.97404348e-04
8.13000000e-01	1.13713915e-02	1.99950078e-04
8.14000000e-01	1.11927643e-02	1.99499626e-04
8.15000000e-01	1.10014990e-02	1.98681697e-04
8.16000000e-01	1.14592908e-02	2.08219056e-04
8.17000000e-01	1.14491516e-02	2.10164552e-04
8.18000000e-01	1.13086461e-02	2.10537222e-04
8.19000000e-01	1.11682417e-02	2.09987222e-04
8.20000000e-01	1.11499504e-02	2.14087364e-04
8.21000000e-01	1.15121109e-02	2.22146300e-04
8.22000000e-01	1.12920745e-02	2.21880738e-04
8.23000000e-01	1.11611130e-02	2.21063924e-04
8.24000000e-01	1.11442097e-02	2.23146378e-04
8.25000000e-01	1.08972493e-02	2.23044195e-04
8.26000000e-01	1.11422767e-02	2.32404149e-04
8.27000000e-01	1.10458725e-02	2.34492340e-04
8.28000000e-01	1.10739995e-02	2.36913372e-04
8.29000000e-01	1.12694982e-02	2.44767671e-04
8.30000000e-01	1.09749798e-02	2.45069801e-04
8.31000000e-01	1.13123720e-02	2.53471603e-04
8.32000000e-01	1.11192144e-02	2.53321973e-04
8.33000000e-01	1.07722587e-02	2.51664825e-04
8.34000000e-01	1.08601265e-02	2.57182697e-04
8.35000000e-01	1.09682781e-02	2.65102962e-04
8.36000000e-01	1.08774336e-02	2.63916982e-04
8.37000000e-01	1.07160809e-02	2.68654645e-04
8.38000000e-01	1.08224856e-02	2.77690006e-04
8.39000000e-01	1.07853899e-02	2.84311832e-04
8.40000000e-01	1.13081718e-02	2.97579698e-04
8.41000000e-01	1.10378478e-02	3.00391603e-04
8.42000000e-01	1.08281301e-02	3.00937800e-04
8.43000000e-01	1.08690162e-02	3.07504246e-04
8.44000000e-01	1.08553365e-02	3.19807224e-04
8.45000000e-01	1.08288848e-02	3.22749175e-04
8.46000000e-01	1.07192438e-02	3.30129597e-04
8.47000000e-01	1.09225015e-02	3.47539412e-04
8.48000000e-01	1.06242996e-02	3.42330255e-04
8.49000000e-01	1.06557952e-02	3.58264283e-04
8.50000000e-01	1.08539743e-02	3.77510457e-04
8.51000000e-01	1.12890907e-02	4.01266303e-04
8.52000000e-01	1.08194475e-02	4.05663240e-04
8.53000000e-01	1.08388520e-02	4.21589219e-04
8.54000000e-01	1.08882094e-02	4.42500468e-04
8.55000000e-01	1.08111631e-02	4.60009454e-04
8.56000000e-01	1.06986716e-02	4.66095228e-04
8.57000000e-01	1.04774774e-02	4.75840857e-04
8.58000000e-01	1.03252505e-02	4.83912115e-04
8.59000000e-01	1.09379264e-02	5.19407961e-04
8.60000000e-01	1.05861989e-02	5.22088692e-04
8.61000000e-01	1.04162972e-02	5.32429518e-04
8.62000000e-01	1.01924318e-02	5.36575567e-04
8.63000000e-01	9.62774964e-03	5.32107098e-04
8.64000000e-01	1.02375213e-02	5.97744020e-04
8.65000000e-01	1.06529429e-02	6.36793951e-04
8.66000000e-01	1.07575470e-02	6.69727021e-04
8.67000000e-01	1.07495246e-02	7.23166735e-04
8.68000000e-01	9.95843667e-03	7.30146512e-04
8.69000000e-01	1.01452127e-02	7.94473758e-04
8.70000000e-01	1.00858706e-02	8.62283033e-04
8.71000000e-01	1.05376373e-02	9.61164697e-04
8.72000000e-01	1.07836198e-02	1.11289936e-03
8.73000000e-01	1.18204522e-02	1.44370899e-03
8.74000000e-01	1.19106969e-02	1.82811028e-03
8.75000000e-01	8.08260260e-03	2.78953230e-03
