% Filename : SDL7_00012_00162.h5
% Date & Time : 30-Oct-2025 14:55:52
% X-ray Energy (keV) : 13.30001
% Exposure Time (s) : 0.500
% Beam Center : 1461.24000, 208.98300
% Sample to Detector Distance (SDD) (mm) : 1990.750
% Detector Pixel Size (mm) : 0.075
% Photodiode Value : 135803.000
% I0 of Sample : 0
% I0 of Standard : 1
% 
% q(A^-1)   I(q)    I(q)_SE
0.00000000e+00	7.98214666e-03	5.64422076e-03
2.50000000e-04	0.00000000e+00	0.00000000e+00
5.00000000e-04	0.00000000e+00	0.00000000e+00
7.50000000e-04	0.00000000e+00	0.00000000e+00
1.00000000e-03	0.00000000e+00	0.00000000e+00
1.25000000e-03	0.00000000e+00	0.00000000e+00
1.50000000e-03	0.00000000e+00	0.00000000e+00
1.75000000e-03	0.00000000e+00	0.00000000e+00
2.00000000e-03	0.00000000e+00	0.00000000e+00
2.25000000e-03	0.00000000e+00	0.00000000e+00
2.50000000e-03	0.00000000e+00	0.00000000e+00
2.75000000e-03	0.00000000e+00	0.00000000e+00
3.00000000e-03	0.00000000e+00	0.00000000e+00
3.25000000e-03	1.28092237e+01	1.06260797e+01
3.50000000e-03	3.55851089e+00	2.01972022e+00
3.75000000e-03	2.12391834e+00	8.96772027e-01
4.00000000e-03	1.67284880e+00	6.22321284e-01
4.25000000e-03	8.59875356e-01	1.24906253e-01
4.50000000e-03	1.17611844e+00	3.17544900e-01
4.75000000e-03	1.16045695e+00	2.56724462e-01
5.00000000e-03	9.56247015e-01	2.13114127e-01
5.25000000e-03	8.13500645e-01	1.84122789e-01
5.50000000e-03	6.60392242e-01	1.34150145e-01
5.75000000e-03	5.95493183e-01	1.31042645e-01
6.00000000e-03	4.91933191e-01	1.00409662e-01
6.25000000e-03	4.20306375e-01	8.26309529e-02
6.50000000e-03	3.79741752e-01	8.02721946e-02
6.75000000e-03	3.24551663e-01	6.29412213e-02
7.00000000e-03	2.90563222e-01	5.49031326e-02
7.25000000e-03	2.68048113e-01	5.20255717e-02
7.50000000e-03	2.25839370e-01	4.16494949e-02
7.75000000e-03	2.06361494e-01	3.85376381e-02
8.00000000e-03	1.89571807e-01	3.50136134e-02
8.25000000e-03	1.63020685e-01	2.85688336e-02
8.50000000e-03	1.51823840e-01	2.63062059e-02
8.75000000e-03	1.41646580e-01	2.42677027e-02
9.00000000e-03	1.27366207e-01	2.12173103e-02
9.25000000e-03	1.13988511e-01	1.87167466e-02
9.50000000e-03	1.04784018e-01	1.70703004e-02
9.75000000e-03	9.82189414e-02	1.43127848e-02
1.00000000e-02	8.99792881e-02	1.32367490e-02
1.02500000e-02	8.40461997e-02	1.27783657e-02
1.05000000e-02	7.63901220e-02	1.03826195e-02
1.07500000e-02	7.55242373e-02	1.01906844e-02
1.10000000e-02	6.70579570e-02	8.18081637e-03
1.12500000e-02	6.40564211e-02	8.12917106e-03
1.15000000e-02	6.05472615e-02	7.86501710e-03
1.17500000e-02	5.24930364e-02	5.05062477e-03
1.20000000e-02	5.52115046e-02	6.18415745e-03
1.22500000e-02	5.22299954e-02	6.77628538e-03
1.25000000e-02	4.97831619e-02	5.28012830e-03
1.27500000e-02	4.88034193e-02	5.05943483e-03
1.30000000e-02	4.47709319e-02	4.71035402e-03
1.32500000e-02	4.53578950e-02	4.44028180e-03
1.35000000e-02	4.19395283e-02	4.24650306e-03
1.37500000e-02	4.10373194e-02	3.91984121e-03
1.40000000e-02	3.72080644e-02	3.13801962e-03
1.42500000e-02	3.88712186e-02	3.55600193e-03
1.45000000e-02	3.54620647e-02	3.15994540e-03
1.47500000e-02	3.40225649e-02	2.80473272e-03
1.50000000e-02	3.31004139e-02	2.82654576e-03
1.52500000e-02	3.29219389e-02	2.69636489e-03
1.55000000e-02	3.22236181e-02	2.44040433e-03
1.57500000e-02	3.15296555e-02	2.36381196e-03
1.60000000e-02	3.14880828e-02	2.44810115e-03
1.62500000e-02	3.19080126e-02	2.48791115e-03
1.65000000e-02	2.88933264e-02	2.16864998e-03
1.67500000e-02	2.75244780e-02	1.95738504e-03
1.70000000e-02	2.85934815e-02	1.87701775e-03
1.72500000e-02	2.78907522e-02	1.96607254e-03
1.75000000e-02	2.80751001e-02	1.70720593e-03
1.77500000e-02	2.61017165e-02	1.75417613e-03
1.80000000e-02	2.74817571e-02	1.73592932e-03
1.82500000e-02	2.63421904e-02	1.59375791e-03
1.85000000e-02	2.62397006e-02	1.62692452e-03
1.87500000e-02	2.57857058e-02	1.54713319e-03
1.90000000e-02	2.58342844e-02	1.51977082e-03
1.92500000e-02	2.43977008e-02	1.37087076e-03
1.95000000e-02	2.52607593e-02	1.37294278e-03
1.97500000e-02	2.47722510e-02	1.40271379e-03
2.00000000e-02	2.40325604e-02	1.36080982e-03
2.02500000e-02	2.34957389e-02	1.26996661e-03
2.05000000e-02	2.36275636e-02	1.26734685e-03
2.07500000e-02	2.37336676e-02	1.31409177e-03
2.10000000e-02	2.46057762e-02	1.28840863e-03
2.12500000e-02	2.29619294e-02	1.21308305e-03
2.15000000e-02	2.38737741e-02	1.28488996e-03
2.17500000e-02	2.40233943e-02	1.26171931e-03
2.20000000e-02	2.35653659e-02	1.26450917e-03
2.22500000e-02	2.43408537e-02	1.29477220e-03
2.25000000e-02	2.39578131e-02	1.28159004e-03
2.27500000e-02	2.43819710e-02	1.25258768e-03
2.30000000e-02	2.29743504e-02	1.20900616e-03
2.32500000e-02	2.33465022e-02	1.19978884e-03
2.35000000e-02	2.31486595e-02	1.22310257e-03
2.37500000e-02	2.35735004e-02	1.21945436e-03
2.40000000e-02	2.31939377e-02	1.19982618e-03
2.42500000e-02	2.24603692e-02	1.15504291e-03
2.45000000e-02	2.33141224e-02	1.19887647e-03
2.47500000e-02	2.34046732e-02	1.19325987e-03
2.50000000e-02	2.21529800e-02	1.16966442e-03
2.52500000e-02	2.23920043e-02	1.14282080e-03
2.55000000e-02	2.26813095e-02	1.14107940e-03
2.57500000e-02	2.26419710e-02	1.13477118e-03
2.60000000e-02	2.33671945e-02	1.16744107e-03
2.62500000e-02	2.15042987e-02	1.09426200e-03
2.65000000e-02	2.18745952e-02	1.08809294e-03
2.67500000e-02	2.26955762e-02	1.13147261e-03
2.70000000e-02	2.37231232e-02	1.19993333e-03
2.72500000e-02	2.18062703e-02	1.07506781e-03
2.75000000e-02	2.14193443e-02	1.07532417e-03
2.77500000e-02	2.23162977e-02	1.12600085e-03
2.80000000e-02	2.31987385e-02	1.14949983e-03
2.82500000e-02	2.37172830e-02	1.15236805e-03
2.85000000e-02	2.33268336e-02	1.13274084e-03
2.87500000e-02	2.23883680e-02	1.09612805e-03
2.90000000e-02	2.26894323e-02	1.11940080e-03
2.92500000e-02	2.31624658e-02	1.09951889e-03
2.95000000e-02	2.28971152e-02	1.12236148e-03
2.97500000e-02	2.24820727e-02	1.08220594e-03
3.00000000e-02	2.24657687e-02	1.09080453e-03
3.02500000e-02	2.37076225e-02	1.13883935e-03
3.05000000e-02	2.26249286e-02	1.06426098e-03
3.07500000e-02	2.31987175e-02	1.11286171e-03
3.10000000e-02	2.28946454e-02	1.08936042e-03
3.12500000e-02	2.31286436e-02	1.12912904e-03
3.15000000e-02	2.33421251e-02	1.10717287e-03
3.17500000e-02	2.30687610e-02	1.06545154e-03
3.20000000e-02	2.27980334e-02	1.09772318e-03
3.22500000e-02	2.24447954e-02	1.06112294e-03
3.25000000e-02	2.24978363e-02	1.06970309e-03
3.27500000e-02	2.29435891e-02	1.07599278e-03
3.30000000e-02	2.24822241e-02	1.04534907e-03
3.32500000e-02	2.20769078e-02	1.02663538e-03
3.35000000e-02	2.16776600e-02	1.02800149e-03
3.37500000e-02	2.22660857e-02	1.03258578e-03
3.40000000e-02	2.13844773e-02	9.94658909e-04
3.42500000e-02	2.19175822e-02	1.00541487e-03
3.45000000e-02	2.12196522e-02	9.83699143e-04
3.47500000e-02	2.13559795e-02	9.89652149e-04
3.50000000e-02	2.25617368e-02	1.03174817e-03
3.52500000e-02	2.13195604e-02	9.70352272e-04
3.55000000e-02	2.13950479e-02	9.73636055e-04
3.57500000e-02	2.16044902e-02	9.86154313e-04
3.60000000e-02	2.23372929e-02	1.02335876e-03
3.62500000e-02	2.21854210e-02	1.02405227e-03
3.65000000e-02	2.15458772e-02	9.76577431e-04
3.67500000e-02	2.18775483e-02	9.99121127e-04
3.70000000e-02	2.12794815e-02	9.56104460e-04
3.72500000e-02	2.16402692e-02	9.71153878e-04
3.75000000e-02	2.14334669e-02	9.78373376e-04
3.77500000e-02	2.10799382e-02	9.60023160e-04
3.80000000e-02	2.10695248e-02	9.48647003e-04
3.82500000e-02	2.18349926e-02	9.74224783e-04
3.85000000e-02	2.16986964e-02	9.79005792e-04
3.87500000e-02	2.13159840e-02	9.45691432e-04
3.90000000e-02	2.11017706e-02	9.42548050e-04
3.92500000e-02	2.18631829e-02	9.56846248e-04
3.95000000e-02	2.18672443e-02	9.59967967e-04
3.97500000e-02	2.17762017e-02	9.59188222e-04
4.00000000e-02	2.06484397e-02	9.10582058e-04
4.02500000e-02	2.10427654e-02	9.27524903e-04
4.05000000e-02	2.13542833e-02	9.34600815e-04
4.07500000e-02	2.05262745e-02	8.97205934e-04
4.10000000e-02	2.18052349e-02	9.60809426e-04
4.12500000e-02	2.10055607e-02	9.12955612e-04
4.15000000e-02	2.16451187e-02	9.21644880e-04
4.17500000e-02	2.03949180e-02	8.86927928e-04
4.20000000e-02	2.05844341e-02	8.81393061e-04
4.22500000e-02	2.09372280e-02	8.90639314e-04
4.25000000e-02	2.19387776e-02	9.38249868e-04
4.27500000e-02	2.15749409e-02	9.16888248e-04
4.30000000e-02	2.09584457e-02	8.94150531e-04
4.32500000e-02	2.11599912e-02	8.92897944e-04
4.35000000e-02	2.10135551e-02	8.92680709e-04
4.37500000e-02	2.10494418e-02	8.92530493e-04
4.40000000e-02	2.11073250e-02	9.00267965e-04
4.42500000e-02	2.05294598e-02	8.70078947e-04
4.45000000e-02	2.05329643e-02	8.64368910e-04
4.47500000e-02	2.09589279e-02	8.74551959e-04
4.50000000e-02	2.11156144e-02	8.94535274e-04
4.52500000e-02	2.11907014e-02	8.87105020e-04
4.55000000e-02	2.07679871e-02	8.74377364e-04
4.57500000e-02	1.98552455e-02	8.34425648e-04
4.60000000e-02	2.08619184e-02	8.73349287e-04
4.62500000e-02	2.12225891e-02	8.90627415e-04
4.65000000e-02	2.11449999e-02	8.70300438e-04
4.67500000e-02	2.05778151e-02	8.49741408e-04
4.70000000e-02	2.09295870e-02	8.55078371e-04
4.72500000e-02	2.04355161e-02	8.41349550e-04
4.75000000e-02	2.10814610e-02	8.70711449e-04
4.77500000e-02	2.09196675e-02	8.56085831e-04
4.80000000e-02	2.13978771e-02	8.80289648e-04
4.82500000e-02	2.03460595e-02	8.26475532e-04
4.85000000e-02	2.05140055e-02	8.46760415e-04
4.87500000e-02	2.00766528e-02	8.21524277e-04
4.90000000e-02	2.02247049e-02	8.21129989e-04
4.92500000e-02	2.06587866e-02	8.38097277e-04
4.95000000e-02	2.07197996e-02	8.39991452e-04
4.97500000e-02	2.05001759e-02	8.33171322e-04
5.00000000e-02	2.04354380e-02	8.23605626e-04
5.02500000e-02	2.10457398e-02	8.40192970e-04
5.05000000e-02	2.05143567e-02	8.29058513e-04
5.07500000e-02	2.04726602e-02	8.30585461e-04
5.10000000e-02	2.08403329e-02	8.30632836e-04
5.12500000e-02	2.07605534e-02	8.23130233e-04
5.15000000e-02	2.06043512e-02	8.18225788e-04
5.17500000e-02	2.06745969e-02	8.33848726e-04
5.20000000e-02	2.05781585e-02	8.13126716e-04
5.22500000e-02	2.10374347e-02	8.35511182e-04
5.25000000e-02	2.07990822e-02	8.18252448e-04
5.27500000e-02	2.04465164e-02	8.01487673e-04
5.30000000e-02	2.01688318e-02	8.06547671e-04
5.32500000e-02	2.09913179e-02	8.25497267e-04
5.35000000e-02	2.04586517e-02	8.05216657e-04
5.37500000e-02	2.06844536e-02	8.07215753e-04
5.40000000e-02	2.03802980e-02	7.98711126e-04
5.42500000e-02	1.95557761e-02	7.59505925e-04
5.45000000e-02	2.11828110e-02	8.26719217e-04
5.47500000e-02	2.02302878e-02	7.80000927e-04
5.50000000e-02	2.07102845e-02	8.01529522e-04
5.52500000e-02	2.01466683e-02	7.86512881e-04
5.55000000e-02	2.03418113e-02	7.81909461e-04
5.57500000e-02	1.99372584e-02	7.79928978e-04
5.60000000e-02	2.09010709e-02	8.01090207e-04
5.62500000e-02	2.09088498e-02	8.08573544e-04
5.65000000e-02	2.01946524e-02	7.75064452e-04
5.67500000e-02	2.08462788e-02	8.07540573e-04
5.70000000e-02	2.06577706e-02	7.88669982e-04
5.72500000e-02	2.04758216e-02	7.80753352e-04
5.75000000e-02	2.09910137e-02	7.96873281e-04
5.77500000e-02	2.02993253e-02	7.64848168e-04
5.80000000e-02	1.99917057e-02	7.68188004e-04
5.82500000e-02	2.01785496e-02	7.59816971e-04
5.85000000e-02	2.08556910e-02	7.88608559e-04
5.87500000e-02	2.03838260e-02	7.77617818e-04
5.90000000e-02	2.02704266e-02	7.61857990e-04
5.92500000e-02	2.08363763e-02	7.79999199e-04
5.95000000e-02	2.10275876e-02	7.80035575e-04
5.97500000e-02	2.00772324e-02	7.62386122e-04
6.00000000e-02	2.03710602e-02	7.61886332e-04
6.02500000e-02	1.97654245e-02	7.45564467e-04
6.05000000e-02	2.01038440e-02	7.44664040e-04
6.07500000e-02	1.95874473e-02	7.32281319e-04
6.10000000e-02	2.01296937e-02	7.48961485e-04
6.12500000e-02	2.01046385e-02	7.52468234e-04
6.15000000e-02	1.96805625e-02	7.38474572e-04
6.17500000e-02	2.02001744e-02	7.53512144e-04
6.20000000e-02	2.00191289e-02	7.44450601e-04
6.22500000e-02	1.99651493e-02	7.32706078e-04
6.25000000e-02	2.02764029e-02	7.45976065e-04
6.27500000e-02	2.00562963e-02	7.31948785e-04
6.30000000e-02	1.96759023e-02	7.24807013e-04
6.32500000e-02	2.09383409e-02	7.66311716e-04
6.35000000e-02	1.99279753e-02	7.38907187e-04
6.37500000e-02	2.03210777e-02	7.38421529e-04
6.40000000e-02	2.05506460e-02	7.51945438e-04
6.42500000e-02	1.99795778e-02	7.28651245e-04
6.45000000e-02	2.04992979e-02	7.51654339e-04
6.47500000e-02	1.91950441e-02	7.00952376e-04
6.50000000e-02	2.01826836e-02	7.33777193e-04
6.52500000e-02	2.02970046e-02	7.31652755e-04
6.55000000e-02	2.07065231e-02	7.47162638e-04
6.57500000e-02	1.96366325e-02	7.11547868e-04
6.60000000e-02	2.00917551e-02	7.23513480e-04
6.62500000e-02	2.02975678e-02	7.33073836e-04
6.65000000e-02	2.01045261e-02	7.20642803e-04
6.67500000e-02	2.01692142e-02	7.14474166e-04
6.70000000e-02	2.01205524e-02	7.26804323e-04
6.72500000e-02	2.00820629e-02	7.27041007e-04
6.75000000e-02	1.96694135e-02	7.05662971e-04
6.77500000e-02	2.01619182e-02	7.13707816e-04
6.80000000e-02	1.97721572e-02	7.11155215e-04
6.82500000e-02	1.99938942e-02	7.17687314e-04
6.85000000e-02	2.00928888e-02	7.14626610e-04
6.87500000e-02	1.99800918e-02	7.11893583e-04
6.90000000e-02	2.05806649e-02	7.27599296e-04
6.92500000e-02	2.02831831e-02	7.10200354e-04
6.95000000e-02	2.00821826e-02	7.14106021e-04
6.97500000e-02	1.99891669e-02	7.07603330e-04
7.00000000e-02	1.94086683e-02	6.89580171e-04
7.02500000e-02	1.99007619e-02	7.00423307e-04
7.05000000e-02	1.99552585e-02	7.04113807e-04
7.07500000e-02	2.01267066e-02	7.12064541e-04
7.10000000e-02	2.01433024e-02	7.03845863e-04
7.12500000e-02	2.01276641e-02	7.03004321e-04
7.15000000e-02	1.98252600e-02	6.91306211e-04
7.17500000e-02	2.00214670e-02	6.91808690e-04
7.20000000e-02	1.95173096e-02	6.82729968e-04
7.22500000e-02	1.98162809e-02	6.92004334e-04
7.25000000e-02	2.04888192e-02	7.07251397e-04
7.27500000e-02	1.97397242e-02	6.84949934e-04
7.30000000e-02	2.00645284e-02	6.96958816e-04
7.32500000e-02	1.98357628e-02	6.82533691e-04
7.35000000e-02	2.00236258e-02	6.97357732e-04
7.37500000e-02	1.99071431e-02	6.87755708e-04
7.40000000e-02	1.97725554e-02	6.78549652e-04
7.42500000e-02	1.98885905e-02	6.88111653e-04
7.45000000e-02	1.96774637e-02	6.76462233e-04
7.47500000e-02	1.97949837e-02	6.79576051e-04
7.50000000e-02	1.98486990e-02	6.81302799e-04
7.52500000e-02	1.97095183e-02	6.78779362e-04
7.55000000e-02	1.93529082e-02	6.59910725e-04
7.57500000e-02	1.95970676e-02	6.69216719e-04
7.60000000e-02	1.97792234e-02	6.74755097e-04
7.62500000e-02	2.00372152e-02	6.82456409e-04
7.65000000e-02	1.93378805e-02	6.54676948e-04
7.67500000e-02	2.01664504e-02	6.87739390e-04
7.70000000e-02	1.99193486e-02	6.73902109e-04
7.72500000e-02	2.00065291e-02	6.90845965e-04
7.75000000e-02	1.98194870e-02	6.87971735e-04
7.77500000e-02	2.03601457e-02	7.10143030e-04
7.80000000e-02	1.95510115e-02	6.85434021e-04
7.82500000e-02	2.02752341e-02	7.12480697e-04
7.85000000e-02	1.99979355e-02	7.08365752e-04
7.87500000e-02	1.98357652e-02	7.02269498e-04
7.90000000e-02	1.99934055e-02	7.16583713e-04
7.92500000e-02	1.95351082e-02	6.98026682e-04
7.95000000e-02	2.00603083e-02	7.15329283e-04
7.97500000e-02	2.00410634e-02	7.23689020e-04
8.00000000e-02	1.99613981e-02	7.24589531e-04
8.02500000e-02	1.97507624e-02	7.19994787e-04
8.05000000e-02	1.94845150e-02	7.01943389e-04
8.07500000e-02	1.99452317e-02	7.23495821e-04
8.10000000e-02	1.98032433e-02	7.18149505e-04
8.12500000e-02	1.95001076e-02	7.08558924e-04
8.15000000e-02	1.97306762e-02	7.17699332e-04
8.17500000e-02	1.98551488e-02	7.27017953e-04
8.20000000e-02	1.98406254e-02	7.19547432e-04
8.22500000e-02	1.92418247e-02	6.99168665e-04
8.25000000e-02	1.96570090e-02	7.27562727e-04
8.27500000e-02	1.94114227e-02	7.11297014e-04
8.30000000e-02	1.98047018e-02	7.30105352e-04
8.32500000e-02	1.97513820e-02	7.20243114e-04
8.35000000e-02	1.94241053e-02	7.23237242e-04
8.37500000e-02	1.99149415e-02	7.31055767e-04
8.40000000e-02	1.94665871e-02	7.19270743e-04
8.42500000e-02	1.98206221e-02	7.37414997e-04
8.45000000e-02	2.00205049e-02	7.52074256e-04
8.47500000e-02	1.96543537e-02	7.37178382e-04
8.50000000e-02	1.97416162e-02	7.30357476e-04
8.52500000e-02	1.99732313e-02	7.50805873e-04
8.55000000e-02	2.00399610e-02	7.44608811e-04
8.57500000e-02	2.01284581e-02	7.51264778e-04
8.60000000e-02	1.92908560e-02	7.23051244e-04
8.62500000e-02	2.01950952e-02	7.46227188e-04
8.65000000e-02	1.96488647e-02	7.30870078e-04
8.67500000e-02	1.94303902e-02	7.31277655e-04
8.70000000e-02	1.98767854e-02	7.24975332e-04
8.72500000e-02	1.98234268e-02	7.17790000e-04
8.75000000e-02	1.95353860e-02	6.96938424e-04
8.77500000e-02	1.97718410e-02	7.01309513e-04
8.80000000e-02	2.04999749e-02	7.25908868e-04
8.82500000e-02	1.99746901e-02	6.99446587e-04
8.85000000e-02	1.96697613e-02	6.88653566e-04
8.87500000e-02	2.00769813e-02	6.84215836e-04
8.90000000e-02	1.98003861e-02	6.89984769e-04
8.92500000e-02	1.98753890e-02	6.83243333e-04
8.95000000e-02	2.02017347e-02	6.92965151e-04
8.97500000e-02	1.97960594e-02	6.78095368e-04
9.00000000e-02	1.99890028e-02	6.79143008e-04
9.02500000e-02	1.95778099e-02	6.66852070e-04
9.05000000e-02	1.95789283e-02	6.65582189e-04
9.07500000e-02	1.98042689e-02	6.76432437e-04
9.10000000e-02	1.99561305e-02	6.74315933e-04
9.12500000e-02	1.98664297e-02	6.71771422e-04
9.15000000e-02	1.98897937e-02	6.78016675e-04
9.17500000e-02	1.96186950e-02	6.67966622e-04
9.20000000e-02	1.95553259e-02	6.55016504e-04
9.22500000e-02	1.97705295e-02	6.58389280e-04
9.25000000e-02	1.94309278e-02	6.47015498e-04
9.27500000e-02	1.99082835e-02	6.60166420e-04
9.30000000e-02	1.99529711e-02	6.61712883e-04
9.32500000e-02	2.03746416e-02	6.76089047e-04
9.35000000e-02	1.94157959e-02	6.39344864e-04
9.37500000e-02	1.94048928e-02	6.42565098e-04
9.40000000e-02	1.99794765e-02	6.61141607e-04
9.42500000e-02	1.99952567e-02	6.58399883e-04
9.45000000e-02	1.95902158e-02	6.49735422e-04
9.47500000e-02	1.97566575e-02	6.45543671e-04
9.50000000e-02	1.96772850e-02	6.46382583e-04
9.52500000e-02	1.98019737e-02	6.48918920e-04
9.55000000e-02	1.92942632e-02	6.27031942e-04
9.57500000e-02	1.95079612e-02	6.40467622e-04
9.60000000e-02	1.92843212e-02	6.27645615e-04
9.62500000e-02	1.95518421e-02	6.30349692e-04
9.65000000e-02	1.94351928e-02	6.28493023e-04
9.67500000e-02	1.95681326e-02	6.34179069e-04
9.70000000e-02	1.90143630e-02	6.14399842e-04
9.72500000e-02	2.00933290e-02	6.42677982e-04
9.75000000e-02	2.00703431e-02	6.45726293e-04
9.77500000e-02	1.99411914e-02	6.34927483e-04
9.80000000e-02	1.96251377e-02	6.28825532e-04
9.82500000e-02	1.91205162e-02	6.19771393e-04
9.85000000e-02	1.94466338e-02	6.25534004e-04
9.87500000e-02	1.93411088e-02	6.17203648e-04
9.90000000e-02	1.95030869e-02	6.25252767e-04
9.92500000e-02	1.93765812e-02	6.15086489e-04
9.95000000e-02	1.93234965e-02	6.15007361e-04
9.97500000e-02	1.98070324e-02	6.30036870e-04
1.00000000e-01	1.92730238e-02	5.03025836e-04
1.00500000e-01	1.96801257e-02	4.41155354e-04
1.01000000e-01	1.96398652e-02	4.37259888e-04
1.01500000e-01	1.95999762e-02	4.37023700e-04
1.02000000e-01	1.95989912e-02	4.35205504e-04
1.02500000e-01	1.93407926e-02	4.26742280e-04
1.03000000e-01	1.94833541e-02	4.29835222e-04
1.03500000e-01	1.94778012e-02	4.30649277e-04
1.04000000e-01	1.95540991e-02	4.29072577e-04
1.04500000e-01	1.94056761e-02	4.24695847e-04
1.05000000e-01	1.99996603e-02	4.35272284e-04
1.05500000e-01	1.94927351e-02	4.24362204e-04
1.06000000e-01	1.95118795e-02	4.24141344e-04
1.06500000e-01	1.98540000e-02	4.26933267e-04
1.07000000e-01	1.98646906e-02	4.34484688e-04
1.07500000e-01	2.00598552e-02	4.49988666e-04
1.08000000e-01	1.97764365e-02	4.44485274e-04
1.08500000e-01	1.96140469e-02	4.44067350e-04
1.09000000e-01	1.96078191e-02	4.50292889e-04
1.09500000e-01	1.94036510e-02	4.44715239e-04
1.10000000e-01	1.95913923e-02	4.42278933e-04
1.10500000e-01	1.97236333e-02	4.36384274e-04
1.11000000e-01	1.94468850e-02	4.23465632e-04
1.11500000e-01	1.99505404e-02	4.30019382e-04
1.12000000e-01	1.96791522e-02	4.24030586e-04
1.12500000e-01	1.97648619e-02	4.22116232e-04
1.13000000e-01	1.99215365e-02	4.25776862e-04
1.13500000e-01	1.96674482e-02	4.17418220e-04
1.14000000e-01	1.98176348e-02	4.18963929e-04
1.14500000e-01	1.96504248e-02	4.14270221e-04
1.15000000e-01	1.95581182e-02	4.09235725e-04
1.15500000e-01	1.97116164e-02	4.14415017e-04
1.16000000e-01	1.97962817e-02	4.10349727e-04
1.16500000e-01	1.95417990e-02	4.11462351e-04
1.17000000e-01	1.95322550e-02	4.08078877e-04
1.17500000e-01	1.93956480e-02	4.02766621e-04
1.18000000e-01	1.98124566e-02	4.09023077e-04
1.18500000e-01	1.96175464e-02	4.03949198e-04
1.19000000e-01	1.95111355e-02	4.01716914e-04
1.19500000e-01	1.96049739e-02	4.02784459e-04
1.20000000e-01	1.98147902e-02	4.05081884e-04
1.20500000e-01	1.96120058e-02	4.01418789e-04
1.21000000e-01	1.95518410e-02	3.99983747e-04
1.21500000e-01	1.99472907e-02	4.05560901e-04
1.22000000e-01	1.96610951e-02	3.99749118e-04
1.22500000e-01	1.96734977e-02	3.98876198e-04
1.23000000e-01	1.99177358e-02	4.01942661e-04
1.23500000e-01	1.93346492e-02	3.90296057e-04
1.24000000e-01	1.96437824e-02	3.95465030e-04
1.24500000e-01	1.94053168e-02	3.88395134e-04
1.25000000e-01	1.98495933e-02	3.97785329e-04
1.25500000e-01	1.93762773e-02	3.88107839e-04
1.26000000e-01	1.96058287e-02	3.92417531e-04
1.26500000e-01	1.96108065e-02	3.90941368e-04
1.27000000e-01	1.92042799e-02	3.82319078e-04
1.27500000e-01	1.98201690e-02	3.92285288e-04
1.28000000e-01	1.97515216e-02	3.90337164e-04
1.28500000e-01	1.94800655e-02	3.85271115e-04
1.29000000e-01	1.93757454e-02	3.83653775e-04
1.29500000e-01	1.92802325e-02	3.79627996e-04
1.30000000e-01	1.96868970e-02	3.86270092e-04
1.30500000e-01	1.91733080e-02	3.75782467e-04
1.31000000e-01	1.96268021e-02	3.82473999e-04
1.31500000e-01	1.94927323e-02	3.79745366e-04
1.32000000e-01	1.94402437e-02	3.79466043e-04
1.32500000e-01	1.90497130e-02	3.71716981e-04
1.33000000e-01	1.96810655e-02	3.80154472e-04
1.33500000e-01	1.97500326e-02	3.78477983e-04
1.34000000e-01	1.95632773e-02	3.76683140e-04
1.34500000e-01	1.99906260e-02	3.82829031e-04
1.35000000e-01	1.93613546e-02	3.70579291e-04
1.35500000e-01	1.94066730e-02	3.70705292e-04
1.36000000e-01	1.92849468e-02	3.67398729e-04
1.36500000e-01	1.92797218e-02	3.67876980e-04
1.37000000e-01	1.95628852e-02	3.71848386e-04
1.37500000e-01	1.96092906e-02	3.72441022e-04
1.38000000e-01	1.92486754e-02	3.65429727e-04
1.38500000e-01	1.93968493e-02	3.66880309e-04
1.39000000e-01	1.96569929e-02	3.72578247e-04
1.39500000e-01	1.92809206e-02	3.65384838e-04
1.40000000e-01	1.96007895e-02	3.69933645e-04
1.40500000e-01	1.93818171e-02	3.67242199e-04
1.41000000e-01	1.93400950e-02	3.64158476e-04
1.41500000e-01	1.91823149e-02	3.63549857e-04
1.42000000e-01	1.93516100e-02	3.63971049e-04
1.42500000e-01	1.94749811e-02	3.66781491e-04
1.43000000e-01	1.91684810e-02	3.59044762e-04
1.43500000e-01	1.92498492e-02	3.60704373e-04
1.44000000e-01	1.92068236e-02	3.58664426e-04
1.44500000e-01	1.94395545e-02	3.61218648e-04
1.45000000e-01	1.92718234e-02	3.57633940e-04
1.45500000e-01	1.91792352e-02	3.56055150e-04
1.46000000e-01	1.97185321e-02	3.64250401e-04
1.46500000e-01	1.95235881e-02	3.62645975e-04
1.47000000e-01	1.97640226e-02	3.63697365e-04
1.47500000e-01	1.95346972e-02	3.60226170e-04
1.48000000e-01	1.94525083e-02	3.59257489e-04
1.48500000e-01	1.92544159e-02	3.55805600e-04
1.49000000e-01	1.90888805e-02	3.51218336e-04
1.49500000e-01	1.91909088e-02	3.52879186e-04
1.50000000e-01	1.89586658e-02	3.46918161e-04
1.50500000e-01	1.91879375e-02	3.52420562e-04
1.51000000e-01	1.93355451e-02	3.51597900e-04
1.51500000e-01	1.92609939e-02	3.49774180e-04
1.52000000e-01	1.92879461e-02	3.48452128e-04
1.52500000e-01	1.90764699e-02	3.45434936e-04
1.53000000e-01	1.93357470e-02	3.48620447e-04
1.53500000e-01	1.95833033e-02	3.53632316e-04
1.54000000e-01	1.90855306e-02	3.44609350e-04
1.54500000e-01	1.93017354e-02	3.54640914e-04
1.55000000e-01	1.93463344e-02	3.59034995e-04
1.55500000e-01	1.90441339e-02	3.55892890e-04
1.56000000e-01	1.93362320e-02	3.64171429e-04
1.56500000e-01	1.85989425e-02	3.49895508e-04
1.57000000e-01	1.91995309e-02	3.62523283e-04
1.57500000e-01	1.91882787e-02	3.54501763e-04
1.58000000e-01	1.92129942e-02	3.50213416e-04
1.58500000e-01	1.89829249e-02	3.44576812e-04
1.59000000e-01	1.92401360e-02	3.47722406e-04
1.59500000e-01	1.92047823e-02	3.44905644e-04
1.60000000e-01	1.91077391e-02	3.44626193e-04
1.60500000e-01	1.91364119e-02	3.43143581e-04
1.61000000e-01	1.90215260e-02	3.41551553e-04
1.61500000e-01	1.91294060e-02	3.41712711e-04
1.62000000e-01	1.91456311e-02	3.40869707e-04
1.62500000e-01	1.91524481e-02	3.41381311e-04
1.63000000e-01	1.89465648e-02	3.34451771e-04
1.63500000e-01	1.90468641e-02	3.38352954e-04
1.64000000e-01	1.89838051e-02	3.35061198e-04
1.64500000e-01	1.88119282e-02	3.31078359e-04
1.65000000e-01	1.90765935e-02	3.35884216e-04
1.65500000e-01	1.90685116e-02	3.34415206e-04
1.66000000e-01	1.89794981e-02	3.33906960e-04
1.66500000e-01	1.91793666e-02	3.33735355e-04
1.67000000e-01	1.89775948e-02	3.31964133e-04
1.67500000e-01	1.88218200e-02	3.28134039e-04
1.68000000e-01	1.87726435e-02	3.27723665e-04
1.68500000e-01	1.90162706e-02	3.30861320e-04
1.69000000e-01	1.88998369e-02	3.28052441e-04
1.69500000e-01	1.88038964e-02	3.27435744e-04
1.70000000e-01	1.91500070e-02	3.30790211e-04
1.70500000e-01	1.88683146e-02	3.26016103e-04
1.71000000e-01	1.90415206e-02	3.28544984e-04
1.71500000e-01	1.88443314e-02	3.26259045e-04
1.72000000e-01	1.88790209e-02	3.25295093e-04
1.72500000e-01	1.89335011e-02	3.26794728e-04
1.73000000e-01	1.86681763e-02	3.21314050e-04
1.73500000e-01	1.88292932e-02	3.21160347e-04
1.74000000e-01	1.87465078e-02	3.20792658e-04
1.74500000e-01	1.88834325e-02	3.21246852e-04
1.75000000e-01	1.85934317e-02	3.15363274e-04
1.75500000e-01	1.84378510e-02	3.12072479e-04
1.76000000e-01	1.86725642e-02	3.17179811e-04
1.76500000e-01	1.85355049e-02	3.14169390e-04
1.77000000e-01	1.85406791e-02	3.13496956e-04
1.77500000e-01	1.86439113e-02	3.15353683e-04
1.78000000e-01	1.88626204e-02	3.18761158e-04
1.78500000e-01	1.87306443e-02	3.16701075e-04
1.79000000e-01	1.88219983e-02	3.16129875e-04
1.79500000e-01	1.86735933e-02	3.14604354e-04
1.80000000e-01	1.86284657e-02	3.13037722e-04
1.80500000e-01	1.85146210e-02	3.11782897e-04
1.81000000e-01	1.87039956e-02	3.15390553e-04
1.81500000e-01	1.88043375e-02	3.14400596e-04
1.82000000e-01	1.87511371e-02	3.14376178e-04
1.82500000e-01	1.86735829e-02	3.12509045e-04
1.83000000e-01	1.86291968e-02	3.12247413e-04
1.83500000e-01	1.83442221e-02	3.06248627e-04
1.84000000e-01	1.84494806e-02	3.07215457e-04
1.84500000e-01	1.85702882e-02	3.09408104e-04
1.85000000e-01	1.83408401e-02	3.06597561e-04
1.85500000e-01	1.87428798e-02	3.11263818e-04
1.86000000e-01	1.89561846e-02	3.14341951e-04
1.86500000e-01	1.85674536e-02	3.07071764e-04
1.87000000e-01	1.86528493e-02	3.08747565e-04
1.87500000e-01	1.84287364e-02	3.05465015e-04
1.88000000e-01	1.87194930e-02	3.08213563e-04
1.88500000e-01	1.84519204e-02	3.04165820e-04
1.89000000e-01	1.84199906e-02	3.03858051e-04
1.89500000e-01	1.87370348e-02	3.07913096e-04
1.90000000e-01	1.84267589e-02	3.02553815e-04
1.90500000e-01	1.85546057e-02	3.04830718e-04
1.91000000e-01	1.82620177e-02	2.99880746e-04
1.91500000e-01	1.86212823e-02	3.04709698e-04
1.92000000e-01	1.87011309e-02	3.04629384e-04
1.92500000e-01	1.85831093e-02	3.02775941e-04
1.93000000e-01	1.84212399e-02	3.00620909e-04
1.93500000e-01	1.83894068e-02	2.98647558e-04
1.94000000e-01	1.82428210e-02	2.96426961e-04
1.94500000e-01	1.80723036e-02	2.93063759e-04
1.95000000e-01	1.83402057e-02	2.97746551e-04
1.95500000e-01	1.85023476e-02	2.97759559e-04
1.96000000e-01	1.81731726e-02	2.94196544e-04
1.96500000e-01	1.83882155e-02	2.98116403e-04
1.97000000e-01	1.80620942e-02	2.91645460e-04
1.97500000e-01	1.81262327e-02	2.91428745e-04
1.98000000e-01	1.81022786e-02	2.93205335e-04
1.98500000e-01	1.84712384e-02	2.96925212e-04
1.99000000e-01	1.83884717e-02	2.95699295e-04
1.99500000e-01	1.80966861e-02	2.89303790e-04
2.00000000e-01	1.84982980e-02	2.95908451e-04
2.00500000e-01	1.83277059e-02	2.93288961e-04
2.01000000e-01	1.84504804e-02	2.94367360e-04
2.01500000e-01	1.80754300e-02	2.88287597e-04
2.02000000e-01	1.83021197e-02	2.91450956e-04
2.02500000e-01	1.81116419e-02	2.88011566e-04
2.03000000e-01	1.81212917e-02	2.87057858e-04
2.03500000e-01	1.82013186e-02	2.89201699e-04
2.04000000e-01	1.82910605e-02	2.89518119e-04
2.04500000e-01	1.82535892e-02	2.90160084e-04
2.05000000e-01	1.81004376e-02	2.86268288e-04
2.05500000e-01	1.81098872e-02	2.86204084e-04
2.06000000e-01	1.82484115e-02	2.87923611e-04
2.06500000e-01	1.81861798e-02	2.87133953e-04
2.07000000e-01	1.81541998e-02	2.85570275e-04
2.07500000e-01	1.82284094e-02	2.86861857e-04
2.08000000e-01	1.82116713e-02	2.87017855e-04
2.08500000e-01	1.81593211e-02	2.84590849e-04
2.09000000e-01	1.81922687e-02	2.86007712e-04
2.09500000e-01	1.79966221e-02	2.81915803e-04
2.10000000e-01	1.82836472e-02	2.86670519e-04
2.10500000e-01	1.79047124e-02	2.80279546e-04
2.11000000e-01	1.79438005e-02	2.80482446e-04
2.11500000e-01	1.83468457e-02	2.87970074e-04
2.12000000e-01	1.81463681e-02	2.81806662e-04
2.12500000e-01	1.79584333e-02	2.79668694e-04
2.13000000e-01	1.80887147e-02	2.80898452e-04
2.13500000e-01	1.78695066e-02	2.77277173e-04
2.14000000e-01	1.80018290e-02	2.79138793e-04
2.14500000e-01	1.79669711e-02	2.78135511e-04
2.15000000e-01	1.82023998e-02	2.82696511e-04
2.15500000e-01	1.78290500e-02	2.74643158e-04
2.16000000e-01	1.79218882e-02	2.77282618e-04
2.16500000e-01	1.80942193e-02	2.80100369e-04
2.17000000e-01	1.78431526e-02	2.79973542e-04
2.17500000e-01	1.80799686e-02	2.87628298e-04
2.18000000e-01	1.79055217e-02	2.84612885e-04
2.18500000e-01	1.80403633e-02	2.89550537e-04
2.19000000e-01	1.79323806e-02	2.88470971e-04
2.19500000e-01	1.80180548e-02	2.91155839e-04
2.20000000e-01	1.81924422e-02	2.95926513e-04
2.20500000e-01	1.80715956e-02	2.93149125e-04
2.21000000e-01	1.78359545e-02	2.91574340e-04
2.21500000e-01	1.78707904e-02	2.93636779e-04
2.22000000e-01	1.76653966e-02	2.89051801e-04
2.22500000e-01	1.78426572e-02	2.93682043e-04
2.23000000e-01	1.78358477e-02	2.94746422e-04
2.23500000e-01	1.79292103e-02	2.96272532e-04
2.24000000e-01	1.79050019e-02	2.95935117e-04
2.24500000e-01	1.82061149e-02	3.02811107e-04
2.25000000e-01	1.78525891e-02	2.97108232e-04
2.25500000e-01	1.79487220e-02	2.97531846e-04
2.26000000e-01	1.80305117e-02	3.00778836e-04
2.26500000e-01	1.78353733e-02	2.93231582e-04
2.27000000e-01	1.80863430e-02	2.94264864e-04
2.27500000e-01	1.79565390e-02	2.89489841e-04
2.28000000e-01	1.81397705e-02	2.91215114e-04
2.28500000e-01	1.79169393e-02	2.85585852e-04
2.29000000e-01	1.77923661e-02	2.83649983e-04
2.29500000e-01	1.76116123e-02	2.79075801e-04
2.30000000e-01	1.79828832e-02	2.84025624e-04
2.30500000e-01	1.80356918e-02	2.84309749e-04
2.31000000e-01	1.79060179e-02	2.82151731e-04
2.31500000e-01	1.74505382e-02	2.75090725e-04
2.32000000e-01	1.77430506e-02	2.77673281e-04
2.32500000e-01	1.76406878e-02	2.75006221e-04
2.33000000e-01	1.75942636e-02	2.74020547e-04
2.33500000e-01	1.77017793e-02	2.75295132e-04
2.34000000e-01	1.76856987e-02	2.73230805e-04
2.34500000e-01	1.78480116e-02	2.75938833e-04
2.35000000e-01	1.76599183e-02	2.73081641e-04
2.35500000e-01	1.78811511e-02	2.74592344e-04
2.36000000e-01	1.76782365e-02	2.70872954e-04
2.36500000e-01	1.78693504e-02	2.73617575e-04
2.37000000e-01	1.75825221e-02	2.70094702e-04
2.37500000e-01	1.78993858e-02	2.75250072e-04
2.38000000e-01	1.74378930e-02	2.67039781e-04
2.38500000e-01	1.76177127e-02	2.70228786e-04
2.39000000e-01	1.75245722e-02	2.67217021e-04
2.39500000e-01	1.77718461e-02	2.70776850e-04
2.40000000e-01	1.77042673e-02	2.68769263e-04
2.40500000e-01	1.76130298e-02	2.66376963e-04
2.41000000e-01	1.77780386e-02	2.69019534e-04
2.41500000e-01	1.76210216e-02	2.66003860e-04
2.42000000e-01	1.77931274e-02	2.68541674e-04
2.42500000e-01	1.77087549e-02	2.66890929e-04
2.43000000e-01	1.75964563e-02	2.64906768e-04
2.43500000e-01	1.76012686e-02	2.64401447e-04
2.44000000e-01	1.75790953e-02	2.63484635e-04
2.44500000e-01	1.76093537e-02	2.63825742e-04
2.45000000e-01	1.75997415e-02	2.62199610e-04
2.45500000e-01	1.76412242e-02	2.63904150e-04
2.46000000e-01	1.75974779e-02	2.62647016e-04
2.46500000e-01	1.76177329e-02	2.61469146e-04
2.47000000e-01	1.76205567e-02	2.62188448e-04
2.47500000e-01	1.74863538e-02	2.58454406e-04
2.48000000e-01	1.72866588e-02	2.56496986e-04
2.48500000e-01	1.74097141e-02	2.57925811e-04
2.49000000e-01	1.76298759e-02	2.60618465e-04
2.49500000e-01	1.73330971e-02	2.56843594e-04
2.50000000e-01	1.74640260e-02	2.56633608e-04
2.50500000e-01	1.74339032e-02	2.57774234e-04
2.51000000e-01	1.73848257e-02	2.56446915e-04
2.51500000e-01	1.75745523e-02	2.59422904e-04
2.52000000e-01	1.75206489e-02	2.57979083e-04
2.52500000e-01	1.71904867e-02	2.52654854e-04
2.53000000e-01	1.73230552e-02	2.55145467e-04
2.53500000e-01	1.73172100e-02	2.53941287e-04
2.54000000e-01	1.76535565e-02	2.59040859e-04
2.54500000e-01	1.75326312e-02	2.55870528e-04
2.55000000e-01	1.73685647e-02	2.54849811e-04
2.55500000e-01	1.75543297e-02	2.57627479e-04
2.56000000e-01	1.73873179e-02	2.54269679e-04
2.56500000e-01	1.73040193e-02	2.52280412e-04
2.57000000e-01	1.70626193e-02	2.48289761e-04
2.57500000e-01	1.75836205e-02	2.54229169e-04
2.58000000e-01	1.73195902e-02	2.52130060e-04
2.58500000e-01	1.71293460e-02	2.48863504e-04
2.59000000e-01	1.72715753e-02	2.50460062e-04
2.59500000e-01	1.72566707e-02	2.49575096e-04
2.60000000e-01	1.74067185e-02	2.50671019e-04
2.60500000e-01	1.71374533e-02	2.49124432e-04
2.61000000e-01	1.73965161e-02	2.50503352e-04
2.61500000e-01	1.73199732e-02	2.49685253e-04
2.62000000e-01	1.74603672e-02	2.50611914e-04
2.62500000e-01	1.71814325e-02	2.47586627e-04
2.63000000e-01	1.71885347e-02	2.47334848e-04
2.63500000e-01	1.71240543e-02	2.45824294e-04
2.64000000e-01	1.73533523e-02	2.50086669e-04
2.64500000e-01	1.70300512e-02	2.44188161e-04
2.65000000e-01	1.73267134e-02	2.47471153e-04
2.65500000e-01	1.72725929e-02	2.47325733e-04
2.66000000e-01	1.72655396e-02	2.47924893e-04
2.66500000e-01	1.70924285e-02	2.43495829e-04
2.67000000e-01	1.71219229e-02	2.44722603e-04
2.67500000e-01	1.74401352e-02	2.47180802e-04
2.68000000e-01	1.69861153e-02	2.41558920e-04
2.68500000e-01	1.70150578e-02	2.41398272e-04
2.69000000e-01	1.73668680e-02	2.45708723e-04
2.69500000e-01	1.70726409e-02	2.41396890e-04
2.70000000e-01	1.71097338e-02	2.42598780e-04
2.70500000e-01	1.70156381e-02	2.40094413e-04
2.71000000e-01	1.73186855e-02	2.44050208e-04
2.71500000e-01	1.72500592e-02	2.43746519e-04
2.72000000e-01	1.69112222e-02	2.38441082e-04
2.72500000e-01	1.70444214e-02	2.41100672e-04
2.73000000e-01	1.70966142e-02	2.39942200e-04
2.73500000e-01	1.71200348e-02	2.40920099e-04
2.74000000e-01	1.72727884e-02	2.42458623e-04
2.74500000e-01	1.69274067e-02	2.37299392e-04
2.75000000e-01	1.71068224e-02	2.39829567e-04
2.75500000e-01	1.72880614e-02	2.43557303e-04
2.76000000e-01	1.71856663e-02	2.40701948e-04
2.76500000e-01	1.68991925e-02	2.36433801e-04
2.77000000e-01	1.71204377e-02	2.39443502e-04
2.77500000e-01	1.69258606e-02	2.36481617e-04
2.78000000e-01	1.72309405e-02	2.40207229e-04
2.78500000e-01	1.69982112e-02	2.38352624e-04
2.79000000e-01	1.67914670e-02	2.33862515e-04
2.79500000e-01	1.69108031e-02	2.35057003e-04
2.80000000e-01	1.69781872e-02	2.36783802e-04
2.80500000e-01	1.70010106e-02	2.36423849e-04
2.81000000e-01	1.68972034e-02	2.35113719e-04
2.81500000e-01	1.69654636e-02	2.34937029e-04
2.82000000e-01	1.68665407e-02	2.34142241e-04
2.82500000e-01	1.69286012e-02	2.34838480e-04
2.83000000e-01	1.71282749e-02	2.36429960e-04
2.83500000e-01	1.68644036e-02	2.33066134e-04
2.84000000e-01	1.68781093e-02	2.33187167e-04
2.84500000e-01	1.70578636e-02	2.34835526e-04
2.85000000e-01	1.69929615e-02	2.33353048e-04
2.85500000e-01	1.70699322e-02	2.34738695e-04
2.86000000e-01	1.69717837e-02	2.34389291e-04
2.86500000e-01	1.68260058e-02	2.31693607e-04
2.87000000e-01	1.69175510e-02	2.33368137e-04
2.87500000e-01	1.70614017e-02	2.33877225e-04
2.88000000e-01	1.68068214e-02	2.29098824e-04
2.88500000e-01	1.70178808e-02	2.32610033e-04
2.89000000e-01	1.67740663e-02	2.29467234e-04
2.89500000e-01	1.68999885e-02	2.31221058e-04
2.90000000e-01	1.67460430e-02	2.29079627e-04
2.90500000e-01	1.67699647e-02	2.29209595e-04
2.91000000e-01	1.66573590e-02	2.27067729e-04
2.91500000e-01	1.69980746e-02	2.30602634e-04
2.92000000e-01	1.67822252e-02	2.28131550e-04
2.92500000e-01	1.68395343e-02	2.28785492e-04
2.93000000e-01	1.69750465e-02	2.30562986e-04
2.93500000e-01	1.66422246e-02	2.26622357e-04
2.94000000e-01	1.67572067e-02	2.26431038e-04
2.94500000e-01	1.69248543e-02	2.29497680e-04
2.95000000e-01	1.67498961e-02	2.26525387e-04
2.95500000e-01	1.67748061e-02	2.26758205e-04
2.96000000e-01	1.67578218e-02	2.26160560e-04
2.96500000e-01	1.69254931e-02	2.27567971e-04
2.97000000e-01	1.67840551e-02	2.27260286e-04
2.97500000e-01	1.67928650e-02	2.26474059e-04
2.98000000e-01	1.64954145e-02	2.22433780e-04
2.98500000e-01	1.68737743e-02	2.27095908e-04
2.99000000e-01	1.69897116e-02	2.28970595e-04
2.99500000e-01	1.67879976e-02	2.25349607e-04
3.00000000e-01	1.67443610e-02	2.24327664e-04
3.00500000e-01	1.67544687e-02	2.24809087e-04
3.01000000e-01	1.68040859e-02	2.24731054e-04
3.01500000e-01	1.66353023e-02	2.23504991e-04
3.02000000e-01	1.65771647e-02	2.21707149e-04
3.02500000e-01	1.65626027e-02	2.21547404e-04
3.03000000e-01	1.67216060e-02	2.25326323e-04
3.03500000e-01	1.68614820e-02	2.24834217e-04
3.04000000e-01	1.65886621e-02	2.21497175e-04
3.04500000e-01	1.65002286e-02	2.19489858e-04
3.05000000e-01	1.66297801e-02	2.21201659e-04
3.05500000e-01	1.67179945e-02	2.22734117e-04
3.06000000e-01	1.66820027e-02	2.21002850e-04
3.06500000e-01	1.68974781e-02	2.24881500e-04
3.07000000e-01	1.65758158e-02	2.19432552e-04
3.07500000e-01	1.67072072e-02	2.21465781e-04
3.08000000e-01	1.65085448e-02	2.19089088e-04
3.08500000e-01	1.66657449e-02	2.19725096e-04
3.09000000e-01	1.66993058e-02	2.21326633e-04
3.09500000e-01	1.65434739e-02	2.18547613e-04
3.10000000e-01	1.65230213e-02	2.18525044e-04
3.10500000e-01	1.63710501e-02	2.16975711e-04
3.11000000e-01	1.64740631e-02	2.16589638e-04
3.11500000e-01	1.66235628e-02	2.19929088e-04
3.12000000e-01	1.67509427e-02	2.21175380e-04
3.12500000e-01	1.66587433e-02	2.18704101e-04
3.13000000e-01	1.64548415e-02	2.16524452e-04
3.13500000e-01	1.64802184e-02	2.16281891e-04
3.14000000e-01	1.65814983e-02	2.17459639e-04
3.14500000e-01	1.63936727e-02	2.14880298e-04
3.15000000e-01	1.63741316e-02	2.15107013e-04
3.15500000e-01	1.62618876e-02	2.13685127e-04
3.16000000e-01	1.62698697e-02	2.14013732e-04
3.16500000e-01	1.65378799e-02	2.15591552e-04
3.17000000e-01	1.64636398e-02	2.15225179e-04
3.17500000e-01	1.64076806e-02	2.14302633e-04
3.18000000e-01	1.63890041e-02	2.14034923e-04
3.18500000e-01	1.64465875e-02	2.14453799e-04
3.19000000e-01	1.63486079e-02	2.12986252e-04
3.19500000e-01	1.63116919e-02	2.12600401e-04
3.20000000e-01	1.64006628e-02	2.13828693e-04
3.20500000e-01	1.64289911e-02	2.12225307e-04
3.21000000e-01	1.62806492e-02	2.11607901e-04
3.21500000e-01	1.63526904e-02	2.12533774e-04
3.22000000e-01	1.63380329e-02	2.11904503e-04
3.22500000e-01	1.62750036e-02	2.10631953e-04
3.23000000e-01	1.65532467e-02	2.14441613e-04
3.23500000e-01	1.63047434e-02	2.11325777e-04
3.24000000e-01	1.61880150e-02	2.09638209e-04
3.24500000e-01	1.62513102e-02	2.11121096e-04
3.25000000e-01	1.60085145e-02	2.06906453e-04
3.25500000e-01	1.60738380e-02	2.07894014e-04
3.26000000e-01	1.62745117e-02	2.09746453e-04
3.26500000e-01	1.64055453e-02	2.10910462e-04
3.27000000e-01	1.61875717e-02	2.09139639e-04
3.27500000e-01	1.62826095e-02	2.09526045e-04
3.28000000e-01	1.60089973e-02	2.06581561e-04
3.28500000e-01	1.62112539e-02	2.07981741e-04
3.29000000e-01	1.63486629e-02	2.09831492e-04
3.29500000e-01	1.62758760e-02	2.08650007e-04
3.30000000e-01	1.61136281e-02	2.06758476e-04
3.30500000e-01	1.63957616e-02	2.09027468e-04
3.31000000e-01	1.62327241e-02	2.08251653e-04
3.31500000e-01	1.59586358e-02	2.04524455e-04
3.32000000e-01	1.60017248e-02	2.04825447e-04
3.32500000e-01	1.61726357e-02	2.05873771e-04
3.33000000e-01	1.64128622e-02	2.09550583e-04
3.33500000e-01	1.59843143e-02	2.04339079e-04
3.34000000e-01	1.60689744e-02	2.04622651e-04
3.34500000e-01	1.61494126e-02	2.05728203e-04
3.35000000e-01	1.61060352e-02	2.04725862e-04
3.35500000e-01	1.58940343e-02	2.02836123e-04
3.36000000e-01	1.61999726e-02	2.05932368e-04
3.36500000e-01	1.61577994e-02	2.05527906e-04
3.37000000e-01	1.60515642e-02	2.03631900e-04
3.37500000e-01	1.59932161e-02	2.03557132e-04
3.38000000e-01	1.60254081e-02	2.03585601e-04
3.38500000e-01	1.61336488e-02	2.04301198e-04
3.39000000e-01	1.60857542e-02	2.04530661e-04
3.39500000e-01	1.59773330e-02	2.01711616e-04
3.40000000e-01	1.59300358e-02	2.01986180e-04
3.40500000e-01	1.57778353e-02	1.99910646e-04
3.41000000e-01	1.57209451e-02	1.98588486e-04
3.41500000e-01	1.60632861e-02	2.02605624e-04
3.42000000e-01	1.59411349e-02	2.00502485e-04
3.42500000e-01	1.60063915e-02	2.01892358e-04
3.43000000e-01	1.59892557e-02	2.01883834e-04
3.43500000e-01	1.57757352e-02	1.99156897e-04
3.44000000e-01	1.58994810e-02	2.00509393e-04
3.44500000e-01	1.58868987e-02	1.99712897e-04
3.45000000e-01	1.60016311e-02	2.00970475e-04
3.45500000e-01	1.57836405e-02	1.97636082e-04
3.46000000e-01	1.60403713e-02	2.01149856e-04
3.46500000e-01	1.60169547e-02	2.01286104e-04
3.47000000e-01	1.57207924e-02	1.96835586e-04
3.47500000e-01	1.58325361e-02	1.98536766e-04
3.48000000e-01	1.59113687e-02	1.99803433e-04
3.48500000e-01	1.57035662e-02	1.96508551e-04
3.49000000e-01	1.59349180e-02	1.99009035e-04
3.49500000e-01	1.58567537e-02	1.98781155e-04
3.50000000e-01	1.58890012e-02	1.61942925e-04
3.51000000e-01	1.58447063e-02	1.39827727e-04
3.52000000e-01	1.57603640e-02	1.39048995e-04
3.53000000e-01	1.57529169e-02	1.38443698e-04
3.54000000e-01	1.57129764e-02	1.37496498e-04
3.55000000e-01	1.58529057e-02	1.38537266e-04
3.56000000e-01	1.57924313e-02	1.39021758e-04
3.57000000e-01	1.57601580e-02	1.41102925e-04
3.58000000e-01	1.56323437e-02	1.40973939e-04
3.59000000e-01	1.58236622e-02	1.43767295e-04
3.60000000e-01	1.56912553e-02	1.43719978e-04
3.61000000e-01	1.55766301e-02	1.43490572e-04
3.62000000e-01	1.55781853e-02	1.44429676e-04
3.63000000e-01	1.55986570e-02	1.44467390e-04
3.64000000e-01	1.55638775e-02	1.44469965e-04
3.65000000e-01	1.55366786e-02	1.45475243e-04
3.66000000e-01	1.55611216e-02	1.43883492e-04
3.67000000e-01	1.55907264e-02	1.41678796e-04
3.68000000e-01	1.54902198e-02	1.39945102e-04
3.69000000e-01	1.56215931e-02	1.40449122e-04
3.70000000e-01	1.55360622e-02	1.38718087e-04
3.71000000e-01	1.54655307e-02	1.39804720e-04
3.72000000e-01	1.55859117e-02	1.42147308e-04
3.73000000e-01	1.55377824e-02	1.42038520e-04
3.74000000e-01	1.55338562e-02	1.42301262e-04
3.75000000e-01	1.54549341e-02	1.41256339e-04
3.76000000e-01	1.55142675e-02	1.42235794e-04
3.77000000e-01	1.54027214e-02	1.41405667e-04
3.78000000e-01	1.54075973e-02	1.40959968e-04
3.79000000e-01	1.53898701e-02	1.41080744e-04
3.80000000e-01	1.53567461e-02	1.39981236e-04
3.81000000e-01	1.53741973e-02	1.40721158e-04
3.82000000e-01	1.53702083e-02	1.40418302e-04
3.83000000e-01	1.53794310e-02	1.40167477e-04
3.84000000e-01	1.53329353e-02	1.39756910e-04
3.85000000e-01	1.53951658e-02	1.40918044e-04
3.86000000e-01	1.53405603e-02	1.40649778e-04
3.87000000e-01	1.52782374e-02	1.39529089e-04
3.88000000e-01	1.52970256e-02	1.39566785e-04
3.89000000e-01	1.53890426e-02	1.40388292e-04
3.90000000e-01	1.52243171e-02	1.38860018e-04
3.91000000e-01	1.52681062e-02	1.39461647e-04
3.92000000e-01	1.51413709e-02	1.38227443e-04
3.93000000e-01	1.52632151e-02	1.38651720e-04
3.94000000e-01	1.52478168e-02	1.38753006e-04
3.95000000e-01	1.50850689e-02	1.37325827e-04
3.96000000e-01	1.51212986e-02	1.37912409e-04
3.97000000e-01	1.50871023e-02	1.37618101e-04
3.98000000e-01	1.51085977e-02	1.37706049e-04
3.99000000e-01	1.51203623e-02	1.37932991e-04
4.00000000e-01	1.51612578e-02	1.38157675e-04
4.01000000e-01	1.50219966e-02	1.36809655e-04
4.02000000e-01	1.50282300e-02	1.36788554e-04
4.03000000e-01	1.50695213e-02	1.37125172e-04
4.04000000e-01	1.50753533e-02	1.37113248e-04
4.05000000e-01	1.50680054e-02	1.37435991e-04
4.06000000e-01	1.51187286e-02	1.37687608e-04
4.07000000e-01	1.50630727e-02	1.36864086e-04
4.08000000e-01	1.51334789e-02	1.37551890e-04
4.09000000e-01	1.50020421e-02	1.35910941e-04
4.10000000e-01	1.49821341e-02	1.36851752e-04
4.11000000e-01	1.50011370e-02	1.36487271e-04
4.12000000e-01	1.49830724e-02	1.36418761e-04
4.13000000e-01	1.50458796e-02	1.36560780e-04
4.14000000e-01	1.48590049e-02	1.34949227e-04
4.15000000e-01	1.49371985e-02	1.35713485e-04
4.16000000e-01	1.48592380e-02	1.35191350e-04
4.17000000e-01	1.49142577e-02	1.35235203e-04
4.18000000e-01	1.51859521e-02	1.39100090e-04
4.19000000e-01	1.48568878e-02	1.38023619e-04
4.20000000e-01	1.49404973e-02	1.39475032e-04
4.21000000e-01	1.50246914e-02	1.40410601e-04
4.22000000e-01	1.50443887e-02	1.40993935e-04
4.23000000e-01	1.48514166e-02	1.40375258e-04
4.24000000e-01	1.48889956e-02	1.40938809e-04
4.25000000e-01	1.51001428e-02	1.42714053e-04
4.26000000e-01	1.50155969e-02	1.42043423e-04
4.27000000e-01	1.49510327e-02	1.41913838e-04
4.28000000e-01	1.49622452e-02	1.42028311e-04
4.29000000e-01	1.47667906e-02	1.40852466e-04
4.30000000e-01	1.48618758e-02	1.41347897e-04
4.31000000e-01	1.48961159e-02	1.41367849e-04
4.32000000e-01	1.48752915e-02	1.41158562e-04
4.33000000e-01	1.48786961e-02	1.41300899e-04
4.34000000e-01	1.47607729e-02	1.40698434e-04
4.35000000e-01	1.49268616e-02	1.42023233e-04
4.36000000e-01	1.48149463e-02	1.40947805e-04
4.37000000e-01	1.48515687e-02	1.41851064e-04
4.38000000e-01	1.47401640e-02	1.40970008e-04
4.39000000e-01	1.47996651e-02	1.41614990e-04
4.40000000e-01	1.48761315e-02	1.42326290e-04
4.41000000e-01	1.48214639e-02	1.42265876e-04
4.42000000e-01	1.48432495e-02	1.43077460e-04
4.43000000e-01	1.47242143e-02	1.42098224e-04
4.44000000e-01	1.46813502e-02	1.41660029e-04
4.45000000e-01	1.49135115e-02	1.43772292e-04
4.46000000e-01	1.47085515e-02	1.42105935e-04
4.47000000e-01	1.47492085e-02	1.42874203e-04
4.48000000e-01	1.46845386e-02	1.42528394e-04
4.49000000e-01	1.47230955e-02	1.43222213e-04
4.50000000e-01	1.47795525e-02	1.43273636e-04
4.51000000e-01	1.45862973e-02	1.42159008e-04
4.52000000e-01	1.46088233e-02	1.42479047e-04
4.53000000e-01	1.47832885e-02	1.43478027e-04
4.54000000e-01	1.46368879e-02	1.42296516e-04
4.55000000e-01	1.47295496e-02	1.43801960e-04
4.56000000e-01	1.44919218e-02	1.41477535e-04
4.57000000e-01	1.46281910e-02	1.42768060e-04
4.58000000e-01	1.44980244e-02	1.41786076e-04
4.59000000e-01	1.46346120e-02	1.43251374e-04
4.60000000e-01	1.45715007e-02	1.42307966e-04
4.61000000e-01	1.46243496e-02	1.43313583e-04
4.62000000e-01	1.45986780e-02	1.42937444e-04
4.63000000e-01	1.45471908e-02	1.42867970e-04
4.64000000e-01	1.46614370e-02	1.43530801e-04
4.65000000e-01	1.45962435e-02	1.43592338e-04
4.66000000e-01	1.45213610e-02	1.43243271e-04
4.67000000e-01	1.46595569e-02	1.44382792e-04
4.68000000e-01	1.44948941e-02	1.42827416e-04
4.69000000e-01	1.45103927e-02	1.43143108e-04
4.70000000e-01	1.45310708e-02	1.43325437e-04
4.71000000e-01	1.43905829e-02	1.41516495e-04
4.72000000e-01	1.45402803e-02	1.42836140e-04
4.73000000e-01	1.45477646e-02	1.43313550e-04
4.74000000e-01	1.44040720e-02	1.41826811e-04
4.75000000e-01	1.45551112e-02	1.43199777e-04
4.76000000e-01	1.45291657e-02	1.43057032e-04
4.77000000e-01	1.44574252e-02	1.42530693e-04
4.78000000e-01	1.43711158e-02	1.41697772e-04
4.79000000e-01	1.45660400e-02	1.43578124e-04
4.80000000e-01	1.42660769e-02	1.40630729e-04
4.81000000e-01	1.43363869e-02	1.41733080e-04
4.82000000e-01	1.43041435e-02	1.41708575e-04
4.83000000e-01	1.44331054e-02	1.42616757e-04
4.84000000e-01	1.42795013e-02	1.41234613e-04
4.85000000e-01	1.43384231e-02	1.41897787e-04
4.86000000e-01	1.43875619e-02	1.42320283e-04
4.87000000e-01	1.42772154e-02	1.42103980e-04
4.88000000e-01	1.44353038e-02	1.43041364e-04
4.89000000e-01	1.41213300e-02	1.40760000e-04
4.90000000e-01	1.42915859e-02	1.41707136e-04
4.91000000e-01	1.43671288e-02	1.42507745e-04
4.92000000e-01	1.43622713e-02	1.43072261e-04
4.93000000e-01	1.42658204e-02	1.42136542e-04
4.94000000e-01	1.43537552e-02	1.42601989e-04
4.95000000e-01	1.43581823e-02	1.43917853e-04
4.96000000e-01	1.41619616e-02	1.46216712e-04
4.97000000e-01	1.43022057e-02	1.50067176e-04
4.98000000e-01	1.42619685e-02	1.52353082e-04
4.99000000e-01	1.42893750e-02	1.53525552e-04
5.00000000e-01	1.43564377e-02	1.56533585e-04
5.01000000e-01	1.41107113e-02	1.55115461e-04
5.02000000e-01	1.43097877e-02	1.58802675e-04
5.03000000e-01	1.41744917e-02	1.58989399e-04
5.04000000e-01	1.43775928e-02	1.62321724e-04
5.05000000e-01	1.42682712e-02	1.59025773e-04
5.06000000e-01	1.42973823e-02	1.55345904e-04
5.07000000e-01	1.41975063e-02	1.52704992e-04
5.08000000e-01	1.43231776e-02	1.53143243e-04
5.09000000e-01	1.42770978e-02	1.51941400e-04
5.10000000e-01	1.40563778e-02	1.49564012e-04
5.11000000e-01	1.39909976e-02	1.48567617e-04
5.12000000e-01	1.41975057e-02	1.50020823e-04
5.13000000e-01	1.41164394e-02	1.49533180e-04
5.14000000e-01	1.41468881e-02	1.48970795e-04
5.15000000e-01	1.41086552e-02	1.48374094e-04
5.16000000e-01	1.42779052e-02	1.49576717e-04
5.17000000e-01	1.40943327e-02	1.47719143e-04
5.18000000e-01	1.42721237e-02	1.49186065e-04
5.19000000e-01	1.40513140e-02	1.46576562e-04
5.20000000e-01	1.40464139e-02	1.46133388e-04
5.21000000e-01	1.41517780e-02	1.47066253e-04
5.22000000e-01	1.41010574e-02	1.46911998e-04
5.23000000e-01	1.42242005e-02	1.47636848e-04
5.24000000e-01	1.40604273e-02	1.45831048e-04
5.25000000e-01	1.40833634e-02	1.46302944e-04
5.26000000e-01	1.41863000e-02	1.47187872e-04
5.27000000e-01	1.40841780e-02	1.45645313e-04
5.28000000e-01	1.39863333e-02	1.45261449e-04
5.29000000e-01	1.40613265e-02	1.45936367e-04
5.30000000e-01	1.39375990e-02	1.45342386e-04
5.31000000e-01	1.39866106e-02	1.45639893e-04
5.32000000e-01	1.39751137e-02	1.45427086e-04
5.33000000e-01	1.39231077e-02	1.44911898e-04
5.34000000e-01	1.40078264e-02	1.45811720e-04
5.35000000e-01	1.39967120e-02	1.45203775e-04
5.36000000e-01	1.39081614e-02	1.44781287e-04
5.37000000e-01	1.38735038e-02	1.44364293e-04
5.38000000e-01	1.39879006e-02	1.45002220e-04
5.39000000e-01	1.40158942e-02	1.45919461e-04
5.40000000e-01	1.40483732e-02	1.45268621e-04
5.41000000e-01	1.38943439e-02	1.44597868e-04
5.42000000e-01	1.38654687e-02	1.43723259e-04
5.43000000e-01	1.38314023e-02	1.44239591e-04
5.44000000e-01	1.38564655e-02	1.43485119e-04
5.45000000e-01	1.38316296e-02	1.43237118e-04
5.46000000e-01	1.38538878e-02	1.44135268e-04
5.47000000e-01	1.39303065e-02	1.44557136e-04
5.48000000e-01	1.37363172e-02	1.42862475e-04
5.49000000e-01	1.37989650e-02	1.43100026e-04
5.50000000e-01	1.36383281e-02	1.41708352e-04
5.51000000e-01	1.36926746e-02	1.41890229e-04
5.52000000e-01	1.37735226e-02	1.42508856e-04
5.53000000e-01	1.37460746e-02	1.42183019e-04
5.54000000e-01	1.37059836e-02	1.41600650e-04
5.55000000e-01	1.37484855e-02	1.41694888e-04
5.56000000e-01	1.38114833e-02	1.42297575e-04
5.57000000e-01	1.36738392e-02	1.41357317e-04
5.58000000e-01	1.34885518e-02	1.39191983e-04
5.59000000e-01	1.37152389e-02	1.40960195e-04
5.60000000e-01	1.36718804e-02	1.41291726e-04
5.61000000e-01	1.37428540e-02	1.41862730e-04
5.62000000e-01	1.35002028e-02	1.39752087e-04
5.63000000e-01	1.37269157e-02	1.41315704e-04
5.64000000e-01	1.35983872e-02	1.40637671e-04
5.65000000e-01	1.34902210e-02	1.40122055e-04
5.66000000e-01	1.36826686e-02	1.41995640e-04
5.67000000e-01	1.36457284e-02	1.41596513e-04
5.68000000e-01	1.36822137e-02	1.41726076e-04
5.69000000e-01	1.35076440e-02	1.39472759e-04
5.70000000e-01	1.35504120e-02	1.40152455e-04
5.71000000e-01	1.34883453e-02	1.39382153e-04
5.72000000e-01	1.35889838e-02	1.40226162e-04
5.73000000e-01	1.34636285e-02	1.39215678e-04
5.74000000e-01	1.34526653e-02	1.39037149e-04
5.75000000e-01	1.36280672e-02	1.40977502e-04
5.76000000e-01	1.35225505e-02	1.40041875e-04
5.77000000e-01	1.34511644e-02	1.39535240e-04
5.78000000e-01	1.34702017e-02	1.39640323e-04
5.79000000e-01	1.35370809e-02	1.40269284e-04
5.80000000e-01	1.35375102e-02	1.40075712e-04
5.81000000e-01	1.34848478e-02	1.39491490e-04
5.82000000e-01	1.34259244e-02	1.39281131e-04
5.83000000e-01	1.33823548e-02	1.38748244e-04
5.84000000e-01	1.32913729e-02	1.38283069e-04
5.85000000e-01	1.34641711e-02	1.39755814e-04
5.86000000e-01	1.34288235e-02	1.39380551e-04
5.87000000e-01	1.33848153e-02	1.39122782e-04
5.88000000e-01	1.33789038e-02	1.39258179e-04
5.89000000e-01	1.33081174e-02	1.38288783e-04
5.90000000e-01	1.32534713e-02	1.37719733e-04
5.91000000e-01	1.33351138e-02	1.39018894e-04
5.92000000e-01	1.33186498e-02	1.38636391e-04
5.93000000e-01	1.33236597e-02	1.38457508e-04
5.94000000e-01	1.33070404e-02	1.38265479e-04
5.95000000e-01	1.33208149e-02	1.38749140e-04
5.96000000e-01	1.33660990e-02	1.39770007e-04
5.97000000e-01	1.33539345e-02	1.38687041e-04
5.98000000e-01	1.32739322e-02	1.38308755e-04
5.99000000e-01	1.32007214e-02	1.37466061e-04
6.00000000e-01	1.32165324e-02	1.37204192e-04
6.01000000e-01	1.32746909e-02	1.38080621e-04
6.02000000e-01	1.32185844e-02	1.37656426e-04
6.03000000e-01	1.33679610e-02	1.39418081e-04
6.04000000e-01	1.30652016e-02	1.36768618e-04
6.05000000e-01	1.31777633e-02	1.37537319e-04
6.06000000e-01	1.32034883e-02	1.37820974e-04
6.07000000e-01	1.33225785e-02	1.39029844e-04
6.08000000e-01	1.31558487e-02	1.37334749e-04
6.09000000e-01	1.31410354e-02	1.36848531e-04
6.10000000e-01	1.31499545e-02	1.36982389e-04
6.11000000e-01	1.30939649e-02	1.36922689e-04
6.12000000e-01	1.32349997e-02	1.38046793e-04
6.13000000e-01	1.31729223e-02	1.37933305e-04
6.14000000e-01	1.32246352e-02	1.38169176e-04
6.15000000e-01	1.32050927e-02	1.37840765e-04
6.16000000e-01	1.32127216e-02	1.38212404e-04
6.17000000e-01	1.31303538e-02	1.37222407e-04
6.18000000e-01	1.30400501e-02	1.36463291e-04
6.19000000e-01	1.30916478e-02	1.36631510e-04
6.20000000e-01	1.31917706e-02	1.37293914e-04
6.21000000e-01	1.31244040e-02	1.36855366e-04
6.22000000e-01	1.30869599e-02	1.36437370e-04
6.23000000e-01	1.30994343e-02	1.35795478e-04
6.24000000e-01	1.30841292e-02	1.35699320e-04
6.25000000e-01	1.30232000e-02	1.34784446e-04
6.26000000e-01	1.29475660e-02	1.34220590e-04
6.27000000e-01	1.30445033e-02	1.35707024e-04
6.28000000e-01	1.31162253e-02	1.35644311e-04
6.29000000e-01	1.30609234e-02	1.35267399e-04
6.30000000e-01	1.30514713e-02	1.35517698e-04
6.31000000e-01	1.29890708e-02	1.34899526e-04
6.32000000e-01	1.28468339e-02	1.33622600e-04
6.33000000e-01	1.30379437e-02	1.34909015e-04
6.34000000e-01	1.31167176e-02	1.39308968e-04
6.35000000e-01	1.29786760e-02	1.42305718e-04
6.36000000e-01	1.29980077e-02	1.45235817e-04
6.37000000e-01	1.30948247e-02	1.48409261e-04
6.38000000e-01	1.30560942e-02	1.49314690e-04
6.39000000e-01	1.31325610e-02	1.52819261e-04
6.40000000e-01	1.30135823e-02	1.53221552e-04
6.41000000e-01	1.30853618e-02	1.55909556e-04
6.42000000e-01	1.29026529e-02	1.55609153e-04
6.43000000e-01	1.30030451e-02	1.56525104e-04
6.44000000e-01	1.30154013e-02	1.50495150e-04
6.45000000e-01	1.31572073e-02	1.49805299e-04
6.46000000e-01	1.30760449e-02	1.47577003e-04
6.47000000e-01	1.30411163e-02	1.45803593e-04
6.48000000e-01	1.28616810e-02	1.43849628e-04
6.49000000e-01	1.32314876e-02	1.46026789e-04
6.50000000e-01	1.30139198e-02	1.43348579e-04
6.51000000e-01	1.29681073e-02	1.43068192e-04
6.52000000e-01	1.27217802e-02	1.39522367e-04
6.53000000e-01	1.28546165e-02	1.40943467e-04
6.54000000e-01	1.30737326e-02	1.41821615e-04
6.55000000e-01	1.28975766e-02	1.40297716e-04
6.56000000e-01	1.28742542e-02	1.39916559e-04
6.57000000e-01	1.29899431e-02	1.40548909e-04
6.58000000e-01	1.29793883e-02	1.40516954e-04
6.59000000e-01	1.30395932e-02	1.40632454e-04
6.60000000e-01	1.29043845e-02	1.39510245e-04
6.61000000e-01	1.29852399e-02	1.39955047e-04
6.62000000e-01	1.28560738e-02	1.38864056e-04
6.63000000e-01	1.29180722e-02	1.39264642e-04
6.64000000e-01	1.29331069e-02	1.39412589e-04
6.65000000e-01	1.28526164e-02	1.38872961e-04
6.66000000e-01	1.29391371e-02	1.39417200e-04
6.67000000e-01	1.28669606e-02	1.38478917e-04
6.68000000e-01	1.29454284e-02	1.39282849e-04
6.69000000e-01	1.29324909e-02	1.39143012e-04
6.70000000e-01	1.27091918e-02	1.36855760e-04
6.71000000e-01	1.27905147e-02	1.37893283e-04
6.72000000e-01	1.27066515e-02	1.36646866e-04
6.73000000e-01	1.27823333e-02	1.37599485e-04
6.74000000e-01	1.27265179e-02	1.37264654e-04
6.75000000e-01	1.27168731e-02	1.36802949e-04
6.76000000e-01	1.27602989e-02	1.37042898e-04
6.77000000e-01	1.26118527e-02	1.35899904e-04
6.78000000e-01	1.26761076e-02	1.36921376e-04
6.79000000e-01	1.29106007e-02	1.38728479e-04
6.80000000e-01	1.26908025e-02	1.36331798e-04
6.81000000e-01	1.26579809e-02	1.35967227e-04
6.82000000e-01	1.27871647e-02	1.37374948e-04
6.83000000e-01	1.28467312e-02	1.37716183e-04
6.84000000e-01	1.27143282e-02	1.36443963e-04
6.85000000e-01	1.26252949e-02	1.35577649e-04
6.86000000e-01	1.26632218e-02	1.35675112e-04
6.87000000e-01	1.27216907e-02	1.36644053e-04
6.88000000e-01	1.28060742e-02	1.37057225e-04
6.89000000e-01	1.27543296e-02	1.36325758e-04
6.90000000e-01	1.26715346e-02	1.36021407e-04
6.91000000e-01	1.26659165e-02	1.36211130e-04
6.92000000e-01	1.26442969e-02	1.35442976e-04
6.93000000e-01	1.27084706e-02	1.36377561e-04
6.94000000e-01	1.26476049e-02	1.35569006e-04
6.95000000e-01	1.26831002e-02	1.36050461e-04
6.96000000e-01	1.26741277e-02	1.35898713e-04
6.97000000e-01	1.26646629e-02	1.35831944e-04
6.98000000e-01	1.26514885e-02	1.35929387e-04
6.99000000e-01	1.26549863e-02	1.35579436e-04
7.00000000e-01	1.24521121e-02	1.33976963e-04
7.01000000e-01	1.25736631e-02	1.34563616e-04
7.02000000e-01	1.25715540e-02	1.34412141e-04
7.03000000e-01	1.25724995e-02	1.34742347e-04
7.04000000e-01	1.25992912e-02	1.34940840e-04
7.05000000e-01	1.24862506e-02	1.33597887e-04
7.06000000e-01	1.26049781e-02	1.35308088e-04
7.07000000e-01	1.26393078e-02	1.34933995e-04
7.08000000e-01	1.24420049e-02	1.32828213e-04
7.09000000e-01	1.24690951e-02	1.33628378e-04
7.10000000e-01	1.25136845e-02	1.33767168e-04
7.11000000e-01	1.25551651e-02	1.34550308e-04
7.12000000e-01	1.23181025e-02	1.32031000e-04
7.13000000e-01	1.24220067e-02	1.33100483e-04
7.14000000e-01	1.24307717e-02	1.33098652e-04
7.15000000e-01	1.23431963e-02	1.32379725e-04
7.16000000e-01	1.23787012e-02	1.32815952e-04
7.17000000e-01	1.24503795e-02	1.33092082e-04
7.18000000e-01	1.24179500e-02	1.32537294e-04
7.19000000e-01	1.22964582e-02	1.31665003e-04
7.20000000e-01	1.23125572e-02	1.31896497e-04
7.21000000e-01	1.23984933e-02	1.32808377e-04
7.22000000e-01	1.24177655e-02	1.33600736e-04
7.23000000e-01	1.23490229e-02	1.32224147e-04
7.24000000e-01	1.23602513e-02	1.32532712e-04
7.25000000e-01	1.23342657e-02	1.31943295e-04
7.26000000e-01	1.22306529e-02	1.31158857e-04
7.27000000e-01	1.23418666e-02	1.32221360e-04
7.28000000e-01	1.23997171e-02	1.32519340e-04
7.29000000e-01	1.23328155e-02	1.32413344e-04
7.30000000e-01	1.22388634e-02	1.31423465e-04
7.31000000e-01	1.21543419e-02	1.30854529e-04
7.32000000e-01	1.21908601e-02	1.31417978e-04
7.33000000e-01	1.21702519e-02	1.30447551e-04
7.34000000e-01	1.22522352e-02	1.31306067e-04
7.35000000e-01	1.21350593e-02	1.29618784e-04
7.36000000e-01	1.22258381e-02	1.30894891e-04
7.37000000e-01	1.21348493e-02	1.29985456e-04
7.38000000e-01	1.21200384e-02	1.29219764e-04
7.39000000e-01	1.21525697e-02	1.29314270e-04
7.40000000e-01	1.22308529e-02	1.29881343e-04
7.41000000e-01	1.20845123e-02	1.28173475e-04
7.42000000e-01	1.21733976e-02	1.29096567e-04
7.43000000e-01	1.21009488e-02	1.28218878e-04
7.44000000e-01	1.21168419e-02	1.28574110e-04
7.45000000e-01	1.20566153e-02	1.27626485e-04
7.46000000e-01	1.21202529e-02	1.29393689e-04
7.47000000e-01	1.20638852e-02	1.28236659e-04
7.48000000e-01	1.20881033e-02	1.28830747e-04
7.49000000e-01	1.20997220e-02	1.28606692e-04
7.50000000e-01	1.22260590e-02	1.29410677e-04
7.51000000e-01	1.20351244e-02	1.28262965e-04
7.52000000e-01	1.20461621e-02	1.27989069e-04
7.53000000e-01	1.19301738e-02	1.27836976e-04
7.54000000e-01	1.20315167e-02	1.28290980e-04
7.55000000e-01	1.21413193e-02	1.29724109e-04
7.56000000e-01	1.21381154e-02	1.28679280e-04
7.57000000e-01	1.19984751e-02	1.27731114e-04
7.58000000e-01	1.19014896e-02	1.26470260e-04
7.59000000e-01	1.20788354e-02	1.27720011e-04
7.60000000e-01	1.19427370e-02	1.26696949e-04
7.61000000e-01	1.19657837e-02	1.26468734e-04
7.62000000e-01	1.19546049e-02	1.26219755e-04
7.63000000e-01	1.19839948e-02	1.26903976e-04
7.64000000e-01	1.17989693e-02	1.25081428e-04
7.65000000e-01	1.19004174e-02	1.25502566e-04
7.66000000e-01	1.18096859e-02	1.24651954e-04
7.67000000e-01	1.18426585e-02	1.24643429e-04
7.68000000e-01	1.17993987e-02	1.24534452e-04
7.69000000e-01	1.17466493e-02	1.24296420e-04
7.70000000e-01	1.17111801e-02	1.23689155e-04
7.71000000e-01	1.19898074e-02	1.26594552e-04
7.72000000e-01	1.17789132e-02	1.27984213e-04
7.73000000e-01	1.18322375e-02	1.31993563e-04
7.74000000e-01	1.18568350e-02	1.35615918e-04
7.75000000e-01	1.17005119e-02	1.36344220e-04
7.76000000e-01	1.17259076e-02	1.39029790e-04
7.77000000e-01	1.16340675e-02	1.40352423e-04
7.78000000e-01	1.17673961e-02	1.43386428e-04
7.79000000e-01	1.17792757e-02	1.45269201e-04
7.80000000e-01	1.15569582e-02	1.44925981e-04
7.81000000e-01	1.17271208e-02	1.47565725e-04
7.82000000e-01	1.17429263e-02	1.49153352e-04
7.83000000e-01	1.17544307e-02	1.51299384e-04
7.84000000e-01	1.17351862e-02	1.52757375e-04
7.85000000e-01	1.17230754e-02	1.53909863e-04
7.86000000e-01	1.15083750e-02	1.53506613e-04
7.87000000e-01	1.18327242e-02	1.58275853e-04
7.88000000e-01	1.16706648e-02	1.58779308e-04
7.89000000e-01	1.14611514e-02	1.57580105e-04
7.90000000e-01	1.16467864e-02	1.61509699e-04
7.91000000e-01	1.15422809e-02	1.61638211e-04
7.92000000e-01	1.16107156e-02	1.64429119e-04
7.93000000e-01	1.15824522e-02	1.65933005e-04
7.94000000e-01	1.15836035e-02	1.66106279e-04
7.95000000e-01	1.14821999e-02	1.67740158e-04
7.96000000e-01	1.16523264e-02	1.71559925e-04
7.97000000e-01	1.16161232e-02	1.72995890e-04
7.98000000e-01	1.16155773e-02	1.74954461e-04
7.99000000e-01	1.16220890e-02	1.76153866e-04
8.00000000e-01	1.15655779e-02	1.77716040e-04
8.01000000e-01	1.13668089e-02	1.75368127e-04
8.02000000e-01	1.13419345e-02	1.77692778e-04
8.03000000e-01	1.14458406e-02	1.80219589e-04
8.04000000e-01	1.13004034e-02	1.81885378e-04
8.05000000e-01	1.13335592e-02	1.83558246e-04
8.06000000e-01	1.14606991e-02	1.87511466e-04
8.07000000e-01	1.13524999e-02	1.86672233e-04
8.08000000e-01	1.14275466e-02	1.92250388e-04
8.09000000e-01	1.13523729e-02	1.91450765e-04
8.10000000e-01	1.14559914e-02	1.94924940e-04
8.11000000e-01	1.14412061e-02	1.96893127e-04
8.12000000e-01	1.13063655e-02	1.97334149e-04
8.13000000e-01	1.12127748e-02	1.98511459e-04
8.14000000e-01	1.12844877e-02	2.01556168e-04
8.15000000e-01	1.12008650e-02	2.04030444e-04
8.16000000e-01	1.12218065e-02	2.05578255e-04
8.17000000e-01	1.12608525e-02	2.09628098e-04
8.18000000e-01	1.11308349e-02	2.11506768e-04
8.19000000e-01	1.11982407e-02	2.12818624e-04
8.20000000e-01	1.12356207e-02	2.15992530e-04
8.21000000e-01	1.12366024e-02	2.19540268e-04
8.22000000e-01	1.12553005e-02	2.22407741e-04
8.23000000e-01	1.10665430e-02	2.21256789e-04
8.24000000e-01	1.10322981e-02	2.25610619e-04
8.25000000e-01	1.10748483e-02	2.26939894e-04
8.26000000e-01	1.09202866e-02	2.29739462e-04
8.27000000e-01	1.10844265e-02	2.35313479e-04
8.28000000e-01	1.09895329e-02	2.35749103e-04
8.29000000e-01	1.10282894e-02	2.42771711e-04
8.30000000e-01	1.08396539e-02	2.40794204e-04
8.31000000e-01	1.12538325e-02	2.55379835e-04
8.32000000e-01	1.07782279e-02	2.47303843e-04
8.33000000e-01	1.07059551e-02	2.52356930e-04
8.34000000e-01	1.11318746e-02	2.63943262e-04
8.35000000e-01	1.08930598e-02	2.62485209e-04
8.36000000e-01	1.05908627e-02	2.62181671e-04
8.37000000e-01	1.10203800e-02	2.76568816e-04
8.38000000e-01	1.09155424e-02	2.79044245e-04
8.39000000e-01	1.07270990e-02	2.82387480e-04
8.40000000e-01	1.12444241e-02	2.98215932e-04
8.41000000e-01	1.09563091e-02	3.00615790e-04
8.42000000e-01	1.10395646e-02	3.07032101e-04
8.43000000e-01	1.09325185e-02	3.12507623e-04
8.44000000e-01	1.08648484e-02	3.16793859e-04
8.45000000e-01	1.07839549e-02	3.27851567e-04
8.46000000e-01	1.11807623e-02	3.46380831e-04
8.47000000e-01	1.09930342e-02	3.51986448e-04
8.48000000e-01	1.09743733e-02	3.55000870e-04
8.49000000e-01	1.09146088e-02	3.71760104e-04
8.50000000e-01	1.05395112e-02	3.72626751e-04
8.51000000e-01	1.06851476e-02	3.80450341e-04
8.52000000e-01	1.06441067e-02	4.00891887e-04
8.53000000e-01	1.05903243e-02	4.23211716e-04
8.54000000e-01	1.05079230e-02	4.38592107e-04
8.55000000e-01	1.08849189e-02	4.70882352e-04
8.56000000e-01	1.01784966e-02	4.50703580e-04
8.57000000e-01	1.04649968e-02	4.72510933e-04
8.58000000e-01	1.03631194e-02	4.74943813e-04
8.59000000e-01	1.03630875e-02	4.93811646e-04
8.60000000e-01	1.04502714e-02	5.24187010e-04
8.61000000e-01	1.03543750e-02	5.39267543e-04
8.62000000e-01	1.07659981e-02	5.74419716e-04
8.63000000e-01	1.04283925e-02	5.79181137e-04
8.64000000e-01	1.05408681e-02	6.11749050e-04
8.65000000e-01	1.02075480e-02	6.22935567e-04
8.66000000e-01	1.07237466e-02	6.87637551e-04
8.67000000e-01	1.09459825e-02	7.33327480e-04
8.68000000e-01	1.06753094e-02	7.49905547e-04
8.69000000e-01	1.05755176e-02	7.99471650e-04
8.70000000e-01	9.60602833e-03	8.05622805e-04
8.71000000e-01	1.01396024e-02	9.38850689e-04
8.72000000e-01	1.01209073e-02	1.06216783e-03
8.73000000e-01	9.74545666e-03	1.24484938e-03
8.74000000e-01	9.95239646e-03	1.61615027e-03
8.75000000e-01	8.42543557e-03	2.83942795e-03
