% Filename : SDL7c_00026_00059.h5
% Date & Time : 30-Oct-2025 17:04:25
% X-ray Energy (keV) : 13.30001
% Exposure Time (s) : 0.500
% Beam Center : 1461.24000, 208.98300
% Sample to Detector Distance (SDD) (mm) : 1990.750
% Detector Pixel Size (mm) : 0.075
% Photodiode Value : 140881.000
% I0 of Sample : 0
% I0 of Standard : 1
% 
% q(A^-1)   I(q)    I(q)_SE
0.00000000e+00	8.97685340e-03	4.96673714e-03
2.50000000e-04	0.00000000e+00	0.00000000e+00
5.00000000e-04	0.00000000e+00	0.00000000e+00
7.50000000e-04	0.00000000e+00	0.00000000e+00
1.00000000e-03	0.00000000e+00	0.00000000e+00
1.25000000e-03	0.00000000e+00	0.00000000e+00
1.50000000e-03	0.00000000e+00	0.00000000e+00
1.75000000e-03	0.00000000e+00	0.00000000e+00
2.00000000e-03	0.00000000e+00	0.00000000e+00
2.25000000e-03	0.00000000e+00	0.00000000e+00
2.50000000e-03	0.00000000e+00	0.00000000e+00
2.75000000e-03	0.00000000e+00	0.00000000e+00
3.00000000e-03	0.00000000e+00	0.00000000e+00
3.25000000e-03	7.83993357e+00	6.20759469e+00
3.50000000e-03	2.45277348e+00	1.07954603e+00
3.75000000e-03	1.69367920e+00	5.76137927e-01
4.00000000e-03	1.36872404e+00	4.16727060e-01
4.25000000e-03	7.96147528e-01	1.08211064e-01
4.50000000e-03	1.07485826e+00	1.97478586e-01
4.75000000e-03	1.13858282e+00	2.10115838e-01
5.00000000e-03	8.95910545e-01	1.52768872e-01
5.25000000e-03	7.63281206e-01	1.29349654e-01
5.50000000e-03	6.41089589e-01	1.09741197e-01
5.75000000e-03	5.50838635e-01	8.72509637e-02
6.00000000e-03	4.74761471e-01	7.49432300e-02
6.25000000e-03	4.11481425e-01	6.21463348e-02
6.50000000e-03	3.54303450e-01	5.52933405e-02
6.75000000e-03	3.12955389e-01	4.69298564e-02
7.00000000e-03	2.74439476e-01	3.84746657e-02
7.25000000e-03	2.43290732e-01	3.51463919e-02
7.50000000e-03	2.14766378e-01	3.02613698e-02
7.75000000e-03	1.93745740e-01	2.68324031e-02
8.00000000e-03	1.78599983e-01	2.43544221e-02
8.25000000e-03	1.55673777e-01	1.95933706e-02
8.50000000e-03	1.42827367e-01	1.77844080e-02
8.75000000e-03	1.31591246e-01	1.59795895e-02
9.00000000e-03	1.16349016e-01	1.33163931e-02
9.25000000e-03	1.05759942e-01	1.20490963e-02
9.50000000e-03	9.87360074e-02	1.13282056e-02
9.75000000e-03	9.16780575e-02	1.02001240e-02
1.00000000e-02	8.08096828e-02	9.13715364e-03
1.02500000e-02	7.85718363e-02	8.53426261e-03
1.05000000e-02	7.10847004e-02	7.58470806e-03
1.07500000e-02	6.54439113e-02	6.90899577e-03
1.10000000e-02	6.06204366e-02	5.95417948e-03
1.12500000e-02	5.60728833e-02	5.32223931e-03
1.15000000e-02	5.35964250e-02	4.89875537e-03
1.17500000e-02	5.19111817e-02	4.25768468e-03
1.20000000e-02	5.18742835e-02	4.65988959e-03
1.22500000e-02	4.89641186e-02	4.41852059e-03
1.25000000e-02	4.63749354e-02	3.94740358e-03
1.27500000e-02	4.45955316e-02	3.74998131e-03
1.30000000e-02	4.37465302e-02	3.86832266e-03
1.32500000e-02	4.13752288e-02	3.19630809e-03
1.35000000e-02	3.89436523e-02	3.19560311e-03
1.37500000e-02	3.80304936e-02	2.98531354e-03
1.40000000e-02	3.64764176e-02	2.71923175e-03
1.42500000e-02	3.43727924e-02	2.53789375e-03
1.45000000e-02	3.41539021e-02	2.38845061e-03
1.47500000e-02	3.37163102e-02	2.31702515e-03
1.50000000e-02	3.32965047e-02	2.27240213e-03
1.52500000e-02	3.11923088e-02	2.09518855e-03
1.55000000e-02	3.20067749e-02	2.08876948e-03
1.57500000e-02	3.04346268e-02	2.02205807e-03
1.60000000e-02	3.02597542e-02	2.01163985e-03
1.62500000e-02	2.82300414e-02	1.78430405e-03
1.65000000e-02	2.73165159e-02	1.73228744e-03
1.67500000e-02	2.84793486e-02	1.73774520e-03
1.70000000e-02	2.75881626e-02	1.61172175e-03
1.72500000e-02	2.72739953e-02	1.63317655e-03
1.75000000e-02	2.66391133e-02	1.51794028e-03
1.77500000e-02	2.60462475e-02	1.47393966e-03
1.80000000e-02	2.69864634e-02	1.51350887e-03
1.82500000e-02	2.57800236e-02	1.44228794e-03
1.85000000e-02	2.56064681e-02	1.46093510e-03
1.87500000e-02	2.50856774e-02	1.39340091e-03
1.90000000e-02	2.54486701e-02	1.40824862e-03
1.92500000e-02	2.47189951e-02	1.31801031e-03
1.95000000e-02	2.36404846e-02	1.28399241e-03
1.97500000e-02	2.42988620e-02	1.29119867e-03
2.00000000e-02	2.41665331e-02	1.27123262e-03
2.02500000e-02	2.38004804e-02	1.23758584e-03
2.05000000e-02	2.35225012e-02	1.20350857e-03
2.07500000e-02	2.38395517e-02	1.21754971e-03
2.10000000e-02	2.36877435e-02	1.21829558e-03
2.12500000e-02	2.39509570e-02	1.23173667e-03
2.15000000e-02	2.34548286e-02	1.21219940e-03
2.17500000e-02	2.34289388e-02	1.19535797e-03
2.20000000e-02	2.36971898e-02	1.22943337e-03
2.22500000e-02	2.38281608e-02	1.23775312e-03
2.25000000e-02	2.38481448e-02	1.22480967e-03
2.27500000e-02	2.32355837e-02	1.17083973e-03
2.30000000e-02	2.27476480e-02	1.18075358e-03
2.32500000e-02	2.28253058e-02	1.17217725e-03
2.35000000e-02	2.26427379e-02	1.16344015e-03
2.37500000e-02	2.30155343e-02	1.17050218e-03
2.40000000e-02	2.39444093e-02	1.22494746e-03
2.42500000e-02	2.28208275e-02	1.14965124e-03
2.45000000e-02	2.30259808e-02	1.17693154e-03
2.47500000e-02	2.31721958e-02	1.15277196e-03
2.50000000e-02	2.31340249e-02	1.15118973e-03
2.52500000e-02	2.26038335e-02	1.15527585e-03
2.55000000e-02	2.27884321e-02	1.13371766e-03
2.57500000e-02	2.16346600e-02	1.08648476e-03
2.60000000e-02	2.19890979e-02	1.08463912e-03
2.62500000e-02	2.17498241e-02	1.10016209e-03
2.65000000e-02	2.29119453e-02	1.13351337e-03
2.67500000e-02	2.16421756e-02	1.06878051e-03
2.70000000e-02	2.22217622e-02	1.10076107e-03
2.72500000e-02	2.25486672e-02	1.10009007e-03
2.75000000e-02	2.22440432e-02	1.10462467e-03
2.77500000e-02	2.16915974e-02	1.08339299e-03
2.80000000e-02	2.22959939e-02	1.07682848e-03
2.82500000e-02	2.24527850e-02	1.08022502e-03
2.85000000e-02	2.26393192e-02	1.10045281e-03
2.87500000e-02	2.19102841e-02	1.06798177e-03
2.90000000e-02	2.30130643e-02	1.13294696e-03
2.92500000e-02	2.31838844e-02	1.10203346e-03
2.95000000e-02	2.26909892e-02	1.10698793e-03
2.97500000e-02	2.30593756e-02	1.09373101e-03
3.00000000e-02	2.29204451e-02	1.09284481e-03
3.02500000e-02	2.30693067e-02	1.11421046e-03
3.05000000e-02	2.23481479e-02	1.05739977e-03
3.07500000e-02	2.30625091e-02	1.10208073e-03
3.10000000e-02	2.22437700e-02	1.05501505e-03
3.12500000e-02	2.25847689e-02	1.09559202e-03
3.15000000e-02	2.32113181e-02	1.09376184e-03
3.17500000e-02	2.19559948e-02	1.01219735e-03
3.20000000e-02	2.23561246e-02	1.05606719e-03
3.22500000e-02	2.26990979e-02	1.06220834e-03
3.25000000e-02	2.18135231e-02	1.04798285e-03
3.27500000e-02	2.20194001e-02	1.02093496e-03
3.30000000e-02	2.19162480e-02	1.03024808e-03
3.32500000e-02	2.21320532e-02	1.02826086e-03
3.35000000e-02	2.22246028e-02	1.04432641e-03
3.37500000e-02	2.18802806e-02	1.01122137e-03
3.40000000e-02	2.16487152e-02	1.00152690e-03
3.42500000e-02	2.24204023e-02	1.02044299e-03
3.45000000e-02	2.18565230e-02	1.01106174e-03
3.47500000e-02	2.20566552e-02	1.00850292e-03
3.50000000e-02	2.18505736e-02	1.00361038e-03
3.52500000e-02	2.21385244e-02	1.01915083e-03
3.55000000e-02	2.18783051e-02	9.93191999e-04
3.57500000e-02	2.08596142e-02	9.44866230e-04
3.60000000e-02	2.06258903e-02	9.34795723e-04
3.62500000e-02	2.28760235e-02	1.04195604e-03
3.65000000e-02	2.15917274e-02	9.72427520e-04
3.67500000e-02	2.20580227e-02	9.83822581e-04
3.70000000e-02	2.23296174e-02	1.00015387e-03
3.72500000e-02	2.20168948e-02	9.89551699e-04
3.75000000e-02	2.11692300e-02	9.54937023e-04
3.77500000e-02	2.13300664e-02	9.44377042e-04
3.80000000e-02	2.12653782e-02	9.44714017e-04
3.82500000e-02	2.11427695e-02	9.36379933e-04
3.85000000e-02	2.11666386e-02	9.43614482e-04
3.87500000e-02	2.07049303e-02	9.08138291e-04
3.90000000e-02	2.13494217e-02	9.52611599e-04
3.92500000e-02	2.10673791e-02	9.22976129e-04
3.95000000e-02	2.10241752e-02	9.29110660e-04
3.97500000e-02	2.14374107e-02	9.43989174e-04
4.00000000e-02	2.07661971e-02	9.07655234e-04
4.02500000e-02	2.11837431e-02	9.40881455e-04
4.05000000e-02	2.02719960e-02	8.82696861e-04
4.07500000e-02	2.01484978e-02	8.83290075e-04
4.10000000e-02	2.12574306e-02	9.29897849e-04
4.12500000e-02	2.09552944e-02	9.15852113e-04
4.15000000e-02	2.09247353e-02	8.95255074e-04
4.17500000e-02	2.09589295e-02	9.03292738e-04
4.20000000e-02	2.10040232e-02	8.98378782e-04
4.22500000e-02	2.13423859e-02	9.04504494e-04
4.25000000e-02	2.13409322e-02	9.12673128e-04
4.27500000e-02	2.10466136e-02	9.03992813e-04
4.30000000e-02	2.10743941e-02	8.90288793e-04
4.32500000e-02	2.18200164e-02	9.16683064e-04
4.35000000e-02	2.15249041e-02	9.23577971e-04
4.37500000e-02	2.10969295e-02	8.95182690e-04
4.40000000e-02	2.13409805e-02	9.08428291e-04
4.42500000e-02	2.04515319e-02	8.65398128e-04
4.45000000e-02	2.14505317e-02	8.90846868e-04
4.47500000e-02	2.08330616e-02	8.75153967e-04
4.50000000e-02	2.13163091e-02	8.96320725e-04
4.52500000e-02	2.03496225e-02	8.55043094e-04
4.55000000e-02	1.98797105e-02	8.26729103e-04
4.57500000e-02	2.08228555e-02	8.58345384e-04
4.60000000e-02	2.03607237e-02	8.48414670e-04
4.62500000e-02	2.13549547e-02	8.97783679e-04
4.65000000e-02	2.11443630e-02	8.70187817e-04
4.67500000e-02	2.13541298e-02	8.79358227e-04
4.70000000e-02	2.06230733e-02	8.47398169e-04
4.72500000e-02	2.06051719e-02	8.40734446e-04
4.75000000e-02	2.05620396e-02	8.48304313e-04
4.77500000e-02	2.16260338e-02	8.83196018e-04
4.80000000e-02	2.07067284e-02	8.39101576e-04
4.82500000e-02	2.11377557e-02	8.53528176e-04
4.85000000e-02	2.09637797e-02	8.66538860e-04
4.87500000e-02	2.11444488e-02	8.61159826e-04
4.90000000e-02	2.08163486e-02	8.44616695e-04
4.92500000e-02	1.99403000e-02	8.01034326e-04
4.95000000e-02	2.04246620e-02	8.22813375e-04
4.97500000e-02	2.14063747e-02	8.63409088e-04
5.00000000e-02	1.96335580e-02	7.87449017e-04
5.02500000e-02	2.00121394e-02	7.95204180e-04
5.05000000e-02	2.07046796e-02	8.21174836e-04
5.07500000e-02	2.04575205e-02	8.23520247e-04
5.10000000e-02	2.04418176e-02	8.17286683e-04
5.12500000e-02	2.11129533e-02	8.43255321e-04
5.15000000e-02	2.05072269e-02	8.12891265e-04
5.17500000e-02	2.01906122e-02	8.02251199e-04
5.20000000e-02	2.08718622e-02	8.27253951e-04
5.22500000e-02	2.09337247e-02	8.34675110e-04
5.25000000e-02	2.03351860e-02	7.98099940e-04
5.27500000e-02	2.02282016e-02	7.96603547e-04
5.30000000e-02	2.03819824e-02	8.09068908e-04
5.32500000e-02	2.08776539e-02	8.22990351e-04
5.35000000e-02	2.11634894e-02	8.31462264e-04
5.37500000e-02	2.04512390e-02	7.98646906e-04
5.40000000e-02	2.04518008e-02	8.02276775e-04
5.42500000e-02	2.11006658e-02	8.14475294e-04
5.45000000e-02	2.06380630e-02	7.97244783e-04
5.47500000e-02	2.10039537e-02	8.11521449e-04
5.50000000e-02	2.01993690e-02	7.84751258e-04
5.52500000e-02	2.07351073e-02	8.04547627e-04
5.55000000e-02	2.03205598e-02	7.80523508e-04
5.57500000e-02	2.08176754e-02	7.99614162e-04
5.60000000e-02	2.02892531e-02	7.71989960e-04
5.62500000e-02	2.02863474e-02	7.80658891e-04
5.65000000e-02	2.02348599e-02	7.77723456e-04
5.67500000e-02	2.07924988e-02	7.99082657e-04
5.70000000e-02	2.08844017e-02	7.93697066e-04
5.72500000e-02	2.05373279e-02	7.87055217e-04
5.75000000e-02	2.03221478e-02	7.73234288e-04
5.77500000e-02	2.01771748e-02	7.64739087e-04
5.80000000e-02	2.01857521e-02	7.68742196e-04
5.82500000e-02	2.04870177e-02	7.73846946e-04
5.85000000e-02	2.02130606e-02	7.62197847e-04
5.87500000e-02	2.05110510e-02	7.67101948e-04
5.90000000e-02	2.01827679e-02	7.64656503e-04
5.92500000e-02	2.00515047e-02	7.58075316e-04
5.95000000e-02	1.99672080e-02	7.49328398e-04
5.97500000e-02	2.01086236e-02	7.65642905e-04
6.00000000e-02	2.05889483e-02	7.70771624e-04
6.02500000e-02	2.05027321e-02	7.55184888e-04
6.05000000e-02	2.03007067e-02	7.63303957e-04
6.07500000e-02	2.01847452e-02	7.51977062e-04
6.10000000e-02	2.02939201e-02	7.57254182e-04
6.12500000e-02	2.01439612e-02	7.43546800e-04
6.15000000e-02	1.97436177e-02	7.27927471e-04
6.17500000e-02	2.02847667e-02	7.43975572e-04
6.20000000e-02	1.96248090e-02	7.28806173e-04
6.22500000e-02	1.99142134e-02	7.32649267e-04
6.25000000e-02	2.00229304e-02	7.33431926e-04
6.27500000e-02	1.98517104e-02	7.27464787e-04
6.30000000e-02	2.01943274e-02	7.36234444e-04
6.32500000e-02	2.02425961e-02	7.42125410e-04
6.35000000e-02	2.05363295e-02	7.46906661e-04
6.37500000e-02	2.02908864e-02	7.37757543e-04
6.40000000e-02	2.03898897e-02	7.45009348e-04
6.42500000e-02	2.00224818e-02	7.19257298e-04
6.45000000e-02	2.05730548e-02	7.42603336e-04
6.47500000e-02	2.02389922e-02	7.34454268e-04
6.50000000e-02	2.04219250e-02	7.39532484e-04
6.52500000e-02	2.01678988e-02	7.18805955e-04
6.55000000e-02	2.05470756e-02	7.44958352e-04
6.57500000e-02	2.01002280e-02	7.23489513e-04
6.60000000e-02	1.99914840e-02	7.19668614e-04
6.62500000e-02	2.02923443e-02	7.31693244e-04
6.65000000e-02	1.97928547e-02	7.13952885e-04
6.67500000e-02	1.99408717e-02	7.13427074e-04
6.70000000e-02	2.03103339e-02	7.23650698e-04
6.72500000e-02	1.96341023e-02	6.97998782e-04
6.75000000e-02	2.02335239e-02	7.17456315e-04
6.77500000e-02	2.02529326e-02	7.10780185e-04
6.80000000e-02	1.97790856e-02	7.01884935e-04
6.82500000e-02	2.01127183e-02	7.23510248e-04
6.85000000e-02	1.95814907e-02	7.03987231e-04
6.87500000e-02	2.00819258e-02	7.04666370e-04
6.90000000e-02	1.94327560e-02	6.82301588e-04
6.92500000e-02	2.01705076e-02	7.04703519e-04
6.95000000e-02	2.01570216e-02	7.11752065e-04
6.97500000e-02	1.96057554e-02	6.93885099e-04
7.00000000e-02	1.95517099e-02	6.88803534e-04
7.02500000e-02	1.99829601e-02	6.99179188e-04
7.05000000e-02	1.99297359e-02	6.93162666e-04
7.07500000e-02	1.99285354e-02	7.01360145e-04
7.10000000e-02	1.96639517e-02	6.84365405e-04
7.12500000e-02	1.96055373e-02	6.81769501e-04
7.15000000e-02	2.00985701e-02	6.98010144e-04
7.17500000e-02	2.06236838e-02	7.12261813e-04
7.20000000e-02	1.99785038e-02	6.91570182e-04
7.22500000e-02	1.91211751e-02	6.65476512e-04
7.25000000e-02	1.98694004e-02	6.88103498e-04
7.27500000e-02	1.96492701e-02	6.80987092e-04
7.30000000e-02	2.01218161e-02	6.89013667e-04
7.32500000e-02	1.97307791e-02	6.74684902e-04
7.35000000e-02	2.06613033e-02	7.13209256e-04
7.37500000e-02	1.98674280e-02	6.83304579e-04
7.40000000e-02	2.02047668e-02	6.95496334e-04
7.42500000e-02	1.99795374e-02	6.78661462e-04
7.45000000e-02	2.01569144e-02	6.88850393e-04
7.47500000e-02	1.98549294e-02	6.77028513e-04
7.50000000e-02	1.96607552e-02	6.68154518e-04
7.52500000e-02	2.04011243e-02	6.92853620e-04
7.55000000e-02	2.02416634e-02	6.84203593e-04
7.57500000e-02	1.95389319e-02	6.67715353e-04
7.60000000e-02	2.00354502e-02	6.76056143e-04
7.62500000e-02	2.02511318e-02	6.85417869e-04
7.65000000e-02	1.98844920e-02	6.72455255e-04
7.67500000e-02	2.01171010e-02	6.75479361e-04
7.70000000e-02	1.99358911e-02	6.67328767e-04
7.72500000e-02	2.05945565e-02	6.99122964e-04
7.75000000e-02	1.98981613e-02	6.86111851e-04
7.77500000e-02	1.88965093e-02	6.64163215e-04
7.80000000e-02	1.97893472e-02	6.91073547e-04
7.82500000e-02	2.01807743e-02	7.02753267e-04
7.85000000e-02	2.05288788e-02	7.26832356e-04
7.87500000e-02	1.95570466e-02	6.91325496e-04
7.90000000e-02	2.02399146e-02	7.14978793e-04
7.92500000e-02	2.03012741e-02	7.16255833e-04
7.95000000e-02	1.99116661e-02	7.15676581e-04
7.97500000e-02	1.99671076e-02	7.13184497e-04
8.00000000e-02	1.99674282e-02	7.14435734e-04
8.02500000e-02	2.04054023e-02	7.32789993e-04
8.05000000e-02	1.97415786e-02	7.09807309e-04
8.07500000e-02	2.00503736e-02	7.26573450e-04
8.10000000e-02	1.96899044e-02	7.13423818e-04
8.12500000e-02	1.91013455e-02	6.98619439e-04
8.15000000e-02	1.97482078e-02	7.16606597e-04
8.17500000e-02	2.04588936e-02	7.45596688e-04
8.20000000e-02	2.02094489e-02	7.38987593e-04
8.22500000e-02	2.01625386e-02	7.30349524e-04
8.25000000e-02	1.98807219e-02	7.29520459e-04
8.27500000e-02	1.96063100e-02	7.18990364e-04
8.30000000e-02	1.96329282e-02	7.15660837e-04
8.32500000e-02	1.98040448e-02	7.21839066e-04
8.35000000e-02	1.94291951e-02	7.25095141e-04
8.37500000e-02	1.95790418e-02	7.17368616e-04
8.40000000e-02	1.97233593e-02	7.21339797e-04
8.42500000e-02	1.93889281e-02	7.14609716e-04
8.45000000e-02	1.99705663e-02	7.43948215e-04
8.47500000e-02	2.00033414e-02	7.38469088e-04
8.50000000e-02	1.96843807e-02	7.27062154e-04
8.52500000e-02	1.99482103e-02	7.41102419e-04
8.55000000e-02	1.97530780e-02	7.30859052e-04
8.57500000e-02	1.96122804e-02	7.32063669e-04
8.60000000e-02	1.94844439e-02	7.32204242e-04
8.62500000e-02	1.99159505e-02	7.40180620e-04
8.65000000e-02	1.96638464e-02	7.38069801e-04
8.67500000e-02	1.96621952e-02	7.19354605e-04
8.70000000e-02	2.02636982e-02	7.33920472e-04
8.72500000e-02	1.98965790e-02	7.12629758e-04
8.75000000e-02	2.01344409e-02	7.10139849e-04
8.77500000e-02	2.02911907e-02	7.04284615e-04
8.80000000e-02	2.00439301e-02	7.04181888e-04
8.82500000e-02	2.00092205e-02	7.04937456e-04
8.85000000e-02	2.00533445e-02	6.99314550e-04
8.87500000e-02	1.98299506e-02	6.81491230e-04
8.90000000e-02	2.03841226e-02	7.02233126e-04
8.92500000e-02	1.99950861e-02	6.91903297e-04
8.95000000e-02	1.97817724e-02	6.77362452e-04
8.97500000e-02	1.96321246e-02	6.67674932e-04
9.00000000e-02	2.00232325e-02	6.78117608e-04
9.02500000e-02	1.96627122e-02	6.68040647e-04
9.05000000e-02	1.97092516e-02	6.69658699e-04
9.07500000e-02	1.93876482e-02	6.58162582e-04
9.10000000e-02	1.95757350e-02	6.52847376e-04
9.12500000e-02	1.95327295e-02	6.57712864e-04
9.15000000e-02	1.97981743e-02	6.64463747e-04
9.17500000e-02	1.98966646e-02	6.64553173e-04
9.20000000e-02	1.94166888e-02	6.50800927e-04
9.22500000e-02	1.99078783e-02	6.58690029e-04
9.25000000e-02	1.96316887e-02	6.51559340e-04
9.27500000e-02	1.97763705e-02	6.52900522e-04
9.30000000e-02	1.97730393e-02	6.55766605e-04
9.32500000e-02	1.95654506e-02	6.50932095e-04
9.35000000e-02	1.94429629e-02	6.38007567e-04
9.37500000e-02	1.99410012e-02	6.53092158e-04
9.40000000e-02	1.96714971e-02	6.48916609e-04
9.42500000e-02	2.00227708e-02	6.57043305e-04
9.45000000e-02	1.99971814e-02	6.54753096e-04
9.47500000e-02	1.99971907e-02	6.54981379e-04
9.50000000e-02	1.96372849e-02	6.39314958e-04
9.52500000e-02	1.95110862e-02	6.34864166e-04
9.55000000e-02	1.97874864e-02	6.45435881e-04
9.57500000e-02	1.96224047e-02	6.36337667e-04
9.60000000e-02	1.99516549e-02	6.43981586e-04
9.62500000e-02	2.00477150e-02	6.50531758e-04
9.65000000e-02	1.96238177e-02	6.30498757e-04
9.67500000e-02	2.03115694e-02	6.51509217e-04
9.70000000e-02	1.99400657e-02	6.40482817e-04
9.72500000e-02	1.96609242e-02	6.30207656e-04
9.75000000e-02	1.98125601e-02	6.34354436e-04
9.77500000e-02	1.96709552e-02	6.27910109e-04
9.80000000e-02	1.98514138e-02	6.38128463e-04
9.82500000e-02	1.99247641e-02	6.40342335e-04
9.85000000e-02	1.95336607e-02	6.20246945e-04
9.87500000e-02	1.89342074e-02	6.05676123e-04
9.90000000e-02	1.93671250e-02	6.18670572e-04
9.92500000e-02	1.97723623e-02	6.29911906e-04
9.95000000e-02	1.96987002e-02	6.19949326e-04
9.97500000e-02	2.02938942e-02	6.40376792e-04
1.00000000e-01	1.98072012e-02	5.07753484e-04
1.00500000e-01	1.97158871e-02	4.40457971e-04
1.01000000e-01	1.93764207e-02	4.29066831e-04
1.01500000e-01	1.98775800e-02	4.40673959e-04
1.02000000e-01	1.97570326e-02	4.36262618e-04
1.02500000e-01	1.98804267e-02	4.36046317e-04
1.03000000e-01	1.96338072e-02	4.30416928e-04
1.03500000e-01	1.94497711e-02	4.27096556e-04
1.04000000e-01	1.97017499e-02	4.29968488e-04
1.04500000e-01	1.97843192e-02	4.31311560e-04
1.05000000e-01	1.95516288e-02	4.24045830e-04
1.05500000e-01	1.93018046e-02	4.18771968e-04
1.06000000e-01	1.96569356e-02	4.26779846e-04
1.06500000e-01	1.96958887e-02	4.25565808e-04
1.07000000e-01	1.98253608e-02	4.32965720e-04
1.07500000e-01	1.94211688e-02	4.31754420e-04
1.08000000e-01	1.97677355e-02	4.44840174e-04
1.08500000e-01	2.00199620e-02	4.51227159e-04
1.09000000e-01	1.94831384e-02	4.41698493e-04
1.09500000e-01	1.96368761e-02	4.50370531e-04
1.10000000e-01	1.96013900e-02	4.39105697e-04
1.10500000e-01	1.96504777e-02	4.33700938e-04
1.11000000e-01	1.96509576e-02	4.27614103e-04
1.11500000e-01	2.02391105e-02	4.34548934e-04
1.12000000e-01	1.98465052e-02	4.23212906e-04
1.12500000e-01	1.99081687e-02	4.22495588e-04
1.13000000e-01	1.95281647e-02	4.15111461e-04
1.13500000e-01	1.97437341e-02	4.17684636e-04
1.14000000e-01	1.98470060e-02	4.17058288e-04
1.14500000e-01	1.99828516e-02	4.18459777e-04
1.15000000e-01	1.98687243e-02	4.13686178e-04
1.15500000e-01	1.95574191e-02	4.08928335e-04
1.16000000e-01	1.95711488e-02	4.07585914e-04
1.16500000e-01	1.97036689e-02	4.07120816e-04
1.17000000e-01	1.97477173e-02	4.10857852e-04
1.17500000e-01	1.95476956e-02	4.04583983e-04
1.18000000e-01	1.97173615e-02	4.08099830e-04
1.18500000e-01	1.97736626e-02	4.03223691e-04
1.19000000e-01	1.93695681e-02	3.97557955e-04
1.19500000e-01	1.93910011e-02	3.96952757e-04
1.20000000e-01	1.95388876e-02	4.00070127e-04
1.20500000e-01	1.98157104e-02	4.04163218e-04
1.21000000e-01	1.97097638e-02	4.00126687e-04
1.21500000e-01	1.96202440e-02	3.97806347e-04
1.22000000e-01	1.98302217e-02	3.98945318e-04
1.22500000e-01	1.94972818e-02	3.93066049e-04
1.23000000e-01	1.97814256e-02	3.99233427e-04
1.23500000e-01	1.95200562e-02	3.91808964e-04
1.24000000e-01	1.97811749e-02	3.97571513e-04
1.24500000e-01	1.96760875e-02	3.92161780e-04
1.25000000e-01	1.97395114e-02	3.95124641e-04
1.25500000e-01	1.96100224e-02	3.92311503e-04
1.26000000e-01	1.96238535e-02	3.90025876e-04
1.26500000e-01	1.95979381e-02	3.88809059e-04
1.27000000e-01	1.96951833e-02	3.89117787e-04
1.27500000e-01	1.93606059e-02	3.80982923e-04
1.28000000e-01	1.95125129e-02	3.84781633e-04
1.28500000e-01	1.97114953e-02	3.87839443e-04
1.29000000e-01	1.95251383e-02	3.83993880e-04
1.29500000e-01	1.97674138e-02	3.87205767e-04
1.30000000e-01	1.94741659e-02	3.81870768e-04
1.30500000e-01	1.96487134e-02	3.81944044e-04
1.31000000e-01	1.96279514e-02	3.80866119e-04
1.31500000e-01	1.97129207e-02	3.82309622e-04
1.32000000e-01	1.96276782e-02	3.80442633e-04
1.32500000e-01	1.95069543e-02	3.77377326e-04
1.33000000e-01	1.95040984e-02	3.76310178e-04
1.33500000e-01	1.99267040e-02	3.80527078e-04
1.34000000e-01	1.96079905e-02	3.76101130e-04
1.34500000e-01	1.96256346e-02	3.75146279e-04
1.35000000e-01	1.98801315e-02	3.79264755e-04
1.35500000e-01	1.94164706e-02	3.68426087e-04
1.36000000e-01	1.95946459e-02	3.71990456e-04
1.36500000e-01	1.98520353e-02	3.76393629e-04
1.37000000e-01	1.94413733e-02	3.68297915e-04
1.37500000e-01	1.97576109e-02	3.74486465e-04
1.38000000e-01	1.96448246e-02	3.71217249e-04
1.38500000e-01	1.97390558e-02	3.71156661e-04
1.39000000e-01	1.94819442e-02	3.67432945e-04
1.39500000e-01	1.95774979e-02	3.68352899e-04
1.40000000e-01	1.94980780e-02	3.68178029e-04
1.40500000e-01	1.95088289e-02	3.67943475e-04
1.41000000e-01	1.96897502e-02	3.69195979e-04
1.41500000e-01	1.95837946e-02	3.69178792e-04
1.42000000e-01	1.95754323e-02	3.66445433e-04
1.42500000e-01	1.92741466e-02	3.60583306e-04
1.43000000e-01	1.91407438e-02	3.59374673e-04
1.43500000e-01	1.94437436e-02	3.62671059e-04
1.44000000e-01	1.93444729e-02	3.59881075e-04
1.44500000e-01	1.96110394e-02	3.64377228e-04
1.45000000e-01	1.96543542e-02	3.64292834e-04
1.45500000e-01	1.95387943e-02	3.61535829e-04
1.46000000e-01	1.92269031e-02	3.54419441e-04
1.46500000e-01	1.95637898e-02	3.59314406e-04
1.47000000e-01	1.92468646e-02	3.54825709e-04
1.47500000e-01	1.94292021e-02	3.57013361e-04
1.48000000e-01	1.94491124e-02	3.57188993e-04
1.48500000e-01	1.96484257e-02	3.58402661e-04
1.49000000e-01	1.91329966e-02	3.49521132e-04
1.49500000e-01	1.91141878e-02	3.51428022e-04
1.50000000e-01	1.92207645e-02	3.49737234e-04
1.50500000e-01	1.93721157e-02	3.54866834e-04
1.51000000e-01	1.93734063e-02	3.52007744e-04
1.51500000e-01	1.94071816e-02	3.53071775e-04
1.52000000e-01	1.91597443e-02	3.45159657e-04
1.52500000e-01	1.93237831e-02	3.49224814e-04
1.53000000e-01	1.92307317e-02	3.46125482e-04
1.53500000e-01	1.91784203e-02	3.44674782e-04
1.54000000e-01	1.90336361e-02	3.40774435e-04
1.54500000e-01	1.95131033e-02	3.56425006e-04
1.55000000e-01	1.89668458e-02	3.52969465e-04
1.55500000e-01	1.91357631e-02	3.57058811e-04
1.56000000e-01	1.92109105e-02	3.59900868e-04
1.56500000e-01	1.95857654e-02	3.64775279e-04
1.57000000e-01	1.93115564e-02	3.62585076e-04
1.57500000e-01	1.92288371e-02	3.52905391e-04
1.58000000e-01	1.89926036e-02	3.44811483e-04
1.58500000e-01	1.92971334e-02	3.49001034e-04
1.59000000e-01	1.92497680e-02	3.46751621e-04
1.59500000e-01	1.91754037e-02	3.42419260e-04
1.60000000e-01	1.90730882e-02	3.40750460e-04
1.60500000e-01	1.92873624e-02	3.42222958e-04
1.61000000e-01	1.91469231e-02	3.42862188e-04
1.61500000e-01	1.90207464e-02	3.38061930e-04
1.62000000e-01	1.92565400e-02	3.41794253e-04
1.62500000e-01	1.91512975e-02	3.40319463e-04
1.63000000e-01	1.91309361e-02	3.37124372e-04
1.63500000e-01	1.88115142e-02	3.34374373e-04
1.64000000e-01	1.90298104e-02	3.33139154e-04
1.64500000e-01	1.89460246e-02	3.32286825e-04
1.65000000e-01	1.87981719e-02	3.29720096e-04
1.65500000e-01	1.91634254e-02	3.34992783e-04
1.66000000e-01	1.89557448e-02	3.31783843e-04
1.66500000e-01	1.90509286e-02	3.33124636e-04
1.67000000e-01	1.90788933e-02	3.33403335e-04
1.67500000e-01	1.92031616e-02	3.33965882e-04
1.68000000e-01	1.90503678e-02	3.32234701e-04
1.68500000e-01	1.88956320e-02	3.28233113e-04
1.69000000e-01	1.87950392e-02	3.26837699e-04
1.69500000e-01	1.89186777e-02	3.26490462e-04
1.70000000e-01	1.89714400e-02	3.28932086e-04
1.70500000e-01	1.85132975e-02	3.19522757e-04
1.71000000e-01	1.87519821e-02	3.22280493e-04
1.71500000e-01	1.89246637e-02	3.26566682e-04
1.72000000e-01	1.88892051e-02	3.23985170e-04
1.72500000e-01	1.88450541e-02	3.22720059e-04
1.73000000e-01	1.89892995e-02	3.24383506e-04
1.73500000e-01	1.85144831e-02	3.15693438e-04
1.74000000e-01	1.87479074e-02	3.20198761e-04
1.74500000e-01	1.86007238e-02	3.15215846e-04
1.75000000e-01	1.88099326e-02	3.17589602e-04
1.75500000e-01	1.87119119e-02	3.15652578e-04
1.76000000e-01	1.86937184e-02	3.14455780e-04
1.76500000e-01	1.89482896e-02	3.18729859e-04
1.77000000e-01	1.87093677e-02	3.15236554e-04
1.77500000e-01	1.87587513e-02	3.15232813e-04
1.78000000e-01	1.88072502e-02	3.16813599e-04
1.78500000e-01	1.89659420e-02	3.18305230e-04
1.79000000e-01	1.87232335e-02	3.14401178e-04
1.79500000e-01	1.84012413e-02	3.10015857e-04
1.80000000e-01	1.86777942e-02	3.13918361e-04
1.80500000e-01	1.85648534e-02	3.10576351e-04
1.81000000e-01	1.87635763e-02	3.14527209e-04
1.81500000e-01	1.87299172e-02	3.13489290e-04
1.82000000e-01	1.85565894e-02	3.09219302e-04
1.82500000e-01	1.86144155e-02	3.10266796e-04
1.83000000e-01	1.85846319e-02	3.10608935e-04
1.83500000e-01	1.85849609e-02	3.09142901e-04
1.84000000e-01	1.84290858e-02	3.05995078e-04
1.84500000e-01	1.87346445e-02	3.10858043e-04
1.85000000e-01	1.86582795e-02	3.09326950e-04
1.85500000e-01	1.84697790e-02	3.06074234e-04
1.86000000e-01	1.85110239e-02	3.06930208e-04
1.86500000e-01	1.85580284e-02	3.06126459e-04
1.87000000e-01	1.85412331e-02	3.05822886e-04
1.87500000e-01	1.83693962e-02	3.02611900e-04
1.88000000e-01	1.86209937e-02	3.05479378e-04
1.88500000e-01	1.84799600e-02	3.02464861e-04
1.89000000e-01	1.85277293e-02	3.02975369e-04
1.89500000e-01	1.82416581e-02	2.99528938e-04
1.90000000e-01	1.83684272e-02	3.00444189e-04
1.90500000e-01	1.86125349e-02	3.02316842e-04
1.91000000e-01	1.84105141e-02	3.00704412e-04
1.91500000e-01	1.85906725e-02	3.02030547e-04
1.92000000e-01	1.85001111e-02	3.00387297e-04
1.92500000e-01	1.85576585e-02	3.01571699e-04
1.93000000e-01	1.81101502e-02	2.95471446e-04
1.93500000e-01	1.83808068e-02	2.98234908e-04
1.94000000e-01	1.84821465e-02	2.99483324e-04
1.94500000e-01	1.84664365e-02	2.97974114e-04
1.95000000e-01	1.84202370e-02	2.97378640e-04
1.95500000e-01	1.84079384e-02	2.96906806e-04
1.96000000e-01	1.82953268e-02	2.94013473e-04
1.96500000e-01	1.84078748e-02	2.95926542e-04
1.97000000e-01	1.83449870e-02	2.96136616e-04
1.97500000e-01	1.85023661e-02	2.97010550e-04
1.98000000e-01	1.82852157e-02	2.92925740e-04
1.98500000e-01	1.82376895e-02	2.90934742e-04
1.99000000e-01	1.83035789e-02	2.92186863e-04
1.99500000e-01	1.83414756e-02	2.91599674e-04
2.00000000e-01	1.81223257e-02	2.89104421e-04
2.00500000e-01	1.81941076e-02	2.90109448e-04
2.01000000e-01	1.82237499e-02	2.89709609e-04
2.01500000e-01	1.82261420e-02	2.90554112e-04
2.02000000e-01	1.81610887e-02	2.88538821e-04
2.02500000e-01	1.83583070e-02	2.89891396e-04
2.03000000e-01	1.83811467e-02	2.91304935e-04
2.03500000e-01	1.82665811e-02	2.89189447e-04
2.04000000e-01	1.83311826e-02	2.90637334e-04
2.04500000e-01	1.80039544e-02	2.85196907e-04
2.05000000e-01	1.83878600e-02	2.89734918e-04
2.05500000e-01	1.81638933e-02	2.86619508e-04
2.06000000e-01	1.81792081e-02	2.85221805e-04
2.06500000e-01	1.80023913e-02	2.82131179e-04
2.07000000e-01	1.82228766e-02	2.86552718e-04
2.07500000e-01	1.81603965e-02	2.85528692e-04
2.08000000e-01	1.82131122e-02	2.85855741e-04
2.08500000e-01	1.81118881e-02	2.82724770e-04
2.09000000e-01	1.80610335e-02	2.82476907e-04
2.09500000e-01	1.80357065e-02	2.81618071e-04
2.10000000e-01	1.79590172e-02	2.79797613e-04
2.10500000e-01	1.82117220e-02	2.83771719e-04
2.11000000e-01	1.81315955e-02	2.81498858e-04
2.11500000e-01	1.80672157e-02	2.81731891e-04
2.12000000e-01	1.84483016e-02	2.84585277e-04
2.12500000e-01	1.80059914e-02	2.80070309e-04
2.13000000e-01	1.81909075e-02	2.81080715e-04
2.13500000e-01	1.80052660e-02	2.78865928e-04
2.14000000e-01	1.80754524e-02	2.79685599e-04
2.14500000e-01	1.78061662e-02	2.74182834e-04
2.15000000e-01	1.78219473e-02	2.76048278e-04
2.15500000e-01	1.81324756e-02	2.77982369e-04
2.16000000e-01	1.81952663e-02	2.79106451e-04
2.16500000e-01	1.82395238e-02	2.79344684e-04
2.17000000e-01	1.82410411e-02	2.83400881e-04
2.17500000e-01	1.81895793e-02	2.87003284e-04
2.18000000e-01	1.79192385e-02	2.84017804e-04
2.18500000e-01	1.79484302e-02	2.87332427e-04
2.19000000e-01	1.79653821e-02	2.88640615e-04
2.19500000e-01	1.78018271e-02	2.85996518e-04
2.20000000e-01	1.79926281e-02	2.90138179e-04
2.20500000e-01	1.80634265e-02	2.93210032e-04
2.21000000e-01	1.79036327e-02	2.90988343e-04
2.21500000e-01	1.81232569e-02	2.93964316e-04
2.22000000e-01	1.79163152e-02	2.91721572e-04
2.22500000e-01	1.80080727e-02	2.93692295e-04
2.23000000e-01	1.78442263e-02	2.92809890e-04
2.23500000e-01	1.78605443e-02	2.93116408e-04
2.24000000e-01	1.79151871e-02	2.95318519e-04
2.24500000e-01	1.80913465e-02	2.99445315e-04
2.25000000e-01	1.78834611e-02	2.95795085e-04
2.25500000e-01	1.80545792e-02	2.98741655e-04
2.26000000e-01	1.81860312e-02	3.02596193e-04
2.26500000e-01	1.78624648e-02	2.91482666e-04
2.27000000e-01	1.80178432e-02	2.90647633e-04
2.27500000e-01	1.80269796e-02	2.88864592e-04
2.28000000e-01	1.79490198e-02	2.87409202e-04
2.28500000e-01	1.77964233e-02	2.82006560e-04
2.29000000e-01	1.77061478e-02	2.79951814e-04
2.29500000e-01	1.78324377e-02	2.81846437e-04
2.30000000e-01	1.79248807e-02	2.82781059e-04
2.30500000e-01	1.77503896e-02	2.77018920e-04
2.31000000e-01	1.79168587e-02	2.81149933e-04
2.31500000e-01	1.80049987e-02	2.80820675e-04
2.32000000e-01	1.80239120e-02	2.80715217e-04
2.32500000e-01	1.78012709e-02	2.77000438e-04
2.33000000e-01	1.77168958e-02	2.74057808e-04
2.33500000e-01	1.80018181e-02	2.78174180e-04
2.34000000e-01	1.76764641e-02	2.72663002e-04
2.34500000e-01	1.77269413e-02	2.73191896e-04
2.35000000e-01	1.78073699e-02	2.73195784e-04
2.35500000e-01	1.78263909e-02	2.73868087e-04
2.36000000e-01	1.75114021e-02	2.69789955e-04
2.36500000e-01	1.79842769e-02	2.75570669e-04
2.37000000e-01	1.76947497e-02	2.70169436e-04
2.37500000e-01	1.76478206e-02	2.69836703e-04
2.38000000e-01	1.76925801e-02	2.68678674e-04
2.38500000e-01	1.77866406e-02	2.71769506e-04
2.39000000e-01	1.76044507e-02	2.67840836e-04
2.39500000e-01	1.77707142e-02	2.69213011e-04
2.40000000e-01	1.77819161e-02	2.69153244e-04
2.40500000e-01	1.77685217e-02	2.66740497e-04
2.41000000e-01	1.76232285e-02	2.65984810e-04
2.41500000e-01	1.74489451e-02	2.62460262e-04
2.42000000e-01	1.77004755e-02	2.65653754e-04
2.42500000e-01	1.77173374e-02	2.66445731e-04
2.43000000e-01	1.76069429e-02	2.64159049e-04
2.43500000e-01	1.77442584e-02	2.64831631e-04
2.44000000e-01	1.79227688e-02	2.66938668e-04
2.44500000e-01	1.77277444e-02	2.64834135e-04
2.45000000e-01	1.73677605e-02	2.58030360e-04
2.45500000e-01	1.76599372e-02	2.63338804e-04
2.46000000e-01	1.76362171e-02	2.62420815e-04
2.46500000e-01	1.74383375e-02	2.58603446e-04
2.47000000e-01	1.75345698e-02	2.60591863e-04
2.47500000e-01	1.75883464e-02	2.58501740e-04
2.48000000e-01	1.75383076e-02	2.59208770e-04
2.48500000e-01	1.76139977e-02	2.59492494e-04
2.49000000e-01	1.74894374e-02	2.57832886e-04
2.49500000e-01	1.74496814e-02	2.58158736e-04
2.50000000e-01	1.73628062e-02	2.55709511e-04
2.50500000e-01	1.75072532e-02	2.58032394e-04
2.51000000e-01	1.72472604e-02	2.53320669e-04
2.51500000e-01	1.74728598e-02	2.56103261e-04
2.52000000e-01	1.74773815e-02	2.57261207e-04
2.52500000e-01	1.73210114e-02	2.54730951e-04
2.53000000e-01	1.72699964e-02	2.52653177e-04
2.53500000e-01	1.75573816e-02	2.55807738e-04
2.54000000e-01	1.76171437e-02	2.57125033e-04
2.54500000e-01	1.75543421e-02	2.57049912e-04
2.55000000e-01	1.73099386e-02	2.52138792e-04
2.55500000e-01	1.73672872e-02	2.53039496e-04
2.56000000e-01	1.71617114e-02	2.49321933e-04
2.56500000e-01	1.72794621e-02	2.51036619e-04
2.57000000e-01	1.73361995e-02	2.51239048e-04
2.57500000e-01	1.75782630e-02	2.53283141e-04
2.58000000e-01	1.71971690e-02	2.50319169e-04
2.58500000e-01	1.72636144e-02	2.49921476e-04
2.59000000e-01	1.71540621e-02	2.49158578e-04
2.59500000e-01	1.73326585e-02	2.50204105e-04
2.60000000e-01	1.74068359e-02	2.51283554e-04
2.60500000e-01	1.72685110e-02	2.48532564e-04
2.61000000e-01	1.72241054e-02	2.47274709e-04
2.61500000e-01	1.74235758e-02	2.50878094e-04
2.62000000e-01	1.73658277e-02	2.49374586e-04
2.62500000e-01	1.72476125e-02	2.47734493e-04
2.63000000e-01	1.73850924e-02	2.49057284e-04
2.63500000e-01	1.72835312e-02	2.46502777e-04
2.64000000e-01	1.72947146e-02	2.47335525e-04
2.64500000e-01	1.71731260e-02	2.45221181e-04
2.65000000e-01	1.72437424e-02	2.46489290e-04
2.65500000e-01	1.71139562e-02	2.42955705e-04
2.66000000e-01	1.71706161e-02	2.44387912e-04
2.66500000e-01	1.70589261e-02	2.42886946e-04
2.67000000e-01	1.71522155e-02	2.42957943e-04
2.67500000e-01	1.74507723e-02	2.46892446e-04
2.68000000e-01	1.71656134e-02	2.43823839e-04
2.68500000e-01	1.70238122e-02	2.41654398e-04
2.69000000e-01	1.70061109e-02	2.40423893e-04
2.69500000e-01	1.72134674e-02	2.42145972e-04
2.70000000e-01	1.72041058e-02	2.42760128e-04
2.70500000e-01	1.69447322e-02	2.39092660e-04
2.71000000e-01	1.70044068e-02	2.39896907e-04
2.71500000e-01	1.71703811e-02	2.41816392e-04
2.72000000e-01	1.70798588e-02	2.39303141e-04
2.72500000e-01	1.71427479e-02	2.40778203e-04
2.73000000e-01	1.70225006e-02	2.38787200e-04
2.73500000e-01	1.70247193e-02	2.37291591e-04
2.74000000e-01	1.72121397e-02	2.40295931e-04
2.74500000e-01	1.69186103e-02	2.36078530e-04
2.75000000e-01	1.70534118e-02	2.38824419e-04
2.75500000e-01	1.68248383e-02	2.35953497e-04
2.76000000e-01	1.69449147e-02	2.36539164e-04
2.76500000e-01	1.67545055e-02	2.34136178e-04
2.77000000e-01	1.69411745e-02	2.35829970e-04
2.77500000e-01	1.72712773e-02	2.40909382e-04
2.78000000e-01	1.71878278e-02	2.38766318e-04
2.78500000e-01	1.70204002e-02	2.36866483e-04
2.79000000e-01	1.69890450e-02	2.36027290e-04
2.79500000e-01	1.70883143e-02	2.36409516e-04
2.80000000e-01	1.69836537e-02	2.35187931e-04
2.80500000e-01	1.70497897e-02	2.36256151e-04
2.81000000e-01	1.70959868e-02	2.37072814e-04
2.81500000e-01	1.69269297e-02	2.34572335e-04
2.82000000e-01	1.70678307e-02	2.35599117e-04
2.82500000e-01	1.71087331e-02	2.35862983e-04
2.83000000e-01	1.70584917e-02	2.34863712e-04
2.83500000e-01	1.70122752e-02	2.34376076e-04
2.84000000e-01	1.67958752e-02	2.31072071e-04
2.84500000e-01	1.71330485e-02	2.34750769e-04
2.85000000e-01	1.67311692e-02	2.30138713e-04
2.85500000e-01	1.70484383e-02	2.33793227e-04
2.86000000e-01	1.70051044e-02	2.33663707e-04
2.86500000e-01	1.67225736e-02	2.29255971e-04
2.87000000e-01	1.69418586e-02	2.31752248e-04
2.87500000e-01	1.68801997e-02	2.30242688e-04
2.88000000e-01	1.67941677e-02	2.28935169e-04
2.88500000e-01	1.68561632e-02	2.30133028e-04
2.89000000e-01	1.69100746e-02	2.30324335e-04
2.89500000e-01	1.67581532e-02	2.28224747e-04
2.90000000e-01	1.68326714e-02	2.29269604e-04
2.90500000e-01	1.68183815e-02	2.28624442e-04
2.91000000e-01	1.67608267e-02	2.27426533e-04
2.91500000e-01	1.70023843e-02	2.29490562e-04
2.92000000e-01	1.68311536e-02	2.28005737e-04
2.92500000e-01	1.69719809e-02	2.29376036e-04
2.93000000e-01	1.70400017e-02	2.29079912e-04
2.93500000e-01	1.68282959e-02	2.27519857e-04
2.94000000e-01	1.68725894e-02	2.27168185e-04
2.94500000e-01	1.70761671e-02	2.30117722e-04
2.95000000e-01	1.69364014e-02	2.28074564e-04
2.95500000e-01	1.68347211e-02	2.27225158e-04
2.96000000e-01	1.67438123e-02	2.25583208e-04
2.96500000e-01	1.68530764e-02	2.26587697e-04
2.97000000e-01	1.69136024e-02	2.27902355e-04
2.97500000e-01	1.68609558e-02	2.25877407e-04
2.98000000e-01	1.68144374e-02	2.25678572e-04
2.98500000e-01	1.66830245e-02	2.24342570e-04
2.99000000e-01	1.68243115e-02	2.25084114e-04
2.99500000e-01	1.66589296e-02	2.23600095e-04
3.00000000e-01	1.68548100e-02	2.25792456e-04
3.00500000e-01	1.67108836e-02	2.23099795e-04
3.01000000e-01	1.66308040e-02	2.21952091e-04
3.01500000e-01	1.64888147e-02	2.19828546e-04
3.02000000e-01	1.66726579e-02	2.21323821e-04
3.02500000e-01	1.67102660e-02	2.23193269e-04
3.03000000e-01	1.67766552e-02	2.24049970e-04
3.03500000e-01	1.65903098e-02	2.20506519e-04
3.04000000e-01	1.66416387e-02	2.21365358e-04
3.04500000e-01	1.67151003e-02	2.21602320e-04
3.05000000e-01	1.65841213e-02	2.20147388e-04
3.05500000e-01	1.67834456e-02	2.22286396e-04
3.06000000e-01	1.67988896e-02	2.20737445e-04
3.06500000e-01	1.66109711e-02	2.18646580e-04
3.07000000e-01	1.66989469e-02	2.20518672e-04
3.07500000e-01	1.67441968e-02	2.21478561e-04
3.08000000e-01	1.65979956e-02	2.19349267e-04
3.08500000e-01	1.65951588e-02	2.18093650e-04
3.09000000e-01	1.65189726e-02	2.17154675e-04
3.09500000e-01	1.66728315e-02	2.18727240e-04
3.10000000e-01	1.64446501e-02	2.16677357e-04
3.10500000e-01	1.66710165e-02	2.19168303e-04
3.11000000e-01	1.65751308e-02	2.17335934e-04
3.11500000e-01	1.63509672e-02	2.15101061e-04
3.12000000e-01	1.66943872e-02	2.18281074e-04
3.12500000e-01	1.64325040e-02	2.14751489e-04
3.13000000e-01	1.65728269e-02	2.17053054e-04
3.13500000e-01	1.66189672e-02	2.17330215e-04
3.14000000e-01	1.65066973e-02	2.15631920e-04
3.14500000e-01	1.66268623e-02	2.17250687e-04
3.15000000e-01	1.65431553e-02	2.16851889e-04
3.15500000e-01	1.64672457e-02	2.14693158e-04
3.16000000e-01	1.64557116e-02	2.14480701e-04
3.16500000e-01	1.64785622e-02	2.13657467e-04
3.17000000e-01	1.64906589e-02	2.15015738e-04
3.17500000e-01	1.63731411e-02	2.13779803e-04
3.18000000e-01	1.64037485e-02	2.13245162e-04
3.18500000e-01	1.62812392e-02	2.11339288e-04
3.19000000e-01	1.64075038e-02	2.13255176e-04
3.19500000e-01	1.62870381e-02	2.12093152e-04
3.20000000e-01	1.64220235e-02	2.12967633e-04
3.20500000e-01	1.63425461e-02	2.12416055e-04
3.21000000e-01	1.62914708e-02	2.11409379e-04
3.21500000e-01	1.63995283e-02	2.11888082e-04
3.22000000e-01	1.64302517e-02	2.11744689e-04
3.22500000e-01	1.63495806e-02	2.10878164e-04
3.23000000e-01	1.63876615e-02	2.11296820e-04
3.23500000e-01	1.62708689e-02	2.10368262e-04
3.24000000e-01	1.62916791e-02	2.09577000e-04
3.24500000e-01	1.63089939e-02	2.10277943e-04
3.25000000e-01	1.61707957e-02	2.07763197e-04
3.25500000e-01	1.63523735e-02	2.09428250e-04
3.26000000e-01	1.62851455e-02	2.09123068e-04
3.26500000e-01	1.61876497e-02	2.08050060e-04
3.27000000e-01	1.62992976e-02	2.09038468e-04
3.27500000e-01	1.61517900e-02	2.06485555e-04
3.28000000e-01	1.61886013e-02	2.08078825e-04
3.28500000e-01	1.62392912e-02	2.07625198e-04
3.29000000e-01	1.62275563e-02	2.07442472e-04
3.29500000e-01	1.62862377e-02	2.07929966e-04
3.30000000e-01	1.63293731e-02	2.08377321e-04
3.30500000e-01	1.62401389e-02	2.07023317e-04
3.31000000e-01	1.62502185e-02	2.06519657e-04
3.31500000e-01	1.63160046e-02	2.07825506e-04
3.32000000e-01	1.61237321e-02	2.05556386e-04
3.32500000e-01	1.61598660e-02	2.05139533e-04
3.33000000e-01	1.62537150e-02	2.06521413e-04
3.33500000e-01	1.62241331e-02	2.05782036e-04
3.34000000e-01	1.60638360e-02	2.04449626e-04
3.34500000e-01	1.61891153e-02	2.04959406e-04
3.35000000e-01	1.59909818e-02	2.02479417e-04
3.35500000e-01	1.60418376e-02	2.03341563e-04
3.36000000e-01	1.63441046e-02	2.06469788e-04
3.36500000e-01	1.59821403e-02	2.03160284e-04
3.37000000e-01	1.59488299e-02	2.01574644e-04
3.37500000e-01	1.60392628e-02	2.02986821e-04
3.38000000e-01	1.61527600e-02	2.04325048e-04
3.38500000e-01	1.61123249e-02	2.03506851e-04
3.39000000e-01	1.60049010e-02	2.02510305e-04
3.39500000e-01	1.60588665e-02	2.01536794e-04
3.40000000e-01	1.59198514e-02	2.01294806e-04
3.40500000e-01	1.61073495e-02	2.02782744e-04
3.41000000e-01	1.60607614e-02	2.01510235e-04
3.41500000e-01	1.59403529e-02	2.01112758e-04
3.42000000e-01	1.59659109e-02	2.00385871e-04
3.42500000e-01	1.60794069e-02	2.01825916e-04
3.43000000e-01	1.60473251e-02	2.01011043e-04
3.43500000e-01	1.60953388e-02	2.01030151e-04
3.44000000e-01	1.60912071e-02	2.01184144e-04
3.44500000e-01	1.58444833e-02	1.97949339e-04
3.45000000e-01	1.61071365e-02	2.01644645e-04
3.45500000e-01	1.59170993e-02	1.98710339e-04
3.46000000e-01	1.59544880e-02	1.99878225e-04
3.46500000e-01	1.59009933e-02	1.98189086e-04
3.47000000e-01	1.60568601e-02	2.00031426e-04
3.47500000e-01	1.60215394e-02	1.99828105e-04
3.48000000e-01	1.59771000e-02	1.98721730e-04
3.48500000e-01	1.58814518e-02	1.97744372e-04
3.49000000e-01	1.57288453e-02	1.95441160e-04
3.49500000e-01	1.60346700e-02	1.98766785e-04
3.50000000e-01	1.59177479e-02	1.60935305e-04
3.51000000e-01	1.59200949e-02	1.39592511e-04
3.52000000e-01	1.57583709e-02	1.38373775e-04
3.53000000e-01	1.58290383e-02	1.37975731e-04
3.54000000e-01	1.57888846e-02	1.37382451e-04
3.55000000e-01	1.57587047e-02	1.37627583e-04
3.56000000e-01	1.59075521e-02	1.38994456e-04
3.57000000e-01	1.58052369e-02	1.40740183e-04
3.58000000e-01	1.57232341e-02	1.41438061e-04
3.59000000e-01	1.56438708e-02	1.41611649e-04
3.60000000e-01	1.55532025e-02	1.42436356e-04
3.61000000e-01	1.55883046e-02	1.42695166e-04
3.62000000e-01	1.56457626e-02	1.43778588e-04
3.63000000e-01	1.55725902e-02	1.43684100e-04
3.64000000e-01	1.55962414e-02	1.44342924e-04
3.65000000e-01	1.56247414e-02	1.45258263e-04
3.66000000e-01	1.55736369e-02	1.43146218e-04
3.67000000e-01	1.56266686e-02	1.41592894e-04
3.68000000e-01	1.54660418e-02	1.39203202e-04
3.69000000e-01	1.53810080e-02	1.38014910e-04
3.70000000e-01	1.55877452e-02	1.38685341e-04
3.71000000e-01	1.54752202e-02	1.39584012e-04
3.72000000e-01	1.54414526e-02	1.40448589e-04
3.73000000e-01	1.56046351e-02	1.41997923e-04
3.74000000e-01	1.54802694e-02	1.40936857e-04
3.75000000e-01	1.55915174e-02	1.42284303e-04
3.76000000e-01	1.55869799e-02	1.41885357e-04
3.77000000e-01	1.54773442e-02	1.41102473e-04
3.78000000e-01	1.54249446e-02	1.40695546e-04
3.79000000e-01	1.53587571e-02	1.39929352e-04
3.80000000e-01	1.55869722e-02	1.41696119e-04
3.81000000e-01	1.53911649e-02	1.40014591e-04
3.82000000e-01	1.53948670e-02	1.39970673e-04
3.83000000e-01	1.52995839e-02	1.39307110e-04
3.84000000e-01	1.53636359e-02	1.39295180e-04
3.85000000e-01	1.54086653e-02	1.40417482e-04
3.86000000e-01	1.53644083e-02	1.39305642e-04
3.87000000e-01	1.52133449e-02	1.38624619e-04
3.88000000e-01	1.54673057e-02	1.40614986e-04
3.89000000e-01	1.53718447e-02	1.39518258e-04
3.90000000e-01	1.52777119e-02	1.38767266e-04
3.91000000e-01	1.52252398e-02	1.38152598e-04
3.92000000e-01	1.51953319e-02	1.37560761e-04
3.93000000e-01	1.52725384e-02	1.38414483e-04
3.94000000e-01	1.53269072e-02	1.38981364e-04
3.95000000e-01	1.52651389e-02	1.37957556e-04
3.96000000e-01	1.51770493e-02	1.37614107e-04
3.97000000e-01	1.52791994e-02	1.38242622e-04
3.98000000e-01	1.51801314e-02	1.37702606e-04
3.99000000e-01	1.51422119e-02	1.37602974e-04
4.00000000e-01	1.52076418e-02	1.37817788e-04
4.01000000e-01	1.52189471e-02	1.38111171e-04
4.02000000e-01	1.50573265e-02	1.36853097e-04
4.03000000e-01	1.51048832e-02	1.36829248e-04
4.04000000e-01	1.49980510e-02	1.36006346e-04
4.05000000e-01	1.50505157e-02	1.36139445e-04
4.06000000e-01	1.51414005e-02	1.37326794e-04
4.07000000e-01	1.50687081e-02	1.36372755e-04
4.08000000e-01	1.49585083e-02	1.35726721e-04
4.09000000e-01	1.50507747e-02	1.36050374e-04
4.10000000e-01	1.50203359e-02	1.35928719e-04
4.11000000e-01	1.50087222e-02	1.35697924e-04
4.12000000e-01	1.50513836e-02	1.35982105e-04
4.13000000e-01	1.50472554e-02	1.35858480e-04
4.14000000e-01	1.49176650e-02	1.34915650e-04
4.15000000e-01	1.49746340e-02	1.35103273e-04
4.16000000e-01	1.49719155e-02	1.35088170e-04
4.17000000e-01	1.49054086e-02	1.34439231e-04
4.18000000e-01	1.50127296e-02	1.37108141e-04
4.19000000e-01	1.49477684e-02	1.38093466e-04
4.20000000e-01	1.50095545e-02	1.39224708e-04
4.21000000e-01	1.49812990e-02	1.39637581e-04
4.22000000e-01	1.50544091e-02	1.40953951e-04
4.23000000e-01	1.50077472e-02	1.40892028e-04
4.24000000e-01	1.51321782e-02	1.42173521e-04
4.25000000e-01	1.50033882e-02	1.41344244e-04
4.26000000e-01	1.49610427e-02	1.40822139e-04
4.27000000e-01	1.48087335e-02	1.39281844e-04
4.28000000e-01	1.48470330e-02	1.40677944e-04
4.29000000e-01	1.49498467e-02	1.41610229e-04
4.30000000e-01	1.49079561e-02	1.41187527e-04
4.31000000e-01	1.49670149e-02	1.41278870e-04
4.32000000e-01	1.49945801e-02	1.41784799e-04
4.33000000e-01	1.48915333e-02	1.40867903e-04
4.34000000e-01	1.49181406e-02	1.41569196e-04
4.35000000e-01	1.48555310e-02	1.40875241e-04
4.36000000e-01	1.48238117e-02	1.40820033e-04
4.37000000e-01	1.49787762e-02	1.41789735e-04
4.38000000e-01	1.47730029e-02	1.41024659e-04
4.39000000e-01	1.48394164e-02	1.41665781e-04
4.40000000e-01	1.47416029e-02	1.40569336e-04
4.41000000e-01	1.47261758e-02	1.40741439e-04
4.42000000e-01	1.48096729e-02	1.41683635e-04
4.43000000e-01	1.47874601e-02	1.41591736e-04
4.44000000e-01	1.47849305e-02	1.41791230e-04
4.45000000e-01	1.48007759e-02	1.42261078e-04
4.46000000e-01	1.47463293e-02	1.41489662e-04
4.47000000e-01	1.46983496e-02	1.41211443e-04
4.48000000e-01	1.45861638e-02	1.40995999e-04
4.49000000e-01	1.47021550e-02	1.41696346e-04
4.50000000e-01	1.46902335e-02	1.41979179e-04
4.51000000e-01	1.47519142e-02	1.42541791e-04
4.52000000e-01	1.48076607e-02	1.43268418e-04
4.53000000e-01	1.47121684e-02	1.42592121e-04
4.54000000e-01	1.45639116e-02	1.40837627e-04
4.55000000e-01	1.46249573e-02	1.41763537e-04
4.56000000e-01	1.47098530e-02	1.42567571e-04
4.57000000e-01	1.47081820e-02	1.42956048e-04
4.58000000e-01	1.45041898e-02	1.41230236e-04
4.59000000e-01	1.45790798e-02	1.42233254e-04
4.60000000e-01	1.46897316e-02	1.43426835e-04
4.61000000e-01	1.45229185e-02	1.41902924e-04
4.62000000e-01	1.46192379e-02	1.42655626e-04
4.63000000e-01	1.47268124e-02	1.43978091e-04
4.64000000e-01	1.45902403e-02	1.42610792e-04
4.65000000e-01	1.46223616e-02	1.43320290e-04
4.66000000e-01	1.46266779e-02	1.43358037e-04
4.67000000e-01	1.46373990e-02	1.43296345e-04
4.68000000e-01	1.45951731e-02	1.43130661e-04
4.69000000e-01	1.45173152e-02	1.42244554e-04
4.70000000e-01	1.45957434e-02	1.42863392e-04
4.71000000e-01	1.44634841e-02	1.41929692e-04
4.72000000e-01	1.43770662e-02	1.41477461e-04
4.73000000e-01	1.45012667e-02	1.42046411e-04
4.74000000e-01	1.44830111e-02	1.41949190e-04
4.75000000e-01	1.42810335e-02	1.40126390e-04
4.76000000e-01	1.44530720e-02	1.41982072e-04
4.77000000e-01	1.43684240e-02	1.41183024e-04
4.78000000e-01	1.43279463e-02	1.40284719e-04
4.79000000e-01	1.44892524e-02	1.42280048e-04
4.80000000e-01	1.44382466e-02	1.41500265e-04
4.81000000e-01	1.44640667e-02	1.42386448e-04
4.82000000e-01	1.44585255e-02	1.42320907e-04
4.83000000e-01	1.44324118e-02	1.41830881e-04
4.84000000e-01	1.44371772e-02	1.42300499e-04
4.85000000e-01	1.44322321e-02	1.42337017e-04
4.86000000e-01	1.43332748e-02	1.41255498e-04
4.87000000e-01	1.41826299e-02	1.40170598e-04
4.88000000e-01	1.44606592e-02	1.42021419e-04
4.89000000e-01	1.43096160e-02	1.41513865e-04
4.90000000e-01	1.42555624e-02	1.41059076e-04
4.91000000e-01	1.44537303e-02	1.42943903e-04
4.92000000e-01	1.43560534e-02	1.42106787e-04
4.93000000e-01	1.43369526e-02	1.41948223e-04
4.94000000e-01	1.44444118e-02	1.42820246e-04
4.95000000e-01	1.42685491e-02	1.42256067e-04
4.96000000e-01	1.42904023e-02	1.46896521e-04
4.97000000e-01	1.43729060e-02	1.50683295e-04
4.98000000e-01	1.42807750e-02	1.51327492e-04
4.99000000e-01	1.42379885e-02	1.52703837e-04
5.00000000e-01	1.44005141e-02	1.56299948e-04
5.01000000e-01	1.41959601e-02	1.55036152e-04
5.02000000e-01	1.42690065e-02	1.57748545e-04
5.03000000e-01	1.41128601e-02	1.57864156e-04
5.04000000e-01	1.42350962e-02	1.60384947e-04
5.05000000e-01	1.41903779e-02	1.57344392e-04
5.06000000e-01	1.43259447e-02	1.54386642e-04
5.07000000e-01	1.42997382e-02	1.53597480e-04
5.08000000e-01	1.42422548e-02	1.51971841e-04
5.09000000e-01	1.42050263e-02	1.50788626e-04
5.10000000e-01	1.42551004e-02	1.51057842e-04
5.11000000e-01	1.41831345e-02	1.49689975e-04
5.12000000e-01	1.42094206e-02	1.49537150e-04
5.13000000e-01	1.42651577e-02	1.50033124e-04
5.14000000e-01	1.41538397e-02	1.48815292e-04
5.15000000e-01	1.40533128e-02	1.47139503e-04
5.16000000e-01	1.40901391e-02	1.47100991e-04
5.17000000e-01	1.40747184e-02	1.46814624e-04
5.18000000e-01	1.40641068e-02	1.46696317e-04
5.19000000e-01	1.42002479e-02	1.47358229e-04
5.20000000e-01	1.41331690e-02	1.46632682e-04
5.21000000e-01	1.41065445e-02	1.45718466e-04
5.22000000e-01	1.40231592e-02	1.45130035e-04
5.23000000e-01	1.41612356e-02	1.46368032e-04
5.24000000e-01	1.40898154e-02	1.45683208e-04
5.25000000e-01	1.40089196e-02	1.44688141e-04
5.26000000e-01	1.39237841e-02	1.43644167e-04
5.27000000e-01	1.39640909e-02	1.44840713e-04
5.28000000e-01	1.40146926e-02	1.44936323e-04
5.29000000e-01	1.40381385e-02	1.44941104e-04
5.30000000e-01	1.39162018e-02	1.44218664e-04
5.31000000e-01	1.40164202e-02	1.44947508e-04
5.32000000e-01	1.39933520e-02	1.44878159e-04
5.33000000e-01	1.40543645e-02	1.45432754e-04
5.34000000e-01	1.40522019e-02	1.45599320e-04
5.35000000e-01	1.39229256e-02	1.44036136e-04
5.36000000e-01	1.39329164e-02	1.44532869e-04
5.37000000e-01	1.39392842e-02	1.43845782e-04
5.38000000e-01	1.38204780e-02	1.43045351e-04
5.39000000e-01	1.38114740e-02	1.42822685e-04
5.40000000e-01	1.38125837e-02	1.42580894e-04
5.41000000e-01	1.38713170e-02	1.42989981e-04
5.42000000e-01	1.37490190e-02	1.42389444e-04
5.43000000e-01	1.37610200e-02	1.42754414e-04
5.44000000e-01	1.38535214e-02	1.43538249e-04
5.45000000e-01	1.39177005e-02	1.44304645e-04
5.46000000e-01	1.38959028e-02	1.43339913e-04
5.47000000e-01	1.38413519e-02	1.43576279e-04
5.48000000e-01	1.38138884e-02	1.42982667e-04
5.49000000e-01	1.37761783e-02	1.42504698e-04
5.50000000e-01	1.37520906e-02	1.42092076e-04
5.51000000e-01	1.37695331e-02	1.41902531e-04
5.52000000e-01	1.37204787e-02	1.41276024e-04
5.53000000e-01	1.38807638e-02	1.42372280e-04
5.54000000e-01	1.37342302e-02	1.41238716e-04
5.55000000e-01	1.38120295e-02	1.41969181e-04
5.56000000e-01	1.37198303e-02	1.41309645e-04
5.57000000e-01	1.35699332e-02	1.39647192e-04
5.58000000e-01	1.35850762e-02	1.39939385e-04
5.59000000e-01	1.37736027e-02	1.41486942e-04
5.60000000e-01	1.36608769e-02	1.40680739e-04
5.61000000e-01	1.35800979e-02	1.39824963e-04
5.62000000e-01	1.37648754e-02	1.41522313e-04
5.63000000e-01	1.35138532e-02	1.39044578e-04
5.64000000e-01	1.36884843e-02	1.40684775e-04
5.65000000e-01	1.34369681e-02	1.38481345e-04
5.66000000e-01	1.35925258e-02	1.40263744e-04
5.67000000e-01	1.36684064e-02	1.40583440e-04
5.68000000e-01	1.34731374e-02	1.39123559e-04
5.69000000e-01	1.35465662e-02	1.39402707e-04
5.70000000e-01	1.35625236e-02	1.39211836e-04
5.71000000e-01	1.34440290e-02	1.38720065e-04
5.72000000e-01	1.35906427e-02	1.39790169e-04
5.73000000e-01	1.34599755e-02	1.39267208e-04
5.74000000e-01	1.35304827e-02	1.39278765e-04
5.75000000e-01	1.34298774e-02	1.38909154e-04
5.76000000e-01	1.36465494e-02	1.40332722e-04
5.77000000e-01	1.33523250e-02	1.37477579e-04
5.78000000e-01	1.34642341e-02	1.38849000e-04
5.79000000e-01	1.34379156e-02	1.38419244e-04
5.80000000e-01	1.34276321e-02	1.38873574e-04
5.81000000e-01	1.35712853e-02	1.40119256e-04
5.82000000e-01	1.35297137e-02	1.39850364e-04
5.83000000e-01	1.32661535e-02	1.37185878e-04
5.84000000e-01	1.34540241e-02	1.38904967e-04
5.85000000e-01	1.34210031e-02	1.38677447e-04
5.86000000e-01	1.32840945e-02	1.37103129e-04
5.87000000e-01	1.33627851e-02	1.37814112e-04
5.88000000e-01	1.34334044e-02	1.38778514e-04
5.89000000e-01	1.33648811e-02	1.38197150e-04
5.90000000e-01	1.31801887e-02	1.36412369e-04
5.91000000e-01	1.33097616e-02	1.37686106e-04
5.92000000e-01	1.33864953e-02	1.38539927e-04
5.93000000e-01	1.32160217e-02	1.36584868e-04
5.94000000e-01	1.33967546e-02	1.38549612e-04
5.95000000e-01	1.32593167e-02	1.37498935e-04
5.96000000e-01	1.30763229e-02	1.35626065e-04
5.97000000e-01	1.31910821e-02	1.36757846e-04
5.98000000e-01	1.33440618e-02	1.37986269e-04
5.99000000e-01	1.32629213e-02	1.37225852e-04
6.00000000e-01	1.32527788e-02	1.37116923e-04
6.01000000e-01	1.32111011e-02	1.37360308e-04
6.02000000e-01	1.32334198e-02	1.36932953e-04
6.03000000e-01	1.31696373e-02	1.36538690e-04
6.04000000e-01	1.33272311e-02	1.38010057e-04
6.05000000e-01	1.33446397e-02	1.37859834e-04
6.06000000e-01	1.32037325e-02	1.36648959e-04
6.07000000e-01	1.32255903e-02	1.37180294e-04
6.08000000e-01	1.31815172e-02	1.37093774e-04
6.09000000e-01	1.31729768e-02	1.36655445e-04
6.10000000e-01	1.30469140e-02	1.35312538e-04
6.11000000e-01	1.31476670e-02	1.36766806e-04
6.12000000e-01	1.31847673e-02	1.36570551e-04
6.13000000e-01	1.31698280e-02	1.36948520e-04
6.14000000e-01	1.32369556e-02	1.36992023e-04
6.15000000e-01	1.31636295e-02	1.36520143e-04
6.16000000e-01	1.31182688e-02	1.36241321e-04
6.17000000e-01	1.31637523e-02	1.36927182e-04
6.18000000e-01	1.30835670e-02	1.36043619e-04
6.19000000e-01	1.31982205e-02	1.36516835e-04
6.20000000e-01	1.31694067e-02	1.36511545e-04
6.21000000e-01	1.29796375e-02	1.34456137e-04
6.22000000e-01	1.30513063e-02	1.35114705e-04
6.23000000e-01	1.30042953e-02	1.34569738e-04
6.24000000e-01	1.30979277e-02	1.35396465e-04
6.25000000e-01	1.29772871e-02	1.33831573e-04
6.26000000e-01	1.29107704e-02	1.33079054e-04
6.27000000e-01	1.30051634e-02	1.33914403e-04
6.28000000e-01	1.30574546e-02	1.34239817e-04
6.29000000e-01	1.31436817e-02	1.35310877e-04
6.30000000e-01	1.30014172e-02	1.33783351e-04
6.31000000e-01	1.29979667e-02	1.33691198e-04
6.32000000e-01	1.29571374e-02	1.33720869e-04
6.33000000e-01	1.28818371e-02	1.33119346e-04
6.34000000e-01	1.29751024e-02	1.37193459e-04
6.35000000e-01	1.29359615e-02	1.40927305e-04
6.36000000e-01	1.31505092e-02	1.45756626e-04
6.37000000e-01	1.30247894e-02	1.46945293e-04
6.38000000e-01	1.30332746e-02	1.48418123e-04
6.39000000e-01	1.30597628e-02	1.50794544e-04
6.40000000e-01	1.29695405e-02	1.52146241e-04
6.41000000e-01	1.29058120e-02	1.52856918e-04
6.42000000e-01	1.30950268e-02	1.56472518e-04
6.43000000e-01	1.30458959e-02	1.55917808e-04
6.44000000e-01	1.33065439e-02	1.52903298e-04
6.45000000e-01	1.30165134e-02	1.47703659e-04
6.46000000e-01	1.30590171e-02	1.46906612e-04
6.47000000e-01	1.30649849e-02	1.45909637e-04
6.48000000e-01	1.30046959e-02	1.43951169e-04
6.49000000e-01	1.30316163e-02	1.43837008e-04
6.50000000e-01	1.29957007e-02	1.42069180e-04
6.51000000e-01	1.29917945e-02	1.42051414e-04
6.52000000e-01	1.30457549e-02	1.42592284e-04
6.53000000e-01	1.29989446e-02	1.41099370e-04
6.54000000e-01	1.30521111e-02	1.41474892e-04
6.55000000e-01	1.29863447e-02	1.40102980e-04
6.56000000e-01	1.29761682e-02	1.40285968e-04
6.57000000e-01	1.29030371e-02	1.39033573e-04
6.58000000e-01	1.30512995e-02	1.40087444e-04
6.59000000e-01	1.29941692e-02	1.39728824e-04
6.60000000e-01	1.29834292e-02	1.39418538e-04
6.61000000e-01	1.30107789e-02	1.39776542e-04
6.62000000e-01	1.29697423e-02	1.39761193e-04
6.63000000e-01	1.28862023e-02	1.38548398e-04
6.64000000e-01	1.27587724e-02	1.36793889e-04
6.65000000e-01	1.28417750e-02	1.37799505e-04
6.66000000e-01	1.29826819e-02	1.39108845e-04
6.67000000e-01	1.28286607e-02	1.37600473e-04
6.68000000e-01	1.27744161e-02	1.37078063e-04
6.69000000e-01	1.28613198e-02	1.37535316e-04
6.70000000e-01	1.26865784e-02	1.35967307e-04
6.71000000e-01	1.28003701e-02	1.36832461e-04
6.72000000e-01	1.27845353e-02	1.37008166e-04
6.73000000e-01	1.27444731e-02	1.36317563e-04
6.74000000e-01	1.27815589e-02	1.36739200e-04
6.75000000e-01	1.28365285e-02	1.37115859e-04
6.76000000e-01	1.27986327e-02	1.36828093e-04
6.77000000e-01	1.28760858e-02	1.37396509e-04
6.78000000e-01	1.28159193e-02	1.36994744e-04
6.79000000e-01	1.27650032e-02	1.36319494e-04
6.80000000e-01	1.27957627e-02	1.36073554e-04
6.81000000e-01	1.27706013e-02	1.36582643e-04
6.82000000e-01	1.27498565e-02	1.36377592e-04
6.83000000e-01	1.25584079e-02	1.34110359e-04
6.84000000e-01	1.26846502e-02	1.35513220e-04
6.85000000e-01	1.27220753e-02	1.35385958e-04
6.86000000e-01	1.26969878e-02	1.35322984e-04
6.87000000e-01	1.27135015e-02	1.35849122e-04
6.88000000e-01	1.27180215e-02	1.36023587e-04
6.89000000e-01	1.26244281e-02	1.35229047e-04
6.90000000e-01	1.27987736e-02	1.36516596e-04
6.91000000e-01	1.26079853e-02	1.34417635e-04
6.92000000e-01	1.26436853e-02	1.34902334e-04
6.93000000e-01	1.27188195e-02	1.35799350e-04
6.94000000e-01	1.26710917e-02	1.35009048e-04
6.95000000e-01	1.27422315e-02	1.35651545e-04
6.96000000e-01	1.26640088e-02	1.35393551e-04
6.97000000e-01	1.25738821e-02	1.34257875e-04
6.98000000e-01	1.27011068e-02	1.35468360e-04
6.99000000e-01	1.24490322e-02	1.33096689e-04
7.00000000e-01	1.25768271e-02	1.34127253e-04
7.01000000e-01	1.26837232e-02	1.35093360e-04
7.02000000e-01	1.24965120e-02	1.33270612e-04
7.03000000e-01	1.24569967e-02	1.32600187e-04
7.04000000e-01	1.25118411e-02	1.33760976e-04
7.05000000e-01	1.25749026e-02	1.33910798e-04
7.06000000e-01	1.25762076e-02	1.34018102e-04
7.07000000e-01	1.24589767e-02	1.32684028e-04
7.08000000e-01	1.25790785e-02	1.33489753e-04
7.09000000e-01	1.24687031e-02	1.33048034e-04
7.10000000e-01	1.25986958e-02	1.34185047e-04
7.11000000e-01	1.24977036e-02	1.33359365e-04
7.12000000e-01	1.25467391e-02	1.33271939e-04
7.13000000e-01	1.24680790e-02	1.32768267e-04
7.14000000e-01	1.24182441e-02	1.32480106e-04
7.15000000e-01	1.23981639e-02	1.31928836e-04
7.16000000e-01	1.22949662e-02	1.30906075e-04
7.17000000e-01	1.23291602e-02	1.31587791e-04
7.18000000e-01	1.24757758e-02	1.33349834e-04
7.19000000e-01	1.24682796e-02	1.32814465e-04
7.20000000e-01	1.23727519e-02	1.31904062e-04
7.21000000e-01	1.24287886e-02	1.33128983e-04
7.22000000e-01	1.22747194e-02	1.31100991e-04
7.23000000e-01	1.22801982e-02	1.30646005e-04
7.24000000e-01	1.22640511e-02	1.31348504e-04
7.25000000e-01	1.22520534e-02	1.30831419e-04
7.26000000e-01	1.22220684e-02	1.30160967e-04
7.27000000e-01	1.22362415e-02	1.30319867e-04
7.28000000e-01	1.21824926e-02	1.30311352e-04
7.29000000e-01	1.23054815e-02	1.31333638e-04
7.30000000e-01	1.22968958e-02	1.30935120e-04
7.31000000e-01	1.22103235e-02	1.30394178e-04
7.32000000e-01	1.21482429e-02	1.29984658e-04
7.33000000e-01	1.22520742e-02	1.30621117e-04
7.34000000e-01	1.21004485e-02	1.28874690e-04
7.35000000e-01	1.23849841e-02	1.31982947e-04
7.36000000e-01	1.20993917e-02	1.28574014e-04
7.37000000e-01	1.21770544e-02	1.29121938e-04
7.38000000e-01	1.21407926e-02	1.28575020e-04
7.39000000e-01	1.21770655e-02	1.28718938e-04
7.40000000e-01	1.20376179e-02	1.27664924e-04
7.41000000e-01	1.22557786e-02	1.29227602e-04
7.42000000e-01	1.21676366e-02	1.28614700e-04
7.43000000e-01	1.21259024e-02	1.27956210e-04
7.44000000e-01	1.20235209e-02	1.27045151e-04
7.45000000e-01	1.21290894e-02	1.27929756e-04
7.46000000e-01	1.19369407e-02	1.25986768e-04
7.47000000e-01	1.21479908e-02	1.28387356e-04
7.48000000e-01	1.21013322e-02	1.27868111e-04
7.49000000e-01	1.21958920e-02	1.28910227e-04
7.50000000e-01	1.21417063e-02	1.28062410e-04
7.51000000e-01	1.19866019e-02	1.26660334e-04
7.52000000e-01	1.19301095e-02	1.26277870e-04
7.53000000e-01	1.20475699e-02	1.27189883e-04
7.54000000e-01	1.20389767e-02	1.27278249e-04
7.55000000e-01	1.19972037e-02	1.27451738e-04
7.56000000e-01	1.20958304e-02	1.27652282e-04
7.57000000e-01	1.18803264e-02	1.25654739e-04
7.58000000e-01	1.19419356e-02	1.26241181e-04
7.59000000e-01	1.19692223e-02	1.26447159e-04
7.60000000e-01	1.18667738e-02	1.25599166e-04
7.61000000e-01	1.19553921e-02	1.25714516e-04
7.62000000e-01	1.19730637e-02	1.25880304e-04
7.63000000e-01	1.19352255e-02	1.25844574e-04
7.64000000e-01	1.18165957e-02	1.24179146e-04
7.65000000e-01	1.18350354e-02	1.24274371e-04
7.66000000e-01	1.18326173e-02	1.23979861e-04
7.67000000e-01	1.17688953e-02	1.23704441e-04
7.68000000e-01	1.19042636e-02	1.24735851e-04
7.69000000e-01	1.18317039e-02	1.24425252e-04
7.70000000e-01	1.18246961e-02	1.24067545e-04
7.71000000e-01	1.17392918e-02	1.23354569e-04
7.72000000e-01	1.17844730e-02	1.27440896e-04
7.73000000e-01	1.18394213e-02	1.31939527e-04
7.74000000e-01	1.17440835e-02	1.33946289e-04
7.75000000e-01	1.17863760e-02	1.36190909e-04
7.76000000e-01	1.17716403e-02	1.38478941e-04
7.77000000e-01	1.16211096e-02	1.39508412e-04
7.78000000e-01	1.15771408e-02	1.40968970e-04
7.79000000e-01	1.18147241e-02	1.44856032e-04
7.80000000e-01	1.17706516e-02	1.45526995e-04
7.81000000e-01	1.17803679e-02	1.47872038e-04
7.82000000e-01	1.17453666e-02	1.48841181e-04
7.83000000e-01	1.17542428e-02	1.50149766e-04
7.84000000e-01	1.16631565e-02	1.51361787e-04
7.85000000e-01	1.17128373e-02	1.53281650e-04
7.86000000e-01	1.15483987e-02	1.53125458e-04
7.87000000e-01	1.16785952e-02	1.55630164e-04
7.88000000e-01	1.15566994e-02	1.55739747e-04
7.89000000e-01	1.16460162e-02	1.58705133e-04
7.90000000e-01	1.15111841e-02	1.58753366e-04
7.91000000e-01	1.16743717e-02	1.62004554e-04
7.92000000e-01	1.14403967e-02	1.61607082e-04
7.93000000e-01	1.15982373e-02	1.64362161e-04
7.94000000e-01	1.16966178e-02	1.67432831e-04
7.95000000e-01	1.14874356e-02	1.66539799e-04
7.96000000e-01	1.16603862e-02	1.70041635e-04
7.97000000e-01	1.15508634e-02	1.70646386e-04
7.98000000e-01	1.16083985e-02	1.73703541e-04
7.99000000e-01	1.15136741e-02	1.73551901e-04
8.00000000e-01	1.14545172e-02	1.75020354e-04
8.01000000e-01	1.14443420e-02	1.76475740e-04
8.02000000e-01	1.13350659e-02	1.76256477e-04
8.03000000e-01	1.14869666e-02	1.80908988e-04
8.04000000e-01	1.15514525e-02	1.83015978e-04
8.05000000e-01	1.14370964e-02	1.83824986e-04
8.06000000e-01	1.12892335e-02	1.84037198e-04
8.07000000e-01	1.15633464e-02	1.88894258e-04
8.08000000e-01	1.14634289e-02	1.89921371e-04
8.09000000e-01	1.14300520e-02	1.90977840e-04
8.10000000e-01	1.14955346e-02	1.95653271e-04
8.11000000e-01	1.13851178e-02	1.95303535e-04
8.12000000e-01	1.12730052e-02	1.95979805e-04
8.13000000e-01	1.13063691e-02	1.97737993e-04
8.14000000e-01	1.13941849e-02	2.02244973e-04
8.15000000e-01	1.11749796e-02	2.00727330e-04
8.16000000e-01	1.12222123e-02	2.04198921e-04
8.17000000e-01	1.13112511e-02	2.09023609e-04
8.18000000e-01	1.13289339e-02	2.12769807e-04
8.19000000e-01	1.11478672e-02	2.11391812e-04
8.20000000e-01	1.13369704e-02	2.16203000e-04
8.21000000e-01	1.13396634e-02	2.19172005e-04
8.22000000e-01	1.12854470e-02	2.22392493e-04
8.23000000e-01	1.10070436e-02	2.19790340e-04
8.24000000e-01	1.11505945e-02	2.25919903e-04
8.25000000e-01	1.12700642e-02	2.29992329e-04
8.26000000e-01	1.10757253e-02	2.31010420e-04
8.27000000e-01	1.12228936e-02	2.36244259e-04
8.28000000e-01	1.11792542e-02	2.38180732e-04
8.29000000e-01	1.11674017e-02	2.44139200e-04
8.30000000e-01	1.09475738e-02	2.42985415e-04
8.31000000e-01	1.10430216e-02	2.48887000e-04
8.32000000e-01	1.11583970e-02	2.55336420e-04
8.33000000e-01	1.09248952e-02	2.55970403e-04
8.34000000e-01	1.07286701e-02	2.54617650e-04
8.35000000e-01	1.14629635e-02	2.74840982e-04
8.36000000e-01	1.09111687e-02	2.64335051e-04
8.37000000e-01	1.10992473e-02	2.77178099e-04
8.38000000e-01	1.07770055e-02	2.75700462e-04
8.39000000e-01	1.10041149e-02	2.90422343e-04
8.40000000e-01	1.10170082e-02	2.90697520e-04
8.41000000e-01	1.11016686e-02	3.03539724e-04
8.42000000e-01	1.08289568e-02	3.03282248e-04
8.43000000e-01	1.11685640e-02	3.18657538e-04
8.44000000e-01	1.09823007e-02	3.21616703e-04
8.45000000e-01	1.12137115e-02	3.32397639e-04
8.46000000e-01	1.08405742e-02	3.34010295e-04
8.47000000e-01	1.05967943e-02	3.35621593e-04
8.48000000e-01	1.09851158e-02	3.60379909e-04
8.49000000e-01	1.07192611e-02	3.60890927e-04
8.50000000e-01	1.04057507e-02	3.66737176e-04
8.51000000e-01	1.06891118e-02	3.86679836e-04
8.52000000e-01	1.08866217e-02	4.11337969e-04
8.53000000e-01	1.06924219e-02	4.25841572e-04
8.54000000e-01	1.10232622e-02	4.53502728e-04
8.55000000e-01	1.05680213e-02	4.57120659e-04
8.56000000e-01	1.06645163e-02	4.68771374e-04
8.57000000e-01	1.06540284e-02	4.76505799e-04
8.58000000e-01	1.08721147e-02	5.00468496e-04
8.59000000e-01	1.03364593e-02	4.94459813e-04
8.60000000e-01	1.00988399e-02	4.95455225e-04
8.61000000e-01	1.01789792e-02	5.18427657e-04
8.62000000e-01	1.07475402e-02	5.65213352e-04
8.63000000e-01	1.03676378e-02	5.70427110e-04
8.64000000e-01	1.03673627e-02	6.07929320e-04
8.65000000e-01	1.00652446e-02	6.18272420e-04
8.66000000e-01	9.90649874e-03	6.30768392e-04
8.67000000e-01	1.05201842e-02	6.77957662e-04
8.68000000e-01	1.00953573e-02	7.44119857e-04
8.69000000e-01	1.02964877e-02	7.79006377e-04
8.70000000e-01	1.05235719e-02	8.72573915e-04
8.71000000e-01	9.50262822e-03	9.01486128e-04
8.72000000e-01	1.13756956e-02	1.16517655e-03
8.73000000e-01	1.19316690e-02	1.45170408e-03
8.74000000e-01	1.02585877e-02	1.78211352e-03
8.75000000e-01	9.40411873e-03	3.41967871e-03
