% Filename : SDL7c_00015_00003.h5
% Date & Time : 30-Oct-2025 16:14:18
% X-ray Energy (keV) : 13.30001
% Exposure Time (s) : 0.500
% Beam Center : 1461.24000, 208.98300
% Sample to Detector Distance (SDD) (mm) : 1990.750
% Detector Pixel Size (mm) : 0.075
% Photodiode Value : 140001.000
% I0 of Sample : 0
% I0 of Standard : 1
% 
% q(A^-1)   I(q)    I(q)_SE
0.00000000e+00	9.03328912e-03	4.65285470e-03
2.50000000e-04	0.00000000e+00	0.00000000e+00
5.00000000e-04	0.00000000e+00	0.00000000e+00
7.50000000e-04	0.00000000e+00	0.00000000e+00
1.00000000e-03	0.00000000e+00	0.00000000e+00
1.25000000e-03	0.00000000e+00	0.00000000e+00
1.50000000e-03	0.00000000e+00	0.00000000e+00
1.75000000e-03	0.00000000e+00	0.00000000e+00
2.00000000e-03	0.00000000e+00	0.00000000e+00
2.25000000e-03	0.00000000e+00	0.00000000e+00
2.50000000e-03	0.00000000e+00	0.00000000e+00
2.75000000e-03	0.00000000e+00	0.00000000e+00
3.00000000e-03	0.00000000e+00	0.00000000e+00
3.25000000e-03	4.55437227e+01	2.68260704e+01
3.50000000e-03	1.35736768e+01	5.70172766e+00
3.75000000e-03	8.71817076e+00	3.53396931e+00
4.00000000e-03	6.96145264e+00	2.53072861e+00
4.25000000e-03	3.67254954e+00	1.34694532e+00
4.50000000e-03	4.57911144e+00	1.36858112e+00
4.75000000e-03	4.98565554e+00	1.29423660e+00
5.00000000e-03	3.84795448e+00	9.80961221e-01
5.25000000e-03	3.30344936e+00	8.43710143e-01
5.50000000e-03	2.69999795e+00	6.74411137e-01
5.75000000e-03	2.30705784e+00	5.76118770e-01
6.00000000e-03	1.88131368e+00	4.57119252e-01
6.25000000e-03	1.64232117e+00	3.99747910e-01
6.50000000e-03	1.39138740e+00	3.37580370e-01
6.75000000e-03	1.20097804e+00	2.87350563e-01
7.00000000e-03	1.05580395e+00	2.47455485e-01
7.25000000e-03	9.04383198e-01	2.11538714e-01
7.50000000e-03	7.41884453e-01	1.74449370e-01
7.75000000e-03	7.03420001e-01	1.62696653e-01
8.00000000e-03	6.36519963e-01	1.44732962e-01
8.25000000e-03	5.35782591e-01	1.20716718e-01
8.50000000e-03	4.88305617e-01	1.08438883e-01
8.75000000e-03	4.49205690e-01	1.00463792e-01
9.00000000e-03	4.01112792e-01	8.82553887e-02
9.25000000e-03	3.52320680e-01	7.58206077e-02
9.50000000e-03	3.15037155e-01	6.70846494e-02
9.75000000e-03	2.84311650e-01	5.90014779e-02
1.00000000e-02	2.44750977e-01	5.14345047e-02
1.02500000e-02	2.43213736e-01	5.13736545e-02
1.05000000e-02	2.20517536e-01	4.45853403e-02
1.07500000e-02	2.03052029e-01	4.09513643e-02
1.10000000e-02	1.86872525e-01	3.71210970e-02
1.12500000e-02	1.61182974e-01	3.18873443e-02
1.15000000e-02	1.61663401e-01	3.13237675e-02
1.17500000e-02	1.40370811e-01	2.68757004e-02
1.20000000e-02	1.36563982e-01	2.55284184e-02
1.22500000e-02	1.26882702e-01	2.33161147e-02
1.25000000e-02	1.17799281e-01	2.10493839e-02
1.27500000e-02	1.14098482e-01	2.02989389e-02
1.30000000e-02	1.06783499e-01	1.85476060e-02
1.32500000e-02	9.74942398e-02	1.68986363e-02
1.35000000e-02	9.12989979e-02	1.51571541e-02
1.37500000e-02	8.85943906e-02	1.47566027e-02
1.40000000e-02	8.53320939e-02	1.41850587e-02
1.42500000e-02	7.90298167e-02	1.26053720e-02
1.45000000e-02	7.46887600e-02	1.13189556e-02
1.47500000e-02	7.19033780e-02	1.07353743e-02
1.50000000e-02	6.84977948e-02	1.04524280e-02
1.52500000e-02	6.48472581e-02	9.48304297e-03
1.55000000e-02	6.15082552e-02	8.72670689e-03
1.57500000e-02	5.67476358e-02	7.73911258e-03
1.60000000e-02	5.58271583e-02	7.78359415e-03
1.62500000e-02	5.80112221e-02	7.96369183e-03
1.65000000e-02	5.21645452e-02	6.67032794e-03
1.67500000e-02	5.01841447e-02	6.26333211e-03
1.70000000e-02	4.95733275e-02	6.11930597e-03
1.72500000e-02	4.69321914e-02	5.46567657e-03
1.75000000e-02	4.54682401e-02	5.39030433e-03
1.77500000e-02	4.29207756e-02	4.63370180e-03
1.80000000e-02	4.34084170e-02	4.99095058e-03
1.82500000e-02	4.09708145e-02	4.18208417e-03
1.85000000e-02	4.01875008e-02	4.28817627e-03
1.87500000e-02	3.94982949e-02	3.95901308e-03
1.90000000e-02	3.86702931e-02	3.92130561e-03
1.92500000e-02	3.74224048e-02	3.76678967e-03
1.95000000e-02	3.62055530e-02	3.34810479e-03
1.97500000e-02	3.52720671e-02	3.24789267e-03
2.00000000e-02	3.38856359e-02	3.09880672e-03
2.02500000e-02	3.27918689e-02	2.64436630e-03
2.05000000e-02	3.48571713e-02	2.98216214e-03
2.07500000e-02	3.33546298e-02	2.66035790e-03
2.10000000e-02	3.27949523e-02	2.64769642e-03
2.12500000e-02	3.27377020e-02	2.54933708e-03
2.15000000e-02	3.29542907e-02	2.63400882e-03
2.17500000e-02	3.29898774e-02	2.56939390e-03
2.20000000e-02	3.06835937e-02	2.44886133e-03
2.22500000e-02	3.12331759e-02	2.33873742e-03
2.25000000e-02	3.06439879e-02	2.34213988e-03
2.27500000e-02	2.88801504e-02	2.11549277e-03
2.30000000e-02	3.02058665e-02	2.19015131e-03
2.32500000e-02	2.95713920e-02	2.10678354e-03
2.35000000e-02	2.99180562e-02	2.08182848e-03
2.37500000e-02	2.82032344e-02	1.91564853e-03
2.40000000e-02	2.94975058e-02	1.99185889e-03
2.42500000e-02	2.82364683e-02	1.88132234e-03
2.45000000e-02	2.80355161e-02	1.83583324e-03
2.47500000e-02	2.72741957e-02	1.75304187e-03
2.50000000e-02	2.76018799e-02	1.79149478e-03
2.52500000e-02	2.69623826e-02	1.72590188e-03
2.55000000e-02	2.78541783e-02	1.68246278e-03
2.57500000e-02	2.67829605e-02	1.64597777e-03
2.60000000e-02	2.71998211e-02	1.60994932e-03
2.62500000e-02	2.67239641e-02	1.58492881e-03
2.65000000e-02	2.64509499e-02	1.54449064e-03
2.67500000e-02	2.68502547e-02	1.54955713e-03
2.70000000e-02	2.67136673e-02	1.59706264e-03
2.72500000e-02	2.65938115e-02	1.53238558e-03
2.75000000e-02	2.60521876e-02	1.48018300e-03
2.77500000e-02	2.55948459e-02	1.47597638e-03
2.80000000e-02	2.66650403e-02	1.47419444e-03
2.82500000e-02	2.58147707e-02	1.39654765e-03
2.85000000e-02	2.62041680e-02	1.41061651e-03
2.87500000e-02	2.58443500e-02	1.42336108e-03
2.90000000e-02	2.62921366e-02	1.43628451e-03
2.92500000e-02	2.53646494e-02	1.34177629e-03
2.95000000e-02	2.58531762e-02	1.37446584e-03
2.97500000e-02	2.50505433e-02	1.27871288e-03
3.00000000e-02	2.57707266e-02	1.32529113e-03
3.02500000e-02	2.56076384e-02	1.29398658e-03
3.05000000e-02	2.52262877e-02	1.27245692e-03
3.07500000e-02	2.54225628e-02	1.30779617e-03
3.10000000e-02	2.58740968e-02	1.30740738e-03
3.12500000e-02	2.56804515e-02	1.31956409e-03
3.15000000e-02	2.54380992e-02	1.26260289e-03
3.17500000e-02	2.59237482e-02	1.28722720e-03
3.20000000e-02	2.53815333e-02	1.24678023e-03
3.22500000e-02	2.44921156e-02	1.19540236e-03
3.25000000e-02	2.50448382e-02	1.22388629e-03
3.27500000e-02	2.49319786e-02	1.20296155e-03
3.30000000e-02	2.42146138e-02	1.16641513e-03
3.32500000e-02	2.33633203e-02	1.12699950e-03
3.35000000e-02	2.40508170e-02	1.14823224e-03
3.37500000e-02	2.39312657e-02	1.16369242e-03
3.40000000e-02	2.38153550e-02	1.11979776e-03
3.42500000e-02	2.34514580e-02	1.11456809e-03
3.45000000e-02	2.33434925e-02	1.09656481e-03
3.47500000e-02	2.30211675e-02	1.09347323e-03
3.50000000e-02	2.40848598e-02	1.13385780e-03
3.52500000e-02	2.39867233e-02	1.12871392e-03
3.55000000e-02	2.33196667e-02	1.08826754e-03
3.57500000e-02	2.33665580e-02	1.07308936e-03
3.60000000e-02	2.19630407e-02	1.02521651e-03
3.62500000e-02	2.24521563e-02	1.04194674e-03
3.65000000e-02	2.23042805e-02	1.03122312e-03
3.67500000e-02	2.33701371e-02	1.07429909e-03
3.70000000e-02	2.33101270e-02	1.06703843e-03
3.72500000e-02	2.32536241e-02	1.05710130e-03
3.75000000e-02	2.21273234e-02	1.01273989e-03
3.77500000e-02	2.27406060e-02	1.02432807e-03
3.80000000e-02	2.20614546e-02	1.01002846e-03
3.82500000e-02	2.18958087e-02	9.76461934e-04
3.85000000e-02	2.23873976e-02	1.00804448e-03
3.87500000e-02	2.28291645e-02	1.03279771e-03
3.90000000e-02	2.32551298e-02	1.03803252e-03
3.92500000e-02	2.18942376e-02	9.74488270e-04
3.95000000e-02	2.21818005e-02	9.84612180e-04
3.97500000e-02	2.24463870e-02	1.00237976e-03
4.00000000e-02	2.22017952e-02	9.85499454e-04
4.02500000e-02	2.25809300e-02	9.79911115e-04
4.05000000e-02	2.24784874e-02	9.80015469e-04
4.07500000e-02	2.24233532e-02	9.76655815e-04
4.10000000e-02	2.22105096e-02	9.79309170e-04
4.12500000e-02	2.23031297e-02	9.72898539e-04
4.15000000e-02	2.17558797e-02	9.39293712e-04
4.17500000e-02	2.24357580e-02	9.68935045e-04
4.20000000e-02	2.23793444e-02	9.58282215e-04
4.22500000e-02	2.18407982e-02	9.29445622e-04
4.25000000e-02	2.14377391e-02	9.21349571e-04
4.27500000e-02	2.25145787e-02	9.58102029e-04
4.30000000e-02	2.14352877e-02	9.11774355e-04
4.32500000e-02	2.19206477e-02	9.28986770e-04
4.35000000e-02	2.20907344e-02	9.41926764e-04
4.37500000e-02	2.20264532e-02	9.25003255e-04
4.40000000e-02	2.15408630e-02	9.20507325e-04
4.42500000e-02	2.14200868e-02	9.09481726e-04
4.45000000e-02	2.14427907e-02	8.97069759e-04
4.47500000e-02	2.22809355e-02	9.36564332e-04
4.50000000e-02	2.13570966e-02	9.09417325e-04
4.52500000e-02	2.12480032e-02	8.86135544e-04
4.55000000e-02	2.13050415e-02	8.81998368e-04
4.57500000e-02	2.14625979e-02	8.88558282e-04
4.60000000e-02	2.19957422e-02	9.22272585e-04
4.62500000e-02	2.17411753e-02	9.03209892e-04
4.65000000e-02	2.17329151e-02	8.98120831e-04
4.67500000e-02	2.11405586e-02	8.73912175e-04
4.70000000e-02	2.12648628e-02	8.77227567e-04
4.72500000e-02	2.11049515e-02	8.66445008e-04
4.75000000e-02	2.10438602e-02	8.83325269e-04
4.77500000e-02	2.09432938e-02	8.58595919e-04
4.80000000e-02	2.11526964e-02	8.69170428e-04
4.82500000e-02	2.15989950e-02	8.74362027e-04
4.85000000e-02	2.15126754e-02	8.89952387e-04
4.87500000e-02	2.10897130e-02	8.56407218e-04
4.90000000e-02	2.17432393e-02	8.75487208e-04
4.92500000e-02	2.09077369e-02	8.50639007e-04
4.95000000e-02	2.09944079e-02	8.43433384e-04
4.97500000e-02	2.12882876e-02	8.63017005e-04
5.00000000e-02	2.07687979e-02	8.47317245e-04
5.02500000e-02	2.10582627e-02	8.42144258e-04
5.05000000e-02	2.15833016e-02	8.58994483e-04
5.07500000e-02	2.03718064e-02	8.19099130e-04
5.10000000e-02	2.16155998e-02	8.62116432e-04
5.12500000e-02	2.10319104e-02	8.39183832e-04
5.15000000e-02	2.08127213e-02	8.18438348e-04
5.17500000e-02	2.15869682e-02	8.66432227e-04
5.20000000e-02	2.14829813e-02	8.49148164e-04
5.22500000e-02	2.07711348e-02	8.30717246e-04
5.25000000e-02	2.09756755e-02	8.31336493e-04
5.27500000e-02	2.06473829e-02	8.06005519e-04
5.30000000e-02	2.08948188e-02	8.35494045e-04
5.32500000e-02	2.09031241e-02	8.21476889e-04
5.35000000e-02	2.08231219e-02	8.19303985e-04
5.37500000e-02	2.07025431e-02	8.05399428e-04
5.40000000e-02	2.11948767e-02	8.19068661e-04
5.42500000e-02	2.08316359e-02	8.09546428e-04
5.45000000e-02	2.06638258e-02	8.09749435e-04
5.47500000e-02	2.03979727e-02	7.92748030e-04
5.50000000e-02	2.10800634e-02	8.17048550e-04
5.52500000e-02	2.11721091e-02	8.15012921e-04
5.55000000e-02	2.08960609e-02	8.11214587e-04
5.57500000e-02	2.08093957e-02	8.03752961e-04
5.60000000e-02	2.12892460e-02	8.18765827e-04
5.62500000e-02	2.11457121e-02	8.15636050e-04
5.65000000e-02	2.11703951e-02	8.06685808e-04
5.67500000e-02	2.13812786e-02	8.15447256e-04
5.70000000e-02	2.15950535e-02	8.21537050e-04
5.72500000e-02	2.08778399e-02	7.96908088e-04
5.75000000e-02	2.06853481e-02	7.92698222e-04
5.77500000e-02	2.07396610e-02	7.75161958e-04
5.80000000e-02	2.01670021e-02	7.62684682e-04
5.82500000e-02	2.07309645e-02	7.84100756e-04
5.85000000e-02	2.05423587e-02	7.76872694e-04
5.87500000e-02	2.04060149e-02	7.66823673e-04
5.90000000e-02	2.06531817e-02	7.79916118e-04
5.92500000e-02	1.99619213e-02	7.50200272e-04
5.95000000e-02	2.10733974e-02	7.85928547e-04
5.97500000e-02	2.01721778e-02	7.57403742e-04
6.00000000e-02	2.02787466e-02	7.56794235e-04
6.02500000e-02	2.03959440e-02	7.66367402e-04
6.05000000e-02	1.99758372e-02	7.41582924e-04
6.07500000e-02	2.08272570e-02	7.77546931e-04
6.10000000e-02	2.04826565e-02	7.62764559e-04
6.12500000e-02	1.98115187e-02	7.36164756e-04
6.15000000e-02	2.09482061e-02	7.78128835e-04
6.17500000e-02	2.01158832e-02	7.40194169e-04
6.20000000e-02	2.06977010e-02	7.65051736e-04
6.22500000e-02	1.98916769e-02	7.36828069e-04
6.25000000e-02	2.04763216e-02	7.53228846e-04
6.27500000e-02	2.04980852e-02	7.46605857e-04
6.30000000e-02	2.02727114e-02	7.43352275e-04
6.32500000e-02	2.02673377e-02	7.45210269e-04
6.35000000e-02	2.05416045e-02	7.51852019e-04
6.37500000e-02	2.03267205e-02	7.46362960e-04
6.40000000e-02	1.95489078e-02	7.16989706e-04
6.42500000e-02	2.04849309e-02	7.41261292e-04
6.45000000e-02	2.01747871e-02	7.38654371e-04
6.47500000e-02	2.00795094e-02	7.32019471e-04
6.50000000e-02	2.02647965e-02	7.34236159e-04
6.52500000e-02	1.95002332e-02	7.10406264e-04
6.55000000e-02	2.04932987e-02	7.42593121e-04
6.57500000e-02	1.99710013e-02	7.22843442e-04
6.60000000e-02	2.00912000e-02	7.25881871e-04
6.62500000e-02	2.06235200e-02	7.41365722e-04
6.65000000e-02	2.03944188e-02	7.31745995e-04
6.67500000e-02	2.01686183e-02	7.21372336e-04
6.70000000e-02	2.03655778e-02	7.30217576e-04
6.72500000e-02	2.03436088e-02	7.25342351e-04
6.75000000e-02	2.04113410e-02	7.23420613e-04
6.77500000e-02	2.02388818e-02	7.21774492e-04
6.80000000e-02	2.00869929e-02	7.09089465e-04
6.82500000e-02	2.04111300e-02	7.24216917e-04
6.85000000e-02	1.95158910e-02	6.91451526e-04
6.87500000e-02	1.96516906e-02	6.97535838e-04
6.90000000e-02	2.05216855e-02	7.26142969e-04
6.92500000e-02	2.01280243e-02	7.10041220e-04
6.95000000e-02	2.02887451e-02	7.14903560e-04
6.97500000e-02	2.02078741e-02	7.06994321e-04
7.00000000e-02	2.04584346e-02	7.16731096e-04
7.02500000e-02	1.98878087e-02	6.94848778e-04
7.05000000e-02	2.01672922e-02	7.03490707e-04
7.07500000e-02	2.03810869e-02	7.17448745e-04
7.10000000e-02	2.02110499e-02	7.05644386e-04
7.12500000e-02	2.07032725e-02	7.20751994e-04
7.15000000e-02	2.01669934e-02	7.05210174e-04
7.17500000e-02	2.02834126e-02	7.01364958e-04
7.20000000e-02	2.05174460e-02	7.13618406e-04
7.22500000e-02	2.03791651e-02	7.02389456e-04
7.25000000e-02	2.05839111e-02	7.08519516e-04
7.27500000e-02	2.05900345e-02	7.10566789e-04
7.30000000e-02	1.99322150e-02	6.85024814e-04
7.32500000e-02	2.03741884e-02	6.99180206e-04
7.35000000e-02	1.99856464e-02	6.87044326e-04
7.37500000e-02	2.00581650e-02	6.83921019e-04
7.40000000e-02	1.99445855e-02	6.85545694e-04
7.42500000e-02	1.99113493e-02	6.85750647e-04
7.45000000e-02	2.06870346e-02	7.04734341e-04
7.47500000e-02	2.02873267e-02	6.87378171e-04
7.50000000e-02	2.03896466e-02	6.96741213e-04
7.52500000e-02	1.99007670e-02	6.80639644e-04
7.55000000e-02	1.96214979e-02	6.70810014e-04
7.57500000e-02	1.99115669e-02	6.84597643e-04
7.60000000e-02	1.96252287e-02	6.67530428e-04
7.62500000e-02	1.98750818e-02	6.76506169e-04
7.65000000e-02	1.96552073e-02	6.63109946e-04
7.67500000e-02	2.03030365e-02	6.86514425e-04
7.70000000e-02	1.99206279e-02	6.67145575e-04
7.72500000e-02	2.02896010e-02	6.93302006e-04
7.75000000e-02	1.97924746e-02	6.84406242e-04
7.77500000e-02	2.05180292e-02	7.11979676e-04
7.80000000e-02	2.00066771e-02	7.00849835e-04
7.82500000e-02	1.97367668e-02	6.90902656e-04
7.85000000e-02	2.00381791e-02	7.07494522e-04
7.87500000e-02	1.99443708e-02	6.98722806e-04
7.90000000e-02	2.03113774e-02	7.15767080e-04
7.92500000e-02	2.03932909e-02	7.22531164e-04
7.95000000e-02	2.04102447e-02	7.22514822e-04
7.97500000e-02	1.98026178e-02	7.10532173e-04
8.00000000e-02	1.93988362e-02	7.01638954e-04
8.02500000e-02	1.97345272e-02	7.08758089e-04
8.05000000e-02	2.02218866e-02	7.27523093e-04
8.07500000e-02	2.01183040e-02	7.28100748e-04
8.10000000e-02	2.00868880e-02	7.24796924e-04
8.12500000e-02	2.04085683e-02	7.34746239e-04
8.15000000e-02	1.97413925e-02	7.21890439e-04
8.17500000e-02	2.01022645e-02	7.34175511e-04
8.20000000e-02	1.99267695e-02	7.31560834e-04
8.22500000e-02	1.97442364e-02	7.22954176e-04
8.25000000e-02	1.99574398e-02	7.30240089e-04
8.27500000e-02	2.03900416e-02	7.36259776e-04
8.30000000e-02	2.02424115e-02	7.37647131e-04
8.32500000e-02	2.00964938e-02	7.40010364e-04
8.35000000e-02	1.98868949e-02	7.38168051e-04
8.37500000e-02	2.01291392e-02	7.38346464e-04
8.40000000e-02	2.01399237e-02	7.41519463e-04
8.42500000e-02	2.00032212e-02	7.41644198e-04
8.45000000e-02	2.03159043e-02	7.46887902e-04
8.47500000e-02	1.98534107e-02	7.40365193e-04
8.50000000e-02	2.00312237e-02	7.34762375e-04
8.52500000e-02	2.00846976e-02	7.40746534e-04
8.55000000e-02	1.94773942e-02	7.23049376e-04
8.57500000e-02	2.01845960e-02	7.54574167e-04
8.60000000e-02	1.91846650e-02	7.17792338e-04
8.62500000e-02	2.03165013e-02	7.50876101e-04
8.65000000e-02	1.97212865e-02	7.36255425e-04
8.67500000e-02	2.04511287e-02	7.53786184e-04
8.70000000e-02	1.98572714e-02	7.23527173e-04
8.72500000e-02	1.99289971e-02	7.14666809e-04
8.75000000e-02	1.93732885e-02	6.94417946e-04
8.77500000e-02	1.99955223e-02	7.03779784e-04
8.80000000e-02	2.00450744e-02	7.05592707e-04
8.82500000e-02	1.94595526e-02	6.83097043e-04
8.85000000e-02	1.96814405e-02	6.89631943e-04
8.87500000e-02	1.98358743e-02	6.82495001e-04
8.90000000e-02	1.98739626e-02	6.89226148e-04
8.92500000e-02	1.94754123e-02	6.69292294e-04
8.95000000e-02	1.98059152e-02	6.82704740e-04
8.97500000e-02	2.00882996e-02	6.82270334e-04
9.00000000e-02	1.99360702e-02	6.75271883e-04
9.02500000e-02	2.00794016e-02	6.79970839e-04
9.05000000e-02	1.99353939e-02	6.74829064e-04
9.07500000e-02	1.93806759e-02	6.54064728e-04
9.10000000e-02	1.97351595e-02	6.60435462e-04
9.12500000e-02	2.00267062e-02	6.73114249e-04
9.15000000e-02	2.00403169e-02	6.74833150e-04
9.17500000e-02	1.92259522e-02	6.53070982e-04
9.20000000e-02	2.02072253e-02	6.71029004e-04
9.22500000e-02	2.00062841e-02	6.61751633e-04
9.25000000e-02	1.93746707e-02	6.43637234e-04
9.27500000e-02	1.97633097e-02	6.57586965e-04
9.30000000e-02	2.00473277e-02	6.58618957e-04
9.32500000e-02	1.94626377e-02	6.47907774e-04
9.35000000e-02	1.90643969e-02	6.29023564e-04
9.37500000e-02	2.04302409e-02	6.71686963e-04
9.40000000e-02	2.01356887e-02	6.61176022e-04
9.42500000e-02	1.95075544e-02	6.39207936e-04
9.45000000e-02	2.00070064e-02	6.57679603e-04
9.47500000e-02	2.01658749e-02	6.61142015e-04
9.50000000e-02	1.98587550e-02	6.47485664e-04
9.52500000e-02	2.04209480e-02	6.61044673e-04
9.55000000e-02	2.01358780e-02	6.52963096e-04
9.57500000e-02	1.98560084e-02	6.44732110e-04
9.60000000e-02	1.94546505e-02	6.32253506e-04
9.62500000e-02	1.98255439e-02	6.37335501e-04
9.65000000e-02	1.96050105e-02	6.31562187e-04
9.67500000e-02	1.96999230e-02	6.32978945e-04
9.70000000e-02	1.97286928e-02	6.36618180e-04
9.72500000e-02	1.95859582e-02	6.28014576e-04
9.75000000e-02	1.97339096e-02	6.38893752e-04
9.77500000e-02	1.98027329e-02	6.30442275e-04
9.80000000e-02	1.95207904e-02	6.22453280e-04
9.82500000e-02	1.95080016e-02	6.22758967e-04
9.85000000e-02	1.96605091e-02	6.24953091e-04
9.87500000e-02	1.94548120e-02	6.18714176e-04
9.90000000e-02	1.94888603e-02	6.17541373e-04
9.92500000e-02	1.94984684e-02	6.26905513e-04
9.95000000e-02	1.98345923e-02	6.27353431e-04
9.97500000e-02	1.94901049e-02	6.20630306e-04
1.00000000e-01	1.98838346e-02	5.09614568e-04
1.00500000e-01	1.98959495e-02	4.43480363e-04
1.01000000e-01	1.99829120e-02	4.40258000e-04
1.01500000e-01	2.00695939e-02	4.44994394e-04
1.02000000e-01	1.98519611e-02	4.35729883e-04
1.02500000e-01	1.98778420e-02	4.35626606e-04
1.03000000e-01	1.92768476e-02	4.23681389e-04
1.03500000e-01	1.97103719e-02	4.29806934e-04
1.04000000e-01	1.97548991e-02	4.33922119e-04
1.04500000e-01	1.99790996e-02	4.33559164e-04
1.05000000e-01	1.94582585e-02	4.19021226e-04
1.05500000e-01	1.93949413e-02	4.20519215e-04
1.06000000e-01	1.97095076e-02	4.22994755e-04
1.06500000e-01	1.96785063e-02	4.26399463e-04
1.07000000e-01	1.97434000e-02	4.33928625e-04
1.07500000e-01	1.99538911e-02	4.44490204e-04
1.08000000e-01	1.98195230e-02	4.44292704e-04
1.08500000e-01	1.94257252e-02	4.41579838e-04
1.09000000e-01	1.91498023e-02	4.33628761e-04
1.09500000e-01	1.99980563e-02	4.57784819e-04
1.10000000e-01	1.94579118e-02	4.37922971e-04
1.10500000e-01	1.91243837e-02	4.23326212e-04
1.11000000e-01	2.01152858e-02	4.35979630e-04
1.11500000e-01	1.97919686e-02	4.28078535e-04
1.12000000e-01	1.96539584e-02	4.21582221e-04
1.12500000e-01	1.99446620e-02	4.23133558e-04
1.13000000e-01	1.98819722e-02	4.23361655e-04
1.13500000e-01	1.95542948e-02	4.12169959e-04
1.14000000e-01	1.95426004e-02	4.11117296e-04
1.14500000e-01	1.93194741e-02	4.08214682e-04
1.15000000e-01	1.96459729e-02	4.09452921e-04
1.15500000e-01	1.98640338e-02	4.16080375e-04
1.16000000e-01	2.01266042e-02	4.17469345e-04
1.16500000e-01	1.94902585e-02	4.06355077e-04
1.17000000e-01	1.96323417e-02	4.06783933e-04
1.17500000e-01	1.97355301e-02	4.08188140e-04
1.18000000e-01	1.97711332e-02	4.10383212e-04
1.18500000e-01	1.95504937e-02	4.02675500e-04
1.19000000e-01	1.97022273e-02	4.06470506e-04
1.19500000e-01	1.98545716e-02	4.05767864e-04
1.20000000e-01	1.94070477e-02	3.98896828e-04
1.20500000e-01	1.98008232e-02	4.04584123e-04
1.21000000e-01	1.96319268e-02	4.02641763e-04
1.21500000e-01	1.98871422e-02	4.03278956e-04
1.22000000e-01	1.98305483e-02	3.98912119e-04
1.22500000e-01	1.92742831e-02	3.89144325e-04
1.23000000e-01	1.93562595e-02	3.89490060e-04
1.23500000e-01	1.96492101e-02	3.94013892e-04
1.24000000e-01	1.95060119e-02	3.92881796e-04
1.24500000e-01	1.93347717e-02	3.86206507e-04
1.25000000e-01	1.97452665e-02	3.94114321e-04
1.25500000e-01	1.97968785e-02	3.94001949e-04
1.26000000e-01	2.01625658e-02	4.00791208e-04
1.26500000e-01	1.94641671e-02	3.87150528e-04
1.27000000e-01	1.96605538e-02	3.88893420e-04
1.27500000e-01	1.97872244e-02	3.90846931e-04
1.28000000e-01	1.98208416e-02	3.91797613e-04
1.28500000e-01	1.98043900e-02	3.90634248e-04
1.29000000e-01	1.95412275e-02	3.85110340e-04
1.29500000e-01	1.97116157e-02	3.86101435e-04
1.30000000e-01	1.98419726e-02	3.88047917e-04
1.30500000e-01	1.96624585e-02	3.82277407e-04
1.31000000e-01	1.94873486e-02	3.80511808e-04
1.31500000e-01	1.96717120e-02	3.83819915e-04
1.32000000e-01	1.99937005e-02	3.86715433e-04
1.32500000e-01	1.92074593e-02	3.71759288e-04
1.33000000e-01	1.95834147e-02	3.78937186e-04
1.33500000e-01	2.00563686e-02	3.82141555e-04
1.34000000e-01	1.92454164e-02	3.69252684e-04
1.34500000e-01	1.95971139e-02	3.74566396e-04
1.35000000e-01	1.96062121e-02	3.73606688e-04
1.35500000e-01	1.94935436e-02	3.71379990e-04
1.36000000e-01	1.96703469e-02	3.71769416e-04
1.36500000e-01	1.97606569e-02	3.74689548e-04
1.37000000e-01	2.00208353e-02	3.77734285e-04
1.37500000e-01	1.95238538e-02	3.69212425e-04
1.38000000e-01	1.92527472e-02	3.64718395e-04
1.38500000e-01	1.93070978e-02	3.64465964e-04
1.39000000e-01	1.96415226e-02	3.70942429e-04
1.39500000e-01	1.94255983e-02	3.66751082e-04
1.40000000e-01	1.91581880e-02	3.62054033e-04
1.40500000e-01	1.96385198e-02	3.70312855e-04
1.41000000e-01	1.93572538e-02	3.63039688e-04
1.41500000e-01	1.98085397e-02	3.72592192e-04
1.42000000e-01	1.96120379e-02	3.64768626e-04
1.42500000e-01	1.92005880e-02	3.59516843e-04
1.43000000e-01	1.94676840e-02	3.61795250e-04
1.43500000e-01	1.96878409e-02	3.65890333e-04
1.44000000e-01	1.91895197e-02	3.57108458e-04
1.44500000e-01	1.93221786e-02	3.58459073e-04
1.45000000e-01	1.91520127e-02	3.56436340e-04
1.45500000e-01	1.90536300e-02	3.51854751e-04
1.46000000e-01	1.92429541e-02	3.55932273e-04
1.46500000e-01	1.94649042e-02	3.59448085e-04
1.47000000e-01	1.92472612e-02	3.52817735e-04
1.47500000e-01	1.95715418e-02	3.60153585e-04
1.48000000e-01	1.94018787e-02	3.56390912e-04
1.48500000e-01	1.92868105e-02	3.55201496e-04
1.49000000e-01	1.93731686e-02	3.54272620e-04
1.49500000e-01	1.95657308e-02	3.57752886e-04
1.50000000e-01	1.93257011e-02	3.53058158e-04
1.50500000e-01	1.91331065e-02	3.49571012e-04
1.51000000e-01	1.92078478e-02	3.49550001e-04
1.51500000e-01	1.91890402e-02	3.47891715e-04
1.52000000e-01	1.92736625e-02	3.47561225e-04
1.52500000e-01	1.92633686e-02	3.47690147e-04
1.53000000e-01	1.91000535e-02	3.44290637e-04
1.53500000e-01	1.94853575e-02	3.50244501e-04
1.54000000e-01	1.91094021e-02	3.43367716e-04
1.54500000e-01	1.94564098e-02	3.54854349e-04
1.55000000e-01	1.89707582e-02	3.52065592e-04
1.55500000e-01	1.92907497e-02	3.60692342e-04
1.56000000e-01	1.91713286e-02	3.59724322e-04
1.56500000e-01	1.92211980e-02	3.60547331e-04
1.57000000e-01	1.89734081e-02	3.55043750e-04
1.57500000e-01	1.93361088e-02	3.56204361e-04
1.58000000e-01	1.91093521e-02	3.46968848e-04
1.58500000e-01	1.91992183e-02	3.46681397e-04
1.59000000e-01	1.92457517e-02	3.45166903e-04
1.59500000e-01	1.91147214e-02	3.42202615e-04
1.60000000e-01	1.91981178e-02	3.45092613e-04
1.60500000e-01	1.92464885e-02	3.42697916e-04
1.61000000e-01	1.90533776e-02	3.39790696e-04
1.61500000e-01	1.92182395e-02	3.41434030e-04
1.62000000e-01	1.89751867e-02	3.35830975e-04
1.62500000e-01	1.89085811e-02	3.36415470e-04
1.63000000e-01	1.91135811e-02	3.35647786e-04
1.63500000e-01	1.91856154e-02	3.39728268e-04
1.64000000e-01	1.91297309e-02	3.36811352e-04
1.64500000e-01	1.89169674e-02	3.33115067e-04
1.65000000e-01	1.90232657e-02	3.34041177e-04
1.65500000e-01	1.90100898e-02	3.32273076e-04
1.66000000e-01	1.92217474e-02	3.37780334e-04
1.66500000e-01	1.90433241e-02	3.31398632e-04
1.67000000e-01	1.88377222e-02	3.29696881e-04
1.67500000e-01	1.89986183e-02	3.31556386e-04
1.68000000e-01	1.89276053e-02	3.29089903e-04
1.68500000e-01	1.90180010e-02	3.29753912e-04
1.69000000e-01	1.88149036e-02	3.26120333e-04
1.69500000e-01	1.91053434e-02	3.31067821e-04
1.70000000e-01	1.87244286e-02	3.24266566e-04
1.70500000e-01	1.86782612e-02	3.22549749e-04
1.71000000e-01	1.88946594e-02	3.25768240e-04
1.71500000e-01	1.89432022e-02	3.26362889e-04
1.72000000e-01	1.89223786e-02	3.24537263e-04
1.72500000e-01	1.86411979e-02	3.22015090e-04
1.73000000e-01	1.88405248e-02	3.23381346e-04
1.73500000e-01	1.87140272e-02	3.19027360e-04
1.74000000e-01	1.89569843e-02	3.23761967e-04
1.74500000e-01	1.88194674e-02	3.18537600e-04
1.75000000e-01	1.89407169e-02	3.19974672e-04
1.75500000e-01	1.88579448e-02	3.19301959e-04
1.76000000e-01	1.89191293e-02	3.18786431e-04
1.76500000e-01	1.89436371e-02	3.18561649e-04
1.77000000e-01	1.87705937e-02	3.16531998e-04
1.77500000e-01	1.88032435e-02	3.17328868e-04
1.78000000e-01	1.84679006e-02	3.10129479e-04
1.78500000e-01	1.89624753e-02	3.18594898e-04
1.79000000e-01	1.88768175e-02	3.16909906e-04
1.79500000e-01	1.87505429e-02	3.14490123e-04
1.80000000e-01	1.87389703e-02	3.14724485e-04
1.80500000e-01	1.87688694e-02	3.15144363e-04
1.81000000e-01	1.89652967e-02	3.17902674e-04
1.81500000e-01	1.88542948e-02	3.14540051e-04
1.82000000e-01	1.88076498e-02	3.13791315e-04
1.82500000e-01	1.88525518e-02	3.13070343e-04
1.83000000e-01	1.86064336e-02	3.10205356e-04
1.83500000e-01	1.89589021e-02	3.13679552e-04
1.84000000e-01	1.85317761e-02	3.06676049e-04
1.84500000e-01	1.88907383e-02	3.13526374e-04
1.85000000e-01	1.86378573e-02	3.08472980e-04
1.85500000e-01	1.82764167e-02	3.03134612e-04
1.86000000e-01	1.88691515e-02	3.11804448e-04
1.86500000e-01	1.85459918e-02	3.05701360e-04
1.87000000e-01	1.88023444e-02	3.09498888e-04
1.87500000e-01	1.87672110e-02	3.08919983e-04
1.88000000e-01	1.84470355e-02	3.03441037e-04
1.88500000e-01	1.84252179e-02	3.03058775e-04
1.89000000e-01	1.84790824e-02	3.03071274e-04
1.89500000e-01	1.83456649e-02	3.02175229e-04
1.90000000e-01	1.86058177e-02	3.05003718e-04
1.90500000e-01	1.85641926e-02	3.03696063e-04
1.91000000e-01	1.85040956e-02	3.01868154e-04
1.91500000e-01	1.85564137e-02	3.02073382e-04
1.92000000e-01	1.85002667e-02	3.01399671e-04
1.92500000e-01	1.83715698e-02	2.98687335e-04
1.93000000e-01	1.85801467e-02	3.02099297e-04
1.93500000e-01	1.83505055e-02	2.98317979e-04
1.94000000e-01	1.84225984e-02	2.99008608e-04
1.94500000e-01	1.86550700e-02	3.01394691e-04
1.95000000e-01	1.85484679e-02	2.99998311e-04
1.95500000e-01	1.83641884e-02	2.95784408e-04
1.96000000e-01	1.85007638e-02	2.98424315e-04
1.96500000e-01	1.84154724e-02	2.97218297e-04
1.97000000e-01	1.83804448e-02	2.96488923e-04
1.97500000e-01	1.84257638e-02	2.96042557e-04
1.98000000e-01	1.85468873e-02	2.97187684e-04
1.98500000e-01	1.82124093e-02	2.92106119e-04
1.99000000e-01	1.83881817e-02	2.94639383e-04
1.99500000e-01	1.82066267e-02	2.90281556e-04
2.00000000e-01	1.83795195e-02	2.93475733e-04
2.00500000e-01	1.83941698e-02	2.94151348e-04
2.01000000e-01	1.84054613e-02	2.93117033e-04
2.01500000e-01	1.82173572e-02	2.91227617e-04
2.02000000e-01	1.85502026e-02	2.94714786e-04
2.02500000e-01	1.81663680e-02	2.87529206e-04
2.03000000e-01	1.82172754e-02	2.89031125e-04
2.03500000e-01	1.82475322e-02	2.89674557e-04
2.04000000e-01	1.80806609e-02	2.85180223e-04
2.04500000e-01	1.83240443e-02	2.89223165e-04
2.05000000e-01	1.80790760e-02	2.85132033e-04
2.05500000e-01	1.82387176e-02	2.88095479e-04
2.06000000e-01	1.83354317e-02	2.88323459e-04
2.06500000e-01	1.83181483e-02	2.88541581e-04
2.07000000e-01	1.82051323e-02	2.86011438e-04
2.07500000e-01	1.81329129e-02	2.84717543e-04
2.08000000e-01	1.82398462e-02	2.85233319e-04
2.08500000e-01	1.82295884e-02	2.84958457e-04
2.09000000e-01	1.81484114e-02	2.83973520e-04
2.09500000e-01	1.83105608e-02	2.85315139e-04
2.10000000e-01	1.81151660e-02	2.83211010e-04
2.10500000e-01	1.81416351e-02	2.83913374e-04
2.11000000e-01	1.82074776e-02	2.83242653e-04
2.11500000e-01	1.82181342e-02	2.83410534e-04
2.12000000e-01	1.81483038e-02	2.81962561e-04
2.12500000e-01	1.79652645e-02	2.78784662e-04
2.13000000e-01	1.82730752e-02	2.82727162e-04
2.13500000e-01	1.79985076e-02	2.79311158e-04
2.14000000e-01	1.80028204e-02	2.78925002e-04
2.14500000e-01	1.80997995e-02	2.79771179e-04
2.15000000e-01	1.80551456e-02	2.80192694e-04
2.15500000e-01	1.81366382e-02	2.78494741e-04
2.16000000e-01	1.80837174e-02	2.77219122e-04
2.16500000e-01	1.82280491e-02	2.79679556e-04
2.17000000e-01	1.81101105e-02	2.81711364e-04
2.17500000e-01	1.78383332e-02	2.83902164e-04
2.18000000e-01	1.78692811e-02	2.83010616e-04
2.18500000e-01	1.79283408e-02	2.87270652e-04
2.19000000e-01	1.81290971e-02	2.90955399e-04
2.19500000e-01	1.80250077e-02	2.90488921e-04
2.20000000e-01	1.78422291e-02	2.89735369e-04
2.20500000e-01	1.78884926e-02	2.90247440e-04
2.21000000e-01	1.80982735e-02	2.93438308e-04
2.21500000e-01	1.80060972e-02	2.94350236e-04
2.22000000e-01	1.77343412e-02	2.89408261e-04
2.22500000e-01	1.80608790e-02	2.94520723e-04
2.23000000e-01	1.78478718e-02	2.94085165e-04
2.23500000e-01	1.78734477e-02	2.94100388e-04
2.24000000e-01	1.80899090e-02	2.96579868e-04
2.24500000e-01	1.78036951e-02	2.94014389e-04
2.25000000e-01	1.81655205e-02	3.00109705e-04
2.25500000e-01	1.77795532e-02	2.94198707e-04
2.26000000e-01	1.79453456e-02	2.99442782e-04
2.26500000e-01	1.78956142e-02	2.92777353e-04
2.27000000e-01	1.79983295e-02	2.91689956e-04
2.27500000e-01	1.79987060e-02	2.89508980e-04
2.28000000e-01	1.76534587e-02	2.82882310e-04
2.28500000e-01	1.79562494e-02	2.86252430e-04
2.29000000e-01	1.78045678e-02	2.82467819e-04
2.29500000e-01	1.79445267e-02	2.83754249e-04
2.30000000e-01	1.76614832e-02	2.78565577e-04
2.30500000e-01	1.80643889e-02	2.82937059e-04
2.31000000e-01	1.78747766e-02	2.80321213e-04
2.31500000e-01	1.79086352e-02	2.79333748e-04
2.32000000e-01	1.78252858e-02	2.77519776e-04
2.32500000e-01	1.79904458e-02	2.80887083e-04
2.33000000e-01	1.80761233e-02	2.79890901e-04
2.33500000e-01	1.78348866e-02	2.75295144e-04
2.34000000e-01	1.78682377e-02	2.75496846e-04
2.34500000e-01	1.74668507e-02	2.70506164e-04
2.35000000e-01	1.77503118e-02	2.74413131e-04
2.35500000e-01	1.78160394e-02	2.74006217e-04
2.36000000e-01	1.77205845e-02	2.72745395e-04
2.36500000e-01	1.77823828e-02	2.71566748e-04
2.37000000e-01	1.78179029e-02	2.71342064e-04
2.37500000e-01	1.77028200e-02	2.71106767e-04
2.38000000e-01	1.77510806e-02	2.70407195e-04
2.38500000e-01	1.76375901e-02	2.68631803e-04
2.39000000e-01	1.78263063e-02	2.70116592e-04
2.39500000e-01	1.77197413e-02	2.69254029e-04
2.40000000e-01	1.76863450e-02	2.66284840e-04
2.40500000e-01	1.77356876e-02	2.66853081e-04
2.41000000e-01	1.76918274e-02	2.66612260e-04
2.41500000e-01	1.78031723e-02	2.67201390e-04
2.42000000e-01	1.78037323e-02	2.67103149e-04
2.42500000e-01	1.75324122e-02	2.62707846e-04
2.43000000e-01	1.78260412e-02	2.67694011e-04
2.43500000e-01	1.74606796e-02	2.61458006e-04
2.44000000e-01	1.76084482e-02	2.62554721e-04
2.44500000e-01	1.76378995e-02	2.63176280e-04
2.45000000e-01	1.77645472e-02	2.64425389e-04
2.45500000e-01	1.76995902e-02	2.63814271e-04
2.46000000e-01	1.75175506e-02	2.59720946e-04
2.46500000e-01	1.75142750e-02	2.60012560e-04
2.47000000e-01	1.76794320e-02	2.62935533e-04
2.47500000e-01	1.75003436e-02	2.58008894e-04
2.48000000e-01	1.75609530e-02	2.59892014e-04
2.48500000e-01	1.74343124e-02	2.58323164e-04
2.49000000e-01	1.76300771e-02	2.59375007e-04
2.49500000e-01	1.75329042e-02	2.59201662e-04
2.50000000e-01	1.71904662e-02	2.53131706e-04
2.50500000e-01	1.72036654e-02	2.54474977e-04
2.51000000e-01	1.73725537e-02	2.55044298e-04
2.51500000e-01	1.75098724e-02	2.56488929e-04
2.52000000e-01	1.74048387e-02	2.55593313e-04
2.52500000e-01	1.72501967e-02	2.52208933e-04
2.53000000e-01	1.75426978e-02	2.57570962e-04
2.53500000e-01	1.76434874e-02	2.57460492e-04
2.54000000e-01	1.73430373e-02	2.53719208e-04
2.54500000e-01	1.73888683e-02	2.53749655e-04
2.55000000e-01	1.74012901e-02	2.52625469e-04
2.55500000e-01	1.76453666e-02	2.56767805e-04
2.56000000e-01	1.74470513e-02	2.53712430e-04
2.56500000e-01	1.75882230e-02	2.54927235e-04
2.57000000e-01	1.72140148e-02	2.50474737e-04
2.57500000e-01	1.73980202e-02	2.52807895e-04
2.58000000e-01	1.72649624e-02	2.50458402e-04
2.58500000e-01	1.73925930e-02	2.51877144e-04
2.59000000e-01	1.73109893e-02	2.50181879e-04
2.59500000e-01	1.73528929e-02	2.51193392e-04
2.60000000e-01	1.74470798e-02	2.51506769e-04
2.60500000e-01	1.72617599e-02	2.48712321e-04
2.61000000e-01	1.73590447e-02	2.50113590e-04
2.61500000e-01	1.73864389e-02	2.49923750e-04
2.62000000e-01	1.72706539e-02	2.48331618e-04
2.62500000e-01	1.73108464e-02	2.48789877e-04
2.63000000e-01	1.73794598e-02	2.48998215e-04
2.63500000e-01	1.73131325e-02	2.48802650e-04
2.64000000e-01	1.75051700e-02	2.49591945e-04
2.64500000e-01	1.74173110e-02	2.48379170e-04
2.65000000e-01	1.71322316e-02	2.45121881e-04
2.65500000e-01	1.73199825e-02	2.47040274e-04
2.66000000e-01	1.71874508e-02	2.45710911e-04
2.66500000e-01	1.70525326e-02	2.42246576e-04
2.67000000e-01	1.72119727e-02	2.44524448e-04
2.67500000e-01	1.71765327e-02	2.43383974e-04
2.68000000e-01	1.70815740e-02	2.42691706e-04
2.68500000e-01	1.71526994e-02	2.42891903e-04
2.69000000e-01	1.70849937e-02	2.41220829e-04
2.69500000e-01	1.72789150e-02	2.43857615e-04
2.70000000e-01	1.70569113e-02	2.41085664e-04
2.70500000e-01	1.70581993e-02	2.39191500e-04
2.71000000e-01	1.71607028e-02	2.40826321e-04
2.71500000e-01	1.71554541e-02	2.40794817e-04
2.72000000e-01	1.72770424e-02	2.42060943e-04
2.72500000e-01	1.70402044e-02	2.39345868e-04
2.73000000e-01	1.71318004e-02	2.40247706e-04
2.73500000e-01	1.70010423e-02	2.38948195e-04
2.74000000e-01	1.72706595e-02	2.41962061e-04
2.74500000e-01	1.71459802e-02	2.39712282e-04
2.75000000e-01	1.71377513e-02	2.39287539e-04
2.75500000e-01	1.70808409e-02	2.38898337e-04
2.76000000e-01	1.70673666e-02	2.38626844e-04
2.76500000e-01	1.69152933e-02	2.36465412e-04
2.77000000e-01	1.70144090e-02	2.38234670e-04
2.77500000e-01	1.69376967e-02	2.36441173e-04
2.78000000e-01	1.70299245e-02	2.36755974e-04
2.78500000e-01	1.70331001e-02	2.37200863e-04
2.79000000e-01	1.70928300e-02	2.36945357e-04
2.79500000e-01	1.72196809e-02	2.38253296e-04
2.80000000e-01	1.69802331e-02	2.36835870e-04
2.80500000e-01	1.69810209e-02	2.34417087e-04
2.81000000e-01	1.71631003e-02	2.37434750e-04
2.81500000e-01	1.70072876e-02	2.34945639e-04
2.82000000e-01	1.71773422e-02	2.37288319e-04
2.82500000e-01	1.71090440e-02	2.36308319e-04
2.83000000e-01	1.69684933e-02	2.33874208e-04
2.83500000e-01	1.69486515e-02	2.33352435e-04
2.84000000e-01	1.69810852e-02	2.33341495e-04
2.84500000e-01	1.71333499e-02	2.34993185e-04
2.85000000e-01	1.71885174e-02	2.35401882e-04
2.85500000e-01	1.70686747e-02	2.33782804e-04
2.86000000e-01	1.69174046e-02	2.31789367e-04
2.86500000e-01	1.70042053e-02	2.32927912e-04
2.87000000e-01	1.68926671e-02	2.31425681e-04
2.87500000e-01	1.68417729e-02	2.30291224e-04
2.88000000e-01	1.69149226e-02	2.29884017e-04
2.88500000e-01	1.67584888e-02	2.28868848e-04
2.89000000e-01	1.67792652e-02	2.29310592e-04
2.89500000e-01	1.69075541e-02	2.30236828e-04
2.90000000e-01	1.68938045e-02	2.30354920e-04
2.90500000e-01	1.66880708e-02	2.27048272e-04
2.91000000e-01	1.69344931e-02	2.30195380e-04
2.91500000e-01	1.68984725e-02	2.29280036e-04
2.92000000e-01	1.68159555e-02	2.26958039e-04
2.92500000e-01	1.67850241e-02	2.27177797e-04
2.93000000e-01	1.70580574e-02	2.30518725e-04
2.93500000e-01	1.68494384e-02	2.27521593e-04
2.94000000e-01	1.69163124e-02	2.28440217e-04
2.94500000e-01	1.69015371e-02	2.28034188e-04
2.95000000e-01	1.67608674e-02	2.26102609e-04
2.95500000e-01	1.66504008e-02	2.24975130e-04
2.96000000e-01	1.67286221e-02	2.25172409e-04
2.96500000e-01	1.68683681e-02	2.27301717e-04
2.97000000e-01	1.65189365e-02	2.22414385e-04
2.97500000e-01	1.69208325e-02	2.26940518e-04
2.98000000e-01	1.68444500e-02	2.25049034e-04
2.98500000e-01	1.69321162e-02	2.26878999e-04
2.99000000e-01	1.68297992e-02	2.24997785e-04
2.99500000e-01	1.68229985e-02	2.25112826e-04
3.00000000e-01	1.68155295e-02	2.24809462e-04
3.00500000e-01	1.67742074e-02	2.24387975e-04
3.01000000e-01	1.64991243e-02	2.19885845e-04
3.01500000e-01	1.68855843e-02	2.25694281e-04
3.02000000e-01	1.65080192e-02	2.20455191e-04
3.02500000e-01	1.67119924e-02	2.23015084e-04
3.03000000e-01	1.67166314e-02	2.22319990e-04
3.03500000e-01	1.67274357e-02	2.21580042e-04
3.04000000e-01	1.67903231e-02	2.23356534e-04
3.04500000e-01	1.67137218e-02	2.22215106e-04
3.05000000e-01	1.66076837e-02	2.20729940e-04
3.05500000e-01	1.66390740e-02	2.22021291e-04
3.06000000e-01	1.67195740e-02	2.20155165e-04
3.06500000e-01	1.68006198e-02	2.22087608e-04
3.07000000e-01	1.65960537e-02	2.18770517e-04
3.07500000e-01	1.65251316e-02	2.18266148e-04
3.08000000e-01	1.67408916e-02	2.20679262e-04
3.08500000e-01	1.65411851e-02	2.18019959e-04
3.09000000e-01	1.63840461e-02	2.15937611e-04
3.09500000e-01	1.66338708e-02	2.19634106e-04
3.10000000e-01	1.65910498e-02	2.18078711e-04
3.10500000e-01	1.65886250e-02	2.17923133e-04
3.11000000e-01	1.64270554e-02	2.16070875e-04
3.11500000e-01	1.65372415e-02	2.17490611e-04
3.12000000e-01	1.64273224e-02	2.15986473e-04
3.12500000e-01	1.66237707e-02	2.18562273e-04
3.13000000e-01	1.66152651e-02	2.16487353e-04
3.13500000e-01	1.66643589e-02	2.18086129e-04
3.14000000e-01	1.65474989e-02	2.16431068e-04
3.14500000e-01	1.65676313e-02	2.16099245e-04
3.15000000e-01	1.67807569e-02	2.18951582e-04
3.15500000e-01	1.64949925e-02	2.15143811e-04
3.16000000e-01	1.62618703e-02	2.12240935e-04
3.16500000e-01	1.64449688e-02	2.13789905e-04
3.17000000e-01	1.62519728e-02	2.11971177e-04
3.17500000e-01	1.65345252e-02	2.15415255e-04
3.18000000e-01	1.65662834e-02	2.15172007e-04
3.18500000e-01	1.63515451e-02	2.12743037e-04
3.19000000e-01	1.65112870e-02	2.13815245e-04
3.19500000e-01	1.64271586e-02	2.12346034e-04
3.20000000e-01	1.64327267e-02	2.13792600e-04
3.20500000e-01	1.63622890e-02	2.11650820e-04
3.21000000e-01	1.62971025e-02	2.11055141e-04
3.21500000e-01	1.64010731e-02	2.11663574e-04
3.22000000e-01	1.63636305e-02	2.11083350e-04
3.22500000e-01	1.62063012e-02	2.09367491e-04
3.23000000e-01	1.63235829e-02	2.10078890e-04
3.23500000e-01	1.63905375e-02	2.11611131e-04
3.24000000e-01	1.63116430e-02	2.09560660e-04
3.24500000e-01	1.63168919e-02	2.10629322e-04
3.25000000e-01	1.64798012e-02	2.12055168e-04
3.25500000e-01	1.62417304e-02	2.09302048e-04
3.26000000e-01	1.62861738e-02	2.09542928e-04
3.26500000e-01	1.62335396e-02	2.07909316e-04
3.27000000e-01	1.63616831e-02	2.09567405e-04
3.27500000e-01	1.62495111e-02	2.08108095e-04
3.28000000e-01	1.63424297e-02	2.08858372e-04
3.28500000e-01	1.62345556e-02	2.07953893e-04
3.29000000e-01	1.63018075e-02	2.08584366e-04
3.29500000e-01	1.62031219e-02	2.07655606e-04
3.30000000e-01	1.63874133e-02	2.08847036e-04
3.30500000e-01	1.62031121e-02	2.07380095e-04
3.31000000e-01	1.61633754e-02	2.06376892e-04
3.31500000e-01	1.62477631e-02	2.06622811e-04
3.32000000e-01	1.62012436e-02	2.06116686e-04
3.32500000e-01	1.61005417e-02	2.04233646e-04
3.33000000e-01	1.61760699e-02	2.06266292e-04
3.33500000e-01	1.61631363e-02	2.06493539e-04
3.34000000e-01	1.61194150e-02	2.05340619e-04
3.34500000e-01	1.61061475e-02	2.04228031e-04
3.35000000e-01	1.59351533e-02	2.02195307e-04
3.35500000e-01	1.61352390e-02	2.05582801e-04
3.36000000e-01	1.59975078e-02	2.02923745e-04
3.36500000e-01	1.63249627e-02	2.06935084e-04
3.37000000e-01	1.61216099e-02	2.03761585e-04
3.37500000e-01	1.61222357e-02	2.04054085e-04
3.38000000e-01	1.62247314e-02	2.04935051e-04
3.38500000e-01	1.61090489e-02	2.03547341e-04
3.39000000e-01	1.63248963e-02	2.06197655e-04
3.39500000e-01	1.59744480e-02	2.01222725e-04
3.40000000e-01	1.58982126e-02	2.01915540e-04
3.40500000e-01	1.61043028e-02	2.02392668e-04
3.41000000e-01	1.59377681e-02	2.00382311e-04
3.41500000e-01	1.59306992e-02	2.00782417e-04
3.42000000e-01	1.60142421e-02	2.00714065e-04
3.42500000e-01	1.59509237e-02	2.01072482e-04
3.43000000e-01	1.59904112e-02	2.00883082e-04
3.43500000e-01	1.56791309e-02	1.96900319e-04
3.44000000e-01	1.58523126e-02	1.99484934e-04
3.44500000e-01	1.59067817e-02	1.98753498e-04
3.45000000e-01	1.58566659e-02	1.98597680e-04
3.45500000e-01	1.60171491e-02	1.99805009e-04
3.46000000e-01	1.60734093e-02	2.00426242e-04
3.46500000e-01	1.59183795e-02	1.98479533e-04
3.47000000e-01	1.57897796e-02	1.97195458e-04
3.47500000e-01	1.60440086e-02	1.99280093e-04
3.48000000e-01	1.58553611e-02	1.97125383e-04
3.48500000e-01	1.59902323e-02	1.99610489e-04
3.49000000e-01	1.59682461e-02	1.98108064e-04
3.49500000e-01	1.59648918e-02	1.98908544e-04
3.50000000e-01	1.58498332e-02	1.60814954e-04
3.51000000e-01	1.59725964e-02	1.39711966e-04
3.52000000e-01	1.57843385e-02	1.38374529e-04
3.53000000e-01	1.59068169e-02	1.38905005e-04
3.54000000e-01	1.58115759e-02	1.37760371e-04
3.55000000e-01	1.58241889e-02	1.38027018e-04
3.56000000e-01	1.58087219e-02	1.38465764e-04
3.57000000e-01	1.58341651e-02	1.40935171e-04
3.58000000e-01	1.57343319e-02	1.41523639e-04
3.59000000e-01	1.58220645e-02	1.42952679e-04
3.60000000e-01	1.55847282e-02	1.42038168e-04
3.61000000e-01	1.56015593e-02	1.42842684e-04
3.62000000e-01	1.57781055e-02	1.45425762e-04
3.63000000e-01	1.56956082e-02	1.44949714e-04
3.64000000e-01	1.56321320e-02	1.44892903e-04
3.65000000e-01	1.55709833e-02	1.44824810e-04
3.66000000e-01	1.56508396e-02	1.43456465e-04
3.67000000e-01	1.56375489e-02	1.41458027e-04
3.68000000e-01	1.56075323e-02	1.40401869e-04
3.69000000e-01	1.55034526e-02	1.38744165e-04
3.70000000e-01	1.55278996e-02	1.38576719e-04
3.71000000e-01	1.56911191e-02	1.41657535e-04
3.72000000e-01	1.55489324e-02	1.41078285e-04
3.73000000e-01	1.55807345e-02	1.42053002e-04
3.74000000e-01	1.55315991e-02	1.41634412e-04
3.75000000e-01	1.55447766e-02	1.41876498e-04
3.76000000e-01	1.56557615e-02	1.42118423e-04
3.77000000e-01	1.54637046e-02	1.40983734e-04
3.78000000e-01	1.54860206e-02	1.41280148e-04
3.79000000e-01	1.55208823e-02	1.41319497e-04
3.80000000e-01	1.54608715e-02	1.40447863e-04
3.81000000e-01	1.53715142e-02	1.40136666e-04
3.82000000e-01	1.53019486e-02	1.39650508e-04
3.83000000e-01	1.52974205e-02	1.39070121e-04
3.84000000e-01	1.54037119e-02	1.40063750e-04
3.85000000e-01	1.53440362e-02	1.39841248e-04
3.86000000e-01	1.55183628e-02	1.40764315e-04
3.87000000e-01	1.54384297e-02	1.40486414e-04
3.88000000e-01	1.53500364e-02	1.39457619e-04
3.89000000e-01	1.52601004e-02	1.38906767e-04
3.90000000e-01	1.53104226e-02	1.39198317e-04
3.91000000e-01	1.52676163e-02	1.38458604e-04
3.92000000e-01	1.53663987e-02	1.39383822e-04
3.93000000e-01	1.52456153e-02	1.38485382e-04
3.94000000e-01	1.51903495e-02	1.37963703e-04
3.95000000e-01	1.52954440e-02	1.38953449e-04
3.96000000e-01	1.53009090e-02	1.38487942e-04
3.97000000e-01	1.51124595e-02	1.37067934e-04
3.98000000e-01	1.51371470e-02	1.37628142e-04
3.99000000e-01	1.51103541e-02	1.37320532e-04
4.00000000e-01	1.51097925e-02	1.36998108e-04
4.01000000e-01	1.51546911e-02	1.37395814e-04
4.02000000e-01	1.49880009e-02	1.36354742e-04
4.03000000e-01	1.50550639e-02	1.36572044e-04
4.04000000e-01	1.50542797e-02	1.36660017e-04
4.05000000e-01	1.49845042e-02	1.35970747e-04
4.06000000e-01	1.50261219e-02	1.36427546e-04
4.07000000e-01	1.50099276e-02	1.36011988e-04
4.08000000e-01	1.51277836e-02	1.37008204e-04
4.09000000e-01	1.49986357e-02	1.35672147e-04
4.10000000e-01	1.51175413e-02	1.36948818e-04
4.11000000e-01	1.49755220e-02	1.35778248e-04
4.12000000e-01	1.48639418e-02	1.34836329e-04
4.13000000e-01	1.49891894e-02	1.35694979e-04
4.14000000e-01	1.48682010e-02	1.34641417e-04
4.15000000e-01	1.50150713e-02	1.35960885e-04
4.16000000e-01	1.49110413e-02	1.34827025e-04
4.17000000e-01	1.49188122e-02	1.34685948e-04
4.18000000e-01	1.49368481e-02	1.36520132e-04
4.19000000e-01	1.50494978e-02	1.39152348e-04
4.20000000e-01	1.50358941e-02	1.39936457e-04
4.21000000e-01	1.49931781e-02	1.39697949e-04
4.22000000e-01	1.51652750e-02	1.41294171e-04
4.23000000e-01	1.51110986e-02	1.42088436e-04
4.24000000e-01	1.50123860e-02	1.41419938e-04
4.25000000e-01	1.48752143e-02	1.40602615e-04
4.26000000e-01	1.49572702e-02	1.41038800e-04
4.27000000e-01	1.49902442e-02	1.41793585e-04
4.28000000e-01	1.50599707e-02	1.42005888e-04
4.29000000e-01	1.49215835e-02	1.41235908e-04
4.30000000e-01	1.49748687e-02	1.41794156e-04
4.31000000e-01	1.51038371e-02	1.42201721e-04
4.32000000e-01	1.49481467e-02	1.41121676e-04
4.33000000e-01	1.49572519e-02	1.41719084e-04
4.34000000e-01	1.48532828e-02	1.40816285e-04
4.35000000e-01	1.48806976e-02	1.41475737e-04
4.36000000e-01	1.48605835e-02	1.41084062e-04
4.37000000e-01	1.47622164e-02	1.40614305e-04
4.38000000e-01	1.49129976e-02	1.42084933e-04
4.39000000e-01	1.47757273e-02	1.41231485e-04
4.40000000e-01	1.49181424e-02	1.42256307e-04
4.41000000e-01	1.48329218e-02	1.41798760e-04
4.42000000e-01	1.48152470e-02	1.41947709e-04
4.43000000e-01	1.46389616e-02	1.40830064e-04
4.44000000e-01	1.47398517e-02	1.41593805e-04
4.45000000e-01	1.47885970e-02	1.42706936e-04
4.46000000e-01	1.47152792e-02	1.41786505e-04
4.47000000e-01	1.47500716e-02	1.41603452e-04
4.48000000e-01	1.47986324e-02	1.42913385e-04
4.49000000e-01	1.46698532e-02	1.41619242e-04
4.50000000e-01	1.46477252e-02	1.41797410e-04
4.51000000e-01	1.46232101e-02	1.41412736e-04
4.52000000e-01	1.46981449e-02	1.42352006e-04
4.53000000e-01	1.46453901e-02	1.42002082e-04
4.54000000e-01	1.47168516e-02	1.43070425e-04
4.55000000e-01	1.47371623e-02	1.42903233e-04
4.56000000e-01	1.46726980e-02	1.42285117e-04
4.57000000e-01	1.47057427e-02	1.43234053e-04
4.58000000e-01	1.46678465e-02	1.42820089e-04
4.59000000e-01	1.45484097e-02	1.41856300e-04
4.60000000e-01	1.46121258e-02	1.42547741e-04
4.61000000e-01	1.46720152e-02	1.43328860e-04
4.62000000e-01	1.45546474e-02	1.42447044e-04
4.63000000e-01	1.46717230e-02	1.43449039e-04
4.64000000e-01	1.47266642e-02	1.43992061e-04
4.65000000e-01	1.46514043e-02	1.43070590e-04
4.66000000e-01	1.46713097e-02	1.43525492e-04
4.67000000e-01	1.45081838e-02	1.42155771e-04
4.68000000e-01	1.44170534e-02	1.41354050e-04
4.69000000e-01	1.46633802e-02	1.43919524e-04
4.70000000e-01	1.44370381e-02	1.41815828e-04
4.71000000e-01	1.45924891e-02	1.42933739e-04
4.72000000e-01	1.45355730e-02	1.42494029e-04
4.73000000e-01	1.46224716e-02	1.43401295e-04
4.74000000e-01	1.45125935e-02	1.42425512e-04
4.75000000e-01	1.44022706e-02	1.41513420e-04
4.76000000e-01	1.45374137e-02	1.42895587e-04
4.77000000e-01	1.45765050e-02	1.42937934e-04
4.78000000e-01	1.46128381e-02	1.43306613e-04
4.79000000e-01	1.45136115e-02	1.42597480e-04
4.80000000e-01	1.44294991e-02	1.41884035e-04
4.81000000e-01	1.44149572e-02	1.41922950e-04
4.82000000e-01	1.44824981e-02	1.42490719e-04
4.83000000e-01	1.43792182e-02	1.41359413e-04
4.84000000e-01	1.43826764e-02	1.41845541e-04
4.85000000e-01	1.44539011e-02	1.42645800e-04
4.86000000e-01	1.43945114e-02	1.42215210e-04
4.87000000e-01	1.43390547e-02	1.41820143e-04
4.88000000e-01	1.43275215e-02	1.41699391e-04
4.89000000e-01	1.43430462e-02	1.42256702e-04
4.90000000e-01	1.41837261e-02	1.40590597e-04
4.91000000e-01	1.44774049e-02	1.42740722e-04
4.92000000e-01	1.43867339e-02	1.42501071e-04
4.93000000e-01	1.42155228e-02	1.41107677e-04
4.94000000e-01	1.42661370e-02	1.41529987e-04
4.95000000e-01	1.42982750e-02	1.42900821e-04
4.96000000e-01	1.43481005e-02	1.47694764e-04
4.97000000e-01	1.42245781e-02	1.49083287e-04
4.98000000e-01	1.41850516e-02	1.50489600e-04
4.99000000e-01	1.42440275e-02	1.52958123e-04
5.00000000e-01	1.42369871e-02	1.54734290e-04
5.01000000e-01	1.43229612e-02	1.56984788e-04
5.02000000e-01	1.43177918e-02	1.58243642e-04
5.03000000e-01	1.42179494e-02	1.59084480e-04
5.04000000e-01	1.42575964e-02	1.61060661e-04
5.05000000e-01	1.44271859e-02	1.59223264e-04
5.06000000e-01	1.42322261e-02	1.54515724e-04
5.07000000e-01	1.44497189e-02	1.55140573e-04
5.08000000e-01	1.42211877e-02	1.51233753e-04
5.09000000e-01	1.40976631e-02	1.49796291e-04
5.10000000e-01	1.44161903e-02	1.52630755e-04
5.11000000e-01	1.43015198e-02	1.51371334e-04
5.12000000e-01	1.40851320e-02	1.48488785e-04
5.13000000e-01	1.40748049e-02	1.48000846e-04
5.14000000e-01	1.42333178e-02	1.49245970e-04
5.15000000e-01	1.41043601e-02	1.47536733e-04
5.16000000e-01	1.42784050e-02	1.48981264e-04
5.17000000e-01	1.41509518e-02	1.47777996e-04
5.18000000e-01	1.41931334e-02	1.47739078e-04
5.19000000e-01	1.40484304e-02	1.45952495e-04
5.20000000e-01	1.41220733e-02	1.46304120e-04
5.21000000e-01	1.40050495e-02	1.44699654e-04
5.22000000e-01	1.41489281e-02	1.46792869e-04
5.23000000e-01	1.41283109e-02	1.46091106e-04
5.24000000e-01	1.39396429e-02	1.44402231e-04
5.25000000e-01	1.40439323e-02	1.45499806e-04
5.26000000e-01	1.41249359e-02	1.46058469e-04
5.27000000e-01	1.40207270e-02	1.44658076e-04
5.28000000e-01	1.39641307e-02	1.44374613e-04
5.29000000e-01	1.39340223e-02	1.44224110e-04
5.30000000e-01	1.40428416e-02	1.45054695e-04
5.31000000e-01	1.39675938e-02	1.44704454e-04
5.32000000e-01	1.41216832e-02	1.46158260e-04
5.33000000e-01	1.39154593e-02	1.43957573e-04
5.34000000e-01	1.40374156e-02	1.45220155e-04
5.35000000e-01	1.38776616e-02	1.43660651e-04
5.36000000e-01	1.40061419e-02	1.44539352e-04
5.37000000e-01	1.38822535e-02	1.43844828e-04
5.38000000e-01	1.40280088e-02	1.44614389e-04
5.39000000e-01	1.39505949e-02	1.44370673e-04
5.40000000e-01	1.39065804e-02	1.44385821e-04
5.41000000e-01	1.39732582e-02	1.44619799e-04
5.42000000e-01	1.38501995e-02	1.43628843e-04
5.43000000e-01	1.39108878e-02	1.43287961e-04
5.44000000e-01	1.38517508e-02	1.43472842e-04
5.45000000e-01	1.40179469e-02	1.44661829e-04
5.46000000e-01	1.38059054e-02	1.42290373e-04
5.47000000e-01	1.39147751e-02	1.43973339e-04
5.48000000e-01	1.38577063e-02	1.42666942e-04
5.49000000e-01	1.38786640e-02	1.43040018e-04
5.50000000e-01	1.37952177e-02	1.42702765e-04
5.51000000e-01	1.38450080e-02	1.42914992e-04
5.52000000e-01	1.37203203e-02	1.41461050e-04
5.53000000e-01	1.37055363e-02	1.41053598e-04
5.54000000e-01	1.36236236e-02	1.40206081e-04
5.55000000e-01	1.37479778e-02	1.41767130e-04
5.56000000e-01	1.37817251e-02	1.41765730e-04
5.57000000e-01	1.37538676e-02	1.41229309e-04
5.58000000e-01	1.37831874e-02	1.41863972e-04
5.59000000e-01	1.37446980e-02	1.41674529e-04
5.60000000e-01	1.36585238e-02	1.40794826e-04
5.61000000e-01	1.36148442e-02	1.39674342e-04
5.62000000e-01	1.36147526e-02	1.40030087e-04
5.63000000e-01	1.35590845e-02	1.39519663e-04
5.64000000e-01	1.36751147e-02	1.40912662e-04
5.65000000e-01	1.36118751e-02	1.40005005e-04
5.66000000e-01	1.36342993e-02	1.40467873e-04
5.67000000e-01	1.35805513e-02	1.39984796e-04
5.68000000e-01	1.37835389e-02	1.41909061e-04
5.69000000e-01	1.36769231e-02	1.40509569e-04
5.70000000e-01	1.35898376e-02	1.39987580e-04
5.71000000e-01	1.36831745e-02	1.40329328e-04
5.72000000e-01	1.36355444e-02	1.40187684e-04
5.73000000e-01	1.35102430e-02	1.39253317e-04
5.74000000e-01	1.35797723e-02	1.40108501e-04
5.75000000e-01	1.35490307e-02	1.39783402e-04
5.76000000e-01	1.33921823e-02	1.38062531e-04
5.77000000e-01	1.34571320e-02	1.38708622e-04
5.78000000e-01	1.35772987e-02	1.40344303e-04
5.79000000e-01	1.34857424e-02	1.38768497e-04
5.80000000e-01	1.35787299e-02	1.40203246e-04
5.81000000e-01	1.34435137e-02	1.38809841e-04
5.82000000e-01	1.35066526e-02	1.39549780e-04
5.83000000e-01	1.33716566e-02	1.38210774e-04
5.84000000e-01	1.34742508e-02	1.38904214e-04
5.85000000e-01	1.34121131e-02	1.38718759e-04
5.86000000e-01	1.33766929e-02	1.38262401e-04
5.87000000e-01	1.32814233e-02	1.37151916e-04
5.88000000e-01	1.34648585e-02	1.38947127e-04
5.89000000e-01	1.33472526e-02	1.38019915e-04
5.90000000e-01	1.34412344e-02	1.39264402e-04
5.91000000e-01	1.33704519e-02	1.38687260e-04
5.92000000e-01	1.33088708e-02	1.37659895e-04
5.93000000e-01	1.33517519e-02	1.38108443e-04
5.94000000e-01	1.33297101e-02	1.37765568e-04
5.95000000e-01	1.33537460e-02	1.38085329e-04
5.96000000e-01	1.33826643e-02	1.38521176e-04
5.97000000e-01	1.32652913e-02	1.37891319e-04
5.98000000e-01	1.32476288e-02	1.37597643e-04
5.99000000e-01	1.31917162e-02	1.37090588e-04
6.00000000e-01	1.33214202e-02	1.38182812e-04
6.01000000e-01	1.31961182e-02	1.37099650e-04
6.02000000e-01	1.33585915e-02	1.38343774e-04
6.03000000e-01	1.33059868e-02	1.37951050e-04
6.04000000e-01	1.32051964e-02	1.37143976e-04
6.05000000e-01	1.32809300e-02	1.37341983e-04
6.06000000e-01	1.32335295e-02	1.37369096e-04
6.07000000e-01	1.32273065e-02	1.37537177e-04
6.08000000e-01	1.32548431e-02	1.37669559e-04
6.09000000e-01	1.32625291e-02	1.37564295e-04
6.10000000e-01	1.33115879e-02	1.37713018e-04
6.11000000e-01	1.31953342e-02	1.37265622e-04
6.12000000e-01	1.31281827e-02	1.36031384e-04
6.13000000e-01	1.31248890e-02	1.36100251e-04
6.14000000e-01	1.32414592e-02	1.37423825e-04
6.15000000e-01	1.31346774e-02	1.36492713e-04
6.16000000e-01	1.31577274e-02	1.36892879e-04
6.17000000e-01	1.30761430e-02	1.36345440e-04
6.18000000e-01	1.31081207e-02	1.36669032e-04
6.19000000e-01	1.31243713e-02	1.36426562e-04
6.20000000e-01	1.29624502e-02	1.34420602e-04
6.21000000e-01	1.31630552e-02	1.36277615e-04
6.22000000e-01	1.30225577e-02	1.34920242e-04
6.23000000e-01	1.31390604e-02	1.35560809e-04
6.24000000e-01	1.30874214e-02	1.35239818e-04
6.25000000e-01	1.29825477e-02	1.34124143e-04
6.26000000e-01	1.29938769e-02	1.33821424e-04
6.27000000e-01	1.30104687e-02	1.34227691e-04
6.28000000e-01	1.31618265e-02	1.35898448e-04
6.29000000e-01	1.30092040e-02	1.33779057e-04
6.30000000e-01	1.30498466e-02	1.34767202e-04
6.31000000e-01	1.29786401e-02	1.33916942e-04
6.32000000e-01	1.30758192e-02	1.35568659e-04
6.33000000e-01	1.30658584e-02	1.34892059e-04
6.34000000e-01	1.31094547e-02	1.38742942e-04
6.35000000e-01	1.29683848e-02	1.41696195e-04
6.36000000e-01	1.31140719e-02	1.45483081e-04
6.37000000e-01	1.30361264e-02	1.46749977e-04
6.38000000e-01	1.32708225e-02	1.50943046e-04
6.39000000e-01	1.29865200e-02	1.49808070e-04
6.40000000e-01	1.30389710e-02	1.52384791e-04
6.41000000e-01	1.30521983e-02	1.54411503e-04
6.42000000e-01	1.30499692e-02	1.56067135e-04
6.43000000e-01	1.30521056e-02	1.56154522e-04
6.44000000e-01	1.32431507e-02	1.52022112e-04
6.45000000e-01	1.29908857e-02	1.47695397e-04
6.46000000e-01	1.28707351e-02	1.45315175e-04
6.47000000e-01	1.30295083e-02	1.45433253e-04
6.48000000e-01	1.30238575e-02	1.44817720e-04
6.49000000e-01	1.30556128e-02	1.44080230e-04
6.50000000e-01	1.29944530e-02	1.42903681e-04
6.51000000e-01	1.29653493e-02	1.42482493e-04
6.52000000e-01	1.29725427e-02	1.41896362e-04
6.53000000e-01	1.30650407e-02	1.41933294e-04
6.54000000e-01	1.29541248e-02	1.40246503e-04
6.55000000e-01	1.29279361e-02	1.39881204e-04
6.56000000e-01	1.31091949e-02	1.41214654e-04
6.57000000e-01	1.30764381e-02	1.40930819e-04
6.58000000e-01	1.29829588e-02	1.39614291e-04
6.59000000e-01	1.29320113e-02	1.39262534e-04
6.60000000e-01	1.30680123e-02	1.40695024e-04
6.61000000e-01	1.29638349e-02	1.39460711e-04
6.62000000e-01	1.29476179e-02	1.39027946e-04
6.63000000e-01	1.29786670e-02	1.39767365e-04
6.64000000e-01	1.29019302e-02	1.38765371e-04
6.65000000e-01	1.27729980e-02	1.37591185e-04
6.66000000e-01	1.30440305e-02	1.39603641e-04
6.67000000e-01	1.30636880e-02	1.40289761e-04
6.68000000e-01	1.28854673e-02	1.38597639e-04
6.69000000e-01	1.28310057e-02	1.37706373e-04
6.70000000e-01	1.27238849e-02	1.36697353e-04
6.71000000e-01	1.28530789e-02	1.37952911e-04
6.72000000e-01	1.27674591e-02	1.37028801e-04
6.73000000e-01	1.28610183e-02	1.37396088e-04
6.74000000e-01	1.27755247e-02	1.36716813e-04
6.75000000e-01	1.28870649e-02	1.37901458e-04
6.76000000e-01	1.28954185e-02	1.37882365e-04
6.77000000e-01	1.28483096e-02	1.37445983e-04
6.78000000e-01	1.27117796e-02	1.36153125e-04
6.79000000e-01	1.28301971e-02	1.36777347e-04
6.80000000e-01	1.28069144e-02	1.37247817e-04
6.81000000e-01	1.25379457e-02	1.34207420e-04
6.82000000e-01	1.28032758e-02	1.36687541e-04
6.83000000e-01	1.27352621e-02	1.36440614e-04
6.84000000e-01	1.26272825e-02	1.35314849e-04
6.85000000e-01	1.27687148e-02	1.36863548e-04
6.86000000e-01	1.26847988e-02	1.35719131e-04
6.87000000e-01	1.27030254e-02	1.35201569e-04
6.88000000e-01	1.25679326e-02	1.34752220e-04
6.89000000e-01	1.27307791e-02	1.35787692e-04
6.90000000e-01	1.26607265e-02	1.35452950e-04
6.91000000e-01	1.27545718e-02	1.35493518e-04
6.92000000e-01	1.26466864e-02	1.35245466e-04
6.93000000e-01	1.25040589e-02	1.33280377e-04
6.94000000e-01	1.27673541e-02	1.36217989e-04
6.95000000e-01	1.25210629e-02	1.33444972e-04
6.96000000e-01	1.26198046e-02	1.35143031e-04
6.97000000e-01	1.26334417e-02	1.34707796e-04
6.98000000e-01	1.25796556e-02	1.34527136e-04
6.99000000e-01	1.26566922e-02	1.34705621e-04
7.00000000e-01	1.26061285e-02	1.34485476e-04
7.01000000e-01	1.24740290e-02	1.33450964e-04
7.02000000e-01	1.25866645e-02	1.34583901e-04
7.03000000e-01	1.24387459e-02	1.32693584e-04
7.04000000e-01	1.26597255e-02	1.35146620e-04
7.05000000e-01	1.25482605e-02	1.33966953e-04
7.06000000e-01	1.25807072e-02	1.34263905e-04
7.07000000e-01	1.24428962e-02	1.33046099e-04
7.08000000e-01	1.24867220e-02	1.32852890e-04
7.09000000e-01	1.24260228e-02	1.32549056e-04
7.10000000e-01	1.25434430e-02	1.33441970e-04
7.11000000e-01	1.25364630e-02	1.33450211e-04
7.12000000e-01	1.24759263e-02	1.32551738e-04
7.13000000e-01	1.24408534e-02	1.32581713e-04
7.14000000e-01	1.23911800e-02	1.32498331e-04
7.15000000e-01	1.23096657e-02	1.31468538e-04
7.16000000e-01	1.23912707e-02	1.32456475e-04
7.17000000e-01	1.24381268e-02	1.32643904e-04
7.18000000e-01	1.23528197e-02	1.31738975e-04
7.19000000e-01	1.23694673e-02	1.32060031e-04
7.20000000e-01	1.24344032e-02	1.32514806e-04
7.21000000e-01	1.23525044e-02	1.31770043e-04
7.22000000e-01	1.23026585e-02	1.31404751e-04
7.23000000e-01	1.23875967e-02	1.32392076e-04
7.24000000e-01	1.24085489e-02	1.32464312e-04
7.25000000e-01	1.22947523e-02	1.31480379e-04
7.26000000e-01	1.24244713e-02	1.32235513e-04
7.27000000e-01	1.23628067e-02	1.31588651e-04
7.28000000e-01	1.23591403e-02	1.32253656e-04
7.29000000e-01	1.22450958e-02	1.30751673e-04
7.30000000e-01	1.21784781e-02	1.29936139e-04
7.31000000e-01	1.22015249e-02	1.30178104e-04
7.32000000e-01	1.22961895e-02	1.31537275e-04
7.33000000e-01	1.23352785e-02	1.31990668e-04
7.34000000e-01	1.22065842e-02	1.30115273e-04
7.35000000e-01	1.22200994e-02	1.30420348e-04
7.36000000e-01	1.21758540e-02	1.29247914e-04
7.37000000e-01	1.21813242e-02	1.29191736e-04
7.38000000e-01	1.23359947e-02	1.30554119e-04
7.39000000e-01	1.21205083e-02	1.28644026e-04
7.40000000e-01	1.21521791e-02	1.28785187e-04
7.41000000e-01	1.20856422e-02	1.27843789e-04
7.42000000e-01	1.20626249e-02	1.27577503e-04
7.43000000e-01	1.21043052e-02	1.28367827e-04
7.44000000e-01	1.21564930e-02	1.28175552e-04
7.45000000e-01	1.21726062e-02	1.28601333e-04
7.46000000e-01	1.20680898e-02	1.27844488e-04
7.47000000e-01	1.20797629e-02	1.27495175e-04
7.48000000e-01	1.20412220e-02	1.27172696e-04
7.49000000e-01	1.20894207e-02	1.27715085e-04
7.50000000e-01	1.22378334e-02	1.29475248e-04
7.51000000e-01	1.20029826e-02	1.27257980e-04
7.52000000e-01	1.20536064e-02	1.27606701e-04
7.53000000e-01	1.20174107e-02	1.27094201e-04
7.54000000e-01	1.19858011e-02	1.27058369e-04
7.55000000e-01	1.20212320e-02	1.27095716e-04
7.56000000e-01	1.19903827e-02	1.26801549e-04
7.57000000e-01	1.20233611e-02	1.27392703e-04
7.58000000e-01	1.20755401e-02	1.28006798e-04
7.59000000e-01	1.18596113e-02	1.25795392e-04
7.60000000e-01	1.18995839e-02	1.26124027e-04
7.61000000e-01	1.19408662e-02	1.25951174e-04
7.62000000e-01	1.20647000e-02	1.26956541e-04
7.63000000e-01	1.19029809e-02	1.25206771e-04
7.64000000e-01	1.19218571e-02	1.25293922e-04
7.65000000e-01	1.19729107e-02	1.25841145e-04
7.66000000e-01	1.19370878e-02	1.25665836e-04
7.67000000e-01	1.19083003e-02	1.25027121e-04
7.68000000e-01	1.19316337e-02	1.25150549e-04
7.69000000e-01	1.20234774e-02	1.26532175e-04
7.70000000e-01	1.18284230e-02	1.24557248e-04
7.71000000e-01	1.17754099e-02	1.23814742e-04
7.72000000e-01	1.17298769e-02	1.27061751e-04
7.73000000e-01	1.16844164e-02	1.31010492e-04
7.74000000e-01	1.17614018e-02	1.34424588e-04
7.75000000e-01	1.18894597e-02	1.37765934e-04
7.76000000e-01	1.16976562e-02	1.37688962e-04
7.77000000e-01	1.18265383e-02	1.41537736e-04
7.78000000e-01	1.17473223e-02	1.42524834e-04
7.79000000e-01	1.17409611e-02	1.43691516e-04
7.80000000e-01	1.16688630e-02	1.44694896e-04
7.81000000e-01	1.16880022e-02	1.47129391e-04
7.82000000e-01	1.17414625e-02	1.48856434e-04
7.83000000e-01	1.18876574e-02	1.52290222e-04
7.84000000e-01	1.16888571e-02	1.51877396e-04
7.85000000e-01	1.17237629e-02	1.53084565e-04
7.86000000e-01	1.16379618e-02	1.54401850e-04
7.87000000e-01	1.17436989e-02	1.56453262e-04
7.88000000e-01	1.16117246e-02	1.56453618e-04
7.89000000e-01	1.15883803e-02	1.57512592e-04
7.90000000e-01	1.15787840e-02	1.59795984e-04
7.91000000e-01	1.15145268e-02	1.60328515e-04
7.92000000e-01	1.14939655e-02	1.61892850e-04
7.93000000e-01	1.16207750e-02	1.64245795e-04
7.94000000e-01	1.15723251e-02	1.65651452e-04
7.95000000e-01	1.15791528e-02	1.67801512e-04
7.96000000e-01	1.14620684e-02	1.68179130e-04
7.97000000e-01	1.14499372e-02	1.69134098e-04
7.98000000e-01	1.15417397e-02	1.71773831e-04
7.99000000e-01	1.15990647e-02	1.75735016e-04
8.00000000e-01	1.15928743e-02	1.76424927e-04
8.01000000e-01	1.14263575e-02	1.76116054e-04
8.02000000e-01	1.15141196e-02	1.79782265e-04
8.03000000e-01	1.14947043e-02	1.81314291e-04
8.04000000e-01	1.15294191e-02	1.83894874e-04
8.05000000e-01	1.16865712e-02	1.87315936e-04
8.06000000e-01	1.14148589e-02	1.85859576e-04
8.07000000e-01	1.13518988e-02	1.86692093e-04
8.08000000e-01	1.14685826e-02	1.90998614e-04
8.09000000e-01	1.12584354e-02	1.88616939e-04
8.10000000e-01	1.13868993e-02	1.92723879e-04
8.11000000e-01	1.15395008e-02	1.97804856e-04
8.12000000e-01	1.13191866e-02	1.96384217e-04
8.13000000e-01	1.13532678e-02	1.99271607e-04
8.14000000e-01	1.11952987e-02	1.99739049e-04
8.15000000e-01	1.13558267e-02	2.03011577e-04
8.16000000e-01	1.14057980e-02	2.07082364e-04
8.17000000e-01	1.14137654e-02	2.10392977e-04
8.18000000e-01	1.13679493e-02	2.11201222e-04
8.19000000e-01	1.11582679e-02	2.10323991e-04
8.20000000e-01	1.11222766e-02	2.14228379e-04
8.21000000e-01	1.12560910e-02	2.18316453e-04
8.22000000e-01	1.14756216e-02	2.25241969e-04
8.23000000e-01	1.13502852e-02	2.24816682e-04
8.24000000e-01	1.13932664e-02	2.32259487e-04
8.25000000e-01	1.13453563e-02	2.30278561e-04
8.26000000e-01	1.10916320e-02	2.32295314e-04
8.27000000e-01	1.10794067e-02	2.33577680e-04
8.28000000e-01	1.10091704e-02	2.36888643e-04
8.29000000e-01	1.11906402e-02	2.44088890e-04
8.30000000e-01	1.11577752e-02	2.44731425e-04
8.31000000e-01	1.09787563e-02	2.47702806e-04
8.32000000e-01	1.07810184e-02	2.48520407e-04
8.33000000e-01	1.09802107e-02	2.54157692e-04
8.34000000e-01	1.08414182e-02	2.55770756e-04
8.35000000e-01	1.08940687e-02	2.64660260e-04
8.36000000e-01	1.11024316e-02	2.73509574e-04
8.37000000e-01	1.09173299e-02	2.73734484e-04
8.38000000e-01	1.09775907e-02	2.77603722e-04
8.39000000e-01	1.09679629e-02	2.87164835e-04
8.40000000e-01	1.07729963e-02	2.89038627e-04
8.41000000e-01	1.12106579e-02	3.04764698e-04
8.42000000e-01	1.10827929e-02	3.06628313e-04
8.43000000e-01	1.07675032e-02	3.05429237e-04
8.44000000e-01	1.08625989e-02	3.13996939e-04
8.45000000e-01	1.11421894e-02	3.33607139e-04
8.46000000e-01	1.07124289e-02	3.30078895e-04
8.47000000e-01	1.06739860e-02	3.39952948e-04
8.48000000e-01	1.06415548e-02	3.45070505e-04
8.49000000e-01	1.03401813e-02	3.49195763e-04
8.50000000e-01	1.08982052e-02	3.80382422e-04
8.51000000e-01	1.06273181e-02	3.88619427e-04
8.52000000e-01	1.06275837e-02	3.96363118e-04
8.53000000e-01	1.07163512e-02	4.19686072e-04
8.54000000e-01	1.02697852e-02	4.18004803e-04
8.55000000e-01	1.06407770e-02	4.52051442e-04
8.56000000e-01	1.06317488e-02	4.59308772e-04
8.57000000e-01	1.05943754e-02	4.75875141e-04
8.58000000e-01	1.10225419e-02	5.13090762e-04
8.59000000e-01	1.07743359e-02	5.10864326e-04
8.60000000e-01	1.07551260e-02	5.29406163e-04
8.61000000e-01	1.06139473e-02	5.39508951e-04
8.62000000e-01	1.02865836e-02	5.42209378e-04
8.63000000e-01	1.03905268e-02	5.69714309e-04
8.64000000e-01	1.02017170e-02	5.90255326e-04
8.65000000e-01	1.04312216e-02	6.27250819e-04
8.66000000e-01	1.03462798e-02	6.63199240e-04
8.67000000e-01	1.04447378e-02	6.90689480e-04
8.68000000e-01	1.01052557e-02	7.26981705e-04
8.69000000e-01	1.03817570e-02	7.83091669e-04
8.70000000e-01	1.08098352e-02	8.91243185e-04
8.71000000e-01	8.95522130e-03	8.59151580e-04
8.72000000e-01	1.07875168e-02	1.14586865e-03
8.73000000e-01	1.01594732e-02	1.23530587e-03
8.74000000e-01	9.74954953e-03	1.59369883e-03
8.75000000e-01	9.03307977e-03	2.88551167e-03
