% Filename : SDL7c_00015_00020.h5
% Date & Time : 30-Oct-2025 16:15:07
% X-ray Energy (keV) : 13.30001
% Exposure Time (s) : 0.500
% Beam Center : 1461.24000, 208.98300
% Sample to Detector Distance (SDD) (mm) : 1990.750
% Detector Pixel Size (mm) : 0.075
% Photodiode Value : 139560.000
% I0 of Sample : 0
% I0 of Standard : 1
% 
% q(A^-1)   I(q)    I(q)_SE
0.00000000e+00	9.06184131e-03	4.66756374e-03
2.50000000e-04	0.00000000e+00	0.00000000e+00
5.00000000e-04	0.00000000e+00	0.00000000e+00
7.50000000e-04	0.00000000e+00	0.00000000e+00
1.00000000e-03	0.00000000e+00	0.00000000e+00
1.25000000e-03	0.00000000e+00	0.00000000e+00
1.50000000e-03	0.00000000e+00	0.00000000e+00
1.75000000e-03	0.00000000e+00	0.00000000e+00
2.00000000e-03	0.00000000e+00	0.00000000e+00
2.25000000e-03	0.00000000e+00	0.00000000e+00
2.50000000e-03	0.00000000e+00	0.00000000e+00
2.75000000e-03	0.00000000e+00	0.00000000e+00
3.00000000e-03	0.00000000e+00	0.00000000e+00
3.25000000e-03	9.55923368e+01	9.04571519e+01
3.50000000e-03	1.71316030e+01	1.45167948e+01
3.75000000e-03	1.01000822e+01	8.36087488e+00
4.00000000e-03	6.64049876e+00	4.86261013e+00
4.25000000e-03	1.41262259e+00	3.78375779e-01
4.50000000e-03	3.45386836e+00	1.91275742e+00
4.75000000e-03	4.24319670e+00	1.96084080e+00
5.00000000e-03	3.48020169e+00	1.61439831e+00
5.25000000e-03	2.80449943e+00	1.25322241e+00
5.50000000e-03	2.24786681e+00	9.58514991e-01
5.75000000e-03	2.10581807e+00	9.15686494e-01
6.00000000e-03	1.66999056e+00	7.05375226e-01
6.25000000e-03	1.35982836e+00	5.56410079e-01
6.50000000e-03	1.23603693e+00	5.24847368e-01
6.75000000e-03	1.06565114e+00	4.57409500e-01
7.00000000e-03	8.55730482e-01	3.58499308e-01
7.25000000e-03	7.48373308e-01	3.19803933e-01
7.50000000e-03	6.90691154e-01	3.06571506e-01
7.75000000e-03	5.91341821e-01	2.59557582e-01
8.00000000e-03	5.09130666e-01	2.15794117e-01
8.25000000e-03	4.77678125e-01	2.07192976e-01
8.50000000e-03	4.19145324e-01	1.78310107e-01
8.75000000e-03	3.49321221e-01	1.39503947e-01
9.00000000e-03	3.26604257e-01	1.34027330e-01
9.25000000e-03	3.05306196e-01	1.24268739e-01
9.50000000e-03	2.56285878e-01	9.45531204e-02
9.75000000e-03	2.34060873e-01	8.77836275e-02
1.00000000e-02	2.20705065e-01	8.36553801e-02
1.02500000e-02	2.02765115e-01	7.39552978e-02
1.05000000e-02	1.71561626e-01	5.67414950e-02
1.07500000e-02	1.76320711e-01	6.64901218e-02
1.10000000e-02	1.56717434e-01	5.62833201e-02
1.12500000e-02	1.13372123e-01	4.01956236e-02
1.15000000e-02	1.31688305e-01	4.72076799e-02
1.17500000e-02	1.21831723e-01	4.53194820e-02
1.20000000e-02	1.22688667e-01	4.46085620e-02
1.22500000e-02	1.10169273e-01	3.81060707e-02
1.25000000e-02	1.06714198e-01	3.72577884e-02
1.27500000e-02	9.96794488e-02	3.45237367e-02
1.30000000e-02	9.04289644e-02	2.92852398e-02
1.32500000e-02	8.60498040e-02	2.65601654e-02
1.35000000e-02	7.97970718e-02	2.29825979e-02
1.37500000e-02	7.71542920e-02	2.31182543e-02
1.40000000e-02	7.30596468e-02	2.04860981e-02
1.42500000e-02	6.76270689e-02	1.81159443e-02
1.45000000e-02	6.69743112e-02	1.82854634e-02
1.47500000e-02	6.47302738e-02	1.74264713e-02
1.50000000e-02	5.99016964e-02	1.64731223e-02
1.52500000e-02	5.35706788e-02	1.36175093e-02
1.55000000e-02	5.48171655e-02	1.41050429e-02
1.57500000e-02	5.06652683e-02	1.33734145e-02
1.60000000e-02	5.01474257e-02	1.27105768e-02
1.62500000e-02	4.81942876e-02	1.17783237e-02
1.65000000e-02	4.56728730e-02	1.05017808e-02
1.67500000e-02	4.46391841e-02	1.06252698e-02
1.70000000e-02	4.38636022e-02	1.00961774e-02
1.72500000e-02	4.27406362e-02	9.17148377e-03
1.75000000e-02	4.22001502e-02	8.84051372e-03
1.77500000e-02	3.92278246e-02	7.64054542e-03
1.80000000e-02	3.80215994e-02	6.44192304e-03
1.82500000e-02	3.70293507e-02	6.09999023e-03
1.85000000e-02	3.65403163e-02	6.44403117e-03
1.87500000e-02	3.53041649e-02	5.49650625e-03
1.90000000e-02	3.47881767e-02	5.18797867e-03
1.92500000e-02	3.46494927e-02	5.20400117e-03
1.95000000e-02	3.28037032e-02	5.21120857e-03
1.97500000e-02	3.24971204e-02	4.50920828e-03
2.00000000e-02	2.85534437e-02	2.84258078e-03
2.02500000e-02	3.18944151e-02	4.85445279e-03
2.05000000e-02	3.10958253e-02	4.26858751e-03
2.07500000e-02	3.01253817e-02	3.87692685e-03
2.10000000e-02	3.04372108e-02	3.52225934e-03
2.12500000e-02	3.02695074e-02	3.81326835e-03
2.15000000e-02	2.93887210e-02	3.46434514e-03
2.17500000e-02	2.97320131e-02	3.49602727e-03
2.20000000e-02	2.88101704e-02	3.15230424e-03
2.22500000e-02	2.92178370e-02	3.15078322e-03
2.25000000e-02	2.99047733e-02	3.22156386e-03
2.27500000e-02	2.83273697e-02	2.86571779e-03
2.30000000e-02	2.93001467e-02	2.92472504e-03
2.32500000e-02	2.81210957e-02	2.78325087e-03
2.35000000e-02	2.78306389e-02	2.67186895e-03
2.37500000e-02	2.77138864e-02	2.63828392e-03
2.40000000e-02	2.73952757e-02	2.76751352e-03
2.42500000e-02	2.77090089e-02	2.62452296e-03
2.45000000e-02	2.71775211e-02	2.65735864e-03
2.47500000e-02	2.70930485e-02	2.62529282e-03
2.50000000e-02	2.55726698e-02	2.27909086e-03
2.52500000e-02	2.66802303e-02	2.43650963e-03
2.55000000e-02	2.63664326e-02	2.14590835e-03
2.57500000e-02	2.61159099e-02	2.05939595e-03
2.60000000e-02	2.53525279e-02	2.00463734e-03
2.62500000e-02	2.48508399e-02	1.99277209e-03
2.65000000e-02	2.48717427e-02	1.76832902e-03
2.67500000e-02	2.49355078e-02	1.74589902e-03
2.70000000e-02	2.46903667e-02	1.70848690e-03
2.72500000e-02	2.54865220e-02	1.84880203e-03
2.75000000e-02	2.48673215e-02	1.67410226e-03
2.77500000e-02	2.52928049e-02	1.71625634e-03
2.80000000e-02	2.48393212e-02	1.85097351e-03
2.82500000e-02	2.51751309e-02	1.66034229e-03
2.85000000e-02	2.51263987e-02	1.77116760e-03
2.87500000e-02	2.50374035e-02	1.66966841e-03
2.90000000e-02	2.48811756e-02	1.58475767e-03
2.92500000e-02	2.48194850e-02	1.53531437e-03
2.95000000e-02	2.63291343e-02	1.66062473e-03
2.97500000e-02	2.64834899e-02	1.64984277e-03
3.00000000e-02	2.45947966e-02	1.46797547e-03
3.02500000e-02	2.56221291e-02	1.47368301e-03
3.05000000e-02	2.37560990e-02	1.38929931e-03
3.07500000e-02	2.54006242e-02	1.43759088e-03
3.10000000e-02	2.47330972e-02	1.36507701e-03
3.12500000e-02	2.38459939e-02	1.37063096e-03
3.15000000e-02	2.52885855e-02	1.42811273e-03
3.17500000e-02	2.38939805e-02	1.30548255e-03
3.20000000e-02	2.53795731e-02	1.39985902e-03
3.22500000e-02	2.45331234e-02	1.38370715e-03
3.25000000e-02	2.36176349e-02	1.33291676e-03
3.27500000e-02	2.37352485e-02	1.22563572e-03
3.30000000e-02	2.38065412e-02	1.28955827e-03
3.32500000e-02	2.34196170e-02	1.21049844e-03
3.35000000e-02	2.33168891e-02	1.19058236e-03
3.37500000e-02	2.35335857e-02	1.23173245e-03
3.40000000e-02	2.33199044e-02	1.18878586e-03
3.42500000e-02	2.36200086e-02	1.20952550e-03
3.45000000e-02	2.17227589e-02	1.13833999e-03
3.47500000e-02	2.32147331e-02	1.13234182e-03
3.50000000e-02	2.28730684e-02	1.18722811e-03
3.52500000e-02	2.29856077e-02	1.15264799e-03
3.55000000e-02	2.26019135e-02	1.09459525e-03
3.57500000e-02	2.20479805e-02	1.02320196e-03
3.60000000e-02	2.19562054e-02	1.08154034e-03
3.62500000e-02	2.21576343e-02	1.08840627e-03
3.65000000e-02	2.24837830e-02	1.08734994e-03
3.67500000e-02	2.26564396e-02	1.11816059e-03
3.70000000e-02	2.16816440e-02	1.02672000e-03
3.72500000e-02	2.32942140e-02	1.10404634e-03
3.75000000e-02	2.21806915e-02	1.10395828e-03
3.77500000e-02	2.17277103e-02	1.02753250e-03
3.80000000e-02	2.19123677e-02	1.02722015e-03
3.82500000e-02	2.24993679e-02	1.02972677e-03
3.85000000e-02	2.18637080e-02	1.01283505e-03
3.87500000e-02	2.17423465e-02	9.86461677e-04
3.90000000e-02	2.21492592e-02	1.01143292e-03
3.92500000e-02	2.13607192e-02	9.91970206e-04
3.95000000e-02	2.17137964e-02	9.75603720e-04
3.97500000e-02	2.15455159e-02	9.66841258e-04
4.00000000e-02	2.21308410e-02	1.01735138e-03
4.02500000e-02	2.25113925e-02	1.01018018e-03
4.05000000e-02	2.26418709e-02	1.00991824e-03
4.07500000e-02	2.14357480e-02	9.46539060e-04
4.10000000e-02	2.26064119e-02	1.00432103e-03
4.12500000e-02	2.20666979e-02	1.00532927e-03
4.15000000e-02	2.23755252e-02	9.83747338e-04
4.17500000e-02	2.12786043e-02	9.43009470e-04
4.20000000e-02	2.08443520e-02	9.23641227e-04
4.22500000e-02	2.15220293e-02	9.30770789e-04
4.25000000e-02	2.18500481e-02	9.51127849e-04
4.27500000e-02	2.16751877e-02	9.27559166e-04
4.30000000e-02	2.14734543e-02	9.25109734e-04
4.32500000e-02	2.21291386e-02	9.40724640e-04
4.35000000e-02	2.21456467e-02	9.59692761e-04
4.37500000e-02	2.15270888e-02	9.30410366e-04
4.40000000e-02	2.16895336e-02	9.29472453e-04
4.42500000e-02	2.19163659e-02	9.27300331e-04
4.45000000e-02	2.17107798e-02	9.25951818e-04
4.47500000e-02	2.10516791e-02	8.96587074e-04
4.50000000e-02	2.19783576e-02	9.25323003e-04
4.52500000e-02	2.13222365e-02	9.01600297e-04
4.55000000e-02	2.12383900e-02	8.90359229e-04
4.57500000e-02	2.03206871e-02	8.49313898e-04
4.60000000e-02	2.14253693e-02	9.05279379e-04
4.62500000e-02	2.12762153e-02	8.89754982e-04
4.65000000e-02	2.16007491e-02	8.93072056e-04
4.67500000e-02	2.10705397e-02	8.63658111e-04
4.70000000e-02	2.22020555e-02	9.16030747e-04
4.72500000e-02	2.08414798e-02	8.67057450e-04
4.75000000e-02	2.14987215e-02	8.89150812e-04
4.77500000e-02	2.10835213e-02	8.67259913e-04
4.80000000e-02	2.09364305e-02	8.57625706e-04
4.82500000e-02	2.16000194e-02	8.82518589e-04
4.85000000e-02	2.10455963e-02	8.78685993e-04
4.87500000e-02	2.08403879e-02	8.54286365e-04
4.90000000e-02	2.05778060e-02	8.26885013e-04
4.92500000e-02	2.11783942e-02	8.51154905e-04
4.95000000e-02	2.11268321e-02	8.54214563e-04
4.97500000e-02	2.15022850e-02	8.72805661e-04
5.00000000e-02	1.98457630e-02	8.13004641e-04
5.02500000e-02	2.15121795e-02	8.59286011e-04
5.05000000e-02	2.05058185e-02	8.21815743e-04
5.07500000e-02	2.17390922e-02	8.73267202e-04
5.10000000e-02	2.08812756e-02	8.36571189e-04
5.12500000e-02	2.05590520e-02	8.26422586e-04
5.15000000e-02	2.13972868e-02	8.46186310e-04
5.17500000e-02	2.12885807e-02	8.40695874e-04
5.20000000e-02	2.08730461e-02	8.35636713e-04
5.22500000e-02	2.11126262e-02	8.35832524e-04
5.25000000e-02	2.06342889e-02	8.19139115e-04
5.27500000e-02	1.98212924e-02	7.81106031e-04
5.30000000e-02	2.10367674e-02	8.27705442e-04
5.32500000e-02	2.09816582e-02	8.28691504e-04
5.35000000e-02	2.13388178e-02	8.38122117e-04
5.37500000e-02	2.06263482e-02	8.02837306e-04
5.40000000e-02	2.11138995e-02	8.19990107e-04
5.42500000e-02	2.04945315e-02	7.96955721e-04
5.45000000e-02	2.10481262e-02	8.17020220e-04
5.47500000e-02	2.02682420e-02	7.86499402e-04
5.50000000e-02	2.07320344e-02	8.03179733e-04
5.52500000e-02	2.03945182e-02	7.83778037e-04
5.55000000e-02	2.06865894e-02	7.93152318e-04
5.57500000e-02	2.06688280e-02	7.96459009e-04
5.60000000e-02	2.10469174e-02	8.09046966e-04
5.62500000e-02	2.08755378e-02	8.14175897e-04
5.65000000e-02	2.04678249e-02	7.84035570e-04
5.67500000e-02	2.10728605e-02	8.03239285e-04
5.70000000e-02	2.06769963e-02	7.87958198e-04
5.72500000e-02	2.07258318e-02	7.94046231e-04
5.75000000e-02	2.07566176e-02	7.91004194e-04
5.77500000e-02	1.96608533e-02	7.43280081e-04
5.80000000e-02	2.05170674e-02	7.82416974e-04
5.82500000e-02	2.08426871e-02	7.83901054e-04
5.85000000e-02	2.05551010e-02	7.81630890e-04
5.87500000e-02	2.10200402e-02	7.93899769e-04
5.90000000e-02	2.05001743e-02	7.71637839e-04
5.92500000e-02	2.07934404e-02	7.80655692e-04
5.95000000e-02	2.06198277e-02	7.73347270e-04
5.97500000e-02	1.99780285e-02	7.55092404e-04
6.00000000e-02	2.01675543e-02	7.58532712e-04
6.02500000e-02	2.04153639e-02	7.65774762e-04
6.05000000e-02	2.02070714e-02	7.57354789e-04
6.07500000e-02	2.06063240e-02	7.66286117e-04
6.10000000e-02	2.08542239e-02	7.71070614e-04
6.12500000e-02	2.03179882e-02	7.51711837e-04
6.15000000e-02	2.04282099e-02	7.64875770e-04
6.17500000e-02	1.98435828e-02	7.34838073e-04
6.20000000e-02	2.05924182e-02	7.63528742e-04
6.22500000e-02	2.07283477e-02	7.67443845e-04
6.25000000e-02	2.04041216e-02	7.52765990e-04
6.27500000e-02	2.02068376e-02	7.38834204e-04
6.30000000e-02	2.04937079e-02	7.47564317e-04
6.32500000e-02	2.01852683e-02	7.37011462e-04
6.35000000e-02	2.07469156e-02	7.59160502e-04
6.37500000e-02	2.08779965e-02	7.57857479e-04
6.40000000e-02	2.01209565e-02	7.34870100e-04
6.42500000e-02	1.99956915e-02	7.31051258e-04
6.45000000e-02	2.01591501e-02	7.32682221e-04
6.47500000e-02	1.97541609e-02	7.18616360e-04
6.50000000e-02	2.01432046e-02	7.39586107e-04
6.52500000e-02	1.98449778e-02	7.13961399e-04
6.55000000e-02	2.03378473e-02	7.33748104e-04
6.57500000e-02	2.05363997e-02	7.40444648e-04
6.60000000e-02	1.96289572e-02	7.07395657e-04
6.62500000e-02	1.98559036e-02	7.13569954e-04
6.65000000e-02	2.07470890e-02	7.42847095e-04
6.67500000e-02	2.01655762e-02	7.19978479e-04
6.70000000e-02	2.01912280e-02	7.27064126e-04
6.72500000e-02	2.02067541e-02	7.22811372e-04
6.75000000e-02	2.02523371e-02	7.16906762e-04
6.77500000e-02	2.03382855e-02	7.15951455e-04
6.80000000e-02	1.99151476e-02	7.07308694e-04
6.82500000e-02	2.00493692e-02	7.09251712e-04
6.85000000e-02	1.96952195e-02	7.06773580e-04
6.87500000e-02	1.98747173e-02	6.99740000e-04
6.90000000e-02	1.98916498e-02	7.00042799e-04
6.92500000e-02	2.05861706e-02	7.17466100e-04
6.95000000e-02	2.05040285e-02	7.18117942e-04
6.97500000e-02	2.00665603e-02	7.06096721e-04
7.00000000e-02	1.98752451e-02	6.96237269e-04
7.02500000e-02	2.02508477e-02	7.08502831e-04
7.05000000e-02	1.97951540e-02	6.94597779e-04
7.07500000e-02	2.08335066e-02	7.30567994e-04
7.10000000e-02	1.97817157e-02	6.88076396e-04
7.12500000e-02	2.00990505e-02	7.00045774e-04
7.15000000e-02	1.95094046e-02	6.73931660e-04
7.17500000e-02	2.02794712e-02	7.06662568e-04
7.20000000e-02	2.03188422e-02	7.11003000e-04
7.22500000e-02	2.00469752e-02	6.98741855e-04
7.25000000e-02	1.96294910e-02	6.79385547e-04
7.27500000e-02	2.01439043e-02	6.99606182e-04
7.30000000e-02	1.99711783e-02	6.88246623e-04
7.32500000e-02	1.96664986e-02	6.74666770e-04
7.35000000e-02	1.99627327e-02	6.93250512e-04
7.37500000e-02	1.99658225e-02	6.81310575e-04
7.40000000e-02	1.96381504e-02	6.73237763e-04
7.42500000e-02	2.01070186e-02	6.90624302e-04
7.45000000e-02	1.97077255e-02	6.71457796e-04
7.47500000e-02	1.96454680e-02	6.72848592e-04
7.50000000e-02	2.01598068e-02	6.86962753e-04
7.52500000e-02	1.95292531e-02	6.67750215e-04
7.55000000e-02	2.01555713e-02	6.78887498e-04
7.57500000e-02	2.00440998e-02	6.80285544e-04
7.60000000e-02	2.01509087e-02	6.86976629e-04
7.62500000e-02	2.02806838e-02	6.84688128e-04
7.65000000e-02	2.00634773e-02	6.84259022e-04
7.67500000e-02	1.99816068e-02	6.74587756e-04
7.70000000e-02	2.01154959e-02	6.73891060e-04
7.72500000e-02	1.98705688e-02	6.83550875e-04
7.75000000e-02	2.04337404e-02	7.03170792e-04
7.77500000e-02	1.99193735e-02	6.91266807e-04
7.80000000e-02	2.00208260e-02	6.92331074e-04
7.82500000e-02	2.03369370e-02	7.16033052e-04
7.85000000e-02	1.99448107e-02	7.09820134e-04
7.87500000e-02	1.98172283e-02	7.03106805e-04
7.90000000e-02	1.97399360e-02	7.00105613e-04
7.92500000e-02	2.01364067e-02	7.15512748e-04
7.95000000e-02	2.07723680e-02	7.41250689e-04
7.97500000e-02	2.01249365e-02	7.22105985e-04
8.00000000e-02	1.98211764e-02	7.08489604e-04
8.02500000e-02	1.96459248e-02	7.10254134e-04
8.05000000e-02	2.06172366e-02	7.42898200e-04
8.07500000e-02	2.02030704e-02	7.31131425e-04
8.10000000e-02	2.02557779e-02	7.28804637e-04
8.12500000e-02	2.02454624e-02	7.29753015e-04
8.15000000e-02	2.02346338e-02	7.32247045e-04
8.17500000e-02	2.03690488e-02	7.38009006e-04
8.20000000e-02	1.95040046e-02	7.15373080e-04
8.22500000e-02	1.99352758e-02	7.27690911e-04
8.25000000e-02	1.93698241e-02	7.09914001e-04
8.27500000e-02	1.96796815e-02	7.14915953e-04
8.30000000e-02	2.01167490e-02	7.35421970e-04
8.32500000e-02	1.95621006e-02	7.21479962e-04
8.35000000e-02	2.01815171e-02	7.45215251e-04
8.37500000e-02	2.02998409e-02	7.36058438e-04
8.40000000e-02	1.96708903e-02	7.27599362e-04
8.42500000e-02	2.02365773e-02	7.38766280e-04
8.45000000e-02	2.00107567e-02	7.41358295e-04
8.47500000e-02	2.01705597e-02	7.42004224e-04
8.50000000e-02	1.95431633e-02	7.22320763e-04
8.52500000e-02	2.00924905e-02	7.49689998e-04
8.55000000e-02	2.02862123e-02	7.53146639e-04
8.57500000e-02	1.95087367e-02	7.22914971e-04
8.60000000e-02	2.01370472e-02	7.54607136e-04
8.62500000e-02	1.94028244e-02	7.24139149e-04
8.65000000e-02	1.97670123e-02	7.33699361e-04
8.67500000e-02	2.02476803e-02	7.51064627e-04
8.70000000e-02	1.97700837e-02	7.16349235e-04
8.72500000e-02	2.00436036e-02	7.18930292e-04
8.75000000e-02	1.99050635e-02	7.04923482e-04
8.77500000e-02	2.01685902e-02	7.11740071e-04
8.80000000e-02	2.01735402e-02	7.13384642e-04
8.82500000e-02	1.90462474e-02	6.68707016e-04
8.85000000e-02	2.05102317e-02	7.16151122e-04
8.87500000e-02	1.97794584e-02	6.74583797e-04
8.90000000e-02	2.01210933e-02	6.99524182e-04
8.92500000e-02	2.03282146e-02	6.98518331e-04
8.95000000e-02	2.02609889e-02	6.97687880e-04
8.97500000e-02	2.04197779e-02	6.94510161e-04
9.00000000e-02	1.98271815e-02	6.74004230e-04
9.02500000e-02	1.93074548e-02	6.57453527e-04
9.05000000e-02	1.96533475e-02	6.66996580e-04
9.07500000e-02	1.97419474e-02	6.71331039e-04
9.10000000e-02	1.98020829e-02	6.61154721e-04
9.12500000e-02	1.93861129e-02	6.57900864e-04
9.15000000e-02	1.95360000e-02	6.53577705e-04
9.17500000e-02	1.95375966e-02	6.61126258e-04
9.20000000e-02	1.98930211e-02	6.66161971e-04
9.22500000e-02	2.01007845e-02	6.70085698e-04
9.25000000e-02	1.94891426e-02	6.50562497e-04
9.27500000e-02	1.97990891e-02	6.55005453e-04
9.30000000e-02	1.98274271e-02	6.57967035e-04
9.32500000e-02	1.97684120e-02	6.60476940e-04
9.35000000e-02	1.99065738e-02	6.55762037e-04
9.37500000e-02	2.00211069e-02	6.52492809e-04
9.40000000e-02	2.00197469e-02	6.62758974e-04
9.42500000e-02	1.99144847e-02	6.54967261e-04
9.45000000e-02	1.95837542e-02	6.42898157e-04
9.47500000e-02	1.96560446e-02	6.45223317e-04
9.50000000e-02	2.00369571e-02	6.51232453e-04
9.52500000e-02	1.95805128e-02	6.38837269e-04
9.55000000e-02	2.04327073e-02	6.59253168e-04
9.57500000e-02	1.96805098e-02	6.36928079e-04
9.60000000e-02	1.93558117e-02	6.31495337e-04
9.62500000e-02	1.95136569e-02	6.30549829e-04
9.65000000e-02	2.00234745e-02	6.44691776e-04
9.67500000e-02	1.95746764e-02	6.35320771e-04
9.70000000e-02	1.95074708e-02	6.27837636e-04
9.72500000e-02	1.99632100e-02	6.40972415e-04
9.75000000e-02	1.96298772e-02	6.29471203e-04
9.77500000e-02	1.97347767e-02	6.29903650e-04
9.80000000e-02	1.94096152e-02	6.20501510e-04
9.82500000e-02	1.99485991e-02	6.37123918e-04
9.85000000e-02	1.93636706e-02	6.19129378e-04
9.87500000e-02	1.99598396e-02	6.35655561e-04
9.90000000e-02	1.94936113e-02	6.16506221e-04
9.92500000e-02	2.01633103e-02	6.36918496e-04
9.95000000e-02	1.99658931e-02	6.33915198e-04
9.97500000e-02	1.98094281e-02	6.25139013e-04
1.00000000e-01	1.95545088e-02	5.06434495e-04
1.00500000e-01	1.96853009e-02	4.42145778e-04
1.01000000e-01	1.98227072e-02	4.40014106e-04
1.01500000e-01	1.99034636e-02	4.42630116e-04
1.02000000e-01	1.96094560e-02	4.32882222e-04
1.02500000e-01	1.95994579e-02	4.31794911e-04
1.03000000e-01	1.97186095e-02	4.34829817e-04
1.03500000e-01	1.93678727e-02	4.23558027e-04
1.04000000e-01	1.94397589e-02	4.25784672e-04
1.04500000e-01	1.95114386e-02	4.25189303e-04
1.05000000e-01	1.95404969e-02	4.27260725e-04
1.05500000e-01	1.95090112e-02	4.23646926e-04
1.06000000e-01	1.95787741e-02	4.20753670e-04
1.06500000e-01	1.99233179e-02	4.28833417e-04
1.07000000e-01	1.95889637e-02	4.27873760e-04
1.07500000e-01	1.98070104e-02	4.38040517e-04
1.08000000e-01	1.92743382e-02	4.34208547e-04
1.08500000e-01	1.93684225e-02	4.36950505e-04
1.09000000e-01	1.96530720e-02	4.47876553e-04
1.09500000e-01	1.95277607e-02	4.45771784e-04
1.10000000e-01	1.97460824e-02	4.47336193e-04
1.10500000e-01	1.96715998e-02	4.35042959e-04
1.11000000e-01	1.97514920e-02	4.28158238e-04
1.11500000e-01	1.95542248e-02	4.22418449e-04
1.12000000e-01	2.00196426e-02	4.27068238e-04
1.12500000e-01	1.96175135e-02	4.17204503e-04
1.13000000e-01	1.96568711e-02	4.16863436e-04
1.13500000e-01	1.96160845e-02	4.15957209e-04
1.14000000e-01	1.96808498e-02	4.14005637e-04
1.14500000e-01	1.91799915e-02	4.03457639e-04
1.15000000e-01	1.96379551e-02	4.10791638e-04
1.15500000e-01	2.00180571e-02	4.16286948e-04
1.16000000e-01	1.98104059e-02	4.11978368e-04
1.16500000e-01	1.97999528e-02	4.12575404e-04
1.17000000e-01	1.96961071e-02	4.07178814e-04
1.17500000e-01	2.00328475e-02	4.14045927e-04
1.18000000e-01	1.95280273e-02	4.04683451e-04
1.18500000e-01	1.96478044e-02	4.03774240e-04
1.19000000e-01	1.95630656e-02	4.02781792e-04
1.19500000e-01	1.94384483e-02	3.96300120e-04
1.20000000e-01	1.97605650e-02	4.02217650e-04
1.20500000e-01	1.97201783e-02	4.04527993e-04
1.21000000e-01	1.94501311e-02	3.94761024e-04
1.21500000e-01	1.97496729e-02	3.99532868e-04
1.22000000e-01	1.97028623e-02	3.98365260e-04
1.22500000e-01	1.97652227e-02	4.00011136e-04
1.23000000e-01	1.93130465e-02	3.91611573e-04
1.23500000e-01	1.94554354e-02	3.90848766e-04
1.24000000e-01	1.95725169e-02	3.94387025e-04
1.24500000e-01	1.99056109e-02	3.97528687e-04
1.25000000e-01	1.95061103e-02	3.92066231e-04
1.25500000e-01	1.95021824e-02	3.87243760e-04
1.26000000e-01	1.96935055e-02	3.91388464e-04
1.26500000e-01	2.00016762e-02	3.94218627e-04
1.27000000e-01	1.97179593e-02	3.90353881e-04
1.27500000e-01	1.96599435e-02	3.90897180e-04
1.28000000e-01	1.96768597e-02	3.89264937e-04
1.28500000e-01	1.95170630e-02	3.82578178e-04
1.29000000e-01	1.95626667e-02	3.86681742e-04
1.29500000e-01	1.96812778e-02	3.86909020e-04
1.30000000e-01	1.97569678e-02	3.87463816e-04
1.30500000e-01	1.96557726e-02	3.83238290e-04
1.31000000e-01	1.97772134e-02	3.84218088e-04
1.31500000e-01	1.95591165e-02	3.81656324e-04
1.32000000e-01	1.97227494e-02	3.82134312e-04
1.32500000e-01	1.97846937e-02	3.82614789e-04
1.33000000e-01	1.93773110e-02	3.75235624e-04
1.33500000e-01	1.98468203e-02	3.79615058e-04
1.34000000e-01	1.97728506e-02	3.81592409e-04
1.34500000e-01	1.94568670e-02	3.72537554e-04
1.35000000e-01	1.95834654e-02	3.73864288e-04
1.35500000e-01	1.93426650e-02	3.67626176e-04
1.36000000e-01	1.95795615e-02	3.71484394e-04
1.36500000e-01	1.96499145e-02	3.73309381e-04
1.37000000e-01	1.95207528e-02	3.69502729e-04
1.37500000e-01	1.96185836e-02	3.71322036e-04
1.38000000e-01	1.93952457e-02	3.66383827e-04
1.38500000e-01	1.95411642e-02	3.70489012e-04
1.39000000e-01	1.93884915e-02	3.66510033e-04
1.39500000e-01	1.98253665e-02	3.72589004e-04
1.40000000e-01	1.93129359e-02	3.65858681e-04
1.40500000e-01	1.94071724e-02	3.65889406e-04
1.41000000e-01	1.95201328e-02	3.67622818e-04
1.41500000e-01	1.97295104e-02	3.69093213e-04
1.42000000e-01	1.93089774e-02	3.60994208e-04
1.42500000e-01	1.95942963e-02	3.67419652e-04
1.43000000e-01	1.91188410e-02	3.59852887e-04
1.43500000e-01	1.98097970e-02	3.68262032e-04
1.44000000e-01	1.93916417e-02	3.61327930e-04
1.44500000e-01	1.92376404e-02	3.55672278e-04
1.45000000e-01	1.93256839e-02	3.57988405e-04
1.45500000e-01	1.96017579e-02	3.64836951e-04
1.46000000e-01	1.96096055e-02	3.62569776e-04
1.46500000e-01	1.95250467e-02	3.59104803e-04
1.47000000e-01	1.95228266e-02	3.59705077e-04
1.47500000e-01	1.91791541e-02	3.52390364e-04
1.48000000e-01	1.91703763e-02	3.53354940e-04
1.48500000e-01	1.93047370e-02	3.54804174e-04
1.49000000e-01	1.90775346e-02	3.49029696e-04
1.49500000e-01	1.93511877e-02	3.53677538e-04
1.50000000e-01	1.94544664e-02	3.53778054e-04
1.50500000e-01	1.92670176e-02	3.50993370e-04
1.51000000e-01	1.94391078e-02	3.52308368e-04
1.51500000e-01	1.94868059e-02	3.54531649e-04
1.52000000e-01	1.90797343e-02	3.44250179e-04
1.52500000e-01	1.94975034e-02	3.52703853e-04
1.53000000e-01	1.91342578e-02	3.45437960e-04
1.53500000e-01	1.93469686e-02	3.49354190e-04
1.54000000e-01	1.94027909e-02	3.47204874e-04
1.54500000e-01	1.93393201e-02	3.53941711e-04
1.55000000e-01	1.90114257e-02	3.53800352e-04
1.55500000e-01	1.91121783e-02	3.56573403e-04
1.56000000e-01	1.92883443e-02	3.60767231e-04
1.56500000e-01	1.91694722e-02	3.59197413e-04
1.57000000e-01	1.91295186e-02	3.60717745e-04
1.57500000e-01	1.89867375e-02	3.51143074e-04
1.58000000e-01	1.91604955e-02	3.48137873e-04
1.58500000e-01	1.94077973e-02	3.50678837e-04
1.59000000e-01	1.90816064e-02	3.42686209e-04
1.59500000e-01	1.91080809e-02	3.42634499e-04
1.60000000e-01	1.91130584e-02	3.42971138e-04
1.60500000e-01	1.90760806e-02	3.39814033e-04
1.61000000e-01	1.90663284e-02	3.40013899e-04
1.61500000e-01	1.91503478e-02	3.39528831e-04
1.62000000e-01	1.88590931e-02	3.35339567e-04
1.62500000e-01	1.91523425e-02	3.39566640e-04
1.63000000e-01	1.90769768e-02	3.37144468e-04
1.63500000e-01	1.91078418e-02	3.39060142e-04
1.64000000e-01	1.89222256e-02	3.33133293e-04
1.64500000e-01	1.91761342e-02	3.37408432e-04
1.65000000e-01	1.86148322e-02	3.27562307e-04
1.65500000e-01	1.89193453e-02	3.30680754e-04
1.66000000e-01	1.88761392e-02	3.30309515e-04
1.66500000e-01	1.89830456e-02	3.30854531e-04
1.67000000e-01	1.91765481e-02	3.35208397e-04
1.67500000e-01	1.85273919e-02	3.22151399e-04
1.68000000e-01	1.89293204e-02	3.28417035e-04
1.68500000e-01	1.87376951e-02	3.24666235e-04
1.69000000e-01	1.88382899e-02	3.26792786e-04
1.69500000e-01	1.87770114e-02	3.25000316e-04
1.70000000e-01	1.93263718e-02	3.32257662e-04
1.70500000e-01	1.88335911e-02	3.26216721e-04
1.71000000e-01	1.88986656e-02	3.25568363e-04
1.71500000e-01	1.88454431e-02	3.23954980e-04
1.72000000e-01	1.87975824e-02	3.21999992e-04
1.72500000e-01	1.90328369e-02	3.25375628e-04
1.73000000e-01	1.90134999e-02	3.24835067e-04
1.73500000e-01	1.88438476e-02	3.21481788e-04
1.74000000e-01	1.86936635e-02	3.17637941e-04
1.74500000e-01	1.87985950e-02	3.19502933e-04
1.75000000e-01	1.85873630e-02	3.14176856e-04
1.75500000e-01	1.85674836e-02	3.13763911e-04
1.76000000e-01	1.88307821e-02	3.17413847e-04
1.76500000e-01	1.87107862e-02	3.15571271e-04
1.77000000e-01	1.88717566e-02	3.17332723e-04
1.77500000e-01	1.86303756e-02	3.13959799e-04
1.78000000e-01	1.88285060e-02	3.16492189e-04
1.78500000e-01	1.86193219e-02	3.14793076e-04
1.79000000e-01	1.85549915e-02	3.13145592e-04
1.79500000e-01	1.84728781e-02	3.10659762e-04
1.80000000e-01	1.88478191e-02	3.16737090e-04
1.80500000e-01	1.85620109e-02	3.11678234e-04
1.81000000e-01	1.86509512e-02	3.12864945e-04
1.81500000e-01	1.87126972e-02	3.11647745e-04
1.82000000e-01	1.85271828e-02	3.08914701e-04
1.82500000e-01	1.89474740e-02	3.15903759e-04
1.83000000e-01	1.85388800e-02	3.09487511e-04
1.83500000e-01	1.85756926e-02	3.08977940e-04
1.84000000e-01	1.84738227e-02	3.06354293e-04
1.84500000e-01	1.87955141e-02	3.13168938e-04
1.85000000e-01	1.86682473e-02	3.09894088e-04
1.85500000e-01	1.87012444e-02	3.09147947e-04
1.86000000e-01	1.85263610e-02	3.07049285e-04
1.86500000e-01	1.84603153e-02	3.04153100e-04
1.87000000e-01	1.83119664e-02	3.02586204e-04
1.87500000e-01	1.88340530e-02	3.08258119e-04
1.88000000e-01	1.84988637e-02	3.03583033e-04
1.88500000e-01	1.84320083e-02	3.02873775e-04
1.89000000e-01	1.85332006e-02	3.03991399e-04
1.89500000e-01	1.84731081e-02	3.02161937e-04
1.90000000e-01	1.84731573e-02	3.03021225e-04
1.90500000e-01	1.82135253e-02	2.98397019e-04
1.91000000e-01	1.86662158e-02	3.03791990e-04
1.91500000e-01	1.86086896e-02	3.03953606e-04
1.92000000e-01	1.85010024e-02	3.00772307e-04
1.92500000e-01	1.82499297e-02	2.97677073e-04
1.93000000e-01	1.85169608e-02	3.00393171e-04
1.93500000e-01	1.84283461e-02	2.98451289e-04
1.94000000e-01	1.84954152e-02	2.99877274e-04
1.94500000e-01	1.85164491e-02	2.99346015e-04
1.95000000e-01	1.85633787e-02	3.00200690e-04
1.95500000e-01	1.84201539e-02	2.96851839e-04
1.96000000e-01	1.83953032e-02	2.97034507e-04
1.96500000e-01	1.81421170e-02	2.92633845e-04
1.97000000e-01	1.84169591e-02	2.95145785e-04
1.97500000e-01	1.82167568e-02	2.92949502e-04
1.98000000e-01	1.83898049e-02	2.95229819e-04
1.98500000e-01	1.84804968e-02	2.95446249e-04
1.99000000e-01	1.84493412e-02	2.95831575e-04
1.99500000e-01	1.83542092e-02	2.92725886e-04
2.00000000e-01	1.82948742e-02	2.91185437e-04
2.00500000e-01	1.81751661e-02	2.90373621e-04
2.01000000e-01	1.84324475e-02	2.93721528e-04
2.01500000e-01	1.80817719e-02	2.88431523e-04
2.02000000e-01	1.80591706e-02	2.86869240e-04
2.02500000e-01	1.82516197e-02	2.88410354e-04
2.03000000e-01	1.84314448e-02	2.93181224e-04
2.03500000e-01	1.82713715e-02	2.88680130e-04
2.04000000e-01	1.81566359e-02	2.86882857e-04
2.04500000e-01	1.80909426e-02	2.86157467e-04
2.05000000e-01	1.81765137e-02	2.86750225e-04
2.05500000e-01	1.82953639e-02	2.89085009e-04
2.06000000e-01	1.81290977e-02	2.84744679e-04
2.06500000e-01	1.81413735e-02	2.86401590e-04
2.07000000e-01	1.80879940e-02	2.85302820e-04
2.07500000e-01	1.83332659e-02	2.87044415e-04
2.08000000e-01	1.83894200e-02	2.89455182e-04
2.08500000e-01	1.80928946e-02	2.82648868e-04
2.09000000e-01	1.80357482e-02	2.83147827e-04
2.09500000e-01	1.79238916e-02	2.80432503e-04
2.10000000e-01	1.80721041e-02	2.82441081e-04
2.10500000e-01	1.80417826e-02	2.81719942e-04
2.11000000e-01	1.81714041e-02	2.83925678e-04
2.11500000e-01	1.84284724e-02	2.87668072e-04
2.12000000e-01	1.82056513e-02	2.82436107e-04
2.12500000e-01	1.79086218e-02	2.78015751e-04
2.13000000e-01	1.78476277e-02	2.76638240e-04
2.13500000e-01	1.80951700e-02	2.80913513e-04
2.14000000e-01	1.80976437e-02	2.80528732e-04
2.14500000e-01	1.82462566e-02	2.81228750e-04
2.15000000e-01	1.80884572e-02	2.81015524e-04
2.15500000e-01	1.81071285e-02	2.77253235e-04
2.16000000e-01	1.81015279e-02	2.78394553e-04
2.16500000e-01	1.78404795e-02	2.75146698e-04
2.17000000e-01	1.80884254e-02	2.82935663e-04
2.17500000e-01	1.77826482e-02	2.82707939e-04
2.18000000e-01	1.81544935e-02	2.87766812e-04
2.18500000e-01	1.79950934e-02	2.88592310e-04
2.19000000e-01	1.80620640e-02	2.90609092e-04
2.19500000e-01	1.79713535e-02	2.89050370e-04
2.20000000e-01	1.80385471e-02	2.92168201e-04
2.20500000e-01	1.80435559e-02	2.93081523e-04
2.21000000e-01	1.80418220e-02	2.93294608e-04
2.21500000e-01	1.81609855e-02	2.96490418e-04
2.22000000e-01	1.79307525e-02	2.92252062e-04
2.22500000e-01	1.78852058e-02	2.93127533e-04
2.23000000e-01	1.77345769e-02	2.92768507e-04
2.23500000e-01	1.80831927e-02	2.97721564e-04
2.24000000e-01	1.79676635e-02	2.95225316e-04
2.24500000e-01	1.77354826e-02	2.94512180e-04
2.25000000e-01	1.78858018e-02	2.96533627e-04
2.25500000e-01	1.80713156e-02	2.97813703e-04
2.26000000e-01	1.76711365e-02	2.95037282e-04
2.26500000e-01	1.77330796e-02	2.90305640e-04
2.27000000e-01	1.77326398e-02	2.87844103e-04
2.27500000e-01	1.79615734e-02	2.89592142e-04
2.28000000e-01	1.77670424e-02	2.84707725e-04
2.28500000e-01	1.78746596e-02	2.84753524e-04
2.29000000e-01	1.78538740e-02	2.83442244e-04
2.29500000e-01	1.78079760e-02	2.81536144e-04
2.30000000e-01	1.80396740e-02	2.83496695e-04
2.30500000e-01	1.74423177e-02	2.73848886e-04
2.31000000e-01	1.77440612e-02	2.79079565e-04
2.31500000e-01	1.80105437e-02	2.80993384e-04
2.32000000e-01	1.78249826e-02	2.77881661e-04
2.32500000e-01	1.79381836e-02	2.78435563e-04
2.33000000e-01	1.78466333e-02	2.76267473e-04
2.33500000e-01	1.77947490e-02	2.74579054e-04
2.34000000e-01	1.75906703e-02	2.71364680e-04
2.34500000e-01	1.76784246e-02	2.72928459e-04
2.35000000e-01	1.77783041e-02	2.73352011e-04
2.35500000e-01	1.78593145e-02	2.73609957e-04
2.36000000e-01	1.74736604e-02	2.68912349e-04
2.36500000e-01	1.76958955e-02	2.71424229e-04
2.37000000e-01	1.77996384e-02	2.71399703e-04
2.37500000e-01	1.76529874e-02	2.69245234e-04
2.38000000e-01	1.73012097e-02	2.64779291e-04
2.38500000e-01	1.77290066e-02	2.70768320e-04
2.39000000e-01	1.75760979e-02	2.67453592e-04
2.39500000e-01	1.76950464e-02	2.68173246e-04
2.40000000e-01	1.76454676e-02	2.67029808e-04
2.40500000e-01	1.76710665e-02	2.67550879e-04
2.41000000e-01	1.76649178e-02	2.65581916e-04
2.41500000e-01	1.75400646e-02	2.63980133e-04
2.42000000e-01	1.74630826e-02	2.62904366e-04
2.42500000e-01	1.75878140e-02	2.63035694e-04
2.43000000e-01	1.76259223e-02	2.64082473e-04
2.43500000e-01	1.77233044e-02	2.65337082e-04
2.44000000e-01	1.76921767e-02	2.64321614e-04
2.44500000e-01	1.75979453e-02	2.62219720e-04
2.45000000e-01	1.75365131e-02	2.60287441e-04
2.45500000e-01	1.73635904e-02	2.58815384e-04
2.46000000e-01	1.75197037e-02	2.60531420e-04
2.46500000e-01	1.74301633e-02	2.59106904e-04
2.47000000e-01	1.75206874e-02	2.61375699e-04
2.47500000e-01	1.76423571e-02	2.60664510e-04
2.48000000e-01	1.75949078e-02	2.60153303e-04
2.48500000e-01	1.74397078e-02	2.57414075e-04
2.49000000e-01	1.73007372e-02	2.55173990e-04
2.49500000e-01	1.75180938e-02	2.58626884e-04
2.50000000e-01	1.74956854e-02	2.56557267e-04
2.50500000e-01	1.75164023e-02	2.58394030e-04
2.51000000e-01	1.73800283e-02	2.54856104e-04
2.51500000e-01	1.74734683e-02	2.58024588e-04
2.52000000e-01	1.74310350e-02	2.56151759e-04
2.52500000e-01	1.74537967e-02	2.55335352e-04
2.53000000e-01	1.73946214e-02	2.55237521e-04
2.53500000e-01	1.73158225e-02	2.52960740e-04
2.54000000e-01	1.71606543e-02	2.52088447e-04
2.54500000e-01	1.74932843e-02	2.55690890e-04
2.55000000e-01	1.73270454e-02	2.52452233e-04
2.55500000e-01	1.73655662e-02	2.52729363e-04
2.56000000e-01	1.73779772e-02	2.52694616e-04
2.56500000e-01	1.74189596e-02	2.52845804e-04
2.57000000e-01	1.74895672e-02	2.54524421e-04
2.57500000e-01	1.74950148e-02	2.53592042e-04
2.58000000e-01	1.74251307e-02	2.52609074e-04
2.58500000e-01	1.72792034e-02	2.50976529e-04
2.59000000e-01	1.72688174e-02	2.50143938e-04
2.59500000e-01	1.73522074e-02	2.50096532e-04
2.60000000e-01	1.72205757e-02	2.47615926e-04
2.60500000e-01	1.72592909e-02	2.48101010e-04
2.61000000e-01	1.73579486e-02	2.49583658e-04
2.61500000e-01	1.71772139e-02	2.47543126e-04
2.62000000e-01	1.73599289e-02	2.48623083e-04
2.62500000e-01	1.73906367e-02	2.49737399e-04
2.63000000e-01	1.72336582e-02	2.47654475e-04
2.63500000e-01	1.73141815e-02	2.46265747e-04
2.64000000e-01	1.71506064e-02	2.46163419e-04
2.64500000e-01	1.70615349e-02	2.43686593e-04
2.65000000e-01	1.72223347e-02	2.46149609e-04
2.65500000e-01	1.74336533e-02	2.48130471e-04
2.66000000e-01	1.73379112e-02	2.48033595e-04
2.66500000e-01	1.72488916e-02	2.45500074e-04
2.67000000e-01	1.72552977e-02	2.46042032e-04
2.67500000e-01	1.70626038e-02	2.42245256e-04
2.68000000e-01	1.73634588e-02	2.46112916e-04
2.68500000e-01	1.71974934e-02	2.42964816e-04
2.69000000e-01	1.70898053e-02	2.42896613e-04
2.69500000e-01	1.71183083e-02	2.41257202e-04
2.70000000e-01	1.71738718e-02	2.42854140e-04
2.70500000e-01	1.73843254e-02	2.44313320e-04
2.71000000e-01	1.70360186e-02	2.40857454e-04
2.71500000e-01	1.72639217e-02	2.42607976e-04
2.72000000e-01	1.72469188e-02	2.41775655e-04
2.72500000e-01	1.70569589e-02	2.40529597e-04
2.73000000e-01	1.70412320e-02	2.39136313e-04
2.73500000e-01	1.72487334e-02	2.41066447e-04
2.74000000e-01	1.71473898e-02	2.40374195e-04
2.74500000e-01	1.70924970e-02	2.38029157e-04
2.75000000e-01	1.71040284e-02	2.38671431e-04
2.75500000e-01	1.70124023e-02	2.38163582e-04
2.76000000e-01	1.68882727e-02	2.36070577e-04
2.76500000e-01	1.71250231e-02	2.39258073e-04
2.77000000e-01	1.70984977e-02	2.38590334e-04
2.77500000e-01	1.72236211e-02	2.39574166e-04
2.78000000e-01	1.70527524e-02	2.37303228e-04
2.78500000e-01	1.71709130e-02	2.39027106e-04
2.79000000e-01	1.68990463e-02	2.35496618e-04
2.79500000e-01	1.70270314e-02	2.37159823e-04
2.80000000e-01	1.70060715e-02	2.35813444e-04
2.80500000e-01	1.70675852e-02	2.36175936e-04
2.81000000e-01	1.70539381e-02	2.35712148e-04
2.81500000e-01	1.68953450e-02	2.33927904e-04
2.82000000e-01	1.70110000e-02	2.34236331e-04
2.82500000e-01	1.69965256e-02	2.35250931e-04
2.83000000e-01	1.70398960e-02	2.35293278e-04
2.83500000e-01	1.69488793e-02	2.33500840e-04
2.84000000e-01	1.69726089e-02	2.35023641e-04
2.84500000e-01	1.68436372e-02	2.31620978e-04
2.85000000e-01	1.67929164e-02	2.31080923e-04
2.85500000e-01	1.67327766e-02	2.29267668e-04
2.86000000e-01	1.68787859e-02	2.31709485e-04
2.86500000e-01	1.69203734e-02	2.31050882e-04
2.87000000e-01	1.69167173e-02	2.32416159e-04
2.87500000e-01	1.68920771e-02	2.30949980e-04
2.88000000e-01	1.70307887e-02	2.31917797e-04
2.88500000e-01	1.71163905e-02	2.33214528e-04
2.89000000e-01	1.70295280e-02	2.32622050e-04
2.89500000e-01	1.69319945e-02	2.30846089e-04
2.90000000e-01	1.68893646e-02	2.29360491e-04
2.90500000e-01	1.68519711e-02	2.29309354e-04
2.91000000e-01	1.69634791e-02	2.29609842e-04
2.91500000e-01	1.69813583e-02	2.29868442e-04
2.92000000e-01	1.68439555e-02	2.28671013e-04
2.92500000e-01	1.68616573e-02	2.27816016e-04
2.93000000e-01	1.68096565e-02	2.27458076e-04
2.93500000e-01	1.70118412e-02	2.30306429e-04
2.94000000e-01	1.68574968e-02	2.27361529e-04
2.94500000e-01	1.70106589e-02	2.29922711e-04
2.95000000e-01	1.67360370e-02	2.24803740e-04
2.95500000e-01	1.65922720e-02	2.23946565e-04
2.96000000e-01	1.66211016e-02	2.23967557e-04
2.96500000e-01	1.66016629e-02	2.24833951e-04
2.97000000e-01	1.67619812e-02	2.26446788e-04
2.97500000e-01	1.67451464e-02	2.25166522e-04
2.98000000e-01	1.68133267e-02	2.25876159e-04
2.98500000e-01	1.67419052e-02	2.24454240e-04
2.99000000e-01	1.67914800e-02	2.25270641e-04
2.99500000e-01	1.66498913e-02	2.24338358e-04
3.00000000e-01	1.67655015e-02	2.24381553e-04
3.00500000e-01	1.67002786e-02	2.23191646e-04
3.01000000e-01	1.67986141e-02	2.24719388e-04
3.01500000e-01	1.67734936e-02	2.23487966e-04
3.02000000e-01	1.67924519e-02	2.23276468e-04
3.02500000e-01	1.67717096e-02	2.23425139e-04
3.03000000e-01	1.67161965e-02	2.22879811e-04
3.03500000e-01	1.66567372e-02	2.21307246e-04
3.04000000e-01	1.66160640e-02	2.21524287e-04
3.04500000e-01	1.67186220e-02	2.21876584e-04
3.05000000e-01	1.66409591e-02	2.21868929e-04
3.05500000e-01	1.66037511e-02	2.20477674e-04
3.06000000e-01	1.66154522e-02	2.19549936e-04
3.06500000e-01	1.65424640e-02	2.19559835e-04
3.07000000e-01	1.66967198e-02	2.20668224e-04
3.07500000e-01	1.65651237e-02	2.18654342e-04
3.08000000e-01	1.65338283e-02	2.18307531e-04
3.08500000e-01	1.67387261e-02	2.20286539e-04
3.09000000e-01	1.64716780e-02	2.17053809e-04
3.09500000e-01	1.62881578e-02	2.15563677e-04
3.10000000e-01	1.65800705e-02	2.18355651e-04
3.10500000e-01	1.65299959e-02	2.17801156e-04
3.11000000e-01	1.65548145e-02	2.17704651e-04
3.11500000e-01	1.65888285e-02	2.17471850e-04
3.12000000e-01	1.65387532e-02	2.16657642e-04
3.12500000e-01	1.65920577e-02	2.17517100e-04
3.13000000e-01	1.65792059e-02	2.17078530e-04
3.13500000e-01	1.65172763e-02	2.16706820e-04
3.14000000e-01	1.67393877e-02	2.18783663e-04
3.14500000e-01	1.64034001e-02	2.13916922e-04
3.15000000e-01	1.64548909e-02	2.15074428e-04
3.15500000e-01	1.65986637e-02	2.16776716e-04
3.16000000e-01	1.64329397e-02	2.15017383e-04
3.16500000e-01	1.62236964e-02	2.11654644e-04
3.17000000e-01	1.66730662e-02	2.16529858e-04
3.17500000e-01	1.65268024e-02	2.15926054e-04
3.18000000e-01	1.63349727e-02	2.12438028e-04
3.18500000e-01	1.63546867e-02	2.12656249e-04
3.19000000e-01	1.63120548e-02	2.11559383e-04
3.19500000e-01	1.62433908e-02	2.10811742e-04
3.20000000e-01	1.64251743e-02	2.13872751e-04
3.20500000e-01	1.63619651e-02	2.11231177e-04
3.21000000e-01	1.63707524e-02	2.12805941e-04
3.21500000e-01	1.63400131e-02	2.11862099e-04
3.22000000e-01	1.64120985e-02	2.12066457e-04
3.22500000e-01	1.63789862e-02	2.11449530e-04
3.23000000e-01	1.61998148e-02	2.08548237e-04
3.23500000e-01	1.63647725e-02	2.10854265e-04
3.24000000e-01	1.60791836e-02	2.06734443e-04
3.24500000e-01	1.62838690e-02	2.10748644e-04
3.25000000e-01	1.60755199e-02	2.07230272e-04
3.25500000e-01	1.62180520e-02	2.09154550e-04
3.26000000e-01	1.62340646e-02	2.08622095e-04
3.26500000e-01	1.62905679e-02	2.08613930e-04
3.27000000e-01	1.60618570e-02	2.06645412e-04
3.27500000e-01	1.62111952e-02	2.07470673e-04
3.28000000e-01	1.61105905e-02	2.06837018e-04
3.28500000e-01	1.61812436e-02	2.07274282e-04
3.29000000e-01	1.62350102e-02	2.08318428e-04
3.29500000e-01	1.61825610e-02	2.07499961e-04
3.30000000e-01	1.61417567e-02	2.05796928e-04
3.30500000e-01	1.62719924e-02	2.08253764e-04
3.31000000e-01	1.61077314e-02	2.05471807e-04
3.31500000e-01	1.63041257e-02	2.06994275e-04
3.32000000e-01	1.59680146e-02	2.03987858e-04
3.32500000e-01	1.62865504e-02	2.07358916e-04
3.33000000e-01	1.62115276e-02	2.06493949e-04
3.33500000e-01	1.60700659e-02	2.03844264e-04
3.34000000e-01	1.60499608e-02	2.04210893e-04
3.34500000e-01	1.59748499e-02	2.03649774e-04
3.35000000e-01	1.62223116e-02	2.05828284e-04
3.35500000e-01	1.60799871e-02	2.04685362e-04
3.36000000e-01	1.61855131e-02	2.04117895e-04
3.36500000e-01	1.62177702e-02	2.05766805e-04
3.37000000e-01	1.59690707e-02	2.01499804e-04
3.37500000e-01	1.61991076e-02	2.04858917e-04
3.38000000e-01	1.60702890e-02	2.03186137e-04
3.38500000e-01	1.57735416e-02	1.99557795e-04
3.39000000e-01	1.61779722e-02	2.04342554e-04
3.39500000e-01	1.61344136e-02	2.03393858e-04
3.40000000e-01	1.58024326e-02	1.99940671e-04
3.40500000e-01	1.59483952e-02	2.01094476e-04
3.41000000e-01	1.60751911e-02	2.02066558e-04
3.41500000e-01	1.60330768e-02	2.01863909e-04
3.42000000e-01	1.61170360e-02	2.02746347e-04
3.42500000e-01	1.60884437e-02	2.02439743e-04
3.43000000e-01	1.60761133e-02	2.01962674e-04
3.43500000e-01	1.58628101e-02	1.99323713e-04
3.44000000e-01	1.59964836e-02	2.01120684e-04
3.44500000e-01	1.57524836e-02	1.97330131e-04
3.45000000e-01	1.60843923e-02	2.01491471e-04
3.45500000e-01	1.57631228e-02	1.96941156e-04
3.46000000e-01	1.58889960e-02	1.98765352e-04
3.46500000e-01	1.60509035e-02	2.00524513e-04
3.47000000e-01	1.60993507e-02	2.01031933e-04
3.47500000e-01	1.59664953e-02	1.98728449e-04
3.48000000e-01	1.57919379e-02	1.96265948e-04
3.48500000e-01	1.58760768e-02	1.97996253e-04
3.49000000e-01	1.59514868e-02	1.98292915e-04
3.49500000e-01	1.59086227e-02	1.98541516e-04
3.50000000e-01	1.57092667e-02	1.59483570e-04
3.51000000e-01	1.58808070e-02	1.39623469e-04
3.52000000e-01	1.58220955e-02	1.39020339e-04
3.53000000e-01	1.57180321e-02	1.37293748e-04
3.54000000e-01	1.57697963e-02	1.38159934e-04
3.55000000e-01	1.57104918e-02	1.37302905e-04
3.56000000e-01	1.57215730e-02	1.37636009e-04
3.57000000e-01	1.57955165e-02	1.40451428e-04
3.58000000e-01	1.57765884e-02	1.41609334e-04
3.59000000e-01	1.55538120e-02	1.41294160e-04
3.60000000e-01	1.55569862e-02	1.41876546e-04
3.61000000e-01	1.54660564e-02	1.42114431e-04
3.62000000e-01	1.54674030e-02	1.42837436e-04
3.63000000e-01	1.56037511e-02	1.44307875e-04
3.64000000e-01	1.54813214e-02	1.43666331e-04
3.65000000e-01	1.56059349e-02	1.45384840e-04
3.66000000e-01	1.55903651e-02	1.43569230e-04
3.67000000e-01	1.55908343e-02	1.41279587e-04
3.68000000e-01	1.56658585e-02	1.40699206e-04
3.69000000e-01	1.54856723e-02	1.38911242e-04
3.70000000e-01	1.56880977e-02	1.39927525e-04
3.71000000e-01	1.55664184e-02	1.40799634e-04
3.72000000e-01	1.56306916e-02	1.42016997e-04
3.73000000e-01	1.54472039e-02	1.40828459e-04
3.74000000e-01	1.55199299e-02	1.41748738e-04
3.75000000e-01	1.55381730e-02	1.41466271e-04
3.76000000e-01	1.54614045e-02	1.40690982e-04
3.77000000e-01	1.53780182e-02	1.40634891e-04
3.78000000e-01	1.53849283e-02	1.40378240e-04
3.79000000e-01	1.54186362e-02	1.40518518e-04
3.80000000e-01	1.53552274e-02	1.39975216e-04
3.81000000e-01	1.53925588e-02	1.39753373e-04
3.82000000e-01	1.53892463e-02	1.39679404e-04
3.83000000e-01	1.52758864e-02	1.38843410e-04
3.84000000e-01	1.53501228e-02	1.39995688e-04
3.85000000e-01	1.52860052e-02	1.39818138e-04
3.86000000e-01	1.52979388e-02	1.39343748e-04
3.87000000e-01	1.52988892e-02	1.38903728e-04
3.88000000e-01	1.53038922e-02	1.39215000e-04
3.89000000e-01	1.53691689e-02	1.39725736e-04
3.90000000e-01	1.52223273e-02	1.38461235e-04
3.91000000e-01	1.53523619e-02	1.39097716e-04
3.92000000e-01	1.52174535e-02	1.38127624e-04
3.93000000e-01	1.52671204e-02	1.38706328e-04
3.94000000e-01	1.52656701e-02	1.38441339e-04
3.95000000e-01	1.52020359e-02	1.37918084e-04
3.96000000e-01	1.52501121e-02	1.38248608e-04
3.97000000e-01	1.51241677e-02	1.37428529e-04
3.98000000e-01	1.51595373e-02	1.37729981e-04
3.99000000e-01	1.51081924e-02	1.37550806e-04
4.00000000e-01	1.51515723e-02	1.37247584e-04
4.01000000e-01	1.51063888e-02	1.37168479e-04
4.02000000e-01	1.50789124e-02	1.37215180e-04
4.03000000e-01	1.50444230e-02	1.36579679e-04
4.04000000e-01	1.49654563e-02	1.35924741e-04
4.05000000e-01	1.51257106e-02	1.37001836e-04
4.06000000e-01	1.50773555e-02	1.37081459e-04
4.07000000e-01	1.50276872e-02	1.36750673e-04
4.08000000e-01	1.50673435e-02	1.36675447e-04
4.09000000e-01	1.49784945e-02	1.35822658e-04
4.10000000e-01	1.50386110e-02	1.36346007e-04
4.11000000e-01	1.49335019e-02	1.35271019e-04
4.12000000e-01	1.49778317e-02	1.35726095e-04
4.13000000e-01	1.49971074e-02	1.36065998e-04
4.14000000e-01	1.50036284e-02	1.35684012e-04
4.15000000e-01	1.48350150e-02	1.34404633e-04
4.16000000e-01	1.49132520e-02	1.34896951e-04
4.17000000e-01	1.49498476e-02	1.35100910e-04
4.18000000e-01	1.48962786e-02	1.36297889e-04
4.19000000e-01	1.50067225e-02	1.38487196e-04
4.20000000e-01	1.49292531e-02	1.39074443e-04
4.21000000e-01	1.49949885e-02	1.39920587e-04
4.22000000e-01	1.48870643e-02	1.39508203e-04
4.23000000e-01	1.50496301e-02	1.41352891e-04
4.24000000e-01	1.49143018e-02	1.40905328e-04
4.25000000e-01	1.47974804e-02	1.39987318e-04
4.26000000e-01	1.48824729e-02	1.40490160e-04
4.27000000e-01	1.49003375e-02	1.40534680e-04
4.28000000e-01	1.49153680e-02	1.41219696e-04
4.29000000e-01	1.50276601e-02	1.42411149e-04
4.30000000e-01	1.48877872e-02	1.41094428e-04
4.31000000e-01	1.48439246e-02	1.40582095e-04
4.32000000e-01	1.48447085e-02	1.40751799e-04
4.33000000e-01	1.48080281e-02	1.40191189e-04
4.34000000e-01	1.49289027e-02	1.41574602e-04
4.35000000e-01	1.49749345e-02	1.42132145e-04
4.36000000e-01	1.47521945e-02	1.40638394e-04
4.37000000e-01	1.49065701e-02	1.41938603e-04
4.38000000e-01	1.48617549e-02	1.41795253e-04
4.39000000e-01	1.47857346e-02	1.41480670e-04
4.40000000e-01	1.48098095e-02	1.41525107e-04
4.41000000e-01	1.48527286e-02	1.42066445e-04
4.42000000e-01	1.47812392e-02	1.41779549e-04
4.43000000e-01	1.47452475e-02	1.41383648e-04
4.44000000e-01	1.48084542e-02	1.41965034e-04
4.45000000e-01	1.47550308e-02	1.41887597e-04
4.46000000e-01	1.47722962e-02	1.42430605e-04
4.47000000e-01	1.46018483e-02	1.40642128e-04
4.48000000e-01	1.48436347e-02	1.42971141e-04
4.49000000e-01	1.47409477e-02	1.42423242e-04
4.50000000e-01	1.47591685e-02	1.42829635e-04
4.51000000e-01	1.48756056e-02	1.44077127e-04
4.52000000e-01	1.48224003e-02	1.43308779e-04
4.53000000e-01	1.46361620e-02	1.42052972e-04
4.54000000e-01	1.45917541e-02	1.41885554e-04
4.55000000e-01	1.46295699e-02	1.42430634e-04
4.56000000e-01	1.46079670e-02	1.42112478e-04
4.57000000e-01	1.45485933e-02	1.41439654e-04
4.58000000e-01	1.46464929e-02	1.42614729e-04
4.59000000e-01	1.46302583e-02	1.42647845e-04
4.60000000e-01	1.45392500e-02	1.41878853e-04
4.61000000e-01	1.44990126e-02	1.41659463e-04
4.62000000e-01	1.45322330e-02	1.41973460e-04
4.63000000e-01	1.47220583e-02	1.43564057e-04
4.64000000e-01	1.46129446e-02	1.43203730e-04
4.65000000e-01	1.46788522e-02	1.43588548e-04
4.66000000e-01	1.45999338e-02	1.42744588e-04
4.67000000e-01	1.46317560e-02	1.43117481e-04
4.68000000e-01	1.46780907e-02	1.43765375e-04
4.69000000e-01	1.46889584e-02	1.44224964e-04
4.70000000e-01	1.46478423e-02	1.43893509e-04
4.71000000e-01	1.44908460e-02	1.42179539e-04
4.72000000e-01	1.45807775e-02	1.43438185e-04
4.73000000e-01	1.43962409e-02	1.41377652e-04
4.74000000e-01	1.44851996e-02	1.42214092e-04
4.75000000e-01	1.44920523e-02	1.42330221e-04
4.76000000e-01	1.44415610e-02	1.41633777e-04
4.77000000e-01	1.44833443e-02	1.42175933e-04
4.78000000e-01	1.44162550e-02	1.41851886e-04
4.79000000e-01	1.44569005e-02	1.41975829e-04
4.80000000e-01	1.43483212e-02	1.41198748e-04
4.81000000e-01	1.42861090e-02	1.41011995e-04
4.82000000e-01	1.43666619e-02	1.41297271e-04
4.83000000e-01	1.43687383e-02	1.41798107e-04
4.84000000e-01	1.44138484e-02	1.42408173e-04
4.85000000e-01	1.43394258e-02	1.41682211e-04
4.86000000e-01	1.42967114e-02	1.41343938e-04
4.87000000e-01	1.43022039e-02	1.41613334e-04
4.88000000e-01	1.43955630e-02	1.42137652e-04
4.89000000e-01	1.44281289e-02	1.42874240e-04
4.90000000e-01	1.42248655e-02	1.40627943e-04
4.91000000e-01	1.42885821e-02	1.41625871e-04
4.92000000e-01	1.41157748e-02	1.39887334e-04
4.93000000e-01	1.42283358e-02	1.41057652e-04
4.94000000e-01	1.41884580e-02	1.41063304e-04
4.95000000e-01	1.42419544e-02	1.42719044e-04
4.96000000e-01	1.43512655e-02	1.47750629e-04
4.97000000e-01	1.41648545e-02	1.48634041e-04
4.98000000e-01	1.42560953e-02	1.51133279e-04
4.99000000e-01	1.41619379e-02	1.52401067e-04
5.00000000e-01	1.42159376e-02	1.54308767e-04
5.01000000e-01	1.42626686e-02	1.55892682e-04
5.02000000e-01	1.42265591e-02	1.57963694e-04
5.03000000e-01	1.42426864e-02	1.58701370e-04
5.04000000e-01	1.41892450e-02	1.60014951e-04
5.05000000e-01	1.42663908e-02	1.58689409e-04
5.06000000e-01	1.42413053e-02	1.54766284e-04
5.07000000e-01	1.43448784e-02	1.53873693e-04
5.08000000e-01	1.43149557e-02	1.53060101e-04
5.09000000e-01	1.41146345e-02	1.50159992e-04
5.10000000e-01	1.43672530e-02	1.51870289e-04
5.11000000e-01	1.42457394e-02	1.50506815e-04
5.12000000e-01	1.40441773e-02	1.48050412e-04
5.13000000e-01	1.40239799e-02	1.47778094e-04
5.14000000e-01	1.42137454e-02	1.49398184e-04
5.15000000e-01	1.41785258e-02	1.48893011e-04
5.16000000e-01	1.40931605e-02	1.47286832e-04
5.17000000e-01	1.41760275e-02	1.47844645e-04
5.18000000e-01	1.40745636e-02	1.46849972e-04
5.19000000e-01	1.39270168e-02	1.44697995e-04
5.20000000e-01	1.41550240e-02	1.46650996e-04
5.21000000e-01	1.39812906e-02	1.45087164e-04
5.22000000e-01	1.40494943e-02	1.45233350e-04
5.23000000e-01	1.39267071e-02	1.44114611e-04
5.24000000e-01	1.40234725e-02	1.45085196e-04
5.25000000e-01	1.38930727e-02	1.44077714e-04
5.26000000e-01	1.40051847e-02	1.44781915e-04
5.27000000e-01	1.39284795e-02	1.44226792e-04
5.28000000e-01	1.40583604e-02	1.45502099e-04
5.29000000e-01	1.39688247e-02	1.45118000e-04
5.30000000e-01	1.38466572e-02	1.43716809e-04
5.31000000e-01	1.38599078e-02	1.43795030e-04
5.32000000e-01	1.38795974e-02	1.43521613e-04
5.33000000e-01	1.40338193e-02	1.44839351e-04
5.34000000e-01	1.40557131e-02	1.45573647e-04
5.35000000e-01	1.40623154e-02	1.45216223e-04
5.36000000e-01	1.38408609e-02	1.43047517e-04
5.37000000e-01	1.39168990e-02	1.44148375e-04
5.38000000e-01	1.38849817e-02	1.43716956e-04
5.39000000e-01	1.39373985e-02	1.44312478e-04
5.40000000e-01	1.39465276e-02	1.44378739e-04
5.41000000e-01	1.37658584e-02	1.42564002e-04
5.42000000e-01	1.39111731e-02	1.43959876e-04
5.43000000e-01	1.38548891e-02	1.43524837e-04
5.44000000e-01	1.38167843e-02	1.42994755e-04
5.45000000e-01	1.38209762e-02	1.43689388e-04
5.46000000e-01	1.38355384e-02	1.43571170e-04
5.47000000e-01	1.37896744e-02	1.42711018e-04
5.48000000e-01	1.36717668e-02	1.42207542e-04
5.49000000e-01	1.36140241e-02	1.41104047e-04
5.50000000e-01	1.37008881e-02	1.41845720e-04
5.51000000e-01	1.39105828e-02	1.43730262e-04
5.52000000e-01	1.37727780e-02	1.42138004e-04
5.53000000e-01	1.36689837e-02	1.41483868e-04
5.54000000e-01	1.37214848e-02	1.41198060e-04
5.55000000e-01	1.36550530e-02	1.40788014e-04
5.56000000e-01	1.37724953e-02	1.41583976e-04
5.57000000e-01	1.38032408e-02	1.41775891e-04
5.58000000e-01	1.35931055e-02	1.40303639e-04
5.59000000e-01	1.36584913e-02	1.40434679e-04
5.60000000e-01	1.36230603e-02	1.40668847e-04
5.61000000e-01	1.35201009e-02	1.39318386e-04
5.62000000e-01	1.36356529e-02	1.40623522e-04
5.63000000e-01	1.35321166e-02	1.39808732e-04
5.64000000e-01	1.35500167e-02	1.39694510e-04
5.65000000e-01	1.36391079e-02	1.40643388e-04
5.66000000e-01	1.35511016e-02	1.39464268e-04
5.67000000e-01	1.34669316e-02	1.39009090e-04
5.68000000e-01	1.35809416e-02	1.40352836e-04
5.69000000e-01	1.36148516e-02	1.40063188e-04
5.70000000e-01	1.35106154e-02	1.39178287e-04
5.71000000e-01	1.35779931e-02	1.39597912e-04
5.72000000e-01	1.36067987e-02	1.40285738e-04
5.73000000e-01	1.34020868e-02	1.38480086e-04
5.74000000e-01	1.36660444e-02	1.40579968e-04
5.75000000e-01	1.35185877e-02	1.39636256e-04
5.76000000e-01	1.35732818e-02	1.39339993e-04
5.77000000e-01	1.36241419e-02	1.40633454e-04
5.78000000e-01	1.33587404e-02	1.38100190e-04
5.79000000e-01	1.35540457e-02	1.39747334e-04
5.80000000e-01	1.33888443e-02	1.38709409e-04
5.81000000e-01	1.33929743e-02	1.38403709e-04
5.82000000e-01	1.33138404e-02	1.37497281e-04
5.83000000e-01	1.33754815e-02	1.38512180e-04
5.84000000e-01	1.33857651e-02	1.38527834e-04
5.85000000e-01	1.33347855e-02	1.37806919e-04
5.86000000e-01	1.33471254e-02	1.38043029e-04
5.87000000e-01	1.33332890e-02	1.37651920e-04
5.88000000e-01	1.32349098e-02	1.37090051e-04
5.89000000e-01	1.34183884e-02	1.38826678e-04
5.90000000e-01	1.32546057e-02	1.37271042e-04
5.91000000e-01	1.33626491e-02	1.38275614e-04
5.92000000e-01	1.34989196e-02	1.39701450e-04
5.93000000e-01	1.34582891e-02	1.38700810e-04
5.94000000e-01	1.33297262e-02	1.38255648e-04
5.95000000e-01	1.32565317e-02	1.37393607e-04
5.96000000e-01	1.33612767e-02	1.38767292e-04
5.97000000e-01	1.33028433e-02	1.37811892e-04
5.98000000e-01	1.33395800e-02	1.38490790e-04
5.99000000e-01	1.34465089e-02	1.39079381e-04
6.00000000e-01	1.31262375e-02	1.36217531e-04
6.01000000e-01	1.33715845e-02	1.38560470e-04
6.02000000e-01	1.33392085e-02	1.38360978e-04
6.03000000e-01	1.33516131e-02	1.38654012e-04
6.04000000e-01	1.31279834e-02	1.36743812e-04
6.05000000e-01	1.32739441e-02	1.37699521e-04
6.06000000e-01	1.32088430e-02	1.37299949e-04
6.07000000e-01	1.33352382e-02	1.37986745e-04
6.08000000e-01	1.31664966e-02	1.36730485e-04
6.09000000e-01	1.30920748e-02	1.36404027e-04
6.10000000e-01	1.30640480e-02	1.35959293e-04
6.11000000e-01	1.30129722e-02	1.35586965e-04
6.12000000e-01	1.32186912e-02	1.37595632e-04
6.13000000e-01	1.31372244e-02	1.36641710e-04
6.14000000e-01	1.31525205e-02	1.36861576e-04
6.15000000e-01	1.30705138e-02	1.35932819e-04
6.16000000e-01	1.31761396e-02	1.37520435e-04
6.17000000e-01	1.30092604e-02	1.35482824e-04
6.18000000e-01	1.31379683e-02	1.36875954e-04
6.19000000e-01	1.29704056e-02	1.34889221e-04
6.20000000e-01	1.30331907e-02	1.35492133e-04
6.21000000e-01	1.30561703e-02	1.35623102e-04
6.22000000e-01	1.31519057e-02	1.36626269e-04
6.23000000e-01	1.30647425e-02	1.35047562e-04
6.24000000e-01	1.30721910e-02	1.35070576e-04
6.25000000e-01	1.29218961e-02	1.33462894e-04
6.26000000e-01	1.30243527e-02	1.34606129e-04
6.27000000e-01	1.29709654e-02	1.34492662e-04
6.28000000e-01	1.30225142e-02	1.34565114e-04
6.29000000e-01	1.30385405e-02	1.34586746e-04
6.30000000e-01	1.28957992e-02	1.33263590e-04
6.31000000e-01	1.30000105e-02	1.34140103e-04
6.32000000e-01	1.30227683e-02	1.34430533e-04
6.33000000e-01	1.30151676e-02	1.34493711e-04
6.34000000e-01	1.31310167e-02	1.38864839e-04
6.35000000e-01	1.29441209e-02	1.41593225e-04
6.36000000e-01	1.31377950e-02	1.45864302e-04
6.37000000e-01	1.30585813e-02	1.47061584e-04
6.38000000e-01	1.30668149e-02	1.48760391e-04
6.39000000e-01	1.29925455e-02	1.50713639e-04
6.40000000e-01	1.28790412e-02	1.51314779e-04
6.41000000e-01	1.29021887e-02	1.52912866e-04
6.42000000e-01	1.29032469e-02	1.54753335e-04
6.43000000e-01	1.31730790e-02	1.57023954e-04
6.44000000e-01	1.29629661e-02	1.49514748e-04
6.45000000e-01	1.31707209e-02	1.49682592e-04
6.46000000e-01	1.30097779e-02	1.46625400e-04
6.47000000e-01	1.31646877e-02	1.46656437e-04
6.48000000e-01	1.29171532e-02	1.44044130e-04
6.49000000e-01	1.30495799e-02	1.43845573e-04
6.50000000e-01	1.30074858e-02	1.42797042e-04
6.51000000e-01	1.31076844e-02	1.43411032e-04
6.52000000e-01	1.30095876e-02	1.42364340e-04
6.53000000e-01	1.29075069e-02	1.40290739e-04
6.54000000e-01	1.28564735e-02	1.39756059e-04
6.55000000e-01	1.28951011e-02	1.39793570e-04
6.56000000e-01	1.28688318e-02	1.39109147e-04
6.57000000e-01	1.29848810e-02	1.40117743e-04
6.58000000e-01	1.29944995e-02	1.40232056e-04
6.59000000e-01	1.29511005e-02	1.40139498e-04
6.60000000e-01	1.28761930e-02	1.38565046e-04
6.61000000e-01	1.28064307e-02	1.37627877e-04
6.62000000e-01	1.28508907e-02	1.38748646e-04
6.63000000e-01	1.28884875e-02	1.38882868e-04
6.64000000e-01	1.28396947e-02	1.37867302e-04
6.65000000e-01	1.28108096e-02	1.38266360e-04
6.66000000e-01	1.30052434e-02	1.39342469e-04
6.67000000e-01	1.29238529e-02	1.39047210e-04
6.68000000e-01	1.28065731e-02	1.37340181e-04
6.69000000e-01	1.28390305e-02	1.37825445e-04
6.70000000e-01	1.28323708e-02	1.37752292e-04
6.71000000e-01	1.28768225e-02	1.38596906e-04
6.72000000e-01	1.28469859e-02	1.37952271e-04
6.73000000e-01	1.28781303e-02	1.37696999e-04
6.74000000e-01	1.27107391e-02	1.36482854e-04
6.75000000e-01	1.27467272e-02	1.36655188e-04
6.76000000e-01	1.27748071e-02	1.37476798e-04
6.77000000e-01	1.28771672e-02	1.37733529e-04
6.78000000e-01	1.26957790e-02	1.35608615e-04
6.79000000e-01	1.26489806e-02	1.35409162e-04
6.80000000e-01	1.26501863e-02	1.35378845e-04
6.81000000e-01	1.27654976e-02	1.36668829e-04
6.82000000e-01	1.26937994e-02	1.36115467e-04
6.83000000e-01	1.27771758e-02	1.36197408e-04
6.84000000e-01	1.26826502e-02	1.35580763e-04
6.85000000e-01	1.27488845e-02	1.36337368e-04
6.86000000e-01	1.27344868e-02	1.36308654e-04
6.87000000e-01	1.27139179e-02	1.36034999e-04
6.88000000e-01	1.26473573e-02	1.35296225e-04
6.89000000e-01	1.27247546e-02	1.35711707e-04
6.90000000e-01	1.28493625e-02	1.37392645e-04
6.91000000e-01	1.26668612e-02	1.35344126e-04
6.92000000e-01	1.27258386e-02	1.35798307e-04
6.93000000e-01	1.25394005e-02	1.33731424e-04
6.94000000e-01	1.25822146e-02	1.34152418e-04
6.95000000e-01	1.27745957e-02	1.36239103e-04
6.96000000e-01	1.27501183e-02	1.35911047e-04
6.97000000e-01	1.25157980e-02	1.33919976e-04
6.98000000e-01	1.27005922e-02	1.35086406e-04
6.99000000e-01	1.26230407e-02	1.34386812e-04
7.00000000e-01	1.26264125e-02	1.34852064e-04
7.01000000e-01	1.25255076e-02	1.33997305e-04
7.02000000e-01	1.25973354e-02	1.34357207e-04
7.03000000e-01	1.25470570e-02	1.34063611e-04
7.04000000e-01	1.24738880e-02	1.32942030e-04
7.05000000e-01	1.26045437e-02	1.34154707e-04
7.06000000e-01	1.25465083e-02	1.33982737e-04
7.07000000e-01	1.25872910e-02	1.34057737e-04
7.08000000e-01	1.24177659e-02	1.31811478e-04
7.09000000e-01	1.24303553e-02	1.32517104e-04
7.10000000e-01	1.26013384e-02	1.34182304e-04
7.11000000e-01	1.24084776e-02	1.32548204e-04
7.12000000e-01	1.22892887e-02	1.31788527e-04
7.13000000e-01	1.24473471e-02	1.32816931e-04
7.14000000e-01	1.24286751e-02	1.32866431e-04
7.15000000e-01	1.24582061e-02	1.32746942e-04
7.16000000e-01	1.24295927e-02	1.32467665e-04
7.17000000e-01	1.23739964e-02	1.32193287e-04
7.18000000e-01	1.23802401e-02	1.32070622e-04
7.19000000e-01	1.23138665e-02	1.31594314e-04
7.20000000e-01	1.23240106e-02	1.31499952e-04
7.21000000e-01	1.22412104e-02	1.30895094e-04
7.22000000e-01	1.23332359e-02	1.31452539e-04
7.23000000e-01	1.23715259e-02	1.31900880e-04
7.24000000e-01	1.23071212e-02	1.31625142e-04
7.25000000e-01	1.20636040e-02	1.29632631e-04
7.26000000e-01	1.22482460e-02	1.30442000e-04
7.27000000e-01	1.22499522e-02	1.31417111e-04
7.28000000e-01	1.21965826e-02	1.30381852e-04
7.29000000e-01	1.22518384e-02	1.30963173e-04
7.30000000e-01	1.22518267e-02	1.31378906e-04
7.31000000e-01	1.22475448e-02	1.30786767e-04
7.32000000e-01	1.22163288e-02	1.30676222e-04
7.33000000e-01	1.22391751e-02	1.30508695e-04
7.34000000e-01	1.21269637e-02	1.29731090e-04
7.35000000e-01	1.20885515e-02	1.29091945e-04
7.36000000e-01	1.22751382e-02	1.30419680e-04
7.37000000e-01	1.21190541e-02	1.29227884e-04
7.38000000e-01	1.22234451e-02	1.29616509e-04
7.39000000e-01	1.21881176e-02	1.29072382e-04
7.40000000e-01	1.22511382e-02	1.29658633e-04
7.41000000e-01	1.22425412e-02	1.29495383e-04
7.42000000e-01	1.21635919e-02	1.28541486e-04
7.43000000e-01	1.20513212e-02	1.27552841e-04
7.44000000e-01	1.21357076e-02	1.28912578e-04
7.45000000e-01	1.20197847e-02	1.27505603e-04
7.46000000e-01	1.20527626e-02	1.27660058e-04
7.47000000e-01	1.21142876e-02	1.28347080e-04
7.48000000e-01	1.20626531e-02	1.27903245e-04
7.49000000e-01	1.19431025e-02	1.26553929e-04
7.50000000e-01	1.19168017e-02	1.26882487e-04
7.51000000e-01	1.20352407e-02	1.26936804e-04
7.52000000e-01	1.20807465e-02	1.27875631e-04
7.53000000e-01	1.19661919e-02	1.27295839e-04
7.54000000e-01	1.20544705e-02	1.27727508e-04
7.55000000e-01	1.19946815e-02	1.27362201e-04
7.56000000e-01	1.20165120e-02	1.27286825e-04
7.57000000e-01	1.20268638e-02	1.27516027e-04
7.58000000e-01	1.20326943e-02	1.27414858e-04
7.59000000e-01	1.20017181e-02	1.27364966e-04
7.60000000e-01	1.19412167e-02	1.26165234e-04
7.61000000e-01	1.19131343e-02	1.26176047e-04
7.62000000e-01	1.19653779e-02	1.26508255e-04
7.63000000e-01	1.18557873e-02	1.24707410e-04
7.64000000e-01	1.19503628e-02	1.25543805e-04
7.65000000e-01	1.19418827e-02	1.25838414e-04
7.66000000e-01	1.19180028e-02	1.24639787e-04
7.67000000e-01	1.18977966e-02	1.24943752e-04
7.68000000e-01	1.18776915e-02	1.24500470e-04
7.69000000e-01	1.17901129e-02	1.23773392e-04
7.70000000e-01	1.17301245e-02	1.23683190e-04
7.71000000e-01	1.19359298e-02	1.24873015e-04
7.72000000e-01	1.18930558e-02	1.28746671e-04
7.73000000e-01	1.17123307e-02	1.31223670e-04
7.74000000e-01	1.17854502e-02	1.34029981e-04
7.75000000e-01	1.16589462e-02	1.35698415e-04
7.76000000e-01	1.17236238e-02	1.38463656e-04
7.77000000e-01	1.17203010e-02	1.40220918e-04
7.78000000e-01	1.18541674e-02	1.43745891e-04
7.79000000e-01	1.17678008e-02	1.43996784e-04
7.80000000e-01	1.16930252e-02	1.45279484e-04
7.81000000e-01	1.18347199e-02	1.48198426e-04
7.82000000e-01	1.18265076e-02	1.49800854e-04
7.83000000e-01	1.18040074e-02	1.51497171e-04
7.84000000e-01	1.15716234e-02	1.50465846e-04
7.85000000e-01	1.16596829e-02	1.52754047e-04
7.86000000e-01	1.18670997e-02	1.56927032e-04
7.87000000e-01	1.16180148e-02	1.55215932e-04
7.88000000e-01	1.16032513e-02	1.56446238e-04
7.89000000e-01	1.15123999e-02	1.57177915e-04
7.90000000e-01	1.16269570e-02	1.60366094e-04
7.91000000e-01	1.16029794e-02	1.61709297e-04
7.92000000e-01	1.16831550e-02	1.64040043e-04
7.93000000e-01	1.15680032e-02	1.64461101e-04
7.94000000e-01	1.18102813e-02	1.69708450e-04
7.95000000e-01	1.17836164e-02	1.70736863e-04
7.96000000e-01	1.15926935e-02	1.68555149e-04
7.97000000e-01	1.15488491e-02	1.70925040e-04
7.98000000e-01	1.15381932e-02	1.72584148e-04
7.99000000e-01	1.14871584e-02	1.73850818e-04
8.00000000e-01	1.13990125e-02	1.74104996e-04
8.01000000e-01	1.14011980e-02	1.76857005e-04
8.02000000e-01	1.15176287e-02	1.79176246e-04
8.03000000e-01	1.14123246e-02	1.80470918e-04
8.04000000e-01	1.14618670e-02	1.81615086e-04
8.05000000e-01	1.14567436e-02	1.84413603e-04
8.06000000e-01	1.14310721e-02	1.85747939e-04
8.07000000e-01	1.13482892e-02	1.86863193e-04
8.08000000e-01	1.14377109e-02	1.90347476e-04
8.09000000e-01	1.12437564e-02	1.89836518e-04
8.10000000e-01	1.14094774e-02	1.93264088e-04
8.11000000e-01	1.13151491e-02	1.94875402e-04
8.12000000e-01	1.13355866e-02	1.98463029e-04
8.13000000e-01	1.13693092e-02	2.00435082e-04
8.14000000e-01	1.13793021e-02	2.02253207e-04
8.15000000e-01	1.10149186e-02	1.99169439e-04
8.16000000e-01	1.12256676e-02	2.05015253e-04
8.17000000e-01	1.12461947e-02	2.07710651e-04
8.18000000e-01	1.12572842e-02	2.10304064e-04
8.19000000e-01	1.11260299e-02	2.10661753e-04
8.20000000e-01	1.11691604e-02	2.15099167e-04
8.21000000e-01	1.11497094e-02	2.16411561e-04
8.22000000e-01	1.10086800e-02	2.16747845e-04
8.23000000e-01	1.11337829e-02	2.21449084e-04
8.24000000e-01	1.09724444e-02	2.22681656e-04
8.25000000e-01	1.11519136e-02	2.29185252e-04
8.26000000e-01	1.11543947e-02	2.33151444e-04
8.27000000e-01	1.11017798e-02	2.34347513e-04
8.28000000e-01	1.10455850e-02	2.38601210e-04
8.29000000e-01	1.08357061e-02	2.36463682e-04
8.30000000e-01	1.11895742e-02	2.45906616e-04
8.31000000e-01	1.10688798e-02	2.50069511e-04
8.32000000e-01	1.07430317e-02	2.46974241e-04
8.33000000e-01	1.09479186e-02	2.56315092e-04
8.34000000e-01	1.07946487e-02	2.56190467e-04
8.35000000e-01	1.08791904e-02	2.63309951e-04
8.36000000e-01	1.10271815e-02	2.71055776e-04
8.37000000e-01	1.10780654e-02	2.77963687e-04
8.38000000e-01	1.09456490e-02	2.80096936e-04
8.39000000e-01	1.07913108e-02	2.82779586e-04
8.40000000e-01	1.10165410e-02	2.93152326e-04
8.41000000e-01	1.09655165e-02	2.98410052e-04
8.42000000e-01	1.08602170e-02	3.01057864e-04
8.43000000e-01	1.10020882e-02	3.11864975e-04
8.44000000e-01	1.08548539e-02	3.18439856e-04
8.45000000e-01	1.08260230e-02	3.25323835e-04
8.46000000e-01	1.12301974e-02	3.43326112e-04
8.47000000e-01	1.10014157e-02	3.47230835e-04
8.48000000e-01	1.06864736e-02	3.52664871e-04
8.49000000e-01	1.11006493e-02	3.77457349e-04
8.50000000e-01	1.07527166e-02	3.76500515e-04
8.51000000e-01	1.07024984e-02	3.89217625e-04
8.52000000e-01	1.05765584e-02	4.00007432e-04
8.53000000e-01	1.08099174e-02	4.25846526e-04
8.54000000e-01	1.03853586e-02	4.32732502e-04
8.55000000e-01	1.08330676e-02	4.61971270e-04
8.56000000e-01	1.07187286e-02	4.68049341e-04
8.57000000e-01	1.02326563e-02	4.69489669e-04
8.58000000e-01	1.08851872e-02	5.01195829e-04
8.59000000e-01	1.01477785e-02	4.85109916e-04
8.60000000e-01	1.09505119e-02	5.43635947e-04
8.61000000e-01	1.09742724e-02	5.44250808e-04
8.62000000e-01	1.05252734e-02	5.75526506e-04
8.63000000e-01	1.03067118e-02	5.77288308e-04
8.64000000e-01	1.07086023e-02	6.16189499e-04
8.65000000e-01	1.02617488e-02	6.19749059e-04
8.66000000e-01	1.05472795e-02	6.70009199e-04
8.67000000e-01	1.03199452e-02	6.92512341e-04
8.68000000e-01	1.07640274e-02	7.62182955e-04
8.69000000e-01	1.01671020e-02	7.86110554e-04
8.70000000e-01	1.04023651e-02	8.47751282e-04
8.71000000e-01	1.10543203e-02	1.00401621e-03
8.72000000e-01	1.07827003e-02	1.14354510e-03
8.73000000e-01	9.42858175e-03	1.20024629e-03
8.74000000e-01	1.09309793e-02	1.77841532e-03
8.75000000e-01	1.03561574e-02	3.61024817e-03
