% Filename : SDL7c_00026_00015.h5
% Date & Time : 30-Oct-2025 17:01:42
% X-ray Energy (keV) : 13.30001
% Exposure Time (s) : 0.500
% Beam Center : 1461.24000, 208.98300
% Sample to Detector Distance (SDD) (mm) : 1990.750
% Detector Pixel Size (mm) : 0.075
% Photodiode Value : 140771.000
% I0 of Sample : 0
% I0 of Standard : 1
% 
% q(A^-1)   I(q)    I(q)_SE
0.00000000e+00	1.92511696e-02	9.68954208e-03
2.50000000e-04	0.00000000e+00	0.00000000e+00
5.00000000e-04	0.00000000e+00	0.00000000e+00
7.50000000e-04	0.00000000e+00	0.00000000e+00
1.00000000e-03	0.00000000e+00	0.00000000e+00
1.25000000e-03	0.00000000e+00	0.00000000e+00
1.50000000e-03	0.00000000e+00	0.00000000e+00
1.75000000e-03	0.00000000e+00	0.00000000e+00
2.00000000e-03	0.00000000e+00	0.00000000e+00
2.25000000e-03	0.00000000e+00	0.00000000e+00
2.50000000e-03	0.00000000e+00	0.00000000e+00
2.75000000e-03	0.00000000e+00	0.00000000e+00
3.00000000e-03	0.00000000e+00	0.00000000e+00
3.25000000e-03	1.46562328e+03	1.37778941e+03
3.50000000e-03	3.30225437e+02	3.12226467e+02
3.75000000e-03	1.44282099e+02	1.32729848e+02
4.00000000e-03	1.01520436e+02	8.92601810e+01
4.25000000e-03	7.98301442e+00	3.43451771e+00
4.50000000e-03	5.39164218e+01	4.56594622e+01
4.75000000e-03	6.66237816e+01	4.07786042e+01
5.00000000e-03	4.78720721e+01	2.87160742e+01
5.25000000e-03	4.03985090e+01	2.37258393e+01
5.50000000e-03	3.12118384e+01	1.79978044e+01
5.75000000e-03	2.66065019e+01	1.53377889e+01
6.00000000e-03	2.12912449e+01	1.18864344e+01
6.25000000e-03	1.69351114e+01	9.29533041e+00
6.50000000e-03	1.55044446e+01	8.52992745e+00
6.75000000e-03	1.40670316e+01	7.59284603e+00
7.00000000e-03	1.34168003e+01	7.36658584e+00
7.25000000e-03	1.17746358e+01	6.28528095e+00
7.50000000e-03	1.04929102e+01	5.58983226e+00
7.75000000e-03	8.70340819e+00	4.48670760e+00
8.00000000e-03	8.13270673e+00	4.17640809e+00
8.25000000e-03	6.85320541e+00	3.60823061e+00
8.50000000e-03	5.46809002e+00	2.78065900e+00
8.75000000e-03	5.49170185e+00	2.80774892e+00
9.00000000e-03	4.81585353e+00	2.50467430e+00
9.25000000e-03	3.88805263e+00	1.99776163e+00
9.50000000e-03	4.00296619e+00	2.13937589e+00
9.75000000e-03	3.26599800e+00	1.67626249e+00
1.00000000e-02	2.85852821e+00	1.49602735e+00
1.02500000e-02	3.00861656e+00	1.59815545e+00
1.05000000e-02	2.34993499e+00	1.21191514e+00
1.07500000e-02	2.29283960e+00	1.17185758e+00
1.10000000e-02	2.03139998e+00	1.08166731e+00
1.12500000e-02	1.56178885e+00	8.07820592e-01
1.15000000e-02	1.66660912e+00	8.25202563e-01
1.17500000e-02	1.08744070e+00	5.98885652e-01
1.20000000e-02	1.47466891e+00	7.22017788e-01
1.22500000e-02	1.36017539e+00	6.55719033e-01
1.25000000e-02	1.40246929e+00	6.76512202e-01
1.27500000e-02	1.10723377e+00	5.27563789e-01
1.30000000e-02	1.02301608e+00	4.86158539e-01
1.32500000e-02	9.27510008e-01	4.30496710e-01
1.35000000e-02	8.67116832e-01	4.12861234e-01
1.37500000e-02	8.12782630e-01	3.66331381e-01
1.40000000e-02	7.87843114e-01	3.52619212e-01
1.42500000e-02	7.53677451e-01	3.38904228e-01
1.45000000e-02	7.37003048e-01	3.39389983e-01
1.47500000e-02	6.56244169e-01	2.97448896e-01
1.50000000e-02	5.92049178e-01	2.61900807e-01
1.52500000e-02	5.41923327e-01	2.41044248e-01
1.55000000e-02	5.21823363e-01	2.36147993e-01
1.57500000e-02	4.82384875e-01	2.13570010e-01
1.60000000e-02	4.99148902e-01	2.22515424e-01
1.62500000e-02	4.46946595e-01	1.93555136e-01
1.65000000e-02	4.07271414e-01	1.67895194e-01
1.67500000e-02	3.61287748e-01	1.44697671e-01
1.70000000e-02	3.64083394e-01	1.44168609e-01
1.72500000e-02	3.65112377e-01	1.45807613e-01
1.75000000e-02	3.52033391e-01	1.46439125e-01
1.77500000e-02	3.26700602e-01	1.30785945e-01
1.80000000e-02	3.07117208e-01	1.20704794e-01
1.82500000e-02	2.70337432e-01	1.01370497e-01
1.85000000e-02	2.83274849e-01	1.07537766e-01
1.87500000e-02	2.58939102e-01	9.44380689e-02
1.90000000e-02	2.54025823e-01	9.41511367e-02
1.92500000e-02	2.39478766e-01	9.19822673e-02
1.95000000e-02	2.18001186e-01	8.28103434e-02
1.97500000e-02	2.14198168e-01	7.97783034e-02
2.00000000e-02	1.58340756e-01	5.87402196e-02
2.02500000e-02	1.74289056e-01	6.90083294e-02
2.05000000e-02	1.90067024e-01	6.77307440e-02
2.07500000e-02	1.88327111e-01	6.48542949e-02
2.10000000e-02	1.74770010e-01	5.97047933e-02
2.12500000e-02	1.76104990e-01	6.01727437e-02
2.15000000e-02	1.68422974e-01	5.72313412e-02
2.17500000e-02	1.64015782e-01	5.58490427e-02
2.20000000e-02	1.61437860e-01	5.61632164e-02
2.22500000e-02	1.54592197e-01	5.30110485e-02
2.25000000e-02	1.57131820e-01	5.22080807e-02
2.27500000e-02	1.45474901e-01	4.87010744e-02
2.30000000e-02	1.46465297e-01	4.67973541e-02
2.32500000e-02	1.38341125e-01	4.37504688e-02
2.35000000e-02	1.38528719e-01	4.36650304e-02
2.37500000e-02	1.34926996e-01	4.35172644e-02
2.40000000e-02	1.27354677e-01	3.91825990e-02
2.42500000e-02	1.28876776e-01	4.03949161e-02
2.45000000e-02	1.24364469e-01	3.88425450e-02
2.47500000e-02	1.14748678e-01	3.29446490e-02
2.50000000e-02	1.20161664e-01	3.64156443e-02
2.52500000e-02	1.15729664e-01	3.55774650e-02
2.55000000e-02	1.05294778e-01	2.95254590e-02
2.57500000e-02	1.06344437e-01	3.05309739e-02
2.60000000e-02	1.00070981e-01	2.76016296e-02
2.62500000e-02	1.00795393e-01	2.80448489e-02
2.65000000e-02	9.82338994e-02	2.64307818e-02
2.67500000e-02	9.84129291e-02	2.72874775e-02
2.70000000e-02	9.29267164e-02	2.52706432e-02
2.72500000e-02	9.10105844e-02	2.32678011e-02
2.75000000e-02	7.37089349e-02	1.67046949e-02
2.77500000e-02	8.41768125e-02	2.14152433e-02
2.80000000e-02	8.25643938e-02	2.01452347e-02
2.82500000e-02	8.30172345e-02	2.01804656e-02
2.85000000e-02	8.25067960e-02	1.98791423e-02
2.87500000e-02	8.22882714e-02	2.00248432e-02
2.90000000e-02	8.02843483e-02	1.96571068e-02
2.92500000e-02	7.56959547e-02	1.81400386e-02
2.95000000e-02	7.80886317e-02	1.82167342e-02
2.97500000e-02	7.43957014e-02	1.61987253e-02
3.00000000e-02	7.43017603e-02	1.64688861e-02
3.02500000e-02	6.98641135e-02	1.46650447e-02
3.05000000e-02	6.81661403e-02	1.43278787e-02
3.07500000e-02	6.74810544e-02	1.40104875e-02
3.10000000e-02	6.47630522e-02	1.30131349e-02
3.12500000e-02	6.68155878e-02	1.32159634e-02
3.15000000e-02	6.32975314e-02	1.18488347e-02
3.17500000e-02	5.98060277e-02	1.14356303e-02
3.20000000e-02	6.09390809e-02	1.15386713e-02
3.22500000e-02	6.25051153e-02	1.14378353e-02
3.25000000e-02	6.14188390e-02	1.13259678e-02
3.27500000e-02	6.02469508e-02	1.05165464e-02
3.30000000e-02	5.76155055e-02	9.47117086e-03
3.32500000e-02	5.67071966e-02	9.21929741e-03
3.35000000e-02	5.51008449e-02	9.11870312e-03
3.37500000e-02	5.33705161e-02	8.50255042e-03
3.40000000e-02	5.38637739e-02	8.94622312e-03
3.42500000e-02	5.26303778e-02	8.87214743e-03
3.45000000e-02	5.18783667e-02	8.55596667e-03
3.47500000e-02	5.09153983e-02	8.10574886e-03
3.50000000e-02	4.93873485e-02	7.29020682e-03
3.52500000e-02	4.93253227e-02	7.49610762e-03
3.55000000e-02	4.88785320e-02	6.95429130e-03
3.57500000e-02	4.64266793e-02	6.97799893e-03
3.60000000e-02	4.31903354e-02	5.43537977e-03
3.62500000e-02	4.57625179e-02	6.72891031e-03
3.65000000e-02	4.49798066e-02	6.33798131e-03
3.67500000e-02	4.71585371e-02	6.80289627e-03
3.70000000e-02	4.61276845e-02	6.22078834e-03
3.72500000e-02	4.43535071e-02	6.19318805e-03
3.75000000e-02	4.56946402e-02	6.52664570e-03
3.77500000e-02	4.34697117e-02	5.83579021e-03
3.80000000e-02	4.25157858e-02	5.50435626e-03
3.82500000e-02	4.26823053e-02	5.06112304e-03
3.85000000e-02	4.26973433e-02	5.20215959e-03
3.87500000e-02	4.19458835e-02	5.16715069e-03
3.90000000e-02	4.07781868e-02	5.25311737e-03
3.92500000e-02	4.06467286e-02	4.88369197e-03
3.95000000e-02	4.01591533e-02	4.61386915e-03
3.97500000e-02	4.05114736e-02	4.69709522e-03
4.00000000e-02	3.99871250e-02	4.58222667e-03
4.02500000e-02	3.88930771e-02	4.29498531e-03
4.05000000e-02	3.91870366e-02	4.22565595e-03
4.07500000e-02	3.78900530e-02	3.80038515e-03
4.10000000e-02	3.77889104e-02	4.21297484e-03
4.12500000e-02	3.82312698e-02	3.96661469e-03
4.15000000e-02	3.70714839e-02	3.87133051e-03
4.17500000e-02	3.69003082e-02	3.78205969e-03
4.20000000e-02	3.57991582e-02	3.61384916e-03
4.22500000e-02	3.59828874e-02	3.48351763e-03
4.25000000e-02	3.52816406e-02	3.33834193e-03
4.27500000e-02	3.55943699e-02	3.52508059e-03
4.30000000e-02	3.52931180e-02	3.21504731e-03
4.32500000e-02	3.35837533e-02	2.96433192e-03
4.35000000e-02	3.36414100e-02	2.98702849e-03
4.37500000e-02	3.40013797e-02	2.86657084e-03
4.40000000e-02	3.31552182e-02	2.87099764e-03
4.42500000e-02	3.29554313e-02	2.79607908e-03
4.45000000e-02	3.25554186e-02	2.69066679e-03
4.47500000e-02	3.31961142e-02	2.77082715e-03
4.50000000e-02	3.41527086e-02	2.71213853e-03
4.52500000e-02	3.33778065e-02	2.62512555e-03
4.55000000e-02	3.11501085e-02	2.29540850e-03
4.57500000e-02	3.24372164e-02	2.50292416e-03
4.60000000e-02	3.17465580e-02	2.40565833e-03
4.62500000e-02	3.13822017e-02	2.30693974e-03
4.65000000e-02	3.10753300e-02	2.28177202e-03
4.67500000e-02	3.06217820e-02	2.14042582e-03
4.70000000e-02	3.04596119e-02	2.15921895e-03
4.72500000e-02	3.09728247e-02	2.11511874e-03
4.75000000e-02	3.09256014e-02	2.02825806e-03
4.77500000e-02	3.10328824e-02	2.11663786e-03
4.80000000e-02	2.95440120e-02	1.90026045e-03
4.82500000e-02	2.99252318e-02	2.02532872e-03
4.85000000e-02	3.01203026e-02	1.98581624e-03
4.87500000e-02	2.85056615e-02	1.83729408e-03
4.90000000e-02	2.91486494e-02	1.82947680e-03
4.92500000e-02	2.91094157e-02	1.90820983e-03
4.95000000e-02	2.91147835e-02	1.80147880e-03
4.97500000e-02	2.92055069e-02	1.81891997e-03
5.00000000e-02	2.81566714e-02	1.71301920e-03
5.02500000e-02	2.78302259e-02	1.69150435e-03
5.05000000e-02	2.85369030e-02	1.67965428e-03
5.07500000e-02	2.83464419e-02	1.66325387e-03
5.10000000e-02	2.83508539e-02	1.58903863e-03
5.12500000e-02	2.83830379e-02	1.60998697e-03
5.15000000e-02	2.82194712e-02	1.57306940e-03
5.17500000e-02	2.76411164e-02	1.35667721e-03
5.20000000e-02	2.73882491e-02	1.54534149e-03
5.22500000e-02	2.68140703e-02	1.44716474e-03
5.25000000e-02	2.72653430e-02	1.31957998e-03
5.27500000e-02	2.79003953e-02	1.48226608e-03
5.30000000e-02	2.78746331e-02	1.49217677e-03
5.32500000e-02	2.69882992e-02	1.37228999e-03
5.35000000e-02	2.64951665e-02	1.33409904e-03
5.37500000e-02	2.74198479e-02	1.42212313e-03
5.40000000e-02	2.70560975e-02	1.36291636e-03
5.42500000e-02	2.64070341e-02	1.28085713e-03
5.45000000e-02	2.60670957e-02	1.25635385e-03
5.47500000e-02	2.64769984e-02	1.26620646e-03
5.50000000e-02	2.64538008e-02	1.27150572e-03
5.52500000e-02	2.60497712e-02	1.19938516e-03
5.55000000e-02	2.52409343e-02	1.17620859e-03
5.57500000e-02	2.63567723e-02	1.28406499e-03
5.60000000e-02	2.58831091e-02	1.21268886e-03
5.62500000e-02	2.55522538e-02	1.22180116e-03
5.65000000e-02	2.62771683e-02	1.23761807e-03
5.67500000e-02	2.63762841e-02	1.20536489e-03
5.70000000e-02	2.61972000e-02	1.19826250e-03
5.72500000e-02	2.51675186e-02	1.11944803e-03
5.75000000e-02	2.55015689e-02	1.14987041e-03
5.77500000e-02	2.54720678e-02	1.12827965e-03
5.80000000e-02	2.49694799e-02	1.11936798e-03
5.82500000e-02	2.49071684e-02	1.10782064e-03
5.85000000e-02	2.53550314e-02	1.11464883e-03
5.87500000e-02	2.54531234e-02	1.07644322e-03
5.90000000e-02	2.50787612e-02	1.11112175e-03
5.92500000e-02	2.48356664e-02	1.03750268e-03
5.95000000e-02	2.50724014e-02	1.07283580e-03
5.97500000e-02	2.49537226e-02	1.03623972e-03
6.00000000e-02	2.47305279e-02	1.06057008e-03
6.02500000e-02	2.49327678e-02	1.04123018e-03
6.05000000e-02	2.44665496e-02	9.95137723e-04
6.07500000e-02	2.43197730e-02	1.04723264e-03
6.10000000e-02	2.44414237e-02	9.94977942e-04
6.12500000e-02	2.42301463e-02	9.93753161e-04
6.15000000e-02	2.43369597e-02	9.86718668e-04
6.17500000e-02	2.45638017e-02	1.02194395e-03
6.20000000e-02	2.41544295e-02	9.83265445e-04
6.22500000e-02	2.43858172e-02	9.88136890e-04
6.25000000e-02	2.43275158e-02	9.65285265e-04
6.27500000e-02	2.39797110e-02	9.46552423e-04
6.30000000e-02	2.34988772e-02	9.16244614e-04
6.32500000e-02	2.38744548e-02	9.25932956e-04
6.35000000e-02	2.41446259e-02	9.39426672e-04
6.37500000e-02	2.37296483e-02	9.31158204e-04
6.40000000e-02	2.37872677e-02	9.11620944e-04
6.42500000e-02	2.37779503e-02	9.11342376e-04
6.45000000e-02	2.38422557e-02	9.05099439e-04
6.47500000e-02	2.41832685e-02	9.28352863e-04
6.50000000e-02	2.39344594e-02	9.24811991e-04
6.52500000e-02	2.37962371e-02	8.94924208e-04
6.55000000e-02	2.37858669e-02	9.06623263e-04
6.57500000e-02	2.34149895e-02	8.86691457e-04
6.60000000e-02	2.34697748e-02	8.87209121e-04
6.62500000e-02	2.34237523e-02	8.91145090e-04
6.65000000e-02	2.32525812e-02	8.69227322e-04
6.67500000e-02	2.33071422e-02	8.72615907e-04
6.70000000e-02	2.32791892e-02	8.74471374e-04
6.72500000e-02	2.31314304e-02	8.51502956e-04
6.75000000e-02	2.29787898e-02	8.47123809e-04
6.77500000e-02	2.31456470e-02	8.49797714e-04
6.80000000e-02	2.33193185e-02	8.61190700e-04
6.82500000e-02	2.38512642e-02	8.58950566e-04
6.85000000e-02	2.30252161e-02	8.45549451e-04
6.87500000e-02	2.32087352e-02	8.39668509e-04
6.90000000e-02	2.30659319e-02	8.32131877e-04
6.92500000e-02	2.33154620e-02	8.41028694e-04
6.95000000e-02	2.30653020e-02	8.42384966e-04
6.97500000e-02	2.29152334e-02	8.23285375e-04
7.00000000e-02	2.30381549e-02	8.18294096e-04
7.02500000e-02	2.28624841e-02	8.26392569e-04
7.05000000e-02	2.28875820e-02	8.16632768e-04
7.07500000e-02	2.28686517e-02	8.14012224e-04
7.10000000e-02	2.30874941e-02	8.21186956e-04
7.12500000e-02	2.27318948e-02	8.00299571e-04
7.15000000e-02	2.32482820e-02	8.18378206e-04
7.17500000e-02	2.39400473e-02	8.35218156e-04
7.20000000e-02	2.28379805e-02	8.11611218e-04
7.22500000e-02	2.33363770e-02	8.25029141e-04
7.25000000e-02	2.21637554e-02	7.72308023e-04
7.27500000e-02	2.30926658e-02	8.10334845e-04
7.30000000e-02	2.28666811e-02	8.01201269e-04
7.32500000e-02	2.23852842e-02	7.74194665e-04
7.35000000e-02	2.25783324e-02	7.85198742e-04
7.37500000e-02	2.24794321e-02	7.75829313e-04
7.40000000e-02	2.22257055e-02	7.78967963e-04
7.42500000e-02	2.22560023e-02	7.73527150e-04
7.45000000e-02	2.22627101e-02	7.73592692e-04
7.47500000e-02	2.22343181e-02	7.58605762e-04
7.50000000e-02	2.23851156e-02	7.69682657e-04
7.52500000e-02	2.24684971e-02	7.74183900e-04
7.55000000e-02	2.18496311e-02	7.46249361e-04
7.57500000e-02	2.23700045e-02	7.60458579e-04
7.60000000e-02	2.26574741e-02	7.65924335e-04
7.62500000e-02	2.17687225e-02	7.43994306e-04
7.65000000e-02	2.27598870e-02	7.66711423e-04
7.67500000e-02	2.15845317e-02	7.30785483e-04
7.70000000e-02	2.24544225e-02	7.54112446e-04
7.72500000e-02	2.20382268e-02	7.51605982e-04
7.75000000e-02	2.27919943e-02	7.84947715e-04
7.77500000e-02	2.16149589e-02	7.58181436e-04
7.80000000e-02	2.23199391e-02	7.83377063e-04
7.82500000e-02	2.24181141e-02	7.83307544e-04
7.85000000e-02	2.23187989e-02	7.89539719e-04
7.87500000e-02	2.21522044e-02	7.87316258e-04
7.90000000e-02	2.18941358e-02	7.85513004e-04
7.92500000e-02	2.20211884e-02	7.82488839e-04
7.95000000e-02	2.22674153e-02	7.94428185e-04
7.97500000e-02	2.22384904e-02	7.99423883e-04
8.00000000e-02	2.25908474e-02	8.17754844e-04
8.02500000e-02	2.19747529e-02	7.92180996e-04
8.05000000e-02	2.21650181e-02	7.92938193e-04
8.07500000e-02	2.19308172e-02	7.95791218e-04
8.10000000e-02	2.18581889e-02	7.86968619e-04
8.12500000e-02	2.16402701e-02	7.97984183e-04
8.15000000e-02	2.16024808e-02	7.74242992e-04
8.17500000e-02	2.23574454e-02	8.14558660e-04
8.20000000e-02	2.16116911e-02	7.83507412e-04
8.22500000e-02	2.21924031e-02	8.12649448e-04
8.25000000e-02	2.20340916e-02	8.06466317e-04
8.27500000e-02	2.18306534e-02	7.97098373e-04
8.30000000e-02	2.11092674e-02	7.79784695e-04
8.32500000e-02	2.14900066e-02	7.91272216e-04
8.35000000e-02	2.22346508e-02	8.13782667e-04
8.37500000e-02	2.17018874e-02	7.87297238e-04
8.40000000e-02	2.13715445e-02	7.84494068e-04
8.42500000e-02	2.13521047e-02	7.87746727e-04
8.45000000e-02	2.19864281e-02	8.12181980e-04
8.47500000e-02	2.18174450e-02	8.04641431e-04
8.50000000e-02	2.13991375e-02	7.85060475e-04
8.52500000e-02	2.13712538e-02	7.97744594e-04
8.55000000e-02	2.20673042e-02	8.09608501e-04
8.57500000e-02	2.15627988e-02	7.98754253e-04
8.60000000e-02	2.14446629e-02	7.97078661e-04
8.62500000e-02	2.08681131e-02	7.74476152e-04
8.65000000e-02	2.14338365e-02	7.93133359e-04
8.67500000e-02	2.14891097e-02	7.91652380e-04
8.70000000e-02	2.13519057e-02	7.79179632e-04
8.72500000e-02	2.16729927e-02	7.68126834e-04
8.75000000e-02	2.13490521e-02	7.60020119e-04
8.77500000e-02	2.18371312e-02	7.64461219e-04
8.80000000e-02	2.12167807e-02	7.46129170e-04
8.82500000e-02	2.12065382e-02	7.45406260e-04
8.85000000e-02	2.17557334e-02	7.61331677e-04
8.87500000e-02	2.12764716e-02	7.33199809e-04
8.90000000e-02	2.14532361e-02	7.35472461e-04
8.92500000e-02	2.13466595e-02	7.33329334e-04
8.95000000e-02	2.10689601e-02	7.23710688e-04
8.97500000e-02	2.09246669e-02	7.17586000e-04
9.00000000e-02	2.14435808e-02	7.23940940e-04
9.02500000e-02	2.10430034e-02	7.15625835e-04
9.05000000e-02	2.12038861e-02	7.18082566e-04
9.07500000e-02	2.14666333e-02	7.26683363e-04
9.10000000e-02	2.14678272e-02	7.17210257e-04
9.12500000e-02	2.11867464e-02	7.09215523e-04
9.15000000e-02	2.10021935e-02	7.09173747e-04
9.17500000e-02	2.14724468e-02	7.16914019e-04
9.20000000e-02	2.09132340e-02	6.93588155e-04
9.22500000e-02	2.05303968e-02	6.83457541e-04
9.25000000e-02	2.08348252e-02	6.91731474e-04
9.27500000e-02	2.08098400e-02	6.92557868e-04
9.30000000e-02	2.11881634e-02	7.00067173e-04
9.32500000e-02	2.09545173e-02	6.91095778e-04
9.35000000e-02	2.09739257e-02	6.90170619e-04
9.37500000e-02	2.15248467e-02	7.01967784e-04
9.40000000e-02	2.12065875e-02	6.97896407e-04
9.42500000e-02	2.13477816e-02	6.93496836e-04
9.45000000e-02	2.05719194e-02	6.67889223e-04
9.47500000e-02	2.07738255e-02	6.78081266e-04
9.50000000e-02	2.12550231e-02	6.92836013e-04
9.52500000e-02	2.07112851e-02	6.71058316e-04
9.55000000e-02	2.12027323e-02	6.82919249e-04
9.57500000e-02	2.07976129e-02	6.76324099e-04
9.60000000e-02	2.13432875e-02	6.87877900e-04
9.62500000e-02	2.05723705e-02	6.59645576e-04
9.65000000e-02	2.05581130e-02	6.63411206e-04
9.67500000e-02	2.09016159e-02	6.68901622e-04
9.70000000e-02	2.07452741e-02	6.66461325e-04
9.72500000e-02	2.07376473e-02	6.63827043e-04
9.75000000e-02	2.08342903e-02	6.60710773e-04
9.77500000e-02	2.10572519e-02	6.65374674e-04
9.80000000e-02	2.04667283e-02	6.55391411e-04
9.82500000e-02	2.04589538e-02	6.51718676e-04
9.85000000e-02	2.08551520e-02	6.62298412e-04
9.87500000e-02	2.11920613e-02	6.71885932e-04
9.90000000e-02	2.09880563e-02	6.58171709e-04
9.92500000e-02	2.08222583e-02	6.60853545e-04
9.95000000e-02	2.07386177e-02	6.58285353e-04
9.97500000e-02	2.03896018e-02	6.47557815e-04
1.00000000e-01	2.06478519e-02	5.30231966e-04
1.00500000e-01	2.11389621e-02	4.66428181e-04
1.01000000e-01	2.04457922e-02	4.52589056e-04
1.01500000e-01	2.09171963e-02	4.61004467e-04
1.02000000e-01	2.04320056e-02	4.49621559e-04
1.02500000e-01	2.04994518e-02	4.47115335e-04
1.03000000e-01	2.06566502e-02	4.53389055e-04
1.03500000e-01	2.07720616e-02	4.51430092e-04
1.04000000e-01	2.05455809e-02	4.48093038e-04
1.04500000e-01	2.09355217e-02	4.54368018e-04
1.05000000e-01	2.07021691e-02	4.45359258e-04
1.05500000e-01	2.03728117e-02	4.40389278e-04
1.06000000e-01	2.07349603e-02	4.47268218e-04
1.06500000e-01	2.07311150e-02	4.45583837e-04
1.07000000e-01	2.04781188e-02	4.45699779e-04
1.07500000e-01	2.06399491e-02	4.55913131e-04
1.08000000e-01	2.04858641e-02	4.60677077e-04
1.08500000e-01	2.04839522e-02	4.61545306e-04
1.09000000e-01	2.04521538e-02	4.64111782e-04
1.09500000e-01	2.03781601e-02	4.62880496e-04
1.10000000e-01	2.03860690e-02	4.56648767e-04
1.10500000e-01	2.03936204e-02	4.53161338e-04
1.11000000e-01	2.05381538e-02	4.44054670e-04
1.11500000e-01	2.05191368e-02	4.41932334e-04
1.12000000e-01	2.05077251e-02	4.37348518e-04
1.12500000e-01	2.06379854e-02	4.35448692e-04
1.13000000e-01	2.02830799e-02	4.29788819e-04
1.13500000e-01	2.06198058e-02	4.35236235e-04
1.14000000e-01	2.05609300e-02	4.30777536e-04
1.14500000e-01	2.03696880e-02	4.26785152e-04
1.15000000e-01	2.07338256e-02	4.30770748e-04
1.15500000e-01	2.04599970e-02	4.26054603e-04
1.16000000e-01	2.07488468e-02	4.29510434e-04
1.16500000e-01	2.02024101e-02	4.18278093e-04
1.17000000e-01	2.01058715e-02	4.18364842e-04
1.17500000e-01	2.02804718e-02	4.19694366e-04
1.18000000e-01	2.04731311e-02	4.22629711e-04
1.18500000e-01	2.02923542e-02	4.16698526e-04
1.19000000e-01	2.00139683e-02	4.07977429e-04
1.19500000e-01	2.04022806e-02	4.15266708e-04
1.20000000e-01	2.02411087e-02	4.10523116e-04
1.20500000e-01	2.02092622e-02	4.11861224e-04
1.21000000e-01	2.03105893e-02	4.11030013e-04
1.21500000e-01	2.03806902e-02	4.10908935e-04
1.22000000e-01	2.00230418e-02	4.03532912e-04
1.22500000e-01	2.06585958e-02	4.14138106e-04
1.23000000e-01	2.02770918e-02	4.08106864e-04
1.23500000e-01	2.01518083e-02	4.04443599e-04
1.24000000e-01	2.02518571e-02	4.05518405e-04
1.24500000e-01	2.02842250e-02	4.04169320e-04
1.25000000e-01	2.02828797e-02	4.04055485e-04
1.25500000e-01	2.03495163e-02	4.05270513e-04
1.26000000e-01	2.03061252e-02	4.03153737e-04
1.26500000e-01	2.01447386e-02	3.98312204e-04
1.27000000e-01	2.04125724e-02	4.01641148e-04
1.27500000e-01	2.02715071e-02	3.99670009e-04
1.28000000e-01	2.02508960e-02	3.97131643e-04
1.28500000e-01	2.08138432e-02	4.06435998e-04
1.29000000e-01	2.05363974e-02	4.01297094e-04
1.29500000e-01	2.02343492e-02	3.94710066e-04
1.30000000e-01	2.06745797e-02	4.05094319e-04
1.30500000e-01	2.03781595e-02	3.96049711e-04
1.31000000e-01	2.04595590e-02	3.97223126e-04
1.31500000e-01	2.03972348e-02	3.96017437e-04
1.32000000e-01	2.03400015e-02	3.93047817e-04
1.32500000e-01	2.07711772e-02	3.99938237e-04
1.33000000e-01	2.01338174e-02	3.89039934e-04
1.33500000e-01	2.05126811e-02	3.90771643e-04
1.34000000e-01	2.03913857e-02	3.90614834e-04
1.34500000e-01	2.01042904e-02	3.83970119e-04
1.35000000e-01	2.04443822e-02	3.88223707e-04
1.35500000e-01	2.03305080e-02	3.84351446e-04
1.36000000e-01	1.99103503e-02	3.77075997e-04
1.36500000e-01	2.05355703e-02	3.89412765e-04
1.37000000e-01	2.05437222e-02	3.86063881e-04
1.37500000e-01	2.03953186e-02	3.84233297e-04
1.38000000e-01	2.01445068e-02	3.80114808e-04
1.38500000e-01	2.03188129e-02	3.81159841e-04
1.39000000e-01	2.01971971e-02	3.80601646e-04
1.39500000e-01	2.02510573e-02	3.80853465e-04
1.40000000e-01	2.00369143e-02	3.78270448e-04
1.40500000e-01	1.98374370e-02	3.73668633e-04
1.41000000e-01	1.99600290e-02	3.73155688e-04
1.41500000e-01	2.02491714e-02	3.78416164e-04
1.42000000e-01	2.01703119e-02	3.74143043e-04
1.42500000e-01	1.98771063e-02	3.71308951e-04
1.43000000e-01	2.00846051e-02	3.72311364e-04
1.43500000e-01	1.98019171e-02	3.67466420e-04
1.44000000e-01	1.97803895e-02	3.67300663e-04
1.44500000e-01	2.00062815e-02	3.68186538e-04
1.45000000e-01	1.96587683e-02	3.64392659e-04
1.45500000e-01	1.99100593e-02	3.67885609e-04
1.46000000e-01	1.97928573e-02	3.63803222e-04
1.46500000e-01	1.99621577e-02	3.66562135e-04
1.47000000e-01	2.01620060e-02	3.68846636e-04
1.47500000e-01	1.97861488e-02	3.63895236e-04
1.48000000e-01	1.97117944e-02	3.61413797e-04
1.48500000e-01	1.97424128e-02	3.62140067e-04
1.49000000e-01	1.97866097e-02	3.59516874e-04
1.49500000e-01	1.95434211e-02	3.57897365e-04
1.50000000e-01	2.00227442e-02	3.63224372e-04
1.50500000e-01	1.98082839e-02	3.60693179e-04
1.51000000e-01	1.97752411e-02	3.58526866e-04
1.51500000e-01	2.01093314e-02	3.62163702e-04
1.52000000e-01	1.95569148e-02	3.52345411e-04
1.52500000e-01	1.97045529e-02	3.54149733e-04
1.53000000e-01	1.98251926e-02	3.57000140e-04
1.53500000e-01	1.99142855e-02	3.56970176e-04
1.54000000e-01	1.96221588e-02	3.49858272e-04
1.54500000e-01	1.98810884e-02	3.62759177e-04
1.55000000e-01	1.97024898e-02	3.64719123e-04
1.55500000e-01	1.94654993e-02	3.61564242e-04
1.56000000e-01	1.96679296e-02	3.66605246e-04
1.56500000e-01	1.95481094e-02	3.67985693e-04
1.57000000e-01	1.97121697e-02	3.69430247e-04
1.57500000e-01	1.95859095e-02	3.59696237e-04
1.58000000e-01	1.96317766e-02	3.55827975e-04
1.58500000e-01	1.97534274e-02	3.56937715e-04
1.59000000e-01	1.94250298e-02	3.48677996e-04
1.59500000e-01	1.94690279e-02	3.48388818e-04
1.60000000e-01	1.94152883e-02	3.48263735e-04
1.60500000e-01	1.97067457e-02	3.49671229e-04
1.61000000e-01	1.97405524e-02	3.51538392e-04
1.61500000e-01	1.95656617e-02	3.43879036e-04
1.62000000e-01	1.97129214e-02	3.46669572e-04
1.62500000e-01	2.00521663e-02	3.53428572e-04
1.63000000e-01	1.93160271e-02	3.39776230e-04
1.63500000e-01	1.94985342e-02	3.44118710e-04
1.64000000e-01	1.96775851e-02	3.46196157e-04
1.64500000e-01	1.93893299e-02	3.40389268e-04
1.65000000e-01	1.96526556e-02	3.44608542e-04
1.65500000e-01	1.92999591e-02	3.37100648e-04
1.66000000e-01	1.95364979e-02	3.40985403e-04
1.66500000e-01	1.94361299e-02	3.38502144e-04
1.67000000e-01	1.93839998e-02	3.36591246e-04
1.67500000e-01	1.94418298e-02	3.37751518e-04
1.68000000e-01	1.89560630e-02	3.29140995e-04
1.68500000e-01	1.92037483e-02	3.31046717e-04
1.69000000e-01	1.91684953e-02	3.32480115e-04
1.69500000e-01	1.94252079e-02	3.35210293e-04
1.70000000e-01	1.93091278e-02	3.33068781e-04
1.70500000e-01	1.94035830e-02	3.33122495e-04
1.71000000e-01	1.89334703e-02	3.26352977e-04
1.71500000e-01	1.94728580e-02	3.33962177e-04
1.72000000e-01	1.92921156e-02	3.30815378e-04
1.72500000e-01	1.92805694e-02	3.29896012e-04
1.73000000e-01	1.91803703e-02	3.28191060e-04
1.73500000e-01	1.89425176e-02	3.22386572e-04
1.74000000e-01	1.93506092e-02	3.28655196e-04
1.74500000e-01	1.91716685e-02	3.24195984e-04
1.75000000e-01	1.89653424e-02	3.19385712e-04
1.75500000e-01	1.90272251e-02	3.21102887e-04
1.76000000e-01	1.91726167e-02	3.23852526e-04
1.76500000e-01	1.93808845e-02	3.26305448e-04
1.77000000e-01	1.90076846e-02	3.20439880e-04
1.77500000e-01	1.89902166e-02	3.20115082e-04
1.78000000e-01	1.90947600e-02	3.19965558e-04
1.78500000e-01	1.90915778e-02	3.20391376e-04
1.79000000e-01	1.91194041e-02	3.19848884e-04
1.79500000e-01	1.90467900e-02	3.19857599e-04
1.80000000e-01	1.92180214e-02	3.22838337e-04
1.80500000e-01	1.89935464e-02	3.18139277e-04
1.81000000e-01	1.92103945e-02	3.21279116e-04
1.81500000e-01	1.91500550e-02	3.19209203e-04
1.82000000e-01	1.90550054e-02	3.19410576e-04
1.82500000e-01	1.91097439e-02	3.17897652e-04
1.83000000e-01	1.89210982e-02	3.14291265e-04
1.83500000e-01	1.88551993e-02	3.12506881e-04
1.84000000e-01	1.89240518e-02	3.13687539e-04
1.84500000e-01	1.88789051e-02	3.12984974e-04
1.85000000e-01	1.91152263e-02	3.17992562e-04
1.85500000e-01	1.91796505e-02	3.15691106e-04
1.86000000e-01	1.91390159e-02	3.14850288e-04
1.86500000e-01	1.90199317e-02	3.14017342e-04
1.87000000e-01	1.86844765e-02	3.07117015e-04
1.87500000e-01	1.88748947e-02	3.08376515e-04
1.88000000e-01	1.89388392e-02	3.10394005e-04
1.88500000e-01	1.87833422e-02	3.07967703e-04
1.89000000e-01	1.84881790e-02	3.01945488e-04
1.89500000e-01	1.89022712e-02	3.09881115e-04
1.90000000e-01	1.90397233e-02	3.09874154e-04
1.90500000e-01	1.86818895e-02	3.04219306e-04
1.91000000e-01	1.90141780e-02	3.08066656e-04
1.91500000e-01	1.85999449e-02	3.02852479e-04
1.92000000e-01	1.87830151e-02	3.04059617e-04
1.92500000e-01	1.87346803e-02	3.04798908e-04
1.93000000e-01	1.85785286e-02	3.02760758e-04
1.93500000e-01	1.89463202e-02	3.06634219e-04
1.94000000e-01	1.88399031e-02	3.04864245e-04
1.94500000e-01	1.86664277e-02	3.01802522e-04
1.95000000e-01	1.87709128e-02	3.03743971e-04
1.95500000e-01	1.86341085e-02	3.00339695e-04
1.96000000e-01	1.84660020e-02	2.96966139e-04
1.96500000e-01	1.87325220e-02	3.01440734e-04
1.97000000e-01	1.87177118e-02	3.01042690e-04
1.97500000e-01	1.83808057e-02	2.94823664e-04
1.98000000e-01	1.87494673e-02	3.00561864e-04
1.98500000e-01	1.85221754e-02	2.96950218e-04
1.99000000e-01	1.86398668e-02	2.98209332e-04
1.99500000e-01	1.86677734e-02	2.97257600e-04
2.00000000e-01	1.86352329e-02	2.97368470e-04
2.00500000e-01	1.89282751e-02	3.01070470e-04
2.01000000e-01	1.86357687e-02	2.95811956e-04
2.01500000e-01	1.84937091e-02	2.94590867e-04
2.02000000e-01	1.85889417e-02	2.95710651e-04
2.02500000e-01	1.84554743e-02	2.92098226e-04
2.03000000e-01	1.87801921e-02	2.96252605e-04
2.03500000e-01	1.86339082e-02	2.95280405e-04
2.04000000e-01	1.83838476e-02	2.89266790e-04
2.04500000e-01	1.84748983e-02	2.91912024e-04
2.05000000e-01	1.86000916e-02	2.91873347e-04
2.05500000e-01	1.87944255e-02	2.96245597e-04
2.06000000e-01	1.84583227e-02	2.89439528e-04
2.06500000e-01	1.85839438e-02	2.91354057e-04
2.07000000e-01	1.83996367e-02	2.88987139e-04
2.07500000e-01	1.84948945e-02	2.89052011e-04
2.08000000e-01	1.84367876e-02	2.88595411e-04
2.08500000e-01	1.86818787e-02	2.90704170e-04
2.09000000e-01	1.84632899e-02	2.88638427e-04
2.09500000e-01	1.84876379e-02	2.87498041e-04
2.10000000e-01	1.84788628e-02	2.87158778e-04
2.10500000e-01	1.85672414e-02	2.89208761e-04
2.11000000e-01	1.83900807e-02	2.84862119e-04
2.11500000e-01	1.82956583e-02	2.84602590e-04
2.12000000e-01	1.85429985e-02	2.86483110e-04
2.12500000e-01	1.83309152e-02	2.82890415e-04
2.13000000e-01	1.83444084e-02	2.82729361e-04
2.13500000e-01	1.82381673e-02	2.80642419e-04
2.14000000e-01	1.84496949e-02	2.85676818e-04
2.14500000e-01	1.82606920e-02	2.81109298e-04
2.15000000e-01	1.82077682e-02	2.82305578e-04
2.15500000e-01	1.81901433e-02	2.80571092e-04
2.16000000e-01	1.82029847e-02	2.80649920e-04
2.16500000e-01	1.85288004e-02	2.83460653e-04
2.17000000e-01	1.82676980e-02	2.84700252e-04
2.17500000e-01	1.82558961e-02	2.88796294e-04
2.18000000e-01	1.81215661e-02	2.86751124e-04
2.18500000e-01	1.80996419e-02	2.88011658e-04
2.19000000e-01	1.80834766e-02	2.89281016e-04
2.19500000e-01	1.81447181e-02	2.92466242e-04
2.20000000e-01	1.82153031e-02	2.94594951e-04
2.20500000e-01	1.82636640e-02	2.94419457e-04
2.21000000e-01	1.82711181e-02	2.96343308e-04
2.21500000e-01	1.82126300e-02	2.95349003e-04
2.22000000e-01	1.81364469e-02	2.94743151e-04
2.22500000e-01	1.80895768e-02	2.94502886e-04
2.23000000e-01	1.83290125e-02	2.99165568e-04
2.23500000e-01	1.82570244e-02	3.00114481e-04
2.24000000e-01	1.82913058e-02	3.00550236e-04
2.24500000e-01	1.78704870e-02	2.94100398e-04
2.25000000e-01	1.81897433e-02	3.00283180e-04
2.25500000e-01	1.81225021e-02	2.99536394e-04
2.26000000e-01	1.81589621e-02	3.01692628e-04
2.26500000e-01	1.80547984e-02	2.95210739e-04
2.27000000e-01	1.81546799e-02	2.92921755e-04
2.27500000e-01	1.81818779e-02	2.92623920e-04
2.28000000e-01	1.83742211e-02	2.93465433e-04
2.28500000e-01	1.80478397e-02	2.87615017e-04
2.29000000e-01	1.80450307e-02	2.85830676e-04
2.29500000e-01	1.79734479e-02	2.82993336e-04
2.30000000e-01	1.80234037e-02	2.82262417e-04
2.30500000e-01	1.81254787e-02	2.82347345e-04
2.31000000e-01	1.80231721e-02	2.81445191e-04
2.31500000e-01	1.80448782e-02	2.81145766e-04
2.32000000e-01	1.79180979e-02	2.78561993e-04
2.32500000e-01	1.83304223e-02	2.83906415e-04
2.33000000e-01	1.81861220e-02	2.81415213e-04
2.33500000e-01	1.80149467e-02	2.79065321e-04
2.34000000e-01	1.78581871e-02	2.75674357e-04
2.34500000e-01	1.80564323e-02	2.77376697e-04
2.35000000e-01	1.79011375e-02	2.75213343e-04
2.35500000e-01	1.79832656e-02	2.76148708e-04
2.36000000e-01	1.78769869e-02	2.73864206e-04
2.36500000e-01	1.77595153e-02	2.71826556e-04
2.37000000e-01	1.79577360e-02	2.74473134e-04
2.37500000e-01	1.80044665e-02	2.74333350e-04
2.38000000e-01	1.78799357e-02	2.71416436e-04
2.38500000e-01	1.77914692e-02	2.71751880e-04
2.39000000e-01	1.79760565e-02	2.71374161e-04
2.39500000e-01	1.79149272e-02	2.71182223e-04
2.40000000e-01	1.79796056e-02	2.71567283e-04
2.40500000e-01	1.77350913e-02	2.66669644e-04
2.41000000e-01	1.76851904e-02	2.66485697e-04
2.41500000e-01	1.81594917e-02	2.71676549e-04
2.42000000e-01	1.77452557e-02	2.66717270e-04
2.42500000e-01	1.79079837e-02	2.68283996e-04
2.43000000e-01	1.78442586e-02	2.66956273e-04
2.43500000e-01	1.80206758e-02	2.69204808e-04
2.44000000e-01	1.78854344e-02	2.66490306e-04
2.44500000e-01	1.78355927e-02	2.64445976e-04
2.45000000e-01	1.81469989e-02	2.69272007e-04
2.45500000e-01	1.78165256e-02	2.65491010e-04
2.46000000e-01	1.78229263e-02	2.64684461e-04
2.46500000e-01	1.78083372e-02	2.63648212e-04
2.47000000e-01	1.80659677e-02	2.68896350e-04
2.47500000e-01	1.78531832e-02	2.62891475e-04
2.48000000e-01	1.78261683e-02	2.63120389e-04
2.48500000e-01	1.76676855e-02	2.60246215e-04
2.49000000e-01	1.76507089e-02	2.60280767e-04
2.49500000e-01	1.76959118e-02	2.60982903e-04
2.50000000e-01	1.78266353e-02	2.61806148e-04
2.50500000e-01	1.78339129e-02	2.62846676e-04
2.51000000e-01	1.77300349e-02	2.60258380e-04
2.51500000e-01	1.78511313e-02	2.62609728e-04
2.52000000e-01	1.75355492e-02	2.57912479e-04
2.52500000e-01	1.79433180e-02	2.62064141e-04
2.53000000e-01	1.77732400e-02	2.60946471e-04
2.53500000e-01	1.76542779e-02	2.58342669e-04
2.54000000e-01	1.76175675e-02	2.57574399e-04
2.54500000e-01	1.76561700e-02	2.57231978e-04
2.55000000e-01	1.76590564e-02	2.56836390e-04
2.55500000e-01	1.77466311e-02	2.58851274e-04
2.56000000e-01	1.78261051e-02	2.58206531e-04
2.56500000e-01	1.78341916e-02	2.58793957e-04
2.57000000e-01	1.76491758e-02	2.55978218e-04
2.57500000e-01	1.76189523e-02	2.54270707e-04
2.58000000e-01	1.75345326e-02	2.53298471e-04
2.58500000e-01	1.73088560e-02	2.50993740e-04
2.59000000e-01	1.76964974e-02	2.56231880e-04
2.59500000e-01	1.74854250e-02	2.52478991e-04
2.60000000e-01	1.74730432e-02	2.52383359e-04
2.60500000e-01	1.75678579e-02	2.53229147e-04
2.61000000e-01	1.75358033e-02	2.51561274e-04
2.61500000e-01	1.75209970e-02	2.51743110e-04
2.62000000e-01	1.78050215e-02	2.54546641e-04
2.62500000e-01	1.75362983e-02	2.51783945e-04
2.63000000e-01	1.74098655e-02	2.49559187e-04
2.63500000e-01	1.76646534e-02	2.51362225e-04
2.64000000e-01	1.73528477e-02	2.48391600e-04
2.64500000e-01	1.74274258e-02	2.48342526e-04
2.65000000e-01	1.74109385e-02	2.48320682e-04
2.65500000e-01	1.73152638e-02	2.46299874e-04
2.66000000e-01	1.75495666e-02	2.49661875e-04
2.66500000e-01	1.76356820e-02	2.49588678e-04
2.67000000e-01	1.75988924e-02	2.49884947e-04
2.67500000e-01	1.74784350e-02	2.47038674e-04
2.68000000e-01	1.74392564e-02	2.47178159e-04
2.68500000e-01	1.74311575e-02	2.45582075e-04
2.69000000e-01	1.73831119e-02	2.45033682e-04
2.69500000e-01	1.76281194e-02	2.47926209e-04
2.70000000e-01	1.73572528e-02	2.44298426e-04
2.70500000e-01	1.74769774e-02	2.46200048e-04
2.71000000e-01	1.73900970e-02	2.44255995e-04
2.71500000e-01	1.76763661e-02	2.48212425e-04
2.72000000e-01	1.73230284e-02	2.43469952e-04
2.72500000e-01	1.73967004e-02	2.43341606e-04
2.73000000e-01	1.75348582e-02	2.45405273e-04
2.73500000e-01	1.72105611e-02	2.41162028e-04
2.74000000e-01	1.72559891e-02	2.42163817e-04
2.74500000e-01	1.74147970e-02	2.42850913e-04
2.75000000e-01	1.76190130e-02	2.44669846e-04
2.75500000e-01	1.71997916e-02	2.39890579e-04
2.76000000e-01	1.72646745e-02	2.40289581e-04
2.76500000e-01	1.72973948e-02	2.40567671e-04
2.77000000e-01	1.73963484e-02	2.41902891e-04
2.77500000e-01	1.72945613e-02	2.41058820e-04
2.78000000e-01	1.72776807e-02	2.39290920e-04
2.78500000e-01	1.74335315e-02	2.41227224e-04
2.79000000e-01	1.73039866e-02	2.39602911e-04
2.79500000e-01	1.73205473e-02	2.39587999e-04
2.80000000e-01	1.72868779e-02	2.39386874e-04
2.80500000e-01	1.72025001e-02	2.38039561e-04
2.81000000e-01	1.71985158e-02	2.38641105e-04
2.81500000e-01	1.71983834e-02	2.37232019e-04
2.82000000e-01	1.72836356e-02	2.39046725e-04
2.82500000e-01	1.71709792e-02	2.37111339e-04
2.83000000e-01	1.73473031e-02	2.38714011e-04
2.83500000e-01	1.72458601e-02	2.37092601e-04
2.84000000e-01	1.73465411e-02	2.37028152e-04
2.84500000e-01	1.72825017e-02	2.37183055e-04
2.85000000e-01	1.71149722e-02	2.34823472e-04
2.85500000e-01	1.70036430e-02	2.31964314e-04
2.86000000e-01	1.71783227e-02	2.36232141e-04
2.86500000e-01	1.70961787e-02	2.34394310e-04
2.87000000e-01	1.69863545e-02	2.31993711e-04
2.87500000e-01	1.70479645e-02	2.32426794e-04
2.88000000e-01	1.70022811e-02	2.30617428e-04
2.88500000e-01	1.71492371e-02	2.33955588e-04
2.89000000e-01	1.70821689e-02	2.32541339e-04
2.89500000e-01	1.71089009e-02	2.32829788e-04
2.90000000e-01	1.69418448e-02	2.30306485e-04
2.90500000e-01	1.69009431e-02	2.28967578e-04
2.91000000e-01	1.71837077e-02	2.32379770e-04
2.91500000e-01	1.70128181e-02	2.30255761e-04
2.92000000e-01	1.69888466e-02	2.29310908e-04
2.92500000e-01	1.71312573e-02	2.30951735e-04
2.93000000e-01	1.69307434e-02	2.28896242e-04
2.93500000e-01	1.68096166e-02	2.27181815e-04
2.94000000e-01	1.71048592e-02	2.30020300e-04
2.94500000e-01	1.70286104e-02	2.29717602e-04
2.95000000e-01	1.70625164e-02	2.28522908e-04
2.95500000e-01	1.70456393e-02	2.29355730e-04
2.96000000e-01	1.72710271e-02	2.31538085e-04
2.96500000e-01	1.69906320e-02	2.28532288e-04
2.97000000e-01	1.70830877e-02	2.29069756e-04
2.97500000e-01	1.69484697e-02	2.26598808e-04
2.98000000e-01	1.69690436e-02	2.28147274e-04
2.98500000e-01	1.69543903e-02	2.27511467e-04
2.99000000e-01	1.69247099e-02	2.26264652e-04
2.99500000e-01	1.68205680e-02	2.25004312e-04
3.00000000e-01	1.70013549e-02	2.27480205e-04
3.00500000e-01	1.69562665e-02	2.25364942e-04
3.01000000e-01	1.69377959e-02	2.25218094e-04
3.01500000e-01	1.71150683e-02	2.28815685e-04
3.02000000e-01	1.69653002e-02	2.25497984e-04
3.02500000e-01	1.70137466e-02	2.26073451e-04
3.03000000e-01	1.70256512e-02	2.27344696e-04
3.03500000e-01	1.68754811e-02	2.24255155e-04
3.04000000e-01	1.69697348e-02	2.26193341e-04
3.04500000e-01	1.68591311e-02	2.22849498e-04
3.05000000e-01	1.68024355e-02	2.23041375e-04
3.05500000e-01	1.68898331e-02	2.23481837e-04
3.06000000e-01	1.69972599e-02	2.23193496e-04
3.06500000e-01	1.68090911e-02	2.21925998e-04
3.07000000e-01	1.67530705e-02	2.21036894e-04
3.07500000e-01	1.68131704e-02	2.21546264e-04
3.08000000e-01	1.69184884e-02	2.22427436e-04
3.08500000e-01	1.67910020e-02	2.20612643e-04
3.09000000e-01	1.69987398e-02	2.23241625e-04
3.09500000e-01	1.68642428e-02	2.21978999e-04
3.10000000e-01	1.68560647e-02	2.21561398e-04
3.10500000e-01	1.69202426e-02	2.21673487e-04
3.11000000e-01	1.67970385e-02	2.19631144e-04
3.11500000e-01	1.67942294e-02	2.19897813e-04
3.12000000e-01	1.67671045e-02	2.18654802e-04
3.12500000e-01	1.67522448e-02	2.19451887e-04
3.13000000e-01	1.70142179e-02	2.22302305e-04
3.13500000e-01	1.69045647e-02	2.20738175e-04
3.14000000e-01	1.67713506e-02	2.19098170e-04
3.14500000e-01	1.68834671e-02	2.19658788e-04
3.15000000e-01	1.67698831e-02	2.19518551e-04
3.15500000e-01	1.67906757e-02	2.18812478e-04
3.16000000e-01	1.67465202e-02	2.18399390e-04
3.16500000e-01	1.68589305e-02	2.18387610e-04
3.17000000e-01	1.66189914e-02	2.16312618e-04
3.17500000e-01	1.67792503e-02	2.18475856e-04
3.18000000e-01	1.66101078e-02	2.15073489e-04
3.18500000e-01	1.65091596e-02	2.14446725e-04
3.19000000e-01	1.67783299e-02	2.17004099e-04
3.19500000e-01	1.65871332e-02	2.14633579e-04
3.20000000e-01	1.67646800e-02	2.17101238e-04
3.20500000e-01	1.68736941e-02	2.18367797e-04
3.21000000e-01	1.65716101e-02	2.13892673e-04
3.21500000e-01	1.67886105e-02	2.16321229e-04
3.22000000e-01	1.65343191e-02	2.12759609e-04
3.22500000e-01	1.65205800e-02	2.12694065e-04
3.23000000e-01	1.65346817e-02	2.12995898e-04
3.23500000e-01	1.66308736e-02	2.13670455e-04
3.24000000e-01	1.63291974e-02	2.10072746e-04
3.24500000e-01	1.64075141e-02	2.11446516e-04
3.25000000e-01	1.65755807e-02	2.12706024e-04
3.25500000e-01	1.65259367e-02	2.12012662e-04
3.26000000e-01	1.64766131e-02	2.11619252e-04
3.26500000e-01	1.64540788e-02	2.10099000e-04
3.27000000e-01	1.64790129e-02	2.11069408e-04
3.27500000e-01	1.64853036e-02	2.11266099e-04
3.28000000e-01	1.64494519e-02	2.10778204e-04
3.28500000e-01	1.64694615e-02	2.10331126e-04
3.29000000e-01	1.64127246e-02	2.09580210e-04
3.29500000e-01	1.64393637e-02	2.10511861e-04
3.30000000e-01	1.64202271e-02	2.08842209e-04
3.30500000e-01	1.64800664e-02	2.10220330e-04
3.31000000e-01	1.65616498e-02	2.10285286e-04
3.31500000e-01	1.63673315e-02	2.08488022e-04
3.32000000e-01	1.65568015e-02	2.10626351e-04
3.32500000e-01	1.63077028e-02	2.07395239e-04
3.33000000e-01	1.63639014e-02	2.08013216e-04
3.33500000e-01	1.64941640e-02	2.09189785e-04
3.34000000e-01	1.64523863e-02	2.08205752e-04
3.34500000e-01	1.62271280e-02	2.06485196e-04
3.35000000e-01	1.64674800e-02	2.07650160e-04
3.35500000e-01	1.62853491e-02	2.05718948e-04
3.36000000e-01	1.63967750e-02	2.06745053e-04
3.36500000e-01	1.63481933e-02	2.06077655e-04
3.37000000e-01	1.61336824e-02	2.03678960e-04
3.37500000e-01	1.62708873e-02	2.05367778e-04
3.38000000e-01	1.64330189e-02	2.07271276e-04
3.38500000e-01	1.62939602e-02	2.04285837e-04
3.39000000e-01	1.63260573e-02	2.05918710e-04
3.39500000e-01	1.62800163e-02	2.04829434e-04
3.40000000e-01	1.62066083e-02	2.04876453e-04
3.40500000e-01	1.61460178e-02	2.02902215e-04
3.41000000e-01	1.64553768e-02	2.05859414e-04
3.41500000e-01	1.61840542e-02	2.03817095e-04
3.42000000e-01	1.60481769e-02	2.01153399e-04
3.42500000e-01	1.61994776e-02	2.03222335e-04
3.43000000e-01	1.61843178e-02	2.02294286e-04
3.43500000e-01	1.63073854e-02	2.03481069e-04
3.44000000e-01	1.61085946e-02	2.02048678e-04
3.44500000e-01	1.62953711e-02	2.03601859e-04
3.45000000e-01	1.62059725e-02	2.02462440e-04
3.45500000e-01	1.61827082e-02	2.01776956e-04
3.46000000e-01	1.62413918e-02	2.02541226e-04
3.46500000e-01	1.61597500e-02	2.01545261e-04
3.47000000e-01	1.61921966e-02	2.00990275e-04
3.47500000e-01	1.62146236e-02	2.01903209e-04
3.48000000e-01	1.62922812e-02	2.02235352e-04
3.48500000e-01	1.60226948e-02	1.99296581e-04
3.49000000e-01	1.62429977e-02	2.00464761e-04
3.49500000e-01	1.60448354e-02	1.99311602e-04
3.50000000e-01	1.61964486e-02	1.63529740e-04
3.51000000e-01	1.60600554e-02	1.40877612e-04
3.52000000e-01	1.60529214e-02	1.40354552e-04
3.53000000e-01	1.60182754e-02	1.39781295e-04
3.54000000e-01	1.59962053e-02	1.39248250e-04
3.55000000e-01	1.60773126e-02	1.39916943e-04
3.56000000e-01	1.59993682e-02	1.39597866e-04
3.57000000e-01	1.59334012e-02	1.41723877e-04
3.58000000e-01	1.59414755e-02	1.42776247e-04
3.59000000e-01	1.59597229e-02	1.44138894e-04
3.60000000e-01	1.58288535e-02	1.44098463e-04
3.61000000e-01	1.58408319e-02	1.44597851e-04
3.62000000e-01	1.58421927e-02	1.45442955e-04
3.63000000e-01	1.58324451e-02	1.45999627e-04
3.64000000e-01	1.57944887e-02	1.46180081e-04
3.65000000e-01	1.58754886e-02	1.46928126e-04
3.66000000e-01	1.57340126e-02	1.44222668e-04
3.67000000e-01	1.57657396e-02	1.42597109e-04
3.68000000e-01	1.57315582e-02	1.41601622e-04
3.69000000e-01	1.57435265e-02	1.40568549e-04
3.70000000e-01	1.57593026e-02	1.40399983e-04
3.71000000e-01	1.56978730e-02	1.41112835e-04
3.72000000e-01	1.56259187e-02	1.41741477e-04
3.73000000e-01	1.57239685e-02	1.42956037e-04
3.74000000e-01	1.59000763e-02	1.44243210e-04
3.75000000e-01	1.56185379e-02	1.42385338e-04
3.76000000e-01	1.54931265e-02	1.41044115e-04
3.77000000e-01	1.58308239e-02	1.43877766e-04
3.78000000e-01	1.56681555e-02	1.43027382e-04
3.79000000e-01	1.56086617e-02	1.42184412e-04
3.80000000e-01	1.56569050e-02	1.41960996e-04
3.81000000e-01	1.56227834e-02	1.41854326e-04
3.82000000e-01	1.56231653e-02	1.41868165e-04
3.83000000e-01	1.55409835e-02	1.40982232e-04
3.84000000e-01	1.55790389e-02	1.41360025e-04
3.85000000e-01	1.54936192e-02	1.41196164e-04
3.86000000e-01	1.55153173e-02	1.40887266e-04
3.87000000e-01	1.55447607e-02	1.41205746e-04
3.88000000e-01	1.56123275e-02	1.41595048e-04
3.89000000e-01	1.55354478e-02	1.41193109e-04
3.90000000e-01	1.55019548e-02	1.40207068e-04
3.91000000e-01	1.54988675e-02	1.40355901e-04
3.92000000e-01	1.54161038e-02	1.39726080e-04
3.93000000e-01	1.55271023e-02	1.40210463e-04
3.94000000e-01	1.55913669e-02	1.40803720e-04
3.95000000e-01	1.52615224e-02	1.38562191e-04
3.96000000e-01	1.54402368e-02	1.39509191e-04
3.97000000e-01	1.54483779e-02	1.39571600e-04
3.98000000e-01	1.53573552e-02	1.39157231e-04
3.99000000e-01	1.53118179e-02	1.38361193e-04
4.00000000e-01	1.53860669e-02	1.39540046e-04
4.01000000e-01	1.53532292e-02	1.38877956e-04
4.02000000e-01	1.53098225e-02	1.38332159e-04
4.03000000e-01	1.54260393e-02	1.39867878e-04
4.04000000e-01	1.53391393e-02	1.39030283e-04
4.05000000e-01	1.52949003e-02	1.38238674e-04
4.06000000e-01	1.52034652e-02	1.37826015e-04
4.07000000e-01	1.52427396e-02	1.37747851e-04
4.08000000e-01	1.52785252e-02	1.37970838e-04
4.09000000e-01	1.52896243e-02	1.38080558e-04
4.10000000e-01	1.52447199e-02	1.37547040e-04
4.11000000e-01	1.51979047e-02	1.37147041e-04
4.12000000e-01	1.51264060e-02	1.36494666e-04
4.13000000e-01	1.52419283e-02	1.37442828e-04
4.14000000e-01	1.51800655e-02	1.36770406e-04
4.15000000e-01	1.51548029e-02	1.36801624e-04
4.16000000e-01	1.51604689e-02	1.36614373e-04
4.17000000e-01	1.51630478e-02	1.36352259e-04
4.18000000e-01	1.51708444e-02	1.38123419e-04
4.19000000e-01	1.51620729e-02	1.40295846e-04
4.20000000e-01	1.51289129e-02	1.40235504e-04
4.21000000e-01	1.52378631e-02	1.41603819e-04
4.22000000e-01	1.51376947e-02	1.41518873e-04
4.23000000e-01	1.51081569e-02	1.41541343e-04
4.24000000e-01	1.53036340e-02	1.43961545e-04
4.25000000e-01	1.52193289e-02	1.42923486e-04
4.26000000e-01	1.51947008e-02	1.42988300e-04
4.27000000e-01	1.50677521e-02	1.41872159e-04
4.28000000e-01	1.53227146e-02	1.43895825e-04
4.29000000e-01	1.52819849e-02	1.44470424e-04
4.30000000e-01	1.51796840e-02	1.43211609e-04
4.31000000e-01	1.50870095e-02	1.42233265e-04
4.32000000e-01	1.51225543e-02	1.42932565e-04
4.33000000e-01	1.51984143e-02	1.43815352e-04
4.34000000e-01	1.50885756e-02	1.42890106e-04
4.35000000e-01	1.50262222e-02	1.42404254e-04
4.36000000e-01	1.49547280e-02	1.41934074e-04
4.37000000e-01	1.51064453e-02	1.43564815e-04
4.38000000e-01	1.49953239e-02	1.42772876e-04
4.39000000e-01	1.49597727e-02	1.42683152e-04
4.40000000e-01	1.50994997e-02	1.43770253e-04
4.41000000e-01	1.50538209e-02	1.43600064e-04
4.42000000e-01	1.49873722e-02	1.43202770e-04
4.43000000e-01	1.51235687e-02	1.44401375e-04
4.44000000e-01	1.49593921e-02	1.42998436e-04
4.45000000e-01	1.49194086e-02	1.43230303e-04
4.46000000e-01	1.50210117e-02	1.44144988e-04
4.47000000e-01	1.50089819e-02	1.44193121e-04
4.48000000e-01	1.49240635e-02	1.43925047e-04
4.49000000e-01	1.48744667e-02	1.43360737e-04
4.50000000e-01	1.49428979e-02	1.44238500e-04
4.51000000e-01	1.48695121e-02	1.43619300e-04
4.52000000e-01	1.48224027e-02	1.43456090e-04
4.53000000e-01	1.48136145e-02	1.43306953e-04
4.54000000e-01	1.48435375e-02	1.43684906e-04
4.55000000e-01	1.48369817e-02	1.44101632e-04
4.56000000e-01	1.48746898e-02	1.44508321e-04
4.57000000e-01	1.49350239e-02	1.44950820e-04
4.58000000e-01	1.48479322e-02	1.44740536e-04
4.59000000e-01	1.48280624e-02	1.44360842e-04
4.60000000e-01	1.49504495e-02	1.45281654e-04
4.61000000e-01	1.48420925e-02	1.44760202e-04
4.62000000e-01	1.47627297e-02	1.43842859e-04
4.63000000e-01	1.49661157e-02	1.45478143e-04
4.64000000e-01	1.47393568e-02	1.43685941e-04
4.65000000e-01	1.47768043e-02	1.44393227e-04
4.66000000e-01	1.48320483e-02	1.44714373e-04
4.67000000e-01	1.48393205e-02	1.45026181e-04
4.68000000e-01	1.47085276e-02	1.43810805e-04
4.69000000e-01	1.47059249e-02	1.44533329e-04
4.70000000e-01	1.47484998e-02	1.44360908e-04
4.71000000e-01	1.48305306e-02	1.45051312e-04
4.72000000e-01	1.45739307e-02	1.43026391e-04
4.73000000e-01	1.45932658e-02	1.43006938e-04
4.74000000e-01	1.46021849e-02	1.43030358e-04
4.75000000e-01	1.47548438e-02	1.44386681e-04
4.76000000e-01	1.46063755e-02	1.42891724e-04
4.77000000e-01	1.46034451e-02	1.43496393e-04
4.78000000e-01	1.46970807e-02	1.43797272e-04
4.79000000e-01	1.45979380e-02	1.43017246e-04
4.80000000e-01	1.47951549e-02	1.44727982e-04
4.81000000e-01	1.45151581e-02	1.42932267e-04
4.82000000e-01	1.45841034e-02	1.43067049e-04
4.83000000e-01	1.46723190e-02	1.43973518e-04
4.84000000e-01	1.45620587e-02	1.43151120e-04
4.85000000e-01	1.46048240e-02	1.43709419e-04
4.86000000e-01	1.44425693e-02	1.42067230e-04
4.87000000e-01	1.45617090e-02	1.43268412e-04
4.88000000e-01	1.45200165e-02	1.43197117e-04
4.89000000e-01	1.45653299e-02	1.43585098e-04
4.90000000e-01	1.45502327e-02	1.43585467e-04
4.91000000e-01	1.44401989e-02	1.43180387e-04
4.92000000e-01	1.45723804e-02	1.43916921e-04
4.93000000e-01	1.44542646e-02	1.43046186e-04
4.94000000e-01	1.45524731e-02	1.43933341e-04
4.95000000e-01	1.44846841e-02	1.44273649e-04
4.96000000e-01	1.44345007e-02	1.48212439e-04
4.97000000e-01	1.45708439e-02	1.51951640e-04
4.98000000e-01	1.45610951e-02	1.53725488e-04
4.99000000e-01	1.45333848e-02	1.55595495e-04
5.00000000e-01	1.43726608e-02	1.55920782e-04
5.01000000e-01	1.43765408e-02	1.56963533e-04
5.02000000e-01	1.45434440e-02	1.60365373e-04
5.03000000e-01	1.45400083e-02	1.61619543e-04
5.04000000e-01	1.44531316e-02	1.62608475e-04
5.05000000e-01	1.46969308e-02	1.62142705e-04
5.06000000e-01	1.43243976e-02	1.55387329e-04
5.07000000e-01	1.44403390e-02	1.54805192e-04
5.08000000e-01	1.43909705e-02	1.52904143e-04
5.09000000e-01	1.45837276e-02	1.54171046e-04
5.10000000e-01	1.45941133e-02	1.54720738e-04
5.11000000e-01	1.43362714e-02	1.50700269e-04
5.12000000e-01	1.43457532e-02	1.50690793e-04
5.13000000e-01	1.43485049e-02	1.51088929e-04
5.14000000e-01	1.42912418e-02	1.50039198e-04
5.15000000e-01	1.41898068e-02	1.48360018e-04
5.16000000e-01	1.42450048e-02	1.48877946e-04
5.17000000e-01	1.44296971e-02	1.49888482e-04
5.18000000e-01	1.42035770e-02	1.48414439e-04
5.19000000e-01	1.44402745e-02	1.49607920e-04
5.20000000e-01	1.43417848e-02	1.48324310e-04
5.21000000e-01	1.41359212e-02	1.46713893e-04
5.22000000e-01	1.41794107e-02	1.46483491e-04
5.23000000e-01	1.43540084e-02	1.48316991e-04
5.24000000e-01	1.43243118e-02	1.47637516e-04
5.25000000e-01	1.41325103e-02	1.45441873e-04
5.26000000e-01	1.43260348e-02	1.47033629e-04
5.27000000e-01	1.43267491e-02	1.47162821e-04
5.28000000e-01	1.42227506e-02	1.46947884e-04
5.29000000e-01	1.42420042e-02	1.46889556e-04
5.30000000e-01	1.41170729e-02	1.46100422e-04
5.31000000e-01	1.42368199e-02	1.46895293e-04
5.32000000e-01	1.41036738e-02	1.45516914e-04
5.33000000e-01	1.41652625e-02	1.45802126e-04
5.34000000e-01	1.41852087e-02	1.46286100e-04
5.35000000e-01	1.40484116e-02	1.44895706e-04
5.36000000e-01	1.43533319e-02	1.48084693e-04
5.37000000e-01	1.42645184e-02	1.47292351e-04
5.38000000e-01	1.41825642e-02	1.46040813e-04
5.39000000e-01	1.41709289e-02	1.46194796e-04
5.40000000e-01	1.40509531e-02	1.44832122e-04
5.41000000e-01	1.41470095e-02	1.45842655e-04
5.42000000e-01	1.40961783e-02	1.45665156e-04
5.43000000e-01	1.40754069e-02	1.45142027e-04
5.44000000e-01	1.39962975e-02	1.44670397e-04
5.45000000e-01	1.39674493e-02	1.44058521e-04
5.46000000e-01	1.41065152e-02	1.45463604e-04
5.47000000e-01	1.40297131e-02	1.45123461e-04
5.48000000e-01	1.38955846e-02	1.43663956e-04
5.49000000e-01	1.39766118e-02	1.44550607e-04
5.50000000e-01	1.39560825e-02	1.43617716e-04
5.51000000e-01	1.39707078e-02	1.43909168e-04
5.52000000e-01	1.40266489e-02	1.43883425e-04
5.53000000e-01	1.38653498e-02	1.42155926e-04
5.54000000e-01	1.38595066e-02	1.42111991e-04
5.55000000e-01	1.39881065e-02	1.42947364e-04
5.56000000e-01	1.40019373e-02	1.43862095e-04
5.57000000e-01	1.38513800e-02	1.41903298e-04
5.58000000e-01	1.39163766e-02	1.42925196e-04
5.59000000e-01	1.38074123e-02	1.41619571e-04
5.60000000e-01	1.38501609e-02	1.42147340e-04
5.61000000e-01	1.39130350e-02	1.42390476e-04
5.62000000e-01	1.38476849e-02	1.42219610e-04
5.63000000e-01	1.37875830e-02	1.41639191e-04
5.64000000e-01	1.39012131e-02	1.42710657e-04
5.65000000e-01	1.38068851e-02	1.42009021e-04
5.66000000e-01	1.37533811e-02	1.41653110e-04
5.67000000e-01	1.37801923e-02	1.41683098e-04
5.68000000e-01	1.38548006e-02	1.42200042e-04
5.69000000e-01	1.38714706e-02	1.41908853e-04
5.70000000e-01	1.38921767e-02	1.42407129e-04
5.71000000e-01	1.37550802e-02	1.41290824e-04
5.72000000e-01	1.36924329e-02	1.40440620e-04
5.73000000e-01	1.37589970e-02	1.41394888e-04
5.74000000e-01	1.37395845e-02	1.41244515e-04
5.75000000e-01	1.37037946e-02	1.40878304e-04
5.76000000e-01	1.36125257e-02	1.40331823e-04
5.77000000e-01	1.37000905e-02	1.40874294e-04
5.78000000e-01	1.37159032e-02	1.41235563e-04
5.79000000e-01	1.35792847e-02	1.39904763e-04
5.80000000e-01	1.36645986e-02	1.41041346e-04
5.81000000e-01	1.37835991e-02	1.41575288e-04
5.82000000e-01	1.36791890e-02	1.40833655e-04
5.83000000e-01	1.36598566e-02	1.40548856e-04
5.84000000e-01	1.35834839e-02	1.40007119e-04
5.85000000e-01	1.35654967e-02	1.39928901e-04
5.86000000e-01	1.35962721e-02	1.40249717e-04
5.87000000e-01	1.35035321e-02	1.39258963e-04
5.88000000e-01	1.35532203e-02	1.39911924e-04
5.89000000e-01	1.36404164e-02	1.40607961e-04
5.90000000e-01	1.34734192e-02	1.39087303e-04
5.91000000e-01	1.35403119e-02	1.39902134e-04
5.92000000e-01	1.36109429e-02	1.40419127e-04
5.93000000e-01	1.36228773e-02	1.40509256e-04
5.94000000e-01	1.35214197e-02	1.39686279e-04
5.95000000e-01	1.36665973e-02	1.41395457e-04
5.96000000e-01	1.36010359e-02	1.40111357e-04
5.97000000e-01	1.34988713e-02	1.39376943e-04
5.98000000e-01	1.36358950e-02	1.40807583e-04
5.99000000e-01	1.34486908e-02	1.39202342e-04
6.00000000e-01	1.34897012e-02	1.39337692e-04
6.01000000e-01	1.34191654e-02	1.38727124e-04
6.02000000e-01	1.35029943e-02	1.39578428e-04
6.03000000e-01	1.34317018e-02	1.39208421e-04
6.04000000e-01	1.34591117e-02	1.39252809e-04
6.05000000e-01	1.33842644e-02	1.38402428e-04
6.06000000e-01	1.33794700e-02	1.38454241e-04
6.07000000e-01	1.34219571e-02	1.38721425e-04
6.08000000e-01	1.35905981e-02	1.40319642e-04
6.09000000e-01	1.33313974e-02	1.37874070e-04
6.10000000e-01	1.33773962e-02	1.38894000e-04
6.11000000e-01	1.34037874e-02	1.38815095e-04
6.12000000e-01	1.34056815e-02	1.38989890e-04
6.13000000e-01	1.32877559e-02	1.38288537e-04
6.14000000e-01	1.33662856e-02	1.38475309e-04
6.15000000e-01	1.34111055e-02	1.38887734e-04
6.16000000e-01	1.34151871e-02	1.39112673e-04
6.17000000e-01	1.34582533e-02	1.39204407e-04
6.18000000e-01	1.34902233e-02	1.39606884e-04
6.19000000e-01	1.33593639e-02	1.38002001e-04
6.20000000e-01	1.32596071e-02	1.37588508e-04
6.21000000e-01	1.33320714e-02	1.37648448e-04
6.22000000e-01	1.32489276e-02	1.37161924e-04
6.23000000e-01	1.31593723e-02	1.36010198e-04
6.24000000e-01	1.34213737e-02	1.37812154e-04
6.25000000e-01	1.32135505e-02	1.36243177e-04
6.26000000e-01	1.32185609e-02	1.36183009e-04
6.27000000e-01	1.32593741e-02	1.36753701e-04
6.28000000e-01	1.32975761e-02	1.36458953e-04
6.29000000e-01	1.32208635e-02	1.36022077e-04
6.30000000e-01	1.32975026e-02	1.37116466e-04
6.31000000e-01	1.31245667e-02	1.35166484e-04
6.32000000e-01	1.32124574e-02	1.35761574e-04
6.33000000e-01	1.32500192e-02	1.36523867e-04
6.34000000e-01	1.32227390e-02	1.39788425e-04
6.35000000e-01	1.31344732e-02	1.42572366e-04
6.36000000e-01	1.33278669e-02	1.47091055e-04
6.37000000e-01	1.33369068e-02	1.50142872e-04
6.38000000e-01	1.32415707e-02	1.50656579e-04
6.39000000e-01	1.31672520e-02	1.52430577e-04
6.40000000e-01	1.33373950e-02	1.55456152e-04
6.41000000e-01	1.32695641e-02	1.56822757e-04
6.42000000e-01	1.32758973e-02	1.58156378e-04
6.43000000e-01	1.31963790e-02	1.57457385e-04
6.44000000e-01	1.34314877e-02	1.54425344e-04
6.45000000e-01	1.34905214e-02	1.53009947e-04
6.46000000e-01	1.31393466e-02	1.47753772e-04
6.47000000e-01	1.32433167e-02	1.47759986e-04
6.48000000e-01	1.32899860e-02	1.47162303e-04
6.49000000e-01	1.31377909e-02	1.44958833e-04
6.50000000e-01	1.32272725e-02	1.44634244e-04
6.51000000e-01	1.31774805e-02	1.43695730e-04
6.52000000e-01	1.31324815e-02	1.43131061e-04
6.53000000e-01	1.33442288e-02	1.44780042e-04
6.54000000e-01	1.32314771e-02	1.42960228e-04
6.55000000e-01	1.32224837e-02	1.42347129e-04
6.56000000e-01	1.32004144e-02	1.42139090e-04
6.57000000e-01	1.32828321e-02	1.42925963e-04
6.58000000e-01	1.31004750e-02	1.40743790e-04
6.59000000e-01	1.31342503e-02	1.41003221e-04
6.60000000e-01	1.32390467e-02	1.41885259e-04
6.61000000e-01	1.33283607e-02	1.42379997e-04
6.62000000e-01	1.31640737e-02	1.40691056e-04
6.63000000e-01	1.32256468e-02	1.41620145e-04
6.64000000e-01	1.30851751e-02	1.40087874e-04
6.65000000e-01	1.29967012e-02	1.39699086e-04
6.66000000e-01	1.31090775e-02	1.40043141e-04
6.67000000e-01	1.31415811e-02	1.39819783e-04
6.68000000e-01	1.29771479e-02	1.38903511e-04
6.69000000e-01	1.30254595e-02	1.39443629e-04
6.70000000e-01	1.30713064e-02	1.39360401e-04
6.71000000e-01	1.30127528e-02	1.39211096e-04
6.72000000e-01	1.30818916e-02	1.39526762e-04
6.73000000e-01	1.29726979e-02	1.38507905e-04
6.74000000e-01	1.31876968e-02	1.40741183e-04
6.75000000e-01	1.31006096e-02	1.39920432e-04
6.76000000e-01	1.30131850e-02	1.38919999e-04
6.77000000e-01	1.30940617e-02	1.39542304e-04
6.78000000e-01	1.30029689e-02	1.38391909e-04
6.79000000e-01	1.30347240e-02	1.38859747e-04
6.80000000e-01	1.30162024e-02	1.38898680e-04
6.81000000e-01	1.29274737e-02	1.37839680e-04
6.82000000e-01	1.30691485e-02	1.38976909e-04
6.83000000e-01	1.29245916e-02	1.38200161e-04
6.84000000e-01	1.29888087e-02	1.38184710e-04
6.85000000e-01	1.29623783e-02	1.37753356e-04
6.86000000e-01	1.28990046e-02	1.36673389e-04
6.87000000e-01	1.30374401e-02	1.39136736e-04
6.88000000e-01	1.28659686e-02	1.36895494e-04
6.89000000e-01	1.29730465e-02	1.38215805e-04
6.90000000e-01	1.30302158e-02	1.38405433e-04
6.91000000e-01	1.30146870e-02	1.38351549e-04
6.92000000e-01	1.29247132e-02	1.37469394e-04
6.93000000e-01	1.29858878e-02	1.37774997e-04
6.94000000e-01	1.29313964e-02	1.37930973e-04
6.95000000e-01	1.28887892e-02	1.37163500e-04
6.96000000e-01	1.29342053e-02	1.37536391e-04
6.97000000e-01	1.28705732e-02	1.36679300e-04
6.98000000e-01	1.28253646e-02	1.36622578e-04
6.99000000e-01	1.28836368e-02	1.37278496e-04
7.00000000e-01	1.28287060e-02	1.36623226e-04
7.01000000e-01	1.26965192e-02	1.34906136e-04
7.02000000e-01	1.28747764e-02	1.36947217e-04
7.03000000e-01	1.28388655e-02	1.36290606e-04
7.04000000e-01	1.27310812e-02	1.35275451e-04
7.05000000e-01	1.28167878e-02	1.36064277e-04
7.06000000e-01	1.27858062e-02	1.36111171e-04
7.07000000e-01	1.28248793e-02	1.35912872e-04
7.08000000e-01	1.26860950e-02	1.34260125e-04
7.09000000e-01	1.26297533e-02	1.34105346e-04
7.10000000e-01	1.26007243e-02	1.33948547e-04
7.11000000e-01	1.26509500e-02	1.34372440e-04
7.12000000e-01	1.25828605e-02	1.34122021e-04
7.13000000e-01	1.26820928e-02	1.34747970e-04
7.14000000e-01	1.26345660e-02	1.34436169e-04
7.15000000e-01	1.27911846e-02	1.35696392e-04
7.16000000e-01	1.26327626e-02	1.34180792e-04
7.17000000e-01	1.27135441e-02	1.34563254e-04
7.18000000e-01	1.26405606e-02	1.34215367e-04
7.19000000e-01	1.26385952e-02	1.34505511e-04
7.20000000e-01	1.25805581e-02	1.34000562e-04
7.21000000e-01	1.24644356e-02	1.32131202e-04
7.22000000e-01	1.26544936e-02	1.34340539e-04
7.23000000e-01	1.27486895e-02	1.35089202e-04
7.24000000e-01	1.27367449e-02	1.34921039e-04
7.25000000e-01	1.26107147e-02	1.34410596e-04
7.26000000e-01	1.25048220e-02	1.32572524e-04
7.27000000e-01	1.25087600e-02	1.33660645e-04
7.28000000e-01	1.23861301e-02	1.32437578e-04
7.29000000e-01	1.24528987e-02	1.32527923e-04
7.30000000e-01	1.23813964e-02	1.32170984e-04
7.31000000e-01	1.24225004e-02	1.32403965e-04
7.32000000e-01	1.24009437e-02	1.32102075e-04
7.33000000e-01	1.23479141e-02	1.31948976e-04
7.34000000e-01	1.24532351e-02	1.31970412e-04
7.35000000e-01	1.24984129e-02	1.32303175e-04
7.36000000e-01	1.24579419e-02	1.32473485e-04
7.37000000e-01	1.23818883e-02	1.31438796e-04
7.38000000e-01	1.24402082e-02	1.31653396e-04
7.39000000e-01	1.24089502e-02	1.31268644e-04
7.40000000e-01	1.22750945e-02	1.29532902e-04
7.41000000e-01	1.22496909e-02	1.29084477e-04
7.42000000e-01	1.24082957e-02	1.30980955e-04
7.43000000e-01	1.23219017e-02	1.29895494e-04
7.44000000e-01	1.23733970e-02	1.30274946e-04
7.45000000e-01	1.22944587e-02	1.29723213e-04
7.46000000e-01	1.23008063e-02	1.29402414e-04
7.47000000e-01	1.24699768e-02	1.31011806e-04
7.48000000e-01	1.22510417e-02	1.29481725e-04
7.49000000e-01	1.23087471e-02	1.29673907e-04
7.50000000e-01	1.21507909e-02	1.28751954e-04
7.51000000e-01	1.23594584e-02	1.30122236e-04
7.52000000e-01	1.23884854e-02	1.30370613e-04
7.53000000e-01	1.23483925e-02	1.29899314e-04
7.54000000e-01	1.24283989e-02	1.30738670e-04
7.55000000e-01	1.22918744e-02	1.30000073e-04
7.56000000e-01	1.23199334e-02	1.29855740e-04
7.57000000e-01	1.22428059e-02	1.29238281e-04
7.58000000e-01	1.22921692e-02	1.29593596e-04
7.59000000e-01	1.22801630e-02	1.29349929e-04
7.60000000e-01	1.23263178e-02	1.29536679e-04
7.61000000e-01	1.21769459e-02	1.28104553e-04
7.62000000e-01	1.21302037e-02	1.27577098e-04
7.63000000e-01	1.21872590e-02	1.28146477e-04
7.64000000e-01	1.21003982e-02	1.26931015e-04
7.65000000e-01	1.20842136e-02	1.26434121e-04
7.66000000e-01	1.21033624e-02	1.26974171e-04
7.67000000e-01	1.20936045e-02	1.26404620e-04
7.68000000e-01	1.19812146e-02	1.25868726e-04
7.69000000e-01	1.21265408e-02	1.26854851e-04
7.70000000e-01	1.20682384e-02	1.26332231e-04
7.71000000e-01	1.20584240e-02	1.26089554e-04
7.72000000e-01	1.21876419e-02	1.31304498e-04
7.73000000e-01	1.20746067e-02	1.34595369e-04
7.74000000e-01	1.19659606e-02	1.35559699e-04
7.75000000e-01	1.20123430e-02	1.38928440e-04
7.76000000e-01	1.20726963e-02	1.41161397e-04
7.77000000e-01	1.20307756e-02	1.43025419e-04
7.78000000e-01	1.19166208e-02	1.44141336e-04
7.79000000e-01	1.19818799e-02	1.46276936e-04
7.80000000e-01	1.19278093e-02	1.47869141e-04
7.81000000e-01	1.19489087e-02	1.49321591e-04
7.82000000e-01	1.19876081e-02	1.51213345e-04
7.83000000e-01	1.20143243e-02	1.53450996e-04
7.84000000e-01	1.19078276e-02	1.52897606e-04
7.85000000e-01	1.18778740e-02	1.55697334e-04
7.86000000e-01	1.18269119e-02	1.57006583e-04
7.87000000e-01	1.18179822e-02	1.56959042e-04
7.88000000e-01	1.18934352e-02	1.59508040e-04
7.89000000e-01	1.20322798e-02	1.62989925e-04
7.90000000e-01	1.20201166e-02	1.64353410e-04
7.91000000e-01	1.18342233e-02	1.64211226e-04
7.92000000e-01	1.18268185e-02	1.65152053e-04
7.93000000e-01	1.19035292e-02	1.68861646e-04
7.94000000e-01	1.18425195e-02	1.68808711e-04
7.95000000e-01	1.15479101e-02	1.67302067e-04
7.96000000e-01	1.18574472e-02	1.71872385e-04
7.97000000e-01	1.17596824e-02	1.72436702e-04
7.98000000e-01	1.15563708e-02	1.72685498e-04
7.99000000e-01	1.15501848e-02	1.74398683e-04
8.00000000e-01	1.18049926e-02	1.80137140e-04
8.01000000e-01	1.17409628e-02	1.81316268e-04
8.02000000e-01	1.18019367e-02	1.82756301e-04
8.03000000e-01	1.17497479e-02	1.83699851e-04
8.04000000e-01	1.16339879e-02	1.84379031e-04
8.05000000e-01	1.15393733e-02	1.85667724e-04
8.06000000e-01	1.17367066e-02	1.90345432e-04
8.07000000e-01	1.18043664e-02	1.94007434e-04
8.08000000e-01	1.18275683e-02	1.95514885e-04
8.09000000e-01	1.15296562e-02	1.92856869e-04
8.10000000e-01	1.14084342e-02	1.92886924e-04
8.11000000e-01	1.15472820e-02	1.98302525e-04
8.12000000e-01	1.16392024e-02	2.01499672e-04
8.13000000e-01	1.15872140e-02	2.02791836e-04
8.14000000e-01	1.16843990e-02	2.07233820e-04
8.15000000e-01	1.16225811e-02	2.08047622e-04
8.16000000e-01	1.12614298e-02	2.04445717e-04
8.17000000e-01	1.15087616e-02	2.11176121e-04
8.18000000e-01	1.16345898e-02	2.15206815e-04
8.19000000e-01	1.14646643e-02	2.16385215e-04
8.20000000e-01	1.16508989e-02	2.20586168e-04
8.21000000e-01	1.12887827e-02	2.18009359e-04
8.22000000e-01	1.15437101e-02	2.26024737e-04
8.23000000e-01	1.13958338e-02	2.26844562e-04
8.24000000e-01	1.15126816e-02	2.31349125e-04
8.25000000e-01	1.11858791e-02	2.30819660e-04
8.26000000e-01	1.15361856e-02	2.38375298e-04
8.27000000e-01	1.13146166e-02	2.37591610e-04
8.28000000e-01	1.14383368e-02	2.43868285e-04
8.29000000e-01	1.14262995e-02	2.48517744e-04
8.30000000e-01	1.12047805e-02	2.45528154e-04
8.31000000e-01	1.11544525e-02	2.51703800e-04
8.32000000e-01	1.14455194e-02	2.58784359e-04
8.33000000e-01	1.11193884e-02	2.59826814e-04
8.34000000e-01	1.11955310e-02	2.66625267e-04
8.35000000e-01	1.12132746e-02	2.69564775e-04
8.36000000e-01	1.12688880e-02	2.76210770e-04
8.37000000e-01	1.12550252e-02	2.79291101e-04
8.38000000e-01	1.09539795e-02	2.78051068e-04
8.39000000e-01	1.11293674e-02	2.87443597e-04
8.40000000e-01	1.09514439e-02	2.91806187e-04
8.41000000e-01	1.12065239e-02	3.06180808e-04
8.42000000e-01	1.10547738e-02	3.07625976e-04
8.43000000e-01	1.09415256e-02	3.11599415e-04
8.44000000e-01	1.11696445e-02	3.23518449e-04
8.45000000e-01	1.10373132e-02	3.29967059e-04
8.46000000e-01	1.11236578e-02	3.37805809e-04
8.47000000e-01	1.12260172e-02	3.51724002e-04
8.48000000e-01	1.12361755e-02	3.63830760e-04
8.49000000e-01	1.13976236e-02	3.78863974e-04
8.50000000e-01	1.09320317e-02	3.80725900e-04
8.51000000e-01	1.13022028e-02	4.08922776e-04
8.52000000e-01	1.08507161e-02	4.11392855e-04
8.53000000e-01	1.08944558e-02	4.25018343e-04
8.54000000e-01	1.07552001e-02	4.43781060e-04
8.55000000e-01	1.10355727e-02	4.63879442e-04
8.56000000e-01	1.08250335e-02	4.66939527e-04
8.57000000e-01	1.11660942e-02	4.98949277e-04
8.58000000e-01	1.07247449e-02	4.86068287e-04
8.59000000e-01	1.07627448e-02	5.20419171e-04
8.60000000e-01	1.00646151e-02	5.01319586e-04
8.61000000e-01	1.16897700e-02	5.80212111e-04
8.62000000e-01	1.03568468e-02	5.58320852e-04
8.63000000e-01	1.11536463e-02	6.03249969e-04
8.64000000e-01	1.03869277e-02	6.03293572e-04
8.65000000e-01	1.07128766e-02	6.43318662e-04
8.66000000e-01	9.95595353e-03	6.36901400e-04
8.67000000e-01	1.10759437e-02	7.27403026e-04
8.68000000e-01	1.05293854e-02	7.37894590e-04
8.69000000e-01	1.05703256e-02	8.04161420e-04
8.70000000e-01	1.03858495e-02	8.83357388e-04
8.71000000e-01	1.12913227e-02	1.02292632e-03
8.72000000e-01	1.04583786e-02	1.11248779e-03
8.73000000e-01	1.16167997e-02	1.41000729e-03
8.74000000e-01	1.10270813e-02	1.68984110e-03
8.75000000e-01	9.41145592e-03	3.36844716e-03
