% Filename : SDL7_00012_00036.h5
% Date & Time : 30-Oct-2025 14:48:14
% X-ray Energy (keV) : 13.30001
% Exposure Time (s) : 0.500
% Beam Center : 1461.24000, 208.98300
% Sample to Detector Distance (SDD) (mm) : 1990.750
% Detector Pixel Size (mm) : 0.075
% Photodiode Value : 136311.000
% I0 of Sample : 0
% I0 of Standard : 1
% 
% q(A^-1)   I(q)    I(q)_SE
0.00000000e+00	9.27783211e-03	5.77730772e-03
2.50000000e-04	0.00000000e+00	0.00000000e+00
5.00000000e-04	0.00000000e+00	0.00000000e+00
7.50000000e-04	0.00000000e+00	0.00000000e+00
1.00000000e-03	0.00000000e+00	0.00000000e+00
1.25000000e-03	0.00000000e+00	0.00000000e+00
1.50000000e-03	0.00000000e+00	0.00000000e+00
1.75000000e-03	0.00000000e+00	0.00000000e+00
2.00000000e-03	0.00000000e+00	0.00000000e+00
2.25000000e-03	0.00000000e+00	0.00000000e+00
2.50000000e-03	0.00000000e+00	0.00000000e+00
2.75000000e-03	0.00000000e+00	0.00000000e+00
3.00000000e-03	0.00000000e+00	0.00000000e+00
3.25000000e-03	7.66412815e+01	4.66590541e+01
3.50000000e-03	1.90489594e+01	8.77846629e+00
3.75000000e-03	1.20724730e+01	5.28512258e+00
4.00000000e-03	9.47879786e+00	3.74228189e+00
4.25000000e-03	4.63529453e+00	1.83160038e+00
4.50000000e-03	5.92848497e+00	1.88209031e+00
4.75000000e-03	6.13538803e+00	1.66850768e+00
5.00000000e-03	4.80744434e+00	1.29784842e+00
5.25000000e-03	4.04426850e+00	1.09071705e+00
5.50000000e-03	3.33246954e+00	8.87693524e-01
5.75000000e-03	2.83140008e+00	7.48210983e-01
6.00000000e-03	2.25478340e+00	5.86472560e-01
6.25000000e-03	1.99975138e+00	5.17512811e-01
6.50000000e-03	1.69522243e+00	4.36013452e-01
6.75000000e-03	1.45679766e+00	3.71474539e-01
7.00000000e-03	1.28408453e+00	3.25815755e-01
7.25000000e-03	1.10498370e+00	2.79050320e-01
7.50000000e-03	9.00788509e-01	2.30296901e-01
7.75000000e-03	8.73387779e-01	2.18448610e-01
8.00000000e-03	7.70907937e-01	1.90912574e-01
8.25000000e-03	6.62505213e-01	1.60205368e-01
8.50000000e-03	5.83339650e-01	1.38666546e-01
8.75000000e-03	5.28824018e-01	1.25359120e-01
9.00000000e-03	4.70351540e-01	1.10578516e-01
9.25000000e-03	4.20682876e-01	9.81063239e-02
9.50000000e-03	3.80089115e-01	8.69109908e-02
9.75000000e-03	3.36364943e-01	7.61550645e-02
1.00000000e-02	2.84642895e-01	6.46646700e-02
1.02500000e-02	2.88206842e-01	6.46025453e-02
1.05000000e-02	2.52032775e-01	5.51459418e-02
1.07500000e-02	2.42547796e-01	5.25676458e-02
1.10000000e-02	2.16477530e-01	4.60962882e-02
1.12500000e-02	1.90651412e-01	4.15106542e-02
1.15000000e-02	1.85893145e-01	3.93395726e-02
1.17500000e-02	1.63128998e-01	3.41533138e-02
1.20000000e-02	1.59924811e-01	3.26288415e-02
1.22500000e-02	1.47399876e-01	2.96284703e-02
1.25000000e-02	1.39536868e-01	2.73874089e-02
1.27500000e-02	1.32622022e-01	2.56274821e-02
1.30000000e-02	1.23422606e-01	2.33389049e-02
1.32500000e-02	1.19162963e-01	2.23853555e-02
1.35000000e-02	1.07609322e-01	1.95057942e-02
1.37500000e-02	1.02958841e-01	1.87435148e-02
1.40000000e-02	9.84802271e-02	1.74559122e-02
1.42500000e-02	9.07414697e-02	1.55952536e-02
1.45000000e-02	8.63361993e-02	1.45842589e-02
1.47500000e-02	8.20553720e-02	1.39314734e-02
1.50000000e-02	7.82260508e-02	1.30297910e-02
1.52500000e-02	7.65414206e-02	1.23044705e-02
1.55000000e-02	7.00649452e-02	1.09520882e-02
1.57500000e-02	6.71506137e-02	1.03577172e-02
1.60000000e-02	6.33617157e-02	9.72348273e-03
1.62500000e-02	6.40442309e-02	9.31572649e-03
1.65000000e-02	5.88263662e-02	8.28208587e-03
1.67500000e-02	5.50805376e-02	7.72470967e-03
1.70000000e-02	5.56522154e-02	7.65992448e-03
1.72500000e-02	5.21925680e-02	7.06753543e-03
1.75000000e-02	4.93156783e-02	6.60137236e-03
1.77500000e-02	4.75449731e-02	5.95343751e-03
1.80000000e-02	4.70305387e-02	5.87074811e-03
1.82500000e-02	4.67306029e-02	5.57959834e-03
1.85000000e-02	4.50774029e-02	5.52530753e-03
1.87500000e-02	4.42544115e-02	5.02314339e-03
1.90000000e-02	4.19490741e-02	4.69032122e-03
1.92500000e-02	4.14752165e-02	4.51662398e-03
1.95000000e-02	3.94878917e-02	4.27418826e-03
1.97500000e-02	4.04714355e-02	4.28162681e-03
2.00000000e-02	3.62590786e-02	3.71207715e-03
2.02500000e-02	3.58506567e-02	3.30107400e-03
2.05000000e-02	3.69106262e-02	3.42342462e-03
2.07500000e-02	3.58747734e-02	3.41676164e-03
2.10000000e-02	3.65459188e-02	3.35471176e-03
2.12500000e-02	3.45627200e-02	3.19130358e-03
2.15000000e-02	3.51306087e-02	3.23089298e-03
2.17500000e-02	3.43469299e-02	2.99020377e-03
2.20000000e-02	3.42730690e-02	2.89185044e-03
2.22500000e-02	3.28216824e-02	2.79066488e-03
2.25000000e-02	3.31964579e-02	2.86519019e-03
2.27500000e-02	3.28631849e-02	2.63709128e-03
2.30000000e-02	3.21249162e-02	2.60740533e-03
2.32500000e-02	3.20485514e-02	2.47121187e-03
2.35000000e-02	3.18339824e-02	2.48679679e-03
2.37500000e-02	3.07111720e-02	2.40704474e-03
2.40000000e-02	3.13276011e-02	2.41878114e-03
2.42500000e-02	3.04348320e-02	2.28574869e-03
2.45000000e-02	3.07004402e-02	2.15207226e-03
2.47500000e-02	2.84967651e-02	2.00586866e-03
2.50000000e-02	3.09598960e-02	2.24388096e-03
2.52500000e-02	2.93901237e-02	2.06559622e-03
2.55000000e-02	2.90603447e-02	1.95313065e-03
2.57500000e-02	2.76847871e-02	1.91884841e-03
2.60000000e-02	2.78335769e-02	1.82698621e-03
2.62500000e-02	2.78904338e-02	1.83035265e-03
2.65000000e-02	2.78541118e-02	1.75678737e-03
2.67500000e-02	2.88743722e-02	1.85352599e-03
2.70000000e-02	2.69435722e-02	1.58769431e-03
2.72500000e-02	2.83434811e-02	1.63641925e-03
2.75000000e-02	2.75358678e-02	1.65751376e-03
2.77500000e-02	2.76908214e-02	1.69519285e-03
2.80000000e-02	2.73967016e-02	1.63394472e-03
2.82500000e-02	2.71240012e-02	1.58277947e-03
2.85000000e-02	2.67848012e-02	1.55233547e-03
2.87500000e-02	2.61540568e-02	1.57139349e-03
2.90000000e-02	2.73537972e-02	1.58343383e-03
2.92500000e-02	2.63808066e-02	1.43584023e-03
2.95000000e-02	2.64348885e-02	1.49322559e-03
2.97500000e-02	2.67970914e-02	1.47189837e-03
3.00000000e-02	2.66146397e-02	1.43990997e-03
3.02500000e-02	2.68838006e-02	1.47152873e-03
3.05000000e-02	2.65865992e-02	1.36160172e-03
3.07500000e-02	2.62154724e-02	1.39706497e-03
3.10000000e-02	2.69918218e-02	1.38883355e-03
3.12500000e-02	2.65978452e-02	1.41112736e-03
3.15000000e-02	2.63244357e-02	1.43151873e-03
3.17500000e-02	2.51720586e-02	1.22743052e-03
3.20000000e-02	2.43861732e-02	1.27149343e-03
3.22500000e-02	2.48012242e-02	1.26430786e-03
3.25000000e-02	2.51806899e-02	1.25527867e-03
3.27500000e-02	2.62278931e-02	1.33949025e-03
3.30000000e-02	2.52399636e-02	1.24027466e-03
3.32500000e-02	2.55931011e-02	1.24841437e-03
3.35000000e-02	2.47295246e-02	1.23022507e-03
3.37500000e-02	2.43996209e-02	1.17693024e-03
3.40000000e-02	2.42982391e-02	1.18103220e-03
3.42500000e-02	2.38225808e-02	1.13306970e-03
3.45000000e-02	2.47981409e-02	1.19655362e-03
3.47500000e-02	2.41126536e-02	1.13190244e-03
3.50000000e-02	2.28908142e-02	1.10768981e-03
3.52500000e-02	2.29160295e-02	1.12018690e-03
3.55000000e-02	2.43177107e-02	1.12735188e-03
3.57500000e-02	2.38241806e-02	1.14629703e-03
3.60000000e-02	2.32947663e-02	1.09845333e-03
3.62500000e-02	2.35037415e-02	1.11189970e-03
3.65000000e-02	2.36464835e-02	1.10712464e-03
3.67500000e-02	2.35274748e-02	1.08739994e-03
3.70000000e-02	2.27990738e-02	1.04672319e-03
3.72500000e-02	2.24267202e-02	1.04007755e-03
3.75000000e-02	2.35482637e-02	1.09336311e-03
3.77500000e-02	2.37987782e-02	1.07982632e-03
3.80000000e-02	2.39529749e-02	1.11081633e-03
3.82500000e-02	2.28070034e-02	1.03305902e-03
3.85000000e-02	2.33019033e-02	1.06749363e-03
3.87500000e-02	2.28619972e-02	1.03216269e-03
3.90000000e-02	2.29004895e-02	1.03695974e-03
3.92500000e-02	2.26231602e-02	1.01523453e-03
3.95000000e-02	2.30496313e-02	1.04751652e-03
3.97500000e-02	2.26495641e-02	1.02230732e-03
4.00000000e-02	2.26503076e-02	1.01836404e-03
4.02500000e-02	2.28476083e-02	1.02034826e-03
4.05000000e-02	2.17159540e-02	9.57936938e-04
4.07500000e-02	2.21337853e-02	9.64006235e-04
4.10000000e-02	2.24941565e-02	9.95803615e-04
4.12500000e-02	2.27262068e-02	1.00787490e-03
4.15000000e-02	2.26847839e-02	9.85959651e-04
4.17500000e-02	2.22980255e-02	9.72944294e-04
4.20000000e-02	2.19146633e-02	9.46923004e-04
4.22500000e-02	2.22029844e-02	9.60329336e-04
4.25000000e-02	2.25012235e-02	9.68741796e-04
4.27500000e-02	2.14566403e-02	9.26923940e-04
4.30000000e-02	2.18036444e-02	9.42431357e-04
4.32500000e-02	2.19888968e-02	9.46197434e-04
4.35000000e-02	2.26811163e-02	9.73922110e-04
4.37500000e-02	2.16493817e-02	9.22399077e-04
4.40000000e-02	2.09986539e-02	8.95216959e-04
4.42500000e-02	2.17545027e-02	9.32887043e-04
4.45000000e-02	2.22136174e-02	9.35213050e-04
4.47500000e-02	2.15826951e-02	9.09592235e-04
4.50000000e-02	2.22665908e-02	9.42098426e-04
4.52500000e-02	2.22007101e-02	9.32322249e-04
4.55000000e-02	2.16435407e-02	9.05385281e-04
4.57500000e-02	2.12560728e-02	8.87959891e-04
4.60000000e-02	2.15184920e-02	8.99384983e-04
4.62500000e-02	2.09997129e-02	8.70727081e-04
4.65000000e-02	2.09952911e-02	8.70182605e-04
4.67500000e-02	2.19860046e-02	9.07327172e-04
4.70000000e-02	2.21280719e-02	9.16751651e-04
4.72500000e-02	2.09368280e-02	8.69463193e-04
4.75000000e-02	2.22170585e-02	9.20997669e-04
4.77500000e-02	2.18617354e-02	8.98725380e-04
4.80000000e-02	2.13181322e-02	8.70741280e-04
4.82500000e-02	2.14265669e-02	8.76946028e-04
4.85000000e-02	2.13646189e-02	8.79333396e-04
4.87500000e-02	2.15367280e-02	8.86404390e-04
4.90000000e-02	2.14331594e-02	8.57099099e-04
4.92500000e-02	2.12439813e-02	8.58536870e-04
4.95000000e-02	2.08184936e-02	8.50372326e-04
4.97500000e-02	2.11953870e-02	8.64866143e-04
5.00000000e-02	2.15267161e-02	8.77264293e-04
5.02500000e-02	2.10135779e-02	8.47308323e-04
5.05000000e-02	2.10078330e-02	8.40045684e-04
5.07500000e-02	2.18237084e-02	8.73672347e-04
5.10000000e-02	2.12729516e-02	8.46971889e-04
5.12500000e-02	2.14482421e-02	8.58840193e-04
5.15000000e-02	2.06441605e-02	8.19335142e-04
5.17500000e-02	2.15062630e-02	8.55276057e-04
5.20000000e-02	2.12084157e-02	8.41100029e-04
5.22500000e-02	2.05386700e-02	8.22071579e-04
5.25000000e-02	2.07665179e-02	8.21576496e-04
5.27500000e-02	2.13020419e-02	8.38650619e-04
5.30000000e-02	2.08515518e-02	8.33051830e-04
5.32500000e-02	2.09130879e-02	8.30767971e-04
5.35000000e-02	2.07662564e-02	8.33296249e-04
5.37500000e-02	2.15214292e-02	8.41514188e-04
5.40000000e-02	2.14593641e-02	8.41312230e-04
5.42500000e-02	2.10705302e-02	8.21486811e-04
5.45000000e-02	2.06642035e-02	8.07530980e-04
5.47500000e-02	2.11676093e-02	8.27912565e-04
5.50000000e-02	2.11325416e-02	8.17069626e-04
5.52500000e-02	2.13129366e-02	8.22133692e-04
5.55000000e-02	2.10692838e-02	8.10620600e-04
5.57500000e-02	2.07638416e-02	8.13499597e-04
5.60000000e-02	2.07256449e-02	7.96846654e-04
5.62500000e-02	2.11266634e-02	8.21148272e-04
5.65000000e-02	2.08587187e-02	7.99881706e-04
5.67500000e-02	2.09946672e-02	8.04322211e-04
5.70000000e-02	2.17408573e-02	8.27716631e-04
5.72500000e-02	2.04296718e-02	7.78381369e-04
5.75000000e-02	2.08523260e-02	8.03377695e-04
5.77500000e-02	2.06181391e-02	7.85671315e-04
5.80000000e-02	2.02881432e-02	7.76607494e-04
5.82500000e-02	2.07835149e-02	7.89800247e-04
5.85000000e-02	2.09263384e-02	7.90875213e-04
5.87500000e-02	2.01671997e-02	7.61211941e-04
5.90000000e-02	2.04418796e-02	7.77965043e-04
5.92500000e-02	2.03566038e-02	7.65932723e-04
5.95000000e-02	2.10071093e-02	7.87919551e-04
5.97500000e-02	2.05832946e-02	7.76555989e-04
6.00000000e-02	2.03877611e-02	7.68610549e-04
6.02500000e-02	2.12707925e-02	7.98923176e-04
6.05000000e-02	2.06600245e-02	7.74790714e-04
6.07500000e-02	2.05218325e-02	7.72204864e-04
6.10000000e-02	2.07458213e-02	7.66594610e-04
6.12500000e-02	2.04159925e-02	7.54982621e-04
6.15000000e-02	2.07905582e-02	7.73385495e-04
6.17500000e-02	2.01925396e-02	7.52733137e-04
6.20000000e-02	2.06266271e-02	7.61026150e-04
6.22500000e-02	2.07335720e-02	7.63420141e-04
6.25000000e-02	2.01896240e-02	7.45012511e-04
6.27500000e-02	1.96170452e-02	7.18136092e-04
6.30000000e-02	2.02951471e-02	7.42499826e-04
6.32500000e-02	2.03062498e-02	7.43492215e-04
6.35000000e-02	2.04729273e-02	7.47280448e-04
6.37500000e-02	1.99406127e-02	7.34855442e-04
6.40000000e-02	2.01935918e-02	7.39247696e-04
6.42500000e-02	2.07693843e-02	7.54049350e-04
6.45000000e-02	2.02603419e-02	7.38707632e-04
6.47500000e-02	2.05903532e-02	7.50529309e-04
6.50000000e-02	2.05690217e-02	7.51860692e-04
6.52500000e-02	2.03448270e-02	7.37083259e-04
6.55000000e-02	2.00871831e-02	7.24107790e-04
6.57500000e-02	2.02223518e-02	7.30762458e-04
6.60000000e-02	2.06137602e-02	7.40025685e-04
6.62500000e-02	2.02326483e-02	7.29514517e-04
6.65000000e-02	2.04195485e-02	7.28744269e-04
6.67500000e-02	2.02991431e-02	7.23774566e-04
6.70000000e-02	2.02952740e-02	7.24582812e-04
6.72500000e-02	2.01286699e-02	7.22693690e-04
6.75000000e-02	2.01473806e-02	7.13306956e-04
6.77500000e-02	2.04756560e-02	7.34500202e-04
6.80000000e-02	2.00389124e-02	7.17947311e-04
6.82500000e-02	2.02622817e-02	7.19828629e-04
6.85000000e-02	1.99865817e-02	7.13848846e-04
6.87500000e-02	2.06573689e-02	7.28345803e-04
6.90000000e-02	1.99818977e-02	7.05250920e-04
6.92500000e-02	2.05246141e-02	7.24352024e-04
6.95000000e-02	2.06419211e-02	7.22047094e-04
6.97500000e-02	2.05602209e-02	7.24540654e-04
7.00000000e-02	2.01818901e-02	7.12202585e-04
7.02500000e-02	2.02901404e-02	7.16162130e-04
7.05000000e-02	1.99059604e-02	6.90053267e-04
7.07500000e-02	1.98836251e-02	7.06167355e-04
7.10000000e-02	2.01582252e-02	7.07998403e-04
7.12500000e-02	1.94571286e-02	6.78424642e-04
7.15000000e-02	2.04304067e-02	7.12175430e-04
7.17500000e-02	2.04593301e-02	7.12455273e-04
7.20000000e-02	1.95294840e-02	6.83642840e-04
7.22500000e-02	1.98414641e-02	6.92229316e-04
7.25000000e-02	2.05650878e-02	7.11650063e-04
7.27500000e-02	2.04265373e-02	7.04752658e-04
7.30000000e-02	2.05701636e-02	7.06999125e-04
7.32500000e-02	2.03971279e-02	7.03934122e-04
7.35000000e-02	2.02133573e-02	6.98920249e-04
7.37500000e-02	2.02871067e-02	6.92579423e-04
7.40000000e-02	2.00383358e-02	6.91192563e-04
7.42500000e-02	1.94552663e-02	6.68987002e-04
7.45000000e-02	1.94884999e-02	6.71076367e-04
7.47500000e-02	2.01137217e-02	6.92468871e-04
7.50000000e-02	2.03342541e-02	6.93644932e-04
7.52500000e-02	1.99182201e-02	6.83431963e-04
7.55000000e-02	1.96172150e-02	6.71391140e-04
7.57500000e-02	1.98328833e-02	6.78387937e-04
7.60000000e-02	1.99048921e-02	6.73981399e-04
7.62500000e-02	1.99720268e-02	6.79151702e-04
7.65000000e-02	2.01825569e-02	6.81437573e-04
7.67500000e-02	2.00583965e-02	6.81183553e-04
7.70000000e-02	2.01944176e-02	6.79339784e-04
7.72500000e-02	2.01793003e-02	6.97250977e-04
7.75000000e-02	1.99381921e-02	6.89928138e-04
7.77500000e-02	1.96499163e-02	6.85011170e-04
7.80000000e-02	2.02217051e-02	7.04421498e-04
7.82500000e-02	1.96796412e-02	6.98232381e-04
7.85000000e-02	2.01407541e-02	7.14812408e-04
7.87500000e-02	2.00180232e-02	7.11557690e-04
7.90000000e-02	2.01479672e-02	7.15354428e-04
7.92500000e-02	2.00628325e-02	7.15620348e-04
7.95000000e-02	1.94759271e-02	7.02344170e-04
7.97500000e-02	2.00940236e-02	7.21580290e-04
8.00000000e-02	2.04203543e-02	7.30700614e-04
8.02500000e-02	2.02794091e-02	7.26421066e-04
8.05000000e-02	2.04405567e-02	7.28817516e-04
8.07500000e-02	2.01529880e-02	7.37109091e-04
8.10000000e-02	1.98265773e-02	7.24613562e-04
8.12500000e-02	2.07767889e-02	7.59368950e-04
8.15000000e-02	2.03887734e-02	7.38871285e-04
8.17500000e-02	2.03068980e-02	7.49261777e-04
8.20000000e-02	2.06301443e-02	7.46699463e-04
8.22500000e-02	1.97024657e-02	7.31099306e-04
8.25000000e-02	1.96002690e-02	7.18740829e-04
8.27500000e-02	2.03785225e-02	7.41502844e-04
8.30000000e-02	2.03854472e-02	7.44650249e-04
8.32500000e-02	2.01507968e-02	7.40686248e-04
8.35000000e-02	2.03291895e-02	7.49447470e-04
8.37500000e-02	2.03286542e-02	7.41885342e-04
8.40000000e-02	1.96222046e-02	7.19286200e-04
8.42500000e-02	1.92522434e-02	7.12895683e-04
8.45000000e-02	1.97765731e-02	7.31328153e-04
8.47500000e-02	1.98302588e-02	7.37219971e-04
8.50000000e-02	2.00145677e-02	7.42803816e-04
8.52500000e-02	2.03148982e-02	7.48897730e-04
8.55000000e-02	2.01284192e-02	7.43559599e-04
8.57500000e-02	2.01274627e-02	7.54096254e-04
8.60000000e-02	1.95271059e-02	7.30188967e-04
8.62500000e-02	1.98596379e-02	7.39259884e-04
8.65000000e-02	1.99437074e-02	7.40568769e-04
8.67500000e-02	1.99517115e-02	7.31517695e-04
8.70000000e-02	2.00274906e-02	7.25740055e-04
8.72500000e-02	2.00455815e-02	7.15857070e-04
8.75000000e-02	1.95092056e-02	6.93973845e-04
8.77500000e-02	1.95651982e-02	6.96784470e-04
8.80000000e-02	2.02132887e-02	7.12890566e-04
8.82500000e-02	2.01736874e-02	7.07502722e-04
8.85000000e-02	1.99509144e-02	6.93299502e-04
8.87500000e-02	1.96266001e-02	6.76780100e-04
8.90000000e-02	1.99451168e-02	6.84536833e-04
8.92500000e-02	2.00124402e-02	6.93693932e-04
8.95000000e-02	1.96559975e-02	6.77425290e-04
8.97500000e-02	2.00640662e-02	6.85629429e-04
9.00000000e-02	1.95340068e-02	6.64500658e-04
9.02500000e-02	1.96673085e-02	6.75409720e-04
9.05000000e-02	2.00883720e-02	6.80839094e-04
9.07500000e-02	1.93382167e-02	6.54117675e-04
9.10000000e-02	1.97556586e-02	6.63915503e-04
9.12500000e-02	1.99132761e-02	6.72586472e-04
9.15000000e-02	1.97319802e-02	6.62989584e-04
9.17500000e-02	1.98071228e-02	6.64526060e-04
9.20000000e-02	2.02427605e-02	6.82833489e-04
9.22500000e-02	1.96373701e-02	6.62398365e-04
9.25000000e-02	1.99354974e-02	6.61279319e-04
9.27500000e-02	1.97885783e-02	6.59310359e-04
9.30000000e-02	1.95478297e-02	6.58046676e-04
9.32500000e-02	1.97484983e-02	6.57145417e-04
9.35000000e-02	1.99964185e-02	6.58274223e-04
9.37500000e-02	2.00088817e-02	6.55148251e-04
9.40000000e-02	1.96539066e-02	6.50445037e-04
9.42500000e-02	1.98677111e-02	6.49844768e-04
9.45000000e-02	1.98918601e-02	6.50173888e-04
9.47500000e-02	1.95108356e-02	6.42455524e-04
9.50000000e-02	1.91267679e-02	6.25050204e-04
9.52500000e-02	1.99598095e-02	6.57355766e-04
9.55000000e-02	1.99212738e-02	6.50019728e-04
9.57500000e-02	1.95485085e-02	6.40366135e-04
9.60000000e-02	1.97696483e-02	6.41782781e-04
9.62500000e-02	2.01037169e-02	6.57982768e-04
9.65000000e-02	1.96719479e-02	6.35011623e-04
9.67500000e-02	2.00497749e-02	6.47716250e-04
9.70000000e-02	1.96095332e-02	6.31285315e-04
9.72500000e-02	1.93896830e-02	6.23284843e-04
9.75000000e-02	1.97442704e-02	6.34304822e-04
9.77500000e-02	1.97833479e-02	6.32340607e-04
9.80000000e-02	2.01967096e-02	6.43524961e-04
9.82500000e-02	1.90914310e-02	6.13821679e-04
9.85000000e-02	1.96205659e-02	6.27623141e-04
9.87500000e-02	1.99314665e-02	6.40902782e-04
9.90000000e-02	2.01743696e-02	6.36759230e-04
9.92500000e-02	2.00054354e-02	6.34545364e-04
9.95000000e-02	1.99168941e-02	6.36950437e-04
9.97500000e-02	2.01908816e-02	6.35374162e-04
1.00000000e-01	1.97256117e-02	5.10793831e-04
1.00500000e-01	1.98765248e-02	4.42276041e-04
1.01000000e-01	1.93825194e-02	4.32228135e-04
1.01500000e-01	1.94256300e-02	4.33704160e-04
1.02000000e-01	1.96261144e-02	4.33639131e-04
1.02500000e-01	1.99276766e-02	4.39243897e-04
1.03000000e-01	1.95957600e-02	4.34094317e-04
1.03500000e-01	1.98058278e-02	4.36143162e-04
1.04000000e-01	1.96166212e-02	4.31021251e-04
1.04500000e-01	1.96774074e-02	4.29744539e-04
1.05000000e-01	1.97223213e-02	4.26428164e-04
1.05500000e-01	1.96574852e-02	4.29055920e-04
1.06000000e-01	1.96271853e-02	4.22943793e-04
1.06500000e-01	1.97914572e-02	4.28021209e-04
1.07000000e-01	1.99360345e-02	4.34138556e-04
1.07500000e-01	1.94639758e-02	4.34218565e-04
1.08000000e-01	1.99694346e-02	4.48701884e-04
1.08500000e-01	1.96121826e-02	4.44718106e-04
1.09000000e-01	1.94012936e-02	4.42486596e-04
1.09500000e-01	1.95776653e-02	4.49120943e-04
1.10000000e-01	1.98717385e-02	4.48054011e-04
1.10500000e-01	1.95355791e-02	4.34836929e-04
1.11000000e-01	1.99811378e-02	4.35463945e-04
1.11500000e-01	1.99530498e-02	4.32388662e-04
1.12000000e-01	1.93816492e-02	4.15159540e-04
1.12500000e-01	2.00888165e-02	4.27197129e-04
1.13000000e-01	1.97861108e-02	4.23521024e-04
1.13500000e-01	1.99272235e-02	4.21150232e-04
1.14000000e-01	1.96290319e-02	4.13678281e-04
1.14500000e-01	1.95572061e-02	4.13848581e-04
1.15000000e-01	1.95785288e-02	4.08491527e-04
1.15500000e-01	1.95051987e-02	4.09612892e-04
1.16000000e-01	1.98634187e-02	4.14397450e-04
1.16500000e-01	1.96537133e-02	4.08934726e-04
1.17000000e-01	1.97142976e-02	4.11351986e-04
1.17500000e-01	1.93356563e-02	4.01138811e-04
1.18000000e-01	2.00022703e-02	4.12554471e-04
1.18500000e-01	1.96033368e-02	4.02868623e-04
1.19000000e-01	1.96983633e-02	4.06540459e-04
1.19500000e-01	1.96385667e-02	4.02343907e-04
1.20000000e-01	1.98708645e-02	4.05385657e-04
1.20500000e-01	1.95747203e-02	3.99948218e-04
1.21000000e-01	1.96742750e-02	4.01833651e-04
1.21500000e-01	1.95102385e-02	3.99113466e-04
1.22000000e-01	1.97323080e-02	3.99871998e-04
1.22500000e-01	1.96085492e-02	3.96256136e-04
1.23000000e-01	1.95846928e-02	3.94923636e-04
1.23500000e-01	1.95975086e-02	3.94421796e-04
1.24000000e-01	1.95506398e-02	3.93479579e-04
1.24500000e-01	1.95348619e-02	3.90001839e-04
1.25000000e-01	1.97953249e-02	3.97193339e-04
1.25500000e-01	1.93465214e-02	3.87198943e-04
1.26000000e-01	1.95571863e-02	3.92170478e-04
1.26500000e-01	1.93628580e-02	3.84580520e-04
1.27000000e-01	1.94081981e-02	3.85698577e-04
1.27500000e-01	1.99101203e-02	3.92706351e-04
1.28000000e-01	1.98541942e-02	3.92628742e-04
1.28500000e-01	1.93995066e-02	3.82071078e-04
1.29000000e-01	1.97670366e-02	3.90686692e-04
1.29500000e-01	1.94833944e-02	3.83069788e-04
1.30000000e-01	1.96560601e-02	3.83393146e-04
1.30500000e-01	1.97578924e-02	3.85534313e-04
1.31000000e-01	1.97437555e-02	3.85136430e-04
1.31500000e-01	1.98152727e-02	3.85303975e-04
1.32000000e-01	1.96990531e-02	3.82431434e-04
1.32500000e-01	1.99026729e-02	3.86107174e-04
1.33000000e-01	1.94942905e-02	3.76691230e-04
1.33500000e-01	1.96356464e-02	3.78917367e-04
1.34000000e-01	1.97193824e-02	3.78923890e-04
1.34500000e-01	1.95831399e-02	3.75571040e-04
1.35000000e-01	1.95359028e-02	3.72732644e-04
1.35500000e-01	1.96100003e-02	3.71854876e-04
1.36000000e-01	1.93046660e-02	3.66785924e-04
1.36500000e-01	1.93985938e-02	3.71953735e-04
1.37000000e-01	1.97174597e-02	3.73591894e-04
1.37500000e-01	1.96715024e-02	3.72924949e-04
1.38000000e-01	1.95729759e-02	3.70795838e-04
1.38500000e-01	1.95808167e-02	3.71428283e-04
1.39000000e-01	1.95676059e-02	3.70641906e-04
1.39500000e-01	1.94463390e-02	3.68170247e-04
1.40000000e-01	1.93845205e-02	3.66136289e-04
1.40500000e-01	1.95911167e-02	3.68603225e-04
1.41000000e-01	1.94922004e-02	3.68479564e-04
1.41500000e-01	1.94124235e-02	3.67147420e-04
1.42000000e-01	1.94241161e-02	3.64861003e-04
1.42500000e-01	1.95318864e-02	3.66059775e-04
1.43000000e-01	1.92433052e-02	3.60632021e-04
1.43500000e-01	1.94953260e-02	3.63388908e-04
1.44000000e-01	1.93539487e-02	3.61971052e-04
1.44500000e-01	1.94571090e-02	3.60843821e-04
1.45000000e-01	1.94825630e-02	3.62900844e-04
1.45500000e-01	1.94515494e-02	3.61728173e-04
1.46000000e-01	1.94870806e-02	3.59910828e-04
1.46500000e-01	1.94703993e-02	3.61251206e-04
1.47000000e-01	1.94663278e-02	3.59156207e-04
1.47500000e-01	1.93497833e-02	3.56024439e-04
1.48000000e-01	1.95941494e-02	3.60249335e-04
1.48500000e-01	1.90229983e-02	3.50437651e-04
1.49000000e-01	1.92832064e-02	3.52872193e-04
1.49500000e-01	1.92150748e-02	3.51989030e-04
1.50000000e-01	1.92087459e-02	3.50902226e-04
1.50500000e-01	1.94637263e-02	3.56837734e-04
1.51000000e-01	1.94123952e-02	3.53578477e-04
1.51500000e-01	1.94657140e-02	3.53711882e-04
1.52000000e-01	1.93592284e-02	3.48561052e-04
1.52500000e-01	1.95187448e-02	3.53339870e-04
1.53000000e-01	1.92449456e-02	3.49804490e-04
1.53500000e-01	1.91208055e-02	3.44587343e-04
1.54000000e-01	1.92238040e-02	3.47090318e-04
1.54500000e-01	1.92930350e-02	3.55186173e-04
1.55000000e-01	1.93263997e-02	3.58388124e-04
1.55500000e-01	1.90601353e-02	3.57401933e-04
1.56000000e-01	1.92973946e-02	3.63116072e-04
1.56500000e-01	1.92435246e-02	3.60620182e-04
1.57000000e-01	1.94884745e-02	3.67646031e-04
1.57500000e-01	1.90316001e-02	3.52548071e-04
1.58000000e-01	1.95617699e-02	3.54783969e-04
1.58500000e-01	1.89510443e-02	3.44397389e-04
1.59000000e-01	1.86495443e-02	3.37713587e-04
1.59500000e-01	1.90289309e-02	3.42286622e-04
1.60000000e-01	1.92253359e-02	3.47000904e-04
1.60500000e-01	1.90572903e-02	3.40868515e-04
1.61000000e-01	1.90369430e-02	3.39846232e-04
1.61500000e-01	1.93744157e-02	3.44079407e-04
1.62000000e-01	1.90717042e-02	3.38616810e-04
1.62500000e-01	1.90694575e-02	3.38993429e-04
1.63000000e-01	1.89816360e-02	3.36119155e-04
1.63500000e-01	1.90712042e-02	3.38761509e-04
1.64000000e-01	1.88953573e-02	3.33735885e-04
1.64500000e-01	1.87659113e-02	3.31155497e-04
1.65000000e-01	1.88779963e-02	3.33083452e-04
1.65500000e-01	1.90376197e-02	3.35328340e-04
1.66000000e-01	1.92091643e-02	3.36301702e-04
1.66500000e-01	1.90804839e-02	3.34334673e-04
1.67000000e-01	1.91366342e-02	3.35478340e-04
1.67500000e-01	1.86933094e-02	3.26380031e-04
1.68000000e-01	1.92107393e-02	3.34562461e-04
1.68500000e-01	1.90894870e-02	3.32041824e-04
1.69000000e-01	1.89648022e-02	3.29323745e-04
1.69500000e-01	1.87826487e-02	3.25685100e-04
1.70000000e-01	1.88673462e-02	3.25437602e-04
1.70500000e-01	1.89172949e-02	3.28214151e-04
1.71000000e-01	1.89026103e-02	3.26897521e-04
1.71500000e-01	1.88735971e-02	3.25807691e-04
1.72000000e-01	1.86569904e-02	3.22527581e-04
1.72500000e-01	1.86197803e-02	3.23160040e-04
1.73000000e-01	1.88201156e-02	3.22856940e-04
1.73500000e-01	1.88338632e-02	3.20699441e-04
1.74000000e-01	1.85959874e-02	3.17113529e-04
1.74500000e-01	1.87660546e-02	3.18366909e-04
1.75000000e-01	1.86448431e-02	3.15894621e-04
1.75500000e-01	1.86271346e-02	3.16468323e-04
1.76000000e-01	1.86998060e-02	3.17246490e-04
1.76500000e-01	1.88524076e-02	3.20033490e-04
1.77000000e-01	1.85260090e-02	3.13136917e-04
1.77500000e-01	1.87623664e-02	3.17268898e-04
1.78000000e-01	1.85394503e-02	3.12773964e-04
1.78500000e-01	1.87521604e-02	3.16938472e-04
1.79000000e-01	1.89488652e-02	3.18949137e-04
1.79500000e-01	1.85451635e-02	3.13009079e-04
1.80000000e-01	1.86087051e-02	3.15140981e-04
1.80500000e-01	1.86893861e-02	3.15251426e-04
1.81000000e-01	1.83589400e-02	3.08473925e-04
1.81500000e-01	1.83849044e-02	3.08595325e-04
1.82000000e-01	1.90201263e-02	3.18208491e-04
1.82500000e-01	1.86051219e-02	3.11395751e-04
1.83000000e-01	1.84394886e-02	3.08561053e-04
1.83500000e-01	1.85151114e-02	3.08960991e-04
1.84000000e-01	1.87813564e-02	3.11947742e-04
1.84500000e-01	1.85786985e-02	3.09690461e-04
1.85000000e-01	1.85373881e-02	3.08989988e-04
1.85500000e-01	1.85804671e-02	3.08521620e-04
1.86000000e-01	1.87352116e-02	3.08858713e-04
1.86500000e-01	1.87381628e-02	3.10056835e-04
1.87000000e-01	1.82841572e-02	3.02744790e-04
1.87500000e-01	1.84438578e-02	3.05168423e-04
1.88000000e-01	1.86618623e-02	3.07636806e-04
1.88500000e-01	1.85773314e-02	3.05561518e-04
1.89000000e-01	1.88414711e-02	3.09107012e-04
1.89500000e-01	1.83980156e-02	3.02753979e-04
1.90000000e-01	1.86031079e-02	3.03736652e-04
1.90500000e-01	1.83439475e-02	3.01045628e-04
1.91000000e-01	1.84094451e-02	3.01067865e-04
1.91500000e-01	1.85909580e-02	3.04747613e-04
1.92000000e-01	1.85841563e-02	3.02736062e-04
1.92500000e-01	1.85084748e-02	3.03001030e-04
1.93000000e-01	1.87829453e-02	3.05512027e-04
1.93500000e-01	1.81732285e-02	2.95922077e-04
1.94000000e-01	1.84524920e-02	2.99189504e-04
1.94500000e-01	1.81550640e-02	2.95250895e-04
1.95000000e-01	1.83645358e-02	2.97189202e-04
1.95500000e-01	1.84851666e-02	2.99233449e-04
1.96000000e-01	1.83746047e-02	2.97317658e-04
1.96500000e-01	1.86485614e-02	3.01387633e-04
1.97000000e-01	1.82502867e-02	2.94423476e-04
1.97500000e-01	1.82526112e-02	2.94239423e-04
1.98000000e-01	1.84555439e-02	2.97035791e-04
1.98500000e-01	1.83971935e-02	2.95031306e-04
1.99000000e-01	1.84127144e-02	2.95107689e-04
1.99500000e-01	1.82789015e-02	2.93539975e-04
2.00000000e-01	1.84625218e-02	2.95206128e-04
2.00500000e-01	1.84323353e-02	2.93676635e-04
2.01000000e-01	1.82169900e-02	2.90864105e-04
2.01500000e-01	1.81914029e-02	2.91364365e-04
2.02000000e-01	1.83694653e-02	2.92460064e-04
2.02500000e-01	1.85878816e-02	2.94685395e-04
2.03000000e-01	1.84857489e-02	2.94219134e-04
2.03500000e-01	1.80428450e-02	2.86374430e-04
2.04000000e-01	1.80513157e-02	2.87897272e-04
2.04500000e-01	1.82984337e-02	2.89926987e-04
2.05000000e-01	1.81487382e-02	2.87228097e-04
2.05500000e-01	1.84303610e-02	2.91415480e-04
2.06000000e-01	1.82635792e-02	2.86964335e-04
2.06500000e-01	1.82088760e-02	2.86928030e-04
2.07000000e-01	1.81804524e-02	2.86014006e-04
2.07500000e-01	1.83457981e-02	2.88386193e-04
2.08000000e-01	1.78724300e-02	2.81279482e-04
2.08500000e-01	1.81767591e-02	2.85022175e-04
2.09000000e-01	1.83005226e-02	2.87043322e-04
2.09500000e-01	1.79759537e-02	2.80856488e-04
2.10000000e-01	1.80980018e-02	2.83286596e-04
2.10500000e-01	1.82338800e-02	2.84349035e-04
2.11000000e-01	1.78563911e-02	2.79688601e-04
2.11500000e-01	1.82627318e-02	2.83715363e-04
2.12000000e-01	1.81626233e-02	2.83051289e-04
2.12500000e-01	1.78417436e-02	2.79164140e-04
2.13000000e-01	1.82059671e-02	2.83466996e-04
2.13500000e-01	1.81549923e-02	2.82984496e-04
2.14000000e-01	1.77822912e-02	2.76362295e-04
2.14500000e-01	1.80067948e-02	2.79249790e-04
2.15000000e-01	1.79770494e-02	2.79499959e-04
2.15500000e-01	1.78992846e-02	2.76708914e-04
2.16000000e-01	1.82741003e-02	2.81312831e-04
2.16500000e-01	1.79337116e-02	2.76815494e-04
2.17000000e-01	1.82781697e-02	2.86286534e-04
2.17500000e-01	1.79811155e-02	2.86064952e-04
2.18000000e-01	1.81361224e-02	2.88007530e-04
2.18500000e-01	1.80072572e-02	2.90096187e-04
2.19000000e-01	1.82515738e-02	2.94389486e-04
2.19500000e-01	1.80547163e-02	2.91407671e-04
2.20000000e-01	1.79612046e-02	2.91249057e-04
2.20500000e-01	1.81847777e-02	2.94414110e-04
2.21000000e-01	1.79445424e-02	2.91939285e-04
2.21500000e-01	1.79854254e-02	2.94678876e-04
2.22000000e-01	1.78967245e-02	2.93685882e-04
2.22500000e-01	1.78730017e-02	2.92383131e-04
2.23000000e-01	1.77912315e-02	2.92462366e-04
2.23500000e-01	1.79611527e-02	2.96345038e-04
2.24000000e-01	1.81869446e-02	2.99374514e-04
2.24500000e-01	1.80130431e-02	2.98344602e-04
2.25000000e-01	1.80790504e-02	2.99648656e-04
2.25500000e-01	1.78729393e-02	2.96918565e-04
2.26000000e-01	1.75605672e-02	2.92974595e-04
2.26500000e-01	1.77591526e-02	2.91247136e-04
2.27000000e-01	1.79965678e-02	2.92647073e-04
2.27500000e-01	1.80643303e-02	2.90880361e-04
2.28000000e-01	1.78666018e-02	2.86036548e-04
2.28500000e-01	1.77649849e-02	2.83380919e-04
2.29000000e-01	1.79396729e-02	2.86144232e-04
2.29500000e-01	1.77014401e-02	2.80448039e-04
2.30000000e-01	1.75607174e-02	2.77794303e-04
2.30500000e-01	1.77735030e-02	2.78568525e-04
2.31000000e-01	1.77042304e-02	2.78407025e-04
2.31500000e-01	1.78129594e-02	2.79458351e-04
2.32000000e-01	1.80375789e-02	2.82173702e-04
2.32500000e-01	1.79179179e-02	2.80564866e-04
2.33000000e-01	1.75073171e-02	2.72760597e-04
2.33500000e-01	1.80891011e-02	2.80375184e-04
2.34000000e-01	1.78760407e-02	2.76226369e-04
2.34500000e-01	1.78208037e-02	2.74885394e-04
2.35000000e-01	1.77599959e-02	2.74839771e-04
2.35500000e-01	1.76145098e-02	2.71779347e-04
2.36000000e-01	1.74839218e-02	2.70304146e-04
2.36500000e-01	1.76974645e-02	2.72084113e-04
2.37000000e-01	1.78676190e-02	2.73771683e-04
2.37500000e-01	1.74136291e-02	2.67789636e-04
2.38000000e-01	1.76557190e-02	2.69604818e-04
2.38500000e-01	1.78190312e-02	2.71495334e-04
2.39000000e-01	1.77628932e-02	2.71151587e-04
2.39500000e-01	1.75376084e-02	2.67034394e-04
2.40000000e-01	1.76364361e-02	2.68285790e-04
2.40500000e-01	1.74994492e-02	2.64839201e-04
2.41000000e-01	1.76288379e-02	2.66606136e-04
2.41500000e-01	1.75818392e-02	2.65180878e-04
2.42000000e-01	1.76144936e-02	2.65894718e-04
2.42500000e-01	1.78961992e-02	2.68421291e-04
2.43000000e-01	1.77780467e-02	2.66372650e-04
2.43500000e-01	1.77697584e-02	2.67079309e-04
2.44000000e-01	1.75719932e-02	2.62168680e-04
2.44500000e-01	1.75158639e-02	2.62819453e-04
2.45000000e-01	1.79036288e-02	2.65900496e-04
2.45500000e-01	1.77515377e-02	2.64445733e-04
2.46000000e-01	1.76113674e-02	2.62561006e-04
2.46500000e-01	1.76505130e-02	2.62187448e-04
2.47000000e-01	1.74063301e-02	2.60220314e-04
2.47500000e-01	1.75345792e-02	2.59781106e-04
2.48000000e-01	1.75318228e-02	2.59514990e-04
2.48500000e-01	1.74755415e-02	2.58405538e-04
2.49000000e-01	1.75273786e-02	2.58960523e-04
2.49500000e-01	1.74184098e-02	2.57746262e-04
2.50000000e-01	1.75217206e-02	2.57949156e-04
2.50500000e-01	1.76728806e-02	2.60039358e-04
2.51000000e-01	1.76893777e-02	2.60854294e-04
2.51500000e-01	1.75534068e-02	2.58103268e-04
2.52000000e-01	1.73660205e-02	2.56594384e-04
2.52500000e-01	1.75386497e-02	2.57167636e-04
2.53000000e-01	1.75109499e-02	2.57902088e-04
2.53500000e-01	1.76297668e-02	2.57465739e-04
2.54000000e-01	1.73664543e-02	2.54733631e-04
2.54500000e-01	1.75771699e-02	2.58211349e-04
2.55000000e-01	1.72765205e-02	2.52639898e-04
2.55500000e-01	1.74094284e-02	2.54218401e-04
2.56000000e-01	1.73894931e-02	2.53615547e-04
2.56500000e-01	1.74450971e-02	2.54790267e-04
2.57000000e-01	1.72584093e-02	2.51251271e-04
2.57500000e-01	1.75130303e-02	2.54858414e-04
2.58000000e-01	1.72465968e-02	2.50624449e-04
2.58500000e-01	1.71596771e-02	2.49986165e-04
2.59000000e-01	1.71256779e-02	2.49621504e-04
2.59500000e-01	1.73670670e-02	2.50555681e-04
2.60000000e-01	1.71496152e-02	2.48870999e-04
2.60500000e-01	1.72070128e-02	2.49160789e-04
2.61000000e-01	1.74844368e-02	2.52297113e-04
2.61500000e-01	1.71838573e-02	2.48375809e-04
2.62000000e-01	1.72292251e-02	2.48388204e-04
2.62500000e-01	1.74389010e-02	2.50960428e-04
2.63000000e-01	1.72218638e-02	2.47851812e-04
2.63500000e-01	1.74546394e-02	2.49023069e-04
2.64000000e-01	1.70039781e-02	2.44828980e-04
2.64500000e-01	1.73217250e-02	2.47775347e-04
2.65000000e-01	1.72727786e-02	2.47453007e-04
2.65500000e-01	1.71160732e-02	2.44334765e-04
2.66000000e-01	1.73069577e-02	2.47643208e-04
2.66500000e-01	1.72337573e-02	2.46267956e-04
2.67000000e-01	1.73461646e-02	2.46850145e-04
2.67500000e-01	1.72230447e-02	2.45190947e-04
2.68000000e-01	1.70941963e-02	2.42767967e-04
2.68500000e-01	1.71619365e-02	2.43779080e-04
2.69000000e-01	1.71654858e-02	2.43808712e-04
2.69500000e-01	1.73155696e-02	2.44241683e-04
2.70000000e-01	1.71384331e-02	2.41849714e-04
2.70500000e-01	1.71801180e-02	2.42359055e-04
2.71000000e-01	1.73358179e-02	2.43973295e-04
2.71500000e-01	1.72373548e-02	2.42927584e-04
2.72000000e-01	1.74301217e-02	2.44900844e-04
2.72500000e-01	1.72324926e-02	2.42763143e-04
2.73000000e-01	1.73528471e-02	2.44109661e-04
2.73500000e-01	1.72815142e-02	2.41747534e-04
2.74000000e-01	1.72288234e-02	2.40924375e-04
2.74500000e-01	1.70746175e-02	2.39069264e-04
2.75000000e-01	1.73481919e-02	2.42904292e-04
2.75500000e-01	1.69815868e-02	2.38634967e-04
2.76000000e-01	1.70919913e-02	2.38592674e-04
2.76500000e-01	1.69657764e-02	2.37827872e-04
2.77000000e-01	1.71094146e-02	2.38909509e-04
2.77500000e-01	1.70556234e-02	2.39259787e-04
2.78000000e-01	1.70026870e-02	2.37516518e-04
2.78500000e-01	1.72323468e-02	2.40837145e-04
2.79000000e-01	1.70974886e-02	2.37457870e-04
2.79500000e-01	1.71291789e-02	2.38745768e-04
2.80000000e-01	1.69395456e-02	2.35652556e-04
2.80500000e-01	1.70348928e-02	2.36036295e-04
2.81000000e-01	1.69884770e-02	2.36021975e-04
2.81500000e-01	1.70627009e-02	2.36216782e-04
2.82000000e-01	1.70196427e-02	2.36353543e-04
2.82500000e-01	1.68861622e-02	2.34201933e-04
2.83000000e-01	1.70128530e-02	2.36024828e-04
2.83500000e-01	1.69008947e-02	2.34125011e-04
2.84000000e-01	1.69780359e-02	2.33410495e-04
2.84500000e-01	1.67903154e-02	2.31685463e-04
2.85000000e-01	1.69062233e-02	2.33143510e-04
2.85500000e-01	1.67602401e-02	2.31133129e-04
2.86000000e-01	1.70563514e-02	2.34075317e-04
2.86500000e-01	1.67947642e-02	2.31989450e-04
2.87000000e-01	1.68447439e-02	2.31035890e-04
2.87500000e-01	1.68150612e-02	2.30067682e-04
2.88000000e-01	1.67724222e-02	2.28771758e-04
2.88500000e-01	1.69708917e-02	2.32346625e-04
2.89000000e-01	1.69550728e-02	2.31872771e-04
2.89500000e-01	1.68422001e-02	2.30783109e-04
2.90000000e-01	1.68937979e-02	2.31025695e-04
2.90500000e-01	1.69210583e-02	2.30828470e-04
2.91000000e-01	1.68175850e-02	2.29506979e-04
2.91500000e-01	1.68522546e-02	2.28251515e-04
2.92000000e-01	1.68160085e-02	2.28288994e-04
2.92500000e-01	1.69429411e-02	2.29195266e-04
2.93000000e-01	1.67434928e-02	2.27165476e-04
2.93500000e-01	1.67482117e-02	2.27794173e-04
2.94000000e-01	1.68031541e-02	2.27362097e-04
2.94500000e-01	1.68705555e-02	2.29014020e-04
2.95000000e-01	1.66020337e-02	2.24021067e-04
2.95500000e-01	1.66701363e-02	2.26004324e-04
2.96000000e-01	1.70259494e-02	2.28876462e-04
2.96500000e-01	1.68999425e-02	2.27730659e-04
2.97000000e-01	1.68799922e-02	2.28546397e-04
2.97500000e-01	1.66032872e-02	2.23996250e-04
2.98000000e-01	1.69024532e-02	2.27674469e-04
2.98500000e-01	1.68482825e-02	2.27077703e-04
2.99000000e-01	1.66181739e-02	2.23841170e-04
2.99500000e-01	1.67612936e-02	2.25068146e-04
3.00000000e-01	1.66127324e-02	2.22366436e-04
3.00500000e-01	1.66556121e-02	2.23423106e-04
3.01000000e-01	1.68024678e-02	2.24398674e-04
3.01500000e-01	1.65633418e-02	2.21878954e-04
3.02000000e-01	1.68006092e-02	2.24208761e-04
3.02500000e-01	1.65567600e-02	2.21221062e-04
3.03000000e-01	1.68689013e-02	2.25137932e-04
3.03500000e-01	1.66756559e-02	2.23182301e-04
3.04000000e-01	1.66442672e-02	2.21974026e-04
3.04500000e-01	1.67660119e-02	2.23077843e-04
3.05000000e-01	1.67812838e-02	2.23995007e-04
3.05500000e-01	1.67126408e-02	2.22798892e-04
3.06000000e-01	1.65878324e-02	2.19112851e-04
3.06500000e-01	1.65235455e-02	2.19413327e-04
3.07000000e-01	1.69027625e-02	2.23229935e-04
3.07500000e-01	1.67297813e-02	2.21187668e-04
3.08000000e-01	1.66652299e-02	2.20675431e-04
3.08500000e-01	1.67516790e-02	2.21399621e-04
3.09000000e-01	1.65033760e-02	2.17763419e-04
3.09500000e-01	1.65294274e-02	2.18352098e-04
3.10000000e-01	1.64117198e-02	2.17342298e-04
3.10500000e-01	1.67358783e-02	2.20677711e-04
3.11000000e-01	1.65604241e-02	2.18084791e-04
3.11500000e-01	1.64635032e-02	2.16828038e-04
3.12000000e-01	1.65433554e-02	2.17248387e-04
3.12500000e-01	1.65891300e-02	2.18218907e-04
3.13000000e-01	1.62496671e-02	2.13206750e-04
3.13500000e-01	1.66335268e-02	2.19248015e-04
3.14000000e-01	1.65020073e-02	2.16471677e-04
3.14500000e-01	1.65828041e-02	2.17153795e-04
3.15000000e-01	1.64252060e-02	2.15791644e-04
3.15500000e-01	1.67202597e-02	2.18069867e-04
3.16000000e-01	1.63595279e-02	2.15090918e-04
3.16500000e-01	1.62800854e-02	2.13111289e-04
3.17000000e-01	1.64069981e-02	2.13977210e-04
3.17500000e-01	1.63789197e-02	2.13778867e-04
3.18000000e-01	1.64513382e-02	2.14794849e-04
3.18500000e-01	1.64685507e-02	2.14477986e-04
3.19000000e-01	1.64681931e-02	2.14194742e-04
3.19500000e-01	1.63658671e-02	2.12864311e-04
3.20000000e-01	1.65235680e-02	2.14645349e-04
3.20500000e-01	1.63078386e-02	2.12258959e-04
3.21000000e-01	1.66041966e-02	2.15383675e-04
3.21500000e-01	1.63687993e-02	2.12650350e-04
3.22000000e-01	1.62738270e-02	2.10999019e-04
3.22500000e-01	1.62560274e-02	2.10322975e-04
3.23000000e-01	1.62341449e-02	2.09856943e-04
3.23500000e-01	1.63008881e-02	2.10756490e-04
3.24000000e-01	1.62523958e-02	2.10623425e-04
3.24500000e-01	1.59329307e-02	2.06858730e-04
3.25000000e-01	1.63616982e-02	2.10699202e-04
3.25500000e-01	1.60467500e-02	2.07653034e-04
3.26000000e-01	1.64135061e-02	2.11699600e-04
3.26500000e-01	1.63646158e-02	2.10874573e-04
3.27000000e-01	1.61886442e-02	2.09036916e-04
3.27500000e-01	1.62479712e-02	2.09648911e-04
3.28000000e-01	1.60712999e-02	2.07486268e-04
3.28500000e-01	1.63520669e-02	2.10064383e-04
3.29000000e-01	1.61607743e-02	2.07494203e-04
3.29500000e-01	1.63504597e-02	2.09543510e-04
3.30000000e-01	1.61639034e-02	2.07521094e-04
3.30500000e-01	1.63016879e-02	2.08648469e-04
3.31000000e-01	1.60282578e-02	2.05313940e-04
3.31500000e-01	1.61272752e-02	2.06464739e-04
3.32000000e-01	1.62829012e-02	2.08105334e-04
3.32500000e-01	1.61527176e-02	2.06937622e-04
3.33000000e-01	1.62131870e-02	2.06778734e-04
3.33500000e-01	1.63604610e-02	2.07641191e-04
3.34000000e-01	1.62651884e-02	2.07553047e-04
3.34500000e-01	1.60106527e-02	2.04468116e-04
3.35000000e-01	1.62110287e-02	2.06586554e-04
3.35500000e-01	1.61477566e-02	2.05278470e-04
3.36000000e-01	1.59361101e-02	2.03118627e-04
3.36500000e-01	1.62747525e-02	2.06830138e-04
3.37000000e-01	1.63269695e-02	2.06082249e-04
3.37500000e-01	1.60593839e-02	2.03210757e-04
3.38000000e-01	1.59960442e-02	2.03238675e-04
3.38500000e-01	1.59987942e-02	2.02737106e-04
3.39000000e-01	1.60295932e-02	2.03355465e-04
3.39500000e-01	1.61576395e-02	2.04049791e-04
3.40000000e-01	1.59642613e-02	2.02284566e-04
3.40500000e-01	1.59777409e-02	2.01861257e-04
3.41000000e-01	1.59945904e-02	2.01759943e-04
3.41500000e-01	1.61118582e-02	2.03184294e-04
3.42000000e-01	1.61327419e-02	2.02682940e-04
3.42500000e-01	1.60527728e-02	2.02648731e-04
3.43000000e-01	1.59936196e-02	2.00237246e-04
3.43500000e-01	1.59297433e-02	1.99896153e-04
3.44000000e-01	1.59968273e-02	2.01206797e-04
3.44500000e-01	1.59691704e-02	2.00450769e-04
3.45000000e-01	1.59085948e-02	1.99825553e-04
3.45500000e-01	1.58995315e-02	1.99295245e-04
3.46000000e-01	1.59151411e-02	2.00495313e-04
3.46500000e-01	1.58779953e-02	1.98742044e-04
3.47000000e-01	1.58784509e-02	1.98575151e-04
3.47500000e-01	1.58526610e-02	1.98568633e-04
3.48000000e-01	1.58019082e-02	1.97331131e-04
3.48500000e-01	1.58203952e-02	1.98135288e-04
3.49000000e-01	1.59114648e-02	1.97920039e-04
3.49500000e-01	1.59771162e-02	1.99767430e-04
3.50000000e-01	1.58998451e-02	1.61818963e-04
3.51000000e-01	1.58645506e-02	1.39904817e-04
3.52000000e-01	1.57461213e-02	1.38743895e-04
3.53000000e-01	1.58298436e-02	1.38804280e-04
3.54000000e-01	1.58209706e-02	1.38507736e-04
3.55000000e-01	1.58402984e-02	1.38610132e-04
3.56000000e-01	1.57181471e-02	1.38002856e-04
3.57000000e-01	1.57458824e-02	1.40498234e-04
3.58000000e-01	1.57402923e-02	1.41866316e-04
3.59000000e-01	1.56051656e-02	1.41584626e-04
3.60000000e-01	1.55846981e-02	1.42890074e-04
3.61000000e-01	1.56273579e-02	1.43694977e-04
3.62000000e-01	1.55793273e-02	1.43799921e-04
3.63000000e-01	1.54966082e-02	1.44122921e-04
3.64000000e-01	1.56227157e-02	1.45473028e-04
3.65000000e-01	1.55887149e-02	1.45452502e-04
3.66000000e-01	1.55980823e-02	1.43758830e-04
3.67000000e-01	1.54432375e-02	1.40866096e-04
3.68000000e-01	1.55304384e-02	1.40256669e-04
3.69000000e-01	1.57212049e-02	1.41011270e-04
3.70000000e-01	1.54968663e-02	1.38578885e-04
3.71000000e-01	1.56282209e-02	1.41438339e-04
3.72000000e-01	1.53562725e-02	1.40397728e-04
3.73000000e-01	1.55879180e-02	1.42396953e-04
3.74000000e-01	1.55977539e-02	1.42787525e-04
3.75000000e-01	1.54514565e-02	1.41231273e-04
3.76000000e-01	1.54108242e-02	1.41393575e-04
3.77000000e-01	1.54370478e-02	1.41360063e-04
3.78000000e-01	1.54437725e-02	1.41262606e-04
3.79000000e-01	1.53341423e-02	1.40492040e-04
3.80000000e-01	1.53367889e-02	1.40346836e-04
3.81000000e-01	1.54111773e-02	1.41113441e-04
3.82000000e-01	1.53878077e-02	1.40608622e-04
3.83000000e-01	1.52962188e-02	1.39667612e-04
3.84000000e-01	1.53244167e-02	1.40373235e-04
3.85000000e-01	1.52774215e-02	1.39953229e-04
3.86000000e-01	1.52885717e-02	1.39216523e-04
3.87000000e-01	1.52219465e-02	1.38794362e-04
3.88000000e-01	1.52325882e-02	1.38845782e-04
3.89000000e-01	1.52296902e-02	1.39219223e-04
3.90000000e-01	1.52184479e-02	1.38567852e-04
3.91000000e-01	1.53880725e-02	1.40363256e-04
3.92000000e-01	1.53560593e-02	1.39520109e-04
3.93000000e-01	1.51738870e-02	1.38116696e-04
3.94000000e-01	1.51620549e-02	1.38147626e-04
3.95000000e-01	1.52474916e-02	1.38534218e-04
3.96000000e-01	1.51269426e-02	1.38020755e-04
3.97000000e-01	1.52407566e-02	1.38729388e-04
3.98000000e-01	1.52600468e-02	1.39286264e-04
3.99000000e-01	1.50437658e-02	1.37150751e-04
4.00000000e-01	1.51291873e-02	1.37912828e-04
4.01000000e-01	1.51434120e-02	1.38092876e-04
4.02000000e-01	1.49892241e-02	1.37003610e-04
4.03000000e-01	1.50380349e-02	1.37004046e-04
4.04000000e-01	1.51591352e-02	1.38015384e-04
4.05000000e-01	1.49990369e-02	1.36312455e-04
4.06000000e-01	1.49868122e-02	1.36544362e-04
4.07000000e-01	1.51067082e-02	1.37251778e-04
4.08000000e-01	1.49720042e-02	1.35930574e-04
4.09000000e-01	1.50092232e-02	1.36476946e-04
4.10000000e-01	1.49543468e-02	1.35693458e-04
4.11000000e-01	1.49146347e-02	1.35719150e-04
4.12000000e-01	1.50502460e-02	1.36646644e-04
4.13000000e-01	1.50104782e-02	1.36497503e-04
4.14000000e-01	1.49860053e-02	1.36212019e-04
4.15000000e-01	1.50485386e-02	1.36464201e-04
4.16000000e-01	1.49731870e-02	1.35504723e-04
4.17000000e-01	1.50204252e-02	1.36025531e-04
4.18000000e-01	1.49421745e-02	1.36944227e-04
4.19000000e-01	1.48806973e-02	1.38251729e-04
4.20000000e-01	1.50026845e-02	1.40093585e-04
4.21000000e-01	1.49362439e-02	1.39968992e-04
4.22000000e-01	1.49849189e-02	1.40664658e-04
4.23000000e-01	1.50629303e-02	1.41635201e-04
4.24000000e-01	1.49824978e-02	1.41317057e-04
4.25000000e-01	1.49803570e-02	1.41379678e-04
4.26000000e-01	1.49613638e-02	1.41250639e-04
4.27000000e-01	1.50016757e-02	1.41902742e-04
4.28000000e-01	1.49790160e-02	1.42214298e-04
4.29000000e-01	1.49757442e-02	1.42300385e-04
4.30000000e-01	1.49914699e-02	1.42377943e-04
4.31000000e-01	1.49203900e-02	1.41482121e-04
4.32000000e-01	1.48882621e-02	1.41775535e-04
4.33000000e-01	1.47705087e-02	1.40945336e-04
4.34000000e-01	1.48627428e-02	1.41338203e-04
4.35000000e-01	1.48474127e-02	1.41690661e-04
4.36000000e-01	1.48763006e-02	1.41489470e-04
4.37000000e-01	1.48155929e-02	1.41824992e-04
4.38000000e-01	1.48658011e-02	1.42256923e-04
4.39000000e-01	1.47841940e-02	1.41559825e-04
4.40000000e-01	1.48614618e-02	1.42551270e-04
4.41000000e-01	1.46450865e-02	1.40463340e-04
4.42000000e-01	1.47633194e-02	1.41923020e-04
4.43000000e-01	1.48183462e-02	1.42653552e-04
4.44000000e-01	1.47189878e-02	1.42098399e-04
4.45000000e-01	1.46385834e-02	1.41226228e-04
4.46000000e-01	1.46670190e-02	1.41411898e-04
4.47000000e-01	1.48098220e-02	1.42807777e-04
4.48000000e-01	1.47520632e-02	1.42496847e-04
4.49000000e-01	1.48549356e-02	1.44181805e-04
4.50000000e-01	1.46943802e-02	1.42463615e-04
4.51000000e-01	1.45848942e-02	1.41440526e-04
4.52000000e-01	1.45576538e-02	1.42065947e-04
4.53000000e-01	1.45948642e-02	1.42056734e-04
4.54000000e-01	1.46053028e-02	1.42235436e-04
4.55000000e-01	1.47543034e-02	1.44106782e-04
4.56000000e-01	1.45271508e-02	1.41456113e-04
4.57000000e-01	1.47275567e-02	1.43682045e-04
4.58000000e-01	1.46706495e-02	1.43155109e-04
4.59000000e-01	1.45146911e-02	1.42130192e-04
4.60000000e-01	1.45407622e-02	1.42620553e-04
4.61000000e-01	1.45385013e-02	1.42485330e-04
4.62000000e-01	1.45660205e-02	1.42835863e-04
4.63000000e-01	1.47130614e-02	1.44280769e-04
4.64000000e-01	1.45575391e-02	1.42736182e-04
4.65000000e-01	1.44420206e-02	1.42116968e-04
4.66000000e-01	1.44969157e-02	1.42656426e-04
4.67000000e-01	1.45933967e-02	1.43549768e-04
4.68000000e-01	1.45323960e-02	1.43145654e-04
4.69000000e-01	1.46002342e-02	1.43582094e-04
4.70000000e-01	1.44470511e-02	1.42793274e-04
4.71000000e-01	1.44886009e-02	1.42983280e-04
4.72000000e-01	1.46308929e-02	1.44476598e-04
4.73000000e-01	1.44630526e-02	1.41671779e-04
4.74000000e-01	1.43325682e-02	1.40968095e-04
4.75000000e-01	1.44986356e-02	1.43076673e-04
4.76000000e-01	1.45526158e-02	1.42848011e-04
4.77000000e-01	1.44671869e-02	1.42675343e-04
4.78000000e-01	1.43835121e-02	1.42383605e-04
4.79000000e-01	1.44346690e-02	1.42738778e-04
4.80000000e-01	1.43356206e-02	1.41316227e-04
4.81000000e-01	1.44383529e-02	1.42405341e-04
4.82000000e-01	1.44009749e-02	1.42376824e-04
4.83000000e-01	1.43912878e-02	1.42270351e-04
4.84000000e-01	1.42915035e-02	1.41727986e-04
4.85000000e-01	1.43975497e-02	1.41891820e-04
4.86000000e-01	1.43373208e-02	1.41983872e-04
4.87000000e-01	1.43250250e-02	1.41937997e-04
4.88000000e-01	1.44450460e-02	1.43342519e-04
4.89000000e-01	1.42609289e-02	1.41949136e-04
4.90000000e-01	1.42047851e-02	1.41335353e-04
4.91000000e-01	1.43897457e-02	1.42499340e-04
4.92000000e-01	1.43642518e-02	1.42601595e-04
4.93000000e-01	1.43944078e-02	1.42778166e-04
4.94000000e-01	1.43468264e-02	1.42845682e-04
4.95000000e-01	1.43246878e-02	1.43591098e-04
4.96000000e-01	1.43320053e-02	1.48097826e-04
4.97000000e-01	1.42493283e-02	1.49667985e-04
4.98000000e-01	1.42205072e-02	1.51698204e-04
4.99000000e-01	1.41170952e-02	1.52365499e-04
5.00000000e-01	1.43183613e-02	1.56070305e-04
5.01000000e-01	1.42488606e-02	1.55903931e-04
5.02000000e-01	1.43588932e-02	1.59511839e-04
5.03000000e-01	1.43451864e-02	1.61092331e-04
5.04000000e-01	1.41752135e-02	1.60467593e-04
5.05000000e-01	1.42117800e-02	1.58490473e-04
5.06000000e-01	1.42527183e-02	1.54904527e-04
5.07000000e-01	1.43128944e-02	1.53827677e-04
5.08000000e-01	1.44114475e-02	1.53967183e-04
5.09000000e-01	1.41843655e-02	1.51082622e-04
5.10000000e-01	1.41348566e-02	1.50523017e-04
5.11000000e-01	1.42013761e-02	1.50717944e-04
5.12000000e-01	1.42278244e-02	1.50477868e-04
5.13000000e-01	1.43130818e-02	1.51167198e-04
5.14000000e-01	1.41500849e-02	1.49388254e-04
5.15000000e-01	1.42332471e-02	1.49254866e-04
5.16000000e-01	1.40601850e-02	1.47590649e-04
5.17000000e-01	1.41666418e-02	1.48289994e-04
5.18000000e-01	1.40416043e-02	1.46994673e-04
5.19000000e-01	1.41384824e-02	1.46920394e-04
5.20000000e-01	1.40200337e-02	1.45902941e-04
5.21000000e-01	1.41876272e-02	1.47419833e-04
5.22000000e-01	1.39284694e-02	1.44616384e-04
5.23000000e-01	1.40011947e-02	1.45398753e-04
5.24000000e-01	1.40903092e-02	1.46931380e-04
5.25000000e-01	1.41500773e-02	1.46684315e-04
5.26000000e-01	1.40642275e-02	1.45699217e-04
5.27000000e-01	1.39927398e-02	1.45157554e-04
5.28000000e-01	1.38747020e-02	1.44294098e-04
5.29000000e-01	1.38996657e-02	1.44517268e-04
5.30000000e-01	1.39771968e-02	1.45173212e-04
5.31000000e-01	1.40311213e-02	1.45722187e-04
5.32000000e-01	1.40778117e-02	1.45892020e-04
5.33000000e-01	1.39731790e-02	1.44867489e-04
5.34000000e-01	1.39605461e-02	1.45007052e-04
5.35000000e-01	1.37934337e-02	1.43527246e-04
5.36000000e-01	1.39324796e-02	1.44695378e-04
5.37000000e-01	1.39321958e-02	1.44753653e-04
5.38000000e-01	1.37864850e-02	1.42894118e-04
5.39000000e-01	1.38738481e-02	1.44363911e-04
5.40000000e-01	1.39022554e-02	1.43989230e-04
5.41000000e-01	1.38630358e-02	1.43752588e-04
5.42000000e-01	1.37707762e-02	1.43124892e-04
5.43000000e-01	1.37892718e-02	1.43064521e-04
5.44000000e-01	1.37487627e-02	1.43076241e-04
5.45000000e-01	1.38837216e-02	1.44078961e-04
5.46000000e-01	1.38092157e-02	1.43282178e-04
5.47000000e-01	1.38299897e-02	1.44163210e-04
5.48000000e-01	1.37051686e-02	1.42161271e-04
5.49000000e-01	1.37797780e-02	1.43030282e-04
5.50000000e-01	1.37364651e-02	1.42379113e-04
5.51000000e-01	1.36960881e-02	1.42133532e-04
5.52000000e-01	1.37306992e-02	1.42257896e-04
5.53000000e-01	1.37952311e-02	1.42988580e-04
5.54000000e-01	1.38547491e-02	1.43046981e-04
5.55000000e-01	1.36306669e-02	1.40844058e-04
5.56000000e-01	1.37366208e-02	1.41809679e-04
5.57000000e-01	1.37637419e-02	1.42101258e-04
5.58000000e-01	1.37339624e-02	1.41665370e-04
5.59000000e-01	1.36927679e-02	1.41187881e-04
5.60000000e-01	1.36658278e-02	1.41642921e-04
5.61000000e-01	1.37839227e-02	1.42104680e-04
5.62000000e-01	1.37301469e-02	1.41870925e-04
5.63000000e-01	1.35707632e-02	1.40179623e-04
5.64000000e-01	1.35763610e-02	1.39829026e-04
5.65000000e-01	1.36006969e-02	1.40381774e-04
5.66000000e-01	1.34821834e-02	1.39434766e-04
5.67000000e-01	1.35220263e-02	1.39606445e-04
5.68000000e-01	1.34163603e-02	1.38824727e-04
5.69000000e-01	1.35073682e-02	1.39454164e-04
5.70000000e-01	1.36071804e-02	1.40572189e-04
5.71000000e-01	1.36227704e-02	1.40874151e-04
5.72000000e-01	1.35448056e-02	1.39715248e-04
5.73000000e-01	1.34454767e-02	1.39567872e-04
5.74000000e-01	1.35050439e-02	1.39611835e-04
5.75000000e-01	1.34945739e-02	1.40005563e-04
5.76000000e-01	1.35741671e-02	1.40532273e-04
5.77000000e-01	1.35932266e-02	1.40406739e-04
5.78000000e-01	1.34467717e-02	1.39273577e-04
5.79000000e-01	1.35392329e-02	1.39800399e-04
5.80000000e-01	1.35802850e-02	1.40509897e-04
5.81000000e-01	1.34702546e-02	1.39403498e-04
5.82000000e-01	1.34723326e-02	1.39662067e-04
5.83000000e-01	1.33779109e-02	1.38712355e-04
5.84000000e-01	1.34214363e-02	1.39212645e-04
5.85000000e-01	1.33405378e-02	1.38534723e-04
5.86000000e-01	1.32495546e-02	1.37969936e-04
5.87000000e-01	1.33823564e-02	1.38858318e-04
5.88000000e-01	1.32941190e-02	1.38130440e-04
5.89000000e-01	1.33308212e-02	1.38716204e-04
5.90000000e-01	1.33221723e-02	1.38256921e-04
5.91000000e-01	1.34110908e-02	1.39229199e-04
5.92000000e-01	1.33437616e-02	1.38565881e-04
5.93000000e-01	1.31942993e-02	1.37410576e-04
5.94000000e-01	1.33025870e-02	1.38710283e-04
5.95000000e-01	1.33081765e-02	1.38219481e-04
5.96000000e-01	1.32156471e-02	1.37535454e-04
5.97000000e-01	1.33090452e-02	1.38146314e-04
5.98000000e-01	1.33591871e-02	1.38964760e-04
5.99000000e-01	1.33766328e-02	1.38568536e-04
6.00000000e-01	1.31184466e-02	1.36648045e-04
6.01000000e-01	1.32268494e-02	1.37718123e-04
6.02000000e-01	1.32026854e-02	1.37570047e-04
6.03000000e-01	1.32712735e-02	1.38416351e-04
6.04000000e-01	1.32796127e-02	1.38202568e-04
6.05000000e-01	1.32761628e-02	1.37972731e-04
6.06000000e-01	1.32374573e-02	1.38061963e-04
6.07000000e-01	1.31725850e-02	1.37554637e-04
6.08000000e-01	1.31777695e-02	1.37304521e-04
6.09000000e-01	1.32336133e-02	1.37537307e-04
6.10000000e-01	1.31372487e-02	1.37192198e-04
6.11000000e-01	1.31174130e-02	1.36848332e-04
6.12000000e-01	1.31558851e-02	1.37211668e-04
6.13000000e-01	1.31532544e-02	1.37289159e-04
6.14000000e-01	1.30859452e-02	1.36529152e-04
6.15000000e-01	1.31338364e-02	1.37220254e-04
6.16000000e-01	1.31172756e-02	1.36644783e-04
6.17000000e-01	1.30062002e-02	1.35692623e-04
6.18000000e-01	1.31287406e-02	1.37219797e-04
6.19000000e-01	1.31538885e-02	1.36822267e-04
6.20000000e-01	1.32198485e-02	1.37757445e-04
6.21000000e-01	1.30617111e-02	1.36015914e-04
6.22000000e-01	1.29644923e-02	1.34495562e-04
6.23000000e-01	1.30849025e-02	1.35770221e-04
6.24000000e-01	1.30675530e-02	1.35571389e-04
6.25000000e-01	1.29694420e-02	1.34322457e-04
6.26000000e-01	1.30731045e-02	1.35314958e-04
6.27000000e-01	1.30119942e-02	1.35167706e-04
6.28000000e-01	1.30295788e-02	1.35200888e-04
6.29000000e-01	1.30773328e-02	1.35955698e-04
6.30000000e-01	1.29320294e-02	1.34314425e-04
6.31000000e-01	1.30170767e-02	1.35407531e-04
6.32000000e-01	1.29708542e-02	1.34443211e-04
6.33000000e-01	1.31253784e-02	1.35926753e-04
6.34000000e-01	1.29585446e-02	1.37738547e-04
6.35000000e-01	1.29576538e-02	1.41944689e-04
6.36000000e-01	1.29965425e-02	1.44409509e-04
6.37000000e-01	1.31179802e-02	1.48337876e-04
6.38000000e-01	1.30098949e-02	1.48939387e-04
6.39000000e-01	1.31366285e-02	1.52626760e-04
6.40000000e-01	1.30602871e-02	1.53394079e-04
6.41000000e-01	1.31015170e-02	1.55135647e-04
6.42000000e-01	1.31778229e-02	1.57949614e-04
6.43000000e-01	1.30367531e-02	1.55833000e-04
6.44000000e-01	1.31214318e-02	1.51939536e-04
6.45000000e-01	1.31594450e-02	1.49423454e-04
6.46000000e-01	1.30210790e-02	1.47588385e-04
6.47000000e-01	1.30165753e-02	1.45661881e-04
6.48000000e-01	1.30531616e-02	1.45383156e-04
6.49000000e-01	1.31088622e-02	1.45489147e-04
6.50000000e-01	1.31307678e-02	1.44257696e-04
6.51000000e-01	1.30498467e-02	1.43470749e-04
6.52000000e-01	1.30848138e-02	1.43301242e-04
6.53000000e-01	1.29799758e-02	1.41412851e-04
6.54000000e-01	1.30702391e-02	1.42198856e-04
6.55000000e-01	1.29783368e-02	1.40588547e-04
6.56000000e-01	1.29830809e-02	1.40364643e-04
6.57000000e-01	1.29051089e-02	1.39915753e-04
6.58000000e-01	1.29205175e-02	1.40120392e-04
6.59000000e-01	1.30045445e-02	1.40548692e-04
6.60000000e-01	1.27938976e-02	1.38741483e-04
6.61000000e-01	1.29111894e-02	1.39007605e-04
6.62000000e-01	1.29469027e-02	1.40161821e-04
6.63000000e-01	1.29859270e-02	1.39966952e-04
6.64000000e-01	1.28410759e-02	1.38136351e-04
6.65000000e-01	1.28725724e-02	1.38163821e-04
6.66000000e-01	1.28345726e-02	1.38176269e-04
6.67000000e-01	1.29472493e-02	1.39281666e-04
6.68000000e-01	1.28816051e-02	1.38863566e-04
6.69000000e-01	1.28968361e-02	1.38755927e-04
6.70000000e-01	1.27817952e-02	1.37434038e-04
6.71000000e-01	1.27834400e-02	1.37402479e-04
6.72000000e-01	1.28184695e-02	1.38239238e-04
6.73000000e-01	1.29110654e-02	1.38440619e-04
6.74000000e-01	1.27105261e-02	1.36482286e-04
6.75000000e-01	1.29370026e-02	1.38669338e-04
6.76000000e-01	1.26929549e-02	1.36285221e-04
6.77000000e-01	1.28049036e-02	1.37362943e-04
6.78000000e-01	1.28395915e-02	1.38165298e-04
6.79000000e-01	1.28320152e-02	1.37735555e-04
6.80000000e-01	1.28878368e-02	1.37895269e-04
6.81000000e-01	1.27505091e-02	1.36817510e-04
6.82000000e-01	1.28046879e-02	1.37079123e-04
6.83000000e-01	1.27954289e-02	1.37349652e-04
6.84000000e-01	1.27842155e-02	1.36709464e-04
6.85000000e-01	1.28041586e-02	1.36669043e-04
6.86000000e-01	1.27985893e-02	1.37888047e-04
6.87000000e-01	1.27572738e-02	1.36585764e-04
6.88000000e-01	1.27232523e-02	1.36082819e-04
6.89000000e-01	1.27323963e-02	1.36134949e-04
6.90000000e-01	1.27696437e-02	1.36467101e-04
6.91000000e-01	1.28471075e-02	1.37411087e-04
6.92000000e-01	1.26834018e-02	1.35721852e-04
6.93000000e-01	1.25590764e-02	1.34700614e-04
6.94000000e-01	1.25424347e-02	1.34566697e-04
6.95000000e-01	1.26017396e-02	1.34843476e-04
6.96000000e-01	1.26401227e-02	1.35286671e-04
6.97000000e-01	1.26378965e-02	1.35507714e-04
6.98000000e-01	1.25779125e-02	1.35166321e-04
6.99000000e-01	1.26039878e-02	1.34501240e-04
7.00000000e-01	1.26663220e-02	1.35434652e-04
7.01000000e-01	1.25757792e-02	1.34333112e-04
7.02000000e-01	1.25544978e-02	1.34518719e-04
7.03000000e-01	1.25528858e-02	1.34175454e-04
7.04000000e-01	1.26089691e-02	1.35115304e-04
7.05000000e-01	1.26823506e-02	1.36474219e-04
7.06000000e-01	1.25473682e-02	1.34390443e-04
7.07000000e-01	1.24420995e-02	1.32954886e-04
7.08000000e-01	1.25967910e-02	1.34218767e-04
7.09000000e-01	1.25243903e-02	1.34009252e-04
7.10000000e-01	1.24959394e-02	1.33590620e-04
7.11000000e-01	1.24296027e-02	1.33073553e-04
7.12000000e-01	1.25473848e-02	1.33821172e-04
7.13000000e-01	1.25198928e-02	1.33920421e-04
7.14000000e-01	1.24516045e-02	1.33335008e-04
7.15000000e-01	1.25144800e-02	1.34635890e-04
7.16000000e-01	1.23669703e-02	1.32434746e-04
7.17000000e-01	1.23367839e-02	1.31984935e-04
7.18000000e-01	1.23899341e-02	1.32393291e-04
7.19000000e-01	1.24440955e-02	1.33439204e-04
7.20000000e-01	1.24814820e-02	1.32948438e-04
7.21000000e-01	1.24602793e-02	1.33353126e-04
7.22000000e-01	1.23014026e-02	1.31657463e-04
7.23000000e-01	1.21861161e-02	1.30734038e-04
7.24000000e-01	1.22020566e-02	1.30810247e-04
7.25000000e-01	1.23010371e-02	1.31947175e-04
7.26000000e-01	1.22656851e-02	1.31715612e-04
7.27000000e-01	1.21475523e-02	1.30713518e-04
7.28000000e-01	1.21691750e-02	1.30962282e-04
7.29000000e-01	1.21793759e-02	1.30722227e-04
7.30000000e-01	1.23096914e-02	1.31739422e-04
7.31000000e-01	1.22270498e-02	1.30762928e-04
7.32000000e-01	1.21836750e-02	1.30823323e-04
7.33000000e-01	1.23183516e-02	1.31765877e-04
7.34000000e-01	1.22848495e-02	1.31750131e-04
7.35000000e-01	1.21733588e-02	1.29879077e-04
7.36000000e-01	1.20288325e-02	1.28457374e-04
7.37000000e-01	1.21227542e-02	1.29439222e-04
7.38000000e-01	1.22040872e-02	1.30103576e-04
7.39000000e-01	1.21251997e-02	1.28777696e-04
7.40000000e-01	1.23446493e-02	1.30988734e-04
7.41000000e-01	1.21435934e-02	1.28637579e-04
7.42000000e-01	1.21068570e-02	1.28707231e-04
7.43000000e-01	1.21185385e-02	1.28629082e-04
7.44000000e-01	1.22327586e-02	1.29792350e-04
7.45000000e-01	1.21589810e-02	1.29053216e-04
7.46000000e-01	1.22280881e-02	1.29391352e-04
7.47000000e-01	1.20064808e-02	1.27859691e-04
7.48000000e-01	1.20438835e-02	1.28174716e-04
7.49000000e-01	1.21306105e-02	1.28873967e-04
7.50000000e-01	1.22236769e-02	1.29262253e-04
7.51000000e-01	1.20263581e-02	1.27428323e-04
7.52000000e-01	1.22262896e-02	1.29771131e-04
7.53000000e-01	1.20272578e-02	1.27879653e-04
7.54000000e-01	1.20576177e-02	1.28179276e-04
7.55000000e-01	1.20919150e-02	1.28627205e-04
7.56000000e-01	1.21684314e-02	1.29159914e-04
7.57000000e-01	1.20069351e-02	1.27535505e-04
7.58000000e-01	1.20138818e-02	1.27953059e-04
7.59000000e-01	1.19858412e-02	1.27147201e-04
7.60000000e-01	1.20463562e-02	1.27555076e-04
7.61000000e-01	1.19873868e-02	1.26964450e-04
7.62000000e-01	1.19527215e-02	1.26810376e-04
7.63000000e-01	1.18627435e-02	1.25301578e-04
7.64000000e-01	1.19377775e-02	1.26202749e-04
7.65000000e-01	1.19506169e-02	1.25813505e-04
7.66000000e-01	1.19653671e-02	1.26070475e-04
7.67000000e-01	1.18400658e-02	1.25197985e-04
7.68000000e-01	1.19767963e-02	1.26248677e-04
7.69000000e-01	1.17558325e-02	1.24290722e-04
7.70000000e-01	1.19241698e-02	1.25566602e-04
7.71000000e-01	1.19101005e-02	1.25618114e-04
7.72000000e-01	1.17978399e-02	1.28579708e-04
7.73000000e-01	1.18416305e-02	1.32530853e-04
7.74000000e-01	1.17224840e-02	1.34617656e-04
7.75000000e-01	1.18787683e-02	1.38238676e-04
7.76000000e-01	1.19201584e-02	1.40395988e-04
7.77000000e-01	1.18062491e-02	1.41806466e-04
7.78000000e-01	1.18262953e-02	1.43595367e-04
7.79000000e-01	1.17337170e-02	1.44197808e-04
7.80000000e-01	1.17063088e-02	1.45840431e-04
7.81000000e-01	1.17216555e-02	1.48062394e-04
7.82000000e-01	1.15714268e-02	1.47264170e-04
7.83000000e-01	1.16464528e-02	1.50389884e-04
7.84000000e-01	1.16765955e-02	1.52359153e-04
7.85000000e-01	1.16831741e-02	1.53987315e-04
7.86000000e-01	1.17941605e-02	1.56703694e-04
7.87000000e-01	1.15976730e-02	1.55833252e-04
7.88000000e-01	1.16626898e-02	1.58140716e-04
7.89000000e-01	1.17097187e-02	1.60346423e-04
7.90000000e-01	1.16026831e-02	1.61063492e-04
7.91000000e-01	1.16385799e-02	1.62587576e-04
7.92000000e-01	1.16703371e-02	1.64500756e-04
7.93000000e-01	1.15178542e-02	1.64289085e-04
7.94000000e-01	1.16658162e-02	1.67950912e-04
7.95000000e-01	1.15496245e-02	1.67709407e-04
7.96000000e-01	1.15672496e-02	1.69252236e-04
7.97000000e-01	1.15728318e-02	1.72044234e-04
7.98000000e-01	1.15690144e-02	1.73480047e-04
7.99000000e-01	1.14400421e-02	1.73829773e-04
8.00000000e-01	1.14415416e-02	1.74603876e-04
8.01000000e-01	1.16311232e-02	1.79408801e-04
8.02000000e-01	1.14723903e-02	1.78462913e-04
8.03000000e-01	1.14068128e-02	1.81325848e-04
8.04000000e-01	1.15128762e-02	1.83475388e-04
8.05000000e-01	1.13848809e-02	1.83641724e-04
8.06000000e-01	1.15051023e-02	1.88589646e-04
8.07000000e-01	1.14738484e-02	1.89158315e-04
8.08000000e-01	1.13324186e-02	1.89901124e-04
8.09000000e-01	1.15734961e-02	1.94628133e-04
8.10000000e-01	1.13953572e-02	1.94356412e-04
8.11000000e-01	1.13867220e-02	1.95546590e-04
8.12000000e-01	1.13766115e-02	1.98473059e-04
8.13000000e-01	1.11642189e-02	1.97752335e-04
8.14000000e-01	1.11075472e-02	1.98872907e-04
8.15000000e-01	1.13105970e-02	2.05884993e-04
8.16000000e-01	1.13009291e-02	2.06341890e-04
8.17000000e-01	1.11742086e-02	2.08219053e-04
8.18000000e-01	1.08871315e-02	2.05617173e-04
8.19000000e-01	1.12321388e-02	2.12993673e-04
8.20000000e-01	1.12084325e-02	2.16586731e-04
8.21000000e-01	1.11810138e-02	2.20246561e-04
8.22000000e-01	1.12992245e-02	2.22734003e-04
8.23000000e-01	1.13197716e-02	2.25543495e-04
8.24000000e-01	1.12727026e-02	2.26818561e-04
8.25000000e-01	1.13994312e-02	2.34410250e-04
8.26000000e-01	1.11648979e-02	2.33605631e-04
8.27000000e-01	1.14569168e-02	2.42597396e-04
8.28000000e-01	1.10186342e-02	2.36617287e-04
8.29000000e-01	1.12679418e-02	2.47402816e-04
8.30000000e-01	1.12101189e-02	2.49345840e-04
8.31000000e-01	1.08036860e-02	2.45233980e-04
8.32000000e-01	1.09877440e-02	2.53623745e-04
8.33000000e-01	1.10834471e-02	2.59525582e-04
8.34000000e-01	1.09527926e-02	2.62257828e-04
8.35000000e-01	1.09975866e-02	2.67518998e-04
8.36000000e-01	1.10445356e-02	2.72236941e-04
8.37000000e-01	1.12808910e-02	2.82894789e-04
8.38000000e-01	1.09407251e-02	2.79730581e-04
8.39000000e-01	1.08936390e-02	2.84709500e-04
8.40000000e-01	1.07607449e-02	2.85543549e-04
8.41000000e-01	1.11248743e-02	3.01294843e-04
8.42000000e-01	1.11106553e-02	3.08654836e-04
8.43000000e-01	1.08331153e-02	3.10845608e-04
8.44000000e-01	1.08797405e-02	3.20848976e-04
8.45000000e-01	1.07534850e-02	3.25098502e-04
8.46000000e-01	1.09067454e-02	3.33318575e-04
8.47000000e-01	1.07129546e-02	3.43566102e-04
8.48000000e-01	1.11029869e-02	3.60329725e-04
8.49000000e-01	1.10909267e-02	3.72743458e-04
8.50000000e-01	1.10441015e-02	3.82820729e-04
8.51000000e-01	1.04844602e-02	3.88654599e-04
8.52000000e-01	1.03954978e-02	3.92544191e-04
8.53000000e-01	1.07119840e-02	4.19910920e-04
8.54000000e-01	1.05903558e-02	4.35093122e-04
8.55000000e-01	1.06364277e-02	4.58016899e-04
8.56000000e-01	1.04275593e-02	4.62748542e-04
8.57000000e-01	1.02670267e-02	4.64272537e-04
8.58000000e-01	1.09300169e-02	5.02147226e-04
8.59000000e-01	1.07807824e-02	5.04234651e-04
8.60000000e-01	1.07157517e-02	5.30212537e-04
8.61000000e-01	1.09756110e-02	5.59541366e-04
8.62000000e-01	9.88148000e-03	5.34857862e-04
8.63000000e-01	1.06066525e-02	5.80078697e-04
8.64000000e-01	1.05252802e-02	6.10159308e-04
8.65000000e-01	9.94928275e-03	5.96765022e-04
8.66000000e-01	1.03678695e-02	6.47949266e-04
8.67000000e-01	9.54810391e-03	6.51262861e-04
8.68000000e-01	1.11123008e-02	7.89136706e-04
8.69000000e-01	1.08317227e-02	8.25627558e-04
8.70000000e-01	9.46972147e-03	7.89140135e-04
8.71000000e-01	1.16919177e-02	1.10276411e-03
8.72000000e-01	1.11194252e-02	1.21344074e-03
8.73000000e-01	1.18295052e-02	1.45934914e-03
8.74000000e-01	1.09952009e-02	1.82080735e-03
8.75000000e-01	1.14865697e-02	3.80043327e-03
