% Filename : SDL7_00012_00166.h5
% Date & Time : 30-Oct-2025 14:56:07
% X-ray Energy (keV) : 13.30001
% Exposure Time (s) : 0.500
% Beam Center : 1461.24000, 208.98300
% Sample to Detector Distance (SDD) (mm) : 1990.750
% Detector Pixel Size (mm) : 0.075
% Photodiode Value : 136152.000
% I0 of Sample : 0
% I0 of Standard : 1
% 
% q(A^-1)   I(q)    I(q)_SE
0.00000000e+00	7.96169773e-03	4.59668156e-03
2.50000000e-04	0.00000000e+00	0.00000000e+00
5.00000000e-04	0.00000000e+00	0.00000000e+00
7.50000000e-04	0.00000000e+00	0.00000000e+00
1.00000000e-03	0.00000000e+00	0.00000000e+00
1.25000000e-03	0.00000000e+00	0.00000000e+00
1.50000000e-03	0.00000000e+00	0.00000000e+00
1.75000000e-03	0.00000000e+00	0.00000000e+00
2.00000000e-03	0.00000000e+00	0.00000000e+00
2.25000000e-03	0.00000000e+00	0.00000000e+00
2.50000000e-03	0.00000000e+00	0.00000000e+00
2.75000000e-03	0.00000000e+00	0.00000000e+00
3.00000000e-03	0.00000000e+00	0.00000000e+00
3.25000000e-03	7.46695197e+01	6.69121972e+01
3.50000000e-03	1.35608313e+01	1.07032019e+01
3.75000000e-03	7.39956640e+00	5.45391610e+00
4.00000000e-03	5.02408136e+00	3.08382697e+00
4.25000000e-03	1.52003583e+00	3.92726452e-01
4.50000000e-03	3.23258141e+00	1.57472819e+00
4.75000000e-03	3.59451874e+00	1.29785866e+00
5.00000000e-03	3.03041288e+00	1.13305783e+00
5.25000000e-03	2.41853717e+00	8.63080768e-01
5.50000000e-03	2.03293408e+00	7.06250482e-01
5.75000000e-03	1.60387297e+00	5.10480141e-01
6.00000000e-03	1.35303654e+00	4.21017815e-01
6.25000000e-03	1.18961650e+00	3.66880163e-01
6.50000000e-03	9.95610369e-01	3.02170596e-01
6.75000000e-03	8.61222631e-01	2.52779861e-01
7.00000000e-03	7.46908265e-01	2.17625431e-01
7.25000000e-03	6.73098144e-01	1.95330131e-01
7.50000000e-03	5.60308275e-01	1.58264571e-01
7.75000000e-03	5.22891322e-01	1.48591082e-01
8.00000000e-03	4.41071503e-01	1.14859985e-01
8.25000000e-03	4.00861869e-01	1.06492729e-01
8.50000000e-03	3.29466929e-01	8.17816486e-02
8.75000000e-03	3.28555777e-01	8.57793498e-02
9.00000000e-03	2.83678937e-01	6.94582852e-02
9.25000000e-03	2.66227802e-01	6.77057251e-02
9.50000000e-03	2.22228798e-01	5.28134427e-02
9.75000000e-03	2.08071462e-01	4.96323252e-02
1.00000000e-02	1.85310319e-01	4.19953116e-02
1.02500000e-02	1.71571329e-01	3.90506045e-02
1.05000000e-02	1.54794982e-01	3.32434680e-02
1.07500000e-02	1.46801444e-01	3.06314787e-02
1.10000000e-02	1.35679686e-01	2.79371254e-02
1.12500000e-02	1.15808618e-01	2.43770478e-02
1.15000000e-02	1.16692463e-01	2.45125382e-02
1.17500000e-02	1.04946101e-01	2.17991279e-02
1.20000000e-02	9.49403403e-02	1.77377441e-02
1.22500000e-02	9.56961006e-02	1.86394571e-02
1.25000000e-02	8.81542019e-02	1.63009188e-02
1.27500000e-02	8.53833444e-02	1.62536132e-02
1.30000000e-02	7.93287320e-02	1.41304831e-02
1.32500000e-02	7.52585082e-02	1.31135178e-02
1.35000000e-02	7.35148579e-02	1.25082484e-02
1.37500000e-02	6.78375141e-02	1.10201567e-02
1.40000000e-02	6.46844241e-02	1.05707093e-02
1.42500000e-02	5.92829954e-02	9.51181919e-03
1.45000000e-02	5.95251918e-02	9.41101816e-03
1.47500000e-02	5.60624336e-02	8.14837542e-03
1.50000000e-02	5.57572708e-02	8.71064053e-03
1.52500000e-02	5.21615829e-02	7.58522423e-03
1.55000000e-02	4.94620956e-02	7.49788093e-03
1.57500000e-02	4.79308837e-02	6.67331130e-03
1.60000000e-02	4.48203580e-02	6.13217110e-03
1.62500000e-02	4.37451499e-02	5.87799507e-03
1.65000000e-02	4.28843617e-02	5.63127763e-03
1.67500000e-02	4.14508172e-02	4.99099884e-03
1.70000000e-02	4.07300245e-02	5.00639834e-03
1.72500000e-02	3.86097605e-02	4.35443945e-03
1.75000000e-02	3.72041650e-02	4.08992559e-03
1.77500000e-02	3.66814749e-02	3.90118309e-03
1.80000000e-02	3.58734465e-02	3.79958882e-03
1.82500000e-02	3.62941682e-02	3.77729301e-03
1.85000000e-02	3.46312137e-02	3.65120502e-03
1.87500000e-02	3.48585566e-02	3.40000195e-03
1.90000000e-02	3.35302367e-02	3.15741553e-03
1.92500000e-02	3.18237811e-02	2.81500998e-03
1.95000000e-02	3.25627334e-02	2.65905239e-03
1.97500000e-02	3.27051121e-02	2.99529870e-03
2.00000000e-02	2.94796037e-02	2.53885299e-03
2.02500000e-02	2.91068175e-02	2.23719700e-03
2.05000000e-02	2.96095474e-02	2.36359675e-03
2.07500000e-02	2.93979095e-02	2.52434064e-03
2.10000000e-02	2.84506407e-02	2.11672581e-03
2.12500000e-02	3.04113888e-02	2.43727163e-03
2.15000000e-02	2.92317725e-02	2.19431316e-03
2.17500000e-02	2.95255365e-02	2.32894116e-03
2.20000000e-02	2.77954618e-02	1.97141276e-03
2.22500000e-02	2.75989603e-02	2.06705634e-03
2.25000000e-02	2.72473914e-02	1.96704532e-03
2.27500000e-02	2.77267538e-02	1.93689654e-03
2.30000000e-02	2.86907236e-02	1.93597098e-03
2.32500000e-02	2.70394663e-02	1.82966632e-03
2.35000000e-02	2.65976714e-02	1.70940630e-03
2.37500000e-02	2.74049677e-02	1.79681859e-03
2.40000000e-02	2.64720253e-02	1.67790822e-03
2.42500000e-02	2.63133754e-02	1.68702494e-03
2.45000000e-02	2.59603622e-02	1.63656478e-03
2.47500000e-02	2.62746213e-02	1.51404042e-03
2.50000000e-02	2.53661781e-02	1.63672861e-03
2.52500000e-02	2.48305745e-02	1.41759066e-03
2.55000000e-02	2.55860958e-02	1.47232544e-03
2.57500000e-02	2.53535621e-02	1.46434090e-03
2.60000000e-02	2.45085984e-02	1.39996583e-03
2.62500000e-02	2.49659545e-02	1.40503564e-03
2.65000000e-02	2.42621986e-02	1.39211345e-03
2.67500000e-02	2.35911951e-02	1.38624819e-03
2.70000000e-02	2.45059264e-02	1.34791941e-03
2.72500000e-02	2.47331681e-02	1.29307038e-03
2.75000000e-02	2.50221649e-02	1.36010499e-03
2.77500000e-02	2.56263632e-02	1.39579777e-03
2.80000000e-02	2.35131217e-02	1.22452072e-03
2.82500000e-02	2.45534634e-02	1.24731281e-03
2.85000000e-02	2.44467489e-02	1.30316647e-03
2.87500000e-02	2.40425875e-02	1.25297583e-03
2.90000000e-02	2.44429751e-02	1.29311326e-03
2.92500000e-02	2.46489548e-02	1.23415646e-03
2.95000000e-02	2.40409637e-02	1.22165847e-03
2.97500000e-02	2.56045328e-02	1.32541362e-03
3.00000000e-02	2.44293120e-02	1.24412337e-03
3.02500000e-02	2.45612106e-02	1.25571489e-03
3.05000000e-02	2.42578280e-02	1.17778627e-03
3.07500000e-02	2.32726741e-02	1.13204615e-03
3.10000000e-02	2.40608403e-02	1.19315054e-03
3.12500000e-02	2.45202607e-02	1.23738579e-03
3.15000000e-02	2.35933512e-02	1.17765023e-03
3.17500000e-02	2.37553952e-02	1.13206369e-03
3.20000000e-02	2.43304309e-02	1.17886728e-03
3.22500000e-02	2.39164215e-02	1.14580756e-03
3.25000000e-02	2.33385227e-02	1.13643206e-03
3.27500000e-02	2.30310646e-02	1.09909390e-03
3.30000000e-02	2.24065327e-02	1.06587889e-03
3.32500000e-02	2.37363034e-02	1.11164948e-03
3.35000000e-02	2.24707421e-02	1.07218026e-03
3.37500000e-02	2.37722665e-02	1.13179877e-03
3.40000000e-02	2.33816297e-02	1.11960543e-03
3.42500000e-02	2.33223479e-02	1.08917854e-03
3.45000000e-02	2.29917034e-02	1.08765181e-03
3.47500000e-02	2.29377528e-02	1.06722124e-03
3.50000000e-02	2.31199672e-02	1.08107885e-03
3.52500000e-02	2.28014958e-02	1.05779810e-03
3.55000000e-02	2.30224869e-02	1.03950634e-03
3.57500000e-02	2.24772728e-02	1.05413661e-03
3.60000000e-02	2.25492018e-02	1.03244891e-03
3.62500000e-02	2.21895368e-02	1.01647385e-03
3.65000000e-02	2.17141511e-02	1.00079068e-03
3.67500000e-02	2.20339054e-02	1.02114542e-03
3.70000000e-02	2.37319511e-02	1.07073222e-03
3.72500000e-02	2.21579209e-02	1.00140471e-03
3.75000000e-02	2.23286831e-02	1.01866113e-03
3.77500000e-02	2.26143416e-02	1.01881311e-03
3.80000000e-02	2.27765009e-02	1.02833346e-03
3.82500000e-02	2.19915808e-02	9.83962182e-04
3.85000000e-02	2.21689198e-02	1.00452493e-03
3.87500000e-02	2.17658235e-02	9.71277902e-04
3.90000000e-02	2.17845974e-02	9.77632553e-04
3.92500000e-02	2.15664438e-02	9.54056241e-04
3.95000000e-02	2.18030804e-02	9.70034048e-04
3.97500000e-02	2.07809477e-02	9.22669245e-04
4.00000000e-02	2.22508665e-02	9.90480072e-04
4.02500000e-02	2.10851052e-02	9.37931498e-04
4.05000000e-02	2.13389892e-02	9.34572037e-04
4.07500000e-02	2.16835018e-02	9.55520582e-04
4.10000000e-02	2.18367838e-02	9.48437578e-04
4.12500000e-02	2.16359512e-02	9.40192349e-04
4.15000000e-02	2.19299952e-02	9.46731625e-04
4.17500000e-02	2.16091981e-02	9.37633819e-04
4.20000000e-02	2.15268664e-02	9.21827167e-04
4.22500000e-02	2.11587455e-02	9.10830196e-04
4.25000000e-02	2.12836509e-02	9.16365821e-04
4.27500000e-02	2.18307469e-02	9.35976004e-04
4.30000000e-02	2.08137995e-02	8.86175789e-04
4.32500000e-02	2.16164956e-02	9.17258129e-04
4.35000000e-02	2.12344720e-02	9.05638388e-04
4.37500000e-02	2.11874273e-02	9.04996548e-04
4.40000000e-02	2.14888560e-02	9.19256800e-04
4.42500000e-02	2.08863732e-02	8.86088562e-04
4.45000000e-02	2.13159646e-02	8.94874239e-04
4.47500000e-02	2.18055328e-02	9.02706422e-04
4.50000000e-02	2.08771912e-02	8.78585743e-04
4.52500000e-02	2.09256005e-02	8.89089750e-04
4.55000000e-02	2.17338662e-02	9.01733336e-04
4.57500000e-02	2.13382375e-02	8.81510314e-04
4.60000000e-02	2.18030963e-02	9.12413726e-04
4.62500000e-02	2.10242367e-02	8.76957969e-04
4.65000000e-02	2.10907986e-02	8.73394143e-04
4.67500000e-02	2.14997806e-02	8.81546826e-04
4.70000000e-02	2.20485857e-02	9.05681598e-04
4.72500000e-02	2.12503508e-02	8.73812919e-04
4.75000000e-02	2.14823769e-02	8.91676754e-04
4.77500000e-02	2.12386519e-02	8.74823249e-04
4.80000000e-02	2.04517198e-02	8.38456471e-04
4.82500000e-02	2.03145792e-02	8.29439224e-04
4.85000000e-02	2.16216053e-02	8.83807358e-04
4.87500000e-02	2.14585142e-02	8.83766603e-04
4.90000000e-02	2.09778828e-02	8.45609587e-04
4.92500000e-02	2.07681889e-02	8.47097266e-04
4.95000000e-02	2.20349843e-02	8.93595026e-04
4.97500000e-02	2.12611575e-02	8.57032964e-04
5.00000000e-02	2.07343711e-02	8.29952030e-04
5.02500000e-02	2.04358942e-02	8.19223547e-04
5.05000000e-02	2.10190965e-02	8.53135158e-04
5.07500000e-02	2.09009714e-02	8.35103890e-04
5.10000000e-02	2.09925925e-02	8.44527733e-04
5.12500000e-02	2.06074309e-02	8.37258504e-04
5.15000000e-02	2.07525763e-02	8.28429403e-04
5.17500000e-02	2.02919725e-02	8.11771681e-04
5.20000000e-02	2.12396764e-02	8.39851193e-04
5.22500000e-02	2.05100486e-02	8.21190667e-04
5.25000000e-02	2.11764976e-02	8.33417698e-04
5.27500000e-02	2.06113362e-02	8.06449052e-04
5.30000000e-02	1.97345051e-02	7.82940161e-04
5.32500000e-02	2.02402333e-02	7.97092700e-04
5.35000000e-02	2.16872021e-02	8.49569402e-04
5.37500000e-02	2.01896463e-02	7.96742080e-04
5.40000000e-02	2.13959593e-02	8.38874605e-04
5.42500000e-02	2.09887535e-02	8.20563220e-04
5.45000000e-02	2.04808232e-02	8.03543594e-04
5.47500000e-02	2.01535504e-02	7.75161656e-04
5.50000000e-02	2.13947312e-02	8.32696763e-04
5.52500000e-02	2.07442500e-02	7.98528128e-04
5.55000000e-02	2.11000277e-02	8.07306894e-04
5.57500000e-02	2.09622570e-02	8.17437036e-04
5.60000000e-02	2.09146268e-02	8.02223385e-04
5.62500000e-02	2.04851516e-02	7.98059114e-04
5.65000000e-02	2.05069153e-02	7.83295047e-04
5.67500000e-02	2.03952161e-02	7.86548335e-04
5.70000000e-02	2.11885413e-02	8.09495296e-04
5.72500000e-02	2.07735880e-02	7.94789434e-04
5.75000000e-02	2.06224529e-02	7.85184169e-04
5.77500000e-02	2.08131552e-02	7.84620784e-04
5.80000000e-02	2.06053423e-02	7.82780310e-04
5.82500000e-02	1.99906335e-02	7.57661092e-04
5.85000000e-02	2.04754326e-02	7.79440580e-04
5.87500000e-02	2.09359488e-02	7.83508070e-04
5.90000000e-02	1.95060517e-02	7.40989092e-04
5.92500000e-02	2.05904233e-02	7.75743053e-04
5.95000000e-02	2.04115299e-02	7.66576660e-04
5.97500000e-02	1.99259036e-02	7.51048404e-04
6.00000000e-02	2.06839560e-02	7.79460908e-04
6.02500000e-02	2.04936571e-02	7.63770937e-04
6.05000000e-02	2.07875437e-02	7.65677857e-04
6.07500000e-02	2.04766398e-02	7.69748295e-04
6.10000000e-02	2.04040566e-02	7.61672863e-04
6.12500000e-02	2.02521565e-02	7.48489618e-04
6.15000000e-02	2.01119401e-02	7.47902168e-04
6.17500000e-02	1.98492729e-02	7.33325927e-04
6.20000000e-02	2.11135079e-02	7.78089363e-04
6.22500000e-02	2.07071559e-02	7.63338056e-04
6.25000000e-02	2.07464577e-02	7.65829071e-04
6.27500000e-02	2.05578123e-02	7.48638974e-04
6.30000000e-02	2.06405773e-02	7.55438311e-04
6.32500000e-02	1.97530699e-02	7.25689900e-04
6.35000000e-02	2.04857656e-02	7.46513261e-04
6.37500000e-02	2.00581998e-02	7.40570002e-04
6.40000000e-02	2.07842679e-02	7.53526024e-04
6.42500000e-02	2.06368077e-02	7.48217402e-04
6.45000000e-02	2.01755026e-02	7.34018112e-04
6.47500000e-02	2.01994905e-02	7.36624165e-04
6.50000000e-02	1.98808750e-02	7.23897615e-04
6.52500000e-02	1.98956478e-02	7.13709894e-04
6.55000000e-02	1.95140934e-02	7.10364105e-04
6.57500000e-02	2.07501056e-02	7.56283069e-04
6.60000000e-02	2.03710567e-02	7.29505811e-04
6.62500000e-02	2.01166890e-02	7.29774257e-04
6.65000000e-02	1.97786548e-02	7.09441438e-04
6.67500000e-02	1.98542648e-02	7.05724284e-04
6.70000000e-02	2.04413145e-02	7.38896035e-04
6.72500000e-02	2.01521762e-02	7.26505741e-04
6.75000000e-02	2.00199134e-02	7.07139628e-04
6.77500000e-02	1.99960332e-02	7.14711750e-04
6.80000000e-02	1.94592911e-02	6.96027969e-04
6.82500000e-02	2.05148113e-02	7.28659093e-04
6.85000000e-02	1.90188647e-02	6.80286721e-04
6.87500000e-02	2.01350727e-02	7.15957225e-04
6.90000000e-02	2.05894018e-02	7.25227512e-04
6.92500000e-02	2.01902370e-02	7.08749735e-04
6.95000000e-02	2.00410360e-02	7.17946367e-04
6.97500000e-02	2.04508673e-02	7.14827568e-04
7.00000000e-02	1.99621413e-02	7.03163818e-04
7.02500000e-02	2.03844574e-02	7.15932998e-04
7.05000000e-02	2.00647455e-02	6.96905938e-04
7.07500000e-02	2.05697272e-02	7.24322038e-04
7.10000000e-02	1.99164800e-02	6.96614071e-04
7.12500000e-02	1.97504046e-02	6.93082542e-04
7.15000000e-02	1.98836103e-02	6.91032385e-04
7.17500000e-02	2.05479798e-02	7.18365591e-04
7.20000000e-02	2.01223575e-02	6.98293813e-04
7.22500000e-02	1.98993377e-02	6.90817773e-04
7.25000000e-02	1.98940927e-02	6.90926994e-04
7.27500000e-02	2.04553350e-02	7.03025559e-04
7.30000000e-02	1.99047583e-02	6.90762902e-04
7.32500000e-02	2.00616639e-02	6.89369245e-04
7.35000000e-02	2.00654214e-02	6.93304458e-04
7.37500000e-02	1.99431820e-02	6.83601125e-04
7.40000000e-02	1.94548355e-02	6.69368099e-04
7.42500000e-02	1.97452740e-02	6.87774342e-04
7.45000000e-02	2.02058500e-02	6.90846173e-04
7.47500000e-02	2.01611722e-02	6.88373993e-04
7.50000000e-02	1.98217599e-02	6.81156847e-04
7.52500000e-02	2.01904505e-02	6.88904549e-04
7.55000000e-02	1.99295078e-02	6.72861223e-04
7.57500000e-02	1.98750726e-02	6.80212277e-04
7.60000000e-02	2.02180530e-02	6.84093964e-04
7.62500000e-02	2.02090264e-02	6.86626860e-04
7.65000000e-02	2.03433256e-02	6.91827733e-04
7.67500000e-02	1.96301212e-02	6.67575784e-04
7.70000000e-02	1.99568828e-02	6.70863415e-04
7.72500000e-02	1.98678509e-02	6.80434006e-04
7.75000000e-02	2.00257407e-02	6.90893046e-04
7.77500000e-02	2.02029410e-02	6.99279881e-04
7.80000000e-02	1.95763444e-02	6.83103202e-04
7.82500000e-02	1.94269908e-02	6.84205598e-04
7.85000000e-02	1.99311316e-02	7.04057198e-04
7.87500000e-02	2.07954541e-02	7.31361328e-04
7.90000000e-02	2.03122275e-02	7.17307989e-04
7.92500000e-02	1.97830339e-02	7.08785006e-04
7.95000000e-02	1.98773885e-02	7.09275905e-04
7.97500000e-02	1.95583746e-02	7.09332458e-04
8.00000000e-02	2.01692858e-02	7.26185212e-04
8.02500000e-02	1.98868917e-02	7.19594860e-04
8.05000000e-02	2.01618404e-02	7.21883565e-04
8.07500000e-02	2.00896255e-02	7.24741098e-04
8.10000000e-02	1.98659392e-02	7.19459872e-04
8.12500000e-02	2.00469189e-02	7.30137080e-04
8.15000000e-02	2.00732714e-02	7.23537883e-04
8.17500000e-02	1.97055616e-02	7.19452449e-04
8.20000000e-02	2.03423708e-02	7.43415394e-04
8.22500000e-02	2.01100937e-02	7.30384056e-04
8.25000000e-02	1.91160430e-02	6.98323129e-04
8.27500000e-02	1.98819926e-02	7.26995271e-04
8.30000000e-02	2.00205061e-02	7.38035800e-04
8.32500000e-02	2.01074711e-02	7.40462048e-04
8.35000000e-02	1.93686585e-02	7.16554427e-04
8.37500000e-02	1.98364488e-02	7.28003352e-04
8.40000000e-02	2.02356986e-02	7.44874712e-04
8.42500000e-02	1.98317017e-02	7.37265551e-04
8.45000000e-02	2.04833899e-02	7.55934107e-04
8.47500000e-02	1.98931012e-02	7.46760576e-04
8.50000000e-02	2.00938973e-02	7.46067305e-04
8.52500000e-02	1.88948304e-02	7.01922107e-04
8.55000000e-02	2.02251439e-02	7.45981660e-04
8.57500000e-02	2.03333810e-02	7.53253298e-04
8.60000000e-02	1.96984478e-02	7.42515083e-04
8.62500000e-02	2.00357318e-02	7.45369247e-04
8.65000000e-02	1.95021216e-02	7.22820172e-04
8.67500000e-02	2.02610095e-02	7.49875238e-04
8.70000000e-02	1.97215464e-02	7.24303436e-04
8.72500000e-02	2.00372360e-02	7.18215637e-04
8.75000000e-02	1.97290720e-02	6.94745564e-04
8.77500000e-02	2.01358566e-02	7.16010665e-04
8.80000000e-02	1.99082561e-02	7.05623300e-04
8.82500000e-02	1.97967491e-02	6.94274763e-04
8.85000000e-02	2.02378327e-02	7.08112246e-04
8.87500000e-02	1.99327391e-02	6.85373161e-04
8.90000000e-02	1.99534922e-02	6.91244957e-04
8.92500000e-02	2.03848159e-02	7.11058770e-04
8.95000000e-02	2.02039200e-02	6.90892773e-04
8.97500000e-02	2.00344833e-02	6.79167370e-04
9.00000000e-02	1.96044371e-02	6.65685545e-04
9.02500000e-02	1.94893548e-02	6.60654738e-04
9.05000000e-02	2.04177150e-02	6.88171197e-04
9.07500000e-02	1.97345789e-02	6.66587225e-04
9.10000000e-02	1.97179437e-02	6.58527813e-04
9.12500000e-02	1.99784243e-02	6.69192002e-04
9.15000000e-02	2.01413730e-02	6.80478803e-04
9.17500000e-02	1.95169719e-02	6.56385878e-04
9.20000000e-02	1.94729060e-02	6.54492905e-04
9.22500000e-02	1.96328188e-02	6.59173247e-04
9.25000000e-02	1.94811866e-02	6.51959173e-04
9.27500000e-02	1.96613228e-02	6.52408269e-04
9.30000000e-02	1.97521198e-02	6.55746650e-04
9.32500000e-02	2.01676294e-02	6.69544403e-04
9.35000000e-02	2.03466422e-02	6.71116578e-04
9.37500000e-02	1.94709709e-02	6.38747052e-04
9.40000000e-02	1.97980715e-02	6.60744525e-04
9.42500000e-02	1.92140205e-02	6.32403825e-04
9.45000000e-02	1.96547336e-02	6.45027994e-04
9.47500000e-02	2.01745744e-02	6.63998035e-04
9.50000000e-02	1.95391869e-02	6.40060646e-04
9.52500000e-02	2.04994332e-02	6.66736168e-04
9.55000000e-02	1.96663836e-02	6.41099427e-04
9.57500000e-02	1.96541929e-02	6.39168145e-04
9.60000000e-02	2.02424721e-02	6.54470461e-04
9.62500000e-02	1.98813201e-02	6.44949709e-04
9.65000000e-02	1.97078191e-02	6.40633389e-04
9.67500000e-02	2.03251716e-02	6.54645581e-04
9.70000000e-02	1.99786620e-02	6.39251647e-04
9.72500000e-02	1.93825531e-02	6.25185778e-04
9.75000000e-02	1.98312860e-02	6.37317501e-04
9.77500000e-02	1.99569754e-02	6.31419997e-04
9.80000000e-02	1.97815496e-02	6.34225803e-04
9.82500000e-02	1.96414966e-02	6.29484539e-04
9.85000000e-02	1.99570723e-02	6.36689478e-04
9.87500000e-02	2.00006253e-02	6.37721073e-04
9.90000000e-02	1.90952407e-02	6.08530033e-04
9.92500000e-02	1.93645137e-02	6.20623902e-04
9.95000000e-02	1.99318776e-02	6.35785122e-04
9.97500000e-02	1.99089941e-02	6.36330431e-04
1.00000000e-01	1.96857536e-02	5.10036011e-04
1.00500000e-01	1.97265704e-02	4.45137782e-04
1.01000000e-01	1.94942993e-02	4.35484463e-04
1.01500000e-01	1.96978087e-02	4.37876444e-04
1.02000000e-01	1.96931568e-02	4.35089541e-04
1.02500000e-01	1.94998665e-02	4.29789008e-04
1.03000000e-01	1.94473545e-02	4.26994980e-04
1.03500000e-01	1.95681540e-02	4.29459036e-04
1.04000000e-01	1.96277424e-02	4.29282847e-04
1.04500000e-01	1.98863133e-02	4.37393709e-04
1.05000000e-01	1.96506004e-02	4.26553744e-04
1.05500000e-01	1.98041084e-02	4.30138957e-04
1.06000000e-01	1.96443438e-02	4.25822834e-04
1.06500000e-01	1.99731166e-02	4.31960100e-04
1.07000000e-01	1.97646006e-02	4.32776964e-04
1.07500000e-01	1.97161045e-02	4.36905322e-04
1.08000000e-01	1.99078905e-02	4.49678649e-04
1.08500000e-01	1.97210853e-02	4.45311573e-04
1.09000000e-01	1.99711040e-02	4.55457941e-04
1.09500000e-01	1.92102336e-02	4.39591831e-04
1.10000000e-01	1.95809470e-02	4.41864824e-04
1.10500000e-01	1.98702491e-02	4.39780760e-04
1.11000000e-01	1.98467725e-02	4.33893958e-04
1.11500000e-01	1.98897824e-02	4.31261953e-04
1.12000000e-01	1.98701069e-02	4.27685238e-04
1.12500000e-01	1.95672435e-02	4.16269261e-04
1.13000000e-01	1.97628129e-02	4.21010659e-04
1.13500000e-01	1.97773165e-02	4.18588152e-04
1.14000000e-01	1.94130752e-02	4.11078921e-04
1.14500000e-01	1.94454372e-02	4.11671982e-04
1.15000000e-01	1.95852264e-02	4.09563848e-04
1.15500000e-01	1.95981306e-02	4.10844059e-04
1.16000000e-01	1.98258985e-02	4.13888620e-04
1.16500000e-01	1.93778869e-02	4.06100160e-04
1.17000000e-01	1.96522761e-02	4.07479907e-04
1.17500000e-01	1.97555270e-02	4.10797440e-04
1.18000000e-01	1.98866111e-02	4.13437160e-04
1.18500000e-01	1.95776671e-02	4.03197364e-04
1.19000000e-01	1.93761090e-02	3.98710317e-04
1.19500000e-01	1.92739890e-02	3.95572682e-04
1.20000000e-01	1.97520180e-02	4.03778825e-04
1.20500000e-01	1.95805106e-02	3.99767139e-04
1.21000000e-01	1.94303137e-02	3.95187276e-04
1.21500000e-01	1.96314433e-02	4.00939233e-04
1.22000000e-01	1.97351672e-02	4.00826298e-04
1.22500000e-01	1.96431805e-02	3.96637446e-04
1.23000000e-01	1.96727616e-02	3.97074057e-04
1.23500000e-01	1.92900685e-02	3.89270843e-04
1.24000000e-01	1.91992654e-02	3.88740511e-04
1.24500000e-01	1.96151826e-02	3.92797656e-04
1.25000000e-01	1.97461000e-02	3.96472606e-04
1.25500000e-01	1.95080725e-02	3.90491501e-04
1.26000000e-01	1.97348922e-02	3.92509997e-04
1.26500000e-01	1.96351036e-02	3.90592350e-04
1.27000000e-01	1.98195767e-02	3.94140671e-04
1.27500000e-01	1.96150033e-02	3.90658125e-04
1.28000000e-01	1.97779054e-02	3.90439218e-04
1.28500000e-01	1.94492613e-02	3.85946307e-04
1.29000000e-01	1.93340250e-02	3.82482199e-04
1.29500000e-01	1.94396868e-02	3.81855179e-04
1.30000000e-01	1.94944950e-02	3.83039806e-04
1.30500000e-01	1.97010205e-02	3.85478105e-04
1.31000000e-01	1.96045717e-02	3.82341061e-04
1.31500000e-01	1.96234547e-02	3.82234432e-04
1.32000000e-01	1.98103930e-02	3.85786959e-04
1.32500000e-01	1.97427561e-02	3.83181887e-04
1.33000000e-01	1.97764038e-02	3.82583770e-04
1.33500000e-01	1.96343822e-02	3.78194713e-04
1.34000000e-01	1.98198500e-02	3.81061264e-04
1.34500000e-01	1.97696934e-02	3.77096596e-04
1.35000000e-01	1.99703686e-02	3.82610912e-04
1.35500000e-01	1.97119635e-02	3.76937399e-04
1.36000000e-01	1.93789739e-02	3.68839795e-04
1.36500000e-01	1.98478910e-02	3.80282245e-04
1.37000000e-01	1.95215552e-02	3.70394281e-04
1.37500000e-01	1.96915304e-02	3.72709666e-04
1.38000000e-01	1.95899591e-02	3.71246273e-04
1.38500000e-01	1.93016821e-02	3.66465147e-04
1.39000000e-01	1.94641995e-02	3.68264449e-04
1.39500000e-01	1.97386628e-02	3.72671736e-04
1.40000000e-01	1.93574108e-02	3.68143135e-04
1.40500000e-01	1.96837346e-02	3.70175939e-04
1.41000000e-01	1.97451985e-02	3.70359198e-04
1.41500000e-01	1.95454219e-02	3.68738205e-04
1.42000000e-01	1.95141784e-02	3.65295511e-04
1.42500000e-01	1.96454399e-02	3.68376008e-04
1.43000000e-01	1.94480991e-02	3.65898290e-04
1.43500000e-01	1.94226741e-02	3.64317451e-04
1.44000000e-01	1.96353214e-02	3.66537127e-04
1.44500000e-01	1.95305157e-02	3.61890169e-04
1.45000000e-01	1.94996573e-02	3.63374210e-04
1.45500000e-01	1.94475724e-02	3.61826186e-04
1.46000000e-01	1.90955680e-02	3.54240239e-04
1.46500000e-01	1.93251891e-02	3.57209925e-04
1.47000000e-01	1.90223486e-02	3.50420438e-04
1.47500000e-01	1.91271077e-02	3.54676918e-04
1.48000000e-01	1.95105301e-02	3.60768154e-04
1.48500000e-01	1.92932519e-02	3.53939875e-04
1.49000000e-01	1.93427147e-02	3.55294662e-04
1.49500000e-01	1.96097559e-02	3.57884650e-04
1.50000000e-01	1.92733581e-02	3.53327191e-04
1.50500000e-01	1.90579871e-02	3.49590112e-04
1.51000000e-01	1.91640047e-02	3.48363339e-04
1.51500000e-01	1.92845418e-02	3.50520154e-04
1.52000000e-01	1.94287203e-02	3.50719683e-04
1.52500000e-01	1.95267391e-02	3.52339858e-04
1.53000000e-01	1.94630962e-02	3.52284141e-04
1.53500000e-01	1.92762307e-02	3.47731106e-04
1.54000000e-01	1.93033089e-02	3.47249832e-04
1.54500000e-01	1.89866436e-02	3.50150313e-04
1.55000000e-01	1.93150941e-02	3.59106409e-04
1.55500000e-01	1.91509123e-02	3.58183578e-04
1.56000000e-01	1.91738633e-02	3.61471716e-04
1.56500000e-01	1.92299727e-02	3.58933077e-04
1.57000000e-01	1.92532285e-02	3.62467411e-04
1.57500000e-01	1.92243606e-02	3.56249343e-04
1.58000000e-01	1.90121787e-02	3.46652764e-04
1.58500000e-01	1.90241608e-02	3.46305164e-04
1.59000000e-01	1.91868422e-02	3.45382372e-04
1.59500000e-01	1.91859496e-02	3.46940853e-04
1.60000000e-01	1.90851975e-02	3.44225393e-04
1.60500000e-01	1.92423292e-02	3.43414080e-04
1.61000000e-01	1.90919042e-02	3.41903943e-04
1.61500000e-01	1.90196220e-02	3.38369717e-04
1.62000000e-01	1.91017104e-02	3.38732768e-04
1.62500000e-01	1.91769926e-02	3.41257801e-04
1.63000000e-01	1.90573416e-02	3.37509753e-04
1.63500000e-01	1.87916942e-02	3.36127615e-04
1.64000000e-01	1.92237274e-02	3.38124470e-04
1.64500000e-01	1.89439685e-02	3.36068157e-04
1.65000000e-01	1.88874037e-02	3.31560462e-04
1.65500000e-01	1.90648794e-02	3.35423385e-04
1.66000000e-01	1.88377286e-02	3.30866333e-04
1.66500000e-01	1.90279368e-02	3.33794454e-04
1.67000000e-01	1.88601896e-02	3.29601623e-04
1.67500000e-01	1.89662828e-02	3.32152086e-04
1.68000000e-01	1.90111046e-02	3.31848633e-04
1.68500000e-01	1.88540956e-02	3.27919925e-04
1.69000000e-01	1.87983990e-02	3.27348420e-04
1.69500000e-01	1.89781346e-02	3.29465244e-04
1.70000000e-01	1.87927805e-02	3.26370148e-04
1.70500000e-01	1.91051373e-02	3.30292713e-04
1.71000000e-01	1.90206512e-02	3.28047136e-04
1.71500000e-01	1.90207584e-02	3.28282805e-04
1.72000000e-01	1.89089635e-02	3.25504817e-04
1.72500000e-01	1.89283545e-02	3.25323692e-04
1.73000000e-01	1.91273985e-02	3.27491654e-04
1.73500000e-01	1.86919449e-02	3.20625447e-04
1.74000000e-01	1.89205178e-02	3.22365514e-04
1.74500000e-01	1.88997332e-02	3.21339956e-04
1.75000000e-01	1.88050619e-02	3.18458290e-04
1.75500000e-01	1.88452406e-02	3.19033415e-04
1.76000000e-01	1.89482331e-02	3.21565382e-04
1.76500000e-01	1.89106155e-02	3.18985408e-04
1.77000000e-01	1.88189374e-02	3.18340176e-04
1.77500000e-01	1.90479285e-02	3.21432611e-04
1.78000000e-01	1.86119658e-02	3.14319150e-04
1.78500000e-01	1.87567000e-02	3.14963565e-04
1.79000000e-01	1.89606126e-02	3.18643821e-04
1.79500000e-01	1.87597082e-02	3.15498084e-04
1.80000000e-01	1.87079091e-02	3.15998085e-04
1.80500000e-01	1.85707682e-02	3.12437683e-04
1.81000000e-01	1.86870643e-02	3.13197136e-04
1.81500000e-01	1.88415829e-02	3.16427492e-04
1.82000000e-01	1.88332952e-02	3.13923836e-04
1.82500000e-01	1.85804236e-02	3.11032664e-04
1.83000000e-01	1.85121450e-02	3.10727227e-04
1.83500000e-01	1.87073449e-02	3.11634682e-04
1.84000000e-01	1.85114768e-02	3.09250591e-04
1.84500000e-01	1.84934052e-02	3.09423548e-04
1.85000000e-01	1.86725367e-02	3.09720045e-04
1.85500000e-01	1.86892533e-02	3.09776571e-04
1.86000000e-01	1.84527417e-02	3.06407172e-04
1.86500000e-01	1.84675969e-02	3.06302816e-04
1.87000000e-01	1.87070975e-02	3.09359646e-04
1.87500000e-01	1.87546256e-02	3.09668906e-04
1.88000000e-01	1.82872588e-02	3.02232053e-04
1.88500000e-01	1.85517982e-02	3.05750722e-04
1.89000000e-01	1.84702571e-02	3.03571583e-04
1.89500000e-01	1.84479859e-02	3.03610025e-04
1.90000000e-01	1.86782557e-02	3.06014324e-04
1.90500000e-01	1.86192940e-02	3.04901639e-04
1.91000000e-01	1.82878410e-02	2.98905675e-04
1.91500000e-01	1.84811878e-02	3.03292785e-04
1.92000000e-01	1.86392085e-02	3.03137321e-04
1.92500000e-01	1.86270325e-02	3.04088343e-04
1.93000000e-01	1.84548064e-02	3.00567241e-04
1.93500000e-01	1.83294152e-02	2.97762602e-04
1.94000000e-01	1.85296372e-02	3.01585035e-04
1.94500000e-01	1.85471885e-02	3.01049073e-04
1.95000000e-01	1.83689177e-02	2.97738813e-04
1.95500000e-01	1.84115491e-02	2.98261455e-04
1.96000000e-01	1.85366118e-02	3.00404108e-04
1.96500000e-01	1.80774617e-02	2.93327447e-04
1.97000000e-01	1.84463470e-02	2.97484159e-04
1.97500000e-01	1.82739268e-02	2.94519471e-04
1.98000000e-01	1.82811561e-02	2.93063167e-04
1.98500000e-01	1.83331899e-02	2.93645003e-04
1.99000000e-01	1.84780481e-02	2.96717672e-04
1.99500000e-01	1.81623099e-02	2.90834582e-04
2.00000000e-01	1.85183222e-02	2.95498060e-04
2.00500000e-01	1.82319997e-02	2.91884281e-04
2.01000000e-01	1.83722630e-02	2.93257960e-04
2.01500000e-01	1.81683058e-02	2.90222717e-04
2.02000000e-01	1.80989329e-02	2.88202420e-04
2.02500000e-01	1.82538099e-02	2.89595438e-04
2.03000000e-01	1.85359657e-02	2.94200517e-04
2.03500000e-01	1.81811741e-02	2.88878187e-04
2.04000000e-01	1.83519183e-02	2.91631225e-04
2.04500000e-01	1.80978675e-02	2.86625702e-04
2.05000000e-01	1.82283832e-02	2.88068129e-04
2.05500000e-01	1.83476988e-02	2.89681127e-04
2.06000000e-01	1.81745466e-02	2.86752382e-04
2.06500000e-01	1.82220887e-02	2.87984999e-04
2.07000000e-01	1.80806589e-02	2.84976951e-04
2.07500000e-01	1.81747017e-02	2.85498141e-04
2.08000000e-01	1.82201292e-02	2.88281599e-04
2.08500000e-01	1.80087335e-02	2.81898678e-04
2.09000000e-01	1.82352581e-02	2.85996677e-04
2.09500000e-01	1.81956165e-02	2.85311338e-04
2.10000000e-01	1.80687177e-02	2.82915279e-04
2.10500000e-01	1.82759309e-02	2.86649321e-04
2.11000000e-01	1.81523691e-02	2.82918677e-04
2.11500000e-01	1.80467061e-02	2.82943273e-04
2.12000000e-01	1.80168492e-02	2.80386271e-04
2.12500000e-01	1.81361108e-02	2.82674845e-04
2.13000000e-01	1.79810459e-02	2.79862282e-04
2.13500000e-01	1.82130939e-02	2.82668541e-04
2.14000000e-01	1.79799891e-02	2.78672668e-04
2.14500000e-01	1.80499754e-02	2.78333896e-04
2.15000000e-01	1.84175988e-02	2.85301076e-04
2.15500000e-01	1.80991314e-02	2.78957361e-04
2.16000000e-01	1.80343384e-02	2.77916294e-04
2.16500000e-01	1.78259271e-02	2.74875140e-04
2.17000000e-01	1.78753440e-02	2.80467604e-04
2.17500000e-01	1.77896787e-02	2.83707912e-04
2.18000000e-01	1.81532247e-02	2.87596834e-04
2.18500000e-01	1.80231097e-02	2.87599556e-04
2.19000000e-01	1.82760215e-02	2.92885853e-04
2.19500000e-01	1.79225273e-02	2.89312568e-04
2.20000000e-01	1.81001203e-02	2.94879034e-04
2.20500000e-01	1.81167064e-02	2.94185976e-04
2.21000000e-01	1.80477860e-02	2.94330283e-04
2.21500000e-01	1.76532558e-02	2.91092356e-04
2.22000000e-01	1.79024787e-02	2.94339172e-04
2.22500000e-01	1.77740445e-02	2.91835412e-04
2.23000000e-01	1.78218542e-02	2.93744517e-04
2.23500000e-01	1.78579843e-02	2.95331289e-04
2.24000000e-01	1.80650282e-02	2.98288466e-04
2.24500000e-01	1.78665524e-02	2.96706336e-04
2.25000000e-01	1.78023834e-02	2.96167473e-04
2.25500000e-01	1.77869828e-02	2.96831767e-04
2.26000000e-01	1.80359609e-02	3.01187145e-04
2.26500000e-01	1.78666809e-02	2.93100974e-04
2.27000000e-01	1.79866528e-02	2.91983410e-04
2.27500000e-01	1.80770464e-02	2.91103233e-04
2.28000000e-01	1.77585776e-02	2.86815405e-04
2.28500000e-01	1.79994477e-02	2.87548426e-04
2.29000000e-01	1.78323045e-02	2.84078935e-04
2.29500000e-01	1.78474349e-02	2.83350338e-04
2.30000000e-01	1.77670413e-02	2.80842242e-04
2.30500000e-01	1.76717597e-02	2.78486323e-04
2.31000000e-01	1.78481881e-02	2.81017231e-04
2.31500000e-01	1.77823677e-02	2.78829938e-04
2.32000000e-01	1.76896994e-02	2.76818197e-04
2.32500000e-01	1.80300821e-02	2.81400900e-04
2.33000000e-01	1.77485859e-02	2.76216339e-04
2.33500000e-01	1.77824655e-02	2.76622928e-04
2.34000000e-01	1.77532087e-02	2.75181594e-04
2.34500000e-01	1.78291373e-02	2.75147815e-04
2.35000000e-01	1.78450578e-02	2.76515615e-04
2.35500000e-01	1.77504541e-02	2.73092300e-04
2.36000000e-01	1.77291204e-02	2.72597109e-04
2.36500000e-01	1.77827096e-02	2.73983172e-04
2.37000000e-01	1.77544889e-02	2.73248686e-04
2.37500000e-01	1.77931658e-02	2.72311262e-04
2.38000000e-01	1.75791529e-02	2.67417007e-04
2.38500000e-01	1.76297618e-02	2.70199356e-04
2.39000000e-01	1.78022295e-02	2.70095901e-04
2.39500000e-01	1.76723932e-02	2.68122001e-04
2.40000000e-01	1.76523973e-02	2.68578301e-04
2.40500000e-01	1.77303338e-02	2.68313833e-04
2.41000000e-01	1.76743383e-02	2.68531366e-04
2.41500000e-01	1.76864974e-02	2.66374091e-04
2.42000000e-01	1.77767736e-02	2.67731573e-04
2.42500000e-01	1.78907252e-02	2.68917845e-04
2.43000000e-01	1.78024346e-02	2.66430989e-04
2.43500000e-01	1.73281257e-02	2.60854901e-04
2.44000000e-01	1.77409627e-02	2.64959479e-04
2.44500000e-01	1.76721971e-02	2.63893065e-04
2.45000000e-01	1.76037704e-02	2.63381514e-04
2.45500000e-01	1.76702678e-02	2.64149113e-04
2.46000000e-01	1.74504572e-02	2.60401030e-04
2.46500000e-01	1.78895397e-02	2.65696442e-04
2.47000000e-01	1.75700463e-02	2.61889178e-04
2.47500000e-01	1.74740921e-02	2.58645203e-04
2.48000000e-01	1.75708407e-02	2.60104518e-04
2.48500000e-01	1.74204182e-02	2.57353097e-04
2.49000000e-01	1.75031153e-02	2.58997223e-04
2.49500000e-01	1.77406754e-02	2.61590305e-04
2.50000000e-01	1.75491566e-02	2.59995549e-04
2.50500000e-01	1.76987804e-02	2.62024333e-04
2.51000000e-01	1.75320929e-02	2.58699414e-04
2.51500000e-01	1.74093546e-02	2.57315548e-04
2.52000000e-01	1.75582277e-02	2.57910456e-04
2.52500000e-01	1.73303286e-02	2.53686310e-04
2.53000000e-01	1.75045670e-02	2.57658648e-04
2.53500000e-01	1.73398990e-02	2.54129880e-04
2.54000000e-01	1.74100135e-02	2.55286018e-04
2.54500000e-01	1.75280826e-02	2.56693594e-04
2.55000000e-01	1.76180334e-02	2.57113430e-04
2.55500000e-01	1.73852675e-02	2.54475014e-04
2.56000000e-01	1.72434433e-02	2.51840634e-04
2.56500000e-01	1.73948839e-02	2.54274223e-04
2.57000000e-01	1.75534715e-02	2.54922488e-04
2.57500000e-01	1.74524101e-02	2.53096133e-04
2.58000000e-01	1.75060837e-02	2.54729470e-04
2.58500000e-01	1.72765203e-02	2.50126591e-04
2.59000000e-01	1.74704983e-02	2.53575403e-04
2.59500000e-01	1.73731211e-02	2.51563435e-04
2.60000000e-01	1.72524823e-02	2.50183829e-04
2.60500000e-01	1.73189451e-02	2.51108856e-04
2.61000000e-01	1.75838145e-02	2.52877375e-04
2.61500000e-01	1.72489151e-02	2.49293158e-04
2.62000000e-01	1.71351940e-02	2.47428713e-04
2.62500000e-01	1.74011958e-02	2.50400198e-04
2.63000000e-01	1.74460669e-02	2.50298608e-04
2.63500000e-01	1.72336717e-02	2.46882775e-04
2.64000000e-01	1.72866273e-02	2.47984441e-04
2.64500000e-01	1.72207044e-02	2.46898539e-04
2.65000000e-01	1.73437437e-02	2.49375668e-04
2.65500000e-01	1.74218112e-02	2.48461951e-04
2.66000000e-01	1.71276128e-02	2.45416365e-04
2.66500000e-01	1.72319770e-02	2.45698375e-04
2.67000000e-01	1.73396883e-02	2.46796960e-04
2.67500000e-01	1.71142484e-02	2.44074410e-04
2.68000000e-01	1.73413272e-02	2.46097457e-04
2.68500000e-01	1.70509963e-02	2.42762573e-04
2.69000000e-01	1.72919468e-02	2.44702451e-04
2.69500000e-01	1.73509772e-02	2.44504719e-04
2.70000000e-01	1.72031368e-02	2.43425361e-04
2.70500000e-01	1.71341984e-02	2.41327099e-04
2.71000000e-01	1.72203074e-02	2.42339952e-04
2.71500000e-01	1.70556800e-02	2.40617576e-04
2.72000000e-01	1.71410185e-02	2.41929542e-04
2.72500000e-01	1.69143931e-02	2.38311322e-04
2.73000000e-01	1.71806030e-02	2.42268926e-04
2.73500000e-01	1.71791004e-02	2.41488282e-04
2.74000000e-01	1.70470030e-02	2.39908293e-04
2.74500000e-01	1.72385711e-02	2.41544593e-04
2.75000000e-01	1.67692424e-02	2.35074083e-04
2.75500000e-01	1.71574804e-02	2.40699923e-04
2.76000000e-01	1.70299902e-02	2.37955085e-04
2.76500000e-01	1.71465605e-02	2.40064479e-04
2.77000000e-01	1.70625656e-02	2.37714621e-04
2.77500000e-01	1.70623065e-02	2.38485616e-04
2.78000000e-01	1.70697977e-02	2.37226655e-04
2.78500000e-01	1.71446624e-02	2.39484975e-04
2.79000000e-01	1.71653209e-02	2.38060885e-04
2.79500000e-01	1.69990821e-02	2.36220652e-04
2.80000000e-01	1.72683657e-02	2.40252069e-04
2.80500000e-01	1.70018933e-02	2.36216195e-04
2.81000000e-01	1.70513403e-02	2.36447437e-04
2.81500000e-01	1.70482018e-02	2.36181875e-04
2.82000000e-01	1.69814550e-02	2.35648248e-04
2.82500000e-01	1.67190505e-02	2.32332737e-04
2.83000000e-01	1.71899457e-02	2.37050001e-04
2.83500000e-01	1.68386370e-02	2.33264517e-04
2.84000000e-01	1.70244018e-02	2.34727566e-04
2.84500000e-01	1.68583303e-02	2.32224704e-04
2.85000000e-01	1.68874084e-02	2.32324731e-04
2.85500000e-01	1.70073991e-02	2.34104462e-04
2.86000000e-01	1.68905271e-02	2.32583170e-04
2.86500000e-01	1.70176376e-02	2.33606787e-04
2.87000000e-01	1.69034973e-02	2.32258570e-04
2.87500000e-01	1.69586694e-02	2.32737960e-04
2.88000000e-01	1.68567318e-02	2.29925220e-04
2.88500000e-01	1.67491718e-02	2.30090911e-04
2.89000000e-01	1.68343883e-02	2.29437184e-04
2.89500000e-01	1.69108915e-02	2.30531466e-04
2.90000000e-01	1.68890785e-02	2.30414575e-04
2.90500000e-01	1.67528754e-02	2.28730988e-04
2.91000000e-01	1.66464558e-02	2.26619621e-04
2.91500000e-01	1.69994723e-02	2.30802882e-04
2.92000000e-01	1.67590843e-02	2.28128382e-04
2.92500000e-01	1.69356119e-02	2.29964443e-04
2.93000000e-01	1.68494877e-02	2.29118667e-04
2.93500000e-01	1.66800115e-02	2.26176298e-04
2.94000000e-01	1.67069684e-02	2.26802251e-04
2.94500000e-01	1.66706079e-02	2.26770710e-04
2.95000000e-01	1.70309952e-02	2.30557304e-04
2.95500000e-01	1.67121606e-02	2.26267073e-04
2.96000000e-01	1.67264537e-02	2.26165995e-04
2.96500000e-01	1.67795121e-02	2.26162133e-04
2.97000000e-01	1.67171235e-02	2.25690226e-04
2.97500000e-01	1.66657759e-02	2.25025011e-04
2.98000000e-01	1.71030429e-02	2.30270921e-04
2.98500000e-01	1.68823568e-02	2.27841622e-04
2.99000000e-01	1.68989084e-02	2.25481066e-04
2.99500000e-01	1.66745958e-02	2.24418434e-04
3.00000000e-01	1.68643451e-02	2.25547871e-04
3.00500000e-01	1.66164408e-02	2.23750271e-04
3.01000000e-01	1.69108658e-02	2.25287364e-04
3.01500000e-01	1.66404024e-02	2.23744825e-04
3.02000000e-01	1.67770061e-02	2.23714427e-04
3.02500000e-01	1.68409618e-02	2.24877306e-04
3.03000000e-01	1.69098704e-02	2.25601471e-04
3.03500000e-01	1.67605654e-02	2.23490567e-04
3.04000000e-01	1.67168212e-02	2.22647021e-04
3.04500000e-01	1.65245876e-02	2.19872969e-04
3.05000000e-01	1.66518334e-02	2.21633791e-04
3.05500000e-01	1.67307510e-02	2.21668613e-04
3.06000000e-01	1.65291999e-02	2.18615645e-04
3.06500000e-01	1.67784376e-02	2.22546866e-04
3.07000000e-01	1.67038959e-02	2.21030762e-04
3.07500000e-01	1.66434957e-02	2.20764217e-04
3.08000000e-01	1.68683684e-02	2.22191555e-04
3.08500000e-01	1.67760887e-02	2.22206066e-04
3.09000000e-01	1.64304101e-02	2.17976928e-04
3.09500000e-01	1.65625461e-02	2.18174477e-04
3.10000000e-01	1.66860192e-02	2.19911523e-04
3.10500000e-01	1.65622611e-02	2.18498645e-04
3.11000000e-01	1.67290682e-02	2.20420756e-04
3.11500000e-01	1.66242235e-02	2.18364051e-04
3.12000000e-01	1.64475090e-02	2.16036626e-04
3.12500000e-01	1.67030799e-02	2.19456179e-04
3.13000000e-01	1.64863778e-02	2.16862793e-04
3.13500000e-01	1.65608182e-02	2.18014733e-04
3.14000000e-01	1.66500632e-02	2.18713126e-04
3.14500000e-01	1.65892703e-02	2.17219675e-04
3.15000000e-01	1.64246632e-02	2.15313293e-04
3.15500000e-01	1.65609466e-02	2.16905335e-04
3.16000000e-01	1.65609566e-02	2.16536642e-04
3.16500000e-01	1.66000948e-02	2.16184915e-04
3.17000000e-01	1.65785651e-02	2.15663682e-04
3.17500000e-01	1.66513633e-02	2.17441324e-04
3.18000000e-01	1.63980283e-02	2.14466185e-04
3.18500000e-01	1.63795583e-02	2.14095176e-04
3.19000000e-01	1.63368218e-02	2.12622641e-04
3.19500000e-01	1.66493066e-02	2.14975924e-04
3.20000000e-01	1.63438830e-02	2.13270044e-04
3.20500000e-01	1.64328757e-02	2.13715219e-04
3.21000000e-01	1.61641204e-02	2.10750412e-04
3.21500000e-01	1.62249867e-02	2.11520128e-04
3.22000000e-01	1.64190405e-02	2.12972021e-04
3.22500000e-01	1.63465413e-02	2.11609703e-04
3.23000000e-01	1.63951758e-02	2.11358760e-04
3.23500000e-01	1.60536005e-02	2.08832322e-04
3.24000000e-01	1.63357750e-02	2.11082268e-04
3.24500000e-01	1.63340770e-02	2.11082679e-04
3.25000000e-01	1.62948599e-02	2.10468259e-04
3.25500000e-01	1.62310728e-02	2.09259641e-04
3.26000000e-01	1.62059261e-02	2.09000341e-04
3.26500000e-01	1.62401302e-02	2.09135929e-04
3.27000000e-01	1.63716913e-02	2.10209758e-04
3.27500000e-01	1.61652610e-02	2.07573280e-04
3.28000000e-01	1.61684260e-02	2.08325025e-04
3.28500000e-01	1.62028440e-02	2.08045312e-04
3.29000000e-01	1.62762757e-02	2.07804348e-04
3.29500000e-01	1.63129211e-02	2.09564909e-04
3.30000000e-01	1.61291664e-02	2.06424638e-04
3.30500000e-01	1.62255815e-02	2.08453494e-04
3.31000000e-01	1.63281741e-02	2.07935975e-04
3.31500000e-01	1.61937145e-02	2.07630795e-04
3.32000000e-01	1.61774303e-02	2.06934815e-04
3.32500000e-01	1.62382728e-02	2.07365775e-04
3.33000000e-01	1.60748330e-02	2.05506585e-04
3.33500000e-01	1.60834207e-02	2.04607679e-04
3.34000000e-01	1.60469662e-02	2.04690197e-04
3.34500000e-01	1.61457508e-02	2.06108817e-04
3.35000000e-01	1.63278153e-02	2.06849286e-04
3.35500000e-01	1.62761489e-02	2.06225394e-04
3.36000000e-01	1.62035074e-02	2.05789459e-04
3.36500000e-01	1.62397190e-02	2.05680173e-04
3.37000000e-01	1.59920892e-02	2.02354230e-04
3.37500000e-01	1.61635584e-02	2.04960677e-04
3.38000000e-01	1.62306517e-02	2.05568840e-04
3.38500000e-01	1.60419975e-02	2.03058569e-04
3.39000000e-01	1.61671148e-02	2.04520544e-04
3.39500000e-01	1.57445250e-02	1.99264740e-04
3.40000000e-01	1.60772366e-02	2.03366565e-04
3.40500000e-01	1.60841991e-02	2.02916589e-04
3.41000000e-01	1.59964196e-02	2.02117953e-04
3.41500000e-01	1.60760783e-02	2.03635364e-04
3.42000000e-01	1.59351080e-02	2.00404094e-04
3.42500000e-01	1.61558204e-02	2.03147563e-04
3.43000000e-01	1.60912426e-02	2.02609817e-04
3.43500000e-01	1.60282398e-02	2.01425814e-04
3.44000000e-01	1.58661912e-02	1.99543958e-04
3.44500000e-01	1.59680260e-02	2.00698199e-04
3.45000000e-01	1.58807269e-02	1.99868072e-04
3.45500000e-01	1.61299716e-02	2.01533181e-04
3.46000000e-01	1.58069991e-02	1.98838625e-04
3.46500000e-01	1.59531361e-02	2.00235023e-04
3.47000000e-01	1.59914439e-02	2.00463250e-04
3.47500000e-01	1.59153900e-02	1.99743023e-04
3.48000000e-01	1.58142380e-02	1.98168236e-04
3.48500000e-01	1.59266497e-02	1.99926689e-04
3.49000000e-01	1.57513928e-02	1.96762566e-04
3.49500000e-01	1.58613308e-02	1.97875694e-04
3.50000000e-01	1.60351803e-02	1.63171629e-04
3.51000000e-01	1.58770024e-02	1.40022083e-04
3.52000000e-01	1.58445084e-02	1.39599617e-04
3.53000000e-01	1.58724728e-02	1.38970989e-04
3.54000000e-01	1.56267309e-02	1.37214776e-04
3.55000000e-01	1.57984619e-02	1.38079101e-04
3.56000000e-01	1.57455896e-02	1.38576395e-04
3.57000000e-01	1.56699195e-02	1.40395578e-04
3.58000000e-01	1.56257452e-02	1.41287762e-04
3.59000000e-01	1.56812604e-02	1.42637586e-04
3.60000000e-01	1.57571268e-02	1.44221810e-04
3.61000000e-01	1.57086385e-02	1.44253233e-04
3.62000000e-01	1.57483516e-02	1.45230968e-04
3.63000000e-01	1.56006268e-02	1.44538488e-04
3.64000000e-01	1.57396812e-02	1.46451375e-04
3.65000000e-01	1.55141787e-02	1.44362016e-04
3.66000000e-01	1.54723702e-02	1.42637009e-04
3.67000000e-01	1.56967880e-02	1.42321666e-04
3.68000000e-01	1.56523682e-02	1.41185032e-04
3.69000000e-01	1.55922737e-02	1.40252336e-04
3.70000000e-01	1.56909832e-02	1.40150963e-04
3.71000000e-01	1.55366593e-02	1.40492047e-04
3.72000000e-01	1.55670648e-02	1.41950507e-04
3.73000000e-01	1.55080555e-02	1.41635099e-04
3.74000000e-01	1.56557426e-02	1.42651332e-04
3.75000000e-01	1.55014873e-02	1.41673950e-04
3.76000000e-01	1.54477450e-02	1.41377339e-04
3.77000000e-01	1.55237079e-02	1.42027655e-04
3.78000000e-01	1.54049970e-02	1.41158974e-04
3.79000000e-01	1.52673442e-02	1.39880505e-04
3.80000000e-01	1.54449179e-02	1.40927620e-04
3.81000000e-01	1.53746845e-02	1.40077997e-04
3.82000000e-01	1.53733230e-02	1.40470216e-04
3.83000000e-01	1.53319055e-02	1.40041227e-04
3.84000000e-01	1.53728194e-02	1.40336938e-04
3.85000000e-01	1.54148433e-02	1.40623676e-04
3.86000000e-01	1.54574957e-02	1.40914146e-04
3.87000000e-01	1.53080627e-02	1.39540665e-04
3.88000000e-01	1.52012208e-02	1.38786553e-04
3.89000000e-01	1.53770653e-02	1.40068337e-04
3.90000000e-01	1.53348531e-02	1.39462423e-04
3.91000000e-01	1.51344655e-02	1.38076925e-04
3.92000000e-01	1.52379531e-02	1.38860758e-04
3.93000000e-01	1.53028881e-02	1.39097676e-04
3.94000000e-01	1.51865214e-02	1.38140685e-04
3.95000000e-01	1.52984060e-02	1.39069840e-04
3.96000000e-01	1.52259729e-02	1.38508998e-04
3.97000000e-01	1.52399208e-02	1.38516316e-04
3.98000000e-01	1.53113533e-02	1.39495005e-04
3.99000000e-01	1.51070221e-02	1.37665557e-04
4.00000000e-01	1.51755008e-02	1.38274436e-04
4.01000000e-01	1.51569218e-02	1.38002864e-04
4.02000000e-01	1.50972954e-02	1.37673997e-04
4.03000000e-01	1.51011511e-02	1.37384456e-04
4.04000000e-01	1.50245250e-02	1.37089936e-04
4.05000000e-01	1.49626774e-02	1.36647111e-04
4.06000000e-01	1.50892723e-02	1.37014358e-04
4.07000000e-01	1.50235010e-02	1.36939445e-04
4.08000000e-01	1.50905307e-02	1.37113961e-04
4.09000000e-01	1.50573754e-02	1.36888567e-04
4.10000000e-01	1.50305246e-02	1.36776683e-04
4.11000000e-01	1.50051233e-02	1.36299234e-04
4.12000000e-01	1.49299884e-02	1.35902874e-04
4.13000000e-01	1.49363128e-02	1.35583049e-04
4.14000000e-01	1.49923721e-02	1.36186565e-04
4.15000000e-01	1.49712477e-02	1.35872554e-04
4.16000000e-01	1.48694029e-02	1.35095703e-04
4.17000000e-01	1.49563608e-02	1.35349300e-04
4.18000000e-01	1.49307183e-02	1.37012180e-04
4.19000000e-01	1.49516975e-02	1.38901593e-04
4.20000000e-01	1.50632375e-02	1.40246707e-04
4.21000000e-01	1.50240852e-02	1.40398685e-04
4.22000000e-01	1.50508079e-02	1.41368812e-04
4.23000000e-01	1.50472103e-02	1.41968913e-04
4.24000000e-01	1.49892905e-02	1.41426874e-04
4.25000000e-01	1.50237695e-02	1.41916789e-04
4.26000000e-01	1.49218076e-02	1.40959975e-04
4.27000000e-01	1.49918814e-02	1.42081487e-04
4.28000000e-01	1.49200707e-02	1.41812034e-04
4.29000000e-01	1.49712378e-02	1.42573904e-04
4.30000000e-01	1.50079308e-02	1.42547200e-04
4.31000000e-01	1.49461863e-02	1.41484042e-04
4.32000000e-01	1.49115886e-02	1.41592720e-04
4.33000000e-01	1.49087422e-02	1.41848827e-04
4.34000000e-01	1.49882595e-02	1.42520015e-04
4.35000000e-01	1.48637004e-02	1.41873920e-04
4.36000000e-01	1.47804851e-02	1.41307978e-04
4.37000000e-01	1.47785873e-02	1.41160549e-04
4.38000000e-01	1.48934213e-02	1.41843192e-04
4.39000000e-01	1.48170692e-02	1.42146273e-04
4.40000000e-01	1.48667493e-02	1.42676242e-04
4.41000000e-01	1.48937306e-02	1.42916539e-04
4.42000000e-01	1.46830730e-02	1.41318907e-04
4.43000000e-01	1.47601668e-02	1.42100110e-04
4.44000000e-01	1.47347429e-02	1.42131561e-04
4.45000000e-01	1.46226125e-02	1.41390246e-04
4.46000000e-01	1.47215284e-02	1.41866933e-04
4.47000000e-01	1.47690797e-02	1.42660178e-04
4.48000000e-01	1.46136804e-02	1.41478270e-04
4.49000000e-01	1.46759366e-02	1.42662032e-04
4.50000000e-01	1.47990172e-02	1.43751143e-04
4.51000000e-01	1.47290255e-02	1.42749308e-04
4.52000000e-01	1.46176281e-02	1.42237434e-04
4.53000000e-01	1.45265651e-02	1.41103378e-04
4.54000000e-01	1.46891417e-02	1.42800782e-04
4.55000000e-01	1.46610668e-02	1.42802292e-04
4.56000000e-01	1.47202377e-02	1.43653928e-04
4.57000000e-01	1.46879008e-02	1.43603171e-04
4.58000000e-01	1.46334391e-02	1.43132155e-04
4.59000000e-01	1.45805507e-02	1.42516955e-04
4.60000000e-01	1.46613381e-02	1.43438128e-04
4.61000000e-01	1.46463079e-02	1.43379981e-04
4.62000000e-01	1.45453880e-02	1.42359287e-04
4.63000000e-01	1.46676587e-02	1.44016158e-04
4.64000000e-01	1.45941926e-02	1.43136987e-04
4.65000000e-01	1.45684870e-02	1.43224246e-04
4.66000000e-01	1.44232402e-02	1.41440572e-04
4.67000000e-01	1.45210881e-02	1.42667173e-04
4.68000000e-01	1.45236674e-02	1.43052679e-04
4.69000000e-01	1.45765967e-02	1.43407674e-04
4.70000000e-01	1.45098972e-02	1.43132419e-04
4.71000000e-01	1.43742113e-02	1.41931888e-04
4.72000000e-01	1.44135666e-02	1.41994437e-04
4.73000000e-01	1.44069635e-02	1.41992544e-04
4.74000000e-01	1.45087732e-02	1.42961930e-04
4.75000000e-01	1.44861845e-02	1.42408281e-04
4.76000000e-01	1.44227838e-02	1.41732331e-04
4.77000000e-01	1.45772321e-02	1.43682147e-04
4.78000000e-01	1.44663417e-02	1.42787428e-04
4.79000000e-01	1.44351212e-02	1.42289389e-04
4.80000000e-01	1.44729705e-02	1.42512761e-04
4.81000000e-01	1.44574584e-02	1.42984064e-04
4.82000000e-01	1.44776192e-02	1.42613706e-04
4.83000000e-01	1.44107175e-02	1.42426171e-04
4.84000000e-01	1.42511545e-02	1.41172150e-04
4.85000000e-01	1.44083530e-02	1.42598850e-04
4.86000000e-01	1.44472201e-02	1.43409666e-04
4.87000000e-01	1.43368658e-02	1.42076379e-04
4.88000000e-01	1.42947868e-02	1.42185755e-04
4.89000000e-01	1.44021099e-02	1.43270504e-04
4.90000000e-01	1.43538004e-02	1.42493324e-04
4.91000000e-01	1.43589893e-02	1.42582823e-04
4.92000000e-01	1.44286564e-02	1.43195866e-04
4.93000000e-01	1.43374483e-02	1.42530308e-04
4.94000000e-01	1.43715386e-02	1.43137472e-04
4.95000000e-01	1.43965215e-02	1.44192497e-04
4.96000000e-01	1.44474396e-02	1.49144365e-04
4.97000000e-01	1.42668142e-02	1.49677181e-04
4.98000000e-01	1.43966316e-02	1.53187284e-04
4.99000000e-01	1.43216676e-02	1.54038933e-04
5.00000000e-01	1.44195840e-02	1.57087788e-04
5.01000000e-01	1.42581023e-02	1.56931513e-04
5.02000000e-01	1.42319899e-02	1.57843987e-04
5.03000000e-01	1.43802261e-02	1.60511780e-04
5.04000000e-01	1.43573439e-02	1.62083809e-04
5.05000000e-01	1.42587331e-02	1.58574852e-04
5.06000000e-01	1.43729297e-02	1.56440558e-04
5.07000000e-01	1.42513622e-02	1.53670674e-04
5.08000000e-01	1.41740641e-02	1.51807597e-04
5.09000000e-01	1.43244313e-02	1.52572328e-04
5.10000000e-01	1.41319038e-02	1.49902021e-04
5.11000000e-01	1.42673485e-02	1.51000870e-04
5.12000000e-01	1.41538467e-02	1.49647821e-04
5.13000000e-01	1.41113915e-02	1.49135791e-04
5.14000000e-01	1.40593060e-02	1.47963572e-04
5.15000000e-01	1.41259979e-02	1.48329799e-04
5.16000000e-01	1.41127390e-02	1.48244894e-04
5.17000000e-01	1.40946933e-02	1.47401980e-04
5.18000000e-01	1.40972692e-02	1.47255236e-04
5.19000000e-01	1.40273155e-02	1.46639129e-04
5.20000000e-01	1.41144038e-02	1.47029156e-04
5.21000000e-01	1.41732555e-02	1.47215026e-04
5.22000000e-01	1.40068801e-02	1.45648979e-04
5.23000000e-01	1.39957593e-02	1.45319350e-04
5.24000000e-01	1.41487761e-02	1.46958731e-04
5.25000000e-01	1.40464444e-02	1.45527489e-04
5.26000000e-01	1.39736473e-02	1.44744444e-04
5.27000000e-01	1.40899450e-02	1.46611225e-04
5.28000000e-01	1.41148320e-02	1.46617201e-04
5.29000000e-01	1.40038980e-02	1.45520431e-04
5.30000000e-01	1.39215989e-02	1.44895239e-04
5.31000000e-01	1.40746793e-02	1.46425811e-04
5.32000000e-01	1.39845074e-02	1.45811771e-04
5.33000000e-01	1.39714601e-02	1.45298325e-04
5.34000000e-01	1.39883566e-02	1.45487844e-04
5.35000000e-01	1.39181938e-02	1.44278036e-04
5.36000000e-01	1.39175975e-02	1.45008078e-04
5.37000000e-01	1.38560190e-02	1.44153576e-04
5.38000000e-01	1.38525416e-02	1.43981587e-04
5.39000000e-01	1.39331615e-02	1.44817397e-04
5.40000000e-01	1.39291483e-02	1.44736699e-04
5.41000000e-01	1.39280077e-02	1.44619923e-04
5.42000000e-01	1.38389494e-02	1.43765006e-04
5.43000000e-01	1.39939016e-02	1.45065696e-04
5.44000000e-01	1.38406100e-02	1.43736344e-04
5.45000000e-01	1.36838016e-02	1.42194954e-04
5.46000000e-01	1.38782036e-02	1.43977051e-04
5.47000000e-01	1.39467548e-02	1.44688110e-04
5.48000000e-01	1.36634298e-02	1.42076650e-04
5.49000000e-01	1.37194694e-02	1.42644294e-04
5.50000000e-01	1.37447421e-02	1.42712163e-04
5.51000000e-01	1.36730333e-02	1.41665577e-04
5.52000000e-01	1.37824344e-02	1.42452931e-04
5.53000000e-01	1.37116492e-02	1.41428925e-04
5.54000000e-01	1.37363296e-02	1.42222090e-04
5.55000000e-01	1.38057589e-02	1.42304722e-04
5.56000000e-01	1.37235961e-02	1.41437001e-04
5.57000000e-01	1.36638429e-02	1.40962552e-04
5.58000000e-01	1.35937099e-02	1.41103904e-04
5.59000000e-01	1.36073796e-02	1.40622056e-04
5.60000000e-01	1.37810074e-02	1.42410223e-04
5.61000000e-01	1.36701021e-02	1.41443220e-04
5.62000000e-01	1.37186482e-02	1.41806715e-04
5.63000000e-01	1.36731312e-02	1.41672942e-04
5.64000000e-01	1.35320153e-02	1.39919439e-04
5.65000000e-01	1.35789744e-02	1.40351878e-04
5.66000000e-01	1.37337540e-02	1.42179905e-04
5.67000000e-01	1.35049988e-02	1.40173550e-04
5.68000000e-01	1.36010450e-02	1.40779803e-04
5.69000000e-01	1.36500641e-02	1.40717393e-04
5.70000000e-01	1.34382733e-02	1.38960705e-04
5.71000000e-01	1.35452146e-02	1.40114602e-04
5.72000000e-01	1.35011526e-02	1.39715080e-04
5.73000000e-01	1.35309823e-02	1.40187451e-04
5.74000000e-01	1.36064771e-02	1.40163313e-04
5.75000000e-01	1.34782660e-02	1.39730524e-04
5.76000000e-01	1.34068296e-02	1.38833644e-04
5.77000000e-01	1.35264602e-02	1.39848545e-04
5.78000000e-01	1.34255213e-02	1.39049543e-04
5.79000000e-01	1.34756437e-02	1.39916768e-04
5.80000000e-01	1.35145774e-02	1.40508275e-04
5.81000000e-01	1.34121405e-02	1.39362077e-04
5.82000000e-01	1.33833959e-02	1.38995184e-04
5.83000000e-01	1.33915019e-02	1.39088487e-04
5.84000000e-01	1.34882515e-02	1.39692809e-04
5.85000000e-01	1.34410322e-02	1.39459105e-04
5.86000000e-01	1.34017248e-02	1.39391856e-04
5.87000000e-01	1.34129974e-02	1.39620309e-04
5.88000000e-01	1.32543491e-02	1.37713189e-04
5.89000000e-01	1.34968511e-02	1.40029632e-04
5.90000000e-01	1.33113209e-02	1.38520297e-04
5.91000000e-01	1.34621767e-02	1.39546913e-04
5.92000000e-01	1.33089121e-02	1.37740501e-04
5.93000000e-01	1.33395829e-02	1.38809513e-04
5.94000000e-01	1.32949142e-02	1.37990333e-04
5.95000000e-01	1.32451428e-02	1.37612774e-04
5.96000000e-01	1.33693694e-02	1.39035243e-04
5.97000000e-01	1.32440331e-02	1.37802882e-04
5.98000000e-01	1.32928817e-02	1.38207978e-04
5.99000000e-01	1.30914862e-02	1.36252700e-04
6.00000000e-01	1.33060969e-02	1.38636425e-04
6.01000000e-01	1.31435384e-02	1.36682835e-04
6.02000000e-01	1.31749275e-02	1.37192371e-04
6.03000000e-01	1.31884405e-02	1.37271414e-04
6.04000000e-01	1.31609707e-02	1.37330919e-04
6.05000000e-01	1.31195092e-02	1.36580533e-04
6.06000000e-01	1.32153638e-02	1.38041066e-04
6.07000000e-01	1.32749498e-02	1.38818244e-04
6.08000000e-01	1.32033642e-02	1.37649611e-04
6.09000000e-01	1.31383900e-02	1.37002692e-04
6.10000000e-01	1.32579388e-02	1.38399650e-04
6.11000000e-01	1.31768677e-02	1.37675724e-04
6.12000000e-01	1.30891303e-02	1.36758776e-04
6.13000000e-01	1.31682050e-02	1.37573029e-04
6.14000000e-01	1.31739782e-02	1.37555968e-04
6.15000000e-01	1.31544876e-02	1.37427307e-04
6.16000000e-01	1.31068025e-02	1.36969005e-04
6.17000000e-01	1.29780063e-02	1.36449013e-04
6.18000000e-01	1.31011201e-02	1.37090448e-04
6.19000000e-01	1.30747850e-02	1.36184562e-04
6.20000000e-01	1.29084650e-02	1.35035039e-04
6.21000000e-01	1.30221766e-02	1.35612984e-04
6.22000000e-01	1.30408458e-02	1.35919056e-04
6.23000000e-01	1.31122992e-02	1.36243985e-04
6.24000000e-01	1.30981191e-02	1.35966161e-04
6.25000000e-01	1.30598352e-02	1.35013462e-04
6.26000000e-01	1.30381421e-02	1.34902643e-04
6.27000000e-01	1.29735818e-02	1.34594244e-04
6.28000000e-01	1.30005501e-02	1.34879838e-04
6.29000000e-01	1.29124105e-02	1.33580648e-04
6.30000000e-01	1.31126651e-02	1.35553206e-04
6.31000000e-01	1.30673094e-02	1.35404728e-04
6.32000000e-01	1.30537108e-02	1.35435152e-04
6.33000000e-01	1.29843786e-02	1.34833166e-04
6.34000000e-01	1.30958170e-02	1.38766606e-04
6.35000000e-01	1.30203629e-02	1.42397920e-04
6.36000000e-01	1.29693467e-02	1.44496394e-04
6.37000000e-01	1.30934362e-02	1.48009354e-04
6.38000000e-01	1.30053943e-02	1.49322937e-04
6.39000000e-01	1.32343590e-02	1.53666153e-04
6.40000000e-01	1.30527468e-02	1.53796697e-04
6.41000000e-01	1.29989806e-02	1.54772041e-04
6.42000000e-01	1.29697007e-02	1.55691683e-04
6.43000000e-01	1.28863669e-02	1.54939268e-04
6.44000000e-01	1.30445298e-02	1.50557062e-04
6.45000000e-01	1.31435247e-02	1.49992005e-04
6.46000000e-01	1.30108357e-02	1.47406869e-04
6.47000000e-01	1.30912939e-02	1.46678682e-04
6.48000000e-01	1.30138454e-02	1.45220137e-04
6.49000000e-01	1.31015506e-02	1.45337541e-04
6.50000000e-01	1.30165856e-02	1.43556635e-04
6.51000000e-01	1.29684421e-02	1.42666847e-04
6.52000000e-01	1.30641272e-02	1.43118780e-04
6.53000000e-01	1.31048359e-02	1.42757178e-04
6.54000000e-01	1.29820685e-02	1.41613361e-04
6.55000000e-01	1.29939347e-02	1.41121640e-04
6.56000000e-01	1.28244982e-02	1.39139305e-04
6.57000000e-01	1.29606001e-02	1.40347583e-04
6.58000000e-01	1.29864175e-02	1.40441238e-04
6.59000000e-01	1.29764128e-02	1.40337470e-04
6.60000000e-01	1.29014484e-02	1.39364358e-04
6.61000000e-01	1.29484719e-02	1.39616676e-04
6.62000000e-01	1.29227098e-02	1.39801063e-04
6.63000000e-01	1.29753352e-02	1.40176015e-04
6.64000000e-01	1.28930039e-02	1.39245170e-04
6.65000000e-01	1.29011049e-02	1.38703726e-04
6.66000000e-01	1.29068376e-02	1.39023271e-04
6.67000000e-01	1.28699819e-02	1.38350580e-04
6.68000000e-01	1.28680532e-02	1.38107312e-04
6.69000000e-01	1.28205471e-02	1.38127087e-04
6.70000000e-01	1.29116413e-02	1.38639153e-04
6.71000000e-01	1.28571635e-02	1.37607714e-04
6.72000000e-01	1.28619403e-02	1.38083610e-04
6.73000000e-01	1.28408713e-02	1.37867042e-04
6.74000000e-01	1.29008475e-02	1.38544553e-04
6.75000000e-01	1.27221672e-02	1.35936275e-04
6.76000000e-01	1.26939955e-02	1.36747285e-04
6.77000000e-01	1.29230423e-02	1.38428976e-04
6.78000000e-01	1.28764977e-02	1.38082826e-04
6.79000000e-01	1.26944574e-02	1.36592081e-04
6.80000000e-01	1.27368057e-02	1.37097132e-04
6.81000000e-01	1.29121282e-02	1.38382403e-04
6.82000000e-01	1.27217610e-02	1.36362172e-04
6.83000000e-01	1.26274286e-02	1.35551858e-04
6.84000000e-01	1.27417257e-02	1.36655628e-04
6.85000000e-01	1.26910274e-02	1.35896748e-04
6.86000000e-01	1.26889735e-02	1.36083376e-04
6.87000000e-01	1.26822283e-02	1.35955545e-04
6.88000000e-01	1.27042592e-02	1.36243761e-04
6.89000000e-01	1.26767873e-02	1.36068176e-04
6.90000000e-01	1.26694383e-02	1.35608629e-04
6.91000000e-01	1.25834406e-02	1.35227831e-04
6.92000000e-01	1.27003511e-02	1.35731759e-04
6.93000000e-01	1.25827184e-02	1.34304765e-04
6.94000000e-01	1.26566270e-02	1.35860500e-04
6.95000000e-01	1.27653712e-02	1.36475709e-04
6.96000000e-01	1.26104548e-02	1.34923544e-04
6.97000000e-01	1.26441328e-02	1.35495860e-04
6.98000000e-01	1.25366955e-02	1.34635368e-04
6.99000000e-01	1.25329813e-02	1.34681928e-04
7.00000000e-01	1.26035197e-02	1.35235771e-04
7.01000000e-01	1.25900374e-02	1.34421678e-04
7.02000000e-01	1.25755531e-02	1.34398394e-04
7.03000000e-01	1.25607279e-02	1.34811092e-04
7.04000000e-01	1.25469576e-02	1.34263026e-04
7.05000000e-01	1.24440190e-02	1.33760155e-04
7.06000000e-01	1.24261656e-02	1.33225904e-04
7.07000000e-01	1.25094203e-02	1.33353685e-04
7.08000000e-01	1.24837713e-02	1.33312300e-04
7.09000000e-01	1.24094236e-02	1.32446771e-04
7.10000000e-01	1.23710139e-02	1.32295316e-04
7.11000000e-01	1.25864986e-02	1.34298125e-04
7.12000000e-01	1.23673102e-02	1.32775264e-04
7.13000000e-01	1.24412634e-02	1.33305845e-04
7.14000000e-01	1.24206138e-02	1.32872747e-04
7.15000000e-01	1.23766881e-02	1.32224821e-04
7.16000000e-01	1.24256336e-02	1.33242323e-04
7.17000000e-01	1.24469926e-02	1.33689228e-04
7.18000000e-01	1.23576313e-02	1.32526049e-04
7.19000000e-01	1.23947737e-02	1.33192904e-04
7.20000000e-01	1.22669710e-02	1.31964900e-04
7.21000000e-01	1.23650097e-02	1.32508983e-04
7.22000000e-01	1.23021602e-02	1.32301498e-04
7.23000000e-01	1.24335383e-02	1.33240934e-04
7.24000000e-01	1.24501891e-02	1.33242152e-04
7.25000000e-01	1.23366574e-02	1.32060192e-04
7.26000000e-01	1.21355884e-02	1.29884235e-04
7.27000000e-01	1.21476994e-02	1.30616264e-04
7.28000000e-01	1.21170523e-02	1.29880701e-04
7.29000000e-01	1.21536205e-02	1.30602322e-04
7.30000000e-01	1.22402520e-02	1.31394832e-04
7.31000000e-01	1.22107333e-02	1.31060443e-04
7.32000000e-01	1.22689567e-02	1.31477514e-04
7.33000000e-01	1.23212696e-02	1.31591830e-04
7.34000000e-01	1.22254899e-02	1.30779637e-04
7.35000000e-01	1.23045594e-02	1.31455669e-04
7.36000000e-01	1.20184502e-02	1.28340870e-04
7.37000000e-01	1.22397743e-02	1.30744840e-04
7.38000000e-01	1.20877144e-02	1.28548750e-04
7.39000000e-01	1.22849834e-02	1.30583205e-04
7.40000000e-01	1.21165943e-02	1.29196243e-04
7.41000000e-01	1.20867595e-02	1.28638406e-04
7.42000000e-01	1.20216573e-02	1.27952738e-04
7.43000000e-01	1.20009361e-02	1.27813209e-04
7.44000000e-01	1.21996630e-02	1.29195999e-04
7.45000000e-01	1.19766918e-02	1.27693217e-04
7.46000000e-01	1.20157056e-02	1.27983231e-04
7.47000000e-01	1.21554697e-02	1.28939941e-04
7.48000000e-01	1.21805215e-02	1.29221980e-04
7.49000000e-01	1.21156800e-02	1.29061992e-04
7.50000000e-01	1.20496490e-02	1.28175572e-04
7.51000000e-01	1.21479584e-02	1.28903733e-04
7.52000000e-01	1.20248447e-02	1.28064337e-04
7.53000000e-01	1.19731494e-02	1.27381212e-04
7.54000000e-01	1.20829131e-02	1.28064569e-04
7.55000000e-01	1.19429455e-02	1.26983949e-04
7.56000000e-01	1.19794090e-02	1.27328616e-04
7.57000000e-01	1.20005763e-02	1.27679685e-04
7.58000000e-01	1.19780957e-02	1.27491599e-04
7.59000000e-01	1.19836898e-02	1.27378538e-04
7.60000000e-01	1.19592163e-02	1.27312544e-04
7.61000000e-01	1.18363130e-02	1.25672105e-04
7.62000000e-01	1.18331848e-02	1.25045684e-04
7.63000000e-01	1.18679885e-02	1.25102352e-04
7.64000000e-01	1.18291773e-02	1.24999945e-04
7.65000000e-01	1.18062636e-02	1.24468688e-04
7.66000000e-01	1.18413063e-02	1.25637760e-04
7.67000000e-01	1.19032356e-02	1.25735629e-04
7.68000000e-01	1.19419825e-02	1.25909761e-04
7.69000000e-01	1.19938743e-02	1.26444760e-04
7.70000000e-01	1.18606071e-02	1.25453661e-04
7.71000000e-01	1.18734521e-02	1.25289380e-04
7.72000000e-01	1.19205000e-02	1.29696149e-04
7.73000000e-01	1.18522271e-02	1.32744223e-04
7.74000000e-01	1.17832274e-02	1.35213736e-04
7.75000000e-01	1.17366084e-02	1.36887807e-04
7.76000000e-01	1.16579377e-02	1.38368343e-04
7.77000000e-01	1.18142327e-02	1.41544946e-04
7.78000000e-01	1.17437286e-02	1.43186829e-04
7.79000000e-01	1.16931773e-02	1.44017740e-04
7.80000000e-01	1.18944869e-02	1.47687434e-04
7.81000000e-01	1.16738601e-02	1.46933533e-04
7.82000000e-01	1.17294034e-02	1.48940599e-04
7.83000000e-01	1.17388468e-02	1.51016231e-04
7.84000000e-01	1.17639774e-02	1.53712130e-04
7.85000000e-01	1.16936567e-02	1.53089235e-04
7.86000000e-01	1.15764930e-02	1.55266622e-04
7.87000000e-01	1.15310668e-02	1.54656539e-04
7.88000000e-01	1.17038175e-02	1.58622252e-04
7.89000000e-01	1.16264112e-02	1.59302786e-04
7.90000000e-01	1.16770052e-02	1.61473885e-04
7.91000000e-01	1.16870391e-02	1.63024554e-04
7.92000000e-01	1.15047811e-02	1.62558856e-04
7.93000000e-01	1.16149025e-02	1.64927875e-04
7.94000000e-01	1.15720638e-02	1.66451846e-04
7.95000000e-01	1.14527634e-02	1.66357167e-04
7.96000000e-01	1.15610934e-02	1.69400667e-04
7.97000000e-01	1.15284781e-02	1.71142738e-04
7.98000000e-01	1.16063169e-02	1.74939483e-04
7.99000000e-01	1.13011284e-02	1.71936604e-04
8.00000000e-01	1.12425187e-02	1.72235561e-04
8.01000000e-01	1.13280761e-02	1.75753907e-04
8.02000000e-01	1.15319028e-02	1.79973831e-04
8.03000000e-01	1.13356904e-02	1.78987746e-04
8.04000000e-01	1.13279724e-02	1.82304714e-04
8.05000000e-01	1.12165141e-02	1.81612487e-04
8.06000000e-01	1.13169696e-02	1.86286199e-04
8.07000000e-01	1.14586254e-02	1.89751836e-04
8.08000000e-01	1.13061949e-02	1.88785806e-04
8.09000000e-01	1.11862494e-02	1.89584883e-04
8.10000000e-01	1.13537048e-02	1.93090856e-04
8.11000000e-01	1.13256361e-02	1.95979609e-04
8.12000000e-01	1.13071697e-02	1.98162205e-04
8.13000000e-01	1.12133977e-02	1.99114012e-04
8.14000000e-01	1.12694057e-02	2.01032639e-04
8.15000000e-01	1.13889624e-02	2.05439809e-04
8.16000000e-01	1.13674053e-02	2.07828317e-04
8.17000000e-01	1.12195647e-02	2.08284443e-04
8.18000000e-01	1.13582465e-02	2.11544131e-04
8.19000000e-01	1.13053094e-02	2.14890507e-04
8.20000000e-01	1.11306367e-02	2.15600456e-04
8.21000000e-01	1.12009363e-02	2.19986264e-04
8.22000000e-01	1.12588728e-02	2.22477059e-04
8.23000000e-01	1.10425139e-02	2.20230233e-04
8.24000000e-01	1.12799017e-02	2.29547720e-04
8.25000000e-01	1.10876661e-02	2.29226246e-04
8.26000000e-01	1.12284395e-02	2.34940963e-04
8.27000000e-01	1.10009937e-02	2.33670433e-04
8.28000000e-01	1.13370978e-02	2.42161702e-04
8.29000000e-01	1.10914116e-02	2.42216841e-04
8.30000000e-01	1.11930727e-02	2.49088791e-04
8.31000000e-01	1.10032367e-02	2.48997893e-04
8.32000000e-01	1.07051598e-02	2.47902878e-04
8.33000000e-01	1.08158450e-02	2.53234616e-04
8.34000000e-01	1.08663209e-02	2.61224388e-04
8.35000000e-01	1.09472609e-02	2.65136098e-04
8.36000000e-01	1.10161077e-02	2.69772404e-04
8.37000000e-01	1.08854314e-02	2.74351741e-04
8.38000000e-01	1.10877402e-02	2.84702442e-04
8.39000000e-01	1.08792833e-02	2.84137081e-04
8.40000000e-01	1.08679084e-02	2.90087261e-04
8.41000000e-01	1.07481407e-02	2.93107812e-04
8.42000000e-01	1.08932906e-02	3.05574439e-04
8.43000000e-01	1.09573660e-02	3.12563684e-04
8.44000000e-01	1.09941083e-02	3.23300123e-04
8.45000000e-01	1.08601499e-02	3.24360569e-04
8.46000000e-01	1.09229020e-02	3.39427316e-04
8.47000000e-01	1.07726209e-02	3.41491439e-04
8.48000000e-01	1.05914023e-02	3.46489212e-04
8.49000000e-01	1.08251642e-02	3.63509520e-04
8.50000000e-01	1.06661824e-02	3.74385353e-04
8.51000000e-01	1.08898575e-02	3.97635775e-04
8.52000000e-01	1.04892876e-02	3.94062126e-04
8.53000000e-01	1.04185530e-02	4.13162726e-04
8.54000000e-01	1.00731868e-02	4.23658204e-04
8.55000000e-01	1.07464345e-02	4.60531993e-04
8.56000000e-01	1.05149864e-02	4.55803100e-04
8.57000000e-01	1.00981795e-02	4.56351210e-04
8.58000000e-01	1.04209688e-02	4.78857311e-04
8.59000000e-01	1.02957333e-02	5.02909416e-04
8.60000000e-01	1.02841556e-02	5.12442313e-04
8.61000000e-01	1.04301809e-02	5.36031176e-04
8.62000000e-01	1.06276908e-02	5.62150060e-04
8.63000000e-01	1.02386262e-02	5.76570912e-04
8.64000000e-01	1.03358508e-02	5.95582964e-04
8.65000000e-01	1.03110855e-02	6.21068130e-04
8.66000000e-01	1.04806087e-02	6.56780253e-04
8.67000000e-01	1.05297400e-02	7.13339695e-04
8.68000000e-01	1.03542250e-02	7.37091533e-04
8.69000000e-01	1.05061407e-02	7.89540072e-04
8.70000000e-01	1.07633595e-02	8.88407557e-04
8.71000000e-01	1.01760546e-02	9.71179796e-04
8.72000000e-01	9.69594981e-03	1.02274426e-03
8.73000000e-01	1.02232268e-02	1.28973393e-03
8.74000000e-01	1.08114655e-02	1.77459820e-03
8.75000000e-01	1.06153526e-02	3.42608488e-03
