% Filename : SDL7_00012_00180.h5
% Date & Time : 30-Oct-2025 14:56:57
% X-ray Energy (keV) : 13.30001
% Exposure Time (s) : 0.500
% Beam Center : 1461.24000, 208.98300
% Sample to Detector Distance (SDD) (mm) : 1990.750
% Detector Pixel Size (mm) : 0.075
% Photodiode Value : 136554.000
% I0 of Sample : 0
% I0 of Standard : 1
% 
% q(A^-1)   I(q)    I(q)_SE
0.00000000e+00	1.32304556e-02	6.74623699e-03
2.50000000e-04	0.00000000e+00	0.00000000e+00
5.00000000e-04	0.00000000e+00	0.00000000e+00
7.50000000e-04	0.00000000e+00	0.00000000e+00
1.00000000e-03	0.00000000e+00	0.00000000e+00
1.25000000e-03	0.00000000e+00	0.00000000e+00
1.50000000e-03	0.00000000e+00	0.00000000e+00
1.75000000e-03	0.00000000e+00	0.00000000e+00
2.00000000e-03	0.00000000e+00	0.00000000e+00
2.25000000e-03	0.00000000e+00	0.00000000e+00
2.50000000e-03	0.00000000e+00	0.00000000e+00
2.75000000e-03	0.00000000e+00	0.00000000e+00
3.00000000e-03	0.00000000e+00	0.00000000e+00
3.25000000e-03	3.03549914e+00	1.78934606e+00
3.50000000e-03	1.92824167e+00	4.98897170e-01
3.75000000e-03	1.46558153e+00	3.08842604e-01
4.00000000e-03	1.19826275e+00	2.23175599e-01
4.25000000e-03	8.62807397e-01	1.31679160e-01
4.50000000e-03	1.10792281e+00	2.02513558e-01
4.75000000e-03	1.17579630e+00	2.11663767e-01
5.00000000e-03	9.27957901e-01	1.57619545e-01
5.25000000e-03	7.71758566e-01	1.25344633e-01
5.50000000e-03	6.43990574e-01	1.02445584e-01
5.75000000e-03	5.45782749e-01	8.38767240e-02
6.00000000e-03	4.61543586e-01	6.82180109e-02
6.25000000e-03	3.93449306e-01	5.64557335e-02
6.50000000e-03	3.37171122e-01	4.68324270e-02
6.75000000e-03	2.93915692e-01	3.93814450e-02
7.00000000e-03	2.58678320e-01	3.31619384e-02
7.25000000e-03	2.29947893e-01	2.86887671e-02
7.50000000e-03	1.97685145e-01	2.47917660e-02
7.75000000e-03	1.83495990e-01	2.21036649e-02
8.00000000e-03	1.69966897e-01	1.98302636e-02
8.25000000e-03	1.47832041e-01	1.62661870e-02
8.50000000e-03	1.33425179e-01	1.53657984e-02
8.75000000e-03	1.21076260e-01	1.30394695e-02
9.00000000e-03	1.11032451e-01	1.18607368e-02
9.25000000e-03	1.03067180e-01	1.06448103e-02
9.50000000e-03	9.27527002e-02	9.02114560e-03
9.75000000e-03	8.57884619e-02	8.36053445e-03
1.00000000e-02	7.89381342e-02	7.45261228e-03
1.02500000e-02	7.53516981e-02	7.35664152e-03
1.05000000e-02	6.82413604e-02	6.11939134e-03
1.07500000e-02	6.69044190e-02	6.07483909e-03
1.10000000e-02	6.13273202e-02	5.24926104e-03
1.12500000e-02	5.53436232e-02	4.64879536e-03
1.15000000e-02	5.41948446e-02	4.49454741e-03
1.17500000e-02	5.16902954e-02	4.14429300e-03
1.20000000e-02	4.89867979e-02	3.83313702e-03
1.22500000e-02	4.82835201e-02	3.75900017e-03
1.25000000e-02	4.54476274e-02	3.44171854e-03
1.27500000e-02	4.22190604e-02	3.14707186e-03
1.30000000e-02	4.15714491e-02	3.11106228e-03
1.32500000e-02	4.01811869e-02	2.81122408e-03
1.35000000e-02	3.87463136e-02	2.76253766e-03
1.37500000e-02	3.73608890e-02	2.60321761e-03
1.40000000e-02	3.59231584e-02	2.41809500e-03
1.42500000e-02	3.41526015e-02	2.28778042e-03
1.45000000e-02	3.22701872e-02	2.06242332e-03
1.47500000e-02	3.37435915e-02	2.18114701e-03
1.50000000e-02	3.12437903e-02	1.98423960e-03
1.52500000e-02	3.11487973e-02	1.94827808e-03
1.55000000e-02	3.14874504e-02	1.90054704e-03
1.57500000e-02	2.90900513e-02	1.84941271e-03
1.60000000e-02	2.93886847e-02	1.74361932e-03
1.62500000e-02	2.95474819e-02	1.75880507e-03
1.65000000e-02	2.78183701e-02	1.62009625e-03
1.67500000e-02	2.82395895e-02	1.59007725e-03
1.70000000e-02	2.82272334e-02	1.62595806e-03
1.72500000e-02	2.73235654e-02	1.57309177e-03
1.75000000e-02	2.66726286e-02	1.49048151e-03
1.77500000e-02	2.66740832e-02	1.48485487e-03
1.80000000e-02	2.61840520e-02	1.45557271e-03
1.82500000e-02	2.58917409e-02	1.38240831e-03
1.85000000e-02	2.46442692e-02	1.35564979e-03
1.87500000e-02	2.59397389e-02	1.40149634e-03
1.90000000e-02	2.54225011e-02	1.35761368e-03
1.92500000e-02	2.54795391e-02	1.33533397e-03
1.95000000e-02	2.48176680e-02	1.30732000e-03
1.97500000e-02	2.36564942e-02	1.26559460e-03
2.00000000e-02	2.34454610e-02	1.23771835e-03
2.02500000e-02	2.30144825e-02	1.18322864e-03
2.05000000e-02	2.41306948e-02	1.21091326e-03
2.07500000e-02	2.39724344e-02	1.21810942e-03
2.10000000e-02	2.36247984e-02	1.21235085e-03
2.12500000e-02	2.37081409e-02	1.21556149e-03
2.15000000e-02	2.35517740e-02	1.19399668e-03
2.17500000e-02	2.29110640e-02	1.17251557e-03
2.20000000e-02	2.32398315e-02	1.19632887e-03
2.22500000e-02	2.39920053e-02	1.22681166e-03
2.25000000e-02	2.30811469e-02	1.19584893e-03
2.27500000e-02	2.29420602e-02	1.16930000e-03
2.30000000e-02	2.31201290e-02	1.19171630e-03
2.32500000e-02	2.32074443e-02	1.17403592e-03
2.35000000e-02	2.30104186e-02	1.16781037e-03
2.37500000e-02	2.34761015e-02	1.19087562e-03
2.40000000e-02	2.34457603e-02	1.18100423e-03
2.42500000e-02	2.22300213e-02	1.12723097e-03
2.45000000e-02	2.28526792e-02	1.14628415e-03
2.47500000e-02	2.31183305e-02	1.14381638e-03
2.50000000e-02	2.30757265e-02	1.15038373e-03
2.52500000e-02	2.25584800e-02	1.12998675e-03
2.55000000e-02	2.25976008e-02	1.11506825e-03
2.57500000e-02	2.24240146e-02	1.11927658e-03
2.60000000e-02	2.25323090e-02	1.11746178e-03
2.62500000e-02	2.28496753e-02	1.15011303e-03
2.65000000e-02	2.29315836e-02	1.14181625e-03
2.67500000e-02	2.23684209e-02	1.10700116e-03
2.70000000e-02	2.25053405e-02	1.12470164e-03
2.72500000e-02	2.31234501e-02	1.14308089e-03
2.75000000e-02	2.25241047e-02	1.12440760e-03
2.77500000e-02	2.35838819e-02	1.16251511e-03
2.80000000e-02	2.23354662e-02	1.09217012e-03
2.82500000e-02	2.21126683e-02	1.07918592e-03
2.85000000e-02	2.25165246e-02	1.09684993e-03
2.87500000e-02	2.26344974e-02	1.10853699e-03
2.90000000e-02	2.26844077e-02	1.10983953e-03
2.92500000e-02	2.30820714e-02	1.10228145e-03
2.95000000e-02	2.31151645e-02	1.12879478e-03
2.97500000e-02	2.18395828e-02	1.05029351e-03
3.00000000e-02	2.23519500e-02	1.08310054e-03
3.02500000e-02	2.29856257e-02	1.11030697e-03
3.05000000e-02	2.24449195e-02	1.06116081e-03
3.07500000e-02	2.24344908e-02	1.07935816e-03
3.10000000e-02	2.23237721e-02	1.06227423e-03
3.12500000e-02	2.24227914e-02	1.06754929e-03
3.15000000e-02	2.30163877e-02	1.08520633e-03
3.17500000e-02	2.22527272e-02	1.02567993e-03
3.20000000e-02	2.31484979e-02	1.09840372e-03
3.22500000e-02	2.24236204e-02	1.06405500e-03
3.25000000e-02	2.26633459e-02	1.06900381e-03
3.27500000e-02	2.26988990e-02	1.06271100e-03
3.30000000e-02	2.23225610e-02	1.02578098e-03
3.32500000e-02	2.23585920e-02	1.03259419e-03
3.35000000e-02	2.18435562e-02	1.03030140e-03
3.37500000e-02	2.19196854e-02	1.02185451e-03
3.40000000e-02	2.16347779e-02	1.00433540e-03
3.42500000e-02	2.24025168e-02	1.02689731e-03
3.45000000e-02	2.21741674e-02	1.01945446e-03
3.47500000e-02	2.21646276e-02	1.01045647e-03
3.50000000e-02	2.18146306e-02	9.92311568e-04
3.52500000e-02	2.18979009e-02	9.98381492e-04
3.55000000e-02	2.22820768e-02	1.01234973e-03
3.57500000e-02	2.12412199e-02	9.73867555e-04
3.60000000e-02	2.26299924e-02	1.02915465e-03
3.62500000e-02	2.19852313e-02	1.00255293e-03
3.65000000e-02	2.13588147e-02	9.80690819e-04
3.67500000e-02	2.16979221e-02	9.81597314e-04
3.70000000e-02	2.21420386e-02	9.92532284e-04
3.72500000e-02	2.18826040e-02	9.97501411e-04
3.75000000e-02	2.18738559e-02	9.83378973e-04
3.77500000e-02	2.16308528e-02	9.78322593e-04
3.80000000e-02	2.14919843e-02	9.63536744e-04
3.82500000e-02	2.22610407e-02	9.85963338e-04
3.85000000e-02	2.03892920e-02	9.24022131e-04
3.87500000e-02	2.08985797e-02	9.24503609e-04
3.90000000e-02	2.11590857e-02	9.37618812e-04
3.92500000e-02	2.17429428e-02	9.69439318e-04
3.95000000e-02	2.22160504e-02	9.69238759e-04
3.97500000e-02	2.09620128e-02	9.17469032e-04
4.00000000e-02	2.12559648e-02	9.40963853e-04
4.02500000e-02	2.05030568e-02	9.00624987e-04
4.05000000e-02	2.06547954e-02	9.05318379e-04
4.07500000e-02	2.06468608e-02	8.97078087e-04
4.10000000e-02	2.07738329e-02	9.02963569e-04
4.12500000e-02	2.12037017e-02	9.23247087e-04
4.15000000e-02	2.16263428e-02	9.28921273e-04
4.17500000e-02	2.09025470e-02	9.06017972e-04
4.20000000e-02	2.14405950e-02	9.10995688e-04
4.22500000e-02	2.19805565e-02	9.40513133e-04
4.25000000e-02	2.13434819e-02	9.16422185e-04
4.27500000e-02	2.19329246e-02	9.31563055e-04
4.30000000e-02	1.99895101e-02	8.61756045e-04
4.32500000e-02	2.09088197e-02	8.94782286e-04
4.35000000e-02	2.10273635e-02	9.04158109e-04
4.37500000e-02	2.04331530e-02	8.56179497e-04
4.40000000e-02	2.06093107e-02	8.79102766e-04
4.42500000e-02	2.16563965e-02	9.15467598e-04
4.45000000e-02	2.00692305e-02	8.49740683e-04
4.47500000e-02	2.10990979e-02	8.88613985e-04
4.50000000e-02	2.08671823e-02	8.83154917e-04
4.52500000e-02	2.07407994e-02	8.74453157e-04
4.55000000e-02	2.03655113e-02	8.57056168e-04
4.57500000e-02	2.03678025e-02	8.50475119e-04
4.60000000e-02	2.08262355e-02	8.58769277e-04
4.62500000e-02	2.04815229e-02	8.51306971e-04
4.65000000e-02	2.06677322e-02	8.54064484e-04
4.67500000e-02	2.10659287e-02	8.67560033e-04
4.70000000e-02	2.16196162e-02	8.91268595e-04
4.72500000e-02	2.14197753e-02	8.75738263e-04
4.75000000e-02	2.06890984e-02	8.53446869e-04
4.77500000e-02	2.06326208e-02	8.47840050e-04
4.80000000e-02	2.08324098e-02	8.46985870e-04
4.82500000e-02	2.02753873e-02	8.32090560e-04
4.85000000e-02	2.13195894e-02	8.71615648e-04
4.87500000e-02	2.07632388e-02	8.48468185e-04
4.90000000e-02	2.07137776e-02	8.34823564e-04
4.92500000e-02	2.05923851e-02	8.32040317e-04
4.95000000e-02	1.96130388e-02	8.01514310e-04
4.97500000e-02	2.06600825e-02	8.45628350e-04
5.00000000e-02	2.05116632e-02	8.32483737e-04
5.02500000e-02	2.02437660e-02	8.08992202e-04
5.05000000e-02	2.08778352e-02	8.39489665e-04
5.07500000e-02	2.01669863e-02	8.06054255e-04
5.10000000e-02	2.07323336e-02	8.28682840e-04
5.12500000e-02	2.09452155e-02	8.41476172e-04
5.15000000e-02	2.09177962e-02	8.21091405e-04
5.17500000e-02	2.06266257e-02	8.22041273e-04
5.20000000e-02	2.04455633e-02	8.05876948e-04
5.22500000e-02	2.06529202e-02	8.20372924e-04
5.25000000e-02	2.11846650e-02	8.34639686e-04
5.27500000e-02	2.08882856e-02	8.18257866e-04
5.30000000e-02	2.12735412e-02	8.40347122e-04
5.32500000e-02	2.02125391e-02	7.94054790e-04
5.35000000e-02	2.05249472e-02	8.09601186e-04
5.37500000e-02	2.05958669e-02	8.03762261e-04
5.40000000e-02	2.12888694e-02	8.31764990e-04
5.42500000e-02	2.05089248e-02	8.03043199e-04
5.45000000e-02	2.06148918e-02	8.03798725e-04
5.47500000e-02	2.00880186e-02	7.89935691e-04
5.50000000e-02	2.07708779e-02	8.13851941e-04
5.52500000e-02	2.00420334e-02	7.83716387e-04
5.55000000e-02	2.02972695e-02	7.86781985e-04
5.57500000e-02	2.02307366e-02	7.86987164e-04
5.60000000e-02	2.06096591e-02	7.93774442e-04
5.62500000e-02	2.02526397e-02	7.83445921e-04
5.65000000e-02	2.06159251e-02	7.97678816e-04
5.67500000e-02	2.06584393e-02	7.97801090e-04
5.70000000e-02	2.02201574e-02	7.77417136e-04
5.72500000e-02	2.03150431e-02	7.81949519e-04
5.75000000e-02	2.05013914e-02	7.86678466e-04
5.77500000e-02	2.05932029e-02	7.74969515e-04
5.80000000e-02	2.06760729e-02	7.87572934e-04
5.82500000e-02	2.00144385e-02	7.60993259e-04
5.85000000e-02	2.01248643e-02	7.62856364e-04
5.87500000e-02	2.11551362e-02	7.94883082e-04
5.90000000e-02	2.03467991e-02	7.66845659e-04
5.92500000e-02	2.05181725e-02	7.74639850e-04
5.95000000e-02	2.04323379e-02	7.64669352e-04
5.97500000e-02	2.05583805e-02	7.78398025e-04
6.00000000e-02	2.02936966e-02	7.57167217e-04
6.02500000e-02	2.07842362e-02	7.75410397e-04
6.05000000e-02	2.01135486e-02	7.47116712e-04
6.07500000e-02	1.98877056e-02	7.44508450e-04
6.10000000e-02	2.03724981e-02	7.57179765e-04
6.12500000e-02	2.03796617e-02	7.60477191e-04
6.15000000e-02	1.97588368e-02	7.38468797e-04
6.17500000e-02	1.97683303e-02	7.30603894e-04
6.20000000e-02	2.09838255e-02	7.72895342e-04
6.22500000e-02	2.03825802e-02	7.51879560e-04
6.25000000e-02	2.04559179e-02	7.54309003e-04
6.27500000e-02	1.94829026e-02	7.12051118e-04
6.30000000e-02	1.96174682e-02	7.21520684e-04
6.32500000e-02	2.07125727e-02	7.68532280e-04
6.35000000e-02	2.01660691e-02	7.37594633e-04
6.37500000e-02	2.04084254e-02	7.54575997e-04
6.40000000e-02	2.07011232e-02	7.60001497e-04
6.42500000e-02	2.02902769e-02	7.32703746e-04
6.45000000e-02	2.00187462e-02	7.24827536e-04
6.47500000e-02	2.02761063e-02	7.38659253e-04
6.50000000e-02	1.99578577e-02	7.27382552e-04
6.52500000e-02	2.00353406e-02	7.30857584e-04
6.55000000e-02	2.03515127e-02	7.31859511e-04
6.57500000e-02	1.97104488e-02	7.15750585e-04
6.60000000e-02	1.93907572e-02	6.93803727e-04
6.62500000e-02	2.01698794e-02	7.30553805e-04
6.65000000e-02	1.97940710e-02	7.01421373e-04
6.67500000e-02	1.96750779e-02	7.06402332e-04
6.70000000e-02	2.00151999e-02	7.19042263e-04
6.72500000e-02	1.97449678e-02	7.06346240e-04
6.75000000e-02	2.00232738e-02	7.14474767e-04
6.77500000e-02	2.06100202e-02	7.28188710e-04
6.80000000e-02	2.01391872e-02	7.16707857e-04
6.82500000e-02	2.05010938e-02	7.28196539e-04
6.85000000e-02	2.01340040e-02	7.22237369e-04
6.87500000e-02	2.03996006e-02	7.22329101e-04
6.90000000e-02	1.97419711e-02	6.93498227e-04
6.92500000e-02	1.94978837e-02	6.89571561e-04
6.95000000e-02	2.01983380e-02	7.15795769e-04
6.97500000e-02	1.95110048e-02	6.93113259e-04
7.00000000e-02	2.02925474e-02	7.09226428e-04
7.02500000e-02	1.92280038e-02	6.76714026e-04
7.05000000e-02	2.02208995e-02	7.07625986e-04
7.07500000e-02	1.96601310e-02	6.91191625e-04
7.10000000e-02	1.97031375e-02	6.91886625e-04
7.12500000e-02	1.96123336e-02	6.85421950e-04
7.15000000e-02	1.98696036e-02	6.84632015e-04
7.17500000e-02	2.01000888e-02	7.02796107e-04
7.20000000e-02	1.97739394e-02	6.91329299e-04
7.22500000e-02	2.04932176e-02	7.12907858e-04
7.25000000e-02	2.02532715e-02	7.00626372e-04
7.27500000e-02	1.98775992e-02	6.89442141e-04
7.30000000e-02	2.00081902e-02	6.98961890e-04
7.32500000e-02	1.89618106e-02	6.54811314e-04
7.35000000e-02	2.02604621e-02	7.01652783e-04
7.37500000e-02	1.96915587e-02	6.76037741e-04
7.40000000e-02	2.01043368e-02	6.90353074e-04
7.42500000e-02	2.01813839e-02	6.95776462e-04
7.45000000e-02	1.98193304e-02	6.79311079e-04
7.47500000e-02	1.98868017e-02	6.77559297e-04
7.50000000e-02	2.04269608e-02	6.97836324e-04
7.52500000e-02	2.03219629e-02	6.93841646e-04
7.55000000e-02	1.96059560e-02	6.73077820e-04
7.57500000e-02	1.98687365e-02	6.77629073e-04
7.60000000e-02	2.01158849e-02	6.81602531e-04
7.62500000e-02	1.97139702e-02	6.73681224e-04
7.65000000e-02	2.06891059e-02	7.04788977e-04
7.67500000e-02	2.05106031e-02	6.94669100e-04
7.70000000e-02	1.95122567e-02	6.55060782e-04
7.72500000e-02	2.00949808e-02	6.90160561e-04
7.75000000e-02	2.00949371e-02	6.97515540e-04
7.77500000e-02	1.98343335e-02	6.93503132e-04
7.80000000e-02	2.02609466e-02	7.05898939e-04
7.82500000e-02	1.95886389e-02	6.93394572e-04
7.85000000e-02	1.98362968e-02	7.00519514e-04
7.87500000e-02	1.96755304e-02	6.87459765e-04
7.90000000e-02	1.96755714e-02	7.01643090e-04
7.92500000e-02	1.99020259e-02	7.16739250e-04
7.95000000e-02	1.99447390e-02	7.16269364e-04
7.97500000e-02	2.03024907e-02	7.32942830e-04
8.00000000e-02	1.98832451e-02	7.11133729e-04
8.02500000e-02	2.01315977e-02	7.28807737e-04
8.05000000e-02	1.95996595e-02	7.05388738e-04
8.07500000e-02	2.00304835e-02	7.28628839e-04
8.10000000e-02	2.00821856e-02	7.20147813e-04
8.12500000e-02	1.97877537e-02	7.26196735e-04
8.15000000e-02	1.96490145e-02	7.09151708e-04
8.17500000e-02	1.99646228e-02	7.28332208e-04
8.20000000e-02	1.99824487e-02	7.30041352e-04
8.22500000e-02	1.93113098e-02	7.12716720e-04
8.25000000e-02	2.06041139e-02	7.52134985e-04
8.27500000e-02	1.90534601e-02	6.98091261e-04
8.30000000e-02	2.04100800e-02	7.48811458e-04
8.32500000e-02	1.99427305e-02	7.28795768e-04
8.35000000e-02	2.03776147e-02	7.55413082e-04
8.37500000e-02	1.97233267e-02	7.22427457e-04
8.40000000e-02	2.00372500e-02	7.36946511e-04
8.42500000e-02	1.94816281e-02	7.25096313e-04
8.45000000e-02	1.96681387e-02	7.34945119e-04
8.47500000e-02	1.98684529e-02	7.36754221e-04
8.50000000e-02	1.95381984e-02	7.24903713e-04
8.52500000e-02	1.93740555e-02	7.20416620e-04
8.55000000e-02	1.99634418e-02	7.40087753e-04
8.57500000e-02	1.93868749e-02	7.26460893e-04
8.60000000e-02	2.02784314e-02	7.57014682e-04
8.62500000e-02	1.98299439e-02	7.36538948e-04
8.65000000e-02	2.00382255e-02	7.45684442e-04
8.67500000e-02	1.94297643e-02	7.15314891e-04
8.70000000e-02	1.98440883e-02	7.25419518e-04
8.72500000e-02	2.03423532e-02	7.23162956e-04
8.75000000e-02	1.98830082e-02	7.02380047e-04
8.77500000e-02	2.01531488e-02	7.09270541e-04
8.80000000e-02	2.01363599e-02	7.13093848e-04
8.82500000e-02	1.97334151e-02	6.95232491e-04
8.85000000e-02	2.01630907e-02	7.03217478e-04
8.87500000e-02	2.02538185e-02	6.97840365e-04
8.90000000e-02	2.00038181e-02	6.85419579e-04
8.92500000e-02	2.01336625e-02	6.94018732e-04
8.95000000e-02	1.98802848e-02	6.81735453e-04
8.97500000e-02	1.97400457e-02	6.72531706e-04
9.00000000e-02	1.98695746e-02	6.77008060e-04
9.02500000e-02	1.97372446e-02	6.72856687e-04
9.05000000e-02	1.97476413e-02	6.74596892e-04
9.07500000e-02	1.96811998e-02	6.66881209e-04
9.10000000e-02	2.01121160e-02	6.74984783e-04
9.12500000e-02	1.93951654e-02	6.54757356e-04
9.15000000e-02	1.96318912e-02	6.60865245e-04
9.17500000e-02	1.98091720e-02	6.68272828e-04
9.20000000e-02	1.94615774e-02	6.59596357e-04
9.22500000e-02	2.02464005e-02	6.74385494e-04
9.25000000e-02	1.91335899e-02	6.41023290e-04
9.27500000e-02	1.93035979e-02	6.43340974e-04
9.30000000e-02	2.04267284e-02	6.72481462e-04
9.32500000e-02	1.94818610e-02	6.49013397e-04
9.35000000e-02	1.94563448e-02	6.44438095e-04
9.37500000e-02	1.97067874e-02	6.46183781e-04
9.40000000e-02	2.00128331e-02	6.61182465e-04
9.42500000e-02	1.93118453e-02	6.37951014e-04
9.45000000e-02	1.97816652e-02	6.55176882e-04
9.47500000e-02	1.98331118e-02	6.51514287e-04
9.50000000e-02	1.94947760e-02	6.40878854e-04
9.52500000e-02	2.02035014e-02	6.57055583e-04
9.55000000e-02	1.94134867e-02	6.31988640e-04
9.57500000e-02	1.95615492e-02	6.37019460e-04
9.60000000e-02	1.96482347e-02	6.34605461e-04
9.62500000e-02	1.94486142e-02	6.30575261e-04
9.65000000e-02	1.96326550e-02	6.39839657e-04
9.67500000e-02	1.97884047e-02	6.41170377e-04
9.70000000e-02	1.94553065e-02	6.30392495e-04
9.72500000e-02	1.97114090e-02	6.32126550e-04
9.75000000e-02	1.97176377e-02	6.38236776e-04
9.77500000e-02	1.98648727e-02	6.34045003e-04
9.80000000e-02	2.01229125e-02	6.41952735e-04
9.82500000e-02	1.99541304e-02	6.39047878e-04
9.85000000e-02	1.94772586e-02	6.21492814e-04
9.87500000e-02	1.96506254e-02	6.19949571e-04
9.90000000e-02	1.96655012e-02	6.27696317e-04
9.92500000e-02	1.97532251e-02	6.31687986e-04
9.95000000e-02	1.95637776e-02	6.20850340e-04
9.97500000e-02	2.00108993e-02	6.32732674e-04
1.00000000e-01	2.00531291e-02	5.17661760e-04
1.00500000e-01	1.96643863e-02	4.42053237e-04
1.01000000e-01	1.97762786e-02	4.40092585e-04
1.01500000e-01	1.94921830e-02	4.33555467e-04
1.02000000e-01	1.97231698e-02	4.36299623e-04
1.02500000e-01	1.96247402e-02	4.32472108e-04
1.03000000e-01	1.98289824e-02	4.35550418e-04
1.03500000e-01	1.97961931e-02	4.34014511e-04
1.04000000e-01	1.96561455e-02	4.30967017e-04
1.04500000e-01	1.94804276e-02	4.27419122e-04
1.05000000e-01	1.96448083e-02	4.25415999e-04
1.05500000e-01	1.98652567e-02	4.32483833e-04
1.06000000e-01	1.97301512e-02	4.29016696e-04
1.06500000e-01	1.99238411e-02	4.29157079e-04
1.07000000e-01	1.93965730e-02	4.23124310e-04
1.07500000e-01	1.96094841e-02	4.37121322e-04
1.08000000e-01	1.97667336e-02	4.43387625e-04
1.08500000e-01	1.95919221e-02	4.43803552e-04
1.09000000e-01	1.99334558e-02	4.53131455e-04
1.09500000e-01	1.97031886e-02	4.51284480e-04
1.10000000e-01	1.98572478e-02	4.50333648e-04
1.10500000e-01	1.96552810e-02	4.34975364e-04
1.11000000e-01	1.98038746e-02	4.31299360e-04
1.11500000e-01	1.96470915e-02	4.24229638e-04
1.12000000e-01	2.00372561e-02	4.29013627e-04
1.12500000e-01	1.94169045e-02	4.13915093e-04
1.13000000e-01	1.95010537e-02	4.15984420e-04
1.13500000e-01	1.97631799e-02	4.19492853e-04
1.14000000e-01	1.98795498e-02	4.19190850e-04
1.14500000e-01	2.00810163e-02	4.21467933e-04
1.15000000e-01	1.95687631e-02	4.09906619e-04
1.15500000e-01	1.98632702e-02	4.16472165e-04
1.16000000e-01	1.97354835e-02	4.11099974e-04
1.16500000e-01	1.95974609e-02	4.06640393e-04
1.17000000e-01	1.96739161e-02	4.08696511e-04
1.17500000e-01	1.95378690e-02	4.05968107e-04
1.18000000e-01	1.95140042e-02	4.04869582e-04
1.18500000e-01	1.95286789e-02	4.03958298e-04
1.19000000e-01	1.96719587e-02	4.06292330e-04
1.19500000e-01	1.96980659e-02	4.04083694e-04
1.20000000e-01	1.98320907e-02	4.04145818e-04
1.20500000e-01	1.96964640e-02	4.03609241e-04
1.21000000e-01	1.96748640e-02	4.01057670e-04
1.21500000e-01	1.95008981e-02	3.96361044e-04
1.22000000e-01	1.94842057e-02	3.94863759e-04
1.22500000e-01	1.97491215e-02	3.96020200e-04
1.23000000e-01	1.96281812e-02	3.98011724e-04
1.23500000e-01	1.95858049e-02	3.94171865e-04
1.24000000e-01	1.95523308e-02	3.92800390e-04
1.24500000e-01	1.94575047e-02	3.90072295e-04
1.25000000e-01	1.95469903e-02	3.92693166e-04
1.25500000e-01	1.94033735e-02	3.88641853e-04
1.26000000e-01	1.98864685e-02	3.96321730e-04
1.26500000e-01	1.97405381e-02	3.91979697e-04
1.27000000e-01	2.00507013e-02	3.97521373e-04
1.27500000e-01	1.96470374e-02	3.89138379e-04
1.28000000e-01	1.96252985e-02	3.87712213e-04
1.28500000e-01	1.98783545e-02	3.91448744e-04
1.29000000e-01	1.97635517e-02	3.88171802e-04
1.29500000e-01	1.99898859e-02	3.89971599e-04
1.30000000e-01	1.96242269e-02	3.84637819e-04
1.30500000e-01	1.95601870e-02	3.82236955e-04
1.31000000e-01	1.98237213e-02	3.86434494e-04
1.31500000e-01	1.94849256e-02	3.79733302e-04
1.32000000e-01	1.95882839e-02	3.81510010e-04
1.32500000e-01	1.97429514e-02	3.83186381e-04
1.33000000e-01	1.93586147e-02	3.74873547e-04
1.33500000e-01	1.96022119e-02	3.77355534e-04
1.34000000e-01	1.94905067e-02	3.74394245e-04
1.34500000e-01	1.94030572e-02	3.71741085e-04
1.35000000e-01	1.94533774e-02	3.73133512e-04
1.35500000e-01	1.96851682e-02	3.76148403e-04
1.36000000e-01	1.95092015e-02	3.70953742e-04
1.36500000e-01	1.96630346e-02	3.75118191e-04
1.37000000e-01	1.93351660e-02	3.66380725e-04
1.37500000e-01	1.96335602e-02	3.71705197e-04
1.38000000e-01	1.95147184e-02	3.70211287e-04
1.38500000e-01	1.95284315e-02	3.71670942e-04
1.39000000e-01	1.96001188e-02	3.71923109e-04
1.39500000e-01	1.95279805e-02	3.66767439e-04
1.40000000e-01	1.96607586e-02	3.71591540e-04
1.40500000e-01	1.96721431e-02	3.72538243e-04
1.41000000e-01	1.93766636e-02	3.63801000e-04
1.41500000e-01	1.92519547e-02	3.63840697e-04
1.42000000e-01	1.91579906e-02	3.59480029e-04
1.42500000e-01	1.94023433e-02	3.65707392e-04
1.43000000e-01	1.95325524e-02	3.67732642e-04
1.43500000e-01	1.93811157e-02	3.61545199e-04
1.44000000e-01	1.94045662e-02	3.61977082e-04
1.44500000e-01	1.93719490e-02	3.57703854e-04
1.45000000e-01	1.91954513e-02	3.59574060e-04
1.45500000e-01	1.94967764e-02	3.61407627e-04
1.46000000e-01	1.90463304e-02	3.53552833e-04
1.46500000e-01	1.95836685e-02	3.61094022e-04
1.47000000e-01	1.92983368e-02	3.55159192e-04
1.47500000e-01	1.91910026e-02	3.54212613e-04
1.48000000e-01	1.95041188e-02	3.59825038e-04
1.48500000e-01	1.92488203e-02	3.54166059e-04
1.49000000e-01	1.92584533e-02	3.52474592e-04
1.49500000e-01	1.91617779e-02	3.51659272e-04
1.50000000e-01	1.92966605e-02	3.52038796e-04
1.50500000e-01	1.94700370e-02	3.56975926e-04
1.51000000e-01	1.90954258e-02	3.47828987e-04
1.51500000e-01	1.93139389e-02	3.51113163e-04
1.52000000e-01	1.93207715e-02	3.48122732e-04
1.52500000e-01	1.95564521e-02	3.54009791e-04
1.53000000e-01	1.95674918e-02	3.53605697e-04
1.53500000e-01	1.95565515e-02	3.51790110e-04
1.54000000e-01	1.93602577e-02	3.47443749e-04
1.54500000e-01	1.93794564e-02	3.53809866e-04
1.55000000e-01	1.89795756e-02	3.53254254e-04
1.55500000e-01	1.94090762e-02	3.62133772e-04
1.56000000e-01	1.92861258e-02	3.62951426e-04
1.56500000e-01	1.93098530e-02	3.61414918e-04
1.57000000e-01	1.89190713e-02	3.56383884e-04
1.57500000e-01	1.91970340e-02	3.54431407e-04
1.58000000e-01	1.93555993e-02	3.50382420e-04
1.58500000e-01	1.90056128e-02	3.45135318e-04
1.59000000e-01	1.93166674e-02	3.46546417e-04
1.59500000e-01	1.91162918e-02	3.42393240e-04
1.60000000e-01	1.90856858e-02	3.43553481e-04
1.60500000e-01	1.90324667e-02	3.38401274e-04
1.61000000e-01	1.91492636e-02	3.43831273e-04
1.61500000e-01	1.93798896e-02	3.45504072e-04
1.62000000e-01	1.90351955e-02	3.37368584e-04
1.62500000e-01	1.89440681e-02	3.37238416e-04
1.63000000e-01	1.91740929e-02	3.39826541e-04
1.63500000e-01	1.91478510e-02	3.40288709e-04
1.64000000e-01	1.90787954e-02	3.35224615e-04
1.64500000e-01	1.91818447e-02	3.37104632e-04
1.65000000e-01	1.90800522e-02	3.35493252e-04
1.65500000e-01	1.89460980e-02	3.33095048e-04
1.66000000e-01	1.90532797e-02	3.35949360e-04
1.66500000e-01	1.91236262e-02	3.33841632e-04
1.67000000e-01	1.90390087e-02	3.33949787e-04
1.67500000e-01	1.90951520e-02	3.33751073e-04
1.68000000e-01	1.90268812e-02	3.31910544e-04
1.68500000e-01	1.90407650e-02	3.32452488e-04
1.69000000e-01	1.85575206e-02	3.23795619e-04
1.69500000e-01	1.89953804e-02	3.29050884e-04
1.70000000e-01	1.87008817e-02	3.24590703e-04
1.70500000e-01	1.90063627e-02	3.28653829e-04
1.71000000e-01	1.89840351e-02	3.27197981e-04
1.71500000e-01	1.90459129e-02	3.29155479e-04
1.72000000e-01	1.90888139e-02	3.28403100e-04
1.72500000e-01	1.90168254e-02	3.26561988e-04
1.73000000e-01	1.86647114e-02	3.19683242e-04
1.73500000e-01	1.88192960e-02	3.21305087e-04
1.74000000e-01	1.87535210e-02	3.20691670e-04
1.74500000e-01	1.88616890e-02	3.20687988e-04
1.75000000e-01	1.85098908e-02	3.13986466e-04
1.75500000e-01	1.89377598e-02	3.20613735e-04
1.76000000e-01	1.86805038e-02	3.17545811e-04
1.76500000e-01	1.86558957e-02	3.17118384e-04
1.77000000e-01	1.85554634e-02	3.13100777e-04
1.77500000e-01	1.89988017e-02	3.19937715e-04
1.78000000e-01	1.85594795e-02	3.12310974e-04
1.78500000e-01	1.85514732e-02	3.13280706e-04
1.79000000e-01	1.88047388e-02	3.17366285e-04
1.79500000e-01	1.88933461e-02	3.18124340e-04
1.80000000e-01	1.87946426e-02	3.17017186e-04
1.80500000e-01	1.88317396e-02	3.17679966e-04
1.81000000e-01	1.88198719e-02	3.16123908e-04
1.81500000e-01	1.88020190e-02	3.16765390e-04
1.82000000e-01	1.86639577e-02	3.12813140e-04
1.82500000e-01	1.86600758e-02	3.10472350e-04
1.83000000e-01	1.85833784e-02	3.10501236e-04
1.83500000e-01	1.86928281e-02	3.11345626e-04
1.84000000e-01	1.83277936e-02	3.05608459e-04
1.84500000e-01	1.87791985e-02	3.13356501e-04
1.85000000e-01	1.88170085e-02	3.12658582e-04
1.85500000e-01	1.85340440e-02	3.07142550e-04
1.86000000e-01	1.87885737e-02	3.11942543e-04
1.86500000e-01	1.87547088e-02	3.10565640e-04
1.87000000e-01	1.86807841e-02	3.08960165e-04
1.87500000e-01	1.85541244e-02	3.06950976e-04
1.88000000e-01	1.85317717e-02	3.04950622e-04
1.88500000e-01	1.83767238e-02	3.02853577e-04
1.89000000e-01	1.87762715e-02	3.07269039e-04
1.89500000e-01	1.84952627e-02	3.04404412e-04
1.90000000e-01	1.84460807e-02	3.01570503e-04
1.90500000e-01	1.84253969e-02	3.01891694e-04
1.91000000e-01	1.85215286e-02	3.02462006e-04
1.91500000e-01	1.83747771e-02	2.99854529e-04
1.92000000e-01	1.84749284e-02	3.01730576e-04
1.92500000e-01	1.82994071e-02	2.98720604e-04
1.93000000e-01	1.83349649e-02	2.99341590e-04
1.93500000e-01	1.85189574e-02	3.00339017e-04
1.94000000e-01	1.83738165e-02	2.98590481e-04
1.94500000e-01	1.84001302e-02	2.98069146e-04
1.95000000e-01	1.82435939e-02	2.95723072e-04
1.95500000e-01	1.85429782e-02	2.98902014e-04
1.96000000e-01	1.84514863e-02	2.97539498e-04
1.96500000e-01	1.83546442e-02	2.96863718e-04
1.97000000e-01	1.81779262e-02	2.93667077e-04
1.97500000e-01	1.81908313e-02	2.94427027e-04
1.98000000e-01	1.84676257e-02	2.96240229e-04
1.98500000e-01	1.82646656e-02	2.93278320e-04
1.99000000e-01	1.81562344e-02	2.90669829e-04
1.99500000e-01	1.82577494e-02	2.92237462e-04
2.00000000e-01	1.85062212e-02	2.96104638e-04
2.00500000e-01	1.85473512e-02	2.96436060e-04
2.01000000e-01	1.81876560e-02	2.90737318e-04
2.01500000e-01	1.83255893e-02	2.91847263e-04
2.02000000e-01	1.81789127e-02	2.89198410e-04
2.02500000e-01	1.82397131e-02	2.89655622e-04
2.03000000e-01	1.83284816e-02	2.91247298e-04
2.03500000e-01	1.83279282e-02	2.90178137e-04
2.04000000e-01	1.82826901e-02	2.89627734e-04
2.04500000e-01	1.82364349e-02	2.89476910e-04
2.05000000e-01	1.80651981e-02	2.86535580e-04
2.05500000e-01	1.83209157e-02	2.89319186e-04
2.06000000e-01	1.81990684e-02	2.86799310e-04
2.06500000e-01	1.80279615e-02	2.84236505e-04
2.07000000e-01	1.83664994e-02	2.88552406e-04
2.07500000e-01	1.80356642e-02	2.83710908e-04
2.08000000e-01	1.83394195e-02	2.89105331e-04
2.08500000e-01	1.81730635e-02	2.84011974e-04
2.09000000e-01	1.82212914e-02	2.86709658e-04
2.09500000e-01	1.81124853e-02	2.84358712e-04
2.10000000e-01	1.82175928e-02	2.85000195e-04
2.10500000e-01	1.82201577e-02	2.84046562e-04
2.11000000e-01	1.78255916e-02	2.78111880e-04
2.11500000e-01	1.78610129e-02	2.79212321e-04
2.12000000e-01	1.79628355e-02	2.79867551e-04
2.12500000e-01	1.79960318e-02	2.80700927e-04
2.13000000e-01	1.78592279e-02	2.77256685e-04
2.13500000e-01	1.82262820e-02	2.81305393e-04
2.14000000e-01	1.80869912e-02	2.79811655e-04
2.14500000e-01	1.80678996e-02	2.77992594e-04
2.15000000e-01	1.79848528e-02	2.79665262e-04
2.15500000e-01	1.81536630e-02	2.78974375e-04
2.16000000e-01	1.78740513e-02	2.76114553e-04
2.16500000e-01	1.81019842e-02	2.79263835e-04
2.17000000e-01	1.81748280e-02	2.83704714e-04
2.17500000e-01	1.80413411e-02	2.86717074e-04
2.18000000e-01	1.78649849e-02	2.84036894e-04
2.18500000e-01	1.80474733e-02	2.89447455e-04
2.19000000e-01	1.79462353e-02	2.89143983e-04
2.19500000e-01	1.79482697e-02	2.89020553e-04
2.20000000e-01	1.81082805e-02	2.94209375e-04
2.20500000e-01	1.79192047e-02	2.91104869e-04
2.21000000e-01	1.79339206e-02	2.92330011e-04
2.21500000e-01	1.78694247e-02	2.91799420e-04
2.22000000e-01	1.80450143e-02	2.95595999e-04
2.22500000e-01	1.81301143e-02	2.96283742e-04
2.23000000e-01	1.79919017e-02	2.94645564e-04
2.23500000e-01	1.78930428e-02	2.94771387e-04
2.24000000e-01	1.81139565e-02	2.99733949e-04
2.24500000e-01	1.78670516e-02	2.95737711e-04
2.25000000e-01	1.77056605e-02	2.93189139e-04
2.25500000e-01	1.77179766e-02	2.93688511e-04
2.26000000e-01	1.79201522e-02	2.99095326e-04
2.26500000e-01	1.77091617e-02	2.92408242e-04
2.27000000e-01	1.79751775e-02	2.92482259e-04
2.27500000e-01	1.79089548e-02	2.88372744e-04
2.28000000e-01	1.79187535e-02	2.87381651e-04
2.28500000e-01	1.80058784e-02	2.87297993e-04
2.29000000e-01	1.77554385e-02	2.82349389e-04
2.29500000e-01	1.79460478e-02	2.83853683e-04
2.30000000e-01	1.76175963e-02	2.79619433e-04
2.30500000e-01	1.77825874e-02	2.79461135e-04
2.31000000e-01	1.79215385e-02	2.82002509e-04
2.31500000e-01	1.78394018e-02	2.79376730e-04
2.32000000e-01	1.77082512e-02	2.76041608e-04
2.32500000e-01	1.76356192e-02	2.75317460e-04
2.33000000e-01	1.79048704e-02	2.78364251e-04
2.33500000e-01	1.77069115e-02	2.75435503e-04
2.34000000e-01	1.75490060e-02	2.72188872e-04
2.34500000e-01	1.79412580e-02	2.76621893e-04
2.35000000e-01	1.78212397e-02	2.75512078e-04
2.35500000e-01	1.80109785e-02	2.76999274e-04
2.36000000e-01	1.77927863e-02	2.73329891e-04
2.36500000e-01	1.78070564e-02	2.72885971e-04
2.37000000e-01	1.77116297e-02	2.70369904e-04
2.37500000e-01	1.75772228e-02	2.68294688e-04
2.38000000e-01	1.74342302e-02	2.66039806e-04
2.38500000e-01	1.76863329e-02	2.70230311e-04
2.39000000e-01	1.78499251e-02	2.70849926e-04
2.39500000e-01	1.78529330e-02	2.70313872e-04
2.40000000e-01	1.74885962e-02	2.65971158e-04
2.40500000e-01	1.78953302e-02	2.70054240e-04
2.41000000e-01	1.77639851e-02	2.68671775e-04
2.41500000e-01	1.79261799e-02	2.69708028e-04
2.42000000e-01	1.75494211e-02	2.65701621e-04
2.42500000e-01	1.73774153e-02	2.62357138e-04
2.43000000e-01	1.73794799e-02	2.61790561e-04
2.43500000e-01	1.76497213e-02	2.64818109e-04
2.44000000e-01	1.76492659e-02	2.63835065e-04
2.44500000e-01	1.76291445e-02	2.64242707e-04
2.45000000e-01	1.75270020e-02	2.62007055e-04
2.45500000e-01	1.75540168e-02	2.62663433e-04
2.46000000e-01	1.72511212e-02	2.57591441e-04
2.46500000e-01	1.74677264e-02	2.59466967e-04
2.47000000e-01	1.76719449e-02	2.63724892e-04
2.47500000e-01	1.73884301e-02	2.57819596e-04
2.48000000e-01	1.77057685e-02	2.62417215e-04
2.48500000e-01	1.73682588e-02	2.57283395e-04
2.49000000e-01	1.76658423e-02	2.61774667e-04
2.49500000e-01	1.78713454e-02	2.63355002e-04
2.50000000e-01	1.73558107e-02	2.56827603e-04
2.50500000e-01	1.76755321e-02	2.61657977e-04
2.51000000e-01	1.72935423e-02	2.54608871e-04
2.51500000e-01	1.74943918e-02	2.57670295e-04
2.52000000e-01	1.71489794e-02	2.53074624e-04
2.52500000e-01	1.74256573e-02	2.55841032e-04
2.53000000e-01	1.76256406e-02	2.59128673e-04
2.53500000e-01	1.75443742e-02	2.56269864e-04
2.54000000e-01	1.73914254e-02	2.55713280e-04
2.54500000e-01	1.74841944e-02	2.56022546e-04
2.55000000e-01	1.73130927e-02	2.52583011e-04
2.55500000e-01	1.72735173e-02	2.52758821e-04
2.56000000e-01	1.74677166e-02	2.53917012e-04
2.56500000e-01	1.74479705e-02	2.54093621e-04
2.57000000e-01	1.75583022e-02	2.56069287e-04
2.57500000e-01	1.71197995e-02	2.49201582e-04
2.58000000e-01	1.75253811e-02	2.54583599e-04
2.58500000e-01	1.74665372e-02	2.52836383e-04
2.59000000e-01	1.73519455e-02	2.50703874e-04
2.59500000e-01	1.72885991e-02	2.50055515e-04
2.60000000e-01	1.72951356e-02	2.50230209e-04
2.60500000e-01	1.69166739e-02	2.44975430e-04
2.61000000e-01	1.73058139e-02	2.50022728e-04
2.61500000e-01	1.72047823e-02	2.48764642e-04
2.62000000e-01	1.72950612e-02	2.48479203e-04
2.62500000e-01	1.72598109e-02	2.48543877e-04
2.63000000e-01	1.73411577e-02	2.49203876e-04
2.63500000e-01	1.74784192e-02	2.50361776e-04
2.64000000e-01	1.72685926e-02	2.47510759e-04
2.64500000e-01	1.72361726e-02	2.46514325e-04
2.65000000e-01	1.72518433e-02	2.47579261e-04
2.65500000e-01	1.72028346e-02	2.46591104e-04
2.66000000e-01	1.73451894e-02	2.48026883e-04
2.66500000e-01	1.71707316e-02	2.45123276e-04
2.67000000e-01	1.72409889e-02	2.45756067e-04
2.67500000e-01	1.72052490e-02	2.44269020e-04
2.68000000e-01	1.71673880e-02	2.44103763e-04
2.68500000e-01	1.73116683e-02	2.45432186e-04
2.69000000e-01	1.71118051e-02	2.43106679e-04
2.69500000e-01	1.71676126e-02	2.43070120e-04
2.70000000e-01	1.73569832e-02	2.44751758e-04
2.70500000e-01	1.69926032e-02	2.40027125e-04
2.71000000e-01	1.73255494e-02	2.43824552e-04
2.71500000e-01	1.71274638e-02	2.42052370e-04
2.72000000e-01	1.71275506e-02	2.41234002e-04
2.72500000e-01	1.71718158e-02	2.41650680e-04
2.73000000e-01	1.70836136e-02	2.40594427e-04
2.73500000e-01	1.72969905e-02	2.42933836e-04
2.74000000e-01	1.69388441e-02	2.38477338e-04
2.74500000e-01	1.70699855e-02	2.38752270e-04
2.75000000e-01	1.72384425e-02	2.40751675e-04
2.75500000e-01	1.71882917e-02	2.41497363e-04
2.76000000e-01	1.70927073e-02	2.39656355e-04
2.76500000e-01	1.73235843e-02	2.42499567e-04
2.77000000e-01	1.70867162e-02	2.38255189e-04
2.77500000e-01	1.72076813e-02	2.40411772e-04
2.78000000e-01	1.72026016e-02	2.39220585e-04
2.78500000e-01	1.73269591e-02	2.41473370e-04
2.79000000e-01	1.71525061e-02	2.38588805e-04
2.79500000e-01	1.71685376e-02	2.38188640e-04
2.80000000e-01	1.67311328e-02	2.33072209e-04
2.80500000e-01	1.68792309e-02	2.34555183e-04
2.81000000e-01	1.70195276e-02	2.36737446e-04
2.81500000e-01	1.69713179e-02	2.35168905e-04
2.82000000e-01	1.69619331e-02	2.35223557e-04
2.82500000e-01	1.70973611e-02	2.37321043e-04
2.83000000e-01	1.67917378e-02	2.32993050e-04
2.83500000e-01	1.70343271e-02	2.35062791e-04
2.84000000e-01	1.69349716e-02	2.33985251e-04
2.84500000e-01	1.68712933e-02	2.32969823e-04
2.85000000e-01	1.68603084e-02	2.32656582e-04
2.85500000e-01	1.69917809e-02	2.32902933e-04
2.86000000e-01	1.69371652e-02	2.33428232e-04
2.86500000e-01	1.68359220e-02	2.31732345e-04
2.87000000e-01	1.68657250e-02	2.31824459e-04
2.87500000e-01	1.68193916e-02	2.30540212e-04
2.88000000e-01	1.71327312e-02	2.33626004e-04
2.88500000e-01	1.68780616e-02	2.32045787e-04
2.89000000e-01	1.67937232e-02	2.30064182e-04
2.89500000e-01	1.68322249e-02	2.29462335e-04
2.90000000e-01	1.69117512e-02	2.30184734e-04
2.90500000e-01	1.68820943e-02	2.30941528e-04
2.91000000e-01	1.67994534e-02	2.28692517e-04
2.91500000e-01	1.68288808e-02	2.28708037e-04
2.92000000e-01	1.69563744e-02	2.29353290e-04
2.92500000e-01	1.68477584e-02	2.28138882e-04
2.93000000e-01	1.68853413e-02	2.29612322e-04
2.93500000e-01	1.68474701e-02	2.28921017e-04
2.94000000e-01	1.69184941e-02	2.29154368e-04
2.94500000e-01	1.69113443e-02	2.30108614e-04
2.95000000e-01	1.67972733e-02	2.26439533e-04
2.95500000e-01	1.67253566e-02	2.26174213e-04
2.96000000e-01	1.66317217e-02	2.24207430e-04
2.96500000e-01	1.66919346e-02	2.24868339e-04
2.97000000e-01	1.68622350e-02	2.27877640e-04
2.97500000e-01	1.69296959e-02	2.27492347e-04
2.98000000e-01	1.68730932e-02	2.26373965e-04
2.98500000e-01	1.67694896e-02	2.25892589e-04
2.99000000e-01	1.68305994e-02	2.26209241e-04
2.99500000e-01	1.68087870e-02	2.25728259e-04
3.00000000e-01	1.68403453e-02	2.26453633e-04
3.00500000e-01	1.67164977e-02	2.24162798e-04
3.01000000e-01	1.66408562e-02	2.22778229e-04
3.01500000e-01	1.66603295e-02	2.23902581e-04
3.02000000e-01	1.66760422e-02	2.22615681e-04
3.02500000e-01	1.65647208e-02	2.21635353e-04
3.03000000e-01	1.65858156e-02	2.22242057e-04
3.03500000e-01	1.65105852e-02	2.20130581e-04
3.04000000e-01	1.65927578e-02	2.22319255e-04
3.04500000e-01	1.64178780e-02	2.17667587e-04
3.05000000e-01	1.66988475e-02	2.22177736e-04
3.05500000e-01	1.65776242e-02	2.20902346e-04
3.06000000e-01	1.67298347e-02	2.21035537e-04
3.06500000e-01	1.67031764e-02	2.22370272e-04
3.07000000e-01	1.66255666e-02	2.20170062e-04
3.07500000e-01	1.67298595e-02	2.21200703e-04
3.08000000e-01	1.67236739e-02	2.21451649e-04
3.08500000e-01	1.67481093e-02	2.21296709e-04
3.09000000e-01	1.64221465e-02	2.17570495e-04
3.09500000e-01	1.62534464e-02	2.14594698e-04
3.10000000e-01	1.64735134e-02	2.18122143e-04
3.10500000e-01	1.63449834e-02	2.16219391e-04
3.11000000e-01	1.66009277e-02	2.19159638e-04
3.11500000e-01	1.64431090e-02	2.16501767e-04
3.12000000e-01	1.65911513e-02	2.18803736e-04
3.12500000e-01	1.65930919e-02	2.18005207e-04
3.13000000e-01	1.67161865e-02	2.18272020e-04
3.13500000e-01	1.65780697e-02	2.17882486e-04
3.14000000e-01	1.63972289e-02	2.15507884e-04
3.14500000e-01	1.65390799e-02	2.16732492e-04
3.15000000e-01	1.64231040e-02	2.15889630e-04
3.15500000e-01	1.65804113e-02	2.17059545e-04
3.16000000e-01	1.66392507e-02	2.17183567e-04
3.16500000e-01	1.63486838e-02	2.13022366e-04
3.17000000e-01	1.64477296e-02	2.15091858e-04
3.17500000e-01	1.64265539e-02	2.14969951e-04
3.18000000e-01	1.64528607e-02	2.14523395e-04
3.18500000e-01	1.65035866e-02	2.15027967e-04
3.19000000e-01	1.64856051e-02	2.13963534e-04
3.19500000e-01	1.64895358e-02	2.14531983e-04
3.20000000e-01	1.63492082e-02	2.12137978e-04
3.20500000e-01	1.63825053e-02	2.13759832e-04
3.21000000e-01	1.64461366e-02	2.13812363e-04
3.21500000e-01	1.62667351e-02	2.10919335e-04
3.22000000e-01	1.63309670e-02	2.11602180e-04
3.22500000e-01	1.62680417e-02	2.11335747e-04
3.23000000e-01	1.64786811e-02	2.13344684e-04
3.23500000e-01	1.63167972e-02	2.11471584e-04
3.24000000e-01	1.62391988e-02	2.09422090e-04
3.24500000e-01	1.62536572e-02	2.11640433e-04
3.25000000e-01	1.63168830e-02	2.10783549e-04
3.25500000e-01	1.64433810e-02	2.12375816e-04
3.26000000e-01	1.62333595e-02	2.09471185e-04
3.26500000e-01	1.62997016e-02	2.09255242e-04
3.27000000e-01	1.61487518e-02	2.08727061e-04
3.27500000e-01	1.61605656e-02	2.07447348e-04
3.28000000e-01	1.62178354e-02	2.08886917e-04
3.28500000e-01	1.61940223e-02	2.08016981e-04
3.29000000e-01	1.60932210e-02	2.06516510e-04
3.29500000e-01	1.62363400e-02	2.09346769e-04
3.30000000e-01	1.62832680e-02	2.08295968e-04
3.30500000e-01	1.60900502e-02	2.06410267e-04
3.31000000e-01	1.63147515e-02	2.08807604e-04
3.31500000e-01	1.60100585e-02	2.05353348e-04
3.32000000e-01	1.63330279e-02	2.08683522e-04
3.32500000e-01	1.62448162e-02	2.07620525e-04
3.33000000e-01	1.62566668e-02	2.07451272e-04
3.33500000e-01	1.61259944e-02	2.05127657e-04
3.34000000e-01	1.61476294e-02	2.05148278e-04
3.34500000e-01	1.61683637e-02	2.06246685e-04
3.35000000e-01	1.63082580e-02	2.07233447e-04
3.35500000e-01	1.61577534e-02	2.05732960e-04
3.36000000e-01	1.60646835e-02	2.04413272e-04
3.36500000e-01	1.59871668e-02	2.03261133e-04
3.37000000e-01	1.60193728e-02	2.02881313e-04
3.37500000e-01	1.60352215e-02	2.03895185e-04
3.38000000e-01	1.60679641e-02	2.04131560e-04
3.38500000e-01	1.60286214e-02	2.02367599e-04
3.39000000e-01	1.60023287e-02	2.02772495e-04
3.39500000e-01	1.61026315e-02	2.03575374e-04
3.40000000e-01	1.60669010e-02	2.03730217e-04
3.40500000e-01	1.60781177e-02	2.02448650e-04
3.41000000e-01	1.59742164e-02	2.01319188e-04
3.41500000e-01	1.60637905e-02	2.03790317e-04
3.42000000e-01	1.58714507e-02	2.00549148e-04
3.42500000e-01	1.59818683e-02	2.01518195e-04
3.43000000e-01	1.59781750e-02	2.00658727e-04
3.43500000e-01	1.59600594e-02	2.01174311e-04
3.44000000e-01	1.60167457e-02	2.01859694e-04
3.44500000e-01	1.60172250e-02	2.00862393e-04
3.45000000e-01	1.58778145e-02	1.99047089e-04
3.45500000e-01	1.59080838e-02	1.99317462e-04
3.46000000e-01	1.58615484e-02	1.99569197e-04
3.46500000e-01	1.59043313e-02	1.98985814e-04
3.47000000e-01	1.59535386e-02	1.98633534e-04
3.47500000e-01	1.60014082e-02	1.99721804e-04
3.48000000e-01	1.59392754e-02	1.99086118e-04
3.48500000e-01	1.59336221e-02	1.99135074e-04
3.49000000e-01	1.58855820e-02	1.98158106e-04
3.49500000e-01	1.59596522e-02	1.99160446e-04
3.50000000e-01	1.59026782e-02	1.61819582e-04
3.51000000e-01	1.58781207e-02	1.39675579e-04
3.52000000e-01	1.58365370e-02	1.39438298e-04
3.53000000e-01	1.58895297e-02	1.38937648e-04
3.54000000e-01	1.57946141e-02	1.38010505e-04
3.55000000e-01	1.57145424e-02	1.37737337e-04
3.56000000e-01	1.56814194e-02	1.37698693e-04
3.57000000e-01	1.57634932e-02	1.40929814e-04
3.58000000e-01	1.57319889e-02	1.41894659e-04
3.59000000e-01	1.56373524e-02	1.42151530e-04
3.60000000e-01	1.56660112e-02	1.42865043e-04
3.61000000e-01	1.57305058e-02	1.44468126e-04
3.62000000e-01	1.56166703e-02	1.44151572e-04
3.63000000e-01	1.56259805e-02	1.45218813e-04
3.64000000e-01	1.56994135e-02	1.45940064e-04
3.65000000e-01	1.55216839e-02	1.45045825e-04
3.66000000e-01	1.55517666e-02	1.43427229e-04
3.67000000e-01	1.55645741e-02	1.41573648e-04
3.68000000e-01	1.54853433e-02	1.39812990e-04
3.69000000e-01	1.55001451e-02	1.39272210e-04
3.70000000e-01	1.55007177e-02	1.38521493e-04
3.71000000e-01	1.55388035e-02	1.40798932e-04
3.72000000e-01	1.55180009e-02	1.41702102e-04
3.73000000e-01	1.54900125e-02	1.41656462e-04
3.74000000e-01	1.54259959e-02	1.41067333e-04
3.75000000e-01	1.55446954e-02	1.42022905e-04
3.76000000e-01	1.54796951e-02	1.41633750e-04
3.77000000e-01	1.53981730e-02	1.40782692e-04
3.78000000e-01	1.55526923e-02	1.42064352e-04
3.79000000e-01	1.54400374e-02	1.41624894e-04
3.80000000e-01	1.54949009e-02	1.41469520e-04
3.81000000e-01	1.54455202e-02	1.40789914e-04
3.82000000e-01	1.53681899e-02	1.40147862e-04
3.83000000e-01	1.54202219e-02	1.40219585e-04
3.84000000e-01	1.53589500e-02	1.40370929e-04
3.85000000e-01	1.52836063e-02	1.39985290e-04
3.86000000e-01	1.53593034e-02	1.40011759e-04
3.87000000e-01	1.53666604e-02	1.40143727e-04
3.88000000e-01	1.51958083e-02	1.38678193e-04
3.89000000e-01	1.52522096e-02	1.39058118e-04
3.90000000e-01	1.52996720e-02	1.39212586e-04
3.91000000e-01	1.53758032e-02	1.40338776e-04
3.92000000e-01	1.52265216e-02	1.38395240e-04
3.93000000e-01	1.52806053e-02	1.38915985e-04
3.94000000e-01	1.51665262e-02	1.38028709e-04
3.95000000e-01	1.51501718e-02	1.37325093e-04
3.96000000e-01	1.51760185e-02	1.38596213e-04
3.97000000e-01	1.52648919e-02	1.38747579e-04
3.98000000e-01	1.52277557e-02	1.38601876e-04
3.99000000e-01	1.51937562e-02	1.38775073e-04
4.00000000e-01	1.52023872e-02	1.38429045e-04
4.01000000e-01	1.50601045e-02	1.36837699e-04
4.02000000e-01	1.52171204e-02	1.38385749e-04
4.03000000e-01	1.51772845e-02	1.37966514e-04
4.04000000e-01	1.51970619e-02	1.38278195e-04
4.05000000e-01	1.50340560e-02	1.36686460e-04
4.06000000e-01	1.51995633e-02	1.38350877e-04
4.07000000e-01	1.50546069e-02	1.36826309e-04
4.08000000e-01	1.48726744e-02	1.35482551e-04
4.09000000e-01	1.51145138e-02	1.37006067e-04
4.10000000e-01	1.49544609e-02	1.35930918e-04
4.11000000e-01	1.50322149e-02	1.36533319e-04
4.12000000e-01	1.49789276e-02	1.36200796e-04
4.13000000e-01	1.49129755e-02	1.35196198e-04
4.14000000e-01	1.50275263e-02	1.36142243e-04
4.15000000e-01	1.50185962e-02	1.36016247e-04
4.16000000e-01	1.49247013e-02	1.35599061e-04
4.17000000e-01	1.48835230e-02	1.35163488e-04
4.18000000e-01	1.49910369e-02	1.37382715e-04
4.19000000e-01	1.49588233e-02	1.38717069e-04
4.20000000e-01	1.50115181e-02	1.40319932e-04
4.21000000e-01	1.49849192e-02	1.40116712e-04
4.22000000e-01	1.50676581e-02	1.41395032e-04
4.23000000e-01	1.49217639e-02	1.40178970e-04
4.24000000e-01	1.50756422e-02	1.42288640e-04
4.25000000e-01	1.48420632e-02	1.40708548e-04
4.26000000e-01	1.49805739e-02	1.41600646e-04
4.27000000e-01	1.50677063e-02	1.42117946e-04
4.28000000e-01	1.49482029e-02	1.41793735e-04
4.29000000e-01	1.50308998e-02	1.42433515e-04
4.30000000e-01	1.50013052e-02	1.42264470e-04
4.31000000e-01	1.48900124e-02	1.40790694e-04
4.32000000e-01	1.48948660e-02	1.41395824e-04
4.33000000e-01	1.50433556e-02	1.42845647e-04
4.34000000e-01	1.48729390e-02	1.41226028e-04
4.35000000e-01	1.47587510e-02	1.40573149e-04
4.36000000e-01	1.48039141e-02	1.41275506e-04
4.37000000e-01	1.48082147e-02	1.41665152e-04
4.38000000e-01	1.47941975e-02	1.41335423e-04
4.39000000e-01	1.48820293e-02	1.42458046e-04
4.40000000e-01	1.49057930e-02	1.42926361e-04
4.41000000e-01	1.48137129e-02	1.41637154e-04
4.42000000e-01	1.48388760e-02	1.42540217e-04
4.43000000e-01	1.46710584e-02	1.41293317e-04
4.44000000e-01	1.47649729e-02	1.42233829e-04
4.45000000e-01	1.48508451e-02	1.42966348e-04
4.46000000e-01	1.46867889e-02	1.41675161e-04
4.47000000e-01	1.47327891e-02	1.42508776e-04
4.48000000e-01	1.47268929e-02	1.42927197e-04
4.49000000e-01	1.46995547e-02	1.42527498e-04
4.50000000e-01	1.47568991e-02	1.43070038e-04
4.51000000e-01	1.47435967e-02	1.43258180e-04
4.52000000e-01	1.46828052e-02	1.42620657e-04
4.53000000e-01	1.47030746e-02	1.42926417e-04
4.54000000e-01	1.46517199e-02	1.42670200e-04
4.55000000e-01	1.45362109e-02	1.42118209e-04
4.56000000e-01	1.48211076e-02	1.44291156e-04
4.57000000e-01	1.46739188e-02	1.43560124e-04
4.58000000e-01	1.45237280e-02	1.41984804e-04
4.59000000e-01	1.45500946e-02	1.42253436e-04
4.60000000e-01	1.46825018e-02	1.43683645e-04
4.61000000e-01	1.45619594e-02	1.42576282e-04
4.62000000e-01	1.45923506e-02	1.42861537e-04
4.63000000e-01	1.45473098e-02	1.42689771e-04
4.64000000e-01	1.46307177e-02	1.43577391e-04
4.65000000e-01	1.45459746e-02	1.43219547e-04
4.66000000e-01	1.43256142e-02	1.41546634e-04
4.67000000e-01	1.44215457e-02	1.41955786e-04
4.68000000e-01	1.45815524e-02	1.43543826e-04
4.69000000e-01	1.44261248e-02	1.42070483e-04
4.70000000e-01	1.45022118e-02	1.43069693e-04
4.71000000e-01	1.45297664e-02	1.42774378e-04
4.72000000e-01	1.44822357e-02	1.43257968e-04
4.73000000e-01	1.44265490e-02	1.42090039e-04
4.74000000e-01	1.46109726e-02	1.43818427e-04
4.75000000e-01	1.44754328e-02	1.42306415e-04
4.76000000e-01	1.43236205e-02	1.41187225e-04
4.77000000e-01	1.43652817e-02	1.41293319e-04
4.78000000e-01	1.43218357e-02	1.41244057e-04
4.79000000e-01	1.45361166e-02	1.43530315e-04
4.80000000e-01	1.44631281e-02	1.42595715e-04
4.81000000e-01	1.43910335e-02	1.42209647e-04
4.82000000e-01	1.43186790e-02	1.41552151e-04
4.83000000e-01	1.44867012e-02	1.43169818e-04
4.84000000e-01	1.43779443e-02	1.42263707e-04
4.85000000e-01	1.43663108e-02	1.42120330e-04
4.86000000e-01	1.42990724e-02	1.41217597e-04
4.87000000e-01	1.44071192e-02	1.42475168e-04
4.88000000e-01	1.42147996e-02	1.41188253e-04
4.89000000e-01	1.42675333e-02	1.41807902e-04
4.90000000e-01	1.43969367e-02	1.42737149e-04
4.91000000e-01	1.44138158e-02	1.43085639e-04
4.92000000e-01	1.41785043e-02	1.41165816e-04
4.93000000e-01	1.43544584e-02	1.42410222e-04
4.94000000e-01	1.43212949e-02	1.42386016e-04
4.95000000e-01	1.43633593e-02	1.43526483e-04
4.96000000e-01	1.43723781e-02	1.47732524e-04
4.97000000e-01	1.42366067e-02	1.49542881e-04
4.98000000e-01	1.42937445e-02	1.52248843e-04
4.99000000e-01	1.40742407e-02	1.52058180e-04
5.00000000e-01	1.42570978e-02	1.55003672e-04
5.01000000e-01	1.44387954e-02	1.58707584e-04
5.02000000e-01	1.43894142e-02	1.59916042e-04
5.03000000e-01	1.43671630e-02	1.60635917e-04
5.04000000e-01	1.42235259e-02	1.61236472e-04
5.05000000e-01	1.43761335e-02	1.59928741e-04
5.06000000e-01	1.41168494e-02	1.54006836e-04
5.07000000e-01	1.44514331e-02	1.55261645e-04
5.08000000e-01	1.42404650e-02	1.52683678e-04
5.09000000e-01	1.42349998e-02	1.51729040e-04
5.10000000e-01	1.43088806e-02	1.51727383e-04
5.11000000e-01	1.41850967e-02	1.50789967e-04
5.12000000e-01	1.43350119e-02	1.51417984e-04
5.13000000e-01	1.42812319e-02	1.50835241e-04
5.14000000e-01	1.41608496e-02	1.49144612e-04
5.15000000e-01	1.41184406e-02	1.48452332e-04
5.16000000e-01	1.41809482e-02	1.48235258e-04
5.17000000e-01	1.40352189e-02	1.46879376e-04
5.18000000e-01	1.40661817e-02	1.46919184e-04
5.19000000e-01	1.42637675e-02	1.48136601e-04
5.20000000e-01	1.42255044e-02	1.47147872e-04
5.21000000e-01	1.40167747e-02	1.45522802e-04
5.22000000e-01	1.40304843e-02	1.45515646e-04
5.23000000e-01	1.40500603e-02	1.46064297e-04
5.24000000e-01	1.39481920e-02	1.45193482e-04
5.25000000e-01	1.39486678e-02	1.45169360e-04
5.26000000e-01	1.39656206e-02	1.44755883e-04
5.27000000e-01	1.40149064e-02	1.45348809e-04
5.28000000e-01	1.38831946e-02	1.43944659e-04
5.29000000e-01	1.39196228e-02	1.44670295e-04
5.30000000e-01	1.40346852e-02	1.45498224e-04
5.31000000e-01	1.39864495e-02	1.45196200e-04
5.32000000e-01	1.39162887e-02	1.44426259e-04
5.33000000e-01	1.39372765e-02	1.44346607e-04
5.34000000e-01	1.38549822e-02	1.44006502e-04
5.35000000e-01	1.39871863e-02	1.45152609e-04
5.36000000e-01	1.38594622e-02	1.44112592e-04
5.37000000e-01	1.39557441e-02	1.44812795e-04
5.38000000e-01	1.40146705e-02	1.45181604e-04
5.39000000e-01	1.38057648e-02	1.43297648e-04
5.40000000e-01	1.39956338e-02	1.45028236e-04
5.41000000e-01	1.40288338e-02	1.45198062e-04
5.42000000e-01	1.38988152e-02	1.44130702e-04
5.43000000e-01	1.38105002e-02	1.43423634e-04
5.44000000e-01	1.38452079e-02	1.43870433e-04
5.45000000e-01	1.38324369e-02	1.43640525e-04
5.46000000e-01	1.38107903e-02	1.43807075e-04
5.47000000e-01	1.37844976e-02	1.43324739e-04
5.48000000e-01	1.38057251e-02	1.43608711e-04
5.49000000e-01	1.38485392e-02	1.43737706e-04
5.50000000e-01	1.37274990e-02	1.42924535e-04
5.51000000e-01	1.38152872e-02	1.43032939e-04
5.52000000e-01	1.38842380e-02	1.43360071e-04
5.53000000e-01	1.37391655e-02	1.42291906e-04
5.54000000e-01	1.37438501e-02	1.42178029e-04
5.55000000e-01	1.37179875e-02	1.41053707e-04
5.56000000e-01	1.35813525e-02	1.40735950e-04
5.57000000e-01	1.35853435e-02	1.40567799e-04
5.58000000e-01	1.35343640e-02	1.39935088e-04
5.59000000e-01	1.36603468e-02	1.40662494e-04
5.60000000e-01	1.35692315e-02	1.40959519e-04
5.61000000e-01	1.36069318e-02	1.40840298e-04
5.62000000e-01	1.36423343e-02	1.40999739e-04
5.63000000e-01	1.37014086e-02	1.41496115e-04
5.64000000e-01	1.37081046e-02	1.41278439e-04
5.65000000e-01	1.36006809e-02	1.40728017e-04
5.66000000e-01	1.36187114e-02	1.40728931e-04
5.67000000e-01	1.35395743e-02	1.39885773e-04
5.68000000e-01	1.37045302e-02	1.41782512e-04
5.69000000e-01	1.37001546e-02	1.41055894e-04
5.70000000e-01	1.36391287e-02	1.40690930e-04
5.71000000e-01	1.36211209e-02	1.40912514e-04
5.72000000e-01	1.34009007e-02	1.38622325e-04
5.73000000e-01	1.34086013e-02	1.39141923e-04
5.74000000e-01	1.34935011e-02	1.39239313e-04
5.75000000e-01	1.35502842e-02	1.39585755e-04
5.76000000e-01	1.34946518e-02	1.39333236e-04
5.77000000e-01	1.35492451e-02	1.40286568e-04
5.78000000e-01	1.34317470e-02	1.39248345e-04
5.79000000e-01	1.33862934e-02	1.38539674e-04
5.80000000e-01	1.33493575e-02	1.38667452e-04
5.81000000e-01	1.32355159e-02	1.37361527e-04
5.82000000e-01	1.33561328e-02	1.38830200e-04
5.83000000e-01	1.33686803e-02	1.39000800e-04
5.84000000e-01	1.35015567e-02	1.39980018e-04
5.85000000e-01	1.33637920e-02	1.38494552e-04
5.86000000e-01	1.33095396e-02	1.37979893e-04
5.87000000e-01	1.32954246e-02	1.38109557e-04
5.88000000e-01	1.34009935e-02	1.39711482e-04
5.89000000e-01	1.32219516e-02	1.37028855e-04
5.90000000e-01	1.34410608e-02	1.39484619e-04
5.91000000e-01	1.33311992e-02	1.38629961e-04
5.92000000e-01	1.32579719e-02	1.37489961e-04
5.93000000e-01	1.32475426e-02	1.37642774e-04
5.94000000e-01	1.32610539e-02	1.37862320e-04
5.95000000e-01	1.33940963e-02	1.39170973e-04
5.96000000e-01	1.33918361e-02	1.39097727e-04
5.97000000e-01	1.32484479e-02	1.37760187e-04
5.98000000e-01	1.33459778e-02	1.38663905e-04
5.99000000e-01	1.32358004e-02	1.37487409e-04
6.00000000e-01	1.32068048e-02	1.38126755e-04
6.01000000e-01	1.31845953e-02	1.37106466e-04
6.02000000e-01	1.32575750e-02	1.38119879e-04
6.03000000e-01	1.32138909e-02	1.37665434e-04
6.04000000e-01	1.33141164e-02	1.38588347e-04
6.05000000e-01	1.32138957e-02	1.37747039e-04
6.06000000e-01	1.32033212e-02	1.38021691e-04
6.07000000e-01	1.31283783e-02	1.36906585e-04
6.08000000e-01	1.32898588e-02	1.38316937e-04
6.09000000e-01	1.30789447e-02	1.36693416e-04
6.10000000e-01	1.31053194e-02	1.36582640e-04
6.11000000e-01	1.31592650e-02	1.37650889e-04
6.12000000e-01	1.31723964e-02	1.36959065e-04
6.13000000e-01	1.32595701e-02	1.38475070e-04
6.14000000e-01	1.30818123e-02	1.36591092e-04
6.15000000e-01	1.31398058e-02	1.36785568e-04
6.16000000e-01	1.31486286e-02	1.37218754e-04
6.17000000e-01	1.29398012e-02	1.35310948e-04
6.18000000e-01	1.31612542e-02	1.37949175e-04
6.19000000e-01	1.31727023e-02	1.37096711e-04
6.20000000e-01	1.31261196e-02	1.36909219e-04
6.21000000e-01	1.31938572e-02	1.37030793e-04
6.22000000e-01	1.30303463e-02	1.35212975e-04
6.23000000e-01	1.31638947e-02	1.36162398e-04
6.24000000e-01	1.31342544e-02	1.36385451e-04
6.25000000e-01	1.30619115e-02	1.35201264e-04
6.26000000e-01	1.30306081e-02	1.34583639e-04
6.27000000e-01	1.29402104e-02	1.34674955e-04
6.28000000e-01	1.31355303e-02	1.35556050e-04
6.29000000e-01	1.29381614e-02	1.34026991e-04
6.30000000e-01	1.29889292e-02	1.34811273e-04
6.31000000e-01	1.30449005e-02	1.35289963e-04
6.32000000e-01	1.29923787e-02	1.34526673e-04
6.33000000e-01	1.29638301e-02	1.34354581e-04
6.34000000e-01	1.28513377e-02	1.36479918e-04
6.35000000e-01	1.29574186e-02	1.41548548e-04
6.36000000e-01	1.30235565e-02	1.44983000e-04
6.37000000e-01	1.30347779e-02	1.47972431e-04
6.38000000e-01	1.30432033e-02	1.49720373e-04
6.39000000e-01	1.30568086e-02	1.51465721e-04
6.40000000e-01	1.29435603e-02	1.52418250e-04
6.41000000e-01	1.30397413e-02	1.54740335e-04
6.42000000e-01	1.29013004e-02	1.54925394e-04
6.43000000e-01	1.28942983e-02	1.55125490e-04
6.44000000e-01	1.29352791e-02	1.49909341e-04
6.45000000e-01	1.31004442e-02	1.49492435e-04
6.46000000e-01	1.30845613e-02	1.47674585e-04
6.47000000e-01	1.30452189e-02	1.46396945e-04
6.48000000e-01	1.29899492e-02	1.44488498e-04
6.49000000e-01	1.30790923e-02	1.44903139e-04
6.50000000e-01	1.29300721e-02	1.42529047e-04
6.51000000e-01	1.29990271e-02	1.42769593e-04
6.52000000e-01	1.30458401e-02	1.43218220e-04
6.53000000e-01	1.29368718e-02	1.41464127e-04
6.54000000e-01	1.30456508e-02	1.41704724e-04
6.55000000e-01	1.29239739e-02	1.40387430e-04
6.56000000e-01	1.27805883e-02	1.38885673e-04
6.57000000e-01	1.30118126e-02	1.40882987e-04
6.58000000e-01	1.30687294e-02	1.41101188e-04
6.59000000e-01	1.29142164e-02	1.39714007e-04
6.60000000e-01	1.29754044e-02	1.40493032e-04
6.61000000e-01	1.28330784e-02	1.38258807e-04
6.62000000e-01	1.30453713e-02	1.40730850e-04
6.63000000e-01	1.29319126e-02	1.40132994e-04
6.64000000e-01	1.29802448e-02	1.39184226e-04
6.65000000e-01	1.29451886e-02	1.39164450e-04
6.66000000e-01	1.29090773e-02	1.38844045e-04
6.67000000e-01	1.28783684e-02	1.38861562e-04
6.68000000e-01	1.28141905e-02	1.37981678e-04
6.69000000e-01	1.28605042e-02	1.38278096e-04
6.70000000e-01	1.29253218e-02	1.39114149e-04
6.71000000e-01	1.27710366e-02	1.36893526e-04
6.72000000e-01	1.29330118e-02	1.38809653e-04
6.73000000e-01	1.27515390e-02	1.36697113e-04
6.74000000e-01	1.27403554e-02	1.37191041e-04
6.75000000e-01	1.27808863e-02	1.37326278e-04
6.76000000e-01	1.26132477e-02	1.35852064e-04
6.77000000e-01	1.27336794e-02	1.36727317e-04
6.78000000e-01	1.28497299e-02	1.37802929e-04
6.79000000e-01	1.26553744e-02	1.36122595e-04
6.80000000e-01	1.27301190e-02	1.36753804e-04
6.81000000e-01	1.26927425e-02	1.35797427e-04
6.82000000e-01	1.26641948e-02	1.35783468e-04
6.83000000e-01	1.28820166e-02	1.37976896e-04
6.84000000e-01	1.27559108e-02	1.36884838e-04
6.85000000e-01	1.28381815e-02	1.37296944e-04
6.86000000e-01	1.27386833e-02	1.35870595e-04
6.87000000e-01	1.27251769e-02	1.36437659e-04
6.88000000e-01	1.25950830e-02	1.35530573e-04
6.89000000e-01	1.28639034e-02	1.37556144e-04
6.90000000e-01	1.25822166e-02	1.34990386e-04
6.91000000e-01	1.26222517e-02	1.35094813e-04
6.92000000e-01	1.25057299e-02	1.34368795e-04
6.93000000e-01	1.26466758e-02	1.35340006e-04
6.94000000e-01	1.27233035e-02	1.35423008e-04
6.95000000e-01	1.27158801e-02	1.36038031e-04
6.96000000e-01	1.24919749e-02	1.34043310e-04
6.97000000e-01	1.27908850e-02	1.36271134e-04
6.98000000e-01	1.25963749e-02	1.34562952e-04
6.99000000e-01	1.26581033e-02	1.35300364e-04
7.00000000e-01	1.25052053e-02	1.34213067e-04
7.01000000e-01	1.25087621e-02	1.33855935e-04
7.02000000e-01	1.25283342e-02	1.34472168e-04
7.03000000e-01	1.25347952e-02	1.34203227e-04
7.04000000e-01	1.25759070e-02	1.34740202e-04
7.05000000e-01	1.25191363e-02	1.34036846e-04
7.06000000e-01	1.25169697e-02	1.33958255e-04
7.07000000e-01	1.24123195e-02	1.32923164e-04
7.08000000e-01	1.25073016e-02	1.33269176e-04
7.09000000e-01	1.24043448e-02	1.32906362e-04
7.10000000e-01	1.25398654e-02	1.34301846e-04
7.11000000e-01	1.23598820e-02	1.32257542e-04
7.12000000e-01	1.24915637e-02	1.33443652e-04
7.13000000e-01	1.23243952e-02	1.32286052e-04
7.14000000e-01	1.25440069e-02	1.34035838e-04
7.15000000e-01	1.25618196e-02	1.33950466e-04
7.16000000e-01	1.24725769e-02	1.33372022e-04
7.17000000e-01	1.23016704e-02	1.31717910e-04
7.18000000e-01	1.23148917e-02	1.31950097e-04
7.19000000e-01	1.24576030e-02	1.33220672e-04
7.20000000e-01	1.22321266e-02	1.31354385e-04
7.21000000e-01	1.22072299e-02	1.30877923e-04
7.22000000e-01	1.22438931e-02	1.31594042e-04
7.23000000e-01	1.22132250e-02	1.31342226e-04
7.24000000e-01	1.22617469e-02	1.31300944e-04
7.25000000e-01	1.22863519e-02	1.31584746e-04
7.26000000e-01	1.23281357e-02	1.32469903e-04
7.27000000e-01	1.22565952e-02	1.31122048e-04
7.28000000e-01	1.22513922e-02	1.31232193e-04
7.29000000e-01	1.22187676e-02	1.31250844e-04
7.30000000e-01	1.22941506e-02	1.31567272e-04
7.31000000e-01	1.21421565e-02	1.30211397e-04
7.32000000e-01	1.21093907e-02	1.30194413e-04
7.33000000e-01	1.22650935e-02	1.31560036e-04
7.34000000e-01	1.22127279e-02	1.30407595e-04
7.35000000e-01	1.21205364e-02	1.29764178e-04
7.36000000e-01	1.21627994e-02	1.30337471e-04
7.37000000e-01	1.22175566e-02	1.30399598e-04
7.38000000e-01	1.20805163e-02	1.28984825e-04
7.39000000e-01	1.21988952e-02	1.29600545e-04
7.40000000e-01	1.20634773e-02	1.28075693e-04
7.41000000e-01	1.21310929e-02	1.28735386e-04
7.42000000e-01	1.22137833e-02	1.29336203e-04
7.43000000e-01	1.22001605e-02	1.28924066e-04
7.44000000e-01	1.20705082e-02	1.28196252e-04
7.45000000e-01	1.19443327e-02	1.27081950e-04
7.46000000e-01	1.21972220e-02	1.29214154e-04
7.47000000e-01	1.21184463e-02	1.28732994e-04
7.48000000e-01	1.20112658e-02	1.27653201e-04
7.49000000e-01	1.19461386e-02	1.27031470e-04
7.50000000e-01	1.19988421e-02	1.28226975e-04
7.51000000e-01	1.21622952e-02	1.29053371e-04
7.52000000e-01	1.20499513e-02	1.28086193e-04
7.53000000e-01	1.19727081e-02	1.27134586e-04
7.54000000e-01	1.20875094e-02	1.28406034e-04
7.55000000e-01	1.19812111e-02	1.27603142e-04
7.56000000e-01	1.22197075e-02	1.29206765e-04
7.57000000e-01	1.19424391e-02	1.26966318e-04
7.58000000e-01	1.19569059e-02	1.27665013e-04
7.59000000e-01	1.19777261e-02	1.27005560e-04
7.60000000e-01	1.20199751e-02	1.27824023e-04
7.61000000e-01	1.19648272e-02	1.26784432e-04
7.62000000e-01	1.18732969e-02	1.25294229e-04
7.63000000e-01	1.19867653e-02	1.26668636e-04
7.64000000e-01	1.18599252e-02	1.25035268e-04
7.65000000e-01	1.18549027e-02	1.24990551e-04
7.66000000e-01	1.19692453e-02	1.25582595e-04
7.67000000e-01	1.17933849e-02	1.24263606e-04
7.68000000e-01	1.17876218e-02	1.23951051e-04
7.69000000e-01	1.19016362e-02	1.25445336e-04
7.70000000e-01	1.18895306e-02	1.25409728e-04
7.71000000e-01	1.19173628e-02	1.25256097e-04
7.72000000e-01	1.18789201e-02	1.28963074e-04
7.73000000e-01	1.19545074e-02	1.34178654e-04
7.74000000e-01	1.17365717e-02	1.34782571e-04
7.75000000e-01	1.17312901e-02	1.36496538e-04
7.76000000e-01	1.18851546e-02	1.40900962e-04
7.77000000e-01	1.17568323e-02	1.40799442e-04
7.78000000e-01	1.18165849e-02	1.43401790e-04
7.79000000e-01	1.16140532e-02	1.43178545e-04
7.80000000e-01	1.16928221e-02	1.45888615e-04
7.81000000e-01	1.16834454e-02	1.47393246e-04
7.82000000e-01	1.17049075e-02	1.48714313e-04
7.83000000e-01	1.18172934e-02	1.52239505e-04
7.84000000e-01	1.15205005e-02	1.50105821e-04
7.85000000e-01	1.17852686e-02	1.54047461e-04
7.86000000e-01	1.15346785e-02	1.54468329e-04
7.87000000e-01	1.15868620e-02	1.55568387e-04
7.88000000e-01	1.16472869e-02	1.58340484e-04
7.89000000e-01	1.17467565e-02	1.60166709e-04
7.90000000e-01	1.16746644e-02	1.60567084e-04
7.91000000e-01	1.15816830e-02	1.62135330e-04
7.92000000e-01	1.15569892e-02	1.62655535e-04
7.93000000e-01	1.15025224e-02	1.64097910e-04
7.94000000e-01	1.13796713e-02	1.63928625e-04
7.95000000e-01	1.15336849e-02	1.67633489e-04
7.96000000e-01	1.15247060e-02	1.69300431e-04
7.97000000e-01	1.15802870e-02	1.72120987e-04
7.98000000e-01	1.15067067e-02	1.72693382e-04
7.99000000e-01	1.15039407e-02	1.75829251e-04
8.00000000e-01	1.13471947e-02	1.75280016e-04
8.01000000e-01	1.14025698e-02	1.77168207e-04
8.02000000e-01	1.14024621e-02	1.77111088e-04
8.03000000e-01	1.14118616e-02	1.80631461e-04
8.04000000e-01	1.12437993e-02	1.80544775e-04
8.05000000e-01	1.16155493e-02	1.87547731e-04
8.06000000e-01	1.14662744e-02	1.87491358e-04
8.07000000e-01	1.15213368e-02	1.90814251e-04
8.08000000e-01	1.14484195e-02	1.90091074e-04
8.09000000e-01	1.12837743e-02	1.91403753e-04
8.10000000e-01	1.14741275e-02	1.96173203e-04
8.11000000e-01	1.15653061e-02	1.99052019e-04
8.12000000e-01	1.13772600e-02	1.99024355e-04
8.13000000e-01	1.12558436e-02	1.98524845e-04
8.14000000e-01	1.14974598e-02	2.05010408e-04
8.15000000e-01	1.11888776e-02	2.02839581e-04
8.16000000e-01	1.13617080e-02	2.07655607e-04
8.17000000e-01	1.13327144e-02	2.10278323e-04
8.18000000e-01	1.12727535e-02	2.12493531e-04
8.19000000e-01	1.14165063e-02	2.16347056e-04
8.20000000e-01	1.13164154e-02	2.18334579e-04
8.21000000e-01	1.12911395e-02	2.19270357e-04
8.22000000e-01	1.12257223e-02	2.22453030e-04
8.23000000e-01	1.12059670e-02	2.23824086e-04
8.24000000e-01	1.12229068e-02	2.28523993e-04
8.25000000e-01	1.10245906e-02	2.27586905e-04
8.26000000e-01	1.13763321e-02	2.35309042e-04
8.27000000e-01	1.12493629e-02	2.39256352e-04
8.28000000e-01	1.09307602e-02	2.35967133e-04
8.29000000e-01	1.10931457e-02	2.42175984e-04
8.30000000e-01	1.09868771e-02	2.43898796e-04
8.31000000e-01	1.12211723e-02	2.53804296e-04
8.32000000e-01	1.11116914e-02	2.53763232e-04
8.33000000e-01	1.10343837e-02	2.58686868e-04
8.34000000e-01	1.11352853e-02	2.65182177e-04
8.35000000e-01	1.10514974e-02	2.68039719e-04
8.36000000e-01	1.10335565e-02	2.71163584e-04
8.37000000e-01	1.10389982e-02	2.77412789e-04
8.38000000e-01	1.09776112e-02	2.80925662e-04
8.39000000e-01	1.10484923e-02	2.89316851e-04
8.40000000e-01	1.08435628e-02	2.88231883e-04
8.41000000e-01	1.06923910e-02	2.91347185e-04
8.42000000e-01	1.06959783e-02	2.98050551e-04
8.43000000e-01	1.07113523e-02	3.08782877e-04
8.44000000e-01	1.09525307e-02	3.20131391e-04
8.45000000e-01	1.09478803e-02	3.28016928e-04
8.46000000e-01	1.11840718e-02	3.42120409e-04
8.47000000e-01	1.08927981e-02	3.47030109e-04
8.48000000e-01	1.07794243e-02	3.51390204e-04
8.49000000e-01	1.08709314e-02	3.71787957e-04
8.50000000e-01	1.05121889e-02	3.69671012e-04
8.51000000e-01	1.06452735e-02	3.89168859e-04
8.52000000e-01	1.01531927e-02	3.84917718e-04
8.53000000e-01	1.05875432e-02	4.23652514e-04
8.54000000e-01	1.03651703e-02	4.27567280e-04
8.55000000e-01	1.09807275e-02	4.69101451e-04
8.56000000e-01	1.12070649e-02	4.81986742e-04
8.57000000e-01	1.06598653e-02	4.85429824e-04
8.58000000e-01	1.05815662e-02	4.93544712e-04
8.59000000e-01	1.09405567e-02	5.18234637e-04
8.60000000e-01	1.06706375e-02	5.27485769e-04
8.61000000e-01	1.04644034e-02	5.42840349e-04
8.62000000e-01	1.06365431e-02	5.70819333e-04
8.63000000e-01	1.08370352e-02	5.93568959e-04
8.64000000e-01	1.06958704e-02	6.16840010e-04
8.65000000e-01	1.02031435e-02	6.06414478e-04
8.66000000e-01	1.03494300e-02	6.56571713e-04
8.67000000e-01	1.01762103e-02	6.84025665e-04
8.68000000e-01	1.07081183e-02	7.51375458e-04
8.69000000e-01	1.01590613e-02	7.76132819e-04
8.70000000e-01	1.01298643e-02	8.29335504e-04
8.71000000e-01	1.11731549e-02	1.03831408e-03
8.72000000e-01	9.98568950e-03	1.07857003e-03
8.73000000e-01	1.05830435e-02	1.28473190e-03
8.74000000e-01	9.89764047e-03	1.57710164e-03
8.75000000e-01	8.82011993e-03	3.11839201e-03
