% Filename : SDL7_00012_00206.h5
% Date & Time : 30-Oct-2025 14:58:31
% X-ray Energy (keV) : 13.30001
% Exposure Time (s) : 0.500
% Beam Center : 1461.24000, 208.98300
% Sample to Detector Distance (SDD) (mm) : 1990.750
% Detector Pixel Size (mm) : 0.075
% Photodiode Value : 136621.000
% I0 of Sample : 0
% I0 of Standard : 1
% 
% q(A^-1)   I(q)    I(q)_SE
0.00000000e+00	1.32239673e-02	6.99746813e-03
2.50000000e-04	0.00000000e+00	0.00000000e+00
5.00000000e-04	0.00000000e+00	0.00000000e+00
7.50000000e-04	0.00000000e+00	0.00000000e+00
1.00000000e-03	0.00000000e+00	0.00000000e+00
1.25000000e-03	0.00000000e+00	0.00000000e+00
1.50000000e-03	0.00000000e+00	0.00000000e+00
1.75000000e-03	0.00000000e+00	0.00000000e+00
2.00000000e-03	0.00000000e+00	0.00000000e+00
2.25000000e-03	0.00000000e+00	0.00000000e+00
2.50000000e-03	0.00000000e+00	0.00000000e+00
2.75000000e-03	0.00000000e+00	0.00000000e+00
3.00000000e-03	0.00000000e+00	0.00000000e+00
3.25000000e-03	2.77788157e+00	1.62085716e+00
3.50000000e-03	1.82275044e+00	4.50215640e-01
3.75000000e-03	1.38220821e+00	2.70934865e-01
4.00000000e-03	1.13670839e+00	2.01157381e-01
4.25000000e-03	8.48007292e-01	1.20635245e-01
4.50000000e-03	9.92994376e-01	1.64232808e-01
4.75000000e-03	9.93436830e-01	1.58161056e-01
5.00000000e-03	7.95859681e-01	1.19057758e-01
5.25000000e-03	6.73075517e-01	9.69374712e-02
5.50000000e-03	5.56608055e-01	7.59793804e-02
5.75000000e-03	4.86792266e-01	6.50835404e-02
6.00000000e-03	4.11171553e-01	5.15457830e-02
6.25000000e-03	3.56057967e-01	4.36152126e-02
6.50000000e-03	3.04982108e-01	3.66437499e-02
6.75000000e-03	2.59321628e-01	3.05443083e-02
7.00000000e-03	2.33235453e-01	2.61041676e-02
7.25000000e-03	2.06596947e-01	2.23806983e-02
7.50000000e-03	1.80557477e-01	1.92233590e-02
7.75000000e-03	1.63263497e-01	1.72514185e-02
8.00000000e-03	1.53286407e-01	1.56606239e-02
8.25000000e-03	1.34798179e-01	1.34651570e-02
8.50000000e-03	1.25183412e-01	1.18796071e-02
8.75000000e-03	1.10623606e-01	1.05652008e-02
9.00000000e-03	1.00999262e-01	9.32781028e-03
9.25000000e-03	8.96821814e-02	8.21680465e-03
9.50000000e-03	8.52319697e-02	7.47917268e-03
9.75000000e-03	8.12223189e-02	7.02907020e-03
1.00000000e-02	7.42876795e-02	6.26554165e-03
1.02500000e-02	6.90117763e-02	5.77703894e-03
1.05000000e-02	6.25203660e-02	5.05113210e-03
1.07500000e-02	6.09537668e-02	4.92580459e-03
1.10000000e-02	5.63020553e-02	4.31920779e-03
1.12500000e-02	5.28748109e-02	4.07686075e-03
1.15000000e-02	4.98907728e-02	3.78555212e-03
1.17500000e-02	4.97049133e-02	3.53794199e-03
1.20000000e-02	4.60893276e-02	3.34160603e-03
1.22500000e-02	4.59373710e-02	3.22819052e-03
1.25000000e-02	4.32125916e-02	3.05417698e-03
1.27500000e-02	4.18604845e-02	2.82370071e-03
1.30000000e-02	3.95716134e-02	2.68889021e-03
1.32500000e-02	3.95645316e-02	2.62770277e-03
1.35000000e-02	3.63151730e-02	2.34748445e-03
1.37500000e-02	3.49381832e-02	2.26348265e-03
1.40000000e-02	3.51642240e-02	2.28352891e-03
1.42500000e-02	3.46811540e-02	2.15669532e-03
1.45000000e-02	3.22080413e-02	1.99733030e-03
1.47500000e-02	3.25334366e-02	1.99275540e-03
1.50000000e-02	3.17109941e-02	1.96171052e-03
1.52500000e-02	3.07504306e-02	1.86474452e-03
1.55000000e-02	2.97100347e-02	1.75011313e-03
1.57500000e-02	2.85486887e-02	1.67569018e-03
1.60000000e-02	2.89067042e-02	1.69746703e-03
1.62500000e-02	2.78562617e-02	1.62208371e-03
1.65000000e-02	2.79259106e-02	1.59476417e-03
1.67500000e-02	2.77927098e-02	1.56610516e-03
1.70000000e-02	2.74431035e-02	1.54983987e-03
1.72500000e-02	2.66122247e-02	1.48151479e-03
1.75000000e-02	2.60808314e-02	1.45952458e-03
1.77500000e-02	2.56740144e-02	1.40597022e-03
1.80000000e-02	2.51497740e-02	1.38076795e-03
1.82500000e-02	2.57850659e-02	1.38013149e-03
1.85000000e-02	2.50288769e-02	1.37099550e-03
1.87500000e-02	2.46022796e-02	1.30215693e-03
1.90000000e-02	2.52342263e-02	1.35851613e-03
1.92500000e-02	2.45923950e-02	1.27581162e-03
1.95000000e-02	2.41186451e-02	1.25030215e-03
1.97500000e-02	2.47377720e-02	1.28509934e-03
2.00000000e-02	2.38110359e-02	1.22773010e-03
2.02500000e-02	2.50923964e-02	1.28880809e-03
2.05000000e-02	2.46567104e-02	1.22570555e-03
2.07500000e-02	2.36653880e-02	1.20289972e-03
2.10000000e-02	2.37202051e-02	1.20379475e-03
2.12500000e-02	2.25768243e-02	1.17114820e-03
2.15000000e-02	2.34025619e-02	1.18695730e-03
2.17500000e-02	2.24476454e-02	1.13434663e-03
2.20000000e-02	2.32610739e-02	1.18555193e-03
2.22500000e-02	2.31959394e-02	1.17579971e-03
2.25000000e-02	2.27851502e-02	1.17605129e-03
2.27500000e-02	2.24851387e-02	1.13648905e-03
2.30000000e-02	2.31305505e-02	1.18515426e-03
2.32500000e-02	2.39951926e-02	1.20651782e-03
2.35000000e-02	2.28570966e-02	1.17990191e-03
2.37500000e-02	2.39373186e-02	1.19754278e-03
2.40000000e-02	2.27842135e-02	1.14273303e-03
2.42500000e-02	2.29024561e-02	1.14981399e-03
2.45000000e-02	2.24439489e-02	1.13107004e-03
2.47500000e-02	2.27918977e-02	1.13190940e-03
2.50000000e-02	2.28534872e-02	1.14176283e-03
2.52500000e-02	2.19041241e-02	1.10546395e-03
2.55000000e-02	2.24532346e-02	1.12011910e-03
2.57500000e-02	2.18423158e-02	1.08784041e-03
2.60000000e-02	2.24496330e-02	1.10186078e-03
2.62500000e-02	2.21648927e-02	1.09910710e-03
2.65000000e-02	2.19175730e-02	1.08963118e-03
2.67500000e-02	2.23473393e-02	1.09638564e-03
2.70000000e-02	2.21252085e-02	1.08426269e-03
2.72500000e-02	2.22243341e-02	1.09061182e-03
2.75000000e-02	2.23266580e-02	1.10615958e-03
2.77500000e-02	2.19150485e-02	1.08766746e-03
2.80000000e-02	2.26284475e-02	1.09405337e-03
2.82500000e-02	2.19741247e-02	1.07511738e-03
2.85000000e-02	2.32958418e-02	1.13369053e-03
2.87500000e-02	2.29525736e-02	1.12726812e-03
2.90000000e-02	2.19550797e-02	1.07105259e-03
2.92500000e-02	2.33995289e-02	1.11831533e-03
2.95000000e-02	2.24653299e-02	1.09089010e-03
2.97500000e-02	2.19825293e-02	1.06261463e-03
3.00000000e-02	2.28858906e-02	1.09871636e-03
3.02500000e-02	2.29646596e-02	1.10827965e-03
3.05000000e-02	2.29524016e-02	1.07795683e-03
3.07500000e-02	2.20720829e-02	1.05895546e-03
3.10000000e-02	2.29752067e-02	1.07964972e-03
3.12500000e-02	2.25853057e-02	1.09215795e-03
3.15000000e-02	2.18308914e-02	1.03441338e-03
3.17500000e-02	2.23324493e-02	1.05136531e-03
3.20000000e-02	2.29692825e-02	1.09445344e-03
3.22500000e-02	2.22639496e-02	1.05382779e-03
3.25000000e-02	2.18315662e-02	1.04369199e-03
3.27500000e-02	2.18586159e-02	1.01906927e-03
3.30000000e-02	2.22036108e-02	1.03275635e-03
3.32500000e-02	2.19447251e-02	1.02901523e-03
3.35000000e-02	2.13548194e-02	1.02106050e-03
3.37500000e-02	2.17656815e-02	1.00033807e-03
3.40000000e-02	2.13192231e-02	9.89069559e-04
3.42500000e-02	2.23213648e-02	1.02669344e-03
3.45000000e-02	2.17885512e-02	1.01252768e-03
3.47500000e-02	2.12986387e-02	9.79054546e-04
3.50000000e-02	2.16460602e-02	9.94535792e-04
3.52500000e-02	2.06814760e-02	9.57530987e-04
3.55000000e-02	2.14116210e-02	9.60784233e-04
3.57500000e-02	2.18154573e-02	9.97231299e-04
3.60000000e-02	2.16151484e-02	9.92569043e-04
3.62500000e-02	2.14622044e-02	9.73404835e-04
3.65000000e-02	2.21193475e-02	1.00629229e-03
3.67500000e-02	2.09674769e-02	9.49732565e-04
3.70000000e-02	2.14221717e-02	9.58961901e-04
3.72500000e-02	2.13007177e-02	9.61127840e-04
3.75000000e-02	2.11106853e-02	9.63024798e-04
3.77500000e-02	2.17618804e-02	9.72182991e-04
3.80000000e-02	2.09764856e-02	9.50566818e-04
3.82500000e-02	2.13131908e-02	9.56529487e-04
3.85000000e-02	2.13774624e-02	9.50447421e-04
3.87500000e-02	2.08721132e-02	9.30785635e-04
3.90000000e-02	2.10661935e-02	9.36941001e-04
3.92500000e-02	2.11725817e-02	9.34914427e-04
3.95000000e-02	2.10411429e-02	9.39521571e-04
3.97500000e-02	2.13552717e-02	9.46932766e-04
4.00000000e-02	2.11894840e-02	9.29286967e-04
4.02500000e-02	2.08528088e-02	9.27777903e-04
4.05000000e-02	2.08412071e-02	9.08725309e-04
4.07500000e-02	2.17801955e-02	9.38801756e-04
4.10000000e-02	2.09220858e-02	9.26200372e-04
4.12500000e-02	2.20005927e-02	9.51150222e-04
4.15000000e-02	2.11300768e-02	9.13268018e-04
4.17500000e-02	2.03579861e-02	8.81719581e-04
4.20000000e-02	2.08044959e-02	8.93579679e-04
4.22500000e-02	2.07585444e-02	8.92910543e-04
4.25000000e-02	2.15243083e-02	9.20849676e-04
4.27500000e-02	2.09088636e-02	8.98221426e-04
4.30000000e-02	2.07272470e-02	8.89502287e-04
4.32500000e-02	2.12877941e-02	9.07156892e-04
4.35000000e-02	2.03704900e-02	8.72275708e-04
4.37500000e-02	2.12397635e-02	8.93720936e-04
4.40000000e-02	2.13252658e-02	9.03662557e-04
4.42500000e-02	2.08517760e-02	8.88610225e-04
4.45000000e-02	2.14911582e-02	9.02626809e-04
4.47500000e-02	2.02863424e-02	8.44066827e-04
4.50000000e-02	2.11434658e-02	8.93448400e-04
4.52500000e-02	2.12376663e-02	8.85830348e-04
4.55000000e-02	2.07228741e-02	8.59447538e-04
4.57500000e-02	2.05292479e-02	8.51137771e-04
4.60000000e-02	2.09955945e-02	8.69782725e-04
4.62500000e-02	2.11815965e-02	8.91260845e-04
4.65000000e-02	2.14853153e-02	8.89900303e-04
4.67500000e-02	2.09787270e-02	8.59128552e-04
4.70000000e-02	2.02934392e-02	8.30817438e-04
4.72500000e-02	2.09947166e-02	8.65239451e-04
4.75000000e-02	2.01334644e-02	8.37561976e-04
4.77500000e-02	2.04987261e-02	8.35624246e-04
4.80000000e-02	2.03470838e-02	8.31226104e-04
4.82500000e-02	2.03478517e-02	8.30831489e-04
4.85000000e-02	2.15053380e-02	8.88543924e-04
4.87500000e-02	2.07393218e-02	8.49607742e-04
4.90000000e-02	2.05013698e-02	8.29552237e-04
4.92500000e-02	2.03261033e-02	8.19298866e-04
4.95000000e-02	2.10952788e-02	8.49891687e-04
4.97500000e-02	2.12494872e-02	8.65723086e-04
5.00000000e-02	2.04073437e-02	8.27650813e-04
5.02500000e-02	2.03921212e-02	8.16890611e-04
5.05000000e-02	2.00014192e-02	8.00766835e-04
5.07500000e-02	2.04765223e-02	8.17879023e-04
5.10000000e-02	2.06097615e-02	8.28091688e-04
5.12500000e-02	2.05499639e-02	8.24611448e-04
5.15000000e-02	2.05843919e-02	8.18905443e-04
5.17500000e-02	1.94930484e-02	7.82210695e-04
5.20000000e-02	2.08690961e-02	8.22432981e-04
5.22500000e-02	2.07345377e-02	8.23837190e-04
5.25000000e-02	2.06873637e-02	8.18534694e-04
5.27500000e-02	2.09671825e-02	8.20874791e-04
5.30000000e-02	2.04681653e-02	8.05123896e-04
5.32500000e-02	2.07636337e-02	8.20009691e-04
5.35000000e-02	2.06297754e-02	8.13973241e-04
5.37500000e-02	2.05102915e-02	8.03417319e-04
5.40000000e-02	1.98930328e-02	7.83572038e-04
5.42500000e-02	2.02930677e-02	7.83946066e-04
5.45000000e-02	2.09431820e-02	8.12590503e-04
5.47500000e-02	2.04562990e-02	7.94279310e-04
5.50000000e-02	2.06921743e-02	8.10083266e-04
5.52500000e-02	1.98596727e-02	7.71414593e-04
5.55000000e-02	2.02016634e-02	7.81238755e-04
5.57500000e-02	2.07229265e-02	7.99562137e-04
5.60000000e-02	2.09279772e-02	8.00532930e-04
5.62500000e-02	2.03533571e-02	7.95509522e-04
5.65000000e-02	2.05090737e-02	7.82056571e-04
5.67500000e-02	2.00264815e-02	7.72697744e-04
5.70000000e-02	2.03001978e-02	7.80107782e-04
5.72500000e-02	2.07203295e-02	7.94321238e-04
5.75000000e-02	2.04672086e-02	7.81278765e-04
5.77500000e-02	2.02482757e-02	7.68215217e-04
5.80000000e-02	2.01704762e-02	7.65033852e-04
5.82500000e-02	2.03055780e-02	7.66344171e-04
5.85000000e-02	2.05946283e-02	7.81131159e-04
5.87500000e-02	2.06769570e-02	7.74972125e-04
5.90000000e-02	2.04365686e-02	7.68107314e-04
5.92500000e-02	1.99092058e-02	7.45494879e-04
5.95000000e-02	1.91516983e-02	7.23027777e-04
5.97500000e-02	2.00448359e-02	7.55488805e-04
6.00000000e-02	2.00411712e-02	7.54854041e-04
6.02500000e-02	1.98195757e-02	7.37881604e-04
6.05000000e-02	1.97087092e-02	7.36922342e-04
6.07500000e-02	2.04695239e-02	7.65362310e-04
6.10000000e-02	2.01915375e-02	7.53669130e-04
6.12500000e-02	1.96385359e-02	7.36908312e-04
6.15000000e-02	2.02688615e-02	7.52111609e-04
6.17500000e-02	2.03660746e-02	7.49697148e-04
6.20000000e-02	2.05966976e-02	7.61566563e-04
6.22500000e-02	1.97727311e-02	7.34998586e-04
6.25000000e-02	1.99256488e-02	7.35939313e-04
6.27500000e-02	2.01786644e-02	7.46841866e-04
6.30000000e-02	1.99561122e-02	7.31788121e-04
6.32500000e-02	1.99008530e-02	7.27558986e-04
6.35000000e-02	2.12152892e-02	7.81160335e-04
6.37500000e-02	2.03210247e-02	7.43473304e-04
6.40000000e-02	1.93741235e-02	7.14620841e-04
6.42500000e-02	2.01078655e-02	7.29483227e-04
6.45000000e-02	2.00575860e-02	7.20243698e-04
6.47500000e-02	2.04565832e-02	7.44902720e-04
6.50000000e-02	1.97909561e-02	7.22225861e-04
6.52500000e-02	2.05771676e-02	7.43248132e-04
6.55000000e-02	1.98166586e-02	7.14881087e-04
6.57500000e-02	1.95030264e-02	7.03054267e-04
6.60000000e-02	2.00990716e-02	7.25132420e-04
6.62500000e-02	1.98924718e-02	7.17341394e-04
6.65000000e-02	2.03311548e-02	7.29330314e-04
6.67500000e-02	1.97966020e-02	7.10506396e-04
6.70000000e-02	2.00583925e-02	7.24375365e-04
6.72500000e-02	1.97089431e-02	7.09000994e-04
6.75000000e-02	2.04545081e-02	7.30469915e-04
6.77500000e-02	1.98342712e-02	7.02497205e-04
6.80000000e-02	1.99568633e-02	7.16642214e-04
6.82500000e-02	2.00556118e-02	7.11825406e-04
6.85000000e-02	1.97949117e-02	7.01995088e-04
6.87500000e-02	1.99323843e-02	7.07370083e-04
6.90000000e-02	1.96659027e-02	6.98461450e-04
6.92500000e-02	2.04168230e-02	7.20652775e-04
6.95000000e-02	1.99259107e-02	7.13794769e-04
6.97500000e-02	2.01404088e-02	7.12538705e-04
7.00000000e-02	1.99895970e-02	7.03276462e-04
7.02500000e-02	1.99123131e-02	6.97498887e-04
7.05000000e-02	1.99208253e-02	6.98770730e-04
7.07500000e-02	2.05296038e-02	7.21298739e-04
7.10000000e-02	1.94590287e-02	6.82912023e-04
7.12500000e-02	2.05314230e-02	7.11890621e-04
7.15000000e-02	1.95680935e-02	6.81485124e-04
7.17500000e-02	2.02590154e-02	7.08251156e-04
7.20000000e-02	1.95948058e-02	6.83292068e-04
7.22500000e-02	2.00237043e-02	6.96360241e-04
7.25000000e-02	1.95556256e-02	6.79258115e-04
7.27500000e-02	1.95230087e-02	6.75696552e-04
7.30000000e-02	2.00621768e-02	6.91602880e-04
7.32500000e-02	2.03169764e-02	6.95150069e-04
7.35000000e-02	2.01870296e-02	6.97744780e-04
7.37500000e-02	2.01446649e-02	6.88413733e-04
7.40000000e-02	2.00799617e-02	6.95640765e-04
7.42500000e-02	1.95515710e-02	6.68645233e-04
7.45000000e-02	1.98240317e-02	6.78892846e-04
7.47500000e-02	1.94519991e-02	6.61052949e-04
7.50000000e-02	1.98157431e-02	6.75911220e-04
7.52500000e-02	1.97632818e-02	6.80226521e-04
7.55000000e-02	1.93079512e-02	6.56453510e-04
7.57500000e-02	1.98258073e-02	6.74786791e-04
7.60000000e-02	2.02670573e-02	6.90296841e-04
7.62500000e-02	1.99077809e-02	6.76916333e-04
7.65000000e-02	1.97124329e-02	6.66017942e-04
7.67500000e-02	1.97971866e-02	6.67264103e-04
7.70000000e-02	2.01067739e-02	6.80770468e-04
7.72500000e-02	1.98141632e-02	6.82005652e-04
7.75000000e-02	1.97451583e-02	6.85642480e-04
7.77500000e-02	2.01834230e-02	7.06787767e-04
7.80000000e-02	2.02860989e-02	7.06602549e-04
7.82500000e-02	1.96299001e-02	7.01330852e-04
7.85000000e-02	2.02499488e-02	7.24317345e-04
7.87500000e-02	1.96556571e-02	6.94009912e-04
7.90000000e-02	2.02217210e-02	7.20971693e-04
7.92500000e-02	1.99339469e-02	7.12969316e-04
7.95000000e-02	2.00660054e-02	7.12975911e-04
7.97500000e-02	2.03509070e-02	7.23357424e-04
8.00000000e-02	2.03055266e-02	7.23634798e-04
8.02500000e-02	1.99037041e-02	7.18621395e-04
8.05000000e-02	2.00661762e-02	7.13644097e-04
8.07500000e-02	1.97771003e-02	7.18450785e-04
8.10000000e-02	1.96577530e-02	7.11999507e-04
8.12500000e-02	2.00159481e-02	7.30977629e-04
8.15000000e-02	2.03693470e-02	7.42432311e-04
8.17500000e-02	2.04247432e-02	7.46442571e-04
8.20000000e-02	2.03597795e-02	7.46619615e-04
8.22500000e-02	1.98822633e-02	7.24842755e-04
8.25000000e-02	2.00062376e-02	7.33172573e-04
8.27500000e-02	1.99501992e-02	7.24931274e-04
8.30000000e-02	1.98576924e-02	7.41041049e-04
8.32500000e-02	1.93888198e-02	7.11741598e-04
8.35000000e-02	1.96629571e-02	7.33847741e-04
8.37500000e-02	1.96644247e-02	7.22508114e-04
8.40000000e-02	1.99663472e-02	7.35013914e-04
8.42500000e-02	2.02570122e-02	7.47249420e-04
8.45000000e-02	1.95458697e-02	7.22879343e-04
8.47500000e-02	2.00959965e-02	7.46124616e-04
8.50000000e-02	1.96959091e-02	7.30574632e-04
8.52500000e-02	2.02972380e-02	7.47739305e-04
8.55000000e-02	1.98077180e-02	7.38061995e-04
8.57500000e-02	1.96784524e-02	7.35137534e-04
8.60000000e-02	1.94600245e-02	7.31462807e-04
8.62500000e-02	1.97863579e-02	7.29441036e-04
8.65000000e-02	2.07628672e-02	7.62424562e-04
8.67500000e-02	1.96940751e-02	7.28315721e-04
8.70000000e-02	1.93748734e-02	7.11062824e-04
8.72500000e-02	1.96256225e-02	7.03499755e-04
8.75000000e-02	1.99146061e-02	7.09831175e-04
8.77500000e-02	1.99544861e-02	7.02967354e-04
8.80000000e-02	1.96045165e-02	6.90688798e-04
8.82500000e-02	2.01026513e-02	7.02835270e-04
8.85000000e-02	1.95924088e-02	6.93053496e-04
8.87500000e-02	1.96793929e-02	6.77834706e-04
8.90000000e-02	1.96669687e-02	6.85441759e-04
8.92500000e-02	1.98837534e-02	6.87964145e-04
8.95000000e-02	1.97336318e-02	6.74064144e-04
8.97500000e-02	1.97880000e-02	6.77568250e-04
9.00000000e-02	1.99072852e-02	6.77241562e-04
9.02500000e-02	1.98324483e-02	6.79553212e-04
9.05000000e-02	1.98284546e-02	6.76164409e-04
9.07500000e-02	1.94970880e-02	6.58652377e-04
9.10000000e-02	2.04750350e-02	6.87280730e-04
9.12500000e-02	2.00304507e-02	6.74913313e-04
9.15000000e-02	1.98866773e-02	6.70419727e-04
9.17500000e-02	1.94220143e-02	6.64245179e-04
9.20000000e-02	1.95945560e-02	6.58005262e-04
9.22500000e-02	2.00447431e-02	6.65404706e-04
9.25000000e-02	1.97860067e-02	6.59981242e-04
9.27500000e-02	1.96483187e-02	6.55097349e-04
9.30000000e-02	1.97792538e-02	6.58061643e-04
9.32500000e-02	1.99668273e-02	6.65129510e-04
9.35000000e-02	1.98841107e-02	6.56371136e-04
9.37500000e-02	1.94884767e-02	6.45027248e-04
9.40000000e-02	2.02804030e-02	6.75091806e-04
9.42500000e-02	1.99152184e-02	6.49134320e-04
9.45000000e-02	2.00138365e-02	6.59490560e-04
9.47500000e-02	2.02991470e-02	6.69995549e-04
9.50000000e-02	2.03107490e-02	6.63144924e-04
9.52500000e-02	2.03636536e-02	6.61766293e-04
9.55000000e-02	1.90617978e-02	6.21272902e-04
9.57500000e-02	1.95302268e-02	6.34463583e-04
9.60000000e-02	1.97980523e-02	6.46604190e-04
9.62500000e-02	2.01526735e-02	6.57277460e-04
9.65000000e-02	1.95630440e-02	6.33672161e-04
9.67500000e-02	2.01872986e-02	6.51953848e-04
9.70000000e-02	1.95522588e-02	6.31909375e-04
9.72500000e-02	1.99645452e-02	6.40431143e-04
9.75000000e-02	1.95167522e-02	6.23335906e-04
9.77500000e-02	1.97967948e-02	6.30713138e-04
9.80000000e-02	1.94403672e-02	6.24409792e-04
9.82500000e-02	1.96750543e-02	6.30729258e-04
9.85000000e-02	1.94010364e-02	6.24394139e-04
9.87500000e-02	1.95329114e-02	6.24976652e-04
9.90000000e-02	1.98092887e-02	6.28032254e-04
9.92500000e-02	1.94978887e-02	6.25267122e-04
9.95000000e-02	1.96284084e-02	6.24152445e-04
9.97500000e-02	2.00751333e-02	6.33625390e-04
1.00000000e-01	2.02613049e-02	5.19256121e-04
1.00500000e-01	1.95581846e-02	4.38629464e-04
1.01000000e-01	1.93789210e-02	4.30518899e-04
1.01500000e-01	1.97898828e-02	4.40831200e-04
1.02000000e-01	1.98074379e-02	4.35090569e-04
1.02500000e-01	1.95972929e-02	4.30755892e-04
1.03000000e-01	1.94917491e-02	4.29556163e-04
1.03500000e-01	1.93395213e-02	4.23961942e-04
1.04000000e-01	1.96269283e-02	4.30328352e-04
1.04500000e-01	1.95371880e-02	4.24870144e-04
1.05000000e-01	1.95677261e-02	4.24556203e-04
1.05500000e-01	1.95762939e-02	4.26681120e-04
1.06000000e-01	1.95386230e-02	4.22040559e-04
1.06500000e-01	1.97046688e-02	4.25306838e-04
1.07000000e-01	1.95536666e-02	4.26449441e-04
1.07500000e-01	2.00307896e-02	4.44011085e-04
1.08000000e-01	1.95321999e-02	4.38823549e-04
1.08500000e-01	1.95384171e-02	4.43433210e-04
1.09000000e-01	1.94777390e-02	4.42679898e-04
1.09500000e-01	1.95503396e-02	4.47653166e-04
1.10000000e-01	1.97202556e-02	4.46857226e-04
1.10500000e-01	1.95995253e-02	4.31918512e-04
1.11000000e-01	1.94002974e-02	4.21439652e-04
1.11500000e-01	1.97774088e-02	4.27925966e-04
1.12000000e-01	1.97116818e-02	4.23014262e-04
1.12500000e-01	1.99320063e-02	4.22405047e-04
1.13000000e-01	1.99872404e-02	4.24293462e-04
1.13500000e-01	1.99022035e-02	4.22183425e-04
1.14000000e-01	1.96571824e-02	4.13618802e-04
1.14500000e-01	1.94366931e-02	4.09127804e-04
1.15000000e-01	1.95967596e-02	4.11270878e-04
1.15500000e-01	1.94089537e-02	4.07719076e-04
1.16000000e-01	1.97186863e-02	4.12966607e-04
1.16500000e-01	1.92475618e-02	4.00618361e-04
1.17000000e-01	1.93270246e-02	4.01921735e-04
1.17500000e-01	1.96649346e-02	4.05852203e-04
1.18000000e-01	1.95833501e-02	4.08758059e-04
1.18500000e-01	1.95346574e-02	4.03401173e-04
1.19000000e-01	1.98853541e-02	4.10154763e-04
1.19500000e-01	1.95407989e-02	4.00773646e-04
1.20000000e-01	1.98974109e-02	4.06539060e-04
1.20500000e-01	1.91203398e-02	3.90578883e-04
1.21000000e-01	1.95466073e-02	4.00079566e-04
1.21500000e-01	1.96130920e-02	3.99065120e-04
1.22000000e-01	1.96238370e-02	3.98851972e-04
1.22500000e-01	1.95506943e-02	3.95547498e-04
1.23000000e-01	1.94869432e-02	3.94471055e-04
1.23500000e-01	1.94653661e-02	3.92178965e-04
1.24000000e-01	1.97747816e-02	3.98807094e-04
1.24500000e-01	1.91548594e-02	3.86076620e-04
1.25000000e-01	1.93538927e-02	3.88492449e-04
1.25500000e-01	1.95339677e-02	3.92610718e-04
1.26000000e-01	1.98361015e-02	3.95170125e-04
1.26500000e-01	1.98342449e-02	3.95711020e-04
1.27000000e-01	1.97001029e-02	3.92234723e-04
1.27500000e-01	1.97655942e-02	3.89158731e-04
1.28000000e-01	1.97323958e-02	3.91391822e-04
1.28500000e-01	1.96779741e-02	3.89206720e-04
1.29000000e-01	1.94846252e-02	3.82774703e-04
1.29500000e-01	1.94108000e-02	3.83350495e-04
1.30000000e-01	1.96806138e-02	3.86135342e-04
1.30500000e-01	1.98427212e-02	3.88023141e-04
1.31000000e-01	1.98015626e-02	3.87469522e-04
1.31500000e-01	1.92704644e-02	3.76397686e-04
1.32000000e-01	1.98211524e-02	3.84316781e-04
1.32500000e-01	1.95139254e-02	3.78440869e-04
1.33000000e-01	1.98400372e-02	3.82862043e-04
1.33500000e-01	1.98638605e-02	3.83245265e-04
1.34000000e-01	1.93356812e-02	3.71650273e-04
1.34500000e-01	1.94025207e-02	3.71335684e-04
1.35000000e-01	1.95930155e-02	3.74855112e-04
1.35500000e-01	1.96978139e-02	3.75131226e-04
1.36000000e-01	1.97737782e-02	3.75151936e-04
1.36500000e-01	1.97024509e-02	3.76337482e-04
1.37000000e-01	1.97093272e-02	3.71814041e-04
1.37500000e-01	1.93480964e-02	3.69501004e-04
1.38000000e-01	1.95007581e-02	3.70437574e-04
1.38500000e-01	1.94735638e-02	3.68885318e-04
1.39000000e-01	1.92086457e-02	3.65782125e-04
1.39500000e-01	1.96955929e-02	3.71020194e-04
1.40000000e-01	1.92151371e-02	3.64577253e-04
1.40500000e-01	1.93540927e-02	3.63319302e-04
1.41000000e-01	1.91608050e-02	3.62081678e-04
1.41500000e-01	1.94739853e-02	3.65338926e-04
1.42000000e-01	1.94943361e-02	3.63595503e-04
1.42500000e-01	1.95866129e-02	3.68265844e-04
1.43000000e-01	1.91309689e-02	3.60785172e-04
1.43500000e-01	1.93375488e-02	3.59378019e-04
1.44000000e-01	1.96841057e-02	3.66524430e-04
1.44500000e-01	1.93568366e-02	3.59554488e-04
1.45000000e-01	1.93016252e-02	3.61239570e-04
1.45500000e-01	1.97168222e-02	3.63437552e-04
1.46000000e-01	1.90872009e-02	3.53858050e-04
1.46500000e-01	1.92672166e-02	3.56229485e-04
1.47000000e-01	1.94527026e-02	3.59737172e-04
1.47500000e-01	1.91705432e-02	3.53580738e-04
1.48000000e-01	1.92547138e-02	3.54979956e-04
1.48500000e-01	1.94632221e-02	3.57229927e-04
1.49000000e-01	1.95316206e-02	3.56961258e-04
1.49500000e-01	1.93392267e-02	3.52350990e-04
1.50000000e-01	1.91177020e-02	3.46784358e-04
1.50500000e-01	1.89830145e-02	3.46984934e-04
1.51000000e-01	1.91427886e-02	3.49917892e-04
1.51500000e-01	1.91631654e-02	3.48691579e-04
1.52000000e-01	1.94514652e-02	3.50500910e-04
1.52500000e-01	1.92813734e-02	3.49238402e-04
1.53000000e-01	1.92734028e-02	3.49659315e-04
1.53500000e-01	1.91649612e-02	3.45362667e-04
1.54000000e-01	1.92621677e-02	3.46746788e-04
1.54500000e-01	1.93178343e-02	3.54343084e-04
1.55000000e-01	1.91446946e-02	3.54529515e-04
1.55500000e-01	1.91164666e-02	3.57378943e-04
1.56000000e-01	1.93717902e-02	3.65022450e-04
1.56500000e-01	1.93492085e-02	3.63519664e-04
1.57000000e-01	1.96089261e-02	3.69786141e-04
1.57500000e-01	1.89076205e-02	3.50277564e-04
1.58000000e-01	1.89630958e-02	3.45973052e-04
1.58500000e-01	1.91968589e-02	3.48662279e-04
1.59000000e-01	1.91249386e-02	3.43955927e-04
1.59500000e-01	1.92070084e-02	3.46711693e-04
1.60000000e-01	1.90407579e-02	3.43503741e-04
1.60500000e-01	1.89257981e-02	3.38227848e-04
1.61000000e-01	1.90407158e-02	3.40797664e-04
1.61500000e-01	1.89891094e-02	3.37490956e-04
1.62000000e-01	1.91324800e-02	3.38889640e-04
1.62500000e-01	1.91909839e-02	3.41122897e-04
1.63000000e-01	1.90135168e-02	3.36583757e-04
1.63500000e-01	1.89212557e-02	3.37227121e-04
1.64000000e-01	1.88373459e-02	3.32758731e-04
1.64500000e-01	1.90623749e-02	3.35747335e-04
1.65000000e-01	1.88956191e-02	3.31974218e-04
1.65500000e-01	1.88804434e-02	3.30621826e-04
1.66000000e-01	1.89022285e-02	3.31549819e-04
1.66500000e-01	1.89539165e-02	3.30236685e-04
1.67000000e-01	1.88116416e-02	3.29501086e-04
1.67500000e-01	1.90349879e-02	3.31845604e-04
1.68000000e-01	1.90484590e-02	3.31648691e-04
1.68500000e-01	1.91481543e-02	3.33131178e-04
1.69000000e-01	1.89635269e-02	3.29836451e-04
1.69500000e-01	1.86084869e-02	3.23045914e-04
1.70000000e-01	1.88744970e-02	3.28457201e-04
1.70500000e-01	1.87298370e-02	3.23651896e-04
1.71000000e-01	1.86272873e-02	3.21353027e-04
1.71500000e-01	1.88574047e-02	3.26162107e-04
1.72000000e-01	1.88656702e-02	3.24378513e-04
1.72500000e-01	1.87240568e-02	3.22538599e-04
1.73000000e-01	1.87308210e-02	3.20309398e-04
1.73500000e-01	1.89746008e-02	3.23795793e-04
1.74000000e-01	1.87798274e-02	3.22568409e-04
1.74500000e-01	1.87164392e-02	3.19060732e-04
1.75000000e-01	1.86902296e-02	3.16504513e-04
1.75500000e-01	1.84951822e-02	3.13393331e-04
1.76000000e-01	1.88086919e-02	3.17803882e-04
1.76500000e-01	1.84792081e-02	3.14377107e-04
1.77000000e-01	1.86954095e-02	3.15608376e-04
1.77500000e-01	1.88945718e-02	3.19927417e-04
1.78000000e-01	1.87185784e-02	3.15271622e-04
1.78500000e-01	1.89529675e-02	3.19210806e-04
1.79000000e-01	1.87472377e-02	3.14642606e-04
1.79500000e-01	1.87655230e-02	3.16412396e-04
1.80000000e-01	1.88372806e-02	3.17713381e-04
1.80500000e-01	1.84852203e-02	3.11937355e-04
1.81000000e-01	1.85817058e-02	3.12231112e-04
1.81500000e-01	1.86690416e-02	3.13403760e-04
1.82000000e-01	1.85876391e-02	3.12599604e-04
1.82500000e-01	1.82864364e-02	3.05203966e-04
1.83000000e-01	1.85040714e-02	3.10873065e-04
1.83500000e-01	1.84348159e-02	3.08477858e-04
1.84000000e-01	1.85512293e-02	3.09091723e-04
1.84500000e-01	1.88204939e-02	3.13478196e-04
1.85000000e-01	1.85636402e-02	3.08608055e-04
1.85500000e-01	1.87352506e-02	3.11147858e-04
1.86000000e-01	1.83627318e-02	3.04509297e-04
1.86500000e-01	1.87200239e-02	3.11225240e-04
1.87000000e-01	1.84814684e-02	3.05605917e-04
1.87500000e-01	1.85494257e-02	3.05875932e-04
1.88000000e-01	1.84005416e-02	3.04393620e-04
1.88500000e-01	1.86829439e-02	3.07846147e-04
1.89000000e-01	1.85945984e-02	3.05320741e-04
1.89500000e-01	1.86772557e-02	3.05991624e-04
1.90000000e-01	1.83349019e-02	3.01927398e-04
1.90500000e-01	1.84315654e-02	3.01552027e-04
1.91000000e-01	1.85394544e-02	3.03252355e-04
1.91500000e-01	1.84394021e-02	3.02480437e-04
1.92000000e-01	1.82439435e-02	2.96367588e-04
1.92500000e-01	1.84611110e-02	3.01716413e-04
1.93000000e-01	1.81703224e-02	2.97752832e-04
1.93500000e-01	1.82590207e-02	2.96711629e-04
1.94000000e-01	1.85171715e-02	3.00780073e-04
1.94500000e-01	1.82041571e-02	2.96427052e-04
1.95000000e-01	1.82559046e-02	2.97163743e-04
1.95500000e-01	1.85634013e-02	2.99987874e-04
1.96000000e-01	1.82813080e-02	2.95307129e-04
1.96500000e-01	1.82633473e-02	2.96023273e-04
1.97000000e-01	1.83158824e-02	2.96444382e-04
1.97500000e-01	1.84067784e-02	2.96273882e-04
1.98000000e-01	1.84794528e-02	2.97926858e-04
1.98500000e-01	1.82370070e-02	2.93439983e-04
1.99000000e-01	1.83334942e-02	2.94662073e-04
1.99500000e-01	1.83945299e-02	2.94565180e-04
2.00000000e-01	1.80204733e-02	2.90127412e-04
2.00500000e-01	1.82159049e-02	2.92439578e-04
2.01000000e-01	1.80308170e-02	2.88820968e-04
2.01500000e-01	1.83124923e-02	2.91686051e-04
2.02000000e-01	1.82109817e-02	2.90107901e-04
2.02500000e-01	1.84197301e-02	2.92841936e-04
2.03000000e-01	1.83245881e-02	2.90863638e-04
2.03500000e-01	1.83666981e-02	2.91117836e-04
2.04000000e-01	1.80285889e-02	2.86234879e-04
2.04500000e-01	1.80874831e-02	2.86966606e-04
2.05000000e-01	1.82009584e-02	2.88661168e-04
2.05500000e-01	1.83633400e-02	2.90479754e-04
2.06000000e-01	1.81441512e-02	2.87153456e-04
2.06500000e-01	1.80943422e-02	2.84707234e-04
2.07000000e-01	1.82049873e-02	2.86376410e-04
2.07500000e-01	1.82425370e-02	2.87278119e-04
2.08000000e-01	1.80596701e-02	2.85084117e-04
2.08500000e-01	1.83971893e-02	2.88300020e-04
2.09000000e-01	1.80773900e-02	2.84205189e-04
2.09500000e-01	1.82030895e-02	2.84923331e-04
2.10000000e-01	1.82815644e-02	2.85476512e-04
2.10500000e-01	1.79856507e-02	2.80705705e-04
2.11000000e-01	1.82442207e-02	2.83479707e-04
2.11500000e-01	1.81408108e-02	2.82979706e-04
2.12000000e-01	1.83394021e-02	2.85875421e-04
2.12500000e-01	1.80144659e-02	2.80235398e-04
2.13000000e-01	1.78582277e-02	2.77805323e-04
2.13500000e-01	1.81070238e-02	2.81327270e-04
2.14000000e-01	1.81420625e-02	2.81874060e-04
2.14500000e-01	1.80647977e-02	2.78895411e-04
2.15000000e-01	1.80177478e-02	2.79344576e-04
2.15500000e-01	1.78586702e-02	2.74793381e-04
2.16000000e-01	1.78174527e-02	2.75434746e-04
2.16500000e-01	1.79791812e-02	2.76936350e-04
2.17000000e-01	1.80282875e-02	2.81255765e-04
2.17500000e-01	1.80203386e-02	2.86716078e-04
2.18000000e-01	1.78917821e-02	2.85147323e-04
2.18500000e-01	1.78931416e-02	2.85659819e-04
2.19000000e-01	1.79530480e-02	2.89371247e-04
2.19500000e-01	1.78620479e-02	2.88230171e-04
2.20000000e-01	1.78484459e-02	2.89865767e-04
2.20500000e-01	1.79210133e-02	2.91494097e-04
2.21000000e-01	1.79964807e-02	2.93014254e-04
2.21500000e-01	1.78122262e-02	2.91574868e-04
2.22000000e-01	1.80868368e-02	2.95153836e-04
2.22500000e-01	1.78943275e-02	2.92866851e-04
2.23000000e-01	1.77563137e-02	2.90993183e-04
2.23500000e-01	1.78196722e-02	2.94364298e-04
2.24000000e-01	1.78504742e-02	2.95078896e-04
2.24500000e-01	1.79412131e-02	2.98643466e-04
2.25000000e-01	1.80103455e-02	2.99879870e-04
2.25500000e-01	1.77115057e-02	2.94569155e-04
2.26000000e-01	1.81005295e-02	3.02504486e-04
2.26500000e-01	1.78712969e-02	2.92963872e-04
2.27000000e-01	1.78207431e-02	2.89263790e-04
2.27500000e-01	1.78646823e-02	2.88170821e-04
2.28000000e-01	1.76437508e-02	2.84302623e-04
2.28500000e-01	1.78014718e-02	2.84138042e-04
2.29000000e-01	1.77944322e-02	2.84129734e-04
2.29500000e-01	1.80832915e-02	2.86491663e-04
2.30000000e-01	1.79102465e-02	2.82727553e-04
2.30500000e-01	1.77768441e-02	2.80311558e-04
2.31000000e-01	1.78770808e-02	2.81728346e-04
2.31500000e-01	1.75597900e-02	2.76756765e-04
2.32000000e-01	1.78309511e-02	2.78962453e-04
2.32500000e-01	1.78948605e-02	2.79309501e-04
2.33000000e-01	1.77758777e-02	2.74339587e-04
2.33500000e-01	1.78383521e-02	2.76301003e-04
2.34000000e-01	1.79431302e-02	2.78596874e-04
2.34500000e-01	1.75498397e-02	2.72405489e-04
2.35000000e-01	1.76163701e-02	2.71832444e-04
2.35500000e-01	1.79118737e-02	2.76133560e-04
2.36000000e-01	1.80128154e-02	2.78145627e-04
2.36500000e-01	1.77756098e-02	2.73378661e-04
2.37000000e-01	1.77424407e-02	2.71936937e-04
2.37500000e-01	1.77161120e-02	2.70508176e-04
2.38000000e-01	1.77581389e-02	2.70454401e-04
2.38500000e-01	1.76271887e-02	2.69634891e-04
2.39000000e-01	1.76781194e-02	2.68082379e-04
2.39500000e-01	1.77321193e-02	2.70201948e-04
2.40000000e-01	1.77645482e-02	2.68930226e-04
2.40500000e-01	1.76363537e-02	2.67316809e-04
2.41000000e-01	1.75511365e-02	2.65232427e-04
2.41500000e-01	1.75410337e-02	2.64486558e-04
2.42000000e-01	1.76783929e-02	2.67621754e-04
2.42500000e-01	1.74468377e-02	2.63197767e-04
2.43000000e-01	1.77006708e-02	2.65815820e-04
2.43500000e-01	1.76049959e-02	2.63943740e-04
2.44000000e-01	1.78028950e-02	2.65330068e-04
2.44500000e-01	1.74599780e-02	2.61504490e-04
2.45000000e-01	1.72539479e-02	2.57984843e-04
2.45500000e-01	1.77308758e-02	2.65054328e-04
2.46000000e-01	1.76043701e-02	2.62759378e-04
2.46500000e-01	1.73282073e-02	2.56748715e-04
2.47000000e-01	1.74555900e-02	2.59374869e-04
2.47500000e-01	1.75421513e-02	2.58850152e-04
2.48000000e-01	1.73882004e-02	2.58525040e-04
2.48500000e-01	1.73571156e-02	2.57816220e-04
2.49000000e-01	1.74482749e-02	2.58279776e-04
2.49500000e-01	1.75258321e-02	2.59282780e-04
2.50000000e-01	1.74741439e-02	2.57033706e-04
2.50500000e-01	1.73583599e-02	2.57605783e-04
2.51000000e-01	1.73732951e-02	2.55288414e-04
2.51500000e-01	1.76055488e-02	2.59341209e-04
2.52000000e-01	1.71985462e-02	2.53868007e-04
2.52500000e-01	1.74222746e-02	2.55871867e-04
2.53000000e-01	1.73366500e-02	2.54768234e-04
2.53500000e-01	1.75383415e-02	2.57427072e-04
2.54000000e-01	1.72832313e-02	2.54043798e-04
2.54500000e-01	1.75835364e-02	2.58236911e-04
2.55000000e-01	1.73114152e-02	2.53013047e-04
2.55500000e-01	1.73494617e-02	2.53400678e-04
2.56000000e-01	1.71411114e-02	2.49568193e-04
2.56500000e-01	1.73461865e-02	2.52622015e-04
2.57000000e-01	1.72892161e-02	2.51960598e-04
2.57500000e-01	1.76441367e-02	2.56057992e-04
2.58000000e-01	1.72066204e-02	2.50644555e-04
2.58500000e-01	1.73480785e-02	2.51681361e-04
2.59000000e-01	1.74122020e-02	2.51390714e-04
2.59500000e-01	1.73226557e-02	2.50715108e-04
2.60000000e-01	1.74450941e-02	2.51993786e-04
2.60500000e-01	1.73510144e-02	2.50100183e-04
2.61000000e-01	1.72169815e-02	2.48674015e-04
2.61500000e-01	1.73615748e-02	2.50736882e-04
2.62000000e-01	1.74374355e-02	2.50296574e-04
2.62500000e-01	1.73009499e-02	2.49262447e-04
2.63000000e-01	1.70065703e-02	2.44859088e-04
2.63500000e-01	1.74158526e-02	2.49072807e-04
2.64000000e-01	1.73750601e-02	2.48837267e-04
2.64500000e-01	1.70758624e-02	2.44944535e-04
2.65000000e-01	1.73021672e-02	2.47592504e-04
2.65500000e-01	1.71236123e-02	2.44724878e-04
2.66000000e-01	1.71930093e-02	2.45642426e-04
2.66500000e-01	1.73264469e-02	2.46026910e-04
2.67000000e-01	1.70743043e-02	2.43600065e-04
2.67500000e-01	1.74200214e-02	2.47446050e-04
2.68000000e-01	1.71124069e-02	2.43550468e-04
2.68500000e-01	1.70068777e-02	2.41565782e-04
2.69000000e-01	1.71089949e-02	2.42297022e-04
2.69500000e-01	1.69688275e-02	2.39639363e-04
2.70000000e-01	1.72339496e-02	2.43452506e-04
2.70500000e-01	1.72774029e-02	2.43884565e-04
2.71000000e-01	1.71350845e-02	2.42270124e-04
2.71500000e-01	1.71800309e-02	2.42457818e-04
2.72000000e-01	1.71435402e-02	2.41419709e-04
2.72500000e-01	1.70773525e-02	2.40310105e-04
2.73000000e-01	1.74093962e-02	2.44760987e-04
2.73500000e-01	1.71107281e-02	2.40064701e-04
2.74000000e-01	1.71278679e-02	2.39875909e-04
2.74500000e-01	1.71325940e-02	2.40677494e-04
2.75000000e-01	1.69560009e-02	2.37799894e-04
2.75500000e-01	1.69719713e-02	2.37979284e-04
2.76000000e-01	1.69660844e-02	2.36889312e-04
2.76500000e-01	1.71110609e-02	2.39331612e-04
2.77000000e-01	1.69366173e-02	2.36699765e-04
2.77500000e-01	1.70844207e-02	2.38897119e-04
2.78000000e-01	1.70490279e-02	2.37846172e-04
2.78500000e-01	1.70448415e-02	2.37969703e-04
2.79000000e-01	1.70586942e-02	2.36804136e-04
2.79500000e-01	1.69483973e-02	2.35609613e-04
2.80000000e-01	1.71822056e-02	2.38473239e-04
2.80500000e-01	1.71597240e-02	2.37693605e-04
2.81000000e-01	1.68412074e-02	2.34148326e-04
2.81500000e-01	1.67632503e-02	2.32904821e-04
2.82000000e-01	1.69886393e-02	2.35421156e-04
2.82500000e-01	1.71752030e-02	2.38391009e-04
2.83000000e-01	1.68508703e-02	2.32894786e-04
2.83500000e-01	1.68738953e-02	2.32617610e-04
2.84000000e-01	1.68737736e-02	2.34209613e-04
2.84500000e-01	1.68147795e-02	2.31192941e-04
2.85000000e-01	1.68384780e-02	2.32437489e-04
2.85500000e-01	1.69070973e-02	2.32128278e-04
2.86000000e-01	1.68144857e-02	2.32314230e-04
2.86500000e-01	1.67858072e-02	2.30125578e-04
2.87000000e-01	1.68829190e-02	2.32030119e-04
2.87500000e-01	1.70567462e-02	2.33526496e-04
2.88000000e-01	1.69019160e-02	2.31342926e-04
2.88500000e-01	1.68653135e-02	2.30652182e-04
2.89000000e-01	1.68054880e-02	2.29541754e-04
2.89500000e-01	1.67640111e-02	2.28769700e-04
2.90000000e-01	1.66502082e-02	2.27363043e-04
2.90500000e-01	1.67543568e-02	2.28431897e-04
2.91000000e-01	1.68575340e-02	2.29871354e-04
2.91500000e-01	1.67743422e-02	2.27776238e-04
2.92000000e-01	1.67998615e-02	2.28664842e-04
2.92500000e-01	1.67985971e-02	2.27689912e-04
2.93000000e-01	1.68865512e-02	2.28096264e-04
2.93500000e-01	1.67400904e-02	2.26660633e-04
2.94000000e-01	1.69261661e-02	2.28880914e-04
2.94500000e-01	1.66907232e-02	2.26620366e-04
2.95000000e-01	1.66402172e-02	2.24949968e-04
2.95500000e-01	1.68041733e-02	2.27297436e-04
2.96000000e-01	1.67166688e-02	2.25620603e-04
2.96500000e-01	1.68399947e-02	2.27083819e-04
2.97000000e-01	1.68258060e-02	2.27593001e-04
2.97500000e-01	1.67324075e-02	2.25081638e-04
2.98000000e-01	1.67707540e-02	2.25254633e-04
2.98500000e-01	1.64721295e-02	2.22422542e-04
2.99000000e-01	1.66090065e-02	2.24056975e-04
2.99500000e-01	1.65479423e-02	2.23575901e-04
3.00000000e-01	1.66626196e-02	2.24523098e-04
3.00500000e-01	1.67239740e-02	2.24111775e-04
3.01000000e-01	1.66525132e-02	2.22385333e-04
3.01500000e-01	1.65179476e-02	2.21802188e-04
3.02000000e-01	1.67427163e-02	2.24207685e-04
3.02500000e-01	1.65488339e-02	2.21370331e-04
3.03000000e-01	1.66773038e-02	2.22152153e-04
3.03500000e-01	1.69077755e-02	2.24504317e-04
3.04000000e-01	1.66897834e-02	2.23003513e-04
3.04500000e-01	1.66986018e-02	2.22525528e-04
3.05000000e-01	1.66570274e-02	2.21484416e-04
3.05500000e-01	1.65547627e-02	2.20699265e-04
3.06000000e-01	1.64932798e-02	2.17754579e-04
3.06500000e-01	1.65747964e-02	2.19793619e-04
3.07000000e-01	1.66736111e-02	2.20687886e-04
3.07500000e-01	1.66259083e-02	2.20429333e-04
3.08000000e-01	1.65657070e-02	2.19355473e-04
3.08500000e-01	1.66218687e-02	2.18761508e-04
3.09000000e-01	1.66262753e-02	2.18724289e-04
3.09500000e-01	1.65318485e-02	2.18134897e-04
3.10000000e-01	1.67879077e-02	2.20638826e-04
3.10500000e-01	1.66277791e-02	2.19478197e-04
3.11000000e-01	1.65153045e-02	2.17629895e-04
3.11500000e-01	1.65479891e-02	2.17457213e-04
3.12000000e-01	1.66137574e-02	2.18306628e-04
3.12500000e-01	1.65337307e-02	2.16931739e-04
3.13000000e-01	1.64610724e-02	2.16706278e-04
3.13500000e-01	1.66549559e-02	2.18133255e-04
3.14000000e-01	1.64564143e-02	2.15623641e-04
3.14500000e-01	1.64558681e-02	2.16229623e-04
3.15000000e-01	1.64421631e-02	2.15677266e-04
3.15500000e-01	1.64622396e-02	2.16019427e-04
3.16000000e-01	1.65095087e-02	2.16388696e-04
3.16500000e-01	1.62599591e-02	2.11882895e-04
3.17000000e-01	1.64040446e-02	2.14187622e-04
3.17500000e-01	1.65336142e-02	2.16529599e-04
3.18000000e-01	1.62480488e-02	2.11730091e-04
3.18500000e-01	1.65256381e-02	2.15621892e-04
3.19000000e-01	1.63607858e-02	2.13082149e-04
3.19500000e-01	1.65794822e-02	2.15695482e-04
3.20000000e-01	1.63912655e-02	2.13562141e-04
3.20500000e-01	1.63126881e-02	2.12019973e-04
3.21000000e-01	1.62730189e-02	2.11817197e-04
3.21500000e-01	1.62090530e-02	2.10764843e-04
3.22000000e-01	1.64282117e-02	2.13518209e-04
3.22500000e-01	1.65907440e-02	2.14905343e-04
3.23000000e-01	1.64844293e-02	2.13509354e-04
3.23500000e-01	1.62909693e-02	2.11348285e-04
3.24000000e-01	1.62698733e-02	2.09989327e-04
3.24500000e-01	1.61058593e-02	2.09118796e-04
3.25000000e-01	1.62912280e-02	2.10301421e-04
3.25500000e-01	1.62892924e-02	2.11059235e-04
3.26000000e-01	1.63703852e-02	2.11018220e-04
3.26500000e-01	1.61401481e-02	2.07547286e-04
3.27000000e-01	1.62131716e-02	2.08930861e-04
3.27500000e-01	1.62598219e-02	2.10561521e-04
3.28000000e-01	1.61187786e-02	2.07873845e-04
3.28500000e-01	1.61640606e-02	2.07626281e-04
3.29000000e-01	1.62953705e-02	2.08840315e-04
3.29500000e-01	1.64385622e-02	2.11195931e-04
3.30000000e-01	1.63435177e-02	2.09916330e-04
3.30500000e-01	1.62027772e-02	2.08298908e-04
3.31000000e-01	1.61387387e-02	2.05792406e-04
3.31500000e-01	1.59695101e-02	2.03857131e-04
3.32000000e-01	1.62382413e-02	2.07887702e-04
3.32500000e-01	1.61480188e-02	2.06287966e-04
3.33000000e-01	1.62371777e-02	2.07047272e-04
3.33500000e-01	1.60951382e-02	2.05440830e-04
3.34000000e-01	1.62728860e-02	2.07911779e-04
3.34500000e-01	1.61451380e-02	2.05547570e-04
3.35000000e-01	1.60906568e-02	2.04821928e-04
3.35500000e-01	1.62259869e-02	2.06478448e-04
3.36000000e-01	1.60726181e-02	2.03692409e-04
3.36500000e-01	1.60363481e-02	2.04243309e-04
3.37000000e-01	1.59416000e-02	2.03316221e-04
3.37500000e-01	1.63533657e-02	2.06455722e-04
3.38000000e-01	1.60544052e-02	2.04480849e-04
3.38500000e-01	1.59875537e-02	2.01882737e-04
3.39000000e-01	1.60738308e-02	2.04125672e-04
3.39500000e-01	1.60734906e-02	2.03026078e-04
3.40000000e-01	1.59587472e-02	2.02277547e-04
3.40500000e-01	1.60377338e-02	2.02248965e-04
3.41000000e-01	1.59999667e-02	2.02324605e-04
3.41500000e-01	1.60265203e-02	2.02248113e-04
3.42000000e-01	1.59231790e-02	2.00289689e-04
3.42500000e-01	1.58657496e-02	2.00055416e-04
3.43000000e-01	1.60335262e-02	2.00849036e-04
3.43500000e-01	1.59547015e-02	2.00686910e-04
3.44000000e-01	1.59425487e-02	2.00408135e-04
3.44500000e-01	1.58700618e-02	1.99436603e-04
3.45000000e-01	1.56984609e-02	1.98228364e-04
3.45500000e-01	1.58444275e-02	1.98580456e-04
3.46000000e-01	1.60028579e-02	2.00473446e-04
3.46500000e-01	1.58100877e-02	1.98633891e-04
3.47000000e-01	1.59671074e-02	1.99967593e-04
3.47500000e-01	1.59035949e-02	1.98197452e-04
3.48000000e-01	1.59595356e-02	1.99495201e-04
3.48500000e-01	1.58884921e-02	1.99301393e-04
3.49000000e-01	1.59756222e-02	1.98430630e-04
3.49500000e-01	1.61400099e-02	2.01482341e-04
3.50000000e-01	1.59171022e-02	1.62060382e-04
3.51000000e-01	1.57104800e-02	1.38477832e-04
3.52000000e-01	1.56524106e-02	1.37986312e-04
3.53000000e-01	1.58946686e-02	1.39228212e-04
3.54000000e-01	1.57566279e-02	1.37929503e-04
3.55000000e-01	1.59820479e-02	1.39534396e-04
3.56000000e-01	1.57998968e-02	1.38700043e-04
3.57000000e-01	1.56664207e-02	1.40475685e-04
3.58000000e-01	1.56445352e-02	1.41266423e-04
3.59000000e-01	1.55642786e-02	1.41700287e-04
3.60000000e-01	1.56876981e-02	1.43558072e-04
3.61000000e-01	1.55645996e-02	1.42740206e-04
3.62000000e-01	1.55745036e-02	1.43764184e-04
3.63000000e-01	1.54791726e-02	1.43533063e-04
3.64000000e-01	1.55360546e-02	1.44405092e-04
3.65000000e-01	1.53864406e-02	1.43803478e-04
3.66000000e-01	1.54702688e-02	1.42468894e-04
3.67000000e-01	1.55582293e-02	1.41352501e-04
3.68000000e-01	1.55516773e-02	1.40509196e-04
3.69000000e-01	1.53957346e-02	1.38548725e-04
3.70000000e-01	1.55024463e-02	1.38437477e-04
3.71000000e-01	1.55433067e-02	1.40635092e-04
3.72000000e-01	1.53579904e-02	1.39691838e-04
3.73000000e-01	1.53505916e-02	1.40620944e-04
3.74000000e-01	1.55431921e-02	1.42210260e-04
3.75000000e-01	1.55269892e-02	1.41977484e-04
3.76000000e-01	1.55537185e-02	1.42550818e-04
3.77000000e-01	1.54365452e-02	1.41361621e-04
3.78000000e-01	1.54627439e-02	1.41742818e-04
3.79000000e-01	1.53834399e-02	1.40812166e-04
3.80000000e-01	1.53566458e-02	1.40084028e-04
3.81000000e-01	1.54444105e-02	1.40818101e-04
3.82000000e-01	1.54046388e-02	1.40759257e-04
3.83000000e-01	1.53554946e-02	1.40148964e-04
3.84000000e-01	1.53071097e-02	1.40198051e-04
3.85000000e-01	1.53505931e-02	1.40223606e-04
3.86000000e-01	1.53646944e-02	1.40054187e-04
3.87000000e-01	1.52193614e-02	1.39000195e-04
3.88000000e-01	1.52773066e-02	1.39520648e-04
3.89000000e-01	1.52196094e-02	1.38926469e-04
3.90000000e-01	1.53580201e-02	1.39652481e-04
3.91000000e-01	1.51567615e-02	1.38195186e-04
3.92000000e-01	1.53783999e-02	1.39824196e-04
3.93000000e-01	1.52122130e-02	1.38593096e-04
3.94000000e-01	1.52691155e-02	1.38878734e-04
3.95000000e-01	1.50994986e-02	1.37304489e-04
3.96000000e-01	1.53108782e-02	1.39252292e-04
3.97000000e-01	1.52654104e-02	1.39085908e-04
3.98000000e-01	1.51939759e-02	1.38507886e-04
3.99000000e-01	1.51295511e-02	1.38092291e-04
4.00000000e-01	1.51407261e-02	1.37774371e-04
4.01000000e-01	1.50523988e-02	1.37171847e-04
4.02000000e-01	1.52035760e-02	1.38187092e-04
4.03000000e-01	1.50950291e-02	1.37384958e-04
4.04000000e-01	1.50653007e-02	1.37159058e-04
4.05000000e-01	1.50774979e-02	1.36997568e-04
4.06000000e-01	1.50687839e-02	1.37185428e-04
4.07000000e-01	1.49843712e-02	1.35905394e-04
4.08000000e-01	1.49147709e-02	1.35659953e-04
4.09000000e-01	1.51379407e-02	1.37388761e-04
4.10000000e-01	1.49878313e-02	1.36181701e-04
4.11000000e-01	1.49803234e-02	1.35797820e-04
4.12000000e-01	1.49296107e-02	1.35807579e-04
4.13000000e-01	1.49646784e-02	1.35579881e-04
4.14000000e-01	1.50873638e-02	1.37241792e-04
4.15000000e-01	1.49195369e-02	1.34968693e-04
4.16000000e-01	1.48076030e-02	1.34244817e-04
4.17000000e-01	1.48914112e-02	1.34891715e-04
4.18000000e-01	1.50234972e-02	1.37736989e-04
4.19000000e-01	1.50928873e-02	1.39841408e-04
4.20000000e-01	1.50423521e-02	1.39961902e-04
4.21000000e-01	1.49947715e-02	1.39985007e-04
4.22000000e-01	1.50164603e-02	1.41063086e-04
4.23000000e-01	1.50243028e-02	1.41507221e-04
4.24000000e-01	1.49959887e-02	1.41807835e-04
4.25000000e-01	1.50538150e-02	1.42216129e-04
4.26000000e-01	1.48864277e-02	1.40962547e-04
4.27000000e-01	1.47481622e-02	1.39678519e-04
4.28000000e-01	1.49460671e-02	1.42080335e-04
4.29000000e-01	1.49003585e-02	1.41617634e-04
4.30000000e-01	1.48813353e-02	1.41144999e-04
4.31000000e-01	1.48371714e-02	1.40644787e-04
4.32000000e-01	1.49091510e-02	1.41771088e-04
4.33000000e-01	1.46558009e-02	1.39203504e-04
4.34000000e-01	1.47484392e-02	1.40592747e-04
4.35000000e-01	1.48434300e-02	1.41709613e-04
4.36000000e-01	1.47801893e-02	1.41059709e-04
4.37000000e-01	1.48006013e-02	1.41577790e-04
4.38000000e-01	1.48292496e-02	1.41558815e-04
4.39000000e-01	1.48644780e-02	1.42103076e-04
4.40000000e-01	1.47951990e-02	1.41921365e-04
4.41000000e-01	1.47366213e-02	1.41571674e-04
4.42000000e-01	1.47614935e-02	1.41579974e-04
4.43000000e-01	1.47251841e-02	1.41893850e-04
4.44000000e-01	1.47370183e-02	1.41884789e-04
4.45000000e-01	1.45935486e-02	1.41081866e-04
4.46000000e-01	1.47394053e-02	1.42425569e-04
4.47000000e-01	1.47546627e-02	1.42756103e-04
4.48000000e-01	1.46480679e-02	1.42363691e-04
4.49000000e-01	1.45912594e-02	1.41622574e-04
4.50000000e-01	1.49124428e-02	1.44268906e-04
4.51000000e-01	1.46238169e-02	1.42083790e-04
4.52000000e-01	1.47565419e-02	1.43498002e-04
4.53000000e-01	1.46108154e-02	1.42217778e-04
4.54000000e-01	1.46594451e-02	1.42582147e-04
4.55000000e-01	1.46256834e-02	1.42779579e-04
4.56000000e-01	1.47061945e-02	1.43478511e-04
4.57000000e-01	1.45332964e-02	1.42046917e-04
4.58000000e-01	1.46176009e-02	1.42881821e-04
4.59000000e-01	1.46008625e-02	1.42983392e-04
4.60000000e-01	1.45040950e-02	1.41888472e-04
4.61000000e-01	1.46913299e-02	1.43379180e-04
4.62000000e-01	1.46407299e-02	1.43249696e-04
4.63000000e-01	1.45206150e-02	1.42769159e-04
4.64000000e-01	1.46006306e-02	1.43684802e-04
4.65000000e-01	1.46136316e-02	1.43517528e-04
4.66000000e-01	1.46286964e-02	1.43964270e-04
4.67000000e-01	1.44786583e-02	1.42378636e-04
4.68000000e-01	1.44355761e-02	1.42120669e-04
4.69000000e-01	1.44622023e-02	1.42786058e-04
4.70000000e-01	1.45904576e-02	1.44022427e-04
4.71000000e-01	1.46230163e-02	1.44150701e-04
4.72000000e-01	1.44194245e-02	1.42258962e-04
4.73000000e-01	1.46053767e-02	1.43676777e-04
4.74000000e-01	1.45649108e-02	1.43261651e-04
4.75000000e-01	1.44624032e-02	1.42269467e-04
4.76000000e-01	1.43954993e-02	1.42144509e-04
4.77000000e-01	1.44443845e-02	1.41968971e-04
4.78000000e-01	1.44393610e-02	1.42486087e-04
4.79000000e-01	1.44383289e-02	1.42024678e-04
4.80000000e-01	1.43391867e-02	1.40991132e-04
4.81000000e-01	1.44301906e-02	1.42633536e-04
4.82000000e-01	1.43165017e-02	1.41395851e-04
4.83000000e-01	1.42817268e-02	1.41211167e-04
4.84000000e-01	1.43338687e-02	1.41586271e-04
4.85000000e-01	1.44105526e-02	1.42764610e-04
4.86000000e-01	1.42576191e-02	1.41690342e-04
4.87000000e-01	1.43026361e-02	1.41868973e-04
4.88000000e-01	1.42393394e-02	1.40971365e-04
4.89000000e-01	1.42924995e-02	1.42262680e-04
4.90000000e-01	1.43075338e-02	1.41915545e-04
4.91000000e-01	1.43326417e-02	1.42241128e-04
4.92000000e-01	1.44134072e-02	1.43269562e-04
4.93000000e-01	1.41683417e-02	1.40541121e-04
4.94000000e-01	1.42564841e-02	1.42598117e-04
4.95000000e-01	1.42676073e-02	1.43447383e-04
4.96000000e-01	1.43185888e-02	1.47387401e-04
4.97000000e-01	1.42064718e-02	1.49002293e-04
4.98000000e-01	1.42867321e-02	1.52207229e-04
4.99000000e-01	1.42228730e-02	1.53315583e-04
5.00000000e-01	1.41785713e-02	1.54134426e-04
5.01000000e-01	1.40994901e-02	1.55302911e-04
5.02000000e-01	1.43037050e-02	1.58813641e-04
5.03000000e-01	1.41730728e-02	1.58833041e-04
5.04000000e-01	1.40408310e-02	1.58946505e-04
5.05000000e-01	1.43487590e-02	1.59468993e-04
5.06000000e-01	1.43195156e-02	1.55427639e-04
5.07000000e-01	1.41599070e-02	1.52470031e-04
5.08000000e-01	1.42037264e-02	1.52239497e-04
5.09000000e-01	1.42990923e-02	1.52120802e-04
5.10000000e-01	1.42617898e-02	1.51549498e-04
5.11000000e-01	1.41242152e-02	1.49153536e-04
5.12000000e-01	1.41759520e-02	1.49742132e-04
5.13000000e-01	1.40042852e-02	1.48047587e-04
5.14000000e-01	1.40964217e-02	1.48401224e-04
5.15000000e-01	1.42278253e-02	1.49672015e-04
5.16000000e-01	1.42527143e-02	1.49463277e-04
5.17000000e-01	1.42068035e-02	1.48786520e-04
5.18000000e-01	1.40609481e-02	1.46978062e-04
5.19000000e-01	1.40394784e-02	1.46374990e-04
5.20000000e-01	1.41827477e-02	1.47332497e-04
5.21000000e-01	1.41509111e-02	1.46960568e-04
5.22000000e-01	1.40014550e-02	1.45384117e-04
5.23000000e-01	1.40669300e-02	1.46052401e-04
5.24000000e-01	1.40374048e-02	1.46085076e-04
5.25000000e-01	1.39573571e-02	1.44613895e-04
5.26000000e-01	1.39648992e-02	1.44639298e-04
5.27000000e-01	1.39675343e-02	1.44829325e-04
5.28000000e-01	1.39165128e-02	1.44424196e-04
5.29000000e-01	1.39271383e-02	1.45508749e-04
5.30000000e-01	1.40953807e-02	1.46055869e-04
5.31000000e-01	1.39324087e-02	1.44780698e-04
5.32000000e-01	1.39782801e-02	1.45044211e-04
5.33000000e-01	1.38993933e-02	1.44474686e-04
5.34000000e-01	1.39817025e-02	1.45406037e-04
5.35000000e-01	1.39962651e-02	1.45422271e-04
5.36000000e-01	1.39372213e-02	1.45059454e-04
5.37000000e-01	1.39665069e-02	1.44825724e-04
5.38000000e-01	1.38555879e-02	1.43450164e-04
5.39000000e-01	1.39548911e-02	1.44538194e-04
5.40000000e-01	1.39458768e-02	1.44907044e-04
5.41000000e-01	1.37764305e-02	1.43035505e-04
5.42000000e-01	1.39185705e-02	1.44867962e-04
5.43000000e-01	1.38609095e-02	1.44145931e-04
5.44000000e-01	1.38049377e-02	1.43578272e-04
5.45000000e-01	1.38072597e-02	1.43271287e-04
5.46000000e-01	1.39273494e-02	1.44481857e-04
5.47000000e-01	1.37675049e-02	1.42737287e-04
5.48000000e-01	1.38156876e-02	1.43212422e-04
5.49000000e-01	1.39207319e-02	1.44038231e-04
5.50000000e-01	1.37423501e-02	1.42383052e-04
5.51000000e-01	1.37752710e-02	1.42095786e-04
5.52000000e-01	1.37715062e-02	1.42383503e-04
5.53000000e-01	1.37643338e-02	1.42060930e-04
5.54000000e-01	1.38321728e-02	1.42473187e-04
5.55000000e-01	1.37024037e-02	1.41325608e-04
5.56000000e-01	1.36519424e-02	1.40946308e-04
5.57000000e-01	1.36648584e-02	1.41085130e-04
5.58000000e-01	1.35695816e-02	1.39919705e-04
5.59000000e-01	1.37442144e-02	1.41461472e-04
5.60000000e-01	1.36408735e-02	1.40510681e-04
5.61000000e-01	1.35383384e-02	1.39936122e-04
5.62000000e-01	1.36949594e-02	1.41425922e-04
5.63000000e-01	1.35435962e-02	1.40009454e-04
5.64000000e-01	1.35427380e-02	1.40113032e-04
5.65000000e-01	1.35827308e-02	1.40508887e-04
5.66000000e-01	1.35467270e-02	1.40354577e-04
5.67000000e-01	1.35337422e-02	1.40611377e-04
5.68000000e-01	1.35978751e-02	1.40733340e-04
5.69000000e-01	1.36225413e-02	1.40255176e-04
5.70000000e-01	1.34672595e-02	1.39111171e-04
5.71000000e-01	1.34866180e-02	1.39239459e-04
5.72000000e-01	1.35495527e-02	1.39659216e-04
5.73000000e-01	1.34962609e-02	1.40006211e-04
5.74000000e-01	1.35158770e-02	1.39102280e-04
5.75000000e-01	1.33721298e-02	1.38792999e-04
5.76000000e-01	1.33256676e-02	1.38120442e-04
5.77000000e-01	1.35066709e-02	1.39631344e-04
5.78000000e-01	1.34494420e-02	1.39264775e-04
5.79000000e-01	1.32509399e-02	1.37292543e-04
5.80000000e-01	1.33052004e-02	1.38370925e-04
5.81000000e-01	1.34772961e-02	1.39800682e-04
5.82000000e-01	1.34373167e-02	1.39088621e-04
5.83000000e-01	1.34175681e-02	1.39412188e-04
5.84000000e-01	1.33606455e-02	1.38604901e-04
5.85000000e-01	1.33041926e-02	1.37985902e-04
5.86000000e-01	1.34436968e-02	1.39513745e-04
5.87000000e-01	1.33483518e-02	1.38520234e-04
5.88000000e-01	1.33547128e-02	1.38754863e-04
5.89000000e-01	1.33666308e-02	1.38856975e-04
5.90000000e-01	1.32644109e-02	1.37445527e-04
5.91000000e-01	1.33425145e-02	1.38365709e-04
5.92000000e-01	1.32644418e-02	1.37465591e-04
5.93000000e-01	1.32524067e-02	1.38078128e-04
5.94000000e-01	1.33705920e-02	1.39274208e-04
5.95000000e-01	1.32187439e-02	1.37681264e-04
5.96000000e-01	1.33055867e-02	1.38652157e-04
5.97000000e-01	1.32727649e-02	1.38013406e-04
5.98000000e-01	1.34803480e-02	1.39776603e-04
5.99000000e-01	1.31907269e-02	1.37636499e-04
6.00000000e-01	1.32299689e-02	1.37729730e-04
6.01000000e-01	1.32431984e-02	1.37826262e-04
6.02000000e-01	1.32689345e-02	1.38151180e-04
6.03000000e-01	1.33704641e-02	1.39105482e-04
6.04000000e-01	1.33161200e-02	1.37866181e-04
6.05000000e-01	1.31492794e-02	1.36602621e-04
6.06000000e-01	1.32529810e-02	1.38295388e-04
6.07000000e-01	1.31878711e-02	1.37363778e-04
6.08000000e-01	1.32479463e-02	1.37696700e-04
6.09000000e-01	1.31278815e-02	1.36977517e-04
6.10000000e-01	1.31001143e-02	1.37004234e-04
6.11000000e-01	1.31906874e-02	1.37194059e-04
6.12000000e-01	1.31451708e-02	1.37278228e-04
6.13000000e-01	1.32404282e-02	1.37893936e-04
6.14000000e-01	1.30371098e-02	1.36017652e-04
6.15000000e-01	1.30926301e-02	1.36332046e-04
6.16000000e-01	1.30609922e-02	1.36559751e-04
6.17000000e-01	1.30464342e-02	1.36553766e-04
6.18000000e-01	1.31201494e-02	1.36977605e-04
6.19000000e-01	1.31057813e-02	1.36454500e-04
6.20000000e-01	1.32056701e-02	1.37241833e-04
6.21000000e-01	1.31081130e-02	1.36162214e-04
6.22000000e-01	1.30635470e-02	1.36563142e-04
6.23000000e-01	1.30733231e-02	1.35725554e-04
6.24000000e-01	1.30471318e-02	1.34913657e-04
6.25000000e-01	1.30386628e-02	1.35500982e-04
6.26000000e-01	1.30266216e-02	1.34778471e-04
6.27000000e-01	1.30591944e-02	1.35400172e-04
6.28000000e-01	1.28857713e-02	1.33373337e-04
6.29000000e-01	1.31097901e-02	1.35621746e-04
6.30000000e-01	1.29849673e-02	1.34107575e-04
6.31000000e-01	1.29811201e-02	1.34326964e-04
6.32000000e-01	1.29000529e-02	1.33945008e-04
6.33000000e-01	1.30506239e-02	1.35243310e-04
6.34000000e-01	1.29371715e-02	1.37434472e-04
6.35000000e-01	1.30311318e-02	1.43054957e-04
6.36000000e-01	1.29215773e-02	1.44090805e-04
6.37000000e-01	1.29857883e-02	1.47083651e-04
6.38000000e-01	1.31638970e-02	1.50547706e-04
6.39000000e-01	1.32564278e-02	1.53334065e-04
6.40000000e-01	1.29872892e-02	1.52817746e-04
6.41000000e-01	1.29775265e-02	1.54551445e-04
6.42000000e-01	1.29828856e-02	1.56476117e-04
6.43000000e-01	1.29548534e-02	1.55656087e-04
6.44000000e-01	1.30861357e-02	1.51903135e-04
6.45000000e-01	1.30189965e-02	1.48828699e-04
6.46000000e-01	1.30738356e-02	1.47520679e-04
6.47000000e-01	1.29715055e-02	1.45951372e-04
6.48000000e-01	1.29106158e-02	1.43631114e-04
6.49000000e-01	1.29033799e-02	1.42882712e-04
6.50000000e-01	1.30855215e-02	1.44928550e-04
6.51000000e-01	1.30333501e-02	1.43223044e-04
6.52000000e-01	1.28629125e-02	1.41089961e-04
6.53000000e-01	1.30656279e-02	1.42374687e-04
6.54000000e-01	1.31578152e-02	1.42843320e-04
6.55000000e-01	1.31016320e-02	1.42415630e-04
6.56000000e-01	1.30173433e-02	1.41193631e-04
6.57000000e-01	1.29034110e-02	1.40065126e-04
6.58000000e-01	1.28973102e-02	1.39739730e-04
6.59000000e-01	1.30321637e-02	1.40910938e-04
6.60000000e-01	1.29311647e-02	1.39532559e-04
6.61000000e-01	1.29435079e-02	1.39552885e-04
6.62000000e-01	1.28378650e-02	1.38872273e-04
6.63000000e-01	1.29590751e-02	1.39681951e-04
6.64000000e-01	1.28885812e-02	1.38730698e-04
6.65000000e-01	1.29522959e-02	1.39824841e-04
6.66000000e-01	1.28236108e-02	1.38003715e-04
6.67000000e-01	1.28452523e-02	1.38480767e-04
6.68000000e-01	1.29175705e-02	1.38863618e-04
6.69000000e-01	1.27605732e-02	1.37264952e-04
6.70000000e-01	1.29512730e-02	1.39483156e-04
6.71000000e-01	1.28875649e-02	1.38778977e-04
6.72000000e-01	1.29245178e-02	1.38767619e-04
6.73000000e-01	1.28821995e-02	1.37984405e-04
6.74000000e-01	1.28243362e-02	1.38160527e-04
6.75000000e-01	1.28312614e-02	1.37842602e-04
6.76000000e-01	1.26525630e-02	1.36343368e-04
6.77000000e-01	1.28169807e-02	1.38101405e-04
6.78000000e-01	1.28091739e-02	1.37431531e-04
6.79000000e-01	1.28782647e-02	1.37701608e-04
6.80000000e-01	1.25942913e-02	1.35016587e-04
6.81000000e-01	1.27951170e-02	1.36750561e-04
6.82000000e-01	1.27593772e-02	1.36310993e-04
6.83000000e-01	1.27463271e-02	1.36450724e-04
6.84000000e-01	1.26100181e-02	1.35020640e-04
6.85000000e-01	1.27225991e-02	1.36149668e-04
6.86000000e-01	1.28113516e-02	1.37217568e-04
6.87000000e-01	1.27688784e-02	1.37068392e-04
6.88000000e-01	1.26721762e-02	1.35491672e-04
6.89000000e-01	1.27252138e-02	1.35723968e-04
6.90000000e-01	1.27423738e-02	1.36815740e-04
6.91000000e-01	1.27655672e-02	1.36426079e-04
6.92000000e-01	1.26354583e-02	1.35676861e-04
6.93000000e-01	1.27052177e-02	1.36025307e-04
6.94000000e-01	1.26915184e-02	1.35913910e-04
6.95000000e-01	1.26339506e-02	1.35400908e-04
6.96000000e-01	1.27310714e-02	1.36136887e-04
6.97000000e-01	1.25845891e-02	1.34894420e-04
6.98000000e-01	1.26820630e-02	1.35956277e-04
6.99000000e-01	1.25201363e-02	1.34397845e-04
7.00000000e-01	1.25861729e-02	1.34419483e-04
7.01000000e-01	1.26177743e-02	1.34541818e-04
7.02000000e-01	1.25697579e-02	1.34518920e-04
7.03000000e-01	1.27214278e-02	1.35998305e-04
7.04000000e-01	1.26151977e-02	1.35387261e-04
7.05000000e-01	1.26582444e-02	1.35506568e-04
7.06000000e-01	1.24913109e-02	1.34123791e-04
7.07000000e-01	1.25869659e-02	1.34393563e-04
7.08000000e-01	1.25656633e-02	1.34064729e-04
7.09000000e-01	1.23812688e-02	1.33024462e-04
7.10000000e-01	1.23959458e-02	1.32449672e-04
7.11000000e-01	1.25313961e-02	1.33715679e-04
7.12000000e-01	1.23316346e-02	1.32019283e-04
7.13000000e-01	1.22440912e-02	1.31126462e-04
7.14000000e-01	1.22876433e-02	1.31778742e-04
7.15000000e-01	1.23112928e-02	1.31796879e-04
7.16000000e-01	1.24363723e-02	1.33429782e-04
7.17000000e-01	1.22523572e-02	1.31608202e-04
7.18000000e-01	1.22707174e-02	1.31591015e-04
7.19000000e-01	1.24705807e-02	1.33273480e-04
7.20000000e-01	1.22117271e-02	1.31129997e-04
7.21000000e-01	1.22911714e-02	1.31788108e-04
7.22000000e-01	1.23646074e-02	1.32418887e-04
7.23000000e-01	1.21058814e-02	1.30082609e-04
7.24000000e-01	1.21671647e-02	1.30625513e-04
7.25000000e-01	1.22227100e-02	1.31264797e-04
7.26000000e-01	1.23043108e-02	1.32109575e-04
7.27000000e-01	1.22539773e-02	1.31573926e-04
7.28000000e-01	1.21623265e-02	1.30657554e-04
7.29000000e-01	1.22225234e-02	1.30985683e-04
7.30000000e-01	1.22028946e-02	1.30992467e-04
7.31000000e-01	1.23382211e-02	1.32093488e-04
7.32000000e-01	1.22026712e-02	1.31137974e-04
7.33000000e-01	1.21469065e-02	1.30521051e-04
7.34000000e-01	1.22346005e-02	1.31590045e-04
7.35000000e-01	1.21642549e-02	1.30308224e-04
7.36000000e-01	1.23012196e-02	1.30665134e-04
7.37000000e-01	1.21517327e-02	1.29715638e-04
7.38000000e-01	1.20833517e-02	1.29011305e-04
7.39000000e-01	1.20403031e-02	1.28399350e-04
7.40000000e-01	1.21389391e-02	1.29092347e-04
7.41000000e-01	1.23337340e-02	1.30429408e-04
7.42000000e-01	1.20748302e-02	1.27881651e-04
7.43000000e-01	1.22380831e-02	1.29295492e-04
7.44000000e-01	1.20020464e-02	1.27699531e-04
7.45000000e-01	1.20572876e-02	1.27634065e-04
7.46000000e-01	1.21415948e-02	1.28925280e-04
7.47000000e-01	1.19506828e-02	1.27011860e-04
7.48000000e-01	1.20902610e-02	1.28289466e-04
7.49000000e-01	1.19667942e-02	1.27131282e-04
7.50000000e-01	1.19933730e-02	1.27585048e-04
7.51000000e-01	1.19676174e-02	1.27075857e-04
7.52000000e-01	1.20854636e-02	1.28349965e-04
7.53000000e-01	1.20136332e-02	1.27595522e-04
7.54000000e-01	1.20190818e-02	1.27400539e-04
7.55000000e-01	1.19915029e-02	1.27307802e-04
7.56000000e-01	1.21238374e-02	1.28295147e-04
7.57000000e-01	1.20368912e-02	1.27893908e-04
7.58000000e-01	1.19307706e-02	1.27278064e-04
7.59000000e-01	1.20308641e-02	1.27124916e-04
7.60000000e-01	1.19021069e-02	1.26355509e-04
7.61000000e-01	1.18715759e-02	1.26010350e-04
7.62000000e-01	1.18482345e-02	1.25530115e-04
7.63000000e-01	1.20025458e-02	1.27056137e-04
7.64000000e-01	1.18838212e-02	1.25287071e-04
7.65000000e-01	1.18946301e-02	1.25466745e-04
7.66000000e-01	1.18197285e-02	1.24881862e-04
7.67000000e-01	1.18615615e-02	1.25318511e-04
7.68000000e-01	1.18973415e-02	1.25058654e-04
7.69000000e-01	1.18543409e-02	1.24972050e-04
7.70000000e-01	1.18650049e-02	1.25244091e-04
7.71000000e-01	1.18708855e-02	1.24961028e-04
7.72000000e-01	1.17719345e-02	1.28251518e-04
7.73000000e-01	1.18184425e-02	1.32390123e-04
7.74000000e-01	1.17925443e-02	1.34720684e-04
7.75000000e-01	1.15655846e-02	1.34641066e-04
7.76000000e-01	1.16168928e-02	1.37518453e-04
7.77000000e-01	1.17168910e-02	1.41198150e-04
7.78000000e-01	1.17854310e-02	1.43348760e-04
7.79000000e-01	1.19602752e-02	1.46785937e-04
7.80000000e-01	1.17542783e-02	1.46084612e-04
7.81000000e-01	1.17696332e-02	1.48278538e-04
7.82000000e-01	1.17888522e-02	1.50128234e-04
7.83000000e-01	1.16544536e-02	1.50685505e-04
7.84000000e-01	1.16803601e-02	1.51901697e-04
7.85000000e-01	1.16220199e-02	1.53220254e-04
7.86000000e-01	1.16971730e-02	1.55718973e-04
7.87000000e-01	1.15130914e-02	1.54660160e-04
7.88000000e-01	1.15265687e-02	1.56032411e-04
7.89000000e-01	1.16082804e-02	1.58109820e-04
7.90000000e-01	1.17009614e-02	1.60976766e-04
7.91000000e-01	1.16483398e-02	1.62344175e-04
7.92000000e-01	1.15592732e-02	1.63302317e-04
7.93000000e-01	1.15433298e-02	1.64749893e-04
7.94000000e-01	1.14622594e-02	1.65553228e-04
7.95000000e-01	1.16095449e-02	1.68410321e-04
7.96000000e-01	1.15018037e-02	1.69108334e-04
7.97000000e-01	1.15217431e-02	1.70947843e-04
7.98000000e-01	1.15525730e-02	1.72978191e-04
7.99000000e-01	1.14557771e-02	1.73539630e-04
8.00000000e-01	1.14665787e-02	1.75566830e-04
8.01000000e-01	1.15178086e-02	1.78777934e-04
8.02000000e-01	1.13738932e-02	1.77253503e-04
8.03000000e-01	1.16035354e-02	1.83476207e-04
8.04000000e-01	1.12816973e-02	1.80614572e-04
8.05000000e-01	1.13694185e-02	1.84277355e-04
8.06000000e-01	1.13206104e-02	1.85561186e-04
8.07000000e-01	1.14163387e-02	1.87701001e-04
8.08000000e-01	1.13440061e-02	1.89698095e-04
8.09000000e-01	1.13028814e-02	1.91524665e-04
8.10000000e-01	1.14516477e-02	1.95124209e-04
8.11000000e-01	1.14640214e-02	1.97817111e-04
8.12000000e-01	1.13442018e-02	1.97973871e-04
8.13000000e-01	1.13336151e-02	1.99668604e-04
8.14000000e-01	1.13664472e-02	2.01999914e-04
8.15000000e-01	1.11904764e-02	2.02375437e-04
8.16000000e-01	1.12849415e-02	2.04674985e-04
8.17000000e-01	1.14423131e-02	2.11270255e-04
8.18000000e-01	1.10464252e-02	2.07550089e-04
8.19000000e-01	1.13627702e-02	2.14744620e-04
8.20000000e-01	1.10418122e-02	2.12310289e-04
8.21000000e-01	1.11146022e-02	2.17452533e-04
8.22000000e-01	1.11682534e-02	2.20665398e-04
8.23000000e-01	1.10175660e-02	2.21707307e-04
8.24000000e-01	1.12679302e-02	2.27772800e-04
8.25000000e-01	1.12579758e-02	2.31702125e-04
8.26000000e-01	1.12292119e-02	2.34677891e-04
8.27000000e-01	1.13647981e-02	2.40207880e-04
8.28000000e-01	1.12332762e-02	2.42103763e-04
8.29000000e-01	1.08247817e-02	2.39191705e-04
8.30000000e-01	1.11758472e-02	2.48786266e-04
8.31000000e-01	1.12174990e-02	2.51865525e-04
8.32000000e-01	1.09948974e-02	2.52167121e-04
8.33000000e-01	1.08999335e-02	2.53875351e-04
8.34000000e-01	1.11177149e-02	2.63803632e-04
8.35000000e-01	1.11509962e-02	2.69007116e-04
8.36000000e-01	1.08915925e-02	2.71125734e-04
8.37000000e-01	1.06942262e-02	2.67696870e-04
8.38000000e-01	1.10661052e-02	2.86535824e-04
8.39000000e-01	1.07070282e-02	2.80868288e-04
8.40000000e-01	1.08790044e-02	2.90043922e-04
8.41000000e-01	1.08076824e-02	2.92274231e-04
8.42000000e-01	1.05871644e-02	2.97917865e-04
8.43000000e-01	1.06885354e-02	3.07992199e-04
8.44000000e-01	1.08673309e-02	3.17074254e-04
8.45000000e-01	1.09619126e-02	3.30017803e-04
8.46000000e-01	1.10115455e-02	3.39240167e-04
8.47000000e-01	1.08151655e-02	3.46332355e-04
8.48000000e-01	1.05435096e-02	3.47496347e-04
8.49000000e-01	1.06981259e-02	3.60598983e-04
8.50000000e-01	1.13384926e-02	3.96587219e-04
8.51000000e-01	1.10412983e-02	4.01799374e-04
8.52000000e-01	1.04837777e-02	3.96247665e-04
8.53000000e-01	1.09094070e-02	4.28601843e-04
8.54000000e-01	1.07482951e-02	4.44739464e-04
8.55000000e-01	1.08521609e-02	4.64593607e-04
8.56000000e-01	1.03493558e-02	4.52238947e-04
8.57000000e-01	1.07699818e-02	4.74689231e-04
8.58000000e-01	1.08440528e-02	4.98434283e-04
8.59000000e-01	1.03986019e-02	5.04272566e-04
8.60000000e-01	1.04484540e-02	5.16913066e-04
8.61000000e-01	1.00976543e-02	5.22637981e-04
8.62000000e-01	9.96938141e-03	5.38616218e-04
8.63000000e-01	1.08317214e-02	6.06189319e-04
8.64000000e-01	1.08325292e-02	6.14036742e-04
8.65000000e-01	1.07927043e-02	6.52059724e-04
8.66000000e-01	1.11036982e-02	7.05831135e-04
8.67000000e-01	1.08321026e-02	7.11804635e-04
8.68000000e-01	1.05748001e-02	7.60529526e-04
8.69000000e-01	1.11020703e-02	8.36583305e-04
8.70000000e-01	1.07514551e-02	9.10191040e-04
8.71000000e-01	1.05766361e-02	9.86660045e-04
8.72000000e-01	1.11339244e-02	1.17959013e-03
8.73000000e-01	1.07448734e-02	1.32098566e-03
8.74000000e-01	1.02846027e-02	1.68801492e-03
8.75000000e-01	1.01381104e-02	3.55374049e-03
