% Filename : SDL7c_00026_00055.h5
% Date & Time : 30-Oct-2025 17:04:10
% X-ray Energy (keV) : 13.30001
% Exposure Time (s) : 0.500
% Beam Center : 1461.24000, 208.98300
% Sample to Detector Distance (SDD) (mm) : 1990.750
% Detector Pixel Size (mm) : 0.075
% Photodiode Value : 141058.000
% I0 of Sample : 0
% I0 of Standard : 1
% 
% q(A^-1)   I(q)    I(q)_SE
0.00000000e+00	6.40399521e-03	3.38867232e-03
2.50000000e-04	0.00000000e+00	0.00000000e+00
5.00000000e-04	0.00000000e+00	0.00000000e+00
7.50000000e-04	0.00000000e+00	0.00000000e+00
1.00000000e-03	0.00000000e+00	0.00000000e+00
1.25000000e-03	0.00000000e+00	0.00000000e+00
1.50000000e-03	0.00000000e+00	0.00000000e+00
1.75000000e-03	0.00000000e+00	0.00000000e+00
2.00000000e-03	0.00000000e+00	0.00000000e+00
2.25000000e-03	0.00000000e+00	0.00000000e+00
2.50000000e-03	0.00000000e+00	0.00000000e+00
2.75000000e-03	0.00000000e+00	0.00000000e+00
3.00000000e-03	0.00000000e+00	0.00000000e+00
3.25000000e-03	1.50942873e+02	1.05358870e+02
3.50000000e-03	2.90185647e+01	1.88288083e+01
3.75000000e-03	8.60136889e+00	6.23284294e+00
4.00000000e-03	1.01899483e+01	6.05248371e+00
4.25000000e-03	4.14132593e+00	2.71550196e+00
4.50000000e-03	5.38542029e+00	2.69741492e+00
4.75000000e-03	5.50800751e+00	2.06908957e+00
5.00000000e-03	4.44532544e+00	1.62568822e+00
5.25000000e-03	3.74262719e+00	1.35273884e+00
5.50000000e-03	2.96488275e+00	1.03080811e+00
5.75000000e-03	2.66514168e+00	9.39746226e-01
6.00000000e-03	2.21226402e+00	7.72196396e-01
6.25000000e-03	1.98871848e+00	6.93322979e-01
6.50000000e-03	1.71064967e+00	5.74038351e-01
6.75000000e-03	1.50878859e+00	5.05742042e-01
7.00000000e-03	1.30577080e+00	4.22588472e-01
7.25000000e-03	1.10279197e+00	3.53796115e-01
7.50000000e-03	1.03400634e+00	3.45352380e-01
7.75000000e-03	8.81221424e-01	2.86359119e-01
8.00000000e-03	7.79066828e-01	2.49118959e-01
8.25000000e-03	6.68949920e-01	2.11296625e-01
8.50000000e-03	5.79210486e-01	1.73737821e-01
8.75000000e-03	5.22349049e-01	1.52494970e-01
9.00000000e-03	4.58393824e-01	1.31099039e-01
9.25000000e-03	4.04599164e-01	1.12059189e-01
9.50000000e-03	3.58637411e-01	9.76473782e-02
9.75000000e-03	3.11763797e-01	8.34221706e-02
1.00000000e-02	2.50464117e-01	6.66798660e-02
1.02500000e-02	2.67608190e-01	7.08000741e-02
1.05000000e-02	2.36213178e-01	5.90437816e-02
1.07500000e-02	2.17906757e-01	5.38137797e-02
1.10000000e-02	1.89624729e-01	4.58518209e-02
1.12500000e-02	1.84622805e-01	4.59105524e-02
1.15000000e-02	1.73519699e-01	4.11402678e-02
1.17500000e-02	1.41309495e-01	3.39013277e-02
1.20000000e-02	1.49714001e-01	3.76864979e-02
1.22500000e-02	1.40526565e-01	3.40378035e-02
1.25000000e-02	1.32060283e-01	3.09959487e-02
1.27500000e-02	1.26143785e-01	2.99634146e-02
1.30000000e-02	1.17721885e-01	2.65617701e-02
1.32500000e-02	1.08985615e-01	2.36703470e-02
1.35000000e-02	1.07564867e-01	2.37804537e-02
1.37500000e-02	9.91406575e-02	2.20517988e-02
1.40000000e-02	9.23877452e-02	2.06540277e-02
1.42500000e-02	8.87440604e-02	1.93137175e-02
1.45000000e-02	8.40588284e-02	1.71502882e-02
1.47500000e-02	7.88789804e-02	1.62528015e-02
1.50000000e-02	7.39432013e-02	1.38956435e-02
1.52500000e-02	6.98127812e-02	1.32225003e-02
1.55000000e-02	6.33921241e-02	1.17384704e-02
1.57500000e-02	6.30281100e-02	1.13321934e-02
1.60000000e-02	5.89517927e-02	1.03163945e-02
1.62500000e-02	5.53930090e-02	9.40558729e-03
1.65000000e-02	5.50209214e-02	8.80657337e-03
1.67500000e-02	5.26931275e-02	7.94142626e-03
1.70000000e-02	4.99099784e-02	7.17967832e-03
1.72500000e-02	4.88463194e-02	7.04304182e-03
1.75000000e-02	4.74318612e-02	6.88987355e-03
1.77500000e-02	4.68769937e-02	6.84223937e-03
1.80000000e-02	4.62441001e-02	6.75964000e-03
1.82500000e-02	4.41908836e-02	6.29332457e-03
1.85000000e-02	4.06187711e-02	5.65116676e-03
1.87500000e-02	4.40825608e-02	6.11302242e-03
1.90000000e-02	4.29780107e-02	5.56172250e-03
1.92500000e-02	4.16527110e-02	5.64625720e-03
1.95000000e-02	4.07327550e-02	5.57291470e-03
1.97500000e-02	3.95063949e-02	5.56407891e-03
2.00000000e-02	3.83902138e-02	4.96641971e-03
2.02500000e-02	3.53151257e-02	4.26063245e-03
2.05000000e-02	3.70882730e-02	4.30448132e-03
2.07500000e-02	3.65775684e-02	4.11564568e-03
2.10000000e-02	3.51295171e-02	4.08245240e-03
2.12500000e-02	3.37019873e-02	3.70175213e-03
2.15000000e-02	3.46150243e-02	3.85357313e-03
2.17500000e-02	3.35664526e-02	3.56506599e-03
2.20000000e-02	3.21396867e-02	3.31444025e-03
2.22500000e-02	3.27161054e-02	2.91747344e-03
2.25000000e-02	3.28004252e-02	3.29598995e-03
2.27500000e-02	3.12536521e-02	2.98164061e-03
2.30000000e-02	3.16444664e-02	2.74890491e-03
2.32500000e-02	3.00928357e-02	2.54991411e-03
2.35000000e-02	3.05721981e-02	2.55405846e-03
2.37500000e-02	3.03852564e-02	2.45129318e-03
2.40000000e-02	2.96752178e-02	2.43056637e-03
2.42500000e-02	3.01345042e-02	2.39690379e-03
2.45000000e-02	2.94487595e-02	2.32878868e-03
2.47500000e-02	2.93790454e-02	2.20822407e-03
2.50000000e-02	2.83041313e-02	2.29751591e-03
2.52500000e-02	2.83179886e-02	2.08889705e-03
2.55000000e-02	2.92938567e-02	2.24925455e-03
2.57500000e-02	2.83711668e-02	2.17811703e-03
2.60000000e-02	2.85222082e-02	2.22329546e-03
2.62500000e-02	2.88988170e-02	2.19190543e-03
2.65000000e-02	2.79375173e-02	2.18288441e-03
2.67500000e-02	2.75696774e-02	1.96490526e-03
2.70000000e-02	2.64241206e-02	1.95230318e-03
2.72500000e-02	2.74765942e-02	1.83283861e-03
2.75000000e-02	2.73213280e-02	1.98459402e-03
2.77500000e-02	2.65495814e-02	1.80128128e-03
2.80000000e-02	2.78516388e-02	1.89279435e-03
2.82500000e-02	2.69247556e-02	1.71004254e-03
2.85000000e-02	2.62183228e-02	1.64609984e-03
2.87500000e-02	2.55637373e-02	1.54984458e-03
2.90000000e-02	2.52932335e-02	1.58598101e-03
2.92500000e-02	2.69305258e-02	1.53297767e-03
2.95000000e-02	2.61541805e-02	1.47179323e-03
2.97500000e-02	2.57836758e-02	1.53347371e-03
3.00000000e-02	2.65954442e-02	1.54954930e-03
3.02500000e-02	2.72184196e-02	1.51504956e-03
3.05000000e-02	2.66065701e-02	1.36244028e-03
3.07500000e-02	2.59035678e-02	1.41127521e-03
3.10000000e-02	2.66242033e-02	1.49343830e-03
3.12500000e-02	2.58427968e-02	1.40572119e-03
3.15000000e-02	2.54112495e-02	1.35880209e-03
3.17500000e-02	2.58787248e-02	1.31863149e-03
3.20000000e-02	2.51732754e-02	1.31262129e-03
3.22500000e-02	2.62255547e-02	1.40841144e-03
3.25000000e-02	2.46313577e-02	1.22950190e-03
3.27500000e-02	2.51334514e-02	1.29513435e-03
3.30000000e-02	2.50356361e-02	1.26335438e-03
3.32500000e-02	2.41508139e-02	1.28742580e-03
3.35000000e-02	2.52684629e-02	1.27927335e-03
3.37500000e-02	2.44890391e-02	1.23395155e-03
3.40000000e-02	2.42536633e-02	1.22018439e-03
3.42500000e-02	2.47708103e-02	1.20194537e-03
3.45000000e-02	2.35401668e-02	1.16050887e-03
3.47500000e-02	2.39928021e-02	1.14267425e-03
3.50000000e-02	2.38704035e-02	1.15523109e-03
3.52500000e-02	2.33893154e-02	1.11371894e-03
3.55000000e-02	2.41669930e-02	1.14288654e-03
3.57500000e-02	2.32590772e-02	1.10002045e-03
3.60000000e-02	2.38769021e-02	1.12293352e-03
3.62500000e-02	2.33686781e-02	1.11269534e-03
3.65000000e-02	2.32904685e-02	1.11933369e-03
3.67500000e-02	2.29325547e-02	1.08147156e-03
3.70000000e-02	2.35850846e-02	1.11663832e-03
3.72500000e-02	2.38766192e-02	1.14005135e-03
3.75000000e-02	2.32880498e-02	1.09921064e-03
3.77500000e-02	2.20537586e-02	1.02380079e-03
3.80000000e-02	2.35076829e-02	1.07985265e-03
3.82500000e-02	2.20158103e-02	9.96326940e-04
3.85000000e-02	2.27674779e-02	1.03906117e-03
3.87500000e-02	2.23675081e-02	1.01899319e-03
3.90000000e-02	2.27452067e-02	1.02665206e-03
3.92500000e-02	2.27988731e-02	1.03064564e-03
3.95000000e-02	2.29081079e-02	1.04407001e-03
3.97500000e-02	2.19967790e-02	9.89263591e-04
4.00000000e-02	2.26636828e-02	1.00621857e-03
4.02500000e-02	2.20167684e-02	9.90380295e-04
4.05000000e-02	2.16323705e-02	9.51428289e-04
4.07500000e-02	2.26922967e-02	9.85251119e-04
4.10000000e-02	2.24737574e-02	1.00391169e-03
4.12500000e-02	2.24624265e-02	1.00568654e-03
4.15000000e-02	2.25485553e-02	9.95919335e-04
4.17500000e-02	2.25826405e-02	9.92021168e-04
4.20000000e-02	2.22559824e-02	9.58706041e-04
4.22500000e-02	2.20608031e-02	9.62168683e-04
4.25000000e-02	2.25369752e-02	9.69770873e-04
4.27500000e-02	2.14083821e-02	9.31430218e-04
4.30000000e-02	2.12892919e-02	9.16453268e-04
4.32500000e-02	2.25538567e-02	9.76184004e-04
4.35000000e-02	2.23156692e-02	9.62305316e-04
4.37500000e-02	2.21250486e-02	9.48671273e-04
4.40000000e-02	2.23726619e-02	9.65167309e-04
4.42500000e-02	2.16261224e-02	9.16438620e-04
4.45000000e-02	2.11972100e-02	9.02243729e-04
4.47500000e-02	2.15205022e-02	9.12309927e-04
4.50000000e-02	2.17591840e-02	9.18532978e-04
4.52500000e-02	2.15237491e-02	9.02148016e-04
4.55000000e-02	2.11453949e-02	8.89234809e-04
4.57500000e-02	2.23049396e-02	9.23600673e-04
4.60000000e-02	2.18309201e-02	9.07129119e-04
4.62500000e-02	2.14462623e-02	8.92313523e-04
4.65000000e-02	2.18989578e-02	9.01967520e-04
4.67500000e-02	2.20786307e-02	9.01193499e-04
4.70000000e-02	2.18849439e-02	8.99944784e-04
4.72500000e-02	2.16205317e-02	8.95023716e-04
4.75000000e-02	2.14968373e-02	8.94383218e-04
4.77500000e-02	2.21117296e-02	9.04948787e-04
4.80000000e-02	2.14743634e-02	8.69538643e-04
4.82500000e-02	2.14304945e-02	8.72614301e-04
4.85000000e-02	2.17858322e-02	8.93858540e-04
4.87500000e-02	2.11578247e-02	8.66944420e-04
4.90000000e-02	2.08881721e-02	8.49173672e-04
4.92500000e-02	2.06596530e-02	8.36604539e-04
4.95000000e-02	2.10920769e-02	8.60406827e-04
4.97500000e-02	2.15114863e-02	8.69816663e-04
5.00000000e-02	2.15261224e-02	8.63620002e-04
5.02500000e-02	2.13987036e-02	8.54612361e-04
5.05000000e-02	2.19402986e-02	8.73302983e-04
5.07500000e-02	2.15533462e-02	8.59824139e-04
5.10000000e-02	2.16009197e-02	8.67154252e-04
5.12500000e-02	2.17550559e-02	8.67101769e-04
5.15000000e-02	2.10386012e-02	8.31164191e-04
5.17500000e-02	2.08525126e-02	8.33154148e-04
5.20000000e-02	2.14536185e-02	8.41829143e-04
5.22500000e-02	2.14215748e-02	8.52715569e-04
5.25000000e-02	2.12652723e-02	8.37290262e-04
5.27500000e-02	2.10168521e-02	8.24339380e-04
5.30000000e-02	2.10324501e-02	8.35939736e-04
5.32500000e-02	2.13207226e-02	8.34935299e-04
5.35000000e-02	2.08154593e-02	8.13822390e-04
5.37500000e-02	2.10834838e-02	8.26030748e-04
5.40000000e-02	2.14203036e-02	8.28949503e-04
5.42500000e-02	2.14124387e-02	8.25341494e-04
5.45000000e-02	2.11584253e-02	8.27151950e-04
5.47500000e-02	2.13198199e-02	8.19503748e-04
5.50000000e-02	2.11875504e-02	8.18031198e-04
5.52500000e-02	2.04942393e-02	7.92289235e-04
5.55000000e-02	2.04432008e-02	7.81456060e-04
5.57500000e-02	2.07675377e-02	8.10394928e-04
5.60000000e-02	2.09883424e-02	8.05683354e-04
5.62500000e-02	2.11301515e-02	8.09874428e-04
5.65000000e-02	2.05842607e-02	7.90966470e-04
5.67500000e-02	2.15280989e-02	8.28200228e-04
5.70000000e-02	2.04806456e-02	7.79979667e-04
5.72500000e-02	2.11177532e-02	8.07767792e-04
5.75000000e-02	2.11087469e-02	8.10332319e-04
5.77500000e-02	2.02827126e-02	7.67183531e-04
5.80000000e-02	2.12300182e-02	8.05158510e-04
5.82500000e-02	2.07356521e-02	7.85910725e-04
5.85000000e-02	2.04859244e-02	7.85316552e-04
5.87500000e-02	2.13461839e-02	7.91063987e-04
5.90000000e-02	2.10042028e-02	7.88969416e-04
5.92500000e-02	2.08542046e-02	7.82117952e-04
5.95000000e-02	2.01155630e-02	7.55110533e-04
5.97500000e-02	2.11323539e-02	7.97063533e-04
6.00000000e-02	2.02834191e-02	7.49747263e-04
6.02500000e-02	2.11508474e-02	7.87291848e-04
6.05000000e-02	2.01310833e-02	7.54931374e-04
6.07500000e-02	2.03207370e-02	7.54876048e-04
6.10000000e-02	2.05168431e-02	7.62941954e-04
6.12500000e-02	2.04206022e-02	7.57060985e-04
6.15000000e-02	2.07474623e-02	7.64819466e-04
6.17500000e-02	2.03573685e-02	7.49721543e-04
6.20000000e-02	2.03900747e-02	7.53709503e-04
6.22500000e-02	2.02475892e-02	7.47199418e-04
6.25000000e-02	2.09080282e-02	7.69564587e-04
6.27500000e-02	2.07020615e-02	7.53796959e-04
6.30000000e-02	1.97888446e-02	7.25478953e-04
6.32500000e-02	2.08543372e-02	7.57926260e-04
6.35000000e-02	2.09219471e-02	7.66223472e-04
6.37500000e-02	2.04260494e-02	7.49560675e-04
6.40000000e-02	2.02155048e-02	7.42972995e-04
6.42500000e-02	2.04567069e-02	7.37260596e-04
6.45000000e-02	2.06257842e-02	7.43720466e-04
6.47500000e-02	2.01661714e-02	7.35630572e-04
6.50000000e-02	2.07793532e-02	7.55831444e-04
6.52500000e-02	2.05212709e-02	7.35401293e-04
6.55000000e-02	1.96601873e-02	7.09402098e-04
6.57500000e-02	2.02613652e-02	7.27644707e-04
6.60000000e-02	2.02238967e-02	7.31240053e-04
6.62500000e-02	2.07436272e-02	7.41825708e-04
6.65000000e-02	2.04351002e-02	7.25298080e-04
6.67500000e-02	2.06476392e-02	7.33428514e-04
6.70000000e-02	2.07674542e-02	7.36936324e-04
6.72500000e-02	2.00789088e-02	7.23478800e-04
6.75000000e-02	2.00020832e-02	7.09275606e-04
6.77500000e-02	1.98968241e-02	7.13204893e-04
6.80000000e-02	2.05185235e-02	7.31984145e-04
6.82500000e-02	1.98464911e-02	7.08689641e-04
6.85000000e-02	2.01237870e-02	7.17350968e-04
6.87500000e-02	2.03055082e-02	7.21087442e-04
6.90000000e-02	2.04668303e-02	7.20939281e-04
6.92500000e-02	2.00562562e-02	7.02013060e-04
6.95000000e-02	2.03161944e-02	7.19426446e-04
6.97500000e-02	2.02891454e-02	7.11427746e-04
7.00000000e-02	2.05204155e-02	7.19258670e-04
7.02500000e-02	2.01380372e-02	6.95563579e-04
7.05000000e-02	2.07042119e-02	7.20069654e-04
7.07500000e-02	2.01742248e-02	7.08132614e-04
7.10000000e-02	2.01707215e-02	6.98337487e-04
7.12500000e-02	2.09059983e-02	7.26381619e-04
7.15000000e-02	2.03846765e-02	7.03864182e-04
7.17500000e-02	2.00448760e-02	6.96408185e-04
7.20000000e-02	2.03057815e-02	7.05700749e-04
7.22500000e-02	1.97670907e-02	6.86368719e-04
7.25000000e-02	2.01061433e-02	6.93649467e-04
7.27500000e-02	2.01494639e-02	6.94704480e-04
7.30000000e-02	2.01203331e-02	6.92028684e-04
7.32500000e-02	2.02730670e-02	6.96105503e-04
7.35000000e-02	2.04839944e-02	7.05717347e-04
7.37500000e-02	1.99685564e-02	6.85586115e-04
7.40000000e-02	2.02590819e-02	6.99051696e-04
7.42500000e-02	2.00389009e-02	6.80013740e-04
7.45000000e-02	1.98336509e-02	6.75714888e-04
7.47500000e-02	2.01538086e-02	6.87444966e-04
7.50000000e-02	1.94235031e-02	6.62207922e-04
7.52500000e-02	1.99780889e-02	6.77480837e-04
7.55000000e-02	1.98957344e-02	6.78047002e-04
7.57500000e-02	2.00470431e-02	6.75297049e-04
7.60000000e-02	1.94919318e-02	6.60572018e-04
7.62500000e-02	2.01478059e-02	6.85401126e-04
7.65000000e-02	1.99645698e-02	6.72929740e-04
7.67500000e-02	2.06504698e-02	6.92092497e-04
7.70000000e-02	2.00999028e-02	6.69916866e-04
7.72500000e-02	2.04796724e-02	6.98198523e-04
7.75000000e-02	2.07893162e-02	7.15482620e-04
7.77500000e-02	1.96257792e-02	6.83227036e-04
7.80000000e-02	1.95217680e-02	6.82686573e-04
7.82500000e-02	2.06136421e-02	7.24655298e-04
7.85000000e-02	1.97029972e-02	6.97063712e-04
7.87500000e-02	2.01216996e-02	7.07831946e-04
7.90000000e-02	1.99931541e-02	7.13301409e-04
7.92500000e-02	2.01496442e-02	7.13057385e-04
7.95000000e-02	2.00948389e-02	7.25711797e-04
7.97500000e-02	2.03069720e-02	7.24443112e-04
8.00000000e-02	2.00699473e-02	7.15379865e-04
8.02500000e-02	2.00862298e-02	7.20676178e-04
8.05000000e-02	1.96194526e-02	7.05184853e-04
8.07500000e-02	2.09845376e-02	7.57221632e-04
8.10000000e-02	1.97121309e-02	7.17074973e-04
8.12500000e-02	2.04493982e-02	7.37857615e-04
8.15000000e-02	1.99209739e-02	7.21086890e-04
8.17500000e-02	2.06713712e-02	7.54914750e-04
8.20000000e-02	1.98619473e-02	7.20410458e-04
8.22500000e-02	1.96811407e-02	7.13803180e-04
8.25000000e-02	1.98132119e-02	7.22753943e-04
8.27500000e-02	2.01368050e-02	7.32557160e-04
8.30000000e-02	1.97155006e-02	7.21405229e-04
8.32500000e-02	1.99943027e-02	7.34957224e-04
8.35000000e-02	2.00490947e-02	7.42599216e-04
8.37500000e-02	1.98988359e-02	7.27991120e-04
8.40000000e-02	2.00212742e-02	7.35530612e-04
8.42500000e-02	1.97501532e-02	7.33819832e-04
8.45000000e-02	2.01636697e-02	7.45053714e-04
8.47500000e-02	2.01478732e-02	7.47442810e-04
8.50000000e-02	1.98055079e-02	7.26129748e-04
8.52500000e-02	2.01049500e-02	7.42975048e-04
8.55000000e-02	1.97337284e-02	7.27366508e-04
8.57500000e-02	1.98957913e-02	7.42729738e-04
8.60000000e-02	2.02595693e-02	7.54715256e-04
8.62500000e-02	2.00986696e-02	7.40463319e-04
8.65000000e-02	1.96391724e-02	7.22455129e-04
8.67500000e-02	1.96158719e-02	7.26924894e-04
8.70000000e-02	1.98144331e-02	7.20680640e-04
8.72500000e-02	2.05305942e-02	7.28961170e-04
8.75000000e-02	2.04395736e-02	7.18586011e-04
8.77500000e-02	1.98456886e-02	7.03626505e-04
8.80000000e-02	1.98750439e-02	6.97704819e-04
8.82500000e-02	2.02140967e-02	7.05462871e-04
8.85000000e-02	2.00330746e-02	6.99858313e-04
8.87500000e-02	1.98851931e-02	6.84849687e-04
8.90000000e-02	1.96818464e-02	6.80973664e-04
8.92500000e-02	1.98324028e-02	6.84505320e-04
8.95000000e-02	2.00742358e-02	6.89108038e-04
8.97500000e-02	2.03006135e-02	6.92201985e-04
9.00000000e-02	1.97728930e-02	6.71581536e-04
9.02500000e-02	2.01228723e-02	6.78624632e-04
9.05000000e-02	1.97675579e-02	6.74332312e-04
9.07500000e-02	2.02995187e-02	6.82323384e-04
9.10000000e-02	2.01604527e-02	6.71253710e-04
9.12500000e-02	1.99664967e-02	6.70423028e-04
9.15000000e-02	1.98586970e-02	6.66528569e-04
9.17500000e-02	2.02011630e-02	6.77944811e-04
9.20000000e-02	2.01671272e-02	6.72474459e-04
9.22500000e-02	2.01923937e-02	6.72963785e-04
9.25000000e-02	1.98836433e-02	6.59114654e-04
9.27500000e-02	1.96152157e-02	6.53488710e-04
9.30000000e-02	1.97701216e-02	6.56040632e-04
9.32500000e-02	2.00769894e-02	6.66713923e-04
9.35000000e-02	2.01230451e-02	6.58244557e-04
9.37500000e-02	2.03244460e-02	6.64195054e-04
9.40000000e-02	2.02361309e-02	6.65879090e-04
9.42500000e-02	1.98695385e-02	6.52177116e-04
9.45000000e-02	2.03213552e-02	6.63297066e-04
9.47500000e-02	2.01000968e-02	6.54993802e-04
9.50000000e-02	1.98453225e-02	6.45828610e-04
9.52500000e-02	1.96217513e-02	6.41172938e-04
9.55000000e-02	2.02241076e-02	6.53276541e-04
9.57500000e-02	2.01870625e-02	6.58647231e-04
9.60000000e-02	2.00727094e-02	6.50807629e-04
9.62500000e-02	1.87068740e-02	6.05808672e-04
9.65000000e-02	2.00681135e-02	6.52736138e-04
9.67500000e-02	2.00964545e-02	6.49724680e-04
9.70000000e-02	1.95437268e-02	6.28484817e-04
9.72500000e-02	2.01330103e-02	6.48865179e-04
9.75000000e-02	2.02321816e-02	6.50287366e-04
9.77500000e-02	1.94565895e-02	6.17609198e-04
9.80000000e-02	1.96391928e-02	6.29632413e-04
9.82500000e-02	1.96878461e-02	6.30278765e-04
9.85000000e-02	1.98804455e-02	6.32298393e-04
9.87500000e-02	2.02471036e-02	6.38319322e-04
9.90000000e-02	1.94914286e-02	6.18272683e-04
9.92500000e-02	1.97556173e-02	6.26661102e-04
9.95000000e-02	1.93544700e-02	6.15346791e-04
9.97500000e-02	1.99337433e-02	6.31630718e-04
1.00000000e-01	1.99169563e-02	5.10491370e-04
1.00500000e-01	1.97786988e-02	4.41576176e-04
1.01000000e-01	1.96689063e-02	4.35758332e-04
1.01500000e-01	1.98663427e-02	4.40786771e-04
1.02000000e-01	1.97361126e-02	4.35663567e-04
1.02500000e-01	1.99916611e-02	4.35199182e-04
1.03000000e-01	1.98033404e-02	4.33289434e-04
1.03500000e-01	1.93338261e-02	4.23024690e-04
1.04000000e-01	1.99538755e-02	4.33794266e-04
1.04500000e-01	1.98652806e-02	4.34695665e-04
1.05000000e-01	1.97958685e-02	4.26358550e-04
1.05500000e-01	1.99807237e-02	4.32335257e-04
1.06000000e-01	1.94950719e-02	4.21255510e-04
1.06500000e-01	1.97338626e-02	4.22641631e-04
1.07000000e-01	2.01118244e-02	4.36792591e-04
1.07500000e-01	1.97083552e-02	4.35796128e-04
1.08000000e-01	1.94752170e-02	4.37263886e-04
1.08500000e-01	1.99401773e-02	4.49326509e-04
1.09000000e-01	1.99786265e-02	4.52583985e-04
1.09500000e-01	1.96308648e-02	4.48063691e-04
1.10000000e-01	1.96919637e-02	4.43603691e-04
1.10500000e-01	1.97403978e-02	4.34352235e-04
1.11000000e-01	1.94816015e-02	4.24102840e-04
1.11500000e-01	2.01747204e-02	4.33459128e-04
1.12000000e-01	1.99107982e-02	4.26338846e-04
1.12500000e-01	1.98113687e-02	4.20955770e-04
1.13000000e-01	1.94051214e-02	4.11142489e-04
1.13500000e-01	1.99341274e-02	4.21335272e-04
1.14000000e-01	2.00861149e-02	4.21745683e-04
1.14500000e-01	1.94661630e-02	4.09379409e-04
1.15000000e-01	1.96565381e-02	4.10326955e-04
1.15500000e-01	1.96249001e-02	4.08359854e-04
1.16000000e-01	1.99240776e-02	4.13580307e-04
1.16500000e-01	1.94557888e-02	4.03021412e-04
1.17000000e-01	1.98768494e-02	4.11175327e-04
1.17500000e-01	2.01272210e-02	4.14035525e-04
1.18000000e-01	1.96382676e-02	4.06446564e-04
1.18500000e-01	1.96182740e-02	3.99973526e-04
1.19000000e-01	1.96299492e-02	4.02418934e-04
1.19500000e-01	1.99169158e-02	4.05779596e-04
1.20000000e-01	1.91905899e-02	3.91272782e-04
1.20500000e-01	1.97793127e-02	4.01907178e-04
1.21000000e-01	1.96735443e-02	3.99796431e-04
1.21500000e-01	1.98724267e-02	4.03906571e-04
1.22000000e-01	1.97566330e-02	3.98060848e-04
1.22500000e-01	1.99516694e-02	4.01745487e-04
1.23000000e-01	1.95145674e-02	3.92327570e-04
1.23500000e-01	1.97070529e-02	3.94479589e-04
1.24000000e-01	1.96086670e-02	3.92562512e-04
1.24500000e-01	1.97830311e-02	3.95780527e-04
1.25000000e-01	1.96893513e-02	3.92459469e-04
1.25500000e-01	1.98678671e-02	3.93819034e-04
1.26000000e-01	1.94497488e-02	3.86149969e-04
1.26500000e-01	1.99770175e-02	3.94022380e-04
1.27000000e-01	1.96657991e-02	3.89299367e-04
1.27500000e-01	1.95442795e-02	3.86988763e-04
1.28000000e-01	1.97636855e-02	3.89751881e-04
1.28500000e-01	1.97513839e-02	3.88975099e-04
1.29000000e-01	1.96893089e-02	3.86442615e-04
1.29500000e-01	1.94157554e-02	3.81894099e-04
1.30000000e-01	1.96734995e-02	3.83744748e-04
1.30500000e-01	1.98010839e-02	3.86985040e-04
1.31000000e-01	1.93383109e-02	3.75432626e-04
1.31500000e-01	1.93529066e-02	3.75787965e-04
1.32000000e-01	1.92425507e-02	3.74074932e-04
1.32500000e-01	1.98063432e-02	3.83043384e-04
1.33000000e-01	1.96366346e-02	3.78612331e-04
1.33500000e-01	1.96316731e-02	3.76962319e-04
1.34000000e-01	1.94236360e-02	3.72773457e-04
1.34500000e-01	1.95401316e-02	3.72375103e-04
1.35000000e-01	1.98075054e-02	3.76247902e-04
1.35500000e-01	2.00890020e-02	3.80805608e-04
1.36000000e-01	1.95043918e-02	3.69152019e-04
1.36500000e-01	1.97407321e-02	3.75242355e-04
1.37000000e-01	1.95687286e-02	3.68919597e-04
1.37500000e-01	1.97299772e-02	3.73335647e-04
1.38000000e-01	1.96017473e-02	3.71349769e-04
1.38500000e-01	1.94128844e-02	3.65843697e-04
1.39000000e-01	1.95736964e-02	3.68729631e-04
1.39500000e-01	1.93714692e-02	3.64944812e-04
1.40000000e-01	1.93578065e-02	3.65043160e-04
1.40500000e-01	1.92235107e-02	3.61889643e-04
1.41000000e-01	1.96203187e-02	3.67161241e-04
1.41500000e-01	1.97778069e-02	3.70357265e-04
1.42000000e-01	1.97376739e-02	3.67658563e-04
1.42500000e-01	1.96225592e-02	3.66578224e-04
1.43000000e-01	1.91790811e-02	3.59471640e-04
1.43500000e-01	1.97231381e-02	3.66321787e-04
1.44000000e-01	1.95919284e-02	3.65075743e-04
1.44500000e-01	1.94804343e-02	3.60780567e-04
1.45000000e-01	1.96406139e-02	3.63979139e-04
1.45500000e-01	1.93434198e-02	3.58470536e-04
1.46000000e-01	1.92919360e-02	3.54891203e-04
1.46500000e-01	1.95473466e-02	3.60638978e-04
1.47000000e-01	1.94593838e-02	3.58393908e-04
1.47500000e-01	1.96937273e-02	3.60249059e-04
1.48000000e-01	1.98185419e-02	3.60495575e-04
1.48500000e-01	1.91702185e-02	3.51013544e-04
1.49000000e-01	1.94805631e-02	3.55832052e-04
1.49500000e-01	1.92606048e-02	3.51734453e-04
1.50000000e-01	1.91454266e-02	3.48539583e-04
1.50500000e-01	1.91231869e-02	3.50757471e-04
1.51000000e-01	1.92117391e-02	3.48124821e-04
1.51500000e-01	1.92394559e-02	3.48021881e-04
1.52000000e-01	1.93115442e-02	3.47036836e-04
1.52500000e-01	1.94995308e-02	3.52375393e-04
1.53000000e-01	1.93126793e-02	3.47655876e-04
1.53500000e-01	1.92121651e-02	3.46147499e-04
1.54000000e-01	1.93427405e-02	3.46375454e-04
1.54500000e-01	1.92309127e-02	3.52610890e-04
1.55000000e-01	1.91787437e-02	3.54691849e-04
1.55500000e-01	1.90166817e-02	3.54911210e-04
1.56000000e-01	1.91505109e-02	3.60618290e-04
1.56500000e-01	1.90159677e-02	3.54505310e-04
1.57000000e-01	1.92705352e-02	3.60385456e-04
1.57500000e-01	1.91412953e-02	3.52175798e-04
1.58000000e-01	1.94168012e-02	3.51253737e-04
1.58500000e-01	1.91032681e-02	3.44787194e-04
1.59000000e-01	1.89774586e-02	3.39868782e-04
1.59500000e-01	1.90926661e-02	3.41113048e-04
1.60000000e-01	1.90721214e-02	3.41764431e-04
1.60500000e-01	1.91223789e-02	3.40659100e-04
1.61000000e-01	1.90230692e-02	3.38989562e-04
1.61500000e-01	1.90829625e-02	3.37898093e-04
1.62000000e-01	1.92945854e-02	3.41369901e-04
1.62500000e-01	1.89988286e-02	3.37272424e-04
1.63000000e-01	1.89715858e-02	3.34825679e-04
1.63500000e-01	1.88613535e-02	3.35068870e-04
1.64000000e-01	1.91977379e-02	3.37816185e-04
1.64500000e-01	1.91795632e-02	3.37263785e-04
1.65000000e-01	1.89600118e-02	3.33161289e-04
1.65500000e-01	1.89477062e-02	3.32108923e-04
1.66000000e-01	1.89404618e-02	3.31770193e-04
1.66500000e-01	1.89367389e-02	3.30874439e-04
1.67000000e-01	1.89379033e-02	3.31510224e-04
1.67500000e-01	1.88706550e-02	3.28550723e-04
1.68000000e-01	1.88791757e-02	3.28274809e-04
1.68500000e-01	1.90944623e-02	3.30448166e-04
1.69000000e-01	1.90105450e-02	3.28787887e-04
1.69500000e-01	1.88619073e-02	3.26903426e-04
1.70000000e-01	1.91057872e-02	3.29915630e-04
1.70500000e-01	1.89876685e-02	3.26556648e-04
1.71000000e-01	1.87929395e-02	3.22697224e-04
1.71500000e-01	1.88809850e-02	3.24803184e-04
1.72000000e-01	1.89097063e-02	3.25899570e-04
1.72500000e-01	1.87865094e-02	3.22021089e-04
1.73000000e-01	1.89677852e-02	3.26647370e-04
1.73500000e-01	1.89246130e-02	3.21460883e-04
1.74000000e-01	1.88756811e-02	3.21860830e-04
1.74500000e-01	1.93461423e-02	3.26614454e-04
1.75000000e-01	1.84114863e-02	3.10891943e-04
1.75500000e-01	1.86184882e-02	3.14836366e-04
1.76000000e-01	1.88483856e-02	3.17954411e-04
1.76500000e-01	1.87644987e-02	3.17930761e-04
1.77000000e-01	1.88224155e-02	3.16993412e-04
1.77500000e-01	1.87183977e-02	3.15242194e-04
1.78000000e-01	1.87869977e-02	3.15535389e-04
1.78500000e-01	1.84696235e-02	3.11171478e-04
1.79000000e-01	1.87888067e-02	3.15656312e-04
1.79500000e-01	1.86122683e-02	3.13349625e-04
1.80000000e-01	1.85327029e-02	3.11225533e-04
1.80500000e-01	1.86537834e-02	3.12342436e-04
1.81000000e-01	1.85859247e-02	3.11687223e-04
1.81500000e-01	1.86602284e-02	3.12062977e-04
1.82000000e-01	1.87350772e-02	3.13047926e-04
1.82500000e-01	1.83582605e-02	3.06008094e-04
1.83000000e-01	1.85031946e-02	3.09499341e-04
1.83500000e-01	1.85572781e-02	3.08126450e-04
1.84000000e-01	1.85843111e-02	3.10040904e-04
1.84500000e-01	1.85143825e-02	3.07329265e-04
1.85000000e-01	1.88225179e-02	3.12183609e-04
1.85500000e-01	1.86836920e-02	3.08575368e-04
1.86000000e-01	1.86233812e-02	3.07122491e-04
1.86500000e-01	1.87247151e-02	3.08978665e-04
1.87000000e-01	1.85029769e-02	3.05491694e-04
1.87500000e-01	1.86127293e-02	3.07047325e-04
1.88000000e-01	1.85741812e-02	3.06266550e-04
1.88500000e-01	1.87027202e-02	3.06814087e-04
1.89000000e-01	1.81492556e-02	2.97285026e-04
1.89500000e-01	1.85761856e-02	3.04263950e-04
1.90000000e-01	1.85211189e-02	3.03127660e-04
1.90500000e-01	1.84650558e-02	3.02402552e-04
1.91000000e-01	1.84376397e-02	3.01313500e-04
1.91500000e-01	1.84226073e-02	3.00551896e-04
1.92000000e-01	1.83834431e-02	2.98048835e-04
1.92500000e-01	1.83461902e-02	2.98574608e-04
1.93000000e-01	1.85719192e-02	3.00997760e-04
1.93500000e-01	1.83980643e-02	2.98529217e-04
1.94000000e-01	1.85446091e-02	3.00154271e-04
1.94500000e-01	1.83372985e-02	2.95428134e-04
1.95000000e-01	1.83868293e-02	2.98322781e-04
1.95500000e-01	1.84869439e-02	2.97748191e-04
1.96000000e-01	1.84080308e-02	2.96393529e-04
1.96500000e-01	1.84317829e-02	2.96884223e-04
1.97000000e-01	1.82325528e-02	2.93089545e-04
1.97500000e-01	1.84629414e-02	2.96506376e-04
1.98000000e-01	1.83219425e-02	2.93857661e-04
1.98500000e-01	1.82802132e-02	2.92388342e-04
1.99000000e-01	1.84024956e-02	2.94676539e-04
1.99500000e-01	1.81552873e-02	2.90373978e-04
2.00000000e-01	1.84781418e-02	2.96190028e-04
2.00500000e-01	1.82693442e-02	2.91701817e-04
2.01000000e-01	1.83968806e-02	2.92579671e-04
2.01500000e-01	1.80390449e-02	2.87619498e-04
2.02000000e-01	1.81908949e-02	2.89487715e-04
2.02500000e-01	1.83677420e-02	2.89358716e-04
2.03000000e-01	1.84478893e-02	2.92197065e-04
2.03500000e-01	1.83656979e-02	2.89673781e-04
2.04000000e-01	1.83739137e-02	2.90078591e-04
2.04500000e-01	1.82171970e-02	2.88058229e-04
2.05000000e-01	1.83044785e-02	2.88792025e-04
2.05500000e-01	1.84222826e-02	2.90858109e-04
2.06000000e-01	1.81922268e-02	2.85697204e-04
2.06500000e-01	1.83042522e-02	2.88446202e-04
2.07000000e-01	1.83206872e-02	2.86998029e-04
2.07500000e-01	1.81385715e-02	2.84856532e-04
2.08000000e-01	1.82667040e-02	2.87088254e-04
2.08500000e-01	1.80403860e-02	2.83238441e-04
2.09000000e-01	1.80047297e-02	2.81107120e-04
2.09500000e-01	1.83431705e-02	2.85523415e-04
2.10000000e-01	1.80824780e-02	2.82400903e-04
2.10500000e-01	1.79866120e-02	2.80477895e-04
2.11000000e-01	1.84263772e-02	2.85179618e-04
2.11500000e-01	1.81120388e-02	2.82546576e-04
2.12000000e-01	1.80848885e-02	2.79730622e-04
2.12500000e-01	1.81512371e-02	2.80911461e-04
2.13000000e-01	1.80807351e-02	2.80852114e-04
2.13500000e-01	1.80960842e-02	2.79845491e-04
2.14000000e-01	1.81269002e-02	2.80782426e-04
2.14500000e-01	1.79102523e-02	2.76614533e-04
2.15000000e-01	1.77544836e-02	2.75256431e-04
2.15500000e-01	1.80589224e-02	2.77914560e-04
2.16000000e-01	1.79231925e-02	2.75243205e-04
2.16500000e-01	1.82361091e-02	2.80562976e-04
2.17000000e-01	1.80686669e-02	2.81971860e-04
2.17500000e-01	1.81853949e-02	2.86154140e-04
2.18000000e-01	1.81525902e-02	2.87546491e-04
2.18500000e-01	1.79069214e-02	2.86210508e-04
2.19000000e-01	1.79146099e-02	2.86988579e-04
2.19500000e-01	1.76690388e-02	2.85474032e-04
2.20000000e-01	1.79556925e-02	2.90842893e-04
2.20500000e-01	1.78745145e-02	2.89765622e-04
2.21000000e-01	1.78894188e-02	2.91409282e-04
2.21500000e-01	1.79775034e-02	2.92289602e-04
2.22000000e-01	1.79596197e-02	2.91136494e-04
2.22500000e-01	1.79371089e-02	2.92561425e-04
2.23000000e-01	1.76053711e-02	2.89362815e-04
2.23500000e-01	1.78635828e-02	2.93197674e-04
2.24000000e-01	1.81286686e-02	2.97890247e-04
2.24500000e-01	1.79786938e-02	2.97481780e-04
2.25000000e-01	1.77237430e-02	2.94312184e-04
2.25500000e-01	1.80158128e-02	2.97830775e-04
2.26000000e-01	1.78162960e-02	2.96931925e-04
2.26500000e-01	1.79049725e-02	2.92327190e-04
2.27000000e-01	1.79180236e-02	2.90167893e-04
2.27500000e-01	1.80033482e-02	2.89903371e-04
2.28000000e-01	1.78422224e-02	2.84130272e-04
2.28500000e-01	1.81063280e-02	2.88451849e-04
2.29000000e-01	1.76858966e-02	2.81206366e-04
2.29500000e-01	1.76295905e-02	2.78024801e-04
2.30000000e-01	1.76474159e-02	2.77607907e-04
2.30500000e-01	1.78694259e-02	2.80461290e-04
2.31000000e-01	1.76391127e-02	2.76114154e-04
2.31500000e-01	1.77563143e-02	2.77485054e-04
2.32000000e-01	1.78009223e-02	2.77633290e-04
2.32500000e-01	1.79408619e-02	2.79569222e-04
2.33000000e-01	1.78289356e-02	2.75516597e-04
2.33500000e-01	1.78556800e-02	2.75430938e-04
2.34000000e-01	1.78423328e-02	2.75305540e-04
2.34500000e-01	1.78751667e-02	2.73954188e-04
2.35000000e-01	1.77507384e-02	2.73891054e-04
2.35500000e-01	1.78730481e-02	2.73940630e-04
2.36000000e-01	1.75307989e-02	2.69866712e-04
2.36500000e-01	1.74685534e-02	2.67879182e-04
2.37000000e-01	1.75195295e-02	2.67929864e-04
2.37500000e-01	1.77266850e-02	2.69567217e-04
2.38000000e-01	1.76703794e-02	2.68932068e-04
2.38500000e-01	1.77779008e-02	2.70216672e-04
2.39000000e-01	1.77725862e-02	2.69217846e-04
2.39500000e-01	1.77789129e-02	2.69756497e-04
2.40000000e-01	1.75403931e-02	2.64914217e-04
2.40500000e-01	1.75716050e-02	2.64495070e-04
2.41000000e-01	1.78112987e-02	2.67872172e-04
2.41500000e-01	1.76944803e-02	2.64864095e-04
2.42000000e-01	1.75758998e-02	2.64720980e-04
2.42500000e-01	1.78039552e-02	2.66044786e-04
2.43000000e-01	1.77222109e-02	2.65189183e-04
2.43500000e-01	1.76949178e-02	2.64526719e-04
2.44000000e-01	1.75928665e-02	2.63511090e-04
2.44500000e-01	1.76612034e-02	2.63772102e-04
2.45000000e-01	1.77996038e-02	2.63635793e-04
2.45500000e-01	1.76628228e-02	2.63307387e-04
2.46000000e-01	1.74812027e-02	2.60444315e-04
2.46500000e-01	1.76572686e-02	2.61465367e-04
2.47000000e-01	1.75529712e-02	2.61094076e-04
2.47500000e-01	1.71695907e-02	2.53957759e-04
2.48000000e-01	1.76168752e-02	2.59908525e-04
2.48500000e-01	1.76427585e-02	2.60174234e-04
2.49000000e-01	1.73024090e-02	2.55583155e-04
2.49500000e-01	1.76768503e-02	2.60314090e-04
2.50000000e-01	1.75008991e-02	2.57366128e-04
2.50500000e-01	1.74446544e-02	2.56912226e-04
2.51000000e-01	1.73705614e-02	2.54892082e-04
2.51500000e-01	1.72937876e-02	2.53559330e-04
2.52000000e-01	1.75233388e-02	2.56737388e-04
2.52500000e-01	1.73584471e-02	2.53647163e-04
2.53000000e-01	1.74262824e-02	2.55239199e-04
2.53500000e-01	1.73950672e-02	2.54081827e-04
2.54000000e-01	1.74477465e-02	2.54403394e-04
2.54500000e-01	1.73688960e-02	2.54407715e-04
2.55000000e-01	1.74903182e-02	2.54147666e-04
2.55500000e-01	1.75585656e-02	2.55721411e-04
2.56000000e-01	1.75457013e-02	2.53953056e-04
2.56500000e-01	1.73341195e-02	2.52343639e-04
2.57000000e-01	1.75103940e-02	2.52773896e-04
2.57500000e-01	1.74429028e-02	2.52596012e-04
2.58000000e-01	1.74498773e-02	2.52817391e-04
2.58500000e-01	1.73378254e-02	2.51528478e-04
2.59000000e-01	1.74395629e-02	2.51052517e-04
2.59500000e-01	1.73965349e-02	2.51246919e-04
2.60000000e-01	1.74520298e-02	2.51125442e-04
2.60500000e-01	1.72573179e-02	2.48475635e-04
2.61000000e-01	1.73902180e-02	2.49732161e-04
2.61500000e-01	1.75126904e-02	2.50854790e-04
2.62000000e-01	1.71156893e-02	2.46305196e-04
2.62500000e-01	1.72579990e-02	2.47247360e-04
2.63000000e-01	1.73696575e-02	2.49214826e-04
2.63500000e-01	1.72800681e-02	2.47146686e-04
2.64000000e-01	1.74169352e-02	2.48549770e-04
2.64500000e-01	1.72361883e-02	2.46454557e-04
2.65000000e-01	1.71090252e-02	2.44296953e-04
2.65500000e-01	1.73430770e-02	2.46000797e-04
2.66000000e-01	1.71742281e-02	2.43584409e-04
2.66500000e-01	1.72497456e-02	2.44424489e-04
2.67000000e-01	1.71643148e-02	2.42906166e-04
2.67500000e-01	1.70353807e-02	2.42711606e-04
2.68000000e-01	1.71106392e-02	2.43114108e-04
2.68500000e-01	1.71133645e-02	2.42233173e-04
2.69000000e-01	1.70589106e-02	2.41588150e-04
2.69500000e-01	1.70830927e-02	2.40829821e-04
2.70000000e-01	1.71671124e-02	2.41636782e-04
2.70500000e-01	1.73056004e-02	2.43623442e-04
2.71000000e-01	1.71401566e-02	2.41729538e-04
2.71500000e-01	1.71051233e-02	2.40354735e-04
2.72000000e-01	1.71193854e-02	2.40832425e-04
2.72500000e-01	1.72924955e-02	2.42398380e-04
2.73000000e-01	1.72242692e-02	2.40840781e-04
2.73500000e-01	1.70761760e-02	2.39452594e-04
2.74000000e-01	1.68795865e-02	2.36276977e-04
2.74500000e-01	1.71693464e-02	2.40527217e-04
2.75000000e-01	1.69813587e-02	2.37307881e-04
2.75500000e-01	1.71632822e-02	2.39486237e-04
2.76000000e-01	1.70585174e-02	2.37477823e-04
2.76500000e-01	1.71988457e-02	2.39116638e-04
2.77000000e-01	1.67098989e-02	2.33728520e-04
2.77500000e-01	1.71436550e-02	2.38212098e-04
2.78000000e-01	1.70002648e-02	2.36708848e-04
2.78500000e-01	1.72423467e-02	2.38317086e-04
2.79000000e-01	1.70109476e-02	2.36312251e-04
2.79500000e-01	1.69375945e-02	2.34157295e-04
2.80000000e-01	1.70159008e-02	2.36500961e-04
2.80500000e-01	1.70372748e-02	2.35702019e-04
2.81000000e-01	1.69136156e-02	2.34144392e-04
2.81500000e-01	1.69699306e-02	2.34186048e-04
2.82000000e-01	1.71526041e-02	2.36729720e-04
2.82500000e-01	1.70495721e-02	2.35813824e-04
2.83000000e-01	1.70150925e-02	2.34539200e-04
2.83500000e-01	1.66846136e-02	2.30533632e-04
2.84000000e-01	1.68245651e-02	2.31102164e-04
2.84500000e-01	1.69750312e-02	2.32883551e-04
2.85000000e-01	1.69633928e-02	2.33236452e-04
2.85500000e-01	1.69668719e-02	2.31897282e-04
2.86000000e-01	1.69414963e-02	2.32446915e-04
2.86500000e-01	1.67667453e-02	2.28759894e-04
2.87000000e-01	1.69133459e-02	2.30974389e-04
2.87500000e-01	1.69469605e-02	2.30664452e-04
2.88000000e-01	1.69798948e-02	2.31322496e-04
2.88500000e-01	1.68559446e-02	2.29872607e-04
2.89000000e-01	1.70129761e-02	2.31688627e-04
2.89500000e-01	1.67987829e-02	2.29256030e-04
2.90000000e-01	1.68980785e-02	2.30010278e-04
2.90500000e-01	1.68329880e-02	2.29333937e-04
2.91000000e-01	1.69132242e-02	2.28519491e-04
2.91500000e-01	1.68657743e-02	2.27891032e-04
2.92000000e-01	1.68661698e-02	2.28201389e-04
2.92500000e-01	1.69959558e-02	2.29430871e-04
2.93000000e-01	1.69677100e-02	2.29154901e-04
2.93500000e-01	1.69349459e-02	2.29019964e-04
2.94000000e-01	1.65898938e-02	2.23613785e-04
2.94500000e-01	1.68674644e-02	2.28148505e-04
2.95000000e-01	1.67850066e-02	2.24900837e-04
2.95500000e-01	1.67272074e-02	2.25777382e-04
2.96000000e-01	1.67780254e-02	2.25253523e-04
2.96500000e-01	1.69616425e-02	2.27467336e-04
2.97000000e-01	1.68098578e-02	2.25312113e-04
2.97500000e-01	1.66581445e-02	2.23332418e-04
2.98000000e-01	1.67940338e-02	2.25080787e-04
2.98500000e-01	1.68663878e-02	2.25735760e-04
2.99000000e-01	1.69075513e-02	2.25655140e-04
2.99500000e-01	1.68279287e-02	2.24550785e-04
3.00000000e-01	1.68177995e-02	2.24531581e-04
3.00500000e-01	1.66457527e-02	2.22866866e-04
3.01000000e-01	1.67463519e-02	2.23084121e-04
3.01500000e-01	1.68429632e-02	2.24376531e-04
3.02000000e-01	1.67673214e-02	2.22676915e-04
3.02500000e-01	1.67870475e-02	2.23161447e-04
3.03000000e-01	1.66310582e-02	2.21854150e-04
3.03500000e-01	1.66645716e-02	2.21948818e-04
3.04000000e-01	1.68771025e-02	2.24709194e-04
3.04500000e-01	1.66805819e-02	2.21607967e-04
3.05000000e-01	1.67478912e-02	2.22163058e-04
3.05500000e-01	1.68602249e-02	2.23079913e-04
3.06000000e-01	1.65512650e-02	2.17765877e-04
3.06500000e-01	1.68879148e-02	2.23123882e-04
3.07000000e-01	1.67458637e-02	2.20546226e-04
3.07500000e-01	1.66432198e-02	2.19465763e-04
3.08000000e-01	1.67208793e-02	2.20193076e-04
3.08500000e-01	1.66117713e-02	2.19155646e-04
3.09000000e-01	1.68597259e-02	2.22714980e-04
3.09500000e-01	1.64792241e-02	2.16733589e-04
3.10000000e-01	1.65708367e-02	2.18221324e-04
3.10500000e-01	1.67173510e-02	2.18983423e-04
3.11000000e-01	1.67017647e-02	2.18890298e-04
3.11500000e-01	1.67156402e-02	2.19116673e-04
3.12000000e-01	1.63591462e-02	2.14221958e-04
3.12500000e-01	1.65197094e-02	2.17225871e-04
3.13000000e-01	1.63240811e-02	2.13618185e-04
3.13500000e-01	1.64913986e-02	2.15456279e-04
3.14000000e-01	1.65879286e-02	2.16793733e-04
3.14500000e-01	1.64316879e-02	2.14355751e-04
3.15000000e-01	1.65276490e-02	2.16316933e-04
3.15500000e-01	1.67231668e-02	2.18178278e-04
3.16000000e-01	1.65593621e-02	2.15809965e-04
3.16500000e-01	1.65373573e-02	2.15303720e-04
3.17000000e-01	1.66255339e-02	2.15672211e-04
3.17500000e-01	1.64836521e-02	2.14249989e-04
3.18000000e-01	1.64901094e-02	2.13526212e-04
3.18500000e-01	1.63581325e-02	2.12368493e-04
3.19000000e-01	1.63462130e-02	2.11953244e-04
3.19500000e-01	1.63841566e-02	2.12096672e-04
3.20000000e-01	1.66277501e-02	2.16254784e-04
3.20500000e-01	1.64642390e-02	2.13077385e-04
3.21000000e-01	1.64785901e-02	2.12675482e-04
3.21500000e-01	1.63699633e-02	2.12151103e-04
3.22000000e-01	1.62378063e-02	2.10088481e-04
3.22500000e-01	1.64780169e-02	2.12353708e-04
3.23000000e-01	1.62841810e-02	2.10022979e-04
3.23500000e-01	1.64998394e-02	2.13053470e-04
3.24000000e-01	1.63346641e-02	2.09809325e-04
3.24500000e-01	1.65293631e-02	2.12241738e-04
3.25000000e-01	1.62163627e-02	2.08589602e-04
3.25500000e-01	1.61954973e-02	2.08935544e-04
3.26000000e-01	1.61685635e-02	2.07933307e-04
3.26500000e-01	1.62063970e-02	2.07167231e-04
3.27000000e-01	1.63829948e-02	2.10271747e-04
3.27500000e-01	1.63013942e-02	2.07809662e-04
3.28000000e-01	1.61058917e-02	2.07058455e-04
3.28500000e-01	1.64691983e-02	2.10010948e-04
3.29000000e-01	1.59787207e-02	2.04728979e-04
3.29500000e-01	1.62167932e-02	2.06945417e-04
3.30000000e-01	1.62515238e-02	2.07717635e-04
3.30500000e-01	1.63378333e-02	2.08128458e-04
3.31000000e-01	1.61677185e-02	2.06015378e-04
3.31500000e-01	1.62303314e-02	2.06477950e-04
3.32000000e-01	1.60001525e-02	2.03953581e-04
3.32500000e-01	1.61507289e-02	2.05738621e-04
3.33000000e-01	1.62023366e-02	2.05848572e-04
3.33500000e-01	1.63260159e-02	2.06633553e-04
3.34000000e-01	1.60702169e-02	2.04613281e-04
3.34500000e-01	1.60478074e-02	2.03572831e-04
3.35000000e-01	1.60371559e-02	2.03169956e-04
3.35500000e-01	1.61993513e-02	2.05086781e-04
3.36000000e-01	1.59817725e-02	2.01138411e-04
3.36500000e-01	1.61633603e-02	2.05072516e-04
3.37000000e-01	1.58318171e-02	2.00542836e-04
3.37500000e-01	1.60044787e-02	2.02094503e-04
3.38000000e-01	1.60817621e-02	2.03117292e-04
3.38500000e-01	1.60854321e-02	2.02466370e-04
3.39000000e-01	1.61116869e-02	2.03170164e-04
3.39500000e-01	1.59848562e-02	2.01512115e-04
3.40000000e-01	1.60880473e-02	2.02970187e-04
3.40500000e-01	1.60362905e-02	2.01361597e-04
3.41000000e-01	1.58984528e-02	2.00341257e-04
3.41500000e-01	1.59258031e-02	2.00101889e-04
3.42000000e-01	1.59428751e-02	1.99201889e-04
3.42500000e-01	1.60176418e-02	2.01229042e-04
3.43000000e-01	1.60283888e-02	2.00794681e-04
3.43500000e-01	1.59376510e-02	1.99726828e-04
3.44000000e-01	1.59455077e-02	2.00262037e-04
3.44500000e-01	1.59631097e-02	1.99173823e-04
3.45000000e-01	1.59751475e-02	1.99253985e-04
3.45500000e-01	1.59940277e-02	1.99185342e-04
3.46000000e-01	1.58897175e-02	1.98248488e-04
3.46500000e-01	1.60930257e-02	1.99633412e-04
3.47000000e-01	1.59875771e-02	1.98540793e-04
3.47500000e-01	1.59480878e-02	1.98486384e-04
3.48000000e-01	1.58920251e-02	1.97106604e-04
3.48500000e-01	1.59557301e-02	1.98261753e-04
3.49000000e-01	1.59898383e-02	1.98586762e-04
3.49500000e-01	1.58818323e-02	1.97639991e-04
3.50000000e-01	1.58042448e-02	1.60210864e-04
3.51000000e-01	1.58549596e-02	1.39059163e-04
3.52000000e-01	1.57473718e-02	1.38091774e-04
3.53000000e-01	1.56999497e-02	1.37177837e-04
3.54000000e-01	1.57957519e-02	1.37604202e-04
3.55000000e-01	1.58672833e-02	1.38334261e-04
3.56000000e-01	1.58259072e-02	1.38367120e-04
3.57000000e-01	1.57887332e-02	1.40494224e-04
3.58000000e-01	1.58053498e-02	1.41670491e-04
3.59000000e-01	1.57100572e-02	1.42426439e-04
3.60000000e-01	1.57407044e-02	1.43497558e-04
3.61000000e-01	1.57073062e-02	1.43681418e-04
3.62000000e-01	1.56161675e-02	1.43658946e-04
3.63000000e-01	1.56926777e-02	1.44981931e-04
3.64000000e-01	1.55655766e-02	1.44118969e-04
3.65000000e-01	1.55392295e-02	1.44436151e-04
3.66000000e-01	1.54844731e-02	1.42428821e-04
3.67000000e-01	1.55094572e-02	1.40430234e-04
3.68000000e-01	1.56470015e-02	1.40829873e-04
3.69000000e-01	1.55489292e-02	1.39054309e-04
3.70000000e-01	1.55739089e-02	1.38798299e-04
3.71000000e-01	1.54357174e-02	1.39600205e-04
3.72000000e-01	1.56235836e-02	1.41346111e-04
3.73000000e-01	1.54859948e-02	1.40906448e-04
3.74000000e-01	1.55181169e-02	1.41040435e-04
3.75000000e-01	1.54925618e-02	1.40914116e-04
3.76000000e-01	1.54184581e-02	1.40509252e-04
3.77000000e-01	1.54440436e-02	1.41048241e-04
3.78000000e-01	1.54478186e-02	1.40819765e-04
3.79000000e-01	1.54791053e-02	1.41083332e-04
3.80000000e-01	1.53093086e-02	1.39110777e-04
3.81000000e-01	1.54444825e-02	1.40424997e-04
3.82000000e-01	1.54322467e-02	1.40360687e-04
3.83000000e-01	1.54518063e-02	1.40232829e-04
3.84000000e-01	1.54373907e-02	1.40304841e-04
3.85000000e-01	1.54492369e-02	1.40704537e-04
3.86000000e-01	1.53413748e-02	1.39248333e-04
3.87000000e-01	1.53830809e-02	1.39807152e-04
3.88000000e-01	1.52000517e-02	1.37910477e-04
3.89000000e-01	1.53675289e-02	1.39577609e-04
3.90000000e-01	1.52647638e-02	1.38463876e-04
3.91000000e-01	1.54757381e-02	1.39833129e-04
3.92000000e-01	1.52932593e-02	1.38382409e-04
3.93000000e-01	1.52521314e-02	1.38394064e-04
3.94000000e-01	1.53698129e-02	1.39211810e-04
3.95000000e-01	1.52115458e-02	1.38056993e-04
3.96000000e-01	1.53197326e-02	1.38606270e-04
3.97000000e-01	1.52069961e-02	1.38193426e-04
3.98000000e-01	1.52238609e-02	1.37963141e-04
3.99000000e-01	1.50775593e-02	1.36920922e-04
4.00000000e-01	1.51528316e-02	1.37399562e-04
4.01000000e-01	1.51626510e-02	1.37287032e-04
4.02000000e-01	1.51323590e-02	1.37069951e-04
4.03000000e-01	1.50413404e-02	1.36672297e-04
4.04000000e-01	1.50987017e-02	1.36861443e-04
4.05000000e-01	1.50458682e-02	1.36545910e-04
4.06000000e-01	1.49970742e-02	1.36105641e-04
4.07000000e-01	1.51159301e-02	1.36872355e-04
4.08000000e-01	1.50650408e-02	1.36699048e-04
4.09000000e-01	1.49780058e-02	1.35775344e-04
4.10000000e-01	1.50282849e-02	1.35910065e-04
4.11000000e-01	1.49036509e-02	1.34737224e-04
4.12000000e-01	1.49163952e-02	1.35317202e-04
4.13000000e-01	1.50489634e-02	1.35994936e-04
4.14000000e-01	1.50969843e-02	1.35912821e-04
4.15000000e-01	1.49794240e-02	1.35265899e-04
4.16000000e-01	1.49181964e-02	1.34848346e-04
4.17000000e-01	1.50270738e-02	1.35580729e-04
4.18000000e-01	1.49330748e-02	1.36274967e-04
4.19000000e-01	1.49576238e-02	1.38442621e-04
4.20000000e-01	1.50403695e-02	1.39990047e-04
4.21000000e-01	1.50242430e-02	1.39732612e-04
4.22000000e-01	1.51766248e-02	1.41639387e-04
4.23000000e-01	1.50886869e-02	1.41543957e-04
4.24000000e-01	1.50478670e-02	1.40995011e-04
4.25000000e-01	1.50796249e-02	1.42109107e-04
4.26000000e-01	1.49622873e-02	1.41123391e-04
4.27000000e-01	1.49893750e-02	1.41354040e-04
4.28000000e-01	1.49109026e-02	1.40712597e-04
4.29000000e-01	1.49684931e-02	1.41555729e-04
4.30000000e-01	1.50420843e-02	1.41985068e-04
4.31000000e-01	1.48876300e-02	1.40252249e-04
4.32000000e-01	1.48010591e-02	1.39939086e-04
4.33000000e-01	1.49987374e-02	1.41974657e-04
4.34000000e-01	1.48102285e-02	1.40508852e-04
4.35000000e-01	1.48467073e-02	1.40707839e-04
4.36000000e-01	1.48323550e-02	1.40903395e-04
4.37000000e-01	1.47509884e-02	1.40130613e-04
4.38000000e-01	1.47985166e-02	1.40896136e-04
4.39000000e-01	1.47451281e-02	1.40993763e-04
4.40000000e-01	1.46915870e-02	1.40203057e-04
4.41000000e-01	1.46565460e-02	1.40178218e-04
4.42000000e-01	1.47690309e-02	1.41487387e-04
4.43000000e-01	1.47544024e-02	1.40884426e-04
4.44000000e-01	1.48341760e-02	1.42201836e-04
4.45000000e-01	1.48633813e-02	1.43006231e-04
4.46000000e-01	1.47423953e-02	1.41600539e-04
4.47000000e-01	1.47272272e-02	1.41940424e-04
4.48000000e-01	1.47110894e-02	1.41354042e-04
4.49000000e-01	1.45809060e-02	1.41208054e-04
4.50000000e-01	1.47120911e-02	1.42069563e-04
4.51000000e-01	1.46145811e-02	1.41301395e-04
4.52000000e-01	1.46607726e-02	1.41962831e-04
4.53000000e-01	1.46616734e-02	1.41861744e-04
4.54000000e-01	1.45886089e-02	1.41737298e-04
4.55000000e-01	1.45861282e-02	1.42156770e-04
4.56000000e-01	1.46945750e-02	1.42681792e-04
4.57000000e-01	1.45463335e-02	1.41188790e-04
4.58000000e-01	1.46157057e-02	1.41879666e-04
4.59000000e-01	1.46906983e-02	1.42753730e-04
4.60000000e-01	1.46812632e-02	1.43292819e-04
4.61000000e-01	1.47203046e-02	1.43349675e-04
4.62000000e-01	1.45492427e-02	1.41624898e-04
4.63000000e-01	1.45274684e-02	1.41758988e-04
4.64000000e-01	1.46352807e-02	1.43071195e-04
4.65000000e-01	1.44465834e-02	1.41539041e-04
4.66000000e-01	1.45749922e-02	1.42474356e-04
4.67000000e-01	1.44609170e-02	1.41865900e-04
4.68000000e-01	1.44945298e-02	1.42257236e-04
4.69000000e-01	1.45650315e-02	1.43137948e-04
4.70000000e-01	1.47213780e-02	1.44743178e-04
4.71000000e-01	1.44467753e-02	1.42110566e-04
4.72000000e-01	1.44860041e-02	1.42421385e-04
4.73000000e-01	1.45315888e-02	1.42769828e-04
4.74000000e-01	1.43909280e-02	1.41238895e-04
4.75000000e-01	1.44200103e-02	1.41527281e-04
4.76000000e-01	1.44772738e-02	1.41799399e-04
4.77000000e-01	1.46366694e-02	1.43567501e-04
4.78000000e-01	1.43859471e-02	1.41408947e-04
4.79000000e-01	1.44559573e-02	1.41942852e-04
4.80000000e-01	1.43541705e-02	1.40787161e-04
4.81000000e-01	1.43408722e-02	1.40987067e-04
4.82000000e-01	1.44003224e-02	1.41541287e-04
4.83000000e-01	1.44949375e-02	1.42473421e-04
4.84000000e-01	1.45306181e-02	1.43057607e-04
4.85000000e-01	1.44137593e-02	1.41723556e-04
4.86000000e-01	1.43896172e-02	1.41676608e-04
4.87000000e-01	1.43967227e-02	1.42045922e-04
4.88000000e-01	1.43832940e-02	1.42312916e-04
4.89000000e-01	1.43200710e-02	1.41088296e-04
4.90000000e-01	1.43145140e-02	1.41647658e-04
4.91000000e-01	1.41390278e-02	1.39712023e-04
4.92000000e-01	1.43095779e-02	1.41523584e-04
4.93000000e-01	1.43054532e-02	1.41405211e-04
4.94000000e-01	1.42602027e-02	1.41297775e-04
4.95000000e-01	1.43343313e-02	1.42925564e-04
4.96000000e-01	1.42460973e-02	1.46143400e-04
4.97000000e-01	1.42178785e-02	1.49025703e-04
4.98000000e-01	1.42670391e-02	1.50751398e-04
4.99000000e-01	1.44244177e-02	1.54744807e-04
5.00000000e-01	1.43004442e-02	1.55096060e-04
5.01000000e-01	1.43017682e-02	1.56208699e-04
5.02000000e-01	1.44540953e-02	1.59325615e-04
5.03000000e-01	1.40751772e-02	1.57170563e-04
5.04000000e-01	1.42997357e-02	1.60575183e-04
5.05000000e-01	1.43886665e-02	1.59090322e-04
5.06000000e-01	1.42891155e-02	1.54623033e-04
5.07000000e-01	1.41861026e-02	1.52352630e-04
5.08000000e-01	1.41976844e-02	1.51426329e-04
5.09000000e-01	1.43131252e-02	1.51480121e-04
5.10000000e-01	1.44221019e-02	1.52248042e-04
5.11000000e-01	1.43564303e-02	1.51041773e-04
5.12000000e-01	1.42027272e-02	1.49397934e-04
5.13000000e-01	1.42134948e-02	1.49685256e-04
5.14000000e-01	1.42240934e-02	1.48824042e-04
5.15000000e-01	1.40324264e-02	1.46696943e-04
5.16000000e-01	1.40805697e-02	1.47545332e-04
5.17000000e-01	1.40319588e-02	1.46601339e-04
5.18000000e-01	1.41404063e-02	1.47605045e-04
5.19000000e-01	1.41248118e-02	1.46195413e-04
5.20000000e-01	1.40783906e-02	1.45766184e-04
5.21000000e-01	1.40745096e-02	1.45344860e-04
5.22000000e-01	1.42979405e-02	1.47402908e-04
5.23000000e-01	1.41720344e-02	1.46464123e-04
5.24000000e-01	1.41106981e-02	1.46062551e-04
5.25000000e-01	1.40997975e-02	1.45202078e-04
5.26000000e-01	1.39617126e-02	1.44531789e-04
5.27000000e-01	1.39398339e-02	1.43584512e-04
5.28000000e-01	1.39689475e-02	1.44198674e-04
5.29000000e-01	1.39609871e-02	1.44221725e-04
5.30000000e-01	1.40141742e-02	1.45281556e-04
5.31000000e-01	1.41283773e-02	1.45518494e-04
5.32000000e-01	1.39250109e-02	1.44018168e-04
5.33000000e-01	1.39484889e-02	1.44087337e-04
5.34000000e-01	1.40381397e-02	1.44602285e-04
5.35000000e-01	1.39442400e-02	1.44190353e-04
5.36000000e-01	1.40099906e-02	1.44665095e-04
5.37000000e-01	1.38615113e-02	1.43317806e-04
5.38000000e-01	1.39553011e-02	1.43860124e-04
5.39000000e-01	1.39221477e-02	1.43723327e-04
5.40000000e-01	1.38644922e-02	1.42829527e-04
5.41000000e-01	1.38060335e-02	1.43262048e-04
5.42000000e-01	1.38786482e-02	1.43704651e-04
5.43000000e-01	1.38094185e-02	1.42556610e-04
5.44000000e-01	1.38132035e-02	1.42824850e-04
5.45000000e-01	1.38262111e-02	1.42549828e-04
5.46000000e-01	1.39271143e-02	1.43762519e-04
5.47000000e-01	1.37601652e-02	1.42666159e-04
5.48000000e-01	1.38969569e-02	1.43638942e-04
5.49000000e-01	1.36985573e-02	1.41129370e-04
5.50000000e-01	1.38488108e-02	1.43313586e-04
5.51000000e-01	1.37703174e-02	1.41529679e-04
5.52000000e-01	1.37412451e-02	1.41431439e-04
5.53000000e-01	1.37225278e-02	1.41119984e-04
5.54000000e-01	1.37302617e-02	1.41190923e-04
5.55000000e-01	1.36742049e-02	1.40549650e-04
5.56000000e-01	1.36157123e-02	1.39896498e-04
5.57000000e-01	1.36445633e-02	1.40540603e-04
5.58000000e-01	1.36954964e-02	1.40418385e-04
5.59000000e-01	1.35750378e-02	1.39698182e-04
5.60000000e-01	1.35882291e-02	1.39710281e-04
5.61000000e-01	1.36833924e-02	1.40990237e-04
5.62000000e-01	1.37984078e-02	1.41783836e-04
5.63000000e-01	1.35796275e-02	1.39060783e-04
5.64000000e-01	1.36319194e-02	1.40164151e-04
5.65000000e-01	1.36179922e-02	1.40493752e-04
5.66000000e-01	1.35985080e-02	1.39619643e-04
5.67000000e-01	1.36246618e-02	1.40322039e-04
5.68000000e-01	1.35865858e-02	1.39929943e-04
5.69000000e-01	1.35373719e-02	1.39035249e-04
5.70000000e-01	1.35028689e-02	1.38579146e-04
5.71000000e-01	1.36079804e-02	1.39880993e-04
5.72000000e-01	1.36075618e-02	1.39737563e-04
5.73000000e-01	1.35923322e-02	1.40387643e-04
5.74000000e-01	1.33887012e-02	1.38224235e-04
5.75000000e-01	1.34862906e-02	1.39001816e-04
5.76000000e-01	1.35723119e-02	1.39761915e-04
5.77000000e-01	1.34978327e-02	1.38754303e-04
5.78000000e-01	1.36182298e-02	1.40259859e-04
5.79000000e-01	1.34988673e-02	1.38864079e-04
5.80000000e-01	1.34805047e-02	1.38993221e-04
5.81000000e-01	1.34872876e-02	1.39136119e-04
5.82000000e-01	1.33733321e-02	1.37746970e-04
5.83000000e-01	1.34846851e-02	1.39271386e-04
5.84000000e-01	1.34426265e-02	1.38858947e-04
5.85000000e-01	1.33178839e-02	1.37615559e-04
5.86000000e-01	1.34103614e-02	1.38605493e-04
5.87000000e-01	1.32962724e-02	1.37164973e-04
5.88000000e-01	1.32046317e-02	1.36882540e-04
5.89000000e-01	1.34042405e-02	1.38342066e-04
5.90000000e-01	1.34118879e-02	1.38180793e-04
5.91000000e-01	1.34286543e-02	1.38850874e-04
5.92000000e-01	1.33335851e-02	1.37834963e-04
5.93000000e-01	1.33943529e-02	1.38330179e-04
5.94000000e-01	1.33457546e-02	1.37653448e-04
5.95000000e-01	1.32218513e-02	1.37053418e-04
5.96000000e-01	1.32674218e-02	1.37058547e-04
5.97000000e-01	1.33547770e-02	1.38444962e-04
5.98000000e-01	1.32667490e-02	1.37688523e-04
5.99000000e-01	1.33072510e-02	1.37324931e-04
6.00000000e-01	1.32499118e-02	1.37337794e-04
6.01000000e-01	1.32047654e-02	1.36458834e-04
6.02000000e-01	1.31680611e-02	1.37070490e-04
6.03000000e-01	1.32405419e-02	1.37019787e-04
6.04000000e-01	1.30716105e-02	1.35644372e-04
6.05000000e-01	1.31971620e-02	1.37010612e-04
6.06000000e-01	1.30520216e-02	1.35153329e-04
6.07000000e-01	1.32121470e-02	1.36984326e-04
6.08000000e-01	1.32796373e-02	1.37589658e-04
6.09000000e-01	1.31564468e-02	1.36448667e-04
6.10000000e-01	1.32051401e-02	1.36850889e-04
6.11000000e-01	1.30286125e-02	1.35606320e-04
6.12000000e-01	1.32009537e-02	1.37186413e-04
6.13000000e-01	1.32425559e-02	1.36854249e-04
6.14000000e-01	1.30621537e-02	1.35394874e-04
6.15000000e-01	1.31924810e-02	1.36460092e-04
6.16000000e-01	1.31436936e-02	1.36295095e-04
6.17000000e-01	1.29963297e-02	1.34853578e-04
6.18000000e-01	1.31291374e-02	1.36413929e-04
6.19000000e-01	1.31934509e-02	1.36485949e-04
6.20000000e-01	1.31143832e-02	1.36198700e-04
6.21000000e-01	1.31462923e-02	1.36252884e-04
6.22000000e-01	1.29828867e-02	1.34136576e-04
6.23000000e-01	1.29786226e-02	1.34147403e-04
6.24000000e-01	1.31040399e-02	1.35063248e-04
6.25000000e-01	1.30810180e-02	1.35088814e-04
6.26000000e-01	1.30078237e-02	1.34637062e-04
6.27000000e-01	1.29974040e-02	1.34483370e-04
6.28000000e-01	1.29273143e-02	1.33300717e-04
6.29000000e-01	1.29746143e-02	1.33915948e-04
6.30000000e-01	1.30873438e-02	1.34763634e-04
6.31000000e-01	1.29474552e-02	1.33838691e-04
6.32000000e-01	1.29276529e-02	1.34178285e-04
6.33000000e-01	1.30865617e-02	1.34959660e-04
6.34000000e-01	1.30128548e-02	1.37419402e-04
6.35000000e-01	1.30522986e-02	1.42056583e-04
6.36000000e-01	1.30468145e-02	1.44512487e-04
6.37000000e-01	1.31433447e-02	1.47874623e-04
6.38000000e-01	1.30397340e-02	1.48505930e-04
6.39000000e-01	1.30414243e-02	1.50864284e-04
6.40000000e-01	1.30072655e-02	1.52208464e-04
6.41000000e-01	1.30053971e-02	1.53887964e-04
6.42000000e-01	1.29631504e-02	1.55118576e-04
6.43000000e-01	1.29882567e-02	1.55840422e-04
6.44000000e-01	1.30164702e-02	1.49724302e-04
6.45000000e-01	1.30752072e-02	1.48691699e-04
6.46000000e-01	1.29314017e-02	1.46154657e-04
6.47000000e-01	1.29911430e-02	1.44815040e-04
6.48000000e-01	1.29051098e-02	1.43599283e-04
6.49000000e-01	1.30776429e-02	1.44255049e-04
6.50000000e-01	1.30705101e-02	1.43574842e-04
6.51000000e-01	1.29737405e-02	1.41928596e-04
6.52000000e-01	1.29096155e-02	1.40915264e-04
6.53000000e-01	1.29796223e-02	1.40983476e-04
6.54000000e-01	1.29937412e-02	1.40989084e-04
6.55000000e-01	1.29542752e-02	1.39609219e-04
6.56000000e-01	1.30071313e-02	1.40921528e-04
6.57000000e-01	1.30208597e-02	1.40043085e-04
6.58000000e-01	1.29812252e-02	1.39659056e-04
6.59000000e-01	1.30061586e-02	1.39497805e-04
6.60000000e-01	1.29064221e-02	1.38662766e-04
6.61000000e-01	1.29919283e-02	1.39711119e-04
6.62000000e-01	1.30369473e-02	1.40020674e-04
6.63000000e-01	1.28249412e-02	1.37595246e-04
6.64000000e-01	1.29402882e-02	1.38764914e-04
6.65000000e-01	1.30127102e-02	1.39458544e-04
6.66000000e-01	1.30438744e-02	1.39592440e-04
6.67000000e-01	1.29306266e-02	1.38351931e-04
6.68000000e-01	1.28223648e-02	1.37929741e-04
6.69000000e-01	1.29024290e-02	1.38030411e-04
6.70000000e-01	1.29554721e-02	1.38573294e-04
6.71000000e-01	1.29111644e-02	1.37747154e-04
6.72000000e-01	1.29293930e-02	1.38025952e-04
6.73000000e-01	1.28236746e-02	1.36854786e-04
6.74000000e-01	1.27147486e-02	1.35817338e-04
6.75000000e-01	1.28694665e-02	1.37495219e-04
6.76000000e-01	1.27892270e-02	1.36661499e-04
6.77000000e-01	1.27503752e-02	1.36192461e-04
6.78000000e-01	1.27878116e-02	1.36817199e-04
6.79000000e-01	1.28165892e-02	1.37082092e-04
6.80000000e-01	1.28604813e-02	1.37744390e-04
6.81000000e-01	1.27425671e-02	1.35839937e-04
6.82000000e-01	1.27123093e-02	1.36145914e-04
6.83000000e-01	1.28085552e-02	1.36538786e-04
6.84000000e-01	1.27435920e-02	1.35809350e-04
6.85000000e-01	1.26738604e-02	1.35569618e-04
6.86000000e-01	1.26285816e-02	1.35156262e-04
6.87000000e-01	1.27153247e-02	1.35584768e-04
6.88000000e-01	1.28112529e-02	1.36507353e-04
6.89000000e-01	1.26766129e-02	1.35107819e-04
6.90000000e-01	1.28735887e-02	1.37179923e-04
6.91000000e-01	1.26020650e-02	1.34463021e-04
6.92000000e-01	1.27045446e-02	1.35295142e-04
6.93000000e-01	1.25840463e-02	1.34256718e-04
6.94000000e-01	1.26543645e-02	1.35140658e-04
6.95000000e-01	1.27212997e-02	1.35810192e-04
6.96000000e-01	1.26658470e-02	1.34973809e-04
6.97000000e-01	1.27238690e-02	1.35897320e-04
6.98000000e-01	1.24911569e-02	1.33414783e-04
6.99000000e-01	1.26293613e-02	1.34383959e-04
7.00000000e-01	1.25141319e-02	1.33418045e-04
7.01000000e-01	1.26048430e-02	1.34266389e-04
7.02000000e-01	1.25832569e-02	1.33883528e-04
7.03000000e-01	1.25466518e-02	1.34001874e-04
7.04000000e-01	1.26027170e-02	1.34554846e-04
7.05000000e-01	1.25295075e-02	1.33918528e-04
7.06000000e-01	1.25908473e-02	1.34156378e-04
7.07000000e-01	1.25497704e-02	1.33505794e-04
7.08000000e-01	1.23906863e-02	1.31953373e-04
7.09000000e-01	1.24427683e-02	1.32616419e-04
7.10000000e-01	1.26001319e-02	1.33752289e-04
7.11000000e-01	1.24079575e-02	1.32637932e-04
7.12000000e-01	1.23065172e-02	1.31424594e-04
7.13000000e-01	1.24618869e-02	1.32455712e-04
7.14000000e-01	1.23221516e-02	1.31438729e-04
7.15000000e-01	1.24327374e-02	1.32550290e-04
7.16000000e-01	1.24149772e-02	1.32068545e-04
7.17000000e-01	1.24082137e-02	1.32043226e-04
7.18000000e-01	1.23148391e-02	1.31296215e-04
7.19000000e-01	1.24620841e-02	1.32546567e-04
7.20000000e-01	1.24199934e-02	1.32324271e-04
7.21000000e-01	1.23375948e-02	1.31929581e-04
7.22000000e-01	1.22273001e-02	1.30388437e-04
7.23000000e-01	1.24089542e-02	1.32493149e-04
7.24000000e-01	1.22757534e-02	1.31445430e-04
7.25000000e-01	1.23893255e-02	1.31747798e-04
7.26000000e-01	1.23092326e-02	1.31283086e-04
7.27000000e-01	1.22516861e-02	1.30533478e-04
7.28000000e-01	1.22845876e-02	1.31121384e-04
7.29000000e-01	1.22797784e-02	1.30835017e-04
7.30000000e-01	1.21652467e-02	1.29912319e-04
7.31000000e-01	1.22405348e-02	1.30193757e-04
7.32000000e-01	1.23169848e-02	1.31673924e-04
7.33000000e-01	1.22494063e-02	1.30974690e-04
7.34000000e-01	1.21952533e-02	1.30250051e-04
7.35000000e-01	1.21811120e-02	1.29866588e-04
7.36000000e-01	1.22525083e-02	1.30293277e-04
7.37000000e-01	1.21528571e-02	1.29321046e-04
7.38000000e-01	1.21493999e-02	1.28720428e-04
7.39000000e-01	1.21509122e-02	1.28492448e-04
7.40000000e-01	1.22340329e-02	1.29258077e-04
7.41000000e-01	1.21061151e-02	1.28098853e-04
7.42000000e-01	1.21579839e-02	1.28649857e-04
7.43000000e-01	1.21616371e-02	1.28571002e-04
7.44000000e-01	1.20437377e-02	1.27068277e-04
7.45000000e-01	1.21647927e-02	1.28507604e-04
7.46000000e-01	1.21130965e-02	1.27671169e-04
7.47000000e-01	1.19880421e-02	1.26614059e-04
7.48000000e-01	1.20504547e-02	1.27232607e-04
7.49000000e-01	1.20802792e-02	1.27647130e-04
7.50000000e-01	1.20101175e-02	1.27013847e-04
7.51000000e-01	1.21302913e-02	1.27997627e-04
7.52000000e-01	1.21566607e-02	1.28681599e-04
7.53000000e-01	1.20701579e-02	1.27383187e-04
7.54000000e-01	1.20992369e-02	1.28099620e-04
7.55000000e-01	1.19725141e-02	1.26955692e-04
7.56000000e-01	1.20000205e-02	1.26886699e-04
7.57000000e-01	1.19501274e-02	1.26486538e-04
7.58000000e-01	1.20287330e-02	1.27203629e-04
7.59000000e-01	1.20177580e-02	1.26918850e-04
7.60000000e-01	1.19108946e-02	1.25784557e-04
7.61000000e-01	1.19483362e-02	1.25854417e-04
7.62000000e-01	1.19037244e-02	1.25155343e-04
7.63000000e-01	1.19028359e-02	1.25238491e-04
7.64000000e-01	1.19543458e-02	1.25507764e-04
7.65000000e-01	1.18831946e-02	1.24467790e-04
7.66000000e-01	1.19073789e-02	1.24888795e-04
7.67000000e-01	1.19678444e-02	1.25244632e-04
7.68000000e-01	1.18850069e-02	1.24817135e-04
7.69000000e-01	1.19507041e-02	1.24997793e-04
7.70000000e-01	1.18496159e-02	1.24522498e-04
7.71000000e-01	1.18650569e-02	1.24607901e-04
7.72000000e-01	1.18023435e-02	1.27539642e-04
7.73000000e-01	1.17978287e-02	1.31773965e-04
7.74000000e-01	1.17497396e-02	1.34142202e-04
7.75000000e-01	1.17941303e-02	1.36641846e-04
7.76000000e-01	1.18651674e-02	1.39722131e-04
7.77000000e-01	1.16050002e-02	1.39056693e-04
7.78000000e-01	1.17815853e-02	1.42744591e-04
7.79000000e-01	1.15156785e-02	1.41516788e-04
7.80000000e-01	1.17815870e-02	1.45938949e-04
7.81000000e-01	1.16239315e-02	1.46771959e-04
7.82000000e-01	1.17660623e-02	1.48784018e-04
7.83000000e-01	1.16880098e-02	1.49965866e-04
7.84000000e-01	1.16730450e-02	1.51026175e-04
7.85000000e-01	1.15334201e-02	1.51144165e-04
7.86000000e-01	1.16705624e-02	1.54671258e-04
7.87000000e-01	1.16113125e-02	1.55034746e-04
7.88000000e-01	1.16348056e-02	1.56810494e-04
7.89000000e-01	1.15944895e-02	1.58418279e-04
7.90000000e-01	1.16073134e-02	1.59773683e-04
7.91000000e-01	1.15690530e-02	1.61079374e-04
7.92000000e-01	1.16361054e-02	1.63924144e-04
7.93000000e-01	1.14815730e-02	1.63647307e-04
7.94000000e-01	1.16337695e-02	1.66699473e-04
7.95000000e-01	1.15691028e-02	1.67651336e-04
7.96000000e-01	1.15500770e-02	1.69338679e-04
7.97000000e-01	1.16178307e-02	1.71346267e-04
7.98000000e-01	1.13515206e-02	1.70131458e-04
7.99000000e-01	1.16397459e-02	1.75398814e-04
8.00000000e-01	1.13882765e-02	1.72480202e-04
8.01000000e-01	1.15402688e-02	1.78008925e-04
8.02000000e-01	1.13627854e-02	1.78204922e-04
8.03000000e-01	1.15742197e-02	1.82117511e-04
8.04000000e-01	1.13338811e-02	1.80124499e-04
8.05000000e-01	1.13643005e-02	1.82153244e-04
8.06000000e-01	1.14621473e-02	1.86265193e-04
8.07000000e-01	1.13163720e-02	1.86206819e-04
8.08000000e-01	1.14705253e-02	1.89813698e-04
8.09000000e-01	1.12506395e-02	1.89589038e-04
8.10000000e-01	1.11761044e-02	1.89961479e-04
8.11000000e-01	1.13687496e-02	1.95163874e-04
8.12000000e-01	1.12130758e-02	1.95423703e-04
8.13000000e-01	1.13848441e-02	2.00722103e-04
8.14000000e-01	1.12595735e-02	1.99543302e-04
8.15000000e-01	1.13736583e-02	2.04070048e-04
8.16000000e-01	1.12174816e-02	2.03533799e-04
8.17000000e-01	1.10488122e-02	2.05095062e-04
8.18000000e-01	1.10406383e-02	2.06858370e-04
8.19000000e-01	1.11968817e-02	2.12116929e-04
8.20000000e-01	1.11860004e-02	2.14283836e-04
8.21000000e-01	1.11664438e-02	2.15478132e-04
8.22000000e-01	1.12536053e-02	2.20361381e-04
8.23000000e-01	1.11048233e-02	2.20875300e-04
8.24000000e-01	1.11265276e-02	2.24601065e-04
8.25000000e-01	1.11130319e-02	2.28410580e-04
8.26000000e-01	1.10206983e-02	2.29201871e-04
8.27000000e-01	1.10729184e-02	2.33416278e-04
8.28000000e-01	1.10233865e-02	2.36413864e-04
8.29000000e-01	1.08421401e-02	2.36373522e-04
8.30000000e-01	1.10673216e-02	2.44136352e-04
8.31000000e-01	1.08434285e-02	2.42940614e-04
8.32000000e-01	1.09213993e-02	2.50028147e-04
8.33000000e-01	1.11024429e-02	2.58112965e-04
8.34000000e-01	1.08814104e-02	2.56938035e-04
8.35000000e-01	1.10725847e-02	2.65134512e-04
8.36000000e-01	1.10003448e-02	2.71062130e-04
8.37000000e-01	1.09494640e-02	2.74933282e-04
8.38000000e-01	1.10408142e-02	2.80412687e-04
8.39000000e-01	1.07954971e-02	2.82167047e-04
8.40000000e-01	1.07885015e-02	2.89734427e-04
8.41000000e-01	1.09943427e-02	2.97443869e-04
8.42000000e-01	1.09699212e-02	3.06076810e-04
8.43000000e-01	1.05337397e-02	3.01172423e-04
8.44000000e-01	1.07812004e-02	3.12946287e-04
8.45000000e-01	1.06734708e-02	3.19052959e-04
8.46000000e-01	1.07510301e-02	3.34162814e-04
8.47000000e-01	1.06115076e-02	3.34468601e-04
8.48000000e-01	1.08782540e-02	3.52004042e-04
8.49000000e-01	1.08482471e-02	3.65398410e-04
8.50000000e-01	1.07826364e-02	3.78767408e-04
8.51000000e-01	1.08814410e-02	3.95051085e-04
8.52000000e-01	1.05282576e-02	3.96402442e-04
8.53000000e-01	1.11461121e-02	4.32265481e-04
8.54000000e-01	1.04983235e-02	4.35649660e-04
8.55000000e-01	1.11387000e-02	4.68354367e-04
8.56000000e-01	1.08822425e-02	4.76536902e-04
8.57000000e-01	1.03962967e-02	4.67798648e-04
8.58000000e-01	1.02511040e-02	4.76118018e-04
8.59000000e-01	1.03943718e-02	4.95532335e-04
8.60000000e-01	1.06072891e-02	5.32782767e-04
8.61000000e-01	9.98658916e-03	5.22120658e-04
8.62000000e-01	1.10060475e-02	5.82115606e-04
8.63000000e-01	1.02497230e-02	5.58394808e-04
8.64000000e-01	1.05719835e-02	6.05760931e-04
8.65000000e-01	1.09915280e-02	6.60775964e-04
8.66000000e-01	1.07960426e-02	6.80663392e-04
8.67000000e-01	1.02884126e-02	6.84980231e-04
8.68000000e-01	1.04548037e-02	7.40009034e-04
8.69000000e-01	1.02223445e-02	7.92605570e-04
8.70000000e-01	1.09472871e-02	9.11140150e-04
8.71000000e-01	9.49069711e-03	8.76857850e-04
8.72000000e-01	1.09377608e-02	1.17575737e-03
8.73000000e-01	1.07843624e-02	1.33177326e-03
8.74000000e-01	1.08148927e-02	1.84930681e-03
8.75000000e-01	1.19538457e-02	4.05014074e-03
