% Filename : SDL7c_00027_00025.h5
% Date & Time : 30-Oct-2025 17:07:48
% X-ray Energy (keV) : 13.30001
% Exposure Time (s) : 0.500
% Beam Center : 1461.24000, 208.98300
% Sample to Detector Distance (SDD) (mm) : 1990.750
% Detector Pixel Size (mm) : 0.075
% Photodiode Value : 140942.000
% I0 of Sample : 0
% I0 of Standard : 1
% 
% q(A^-1)   I(q)    I(q)_SE
0.00000000e+00	1.15366681e-02	7.13703938e-03
2.50000000e-04	0.00000000e+00	0.00000000e+00
5.00000000e-04	0.00000000e+00	0.00000000e+00
7.50000000e-04	0.00000000e+00	0.00000000e+00
1.00000000e-03	0.00000000e+00	0.00000000e+00
1.25000000e-03	0.00000000e+00	0.00000000e+00
1.50000000e-03	0.00000000e+00	0.00000000e+00
1.75000000e-03	0.00000000e+00	0.00000000e+00
2.00000000e-03	0.00000000e+00	0.00000000e+00
2.25000000e-03	0.00000000e+00	0.00000000e+00
2.50000000e-03	0.00000000e+00	0.00000000e+00
2.75000000e-03	0.00000000e+00	0.00000000e+00
3.00000000e-03	0.00000000e+00	0.00000000e+00
3.25000000e-03	3.28166919e+03	3.25522605e+03
3.50000000e-03	1.05503364e+01	3.73469738e+00
3.75000000e-03	1.12703672e+02	1.02558921e+02
4.00000000e-03	6.62250878e+01	5.70678040e+01
4.25000000e-03	7.22780940e+00	3.26791211e+00
4.50000000e-03	1.16157913e+02	9.20967647e+01
4.75000000e-03	1.32129067e+02	7.44966057e+01
5.00000000e-03	1.06325175e+02	5.75601690e+01
5.25000000e-03	8.34586278e+01	4.60600137e+01
5.50000000e-03	6.97496264e+01	3.92982247e+01
5.75000000e-03	5.49875390e+01	3.03374260e+01
6.00000000e-03	4.58388033e+01	2.46136825e+01
6.25000000e-03	4.20143229e+01	2.30675897e+01
6.50000000e-03	3.35989554e+01	1.77485781e+01
6.75000000e-03	3.16435443e+01	1.69990560e+01
7.00000000e-03	2.64321997e+01	1.38929327e+01
7.25000000e-03	2.44363252e+01	1.26742001e+01
7.50000000e-03	1.98004684e+01	1.00953725e+01
7.75000000e-03	1.84601592e+01	9.08292353e+00
8.00000000e-03	1.63180766e+01	7.88489670e+00
8.25000000e-03	1.33108299e+01	6.31228639e+00
8.50000000e-03	1.25927143e+01	6.05919603e+00
8.75000000e-03	1.13461723e+01	5.51458473e+00
9.00000000e-03	1.01085857e+01	4.72298015e+00
9.25000000e-03	8.45691938e+00	3.92798436e+00
9.50000000e-03	7.72208382e+00	3.60710949e+00
9.75000000e-03	7.36474464e+00	3.54443749e+00
1.00000000e-02	4.93694666e+00	2.52591841e+00
1.02500000e-02	5.86851988e+00	2.63834685e+00
1.05000000e-02	5.11452551e+00	2.30061224e+00
1.07500000e-02	4.76890480e+00	2.15487799e+00
1.10000000e-02	4.26788208e+00	1.89472465e+00
1.12500000e-02	3.54416171e+00	1.68430053e+00
1.15000000e-02	3.82355897e+00	1.63507823e+00
1.17500000e-02	3.43668186e+00	1.50927052e+00
1.20000000e-02	3.22791022e+00	1.38076276e+00
1.22500000e-02	2.82888694e+00	1.17043455e+00
1.25000000e-02	2.81396180e+00	1.18316994e+00
1.27500000e-02	2.58156013e+00	1.08655306e+00
1.30000000e-02	2.24926137e+00	9.27033282e-01
1.32500000e-02	2.02773032e+00	8.21435282e-01
1.35000000e-02	1.94537233e+00	7.84452684e-01
1.37500000e-02	1.81829240e+00	7.23648179e-01
1.40000000e-02	1.64585222e+00	6.43747376e-01
1.42500000e-02	1.46047571e+00	5.50214052e-01
1.45000000e-02	1.43659693e+00	5.41087946e-01
1.47500000e-02	1.38531564e+00	5.22724340e-01
1.50000000e-02	1.29637923e+00	4.79012919e-01
1.52500000e-02	1.15812922e+00	4.21459791e-01
1.55000000e-02	1.12082150e+00	4.17274691e-01
1.57500000e-02	1.04880141e+00	3.84952935e-01
1.60000000e-02	1.00551143e+00	3.66697592e-01
1.62500000e-02	9.72449590e-01	3.50586710e-01
1.65000000e-02	8.85836323e-01	3.10777376e-01
1.67500000e-02	7.99264477e-01	2.74531951e-01
1.70000000e-02	7.96091018e-01	2.80264250e-01
1.72500000e-02	7.25918506e-01	2.46004983e-01
1.75000000e-02	6.82269534e-01	2.42776645e-01
1.77500000e-02	6.56865901e-01	2.23682645e-01
1.80000000e-02	6.25551774e-01	2.10952929e-01
1.82500000e-02	5.82674729e-01	1.92500979e-01
1.85000000e-02	4.46921872e-01	1.40242613e-01
1.87500000e-02	5.35433963e-01	1.75710018e-01
1.90000000e-02	5.14036050e-01	1.66359944e-01
1.92500000e-02	4.72837950e-01	1.53846482e-01
1.95000000e-02	4.22190201e-01	1.38063415e-01
1.97500000e-02	4.45367239e-01	1.40655979e-01
2.00000000e-02	4.07729142e-01	1.28132383e-01
2.02500000e-02	3.91440106e-01	1.20351610e-01
2.05000000e-02	3.64737419e-01	1.08245995e-01
2.07500000e-02	3.60832452e-01	1.07698240e-01
2.10000000e-02	3.56168372e-01	1.07251044e-01
2.12500000e-02	3.41690879e-01	9.88574427e-02
2.15000000e-02	3.35441594e-01	9.83205623e-02
2.17500000e-02	3.33477847e-01	9.82378332e-02
2.20000000e-02	3.18718974e-01	8.95666749e-02
2.22500000e-02	3.07642864e-01	8.69279858e-02
2.25000000e-02	3.05062581e-01	8.46563472e-02
2.27500000e-02	2.87613907e-01	7.86881246e-02
2.30000000e-02	2.86816925e-01	7.88347805e-02
2.32500000e-02	2.69953293e-01	7.22716996e-02
2.35000000e-02	2.71436399e-01	7.31098879e-02
2.37500000e-02	2.56997985e-01	6.82578064e-02
2.40000000e-02	2.41776931e-01	6.63596627e-02
2.42500000e-02	2.38283360e-01	6.30251515e-02
2.45000000e-02	2.30628808e-01	5.94947099e-02
2.47500000e-02	2.21420139e-01	5.64995007e-02
2.50000000e-02	2.20240380e-01	5.61186438e-02
2.52500000e-02	1.88713326e-01	4.68625007e-02
2.55000000e-02	1.96837841e-01	4.80586588e-02
2.57500000e-02	1.98942666e-01	4.89135533e-02
2.60000000e-02	1.88621698e-01	4.44336250e-02
2.62500000e-02	1.82044053e-01	4.48974773e-02
2.65000000e-02	1.81073810e-01	4.21418009e-02
2.67500000e-02	1.76816596e-01	4.08359855e-02
2.70000000e-02	1.67410990e-01	3.88314671e-02
2.72500000e-02	1.63863948e-01	3.64113094e-02
2.75000000e-02	1.65036578e-01	3.71672653e-02
2.77500000e-02	1.58909736e-01	3.46577639e-02
2.80000000e-02	1.51870265e-01	3.29856141e-02
2.82500000e-02	1.49160221e-01	3.18045338e-02
2.85000000e-02	1.42940424e-01	2.94612112e-02
2.87500000e-02	1.46227733e-01	3.05883189e-02
2.90000000e-02	1.43501080e-01	2.91568412e-02
2.92500000e-02	1.34581340e-01	2.72173162e-02
2.95000000e-02	1.32516298e-01	2.61274151e-02
2.97500000e-02	1.27637424e-01	2.49584090e-02
3.00000000e-02	1.26399321e-01	2.43561744e-02
3.02500000e-02	1.23011244e-01	2.30983145e-02
3.05000000e-02	1.17077308e-01	2.21435355e-02
3.07500000e-02	1.14038205e-01	2.01730508e-02
3.10000000e-02	1.17802435e-01	2.19486580e-02
3.12500000e-02	1.11024871e-01	1.99910725e-02
3.15000000e-02	1.06982635e-01	1.82662061e-02
3.17500000e-02	1.04390804e-01	1.78927379e-02
3.20000000e-02	1.02538744e-01	1.75547350e-02
3.22500000e-02	1.03421298e-01	1.78723372e-02
3.25000000e-02	9.69341545e-02	1.71581014e-02
3.27500000e-02	9.67038805e-02	1.61828312e-02
3.30000000e-02	9.43186035e-02	1.61754016e-02
3.32500000e-02	9.53896114e-02	1.59479609e-02
3.35000000e-02	8.71490343e-02	1.43917952e-02
3.37500000e-02	9.20570185e-02	1.49575948e-02
3.40000000e-02	8.99567317e-02	1.44063526e-02
3.42500000e-02	8.59700236e-02	1.36287040e-02
3.45000000e-02	8.42573589e-02	1.32841561e-02
3.47500000e-02	8.51035488e-02	1.29739774e-02
3.50000000e-02	8.15577375e-02	1.25222227e-02
3.52500000e-02	8.11963279e-02	1.20460526e-02
3.55000000e-02	7.85496246e-02	1.14970724e-02
3.57500000e-02	7.74812841e-02	1.12277552e-02
3.60000000e-02	7.61015888e-02	1.08595819e-02
3.62500000e-02	7.54910260e-02	1.07289467e-02
3.65000000e-02	7.54760562e-02	1.11807893e-02
3.67500000e-02	7.37056080e-02	1.02593512e-02
3.70000000e-02	7.26216652e-02	9.96206759e-03
3.72500000e-02	7.26088379e-02	9.98744709e-03
3.75000000e-02	6.96102318e-02	9.44131785e-03
3.77500000e-02	6.71767817e-02	8.72808037e-03
3.80000000e-02	6.72911593e-02	8.53643423e-03
3.82500000e-02	6.61412778e-02	8.40685557e-03
3.85000000e-02	6.63509470e-02	8.37250045e-03
3.87500000e-02	6.24887799e-02	7.86541804e-03
3.90000000e-02	6.20848917e-02	7.72043825e-03
3.92500000e-02	6.13766542e-02	7.38710943e-03
3.95000000e-02	6.09374515e-02	7.09198738e-03
3.97500000e-02	6.02553767e-02	7.25716876e-03
4.00000000e-02	5.92985506e-02	7.03341409e-03
4.02500000e-02	5.61684276e-02	6.23786571e-03
4.05000000e-02	5.76194887e-02	6.36716578e-03
4.07500000e-02	5.72223017e-02	6.39114569e-03
4.10000000e-02	5.63573401e-02	6.50489910e-03
4.12500000e-02	5.56590646e-02	6.09820811e-03
4.15000000e-02	5.60889907e-02	5.94097618e-03
4.17500000e-02	5.49905632e-02	5.83996378e-03
4.20000000e-02	5.30382722e-02	5.51252411e-03
4.22500000e-02	5.32257997e-02	5.33317925e-03
4.25000000e-02	5.22315019e-02	5.46898280e-03
4.27500000e-02	5.17068136e-02	5.01298015e-03
4.30000000e-02	5.09504396e-02	5.06935313e-03
4.32500000e-02	4.99553538e-02	5.04036860e-03
4.35000000e-02	4.94091691e-02	4.78073456e-03
4.37500000e-02	4.80234141e-02	4.57893487e-03
4.40000000e-02	4.79601455e-02	4.53961901e-03
4.42500000e-02	4.79489467e-02	4.50131649e-03
4.45000000e-02	4.74993031e-02	4.39236259e-03
4.47500000e-02	4.66614170e-02	4.15910282e-03
4.50000000e-02	4.54840715e-02	4.09516112e-03
4.52500000e-02	4.57299720e-02	4.04758662e-03
4.55000000e-02	4.55303886e-02	3.98045017e-03
4.57500000e-02	4.47366081e-02	3.80400376e-03
4.60000000e-02	4.41364246e-02	3.86616862e-03
4.62500000e-02	4.44157695e-02	3.72023913e-03
4.65000000e-02	4.31344853e-02	3.59339777e-03
4.67500000e-02	4.22155958e-02	3.42641459e-03
4.70000000e-02	4.32632562e-02	3.36845884e-03
4.72500000e-02	4.25546946e-02	3.34220370e-03
4.75000000e-02	4.14839699e-02	3.09514484e-03
4.77500000e-02	4.19135511e-02	3.20293595e-03
4.80000000e-02	4.19561953e-02	3.24229073e-03
4.82500000e-02	4.07993805e-02	3.00897321e-03
4.85000000e-02	4.09652625e-02	2.94396850e-03
4.87500000e-02	3.99939738e-02	2.88678964e-03
4.90000000e-02	3.96933977e-02	2.99292981e-03
4.92500000e-02	3.99417592e-02	2.90804118e-03
4.95000000e-02	3.88031486e-02	2.75415091e-03
4.97500000e-02	3.88119799e-02	2.75166911e-03
5.00000000e-02	3.90934859e-02	2.74174950e-03
5.02500000e-02	3.81657921e-02	2.55299716e-03
5.05000000e-02	3.69882291e-02	2.44334959e-03
5.07500000e-02	3.75107243e-02	2.56426635e-03
5.10000000e-02	3.66165496e-02	2.33796808e-03
5.12500000e-02	3.68609026e-02	2.44805924e-03
5.15000000e-02	3.58157315e-02	2.26778876e-03
5.17500000e-02	3.68292126e-02	2.36021730e-03
5.20000000e-02	3.51017406e-02	2.17846108e-03
5.22500000e-02	3.68436717e-02	2.35933425e-03
5.25000000e-02	3.46598086e-02	2.12028630e-03
5.27500000e-02	3.45940168e-02	2.10142520e-03
5.30000000e-02	3.54525578e-02	2.17047407e-03
5.32500000e-02	3.47233534e-02	2.11921751e-03
5.35000000e-02	3.40733822e-02	2.02203111e-03
5.37500000e-02	3.38247440e-02	1.98810003e-03
5.40000000e-02	3.32190292e-02	1.87184915e-03
5.42500000e-02	3.32785583e-02	1.91213211e-03
5.45000000e-02	3.41753503e-02	1.89046016e-03
5.47500000e-02	3.32408652e-02	1.89040601e-03
5.50000000e-02	3.39931905e-02	1.96435853e-03
5.52500000e-02	3.27914900e-02	1.79188465e-03
5.55000000e-02	3.25225454e-02	1.79826414e-03
5.57500000e-02	3.26401009e-02	1.78977149e-03
5.60000000e-02	3.30088257e-02	1.76282908e-03
5.62500000e-02	3.33689029e-02	1.86980807e-03
5.65000000e-02	3.22527499e-02	1.66684743e-03
5.67500000e-02	3.17750576e-02	1.75786708e-03
5.70000000e-02	3.20135402e-02	1.70969695e-03
5.72500000e-02	3.16706160e-02	1.67497484e-03
5.75000000e-02	3.22651344e-02	1.68885386e-03
5.77500000e-02	3.12662101e-02	1.53823522e-03
5.80000000e-02	3.13793968e-02	1.58263915e-03
5.82500000e-02	3.10661559e-02	1.52751674e-03
5.85000000e-02	3.06336406e-02	1.49453690e-03
5.87500000e-02	3.11812160e-02	1.52424082e-03
5.90000000e-02	3.09634718e-02	1.52663943e-03
5.92500000e-02	2.99684218e-02	1.41698765e-03
5.95000000e-02	2.96271337e-02	1.36357084e-03
5.97500000e-02	3.03882197e-02	1.45999655e-03
6.00000000e-02	2.96663816e-02	1.40976304e-03
6.02500000e-02	2.93669133e-02	1.40015386e-03
6.05000000e-02	3.04739476e-02	1.39220429e-03
6.07500000e-02	2.87496996e-02	1.36691315e-03
6.10000000e-02	2.96266855e-02	1.36987538e-03
6.12500000e-02	2.92221984e-02	1.33520520e-03
6.15000000e-02	2.90604971e-02	1.29861519e-03
6.17500000e-02	2.90864193e-02	1.29593706e-03
6.20000000e-02	2.91409691e-02	1.32349050e-03
6.22500000e-02	2.94698441e-02	1.32080929e-03
6.25000000e-02	2.77575234e-02	1.20803873e-03
6.27500000e-02	2.87311262e-02	1.25474005e-03
6.30000000e-02	2.81162135e-02	1.24231280e-03
6.32500000e-02	2.74035573e-02	1.16333330e-03
6.35000000e-02	2.83341787e-02	1.22585827e-03
6.37500000e-02	2.82234724e-02	1.21563475e-03
6.40000000e-02	2.74282755e-02	1.16614345e-03
6.42500000e-02	2.81896505e-02	1.16380745e-03
6.45000000e-02	2.73821833e-02	1.14704712e-03
6.47500000e-02	2.77770166e-02	1.16967472e-03
6.50000000e-02	2.77181041e-02	1.16036073e-03
6.52500000e-02	2.77337852e-02	1.14362480e-03
6.55000000e-02	2.73288659e-02	1.11018876e-03
6.57500000e-02	2.82980738e-02	1.18204016e-03
6.60000000e-02	2.74203416e-02	1.11285363e-03
6.62500000e-02	2.75806651e-02	1.13613980e-03
6.65000000e-02	2.75257451e-02	1.07207817e-03
6.67500000e-02	2.71696948e-02	1.08305465e-03
6.70000000e-02	2.68683299e-02	1.09163829e-03
6.72500000e-02	2.71530935e-02	1.11793252e-03
6.75000000e-02	2.61951219e-02	1.00517716e-03
6.77500000e-02	2.68033376e-02	1.06489151e-03
6.80000000e-02	2.68925741e-02	1.05970042e-03
6.82500000e-02	2.68622984e-02	1.05577099e-03
6.85000000e-02	2.66241643e-02	1.03186705e-03
6.87500000e-02	2.59791772e-02	9.98392649e-04
6.90000000e-02	2.62703873e-02	1.00745967e-03
6.92500000e-02	2.61208018e-02	1.00033462e-03
6.95000000e-02	2.63953672e-02	1.04335469e-03
6.97500000e-02	2.68911211e-02	1.03494390e-03
7.00000000e-02	2.60266504e-02	1.01139391e-03
7.02500000e-02	2.63091747e-02	9.97103376e-04
7.05000000e-02	2.55802959e-02	9.69396104e-04
7.07500000e-02	2.64712161e-02	9.95668518e-04
7.10000000e-02	2.58446081e-02	9.75973614e-04
7.12500000e-02	2.58212575e-02	9.72352913e-04
7.15000000e-02	2.64653256e-02	9.83430773e-04
7.17500000e-02	2.61437858e-02	9.76321442e-04
7.20000000e-02	2.60612914e-02	9.46176330e-04
7.22500000e-02	2.58606009e-02	9.45436451e-04
7.25000000e-02	2.55461993e-02	9.53505804e-04
7.27500000e-02	2.54713944e-02	9.35908018e-04
7.30000000e-02	2.59929090e-02	9.34868071e-04
7.32500000e-02	2.55474526e-02	9.25917195e-04
7.35000000e-02	2.64759290e-02	9.58451246e-04
7.37500000e-02	2.57417153e-02	9.19423432e-04
7.40000000e-02	2.50785254e-02	8.97080617e-04
7.42500000e-02	2.58532424e-02	9.26767328e-04
7.45000000e-02	2.50221515e-02	9.01849883e-04
7.47500000e-02	2.51701727e-02	8.90330843e-04
7.50000000e-02	2.50312912e-02	8.89544408e-04
7.52500000e-02	2.52024526e-02	8.88089391e-04
7.55000000e-02	2.46369388e-02	8.71665310e-04
7.57500000e-02	2.54631444e-02	8.90311728e-04
7.60000000e-02	2.53020583e-02	8.88665478e-04
7.62500000e-02	2.52605295e-02	8.90312521e-04
7.65000000e-02	2.56115121e-02	8.93428309e-04
7.67500000e-02	2.48991373e-02	8.68853470e-04
7.70000000e-02	2.50982616e-02	8.62039723e-04
7.72500000e-02	2.49945073e-02	8.73639585e-04
7.75000000e-02	2.48655185e-02	8.89520402e-04
7.77500000e-02	2.54002159e-02	9.05303244e-04
7.80000000e-02	2.49409862e-02	8.93425869e-04
7.82500000e-02	2.52261445e-02	9.08960083e-04
7.85000000e-02	2.48642267e-02	9.03515389e-04
7.87500000e-02	2.42115012e-02	8.65203925e-04
7.90000000e-02	2.41887673e-02	8.86182955e-04
7.92500000e-02	2.46055253e-02	9.06289160e-04
7.95000000e-02	2.39984930e-02	8.79281995e-04
7.97500000e-02	2.45468557e-02	8.99438701e-04
8.00000000e-02	2.44684100e-02	8.91181363e-04
8.02500000e-02	2.48191785e-02	9.10519587e-04
8.05000000e-02	2.49637241e-02	9.27042885e-04
8.07500000e-02	2.43543329e-02	9.01577004e-04
8.10000000e-02	2.47335115e-02	9.07785612e-04
8.12500000e-02	2.55028602e-02	9.45072968e-04
8.15000000e-02	2.49165092e-02	9.13676601e-04
8.17500000e-02	2.46184358e-02	9.06223600e-04
8.20000000e-02	2.46615584e-02	9.16978239e-04
8.22500000e-02	2.39329833e-02	8.91477612e-04
8.25000000e-02	2.44833855e-02	9.05370937e-04
8.27500000e-02	2.33755908e-02	8.64004135e-04
8.30000000e-02	2.42703461e-02	9.10689271e-04
8.32500000e-02	2.39989168e-02	8.94065561e-04
8.35000000e-02	2.46229778e-02	9.14187590e-04
8.37500000e-02	2.43531883e-02	9.00179201e-04
8.40000000e-02	2.38752270e-02	8.87843068e-04
8.42500000e-02	2.38859950e-02	8.95161404e-04
8.45000000e-02	2.36901133e-02	8.88084668e-04
8.47500000e-02	2.40472905e-02	9.14312306e-04
8.50000000e-02	2.32975171e-02	8.73478938e-04
8.52500000e-02	2.44159204e-02	9.11237545e-04
8.55000000e-02	2.37598118e-02	8.78358886e-04
8.57500000e-02	2.38659645e-02	8.93135776e-04
8.60000000e-02	2.43657095e-02	9.13148241e-04
8.62500000e-02	2.34850698e-02	8.78206403e-04
8.65000000e-02	2.34341550e-02	8.76504573e-04
8.67500000e-02	2.36786821e-02	8.80477917e-04
8.70000000e-02	2.36855402e-02	8.66555042e-04
8.72500000e-02	2.39473624e-02	8.63618881e-04
8.75000000e-02	2.32520534e-02	8.25822230e-04
8.77500000e-02	2.31459821e-02	8.27755014e-04
8.80000000e-02	2.34182813e-02	8.32365767e-04
8.82500000e-02	2.40212411e-02	8.45447065e-04
8.85000000e-02	2.32181181e-02	8.16000178e-04
8.87500000e-02	2.35573326e-02	8.10522686e-04
8.90000000e-02	2.36318900e-02	8.18778087e-04
8.92500000e-02	2.39324352e-02	8.22381920e-04
8.95000000e-02	2.35837722e-02	8.16543791e-04
8.97500000e-02	2.25939420e-02	7.71282252e-04
9.00000000e-02	2.30459615e-02	7.81132341e-04
9.02500000e-02	2.31709780e-02	7.86700138e-04
9.05000000e-02	2.29326185e-02	7.85554406e-04
9.07500000e-02	2.30220089e-02	7.81061086e-04
9.10000000e-02	2.31491737e-02	7.81582418e-04
9.12500000e-02	2.34228354e-02	7.86855149e-04
9.15000000e-02	2.23571731e-02	7.45136839e-04
9.17500000e-02	2.22955781e-02	7.47248604e-04
9.20000000e-02	2.25367851e-02	7.56498941e-04
9.22500000e-02	2.27047174e-02	7.52628738e-04
9.25000000e-02	2.26989274e-02	7.55368848e-04
9.27500000e-02	2.23955963e-02	7.41883749e-04
9.30000000e-02	2.24464908e-02	7.46264710e-04
9.32500000e-02	2.24375367e-02	7.42875527e-04
9.35000000e-02	2.22980401e-02	7.34077318e-04
9.37500000e-02	2.21313002e-02	7.31605384e-04
9.40000000e-02	2.27551110e-02	7.46166516e-04
9.42500000e-02	2.29843810e-02	7.52621982e-04
9.45000000e-02	2.23330964e-02	7.31635546e-04
9.47500000e-02	2.23584646e-02	7.28456727e-04
9.50000000e-02	2.20506296e-02	7.17733441e-04
9.52500000e-02	2.21740047e-02	7.19209035e-04
9.55000000e-02	2.26380703e-02	7.36012069e-04
9.57500000e-02	2.20572258e-02	7.16762925e-04
9.60000000e-02	2.24327642e-02	7.20650956e-04
9.62500000e-02	2.20433589e-02	7.10663649e-04
9.65000000e-02	2.20407635e-02	7.05167575e-04
9.67500000e-02	2.19778301e-02	7.13013770e-04
9.70000000e-02	2.25162875e-02	7.23474798e-04
9.72500000e-02	2.18054290e-02	7.02557631e-04
9.75000000e-02	2.17110662e-02	6.96933315e-04
9.77500000e-02	2.17304720e-02	6.87054401e-04
9.80000000e-02	2.26262784e-02	7.22956289e-04
9.82500000e-02	2.22532180e-02	7.09055222e-04
9.85000000e-02	2.18961823e-02	6.95635742e-04
9.87500000e-02	2.21696659e-02	7.03286085e-04
9.90000000e-02	2.19675105e-02	6.91301882e-04
9.92500000e-02	2.18261504e-02	6.94948803e-04
9.95000000e-02	2.21324598e-02	7.00170921e-04
9.97500000e-02	2.24424229e-02	7.07960060e-04
1.00000000e-01	2.16001848e-02	5.51621994e-04
1.00500000e-01	2.18780299e-02	4.89774356e-04
1.01000000e-01	2.16755240e-02	4.79000156e-04
1.01500000e-01	2.14228332e-02	4.73222008e-04
1.02000000e-01	2.20482408e-02	4.84681450e-04
1.02500000e-01	2.18701382e-02	4.75486743e-04
1.03000000e-01	2.16090053e-02	4.71486462e-04
1.03500000e-01	2.18080602e-02	4.73972062e-04
1.04000000e-01	2.17978569e-02	4.72633902e-04
1.04500000e-01	2.12939148e-02	4.60637569e-04
1.05000000e-01	2.15624909e-02	4.63948761e-04
1.05500000e-01	2.12310084e-02	4.58871285e-04
1.06000000e-01	2.14501679e-02	4.60184094e-04
1.06500000e-01	2.14274695e-02	4.57311043e-04
1.07000000e-01	2.15381611e-02	4.67788547e-04
1.07500000e-01	2.11502829e-02	4.65892461e-04
1.08000000e-01	2.10768584e-02	4.69630044e-04
1.08500000e-01	2.11277638e-02	4.72282683e-04
1.09000000e-01	2.14086552e-02	4.82688040e-04
1.09500000e-01	2.07884714e-02	4.72673698e-04
1.10000000e-01	2.11054979e-02	4.72589258e-04
1.10500000e-01	2.11268797e-02	4.66017229e-04
1.11000000e-01	2.14855781e-02	4.62983122e-04
1.11500000e-01	2.13342301e-02	4.58421922e-04
1.12000000e-01	2.10257493e-02	4.49423913e-04
1.12500000e-01	2.12634460e-02	4.48949177e-04
1.13000000e-01	2.12661947e-02	4.50878806e-04
1.13500000e-01	2.14241327e-02	4.49664441e-04
1.14000000e-01	2.12247444e-02	4.42881760e-04
1.14500000e-01	2.11726203e-02	4.42910983e-04
1.15000000e-01	2.10262237e-02	4.35489651e-04
1.15500000e-01	2.07357934e-02	4.32418262e-04
1.16000000e-01	2.08961830e-02	4.32966700e-04
1.16500000e-01	2.12550844e-02	4.38214376e-04
1.17000000e-01	2.12949584e-02	4.39028740e-04
1.17500000e-01	2.12628857e-02	4.36676148e-04
1.18000000e-01	2.11554570e-02	4.33331950e-04
1.18500000e-01	2.14824250e-02	4.35625932e-04
1.19000000e-01	2.11025520e-02	4.29988654e-04
1.19500000e-01	2.10762994e-02	4.28005825e-04
1.20000000e-01	2.08497641e-02	4.20936106e-04
1.20500000e-01	2.12598559e-02	4.31346659e-04
1.21000000e-01	2.10431184e-02	4.23842201e-04
1.21500000e-01	2.07542958e-02	4.18915578e-04
1.22000000e-01	2.07510575e-02	4.18264371e-04
1.22500000e-01	2.10561105e-02	4.21834315e-04
1.23000000e-01	2.11035434e-02	4.21925479e-04
1.23500000e-01	2.11648351e-02	4.23258912e-04
1.24000000e-01	2.14579535e-02	4.27003156e-04
1.24500000e-01	2.14579856e-02	4.26254749e-04
1.25000000e-01	2.13367001e-02	4.22125026e-04
1.25500000e-01	2.15597933e-02	4.25035830e-04
1.26000000e-01	2.11381644e-02	4.19034369e-04
1.26500000e-01	2.12086005e-02	4.18175467e-04
1.27000000e-01	2.13709708e-02	4.20734566e-04
1.27500000e-01	2.13279898e-02	4.18349760e-04
1.28000000e-01	2.13283120e-02	4.17311657e-04
1.28500000e-01	2.12028223e-02	4.14266255e-04
1.29000000e-01	2.09873856e-02	4.10386055e-04
1.29500000e-01	2.10016216e-02	4.09117652e-04
1.30000000e-01	2.10471288e-02	4.08862773e-04
1.30500000e-01	2.09122047e-02	4.05832644e-04
1.31000000e-01	2.10119121e-02	4.09309846e-04
1.31500000e-01	2.05515499e-02	3.99657081e-04
1.32000000e-01	2.12135691e-02	4.10608438e-04
1.32500000e-01	2.09452136e-02	4.02320576e-04
1.33000000e-01	2.11411726e-02	4.04235254e-04
1.33500000e-01	2.14913667e-02	4.09614577e-04
1.34000000e-01	2.13567417e-02	4.06938445e-04
1.34500000e-01	2.11127612e-02	4.00279545e-04
1.35000000e-01	2.09835341e-02	3.98491857e-04
1.35500000e-01	2.12266729e-02	4.00103703e-04
1.36000000e-01	2.09805851e-02	3.93948092e-04
1.36500000e-01	2.10107041e-02	3.97832678e-04
1.37000000e-01	2.10595877e-02	3.96393034e-04
1.37500000e-01	2.09607987e-02	3.94319015e-04
1.38000000e-01	2.10691123e-02	3.95838925e-04
1.38500000e-01	2.09696883e-02	3.94749356e-04
1.39000000e-01	2.09144190e-02	3.92328149e-04
1.39500000e-01	2.09768681e-02	3.91997840e-04
1.40000000e-01	2.09284998e-02	3.90679428e-04
1.40500000e-01	2.05024927e-02	3.83284511e-04
1.41000000e-01	2.06450079e-02	3.86215437e-04
1.41500000e-01	2.04181279e-02	3.81262227e-04
1.42000000e-01	2.07164102e-02	3.85043783e-04
1.42500000e-01	2.07282026e-02	3.86019695e-04
1.43000000e-01	2.05081770e-02	3.81648058e-04
1.43500000e-01	2.05565710e-02	3.81281005e-04
1.44000000e-01	2.03717181e-02	3.77944053e-04
1.44500000e-01	2.06497982e-02	3.80240898e-04
1.45000000e-01	2.06296430e-02	3.81458165e-04
1.45500000e-01	2.05427507e-02	3.76696008e-04
1.46000000e-01	2.04015762e-02	3.75946483e-04
1.46500000e-01	2.03475945e-02	3.73817513e-04
1.47000000e-01	2.03434553e-02	3.72474500e-04
1.47500000e-01	2.04702762e-02	3.74552386e-04
1.48000000e-01	2.03385737e-02	3.72466506e-04
1.48500000e-01	2.03680657e-02	3.71035377e-04
1.49000000e-01	2.02919705e-02	3.69209946e-04
1.49500000e-01	2.03155695e-02	3.69942870e-04
1.50000000e-01	2.04098550e-02	3.70630143e-04
1.50500000e-01	2.03171739e-02	3.69403444e-04
1.51000000e-01	2.03260065e-02	3.68428212e-04
1.51500000e-01	2.02792999e-02	3.66075452e-04
1.52000000e-01	2.02008998e-02	3.63282460e-04
1.52500000e-01	2.02200376e-02	3.62897237e-04
1.53000000e-01	1.98878845e-02	3.58482259e-04
1.53500000e-01	1.99891253e-02	3.59866778e-04
1.54000000e-01	2.02879477e-02	3.61874170e-04
1.54500000e-01	2.01973117e-02	3.67184172e-04
1.55000000e-01	2.00753746e-02	3.70714450e-04
1.55500000e-01	1.96211470e-02	3.65324123e-04
1.56000000e-01	2.00575972e-02	3.75414356e-04
1.56500000e-01	2.00672775e-02	3.73558111e-04
1.57000000e-01	1.98870819e-02	3.72640778e-04
1.57500000e-01	1.98578679e-02	3.64432466e-04
1.58000000e-01	2.00694294e-02	3.62289980e-04
1.58500000e-01	2.01610668e-02	3.62530068e-04
1.59000000e-01	1.98405714e-02	3.55103215e-04
1.59500000e-01	1.99534997e-02	3.57196909e-04
1.60000000e-01	1.98220640e-02	3.54340991e-04
1.60500000e-01	2.01633961e-02	3.57053498e-04
1.61000000e-01	2.00808344e-02	3.58469218e-04
1.61500000e-01	2.01587342e-02	3.55409770e-04
1.62000000e-01	1.96840236e-02	3.49914967e-04
1.62500000e-01	1.99529584e-02	3.51802054e-04
1.63000000e-01	1.96238427e-02	3.45047031e-04
1.63500000e-01	1.98399068e-02	3.51124130e-04
1.64000000e-01	1.98896926e-02	3.49181504e-04
1.64500000e-01	1.97802961e-02	3.46348071e-04
1.65000000e-01	1.99755545e-02	3.48866381e-04
1.65500000e-01	1.98593196e-02	3.47031653e-04
1.66000000e-01	1.98750437e-02	3.46938009e-04
1.66500000e-01	1.98547012e-02	3.44346684e-04
1.67000000e-01	2.02565880e-02	3.51989392e-04
1.67500000e-01	1.96368292e-02	3.42699775e-04
1.68000000e-01	1.98235101e-02	3.42724382e-04
1.68500000e-01	1.97890686e-02	3.41943605e-04
1.69000000e-01	1.98821433e-02	3.43284716e-04
1.69500000e-01	1.99541850e-02	3.41322550e-04
1.70000000e-01	1.95089504e-02	3.35098911e-04
1.70500000e-01	1.98344914e-02	3.41200530e-04
1.71000000e-01	1.94643780e-02	3.34188225e-04
1.71500000e-01	1.96381624e-02	3.36632908e-04
1.72000000e-01	1.95131918e-02	3.33764796e-04
1.72500000e-01	1.95750056e-02	3.34344852e-04
1.73000000e-01	1.94396555e-02	3.32411803e-04
1.73500000e-01	1.94897943e-02	3.32968475e-04
1.74000000e-01	1.96701294e-02	3.33520041e-04
1.74500000e-01	1.94745749e-02	3.29753020e-04
1.75000000e-01	1.97130365e-02	3.29547375e-04
1.75500000e-01	1.94568881e-02	3.27935549e-04
1.76000000e-01	1.96367772e-02	3.31241344e-04
1.76500000e-01	1.94329328e-02	3.27212401e-04
1.77000000e-01	1.93407741e-02	3.24851364e-04
1.77500000e-01	1.94238245e-02	3.24826137e-04
1.78000000e-01	1.95562562e-02	3.26434339e-04
1.78500000e-01	1.95659198e-02	3.29651249e-04
1.79000000e-01	1.94193430e-02	3.24902191e-04
1.79500000e-01	1.92936947e-02	3.23092517e-04
1.80000000e-01	1.94404472e-02	3.24610189e-04
1.80500000e-01	1.91973604e-02	3.20793862e-04
1.81000000e-01	1.93734991e-02	3.23533517e-04
1.81500000e-01	1.92676941e-02	3.21127267e-04
1.82000000e-01	1.92779655e-02	3.21382750e-04
1.82500000e-01	1.95251919e-02	3.22679684e-04
1.83000000e-01	1.91373867e-02	3.17723562e-04
1.83500000e-01	1.96716674e-02	3.24381377e-04
1.84000000e-01	1.93146828e-02	3.18664182e-04
1.84500000e-01	1.91899943e-02	3.16953748e-04
1.85000000e-01	1.93189192e-02	3.19605953e-04
1.85500000e-01	1.92631583e-02	3.17017181e-04
1.86000000e-01	1.91534881e-02	3.15593011e-04
1.86500000e-01	1.94114881e-02	3.18643919e-04
1.87000000e-01	1.91837035e-02	3.15833053e-04
1.87500000e-01	1.92732265e-02	3.16522608e-04
1.88000000e-01	1.93691849e-02	3.17127032e-04
1.88500000e-01	1.93812363e-02	3.15901124e-04
1.89000000e-01	1.92423838e-02	3.14510235e-04
1.89500000e-01	1.91587331e-02	3.12773744e-04
1.90000000e-01	1.92693906e-02	3.13649248e-04
1.90500000e-01	1.89445227e-02	3.07971365e-04
1.91000000e-01	1.91565766e-02	3.10940809e-04
1.91500000e-01	1.92134889e-02	3.12257032e-04
1.92000000e-01	1.91083693e-02	3.10104281e-04
1.92500000e-01	1.95110819e-02	3.14556834e-04
1.93000000e-01	1.92406650e-02	3.11511631e-04
1.93500000e-01	1.91468377e-02	3.10077035e-04
1.94000000e-01	1.90318731e-02	3.08389619e-04
1.94500000e-01	1.89361988e-02	3.05676224e-04
1.95000000e-01	1.91715870e-02	3.08763212e-04
1.95500000e-01	1.87147105e-02	3.00707191e-04
1.96000000e-01	1.89774996e-02	3.03309385e-04
1.96500000e-01	1.91495676e-02	3.06436477e-04
1.97000000e-01	1.90560082e-02	3.04964923e-04
1.97500000e-01	1.92091113e-02	3.06504979e-04
1.98000000e-01	1.89463669e-02	3.03197532e-04
1.98500000e-01	1.89146342e-02	3.00584712e-04
1.99000000e-01	1.90880520e-02	3.03725206e-04
1.99500000e-01	1.89226476e-02	3.01997190e-04
2.00000000e-01	1.90085295e-02	3.02292979e-04
2.00500000e-01	1.88572381e-02	3.00120907e-04
2.01000000e-01	1.89746085e-02	2.99639939e-04
2.01500000e-01	1.89773060e-02	3.01011502e-04
2.02000000e-01	1.89348564e-02	3.00324626e-04
2.02500000e-01	1.89993306e-02	2.99610651e-04
2.03000000e-01	1.85964114e-02	2.94072578e-04
2.03500000e-01	1.88870962e-02	2.97607450e-04
2.04000000e-01	1.89438101e-02	2.97204646e-04
2.04500000e-01	1.91330309e-02	3.01200901e-04
2.05000000e-01	1.89094919e-02	2.96855640e-04
2.05500000e-01	1.86162596e-02	2.93294964e-04
2.06000000e-01	1.87344390e-02	2.92496284e-04
2.06500000e-01	1.89347251e-02	2.95711128e-04
2.07000000e-01	1.88179049e-02	2.95638142e-04
2.07500000e-01	1.87750303e-02	2.92690926e-04
2.08000000e-01	1.89751604e-02	2.97382243e-04
2.08500000e-01	1.87960886e-02	2.91021219e-04
2.09000000e-01	1.87256315e-02	2.91753389e-04
2.09500000e-01	1.86762219e-02	2.91355355e-04
2.10000000e-01	1.87257542e-02	2.90933712e-04
2.10500000e-01	1.87595512e-02	2.92007971e-04
2.11000000e-01	1.89579588e-02	2.93943781e-04
2.11500000e-01	1.88138536e-02	2.90312965e-04
2.12000000e-01	1.88204812e-02	2.90986431e-04
2.12500000e-01	1.87550437e-02	2.90729284e-04
2.13000000e-01	1.84998089e-02	2.85378958e-04
2.13500000e-01	1.89055086e-02	2.90753893e-04
2.14000000e-01	1.86038642e-02	2.87381409e-04
2.14500000e-01	1.86469799e-02	2.86483159e-04
2.15000000e-01	1.85458361e-02	2.85644405e-04
2.15500000e-01	1.86838867e-02	2.85801274e-04
2.16000000e-01	1.86111733e-02	2.85326264e-04
2.16500000e-01	1.88413302e-02	2.87845328e-04
2.17000000e-01	1.87896511e-02	2.92516552e-04
2.17500000e-01	1.85302785e-02	2.91332704e-04
2.18000000e-01	1.86412183e-02	2.94806451e-04
2.18500000e-01	1.85587540e-02	2.94441389e-04
2.19000000e-01	1.87002485e-02	2.97018448e-04
2.19500000e-01	1.85182190e-02	2.96191757e-04
2.20000000e-01	1.84405689e-02	2.98314366e-04
2.20500000e-01	1.85732441e-02	2.99202530e-04
2.21000000e-01	1.86288563e-02	3.01633381e-04
2.21500000e-01	1.88332272e-02	3.05337088e-04
2.22000000e-01	1.86160828e-02	3.03436343e-04
2.22500000e-01	1.84422621e-02	2.99942806e-04
2.23000000e-01	1.86375499e-02	3.05022640e-04
2.23500000e-01	1.87220009e-02	3.05822981e-04
2.24000000e-01	1.86648337e-02	3.05747065e-04
2.24500000e-01	1.82978656e-02	3.01887341e-04
2.25000000e-01	1.83973732e-02	3.03238641e-04
2.25500000e-01	1.85401809e-02	3.06006999e-04
2.26000000e-01	1.84353070e-02	3.06330740e-04
2.26500000e-01	1.84049322e-02	2.99019233e-04
2.27000000e-01	1.85602373e-02	2.98864690e-04
2.27500000e-01	1.85088902e-02	2.96720259e-04
2.28000000e-01	1.83981168e-02	2.94266277e-04
2.28500000e-01	1.85132927e-02	2.93855775e-04
2.29000000e-01	1.83999308e-02	2.90376423e-04
2.29500000e-01	1.83792712e-02	2.88867742e-04
2.30000000e-01	1.83421037e-02	2.87856637e-04
2.30500000e-01	1.85585524e-02	2.89744711e-04
2.31000000e-01	1.85487488e-02	2.90346492e-04
2.31500000e-01	1.82425794e-02	2.84157507e-04
2.32000000e-01	1.84761137e-02	2.86165611e-04
2.32500000e-01	1.83441958e-02	2.83498591e-04
2.33000000e-01	1.81969484e-02	2.81637196e-04
2.33500000e-01	1.85251638e-02	2.84959838e-04
2.34000000e-01	1.85036193e-02	2.84698887e-04
2.34500000e-01	1.83822347e-02	2.83095308e-04
2.35000000e-01	1.82884042e-02	2.80247887e-04
2.35500000e-01	1.82055380e-02	2.79554937e-04
2.36000000e-01	1.83493874e-02	2.80350277e-04
2.36500000e-01	1.81966696e-02	2.78396381e-04
2.37000000e-01	1.82422346e-02	2.77583084e-04
2.37500000e-01	1.82831669e-02	2.78200324e-04
2.38000000e-01	1.82554327e-02	2.76768979e-04
2.38500000e-01	1.81286507e-02	2.74435545e-04
2.39000000e-01	1.81338519e-02	2.73694890e-04
2.39500000e-01	1.81598120e-02	2.74610315e-04
2.40000000e-01	1.82989660e-02	2.76845639e-04
2.40500000e-01	1.82173575e-02	2.72978296e-04
2.41000000e-01	1.80220539e-02	2.70526486e-04
2.41500000e-01	1.82805584e-02	2.73329564e-04
2.42000000e-01	1.80796479e-02	2.70070778e-04
2.42500000e-01	1.83264064e-02	2.73863134e-04
2.43000000e-01	1.83129626e-02	2.73511253e-04
2.43500000e-01	1.82951357e-02	2.71897595e-04
2.44000000e-01	1.83043742e-02	2.71618102e-04
2.44500000e-01	1.80599566e-02	2.68248371e-04
2.45000000e-01	1.81819488e-02	2.69540224e-04
2.45500000e-01	1.82754786e-02	2.72236398e-04
2.46000000e-01	1.82736902e-02	2.70516526e-04
2.46500000e-01	1.82224364e-02	2.68293214e-04
2.47000000e-01	1.81361062e-02	2.67945134e-04
2.47500000e-01	1.78374738e-02	2.63148536e-04
2.48000000e-01	1.79171412e-02	2.63925688e-04
2.48500000e-01	1.81145768e-02	2.66139742e-04
2.49000000e-01	1.79792196e-02	2.64285264e-04
2.49500000e-01	1.81670473e-02	2.65685387e-04
2.50000000e-01	1.77586879e-02	2.60612325e-04
2.50500000e-01	1.81036969e-02	2.65893259e-04
2.51000000e-01	1.79642694e-02	2.62883704e-04
2.51500000e-01	1.80658091e-02	2.64491980e-04
2.52000000e-01	1.78959307e-02	2.61569045e-04
2.52500000e-01	1.80516622e-02	2.63280548e-04
2.53000000e-01	1.80827963e-02	2.63468704e-04
2.53500000e-01	1.81213449e-02	2.63300796e-04
2.54000000e-01	1.80892335e-02	2.64884273e-04
2.54500000e-01	1.78697010e-02	2.60811348e-04
2.55000000e-01	1.81593963e-02	2.62961574e-04
2.55500000e-01	1.82755739e-02	2.63950368e-04
2.56000000e-01	1.79774791e-02	2.60534692e-04
2.56500000e-01	1.78462369e-02	2.58823099e-04
2.57000000e-01	1.79186585e-02	2.58550229e-04
2.57500000e-01	1.78790267e-02	2.58320830e-04
2.58000000e-01	1.78849954e-02	2.58207608e-04
2.58500000e-01	1.78530044e-02	2.57146160e-04
2.59000000e-01	1.77538789e-02	2.56074595e-04
2.59500000e-01	1.79306889e-02	2.56514265e-04
2.60000000e-01	1.80443493e-02	2.58676946e-04
2.60500000e-01	1.76384860e-02	2.53474247e-04
2.61000000e-01	1.77537934e-02	2.54683603e-04
2.61500000e-01	1.77347538e-02	2.54510436e-04
2.62000000e-01	1.79360435e-02	2.56394857e-04
2.62500000e-01	1.77906982e-02	2.53973877e-04
2.63000000e-01	1.79889875e-02	2.56557018e-04
2.63500000e-01	1.78517869e-02	2.54036756e-04
2.64000000e-01	1.78490663e-02	2.53983376e-04
2.64500000e-01	1.77750797e-02	2.51775534e-04
2.65000000e-01	1.76098284e-02	2.50854347e-04
2.65500000e-01	1.79188931e-02	2.54550629e-04
2.66000000e-01	1.78343531e-02	2.52287615e-04
2.66500000e-01	1.78572516e-02	2.52335109e-04
2.67000000e-01	1.78287371e-02	2.51925005e-04
2.67500000e-01	1.78891849e-02	2.52419534e-04
2.68000000e-01	1.77262586e-02	2.49940129e-04
2.68500000e-01	1.77507875e-02	2.49824998e-04
2.69000000e-01	1.78613257e-02	2.50531060e-04
2.69500000e-01	1.77634660e-02	2.48585289e-04
2.70000000e-01	1.79290230e-02	2.51189680e-04
2.70500000e-01	1.77360791e-02	2.47928013e-04
2.71000000e-01	1.77179429e-02	2.48117905e-04
2.71500000e-01	1.78567739e-02	2.49900416e-04
2.72000000e-01	1.76528103e-02	2.46898428e-04
2.72500000e-01	1.77413467e-02	2.48885430e-04
2.73000000e-01	1.75936099e-02	2.46290814e-04
2.73500000e-01	1.77613288e-02	2.47195198e-04
2.74000000e-01	1.78293912e-02	2.48472433e-04
2.74500000e-01	1.77770017e-02	2.47316284e-04
2.75000000e-01	1.76831382e-02	2.45722258e-04
2.75500000e-01	1.76198365e-02	2.45004801e-04
2.76000000e-01	1.74669286e-02	2.43315671e-04
2.76500000e-01	1.75345700e-02	2.43568577e-04
2.77000000e-01	1.74473074e-02	2.42970003e-04
2.77500000e-01	1.76074848e-02	2.44551422e-04
2.78000000e-01	1.77431394e-02	2.45537613e-04
2.78500000e-01	1.76289112e-02	2.43671837e-04
2.79000000e-01	1.76141238e-02	2.43386675e-04
2.79500000e-01	1.74980705e-02	2.42053013e-04
2.80000000e-01	1.77527924e-02	2.46301444e-04
2.80500000e-01	1.75274535e-02	2.41405023e-04
2.81000000e-01	1.75828767e-02	2.41891107e-04
2.81500000e-01	1.77517272e-02	2.44053068e-04
2.82000000e-01	1.76043762e-02	2.41369409e-04
2.82500000e-01	1.74852200e-02	2.41491728e-04
2.83000000e-01	1.74884098e-02	2.39304496e-04
2.83500000e-01	1.73422822e-02	2.38391922e-04
2.84000000e-01	1.73130438e-02	2.37826977e-04
2.84500000e-01	1.74149695e-02	2.38008161e-04
2.85000000e-01	1.75864530e-02	2.39934588e-04
2.85500000e-01	1.74176377e-02	2.37857597e-04
2.86000000e-01	1.76534674e-02	2.41596070e-04
2.86500000e-01	1.73623577e-02	2.37252874e-04
2.87000000e-01	1.75857705e-02	2.40084854e-04
2.87500000e-01	1.71968180e-02	2.34410493e-04
2.88000000e-01	1.72331792e-02	2.33464395e-04
2.88500000e-01	1.72924113e-02	2.35879995e-04
2.89000000e-01	1.74843727e-02	2.36721606e-04
2.89500000e-01	1.72668097e-02	2.34449095e-04
2.90000000e-01	1.75453805e-02	2.37369691e-04
2.90500000e-01	1.74351130e-02	2.35743595e-04
2.91000000e-01	1.74085727e-02	2.34553436e-04
2.91500000e-01	1.73411361e-02	2.33382667e-04
2.92000000e-01	1.72953666e-02	2.33651981e-04
2.92500000e-01	1.73943608e-02	2.33250307e-04
2.93000000e-01	1.71904345e-02	2.31986739e-04
2.93500000e-01	1.73565156e-02	2.33346417e-04
2.94000000e-01	1.71122505e-02	2.30354532e-04
2.94500000e-01	1.71840629e-02	2.31946703e-04
2.95000000e-01	1.72869101e-02	2.32317222e-04
2.95500000e-01	1.72288078e-02	2.31038367e-04
2.96000000e-01	1.73948905e-02	2.33627085e-04
2.96500000e-01	1.73580798e-02	2.32228434e-04
2.97000000e-01	1.71435510e-02	2.29565619e-04
2.97500000e-01	1.71395481e-02	2.28884743e-04
2.98000000e-01	1.72547106e-02	2.30731180e-04
2.98500000e-01	1.73517933e-02	2.32130392e-04
2.99000000e-01	1.73571952e-02	2.30453595e-04
2.99500000e-01	1.73301071e-02	2.31062953e-04
3.00000000e-01	1.71305050e-02	2.28916084e-04
3.00500000e-01	1.72809962e-02	2.29792868e-04
3.01000000e-01	1.70393672e-02	2.26560733e-04
3.01500000e-01	1.72051267e-02	2.28980293e-04
3.02000000e-01	1.70946206e-02	2.26829855e-04
3.02500000e-01	1.70786204e-02	2.27382400e-04
3.03000000e-01	1.73707230e-02	2.29683514e-04
3.03500000e-01	1.72254379e-02	2.28474647e-04
3.04000000e-01	1.70907645e-02	2.25837040e-04
3.04500000e-01	1.70833541e-02	2.25601825e-04
3.05000000e-01	1.72078840e-02	2.28893139e-04
3.05500000e-01	1.72249792e-02	2.26822250e-04
3.06000000e-01	1.72349904e-02	2.25677351e-04
3.06500000e-01	1.72052657e-02	2.27064528e-04
3.07000000e-01	1.71631690e-02	2.25866641e-04
3.07500000e-01	1.70355599e-02	2.24617883e-04
3.08000000e-01	1.70666589e-02	2.24587332e-04
3.08500000e-01	1.70690298e-02	2.23607849e-04
3.09000000e-01	1.72032215e-02	2.26011824e-04
3.09500000e-01	1.69985941e-02	2.22751597e-04
3.10000000e-01	1.71107971e-02	2.24361778e-04
3.10500000e-01	1.71496205e-02	2.24506969e-04
3.11000000e-01	1.71388993e-02	2.24556428e-04
3.11500000e-01	1.68873154e-02	2.20781614e-04
3.12000000e-01	1.70685981e-02	2.23278516e-04
3.12500000e-01	1.71397405e-02	2.23347489e-04
3.13000000e-01	1.69922571e-02	2.21799476e-04
3.13500000e-01	1.69453681e-02	2.20591578e-04
3.14000000e-01	1.71288349e-02	2.22443754e-04
3.14500000e-01	1.70682611e-02	2.22550522e-04
3.15000000e-01	1.68829180e-02	2.19849010e-04
3.15500000e-01	1.67833925e-02	2.18409804e-04
3.16000000e-01	1.69331029e-02	2.19515563e-04
3.16500000e-01	1.69779931e-02	2.19933189e-04
3.17000000e-01	1.69219447e-02	2.19539987e-04
3.17500000e-01	1.68952763e-02	2.19022056e-04
3.18000000e-01	1.68435883e-02	2.17554071e-04
3.18500000e-01	1.68793939e-02	2.18591463e-04
3.19000000e-01	1.69868704e-02	2.19731362e-04
3.19500000e-01	1.69341879e-02	2.19605689e-04
3.20000000e-01	1.68970789e-02	2.17949584e-04
3.20500000e-01	1.68132959e-02	2.17167285e-04
3.21000000e-01	1.67076263e-02	2.15526202e-04
3.21500000e-01	1.68074284e-02	2.16157121e-04
3.22000000e-01	1.66053778e-02	2.14234429e-04
3.22500000e-01	1.67199891e-02	2.15167215e-04
3.23000000e-01	1.67476167e-02	2.15149693e-04
3.23500000e-01	1.68218903e-02	2.15861391e-04
3.24000000e-01	1.66064738e-02	2.12951922e-04
3.24500000e-01	1.68479333e-02	2.16320594e-04
3.25000000e-01	1.66625773e-02	2.13661125e-04
3.25500000e-01	1.67248732e-02	2.13744845e-04
3.26000000e-01	1.67193462e-02	2.14040916e-04
3.26500000e-01	1.69208845e-02	2.15613370e-04
3.27000000e-01	1.66365347e-02	2.12407867e-04
3.27500000e-01	1.67322838e-02	2.13937619e-04
3.28000000e-01	1.68426599e-02	2.15255751e-04
3.28500000e-01	1.67250822e-02	2.13109305e-04
3.29000000e-01	1.68288342e-02	2.14031528e-04
3.29500000e-01	1.66200158e-02	2.11876089e-04
3.30000000e-01	1.66018529e-02	2.10998742e-04
3.30500000e-01	1.66188825e-02	2.11662020e-04
3.31000000e-01	1.67671990e-02	2.11831777e-04
3.31500000e-01	1.66669032e-02	2.11569071e-04
3.32000000e-01	1.65392060e-02	2.10149232e-04
3.32500000e-01	1.62842002e-02	2.06330583e-04
3.33000000e-01	1.67744481e-02	2.12600989e-04
3.33500000e-01	1.66953568e-02	2.11707873e-04
3.34000000e-01	1.66628152e-02	2.10390813e-04
3.34500000e-01	1.64255327e-02	2.08625989e-04
3.35000000e-01	1.66009574e-02	2.09656820e-04
3.35500000e-01	1.63480262e-02	2.07366987e-04
3.36000000e-01	1.66484805e-02	2.10021853e-04
3.36500000e-01	1.65519088e-02	2.08610708e-04
3.37000000e-01	1.66178258e-02	2.09045279e-04
3.37500000e-01	1.66148370e-02	2.08932854e-04
3.38000000e-01	1.66082121e-02	2.09092471e-04
3.38500000e-01	1.65414192e-02	2.08207525e-04
3.39000000e-01	1.63367725e-02	2.05793868e-04
3.39500000e-01	1.64601339e-02	2.06058468e-04
3.40000000e-01	1.64074701e-02	2.06064808e-04
3.40500000e-01	1.64905286e-02	2.06673898e-04
3.41000000e-01	1.64764054e-02	2.06516162e-04
3.41500000e-01	1.65323839e-02	2.07642207e-04
3.42000000e-01	1.66560580e-02	2.07106135e-04
3.42500000e-01	1.63252012e-02	2.04512611e-04
3.43000000e-01	1.65297821e-02	2.06664848e-04
3.43500000e-01	1.64275985e-02	2.04715284e-04
3.44000000e-01	1.64779040e-02	2.06018637e-04
3.44500000e-01	1.65361160e-02	2.05450827e-04
3.45000000e-01	1.66595095e-02	2.07484931e-04
3.45500000e-01	1.65926468e-02	2.05948838e-04
3.46000000e-01	1.62324353e-02	2.02170280e-04
3.46500000e-01	1.63915263e-02	2.03177159e-04
3.47000000e-01	1.63100029e-02	2.02152575e-04
3.47500000e-01	1.64743692e-02	2.04652635e-04
3.48000000e-01	1.62577231e-02	2.01992588e-04
3.48500000e-01	1.63963983e-02	2.03384094e-04
3.49000000e-01	1.63458057e-02	2.02417065e-04
3.49500000e-01	1.64008251e-02	2.03591135e-04
3.50000000e-01	1.62778474e-02	1.64212741e-04
3.51000000e-01	1.64300074e-02	1.43236086e-04
3.52000000e-01	1.62395234e-02	1.41839544e-04
3.53000000e-01	1.62533278e-02	1.41586564e-04
3.54000000e-01	1.62417811e-02	1.41325447e-04
3.55000000e-01	1.63698173e-02	1.41941763e-04
3.56000000e-01	1.63448069e-02	1.42508811e-04
3.57000000e-01	1.61802377e-02	1.43732036e-04
3.58000000e-01	1.61712598e-02	1.44657975e-04
3.59000000e-01	1.60465475e-02	1.44563070e-04
3.60000000e-01	1.60842139e-02	1.45764609e-04
3.61000000e-01	1.62232967e-02	1.47532402e-04
3.62000000e-01	1.60137067e-02	1.46658180e-04
3.63000000e-01	1.60622427e-02	1.47732620e-04
3.64000000e-01	1.59422158e-02	1.47551710e-04
3.65000000e-01	1.59513940e-02	1.47657744e-04
3.66000000e-01	1.60289578e-02	1.47111508e-04
3.67000000e-01	1.60315465e-02	1.44767886e-04
3.68000000e-01	1.60258792e-02	1.43825101e-04
3.69000000e-01	1.60358061e-02	1.43220640e-04
3.70000000e-01	1.59497132e-02	1.41888537e-04
3.71000000e-01	1.59608847e-02	1.43411981e-04
3.72000000e-01	1.60372817e-02	1.45148732e-04
3.73000000e-01	1.59214279e-02	1.44469574e-04
3.74000000e-01	1.58631494e-02	1.43831875e-04
3.75000000e-01	1.58455243e-02	1.43872263e-04
3.76000000e-01	1.59074019e-02	1.44389717e-04
3.77000000e-01	1.60212514e-02	1.45441310e-04
3.78000000e-01	1.58901151e-02	1.44196425e-04
3.79000000e-01	1.58798974e-02	1.44124185e-04
3.80000000e-01	1.58238099e-02	1.43353859e-04
3.81000000e-01	1.57608041e-02	1.42853572e-04
3.82000000e-01	1.57550081e-02	1.42903057e-04
3.83000000e-01	1.58737014e-02	1.43695619e-04
3.84000000e-01	1.58275559e-02	1.43495071e-04
3.85000000e-01	1.57206077e-02	1.42817874e-04
3.86000000e-01	1.58062157e-02	1.43107165e-04
3.87000000e-01	1.58090600e-02	1.43102687e-04
3.88000000e-01	1.57424019e-02	1.42479640e-04
3.89000000e-01	1.56730011e-02	1.41850379e-04
3.90000000e-01	1.58032414e-02	1.42440261e-04
3.91000000e-01	1.58146962e-02	1.42809214e-04
3.92000000e-01	1.55945239e-02	1.40905433e-04
3.93000000e-01	1.57235702e-02	1.41605572e-04
3.94000000e-01	1.55817786e-02	1.40910359e-04
3.95000000e-01	1.55954370e-02	1.41108580e-04
3.96000000e-01	1.57197500e-02	1.41872883e-04
3.97000000e-01	1.55913394e-02	1.40978243e-04
3.98000000e-01	1.54500729e-02	1.40025816e-04
3.99000000e-01	1.54884323e-02	1.40088071e-04
4.00000000e-01	1.54541448e-02	1.40169225e-04
4.01000000e-01	1.55350256e-02	1.40133082e-04
4.02000000e-01	1.55382010e-02	1.40283962e-04
4.03000000e-01	1.55350047e-02	1.40210796e-04
4.04000000e-01	1.54952335e-02	1.39665648e-04
4.05000000e-01	1.54256627e-02	1.39338528e-04
4.06000000e-01	1.56071430e-02	1.40713307e-04
4.07000000e-01	1.54858898e-02	1.39576813e-04
4.08000000e-01	1.56195286e-02	1.40617521e-04
4.09000000e-01	1.54701524e-02	1.39394552e-04
4.10000000e-01	1.56050674e-02	1.40073699e-04
4.11000000e-01	1.53422188e-02	1.38605215e-04
4.12000000e-01	1.54020897e-02	1.38783441e-04
4.13000000e-01	1.53812151e-02	1.38594503e-04
4.14000000e-01	1.54941354e-02	1.39304050e-04
4.15000000e-01	1.55097239e-02	1.39501365e-04
4.16000000e-01	1.54689852e-02	1.39395033e-04
4.17000000e-01	1.54513843e-02	1.39134581e-04
4.18000000e-01	1.54392023e-02	1.40475172e-04
4.19000000e-01	1.54416150e-02	1.41955445e-04
4.20000000e-01	1.53804406e-02	1.42580896e-04
4.21000000e-01	1.56326458e-02	1.44470340e-04
4.22000000e-01	1.53698408e-02	1.43152241e-04
4.23000000e-01	1.54016611e-02	1.44262357e-04
4.24000000e-01	1.55699217e-02	1.46120969e-04
4.25000000e-01	1.55019761e-02	1.44782529e-04
4.26000000e-01	1.53842740e-02	1.44434291e-04
4.27000000e-01	1.54105031e-02	1.44668460e-04
4.28000000e-01	1.54833549e-02	1.45294398e-04
4.29000000e-01	1.54361258e-02	1.45650990e-04
4.30000000e-01	1.53792537e-02	1.44708535e-04
4.31000000e-01	1.53382834e-02	1.44231819e-04
4.32000000e-01	1.52388879e-02	1.44062516e-04
4.33000000e-01	1.52721882e-02	1.43822241e-04
4.34000000e-01	1.53749268e-02	1.44935832e-04
4.35000000e-01	1.52641084e-02	1.44460523e-04
4.36000000e-01	1.52893962e-02	1.44453428e-04
4.37000000e-01	1.52925128e-02	1.44355333e-04
4.38000000e-01	1.53257223e-02	1.45692459e-04
4.39000000e-01	1.52637363e-02	1.45025694e-04
4.40000000e-01	1.53136465e-02	1.45625741e-04
4.41000000e-01	1.50764422e-02	1.43675410e-04
4.42000000e-01	1.52344634e-02	1.45737699e-04
4.43000000e-01	1.52448368e-02	1.45686966e-04
4.44000000e-01	1.51873836e-02	1.45192210e-04
4.45000000e-01	1.52995524e-02	1.46468747e-04
4.46000000e-01	1.52079899e-02	1.45915162e-04
4.47000000e-01	1.52491622e-02	1.46146265e-04
4.48000000e-01	1.51895101e-02	1.45931078e-04
4.49000000e-01	1.51969203e-02	1.46302453e-04
4.50000000e-01	1.51716205e-02	1.45843037e-04
4.51000000e-01	1.52780442e-02	1.46688125e-04
4.52000000e-01	1.50633535e-02	1.45378762e-04
4.53000000e-01	1.51303443e-02	1.46110517e-04
4.54000000e-01	1.50691247e-02	1.45348943e-04
4.55000000e-01	1.49839968e-02	1.44866282e-04
4.56000000e-01	1.49245561e-02	1.44341663e-04
4.57000000e-01	1.51327006e-02	1.46484251e-04
4.58000000e-01	1.51711449e-02	1.46818872e-04
4.59000000e-01	1.51035035e-02	1.46285007e-04
4.60000000e-01	1.51103793e-02	1.46562164e-04
4.61000000e-01	1.50181167e-02	1.46026546e-04
4.62000000e-01	1.51291343e-02	1.46862735e-04
4.63000000e-01	1.50781732e-02	1.46629907e-04
4.64000000e-01	1.49482179e-02	1.46066937e-04
4.65000000e-01	1.50237478e-02	1.46014642e-04
4.66000000e-01	1.50468558e-02	1.46452140e-04
4.67000000e-01	1.49914274e-02	1.46816090e-04
4.68000000e-01	1.50101923e-02	1.46288747e-04
4.69000000e-01	1.50216304e-02	1.46563651e-04
4.70000000e-01	1.50700115e-02	1.47244733e-04
4.71000000e-01	1.49988443e-02	1.46294925e-04
4.72000000e-01	1.50221010e-02	1.46581198e-04
4.73000000e-01	1.49579056e-02	1.46350250e-04
4.74000000e-01	1.49266733e-02	1.46022741e-04
4.75000000e-01	1.50624900e-02	1.46813088e-04
4.76000000e-01	1.48870501e-02	1.45806799e-04
4.77000000e-01	1.48920324e-02	1.45560580e-04
4.78000000e-01	1.49754874e-02	1.46346962e-04
4.79000000e-01	1.49187826e-02	1.45833741e-04
4.80000000e-01	1.48013736e-02	1.44784902e-04
4.81000000e-01	1.48653229e-02	1.45357289e-04
4.82000000e-01	1.48701839e-02	1.45581342e-04
4.83000000e-01	1.47616390e-02	1.45680034e-04
4.84000000e-01	1.47270931e-02	1.44454141e-04
4.85000000e-01	1.48596275e-02	1.45827281e-04
4.86000000e-01	1.47592470e-02	1.45206612e-04
4.87000000e-01	1.49733360e-02	1.47094742e-04
4.88000000e-01	1.46900298e-02	1.44540725e-04
4.89000000e-01	1.48618809e-02	1.46333187e-04
4.90000000e-01	1.47774989e-02	1.45817822e-04
4.91000000e-01	1.48857629e-02	1.46322666e-04
4.92000000e-01	1.47248722e-02	1.44958064e-04
4.93000000e-01	1.47480904e-02	1.45484795e-04
4.94000000e-01	1.47588860e-02	1.45794750e-04
4.95000000e-01	1.47087005e-02	1.46438967e-04
4.96000000e-01	1.48227761e-02	1.51110453e-04
4.97000000e-01	1.47882041e-02	1.54234401e-04
4.98000000e-01	1.47624315e-02	1.55330081e-04
4.99000000e-01	1.48185752e-02	1.58735059e-04
5.00000000e-01	1.49380326e-02	1.61165074e-04
5.01000000e-01	1.48048615e-02	1.61894184e-04
5.02000000e-01	1.46581969e-02	1.61545606e-04
5.03000000e-01	1.48198992e-02	1.65083938e-04
5.04000000e-01	1.46342369e-02	1.63930430e-04
5.05000000e-01	1.47194211e-02	1.62912816e-04
5.06000000e-01	1.49257257e-02	1.60497659e-04
5.07000000e-01	1.46448550e-02	1.56347553e-04
5.08000000e-01	1.46988228e-02	1.56477658e-04
5.09000000e-01	1.45719136e-02	1.54505689e-04
5.10000000e-01	1.47200954e-02	1.54967095e-04
5.11000000e-01	1.47482565e-02	1.54697544e-04
5.12000000e-01	1.45714898e-02	1.52766216e-04
5.13000000e-01	1.45049917e-02	1.52026691e-04
5.14000000e-01	1.46188796e-02	1.53051406e-04
5.15000000e-01	1.46378090e-02	1.52463121e-04
5.16000000e-01	1.46603919e-02	1.52769563e-04
5.17000000e-01	1.45349483e-02	1.50503248e-04
5.18000000e-01	1.45959347e-02	1.51534472e-04
5.19000000e-01	1.45833320e-02	1.50272333e-04
5.20000000e-01	1.45280957e-02	1.50180940e-04
5.21000000e-01	1.46177030e-02	1.50321321e-04
5.22000000e-01	1.44782819e-02	1.49574725e-04
5.23000000e-01	1.45101345e-02	1.49549922e-04
5.24000000e-01	1.44947367e-02	1.48858212e-04
5.25000000e-01	1.44556593e-02	1.48377514e-04
5.26000000e-01	1.44674663e-02	1.48385799e-04
5.27000000e-01	1.45278541e-02	1.49632083e-04
5.28000000e-01	1.45646995e-02	1.49594905e-04
5.29000000e-01	1.45302019e-02	1.50214069e-04
5.30000000e-01	1.45914357e-02	1.49861008e-04
5.31000000e-01	1.44072625e-02	1.48515007e-04
5.32000000e-01	1.44729038e-02	1.49416656e-04
5.33000000e-01	1.44435081e-02	1.48566850e-04
5.34000000e-01	1.43200480e-02	1.47996526e-04
5.35000000e-01	1.44179377e-02	1.47987064e-04
5.36000000e-01	1.43256228e-02	1.47332564e-04
5.37000000e-01	1.46445191e-02	1.50741425e-04
5.38000000e-01	1.44303807e-02	1.48093853e-04
5.39000000e-01	1.44575555e-02	1.48761592e-04
5.40000000e-01	1.44591973e-02	1.48912431e-04
5.41000000e-01	1.42751766e-02	1.47113456e-04
5.42000000e-01	1.43829903e-02	1.47934276e-04
5.43000000e-01	1.43750553e-02	1.47754647e-04
5.44000000e-01	1.42737684e-02	1.46970134e-04
5.45000000e-01	1.42523987e-02	1.46778270e-04
5.46000000e-01	1.43182077e-02	1.47597433e-04
5.47000000e-01	1.44213054e-02	1.48410896e-04
5.48000000e-01	1.43229924e-02	1.47530011e-04
5.49000000e-01	1.42122412e-02	1.46174369e-04
5.50000000e-01	1.44463519e-02	1.47977473e-04
5.51000000e-01	1.43140832e-02	1.47129262e-04
5.52000000e-01	1.43039405e-02	1.46396558e-04
5.53000000e-01	1.43175185e-02	1.46614071e-04
5.54000000e-01	1.41941081e-02	1.45208112e-04
5.55000000e-01	1.42771013e-02	1.45948524e-04
5.56000000e-01	1.43340069e-02	1.46647082e-04
5.57000000e-01	1.42893392e-02	1.45944778e-04
5.58000000e-01	1.42490466e-02	1.45599938e-04
5.59000000e-01	1.40786086e-02	1.44076322e-04
5.60000000e-01	1.41001674e-02	1.44674423e-04
5.61000000e-01	1.40676445e-02	1.44220228e-04
5.62000000e-01	1.41152306e-02	1.44589051e-04
5.63000000e-01	1.41067379e-02	1.44365136e-04
5.64000000e-01	1.40966731e-02	1.44180335e-04
5.65000000e-01	1.41338829e-02	1.44933473e-04
5.66000000e-01	1.41637939e-02	1.45055330e-04
5.67000000e-01	1.40049720e-02	1.43587015e-04
5.68000000e-01	1.40582915e-02	1.44529926e-04
5.69000000e-01	1.40553422e-02	1.43754315e-04
5.70000000e-01	1.40479632e-02	1.43722652e-04
5.71000000e-01	1.40174681e-02	1.43465373e-04
5.72000000e-01	1.39509551e-02	1.43090402e-04
5.73000000e-01	1.40986708e-02	1.44935292e-04
5.74000000e-01	1.40016112e-02	1.43371021e-04
5.75000000e-01	1.40592749e-02	1.43636372e-04
5.76000000e-01	1.38994337e-02	1.42588613e-04
5.77000000e-01	1.39667799e-02	1.42845159e-04
5.78000000e-01	1.39942508e-02	1.43456828e-04
5.79000000e-01	1.39353682e-02	1.43257026e-04
5.80000000e-01	1.38793168e-02	1.42514548e-04
5.81000000e-01	1.38970028e-02	1.42840076e-04
5.82000000e-01	1.39968869e-02	1.43544799e-04
5.83000000e-01	1.39186659e-02	1.43346236e-04
5.84000000e-01	1.38108825e-02	1.42219089e-04
5.85000000e-01	1.39831399e-02	1.43578168e-04
5.86000000e-01	1.37912103e-02	1.42414118e-04
5.87000000e-01	1.38246696e-02	1.41954628e-04
5.88000000e-01	1.38073864e-02	1.42033264e-04
5.89000000e-01	1.37421102e-02	1.41731893e-04
5.90000000e-01	1.38727102e-02	1.42702038e-04
5.91000000e-01	1.37433746e-02	1.41724632e-04
5.92000000e-01	1.38718034e-02	1.42334272e-04
5.93000000e-01	1.38387835e-02	1.42588466e-04
5.94000000e-01	1.38503406e-02	1.42591903e-04
5.95000000e-01	1.38014342e-02	1.41997794e-04
5.96000000e-01	1.37677811e-02	1.41586866e-04
5.97000000e-01	1.38130228e-02	1.42347537e-04
5.98000000e-01	1.37252439e-02	1.41101524e-04
5.99000000e-01	1.37843354e-02	1.41810551e-04
6.00000000e-01	1.37511846e-02	1.41590456e-04
6.01000000e-01	1.36003884e-02	1.40570393e-04
6.02000000e-01	1.37608778e-02	1.41572009e-04
6.03000000e-01	1.36515055e-02	1.40745903e-04
6.04000000e-01	1.37598658e-02	1.42097153e-04
6.05000000e-01	1.37510844e-02	1.41377225e-04
6.06000000e-01	1.37433675e-02	1.41744472e-04
6.07000000e-01	1.36766881e-02	1.41009687e-04
6.08000000e-01	1.36249808e-02	1.40795377e-04
6.09000000e-01	1.37286844e-02	1.42042178e-04
6.10000000e-01	1.37942686e-02	1.42229822e-04
6.11000000e-01	1.36299156e-02	1.40913330e-04
6.12000000e-01	1.37852660e-02	1.42725419e-04
6.13000000e-01	1.37052089e-02	1.41562980e-04
6.14000000e-01	1.35419505e-02	1.40035560e-04
6.15000000e-01	1.36629292e-02	1.41383528e-04
6.16000000e-01	1.37156823e-02	1.41774671e-04
6.17000000e-01	1.36182585e-02	1.40742926e-04
6.18000000e-01	1.36587930e-02	1.41152701e-04
6.19000000e-01	1.36621518e-02	1.41083407e-04
6.20000000e-01	1.35399698e-02	1.39562413e-04
6.21000000e-01	1.35425071e-02	1.39166109e-04
6.22000000e-01	1.36452286e-02	1.40572085e-04
6.23000000e-01	1.37808751e-02	1.41124932e-04
6.24000000e-01	1.36548886e-02	1.39982184e-04
6.25000000e-01	1.35652498e-02	1.38902360e-04
6.26000000e-01	1.35930246e-02	1.39313372e-04
6.27000000e-01	1.35154651e-02	1.38801587e-04
6.28000000e-01	1.35075846e-02	1.38992834e-04
6.29000000e-01	1.36485461e-02	1.39708478e-04
6.30000000e-01	1.35062530e-02	1.38449598e-04
6.31000000e-01	1.36850962e-02	1.40157905e-04
6.32000000e-01	1.36430042e-02	1.40297361e-04
6.33000000e-01	1.34624118e-02	1.37927312e-04
6.34000000e-01	1.34504589e-02	1.41634080e-04
6.35000000e-01	1.36011189e-02	1.47414346e-04
6.36000000e-01	1.36315123e-02	1.50459498e-04
6.37000000e-01	1.36357512e-02	1.52682641e-04
6.38000000e-01	1.34894909e-02	1.52881976e-04
6.39000000e-01	1.36053779e-02	1.56530993e-04
6.40000000e-01	1.35268787e-02	1.57398650e-04
6.41000000e-01	1.34933769e-02	1.58678546e-04
6.42000000e-01	1.36492772e-02	1.62167648e-04
6.43000000e-01	1.34830850e-02	1.60206710e-04
6.44000000e-01	1.36415691e-02	1.56347953e-04
6.45000000e-01	1.35034336e-02	1.52431246e-04
6.46000000e-01	1.36071895e-02	1.51928422e-04
6.47000000e-01	1.34147888e-02	1.49387488e-04
6.48000000e-01	1.35671248e-02	1.49869296e-04
6.49000000e-01	1.36440487e-02	1.49831284e-04
6.50000000e-01	1.36024212e-02	1.48546801e-04
6.51000000e-01	1.35235358e-02	1.47643876e-04
6.52000000e-01	1.34731145e-02	1.46082619e-04
6.53000000e-01	1.34249669e-02	1.44965215e-04
6.54000000e-01	1.34658624e-02	1.45180288e-04
6.55000000e-01	1.33997320e-02	1.44285162e-04
6.56000000e-01	1.33411639e-02	1.43698343e-04
6.57000000e-01	1.35235055e-02	1.44570250e-04
6.58000000e-01	1.34759905e-02	1.43786239e-04
6.59000000e-01	1.35634288e-02	1.45421982e-04
6.60000000e-01	1.35171071e-02	1.43863725e-04
6.61000000e-01	1.33613985e-02	1.42552004e-04
6.62000000e-01	1.33966338e-02	1.43901342e-04
6.63000000e-01	1.34719366e-02	1.43730056e-04
6.64000000e-01	1.34155713e-02	1.43133785e-04
6.65000000e-01	1.34041359e-02	1.42833808e-04
6.66000000e-01	1.33358717e-02	1.42720231e-04
6.67000000e-01	1.33753694e-02	1.42801668e-04
6.68000000e-01	1.34539945e-02	1.43048194e-04
6.69000000e-01	1.32764842e-02	1.41768901e-04
6.70000000e-01	1.34377359e-02	1.42664278e-04
6.71000000e-01	1.34530297e-02	1.42851308e-04
6.72000000e-01	1.33563751e-02	1.42251009e-04
6.73000000e-01	1.33047620e-02	1.41622713e-04
6.74000000e-01	1.34020208e-02	1.42458830e-04
6.75000000e-01	1.33176575e-02	1.41533351e-04
6.76000000e-01	1.33381723e-02	1.41694284e-04
6.77000000e-01	1.34158358e-02	1.42489856e-04
6.78000000e-01	1.33155146e-02	1.41131852e-04
6.79000000e-01	1.32816632e-02	1.41513120e-04
6.80000000e-01	1.32935100e-02	1.41200125e-04
6.81000000e-01	1.32135088e-02	1.40655696e-04
6.82000000e-01	1.32096384e-02	1.40290309e-04
6.83000000e-01	1.33194775e-02	1.41034029e-04
6.84000000e-01	1.31849842e-02	1.39907264e-04
6.85000000e-01	1.32148057e-02	1.39813559e-04
6.86000000e-01	1.31980266e-02	1.40254443e-04
6.87000000e-01	1.33286276e-02	1.41353313e-04
6.88000000e-01	1.34166269e-02	1.42779919e-04
6.89000000e-01	1.31013087e-02	1.39205611e-04
6.90000000e-01	1.31975445e-02	1.40168117e-04
6.91000000e-01	1.32420870e-02	1.40329082e-04
6.92000000e-01	1.32628351e-02	1.40344288e-04
6.93000000e-01	1.32215846e-02	1.40247966e-04
6.94000000e-01	1.32070772e-02	1.40409995e-04
6.95000000e-01	1.31324186e-02	1.39679983e-04
6.96000000e-01	1.31603422e-02	1.39567376e-04
6.97000000e-01	1.31365357e-02	1.38866738e-04
6.98000000e-01	1.31494962e-02	1.39387002e-04
6.99000000e-01	1.30278602e-02	1.38616500e-04
7.00000000e-01	1.30623123e-02	1.39102521e-04
7.01000000e-01	1.31469413e-02	1.39375780e-04
7.02000000e-01	1.30629423e-02	1.38714693e-04
7.03000000e-01	1.31566942e-02	1.39635847e-04
7.04000000e-01	1.31385854e-02	1.39917112e-04
7.05000000e-01	1.30058445e-02	1.37979084e-04
7.06000000e-01	1.31421992e-02	1.39433297e-04
7.07000000e-01	1.31107684e-02	1.38429483e-04
7.08000000e-01	1.30704909e-02	1.37956301e-04
7.09000000e-01	1.29051569e-02	1.36961013e-04
7.10000000e-01	1.29096451e-02	1.36499113e-04
7.11000000e-01	1.28925628e-02	1.36647373e-04
7.12000000e-01	1.29002775e-02	1.36176156e-04
7.13000000e-01	1.30377332e-02	1.38472159e-04
7.14000000e-01	1.30036043e-02	1.37788191e-04
7.15000000e-01	1.30483211e-02	1.38216109e-04
7.16000000e-01	1.29645303e-02	1.37654330e-04
7.17000000e-01	1.29547805e-02	1.37387856e-04
7.18000000e-01	1.30790864e-02	1.38221875e-04
7.19000000e-01	1.28527205e-02	1.36206146e-04
7.20000000e-01	1.28646054e-02	1.36954923e-04
7.21000000e-01	1.28646182e-02	1.36445813e-04
7.22000000e-01	1.28581082e-02	1.36399977e-04
7.23000000e-01	1.29169696e-02	1.36732268e-04
7.24000000e-01	1.27447063e-02	1.35292858e-04
7.25000000e-01	1.26906930e-02	1.34740381e-04
7.26000000e-01	1.27071245e-02	1.35238707e-04
7.27000000e-01	1.28692498e-02	1.36026907e-04
7.28000000e-01	1.27888530e-02	1.35382830e-04
7.29000000e-01	1.27668837e-02	1.35416181e-04
7.30000000e-01	1.27884814e-02	1.35677757e-04
7.31000000e-01	1.26816639e-02	1.34636738e-04
7.32000000e-01	1.28158163e-02	1.35995840e-04
7.33000000e-01	1.27621118e-02	1.35210120e-04
7.34000000e-01	1.26734165e-02	1.34447210e-04
7.35000000e-01	1.27182438e-02	1.34547978e-04
7.36000000e-01	1.27483765e-02	1.34396280e-04
7.37000000e-01	1.28008339e-02	1.35372955e-04
7.38000000e-01	1.26232889e-02	1.33051791e-04
7.39000000e-01	1.26631510e-02	1.32681188e-04
7.40000000e-01	1.26582365e-02	1.32918529e-04
7.41000000e-01	1.26396229e-02	1.32877717e-04
7.42000000e-01	1.27100401e-02	1.33340744e-04
7.43000000e-01	1.26249450e-02	1.32664669e-04
7.44000000e-01	1.26791773e-02	1.32759178e-04
7.45000000e-01	1.26049902e-02	1.31939733e-04
7.46000000e-01	1.26131224e-02	1.32876395e-04
7.47000000e-01	1.27083864e-02	1.33171593e-04
7.48000000e-01	1.26528135e-02	1.32965829e-04
7.49000000e-01	1.26821268e-02	1.33334284e-04
7.50000000e-01	1.26279475e-02	1.32679338e-04
7.51000000e-01	1.26341000e-02	1.32281522e-04
7.52000000e-01	1.25738143e-02	1.32187753e-04
7.53000000e-01	1.26124179e-02	1.32682775e-04
7.54000000e-01	1.24638736e-02	1.31117663e-04
7.55000000e-01	1.26221997e-02	1.32515032e-04
7.56000000e-01	1.26040898e-02	1.32279275e-04
7.57000000e-01	1.24513470e-02	1.30992093e-04
7.58000000e-01	1.24440904e-02	1.30952167e-04
7.59000000e-01	1.25892871e-02	1.31636018e-04
7.60000000e-01	1.25970792e-02	1.31894159e-04
7.61000000e-01	1.24365614e-02	1.30737940e-04
7.62000000e-01	1.24749733e-02	1.30228261e-04
7.63000000e-01	1.24283496e-02	1.30187160e-04
7.64000000e-01	1.25043695e-02	1.30245010e-04
7.65000000e-01	1.23750156e-02	1.29245777e-04
7.66000000e-01	1.22865300e-02	1.28013170e-04
7.67000000e-01	1.23538814e-02	1.28767803e-04
7.68000000e-01	1.23245578e-02	1.28636243e-04
7.69000000e-01	1.23939193e-02	1.29539553e-04
7.70000000e-01	1.23770498e-02	1.29036778e-04
7.71000000e-01	1.23328962e-02	1.28415320e-04
7.72000000e-01	1.23211971e-02	1.32507869e-04
7.73000000e-01	1.23471632e-02	1.36812211e-04
7.74000000e-01	1.24389425e-02	1.40618605e-04
7.75000000e-01	1.23827494e-02	1.43059006e-04
7.76000000e-01	1.22911560e-02	1.43759155e-04
7.77000000e-01	1.21201544e-02	1.43801621e-04
7.78000000e-01	1.21652510e-02	1.46244867e-04
7.79000000e-01	1.22918983e-02	1.48926146e-04
7.80000000e-01	1.21443167e-02	1.50237823e-04
7.81000000e-01	1.22790278e-02	1.53025793e-04
7.82000000e-01	1.23482596e-02	1.54972434e-04
7.83000000e-01	1.23393336e-02	1.57319926e-04
7.84000000e-01	1.24010338e-02	1.59341013e-04
7.85000000e-01	1.24117616e-02	1.61173244e-04
7.86000000e-01	1.21928883e-02	1.59576084e-04
7.87000000e-01	1.23202391e-02	1.62837655e-04
7.88000000e-01	1.22633512e-02	1.64272368e-04
7.89000000e-01	1.21746986e-02	1.64618695e-04
7.90000000e-01	1.20905533e-02	1.65831837e-04
7.91000000e-01	1.23155135e-02	1.69614256e-04
7.92000000e-01	1.21313262e-02	1.69878358e-04
7.93000000e-01	1.21835259e-02	1.71274070e-04
7.94000000e-01	1.21619627e-02	1.73185575e-04
7.95000000e-01	1.22137183e-02	1.75024688e-04
7.96000000e-01	1.21166607e-02	1.75635386e-04
7.97000000e-01	1.19721377e-02	1.76008520e-04
7.98000000e-01	1.21589321e-02	1.80267837e-04
7.99000000e-01	1.21544821e-02	1.82227928e-04
8.00000000e-01	1.21251955e-02	1.82845585e-04
8.01000000e-01	1.19474868e-02	1.82956913e-04
8.02000000e-01	1.21045786e-02	1.86763237e-04
8.03000000e-01	1.21126693e-02	1.88963821e-04
8.04000000e-01	1.21642449e-02	1.91194697e-04
8.05000000e-01	1.18489295e-02	1.87899442e-04
8.06000000e-01	1.19930116e-02	1.92357614e-04
8.07000000e-01	1.19683456e-02	1.95707124e-04
8.08000000e-01	1.20633970e-02	1.98878262e-04
8.09000000e-01	1.19993465e-02	1.99140707e-04
8.10000000e-01	1.20183776e-02	2.01896317e-04
8.11000000e-01	1.20456317e-02	2.04881922e-04
8.12000000e-01	1.21162938e-02	2.08637043e-04
8.13000000e-01	1.20237734e-02	2.09084747e-04
8.14000000e-01	1.18686830e-02	2.08996562e-04
8.15000000e-01	1.17034733e-02	2.09911918e-04
8.16000000e-01	1.19402231e-02	2.15318753e-04
8.17000000e-01	1.18080629e-02	2.15884966e-04
8.18000000e-01	1.15761972e-02	2.15824001e-04
8.19000000e-01	1.20573390e-02	2.25940456e-04
8.20000000e-01	1.18201027e-02	2.23719784e-04
8.21000000e-01	1.18147777e-02	2.26604829e-04
8.22000000e-01	1.16032196e-02	2.28330140e-04
8.23000000e-01	1.14992753e-02	2.27547838e-04
8.24000000e-01	1.17882693e-02	2.36022337e-04
8.25000000e-01	1.16720944e-02	2.38304831e-04
8.26000000e-01	1.15404860e-02	2.39594471e-04
8.27000000e-01	1.18308416e-02	2.47412200e-04
8.28000000e-01	1.15680274e-02	2.45334089e-04
8.29000000e-01	1.17372743e-02	2.53356066e-04
8.30000000e-01	1.16450687e-02	2.54626167e-04
8.31000000e-01	1.17003569e-02	2.60051242e-04
8.32000000e-01	1.12706470e-02	2.57198256e-04
8.33000000e-01	1.16611856e-02	2.68631184e-04
8.34000000e-01	1.15889968e-02	2.70440341e-04
8.35000000e-01	1.14112125e-02	2.72809942e-04
8.36000000e-01	1.14548210e-02	2.80249516e-04
8.37000000e-01	1.14584833e-02	2.85032490e-04
8.38000000e-01	1.12523734e-02	2.87052576e-04
8.39000000e-01	1.14748993e-02	2.99159021e-04
8.40000000e-01	1.16691759e-02	3.07083994e-04
8.41000000e-01	1.15719986e-02	3.13343686e-04
8.42000000e-01	1.13886920e-02	3.13773828e-04
8.43000000e-01	1.14105449e-02	3.21649964e-04
8.44000000e-01	1.13703524e-02	3.29745145e-04
8.45000000e-01	1.13060174e-02	3.34213954e-04
8.46000000e-01	1.13910631e-02	3.47583786e-04
8.47000000e-01	1.12684591e-02	3.54705528e-04
8.48000000e-01	1.11815663e-02	3.62261025e-04
8.49000000e-01	1.13758804e-02	3.76826769e-04
8.50000000e-01	1.14702298e-02	3.95298973e-04
8.51000000e-01	1.07805848e-02	3.89830078e-04
8.52000000e-01	1.13156070e-02	4.24586722e-04
8.53000000e-01	1.12090144e-02	4.37333892e-04
8.54000000e-01	1.12595554e-02	4.53573224e-04
8.55000000e-01	1.07645418e-02	4.55364635e-04
8.56000000e-01	1.12150312e-02	4.82709458e-04
8.57000000e-01	1.12364018e-02	4.92132670e-04
8.58000000e-01	1.12602872e-02	5.20967711e-04
8.59000000e-01	1.11358544e-02	5.26613600e-04
8.60000000e-01	1.15497549e-02	5.64109674e-04
8.61000000e-01	1.16306514e-02	5.85265441e-04
8.62000000e-01	1.13067636e-02	5.87441303e-04
8.63000000e-01	1.12661185e-02	6.09431746e-04
8.64000000e-01	1.16123723e-02	6.58020117e-04
8.65000000e-01	1.08752819e-02	6.45706135e-04
8.66000000e-01	1.07910574e-02	6.71960724e-04
8.67000000e-01	1.09687637e-02	7.34210537e-04
8.68000000e-01	1.07294332e-02	7.61762902e-04
8.69000000e-01	1.15785219e-02	9.00593928e-04
8.70000000e-01	1.08591269e-02	8.94246131e-04
8.71000000e-01	1.07649870e-02	1.00779475e-03
8.72000000e-01	1.22187475e-02	1.26142655e-03
8.73000000e-01	9.06629668e-03	1.19702458e-03
8.74000000e-01	1.08238318e-02	1.76098527e-03
8.75000000e-01	1.15364332e-02	4.03090876e-03
