% Filename : SDL7c_00026_00064.h5
% Date & Time : 30-Oct-2025 17:04:44
% X-ray Energy (keV) : 13.30001
% Exposure Time (s) : 0.500
% Beam Center : 1461.24000, 208.98300
% Sample to Detector Distance (SDD) (mm) : 1990.750
% Detector Pixel Size (mm) : 0.075
% Photodiode Value : 141042.000
% I0 of Sample : 0
% I0 of Standard : 1
% 
% q(A^-1)   I(q)    I(q)_SE
0.00000000e+00	3.84281687e-03	2.86426620e-03
2.50000000e-04	0.00000000e+00	0.00000000e+00
5.00000000e-04	0.00000000e+00	0.00000000e+00
7.50000000e-04	0.00000000e+00	0.00000000e+00
1.00000000e-03	0.00000000e+00	0.00000000e+00
1.25000000e-03	0.00000000e+00	0.00000000e+00
1.50000000e-03	0.00000000e+00	0.00000000e+00
1.75000000e-03	0.00000000e+00	0.00000000e+00
2.00000000e-03	0.00000000e+00	0.00000000e+00
2.25000000e-03	0.00000000e+00	0.00000000e+00
2.50000000e-03	0.00000000e+00	0.00000000e+00
2.75000000e-03	0.00000000e+00	0.00000000e+00
3.00000000e-03	0.00000000e+00	0.00000000e+00
3.25000000e-03	2.07638473e+00	1.20670653e+00
3.50000000e-03	1.49564190e+00	3.53548934e-01
3.75000000e-03	1.18388907e+00	2.17054950e-01
4.00000000e-03	1.01626865e+00	1.68211065e-01
4.25000000e-03	7.60120157e-01	1.01640798e-01
4.50000000e-03	9.28586668e-01	1.40402393e-01
4.75000000e-03	9.21835239e-01	1.31179323e-01
5.00000000e-03	7.39624410e-01	9.98235523e-02
5.25000000e-03	6.16787573e-01	7.94582879e-02
5.50000000e-03	5.21927186e-01	6.60325182e-02
5.75000000e-03	4.54573727e-01	5.58336341e-02
6.00000000e-03	3.85608586e-01	4.52715475e-02
6.25000000e-03	3.37881751e-01	3.88553658e-02
6.50000000e-03	2.98601200e-01	3.32665083e-02
6.75000000e-03	2.65057677e-01	2.93243043e-02
7.00000000e-03	2.34520464e-01	2.50898650e-02
7.25000000e-03	2.03142969e-01	2.10336997e-02
7.50000000e-03	1.88773741e-01	1.89105668e-02
7.75000000e-03	1.61907140e-01	1.60275319e-02
8.00000000e-03	1.50060584e-01	1.45053590e-02
8.25000000e-03	1.36289465e-01	1.28497892e-02
8.50000000e-03	1.27885423e-01	1.18684448e-02
8.75000000e-03	1.13381020e-01	1.03088140e-02
9.00000000e-03	1.03403198e-01	9.08792017e-03
9.25000000e-03	9.19853297e-02	7.78686738e-03
9.50000000e-03	8.34540095e-02	6.72831381e-03
9.75000000e-03	8.11286341e-02	6.63921277e-03
1.00000000e-02	7.30153925e-02	5.74845569e-03
1.02500000e-02	6.75812315e-02	5.43976447e-03
1.05000000e-02	6.52681797e-02	4.88480731e-03
1.07500000e-02	5.79581033e-02	4.43359571e-03
1.10000000e-02	5.53208332e-02	4.06981624e-03
1.12500000e-02	5.10135445e-02	3.88871097e-03
1.15000000e-02	5.07471519e-02	3.70386822e-03
1.17500000e-02	4.70409215e-02	3.20150372e-03
1.20000000e-02	4.66722713e-02	3.16467783e-03
1.22500000e-02	4.43025981e-02	2.96363494e-03
1.25000000e-02	4.15392298e-02	2.78469942e-03
1.27500000e-02	4.09617634e-02	2.68946457e-03
1.30000000e-02	3.91721965e-02	2.59001144e-03
1.32500000e-02	3.70554580e-02	2.33929590e-03
1.35000000e-02	3.73844820e-02	2.37188020e-03
1.37500000e-02	3.55456286e-02	2.26579393e-03
1.40000000e-02	3.34844054e-02	2.07466284e-03
1.42500000e-02	3.34280553e-02	2.05008029e-03
1.45000000e-02	3.21257511e-02	1.95793866e-03
1.47500000e-02	3.31738415e-02	1.98683307e-03
1.50000000e-02	2.94316516e-02	1.75888951e-03
1.52500000e-02	3.02004502e-02	1.77839219e-03
1.55000000e-02	2.90424090e-02	1.65624706e-03
1.57500000e-02	2.84265838e-02	1.63997151e-03
1.60000000e-02	2.78407644e-02	1.57649258e-03
1.62500000e-02	2.80613316e-02	1.61110212e-03
1.65000000e-02	2.73766329e-02	1.53366877e-03
1.67500000e-02	2.63114198e-02	1.47138504e-03
1.70000000e-02	2.66334780e-02	1.48616270e-03
1.72500000e-02	2.57530178e-02	1.41117597e-03
1.75000000e-02	2.59609272e-02	1.43285553e-03
1.77500000e-02	2.54667867e-02	1.37660645e-03
1.80000000e-02	2.55077267e-02	1.38891194e-03
1.82500000e-02	2.48744153e-02	1.31307526e-03
1.85000000e-02	2.47726959e-02	1.32812983e-03
1.87500000e-02	2.46560377e-02	1.30763506e-03
1.90000000e-02	2.44318994e-02	1.27892706e-03
1.92500000e-02	2.34474369e-02	1.20978199e-03
1.95000000e-02	2.41261245e-02	1.23262762e-03
1.97500000e-02	2.40174963e-02	1.24261765e-03
2.00000000e-02	2.29250168e-02	1.19317028e-03
2.02500000e-02	2.29957799e-02	1.16895799e-03
2.05000000e-02	2.39553477e-02	1.20633767e-03
2.07500000e-02	2.36080287e-02	1.17806505e-03
2.10000000e-02	2.32668770e-02	1.16753436e-03
2.12500000e-02	2.30475995e-02	1.17914389e-03
2.15000000e-02	2.32741927e-02	1.15691314e-03
2.17500000e-02	2.27868963e-02	1.15797094e-03
2.20000000e-02	2.30378115e-02	1.16509732e-03
2.22500000e-02	2.28331037e-02	1.15729199e-03
2.25000000e-02	2.23042740e-02	1.15234313e-03
2.27500000e-02	2.25717875e-02	1.14816976e-03
2.30000000e-02	2.30273070e-02	1.16533736e-03
2.32500000e-02	2.20974175e-02	1.12329128e-03
2.35000000e-02	2.32201493e-02	1.17271424e-03
2.37500000e-02	2.28747841e-02	1.14155865e-03
2.40000000e-02	2.31929527e-02	1.17744908e-03
2.42500000e-02	2.20604629e-02	1.11386880e-03
2.45000000e-02	2.25313770e-02	1.12863096e-03
2.47500000e-02	2.28608738e-02	1.14197814e-03
2.50000000e-02	2.25559767e-02	1.12334107e-03
2.52500000e-02	2.23183941e-02	1.12638167e-03
2.55000000e-02	2.20970256e-02	1.08323463e-03
2.57500000e-02	2.24542603e-02	1.12042105e-03
2.60000000e-02	2.19739087e-02	1.08190379e-03
2.62500000e-02	2.18983072e-02	1.09088510e-03
2.65000000e-02	2.17856081e-02	1.08448950e-03
2.67500000e-02	2.14509566e-02	1.06859348e-03
2.70000000e-02	2.22460523e-02	1.10866110e-03
2.72500000e-02	2.15277062e-02	1.05554217e-03
2.75000000e-02	2.25597053e-02	1.10318133e-03
2.77500000e-02	2.21554122e-02	1.09671194e-03
2.80000000e-02	2.16722298e-02	1.04906758e-03
2.82500000e-02	2.25889121e-02	1.09237639e-03
2.85000000e-02	2.29866991e-02	1.11232393e-03
2.87500000e-02	2.18369617e-02	1.06907939e-03
2.90000000e-02	2.27838849e-02	1.09632857e-03
2.92500000e-02	2.15741623e-02	1.02941480e-03
2.95000000e-02	2.21036936e-02	1.06845434e-03
2.97500000e-02	2.30609609e-02	1.09750091e-03
3.00000000e-02	2.23758848e-02	1.07754967e-03
3.02500000e-02	2.21884863e-02	1.06455036e-03
3.05000000e-02	2.27800319e-02	1.07696910e-03
3.07500000e-02	2.33029760e-02	1.10600018e-03
3.10000000e-02	2.21542166e-02	1.04985692e-03
3.12500000e-02	2.21107963e-02	1.05730569e-03
3.15000000e-02	2.24477851e-02	1.06133776e-03
3.17500000e-02	2.28176509e-02	1.06085481e-03
3.20000000e-02	2.25835405e-02	1.06884821e-03
3.22500000e-02	2.22591467e-02	1.04947960e-03
3.25000000e-02	2.20144585e-02	1.03498777e-03
3.27500000e-02	2.20825244e-02	1.02251581e-03
3.30000000e-02	2.21876469e-02	1.03224307e-03
3.32500000e-02	2.21848439e-02	1.02712371e-03
3.35000000e-02	2.19320946e-02	1.03059269e-03
3.37500000e-02	2.13869762e-02	9.89300762e-04
3.40000000e-02	2.14502464e-02	9.97815059e-04
3.42500000e-02	2.13413357e-02	9.80809027e-04
3.45000000e-02	2.23155675e-02	1.03149632e-03
3.47500000e-02	2.24669835e-02	1.02333131e-03
3.50000000e-02	2.21314788e-02	1.01569754e-03
3.52500000e-02	2.18745597e-02	1.00331870e-03
3.55000000e-02	2.17626532e-02	9.79616338e-04
3.57500000e-02	2.20867963e-02	1.01110896e-03
3.60000000e-02	2.21948786e-02	1.00832160e-03
3.62500000e-02	2.22696219e-02	1.01171721e-03
3.65000000e-02	2.16666590e-02	9.84904983e-04
3.67500000e-02	2.12043558e-02	9.59873139e-04
3.70000000e-02	2.09142082e-02	9.45309686e-04
3.72500000e-02	2.09178028e-02	9.37484211e-04
3.75000000e-02	2.13825584e-02	9.64370798e-04
3.77500000e-02	2.10958890e-02	9.40256118e-04
3.80000000e-02	2.09764921e-02	9.32635453e-04
3.82500000e-02	2.10239326e-02	9.35843618e-04
3.85000000e-02	2.12955663e-02	9.49639532e-04
3.87500000e-02	2.12468305e-02	9.37866361e-04
3.90000000e-02	2.13650157e-02	9.59846848e-04
3.92500000e-02	2.14228387e-02	9.33464621e-04
3.95000000e-02	2.16735597e-02	9.57829064e-04
3.97500000e-02	2.11705882e-02	9.33367428e-04
4.00000000e-02	2.12777325e-02	9.28878622e-04
4.02500000e-02	2.10666209e-02	9.26241771e-04
4.05000000e-02	2.11398355e-02	9.13698815e-04
4.07500000e-02	2.13913475e-02	9.27272529e-04
4.10000000e-02	2.14480293e-02	9.34335685e-04
4.12500000e-02	2.12654255e-02	9.25829589e-04
4.15000000e-02	2.12070069e-02	9.08062533e-04
4.17500000e-02	2.09575075e-02	9.06461038e-04
4.20000000e-02	2.15342926e-02	9.21819430e-04
4.22500000e-02	2.06908056e-02	8.85176318e-04
4.25000000e-02	2.17019892e-02	9.32778745e-04
4.27500000e-02	2.11397878e-02	8.97836147e-04
4.30000000e-02	2.14526200e-02	9.06403287e-04
4.32500000e-02	2.11280597e-02	8.91845305e-04
4.35000000e-02	2.03508981e-02	8.72063224e-04
4.37500000e-02	2.13436514e-02	8.95693044e-04
4.40000000e-02	2.03740480e-02	8.65947715e-04
4.42500000e-02	2.05647576e-02	8.69386836e-04
4.45000000e-02	2.00462310e-02	8.39539643e-04
4.47500000e-02	2.11979088e-02	8.94173252e-04
4.50000000e-02	2.07297886e-02	8.68276371e-04
4.52500000e-02	2.11753727e-02	8.91215748e-04
4.55000000e-02	2.08826613e-02	8.68285961e-04
4.57500000e-02	2.06122680e-02	8.52353259e-04
4.60000000e-02	2.09497631e-02	8.75432238e-04
4.62500000e-02	2.14973316e-02	8.85817737e-04
4.65000000e-02	2.14971289e-02	8.79960345e-04
4.67500000e-02	2.06596032e-02	8.44388374e-04
4.70000000e-02	2.07283217e-02	8.51868828e-04
4.72500000e-02	2.08334766e-02	8.65820638e-04
4.75000000e-02	2.06963986e-02	8.51908487e-04
4.77500000e-02	2.04556703e-02	8.33147094e-04
4.80000000e-02	2.09498841e-02	8.52510708e-04
4.82500000e-02	2.08342403e-02	8.53124594e-04
4.85000000e-02	2.11027525e-02	8.68313164e-04
4.87500000e-02	2.05083221e-02	8.36231214e-04
4.90000000e-02	2.09819663e-02	8.46503724e-04
4.92500000e-02	2.10407567e-02	8.52353272e-04
4.95000000e-02	2.06890583e-02	8.35342023e-04
4.97500000e-02	2.08209933e-02	8.49269169e-04
5.00000000e-02	2.07915975e-02	8.35049107e-04
5.02500000e-02	2.03534341e-02	8.19011481e-04
5.05000000e-02	2.06426164e-02	8.21336976e-04
5.07500000e-02	2.08982882e-02	8.33120741e-04
5.10000000e-02	2.06810798e-02	8.17784605e-04
5.12500000e-02	2.08188125e-02	8.43077630e-04
5.15000000e-02	2.07530122e-02	8.16367916e-04
5.17500000e-02	2.05812255e-02	8.20143572e-04
5.20000000e-02	1.98952702e-02	7.91135377e-04
5.22500000e-02	2.07320890e-02	8.11532772e-04
5.25000000e-02	2.04485033e-02	7.99648983e-04
5.27500000e-02	2.06245090e-02	8.05057047e-04
5.30000000e-02	2.07531198e-02	8.19677996e-04
5.32500000e-02	2.09341003e-02	8.23557160e-04
5.35000000e-02	2.00758727e-02	7.89210173e-04
5.37500000e-02	2.07325150e-02	8.02929558e-04
5.40000000e-02	2.05992514e-02	8.09491678e-04
5.42500000e-02	2.07262091e-02	8.08461000e-04
5.45000000e-02	2.04020465e-02	8.01661280e-04
5.47500000e-02	2.02053880e-02	7.79462038e-04
5.50000000e-02	2.03874871e-02	7.91504386e-04
5.52500000e-02	2.03115343e-02	7.84539751e-04
5.55000000e-02	2.08425777e-02	7.93341510e-04
5.57500000e-02	2.05837511e-02	8.00257297e-04
5.60000000e-02	2.03308972e-02	7.86417649e-04
5.62500000e-02	2.02453269e-02	7.74315014e-04
5.65000000e-02	2.04050356e-02	7.74514021e-04
5.67500000e-02	1.97058190e-02	7.59393097e-04
5.70000000e-02	1.98846293e-02	7.55387099e-04
5.72500000e-02	2.11551256e-02	8.10295528e-04
5.75000000e-02	2.04625569e-02	7.79611363e-04
5.77500000e-02	2.08426382e-02	7.91366545e-04
5.80000000e-02	2.08276692e-02	7.96860532e-04
5.82500000e-02	2.08008814e-02	7.82228768e-04
5.85000000e-02	2.06603222e-02	7.78759170e-04
5.87500000e-02	2.01251246e-02	7.57170165e-04
5.90000000e-02	2.02279323e-02	7.63952798e-04
5.92500000e-02	2.07664529e-02	7.78140499e-04
5.95000000e-02	2.03192472e-02	7.63317041e-04
5.97500000e-02	2.01990837e-02	7.58350688e-04
6.00000000e-02	2.04647448e-02	7.60195916e-04
6.02500000e-02	2.06185675e-02	7.69004866e-04
6.05000000e-02	2.00945531e-02	7.50176008e-04
6.07500000e-02	2.05455776e-02	7.65870091e-04
6.10000000e-02	1.95696692e-02	7.26194653e-04
6.12500000e-02	2.01209668e-02	7.42819768e-04
6.15000000e-02	2.00603445e-02	7.35571689e-04
6.17500000e-02	2.03269891e-02	7.50597903e-04
6.20000000e-02	1.99292957e-02	7.36607854e-04
6.22500000e-02	2.03639243e-02	7.47185530e-04
6.25000000e-02	2.00976090e-02	7.36551794e-04
6.27500000e-02	2.00852526e-02	7.28435694e-04
6.30000000e-02	2.01445018e-02	7.34828451e-04
6.32500000e-02	1.99196237e-02	7.32797348e-04
6.35000000e-02	2.04273948e-02	7.40677038e-04
6.37500000e-02	2.00481794e-02	7.40389631e-04
6.40000000e-02	2.05048016e-02	7.46168072e-04
6.42500000e-02	2.00883739e-02	7.38692081e-04
6.45000000e-02	2.11884717e-02	7.63796946e-04
6.47500000e-02	1.98996867e-02	7.20706235e-04
6.50000000e-02	2.00522515e-02	7.30477695e-04
6.52500000e-02	1.98076593e-02	7.17404160e-04
6.55000000e-02	1.99840719e-02	7.24200891e-04
6.57500000e-02	2.00358657e-02	7.20285962e-04
6.60000000e-02	2.03961589e-02	7.29416125e-04
6.62500000e-02	2.01292500e-02	7.23748952e-04
6.65000000e-02	1.95156211e-02	7.01624883e-04
6.67500000e-02	1.98926969e-02	7.05160884e-04
6.70000000e-02	2.03128230e-02	7.26989038e-04
6.72500000e-02	2.04435152e-02	7.31418580e-04
6.75000000e-02	2.02255057e-02	7.16267086e-04
6.77500000e-02	1.99542030e-02	7.05729515e-04
6.80000000e-02	2.01665200e-02	7.12952470e-04
6.82500000e-02	2.04462635e-02	7.28435266e-04
6.85000000e-02	1.97970471e-02	7.04003010e-04
6.87500000e-02	2.04073353e-02	7.13575235e-04
6.90000000e-02	2.00190088e-02	7.05393504e-04
6.92500000e-02	1.99053372e-02	6.99915383e-04
6.95000000e-02	2.03883049e-02	7.21957179e-04
6.97500000e-02	2.00735789e-02	7.08296520e-04
7.00000000e-02	2.03857293e-02	7.11070750e-04
7.02500000e-02	1.90203328e-02	6.68242510e-04
7.05000000e-02	2.01783566e-02	7.03408057e-04
7.07500000e-02	1.97827294e-02	6.98255833e-04
7.10000000e-02	1.97961245e-02	6.94460962e-04
7.12500000e-02	2.05407929e-02	7.12975814e-04
7.15000000e-02	1.94816460e-02	6.78397859e-04
7.17500000e-02	1.99750207e-02	6.91639840e-04
7.20000000e-02	2.02356766e-02	7.00295347e-04
7.22500000e-02	2.05541721e-02	7.13985917e-04
7.25000000e-02	1.96088062e-02	6.76594361e-04
7.27500000e-02	1.94741395e-02	6.74460961e-04
7.30000000e-02	1.96995322e-02	6.81330031e-04
7.32500000e-02	1.99004176e-02	6.81322134e-04
7.35000000e-02	1.98996429e-02	6.85949860e-04
7.37500000e-02	2.00315231e-02	6.80861433e-04
7.40000000e-02	2.02379456e-02	6.94291239e-04
7.42500000e-02	2.07167190e-02	7.05442142e-04
7.45000000e-02	1.93795820e-02	6.65315522e-04
7.47500000e-02	2.04614201e-02	6.96491546e-04
7.50000000e-02	1.99757087e-02	6.77541091e-04
7.52500000e-02	1.90467371e-02	6.53517098e-04
7.55000000e-02	1.93530291e-02	6.55366793e-04
7.57500000e-02	1.96130631e-02	6.68611031e-04
7.60000000e-02	2.00492833e-02	6.76000983e-04
7.62500000e-02	2.01134217e-02	6.81605921e-04
7.65000000e-02	2.01997505e-02	6.83049777e-04
7.67500000e-02	2.01032215e-02	6.74463645e-04
7.70000000e-02	1.98411160e-02	6.65289205e-04
7.72500000e-02	1.99195610e-02	6.85706562e-04
7.75000000e-02	2.00806441e-02	6.89948386e-04
7.77500000e-02	1.96859339e-02	6.80810418e-04
7.80000000e-02	2.04805167e-02	7.13841686e-04
7.82500000e-02	2.04090320e-02	7.18715974e-04
7.85000000e-02	1.98002575e-02	7.00132323e-04
7.87500000e-02	2.00150432e-02	7.10125546e-04
7.90000000e-02	1.99702641e-02	7.11481172e-04
7.92500000e-02	1.96522954e-02	7.06878388e-04
7.95000000e-02	1.96655228e-02	6.99879657e-04
7.97500000e-02	2.01859085e-02	7.23320805e-04
8.00000000e-02	2.03427116e-02	7.20630006e-04
8.02500000e-02	2.03872606e-02	7.35082281e-04
8.05000000e-02	1.97702883e-02	7.08552455e-04
8.07500000e-02	2.00903996e-02	7.25819804e-04
8.10000000e-02	2.00742329e-02	7.36264398e-04
8.12500000e-02	1.98075283e-02	7.23204852e-04
8.15000000e-02	1.96112835e-02	7.18314354e-04
8.17500000e-02	1.94351987e-02	7.13254033e-04
8.20000000e-02	1.97532863e-02	7.20356665e-04
8.22500000e-02	1.98265830e-02	7.19165062e-04
8.25000000e-02	1.96983972e-02	7.20639096e-04
8.27500000e-02	1.98377167e-02	7.21896782e-04
8.30000000e-02	1.96534052e-02	7.23158197e-04
8.32500000e-02	1.95125228e-02	7.24337291e-04
8.35000000e-02	2.00895932e-02	7.43265386e-04
8.37500000e-02	1.96944525e-02	7.17176308e-04
8.40000000e-02	2.01311122e-02	7.33526976e-04
8.42500000e-02	1.94917077e-02	7.19412321e-04
8.45000000e-02	1.94623028e-02	7.20967737e-04
8.47500000e-02	1.95481711e-02	7.25487592e-04
8.50000000e-02	1.98995823e-02	7.28478622e-04
8.52500000e-02	1.93359946e-02	7.19656537e-04
8.55000000e-02	1.99860646e-02	7.39179252e-04
8.57500000e-02	1.94743343e-02	7.24007618e-04
8.60000000e-02	1.95008068e-02	7.28514225e-04
8.62500000e-02	1.93465490e-02	7.19215334e-04
8.65000000e-02	1.91269695e-02	7.06058823e-04
8.67500000e-02	1.96126836e-02	7.23674246e-04
8.70000000e-02	1.97795907e-02	7.25169936e-04
8.72500000e-02	1.91637211e-02	6.87093827e-04
8.75000000e-02	1.95457132e-02	6.85116173e-04
8.77500000e-02	1.90868387e-02	6.77281996e-04
8.80000000e-02	1.95402270e-02	6.88674719e-04
8.82500000e-02	2.02506465e-02	7.07153431e-04
8.85000000e-02	2.01332238e-02	7.07932975e-04
8.87500000e-02	1.98308836e-02	6.81545164e-04
8.90000000e-02	1.94728865e-02	6.75650898e-04
8.92500000e-02	1.95879057e-02	6.75910715e-04
8.95000000e-02	1.99107480e-02	6.85318515e-04
8.97500000e-02	2.01959121e-02	6.87936622e-04
9.00000000e-02	2.02807764e-02	6.86376723e-04
9.02500000e-02	1.97788067e-02	6.72847715e-04
9.05000000e-02	2.01112157e-02	6.85335799e-04
9.07500000e-02	1.99272997e-02	6.72826533e-04
9.10000000e-02	1.97971292e-02	6.67388214e-04
9.12500000e-02	1.96632089e-02	6.64418761e-04
9.15000000e-02	2.01215685e-02	6.74074047e-04
9.17500000e-02	1.95534777e-02	6.61319189e-04
9.20000000e-02	2.01159744e-02	6.66507899e-04
9.22500000e-02	1.94297007e-02	6.48283067e-04
9.25000000e-02	1.96707500e-02	6.50845190e-04
9.27500000e-02	2.00528956e-02	6.64731171e-04
9.30000000e-02	1.97022961e-02	6.52245339e-04
9.32500000e-02	1.98375597e-02	6.57587779e-04
9.35000000e-02	1.92910952e-02	6.38597223e-04
9.37500000e-02	1.95269259e-02	6.42622479e-04
9.40000000e-02	2.02427604e-02	6.68333433e-04
9.42500000e-02	2.00084562e-02	6.55709406e-04
9.45000000e-02	1.97485832e-02	6.48390715e-04
9.47500000e-02	1.99914321e-02	6.57232632e-04
9.50000000e-02	1.97756470e-02	6.46497482e-04
9.52500000e-02	1.99196460e-02	6.47475387e-04
9.55000000e-02	1.97313350e-02	6.43168350e-04
9.57500000e-02	1.99367752e-02	6.49046892e-04
9.60000000e-02	2.03171050e-02	6.53686579e-04
9.62500000e-02	1.98582694e-02	6.39406090e-04
9.65000000e-02	1.96636700e-02	6.33691551e-04
9.67500000e-02	1.99461900e-02	6.45770599e-04
9.70000000e-02	1.98058962e-02	6.37979502e-04
9.72500000e-02	1.94660339e-02	6.27342128e-04
9.75000000e-02	1.98105242e-02	6.37110042e-04
9.77500000e-02	1.94063255e-02	6.22343245e-04
9.80000000e-02	1.97432320e-02	6.26257359e-04
9.82500000e-02	1.94088510e-02	6.24086541e-04
9.85000000e-02	1.92974405e-02	6.14562117e-04
9.87500000e-02	1.94722810e-02	6.17386103e-04
9.90000000e-02	1.99716417e-02	6.34174741e-04
9.92500000e-02	1.96086357e-02	6.25836173e-04
9.95000000e-02	1.94045977e-02	6.15857156e-04
9.97500000e-02	1.98403693e-02	6.26426848e-04
1.00000000e-01	1.96182897e-02	5.06933393e-04
1.00500000e-01	1.97869124e-02	4.43875825e-04
1.01000000e-01	1.96867839e-02	4.34981964e-04
1.01500000e-01	1.96610403e-02	4.35340647e-04
1.02000000e-01	1.94479395e-02	4.31416155e-04
1.02500000e-01	1.97599021e-02	4.32662320e-04
1.03000000e-01	1.98651899e-02	4.35903028e-04
1.03500000e-01	1.97479926e-02	4.33368604e-04
1.04000000e-01	1.96166781e-02	4.26878062e-04
1.04500000e-01	1.97409534e-02	4.29030087e-04
1.05000000e-01	1.95759780e-02	4.23623487e-04
1.05500000e-01	1.93170771e-02	4.18268961e-04
1.06000000e-01	1.98254834e-02	4.28107554e-04
1.06500000e-01	2.00292939e-02	4.31215063e-04
1.07000000e-01	1.96755221e-02	4.28430817e-04
1.07500000e-01	1.96772759e-02	4.37222360e-04
1.08000000e-01	1.96812317e-02	4.41230684e-04
1.08500000e-01	1.99242159e-02	4.49637429e-04
1.09000000e-01	1.98068791e-02	4.50728512e-04
1.09500000e-01	1.98690867e-02	4.52624829e-04
1.10000000e-01	1.96214506e-02	4.41800112e-04
1.10500000e-01	1.96630067e-02	4.32299330e-04
1.11000000e-01	1.98502960e-02	4.30585213e-04
1.11500000e-01	1.99114485e-02	4.29909485e-04
1.12000000e-01	1.97619522e-02	4.20102970e-04
1.12500000e-01	1.98872392e-02	4.22353184e-04
1.13000000e-01	1.97191007e-02	4.20126102e-04
1.13500000e-01	1.93441662e-02	4.07823106e-04
1.14000000e-01	1.98384327e-02	4.16775558e-04
1.14500000e-01	1.95280742e-02	4.12972686e-04
1.15000000e-01	1.98755219e-02	4.14829855e-04
1.15500000e-01	1.93475572e-02	4.06804607e-04
1.16000000e-01	1.95643225e-02	4.05559198e-04
1.16500000e-01	1.97549987e-02	4.08806612e-04
1.17000000e-01	1.94977014e-02	4.06489163e-04
1.17500000e-01	1.95695025e-02	4.05644192e-04
1.18000000e-01	1.99717439e-02	4.10192076e-04
1.18500000e-01	1.98599167e-02	4.07808881e-04
1.19000000e-01	2.01597427e-02	4.11844351e-04
1.19500000e-01	1.97595685e-02	4.03016524e-04
1.20000000e-01	1.98800520e-02	4.04649875e-04
1.20500000e-01	1.97914429e-02	4.02883857e-04
1.21000000e-01	1.95214951e-02	3.96947779e-04
1.21500000e-01	1.99402034e-02	4.04735442e-04
1.22000000e-01	2.01258315e-02	4.06747172e-04
1.22500000e-01	1.98617108e-02	3.99284713e-04
1.23000000e-01	1.94570724e-02	3.91651301e-04
1.23500000e-01	1.99848979e-02	4.00601699e-04
1.24000000e-01	1.95771760e-02	3.93240070e-04
1.24500000e-01	1.95521156e-02	3.91290020e-04
1.25000000e-01	1.93979651e-02	3.89246299e-04
1.25500000e-01	1.94456065e-02	3.87530730e-04
1.26000000e-01	1.92316437e-02	3.83265083e-04
1.26500000e-01	1.97007508e-02	3.91730055e-04
1.27000000e-01	1.97225254e-02	3.88991589e-04
1.27500000e-01	1.94269794e-02	3.84161680e-04
1.28000000e-01	1.93895664e-02	3.83326831e-04
1.28500000e-01	1.95228037e-02	3.83637706e-04
1.29000000e-01	1.98265423e-02	3.89724564e-04
1.29500000e-01	1.96409772e-02	3.84306561e-04
1.30000000e-01	1.95113110e-02	3.83480182e-04
1.30500000e-01	1.96535224e-02	3.83644776e-04
1.31000000e-01	1.94459191e-02	3.79530177e-04
1.31500000e-01	1.98362733e-02	3.84913287e-04
1.32000000e-01	1.97638510e-02	3.82052414e-04
1.32500000e-01	1.93985110e-02	3.75344323e-04
1.33000000e-01	1.99025500e-02	3.83303781e-04
1.33500000e-01	1.96922909e-02	3.78893858e-04
1.34000000e-01	1.99447216e-02	3.83362400e-04
1.34500000e-01	1.97119540e-02	3.76483220e-04
1.35000000e-01	1.96349054e-02	3.73284838e-04
1.35500000e-01	1.96002309e-02	3.73833786e-04
1.36000000e-01	1.94723399e-02	3.70186347e-04
1.36500000e-01	1.94304822e-02	3.68810941e-04
1.37000000e-01	1.96617257e-02	3.70523064e-04
1.37500000e-01	1.94508135e-02	3.68356467e-04
1.38000000e-01	1.95983005e-02	3.71662335e-04
1.38500000e-01	1.94660338e-02	3.67763377e-04
1.39000000e-01	1.95220629e-02	3.69087221e-04
1.39500000e-01	1.93483432e-02	3.64014248e-04
1.40000000e-01	1.94009631e-02	3.65818794e-04
1.40500000e-01	1.96857174e-02	3.71616517e-04
1.41000000e-01	1.93835180e-02	3.63794944e-04
1.41500000e-01	1.97324045e-02	3.71722356e-04
1.42000000e-01	1.91226955e-02	3.56975821e-04
1.42500000e-01	1.92869062e-02	3.60651800e-04
1.43000000e-01	1.95568165e-02	3.64575721e-04
1.43500000e-01	1.93748060e-02	3.61489311e-04
1.44000000e-01	1.93896447e-02	3.61088569e-04
1.44500000e-01	1.94867215e-02	3.60327143e-04
1.45000000e-01	1.95418012e-02	3.60727729e-04
1.45500000e-01	1.95558191e-02	3.60646632e-04
1.46000000e-01	1.93738352e-02	3.56130251e-04
1.46500000e-01	1.96684556e-02	3.63317024e-04
1.47000000e-01	1.91078913e-02	3.51270796e-04
1.47500000e-01	1.93200746e-02	3.53812508e-04
1.48000000e-01	1.93227669e-02	3.54716660e-04
1.48500000e-01	1.95461838e-02	3.58832819e-04
1.49000000e-01	1.95978284e-02	3.59094059e-04
1.49500000e-01	1.93711191e-02	3.52027299e-04
1.50000000e-01	1.92434813e-02	3.50388305e-04
1.50500000e-01	1.92984663e-02	3.51063479e-04
1.51000000e-01	1.93408255e-02	3.50362357e-04
1.51500000e-01	1.92846553e-02	3.49077761e-04
1.52000000e-01	1.97417510e-02	3.55936077e-04
1.52500000e-01	1.92173018e-02	3.45514716e-04
1.53000000e-01	1.94222535e-02	3.51060980e-04
1.53500000e-01	1.94430404e-02	3.49664479e-04
1.54000000e-01	1.93449346e-02	3.46405270e-04
1.54500000e-01	1.91945669e-02	3.50414105e-04
1.55000000e-01	1.93689550e-02	3.58221602e-04
1.55500000e-01	1.92820330e-02	3.59989754e-04
1.56000000e-01	1.91373263e-02	3.59145596e-04
1.56500000e-01	1.93185872e-02	3.62244446e-04
1.57000000e-01	1.89537015e-02	3.56351126e-04
1.57500000e-01	1.91313228e-02	3.51814890e-04
1.58000000e-01	1.87018144e-02	3.38399562e-04
1.58500000e-01	1.90251333e-02	3.42154887e-04
1.59000000e-01	1.89847287e-02	3.40777709e-04
1.59500000e-01	1.91407580e-02	3.43329658e-04
1.60000000e-01	1.91457444e-02	3.43987602e-04
1.60500000e-01	1.92288894e-02	3.42241220e-04
1.61000000e-01	1.90138529e-02	3.38921997e-04
1.61500000e-01	1.90352186e-02	3.39214704e-04
1.62000000e-01	1.93739218e-02	3.42115376e-04
1.62500000e-01	1.91818150e-02	3.39638050e-04
1.63000000e-01	1.87694684e-02	3.32981781e-04
1.63500000e-01	1.90888291e-02	3.38779890e-04
1.64000000e-01	1.87515022e-02	3.28732665e-04
1.64500000e-01	1.90444907e-02	3.34238474e-04
1.65000000e-01	1.90939293e-02	3.33190152e-04
1.65500000e-01	1.89522824e-02	3.30596307e-04
1.66000000e-01	1.89620466e-02	3.30881551e-04
1.66500000e-01	1.89918594e-02	3.31052106e-04
1.67000000e-01	1.88398851e-02	3.28531601e-04
1.67500000e-01	1.88043853e-02	3.29010738e-04
1.68000000e-01	1.89651496e-02	3.29959226e-04
1.68500000e-01	1.91501874e-02	3.31719947e-04
1.69000000e-01	1.90305459e-02	3.28310467e-04
1.69500000e-01	1.86799960e-02	3.22624684e-04
1.70000000e-01	1.87857115e-02	3.24719747e-04
1.70500000e-01	1.88180542e-02	3.24194582e-04
1.71000000e-01	1.87587200e-02	3.23752684e-04
1.71500000e-01	1.85618210e-02	3.21739233e-04
1.72000000e-01	1.87140773e-02	3.21487942e-04
1.72500000e-01	1.88619339e-02	3.24508882e-04
1.73000000e-01	1.89942384e-02	3.25499709e-04
1.73500000e-01	1.86401119e-02	3.17398363e-04
1.74000000e-01	1.88399930e-02	3.20352559e-04
1.74500000e-01	1.87918603e-02	3.19198841e-04
1.75000000e-01	1.90013869e-02	3.20761727e-04
1.75500000e-01	1.87514769e-02	3.16573514e-04
1.76000000e-01	1.84626662e-02	3.12302807e-04
1.76500000e-01	1.87970562e-02	3.18220380e-04
1.77000000e-01	1.88055249e-02	3.16141151e-04
1.77500000e-01	1.89111234e-02	3.19861779e-04
1.78000000e-01	1.87534189e-02	3.15342221e-04
1.78500000e-01	1.85085858e-02	3.11849804e-04
1.79000000e-01	1.86439605e-02	3.15424972e-04
1.79500000e-01	1.86545180e-02	3.13932103e-04
1.80000000e-01	1.84544373e-02	3.12016460e-04
1.80500000e-01	1.88981554e-02	3.17798193e-04
1.81000000e-01	1.85780542e-02	3.11215364e-04
1.81500000e-01	1.86073559e-02	3.11065791e-04
1.82000000e-01	1.89015057e-02	3.14611874e-04
1.82500000e-01	1.84969768e-02	3.07019210e-04
1.83000000e-01	1.88057826e-02	3.12662017e-04
1.83500000e-01	1.84819436e-02	3.08425734e-04
1.84000000e-01	1.84896209e-02	3.06937652e-04
1.84500000e-01	1.88078414e-02	3.11569072e-04
1.85000000e-01	1.87465470e-02	3.11290424e-04
1.85500000e-01	1.88474815e-02	3.10531625e-04
1.86000000e-01	1.84554561e-02	3.05213063e-04
1.86500000e-01	1.86355987e-02	3.06567317e-04
1.87000000e-01	1.82523449e-02	3.01897621e-04
1.87500000e-01	1.86009873e-02	3.06061640e-04
1.88000000e-01	1.84888855e-02	3.03420577e-04
1.88500000e-01	1.85776126e-02	3.04926900e-04
1.89000000e-01	1.84410243e-02	3.02544535e-04
1.89500000e-01	1.85656021e-02	3.04559317e-04
1.90000000e-01	1.84842788e-02	3.01393972e-04
1.90500000e-01	1.84145496e-02	3.00932750e-04
1.91000000e-01	1.84219402e-02	3.01422173e-04
1.91500000e-01	1.84519696e-02	3.01481477e-04
1.92000000e-01	1.83626821e-02	2.99227379e-04
1.92500000e-01	1.82536503e-02	2.97187600e-04
1.93000000e-01	1.86353745e-02	3.03491102e-04
1.93500000e-01	1.84849400e-02	2.99970704e-04
1.94000000e-01	1.83464865e-02	2.97439839e-04
1.94500000e-01	1.82951356e-02	2.95198176e-04
1.95000000e-01	1.82828713e-02	2.95559952e-04
1.95500000e-01	1.83021698e-02	2.94335563e-04
1.96000000e-01	1.82958648e-02	2.95615064e-04
1.96500000e-01	1.83510921e-02	2.95445598e-04
1.97000000e-01	1.84581843e-02	2.96777947e-04
1.97500000e-01	1.83870262e-02	2.95115756e-04
1.98000000e-01	1.84140431e-02	2.95839249e-04
1.98500000e-01	1.83809144e-02	2.93607136e-04
1.99000000e-01	1.85859188e-02	2.97530636e-04
1.99500000e-01	1.83335543e-02	2.93339753e-04
2.00000000e-01	1.85303167e-02	2.95018948e-04
2.00500000e-01	1.82774212e-02	2.92057439e-04
2.01000000e-01	1.82566793e-02	2.90829364e-04
2.01500000e-01	1.82521216e-02	2.90473273e-04
2.02000000e-01	1.81760867e-02	2.88482736e-04
2.02500000e-01	1.81700572e-02	2.88917635e-04
2.03000000e-01	1.83009445e-02	2.89966274e-04
2.03500000e-01	1.82476987e-02	2.88809031e-04
2.04000000e-01	1.82916144e-02	2.89097548e-04
2.04500000e-01	1.82300735e-02	2.89026387e-04
2.05000000e-01	1.82822346e-02	2.88570738e-04
2.05500000e-01	1.83394227e-02	2.88579403e-04
2.06000000e-01	1.81197162e-02	2.85212114e-04
2.06500000e-01	1.81916893e-02	2.86581573e-04
2.07000000e-01	1.80417980e-02	2.83384434e-04
2.07500000e-01	1.81878124e-02	2.84007072e-04
2.08000000e-01	1.83336180e-02	2.87748094e-04
2.08500000e-01	1.79946071e-02	2.81189422e-04
2.09000000e-01	1.79500561e-02	2.80564859e-04
2.09500000e-01	1.81868644e-02	2.83183577e-04
2.10000000e-01	1.80224976e-02	2.81837354e-04
2.10500000e-01	1.78894202e-02	2.79846830e-04
2.11000000e-01	1.79785778e-02	2.78470399e-04
2.11500000e-01	1.81815945e-02	2.82653780e-04
2.12000000e-01	1.83603133e-02	2.84349503e-04
2.12500000e-01	1.81580114e-02	2.81596229e-04
2.13000000e-01	1.80301845e-02	2.79895901e-04
2.13500000e-01	1.81918753e-02	2.81489457e-04
2.14000000e-01	1.81674332e-02	2.79873422e-04
2.14500000e-01	1.83873790e-02	2.82059436e-04
2.15000000e-01	1.80149146e-02	2.78925178e-04
2.15500000e-01	1.80508104e-02	2.78110294e-04
2.16000000e-01	1.79919448e-02	2.76360950e-04
2.16500000e-01	1.80489982e-02	2.77522330e-04
2.17000000e-01	1.79764447e-02	2.80519236e-04
2.17500000e-01	1.77253151e-02	2.81127787e-04
2.18000000e-01	1.81093815e-02	2.87585864e-04
2.18500000e-01	1.81098402e-02	2.88746307e-04
2.19000000e-01	1.80215060e-02	2.87862926e-04
2.19500000e-01	1.79122372e-02	2.88063363e-04
2.20000000e-01	1.80992748e-02	2.91713788e-04
2.20500000e-01	1.81362026e-02	2.92326334e-04
2.21000000e-01	1.80699194e-02	2.92195439e-04
2.21500000e-01	1.76542534e-02	2.88550165e-04
2.22000000e-01	1.81935014e-02	2.95844168e-04
2.22500000e-01	1.77771983e-02	2.89799575e-04
2.23000000e-01	1.78703231e-02	2.93829968e-04
2.23500000e-01	1.76969855e-02	2.92025996e-04
2.24000000e-01	1.79723365e-02	2.96275266e-04
2.24500000e-01	1.76626512e-02	2.92254752e-04
2.25000000e-01	1.81912619e-02	3.00262309e-04
2.25500000e-01	1.78996927e-02	2.97348869e-04
2.26000000e-01	1.80698594e-02	3.00209758e-04
2.26500000e-01	1.78598777e-02	2.92879460e-04
2.27000000e-01	1.77110491e-02	2.87372509e-04
2.27500000e-01	1.80195460e-02	2.89102955e-04
2.28000000e-01	1.78291963e-02	2.84854340e-04
2.28500000e-01	1.80637480e-02	2.87847860e-04
2.29000000e-01	1.79307277e-02	2.84316009e-04
2.29500000e-01	1.79076931e-02	2.83744064e-04
2.30000000e-01	1.80653709e-02	2.83961967e-04
2.30500000e-01	1.77714671e-02	2.78190163e-04
2.31000000e-01	1.78983259e-02	2.79583116e-04
2.31500000e-01	1.79195681e-02	2.78611545e-04
2.32000000e-01	1.81078095e-02	2.81569719e-04
2.32500000e-01	1.79769912e-02	2.78211702e-04
2.33000000e-01	1.78046646e-02	2.76525419e-04
2.33500000e-01	1.77781384e-02	2.75466955e-04
2.34000000e-01	1.74616984e-02	2.69897902e-04
2.34500000e-01	1.77910230e-02	2.73905330e-04
2.35000000e-01	1.75303337e-02	2.70422615e-04
2.35500000e-01	1.78272130e-02	2.73823248e-04
2.36000000e-01	1.77746003e-02	2.72635067e-04
2.36500000e-01	1.77684795e-02	2.72103857e-04
2.37000000e-01	1.79797089e-02	2.73766997e-04
2.37500000e-01	1.77996837e-02	2.72090186e-04
2.38000000e-01	1.76570488e-02	2.68164195e-04
2.38500000e-01	1.77418930e-02	2.70177557e-04
2.39000000e-01	1.75664075e-02	2.67083199e-04
2.39500000e-01	1.77136489e-02	2.69008935e-04
2.40000000e-01	1.76130745e-02	2.66623850e-04
2.40500000e-01	1.78275394e-02	2.67635641e-04
2.41000000e-01	1.75674833e-02	2.64936598e-04
2.41500000e-01	1.73328125e-02	2.61855859e-04
2.42000000e-01	1.76123131e-02	2.64210590e-04
2.42500000e-01	1.76716529e-02	2.64877366e-04
2.43000000e-01	1.76122200e-02	2.63812532e-04
2.43500000e-01	1.73649985e-02	2.60651783e-04
2.44000000e-01	1.75800976e-02	2.61848321e-04
2.44500000e-01	1.76102192e-02	2.62694188e-04
2.45000000e-01	1.75635659e-02	2.61071197e-04
2.45500000e-01	1.73556148e-02	2.58782190e-04
2.46000000e-01	1.75901953e-02	2.62163861e-04
2.46500000e-01	1.77141241e-02	2.62120711e-04
2.47000000e-01	1.78034258e-02	2.63522950e-04
2.47500000e-01	1.75266417e-02	2.58816637e-04
2.48000000e-01	1.76291024e-02	2.60705606e-04
2.48500000e-01	1.74234798e-02	2.57570267e-04
2.49000000e-01	1.75643010e-02	2.57941864e-04
2.49500000e-01	1.73424949e-02	2.56701969e-04
2.50000000e-01	1.74296683e-02	2.56476049e-04
2.50500000e-01	1.75829287e-02	2.58225367e-04
2.51000000e-01	1.74948673e-02	2.55795320e-04
2.51500000e-01	1.75226728e-02	2.57611846e-04
2.52000000e-01	1.75135913e-02	2.57583372e-04
2.52500000e-01	1.76663009e-02	2.57485268e-04
2.53000000e-01	1.73137864e-02	2.53452452e-04
2.53500000e-01	1.74667747e-02	2.54671443e-04
2.54000000e-01	1.74838479e-02	2.56407766e-04
2.54500000e-01	1.73484661e-02	2.53798711e-04
2.55000000e-01	1.73306040e-02	2.52529728e-04
2.55500000e-01	1.72863420e-02	2.52050621e-04
2.56000000e-01	1.74206947e-02	2.52934343e-04
2.56500000e-01	1.73467587e-02	2.52266769e-04
2.57000000e-01	1.74895168e-02	2.53482099e-04
2.57500000e-01	1.74489581e-02	2.52091396e-04
2.58000000e-01	1.74551218e-02	2.52381656e-04
2.58500000e-01	1.74161761e-02	2.51937343e-04
2.59000000e-01	1.74780961e-02	2.52544557e-04
2.59500000e-01	1.73645774e-02	2.50226468e-04
2.60000000e-01	1.71939118e-02	2.48534583e-04
2.60500000e-01	1.73632428e-02	2.50517474e-04
2.61000000e-01	1.71522923e-02	2.46302110e-04
2.61500000e-01	1.73489968e-02	2.48710637e-04
2.62000000e-01	1.73452065e-02	2.47648446e-04
2.62500000e-01	1.72927908e-02	2.48407479e-04
2.63000000e-01	1.72775075e-02	2.47269787e-04
2.63500000e-01	1.72962926e-02	2.45867880e-04
2.64000000e-01	1.72773584e-02	2.47218246e-04
2.64500000e-01	1.71598491e-02	2.44547701e-04
2.65000000e-01	1.73355699e-02	2.46635612e-04
2.65500000e-01	1.71724445e-02	2.44858242e-04
2.66000000e-01	1.73074842e-02	2.46451732e-04
2.66500000e-01	1.70880124e-02	2.42837147e-04
2.67000000e-01	1.71162140e-02	2.42936224e-04
2.67500000e-01	1.72371929e-02	2.43839297e-04
2.68000000e-01	1.71055818e-02	2.42585195e-04
2.68500000e-01	1.72626912e-02	2.43958596e-04
2.69000000e-01	1.70932852e-02	2.41207825e-04
2.69500000e-01	1.71675863e-02	2.41948319e-04
2.70000000e-01	1.68247076e-02	2.37958345e-04
2.70500000e-01	1.73474693e-02	2.44061648e-04
2.71000000e-01	1.72225694e-02	2.42165960e-04
2.71500000e-01	1.70878895e-02	2.40483523e-04
2.72000000e-01	1.70794137e-02	2.39045775e-04
2.72500000e-01	1.71285319e-02	2.41324842e-04
2.73000000e-01	1.74006330e-02	2.44234118e-04
2.73500000e-01	1.72040449e-02	2.40503728e-04
2.74000000e-01	1.71447058e-02	2.39986874e-04
2.74500000e-01	1.69484082e-02	2.37137962e-04
2.75000000e-01	1.73076621e-02	2.41216372e-04
2.75500000e-01	1.71039091e-02	2.38581988e-04
2.76000000e-01	1.71448469e-02	2.39357469e-04
2.76500000e-01	1.71842016e-02	2.38230733e-04
2.77000000e-01	1.72316471e-02	2.39179567e-04
2.77500000e-01	1.70373831e-02	2.36874512e-04
2.78000000e-01	1.70799653e-02	2.36662452e-04
2.78500000e-01	1.71469701e-02	2.38677850e-04
2.79000000e-01	1.70643008e-02	2.37088725e-04
2.79500000e-01	1.68785854e-02	2.33695313e-04
2.80000000e-01	1.72246488e-02	2.39104069e-04
2.80500000e-01	1.72767472e-02	2.37606399e-04
2.81000000e-01	1.72277685e-02	2.38401856e-04
2.81500000e-01	1.69135157e-02	2.33857255e-04
2.82000000e-01	1.71870001e-02	2.36204543e-04
2.82500000e-01	1.70485498e-02	2.35863749e-04
2.83000000e-01	1.71563322e-02	2.35302632e-04
2.83500000e-01	1.70141096e-02	2.33900810e-04
2.84000000e-01	1.68352574e-02	2.31473499e-04
2.84500000e-01	1.68652472e-02	2.32271654e-04
2.85000000e-01	1.70550846e-02	2.34300694e-04
2.85500000e-01	1.69006399e-02	2.31519735e-04
2.86000000e-01	1.72728689e-02	2.36842734e-04
2.86500000e-01	1.70111994e-02	2.32040467e-04
2.87000000e-01	1.71474278e-02	2.34346454e-04
2.87500000e-01	1.70000687e-02	2.31519340e-04
2.88000000e-01	1.68568649e-02	2.29675241e-04
2.88500000e-01	1.70542053e-02	2.32705772e-04
2.89000000e-01	1.68857493e-02	2.30127439e-04
2.89500000e-01	1.66859647e-02	2.27447201e-04
2.90000000e-01	1.68012994e-02	2.27732353e-04
2.90500000e-01	1.69056114e-02	2.30175988e-04
2.91000000e-01	1.69108600e-02	2.30089511e-04
2.91500000e-01	1.69310247e-02	2.28898048e-04
2.92000000e-01	1.70407715e-02	2.30068666e-04
2.92500000e-01	1.69511921e-02	2.28368093e-04
2.93000000e-01	1.68310326e-02	2.26587123e-04
2.93500000e-01	1.66918961e-02	2.25673427e-04
2.94000000e-01	1.69348893e-02	2.28387715e-04
2.94500000e-01	1.67661888e-02	2.25972319e-04
2.95000000e-01	1.66385576e-02	2.24887143e-04
2.95500000e-01	1.68267432e-02	2.26954914e-04
2.96000000e-01	1.67631501e-02	2.26099818e-04
2.96500000e-01	1.68017558e-02	2.26169944e-04
2.97000000e-01	1.67068528e-02	2.24927006e-04
2.97500000e-01	1.67765278e-02	2.24812549e-04
2.98000000e-01	1.70136434e-02	2.27892589e-04
2.98500000e-01	1.66855245e-02	2.24122032e-04
2.99000000e-01	1.67726227e-02	2.24251725e-04
2.99500000e-01	1.67542837e-02	2.23906689e-04
3.00000000e-01	1.68079816e-02	2.23813280e-04
3.00500000e-01	1.68319018e-02	2.24071706e-04
3.01000000e-01	1.68078984e-02	2.23978883e-04
3.01500000e-01	1.67279384e-02	2.24260673e-04
3.02000000e-01	1.66365257e-02	2.21150524e-04
3.02500000e-01	1.69769544e-02	2.26011605e-04
3.03000000e-01	1.68368957e-02	2.24335666e-04
3.03500000e-01	1.68742994e-02	2.23329040e-04
3.04000000e-01	1.65727349e-02	2.20982636e-04
3.04500000e-01	1.66113578e-02	2.20243026e-04
3.05000000e-01	1.66337378e-02	2.21339825e-04
3.05500000e-01	1.67119651e-02	2.21921375e-04
3.06000000e-01	1.67299618e-02	2.19293200e-04
3.06500000e-01	1.67896549e-02	2.21769362e-04
3.07000000e-01	1.68216903e-02	2.22363901e-04
3.07500000e-01	1.64690261e-02	2.18051639e-04
3.08000000e-01	1.67388952e-02	2.20310214e-04
3.08500000e-01	1.66016209e-02	2.19282451e-04
3.09000000e-01	1.65342606e-02	2.18191382e-04
3.09500000e-01	1.64904283e-02	2.16499534e-04
3.10000000e-01	1.65600354e-02	2.18210363e-04
3.10500000e-01	1.64575300e-02	2.16409989e-04
3.11000000e-01	1.66604880e-02	2.18908097e-04
3.11500000e-01	1.66631661e-02	2.18591147e-04
3.12000000e-01	1.64701896e-02	2.15618449e-04
3.12500000e-01	1.64805656e-02	2.15939045e-04
3.13000000e-01	1.64115886e-02	2.14890522e-04
3.13500000e-01	1.65551979e-02	2.16615784e-04
3.14000000e-01	1.65786279e-02	2.17068615e-04
3.14500000e-01	1.62841267e-02	2.13100004e-04
3.15000000e-01	1.65236150e-02	2.16202943e-04
3.15500000e-01	1.65452317e-02	2.15254200e-04
3.16000000e-01	1.65285266e-02	2.14770707e-04
3.16500000e-01	1.65542175e-02	2.15411901e-04
3.17000000e-01	1.64516546e-02	2.14585730e-04
3.17500000e-01	1.65213867e-02	2.15734840e-04
3.18000000e-01	1.62851975e-02	2.11884229e-04
3.18500000e-01	1.64780876e-02	2.13899886e-04
3.19000000e-01	1.64385274e-02	2.13073472e-04
3.19500000e-01	1.64267123e-02	2.12973791e-04
3.20000000e-01	1.65326253e-02	2.13613379e-04
3.20500000e-01	1.63187433e-02	2.11379711e-04
3.21000000e-01	1.63611940e-02	2.11823398e-04
3.21500000e-01	1.62549844e-02	2.10057204e-04
3.22000000e-01	1.63082590e-02	2.10220882e-04
3.22500000e-01	1.63916556e-02	2.11041678e-04
3.23000000e-01	1.62962350e-02	2.10275281e-04
3.23500000e-01	1.61237501e-02	2.08783708e-04
3.24000000e-01	1.61608013e-02	2.07808782e-04
3.24500000e-01	1.64117659e-02	2.11115646e-04
3.25000000e-01	1.62980017e-02	2.09557105e-04
3.25500000e-01	1.64510520e-02	2.11436017e-04
3.26000000e-01	1.63228598e-02	2.09722820e-04
3.26500000e-01	1.62151664e-02	2.07586042e-04
3.27000000e-01	1.62484968e-02	2.08720630e-04
3.27500000e-01	1.62994679e-02	2.07974155e-04
3.28000000e-01	1.63800248e-02	2.10152113e-04
3.28500000e-01	1.62602768e-02	2.07760755e-04
3.29000000e-01	1.61370396e-02	2.06532195e-04
3.29500000e-01	1.62745596e-02	2.08295387e-04
3.30000000e-01	1.61816590e-02	2.06663152e-04
3.30500000e-01	1.62384698e-02	2.06362743e-04
3.31000000e-01	1.62639698e-02	2.06564301e-04
3.31500000e-01	1.61415044e-02	2.05741733e-04
3.32000000e-01	1.61389487e-02	2.05857267e-04
3.32500000e-01	1.62429414e-02	2.05987206e-04
3.33000000e-01	1.61508774e-02	2.05698344e-04
3.33500000e-01	1.59858001e-02	2.03260436e-04
3.34000000e-01	1.59306942e-02	2.02057609e-04
3.34500000e-01	1.61786621e-02	2.05139305e-04
3.35000000e-01	1.62456875e-02	2.05011541e-04
3.35500000e-01	1.61243454e-02	2.04476170e-04
3.36000000e-01	1.62629567e-02	2.05561417e-04
3.36500000e-01	1.61584434e-02	2.04233610e-04
3.37000000e-01	1.61966429e-02	2.04146453e-04
3.37500000e-01	1.61137978e-02	2.03901948e-04
3.38000000e-01	1.61563270e-02	2.03778506e-04
3.38500000e-01	1.60138211e-02	2.01991221e-04
3.39000000e-01	1.59683306e-02	2.01724643e-04
3.39500000e-01	1.60502186e-02	2.02297818e-04
3.40000000e-01	1.62410327e-02	2.03982956e-04
3.40500000e-01	1.58050327e-02	1.99101153e-04
3.41000000e-01	1.59231482e-02	2.00064905e-04
3.41500000e-01	1.60215044e-02	2.01394037e-04
3.42000000e-01	1.59644995e-02	2.00874641e-04
3.42500000e-01	1.60254876e-02	2.01204935e-04
3.43000000e-01	1.60254070e-02	2.01363611e-04
3.43500000e-01	1.59508188e-02	1.99546293e-04
3.44000000e-01	1.59377069e-02	2.00261335e-04
3.44500000e-01	1.59267070e-02	1.99294827e-04
3.45000000e-01	1.59859269e-02	2.00222132e-04
3.45500000e-01	1.58692031e-02	1.98714928e-04
3.46000000e-01	1.60532396e-02	2.00816753e-04
3.46500000e-01	1.59665770e-02	1.99272382e-04
3.47000000e-01	1.58431550e-02	1.97392124e-04
3.47500000e-01	1.58105837e-02	1.97490972e-04
3.48000000e-01	1.58051445e-02	1.97568222e-04
3.48500000e-01	1.59699839e-02	1.98575320e-04
3.49000000e-01	1.59386778e-02	1.97024291e-04
3.49500000e-01	1.57491317e-02	1.95716155e-04
3.50000000e-01	1.58757036e-02	1.61213572e-04
3.51000000e-01	1.59300750e-02	1.39352956e-04
3.52000000e-01	1.58553417e-02	1.39090593e-04
3.53000000e-01	1.58199991e-02	1.37986515e-04
3.54000000e-01	1.57789818e-02	1.37815263e-04
3.55000000e-01	1.57601320e-02	1.37109355e-04
3.56000000e-01	1.58212696e-02	1.38712898e-04
3.57000000e-01	1.58032329e-02	1.40615032e-04
3.58000000e-01	1.57317505e-02	1.41304088e-04
3.59000000e-01	1.56559738e-02	1.41944237e-04
3.60000000e-01	1.55834939e-02	1.42087520e-04
3.61000000e-01	1.57294759e-02	1.43922124e-04
3.62000000e-01	1.55006210e-02	1.42919319e-04
3.63000000e-01	1.55531944e-02	1.43897381e-04
3.64000000e-01	1.55657097e-02	1.44484785e-04
3.65000000e-01	1.55078704e-02	1.43978635e-04
3.66000000e-01	1.55561805e-02	1.42932045e-04
3.67000000e-01	1.54766002e-02	1.40061656e-04
3.68000000e-01	1.55962195e-02	1.39986427e-04
3.69000000e-01	1.57257596e-02	1.40386639e-04
3.70000000e-01	1.55696503e-02	1.38578456e-04
3.71000000e-01	1.56170273e-02	1.40886470e-04
3.72000000e-01	1.55940139e-02	1.41512173e-04
3.73000000e-01	1.55701536e-02	1.41775502e-04
3.74000000e-01	1.54563044e-02	1.40788643e-04
3.75000000e-01	1.55901032e-02	1.41963927e-04
3.76000000e-01	1.53940643e-02	1.40276815e-04
3.77000000e-01	1.54631469e-02	1.41101271e-04
3.78000000e-01	1.53020665e-02	1.39765178e-04
3.79000000e-01	1.55629455e-02	1.41599317e-04
3.80000000e-01	1.54739461e-02	1.40657305e-04
3.81000000e-01	1.55207534e-02	1.40503747e-04
3.82000000e-01	1.51880691e-02	1.38347274e-04
3.83000000e-01	1.54178964e-02	1.39835723e-04
3.84000000e-01	1.53153955e-02	1.39333528e-04
3.85000000e-01	1.52772098e-02	1.39509106e-04
3.86000000e-01	1.52889752e-02	1.39111791e-04
3.87000000e-01	1.53094749e-02	1.38952310e-04
3.88000000e-01	1.54040713e-02	1.39344742e-04
3.89000000e-01	1.52295140e-02	1.37975018e-04
3.90000000e-01	1.53007216e-02	1.38826610e-04
3.91000000e-01	1.52530058e-02	1.38594572e-04
3.92000000e-01	1.52725876e-02	1.38403688e-04
3.93000000e-01	1.52162958e-02	1.37966498e-04
3.94000000e-01	1.51167633e-02	1.37094825e-04
3.95000000e-01	1.51415934e-02	1.37157158e-04
3.96000000e-01	1.51705896e-02	1.37522557e-04
3.97000000e-01	1.51662303e-02	1.37565538e-04
3.98000000e-01	1.52470346e-02	1.38040054e-04
3.99000000e-01	1.50767858e-02	1.36956897e-04
4.00000000e-01	1.52328469e-02	1.38066932e-04
4.01000000e-01	1.50304360e-02	1.36455707e-04
4.02000000e-01	1.50553305e-02	1.36503041e-04
4.03000000e-01	1.51114862e-02	1.37135744e-04
4.04000000e-01	1.50118861e-02	1.36258165e-04
4.05000000e-01	1.52636544e-02	1.38306747e-04
4.06000000e-01	1.50040375e-02	1.36156620e-04
4.07000000e-01	1.51071369e-02	1.36672800e-04
4.08000000e-01	1.49750773e-02	1.35420969e-04
4.09000000e-01	1.50816345e-02	1.36350705e-04
4.10000000e-01	1.49511326e-02	1.35512288e-04
4.11000000e-01	1.49398401e-02	1.34879180e-04
4.12000000e-01	1.50040179e-02	1.35955310e-04
4.13000000e-01	1.49203568e-02	1.34830836e-04
4.14000000e-01	1.50296062e-02	1.35524955e-04
4.15000000e-01	1.49128246e-02	1.34615689e-04
4.16000000e-01	1.50234708e-02	1.35644111e-04
4.17000000e-01	1.49690079e-02	1.35212749e-04
4.18000000e-01	1.50097010e-02	1.37076104e-04
4.19000000e-01	1.50155868e-02	1.38434814e-04
4.20000000e-01	1.49654848e-02	1.39156264e-04
4.21000000e-01	1.51961702e-02	1.41457078e-04
4.22000000e-01	1.50984105e-02	1.41022676e-04
4.23000000e-01	1.50284079e-02	1.41306333e-04
4.24000000e-01	1.50452413e-02	1.41237343e-04
4.25000000e-01	1.50009412e-02	1.41057536e-04
4.26000000e-01	1.49336217e-02	1.40933763e-04
4.27000000e-01	1.49019658e-02	1.40646908e-04
4.28000000e-01	1.50085183e-02	1.41724235e-04
4.29000000e-01	1.50261387e-02	1.42055578e-04
4.30000000e-01	1.49414408e-02	1.41260868e-04
4.31000000e-01	1.48606959e-02	1.40483417e-04
4.32000000e-01	1.48695250e-02	1.40695223e-04
4.33000000e-01	1.49072773e-02	1.40951857e-04
4.34000000e-01	1.49818677e-02	1.42021897e-04
4.35000000e-01	1.48504232e-02	1.41064650e-04
4.36000000e-01	1.49297273e-02	1.41488548e-04
4.37000000e-01	1.48952975e-02	1.42072730e-04
4.38000000e-01	1.48381034e-02	1.41496501e-04
4.39000000e-01	1.47694006e-02	1.41569115e-04
4.40000000e-01	1.48118034e-02	1.41213407e-04
4.41000000e-01	1.47962315e-02	1.41403933e-04
4.42000000e-01	1.47407154e-02	1.40935027e-04
4.43000000e-01	1.47374291e-02	1.41133846e-04
4.44000000e-01	1.46839895e-02	1.41094751e-04
4.45000000e-01	1.47901247e-02	1.42123238e-04
4.46000000e-01	1.47926431e-02	1.42258663e-04
4.47000000e-01	1.47121940e-02	1.41493409e-04
4.48000000e-01	1.48138314e-02	1.42336856e-04
4.49000000e-01	1.48521803e-02	1.43155324e-04
4.50000000e-01	1.48801968e-02	1.43644160e-04
4.51000000e-01	1.47231570e-02	1.42511953e-04
4.52000000e-01	1.47503279e-02	1.42549741e-04
4.53000000e-01	1.46344659e-02	1.41878694e-04
4.54000000e-01	1.45603201e-02	1.41436536e-04
4.55000000e-01	1.46117948e-02	1.41753983e-04
4.56000000e-01	1.46937695e-02	1.42633641e-04
4.57000000e-01	1.45423177e-02	1.41381383e-04
4.58000000e-01	1.47116484e-02	1.42941142e-04
4.59000000e-01	1.46437310e-02	1.42474361e-04
4.60000000e-01	1.46519666e-02	1.42618517e-04
4.61000000e-01	1.46531858e-02	1.43173084e-04
4.62000000e-01	1.44493611e-02	1.41673674e-04
4.63000000e-01	1.46335005e-02	1.42351673e-04
4.64000000e-01	1.45685732e-02	1.41753700e-04
4.65000000e-01	1.44776320e-02	1.41743992e-04
4.66000000e-01	1.45863244e-02	1.42388143e-04
4.67000000e-01	1.46343475e-02	1.43653410e-04
4.68000000e-01	1.45173869e-02	1.42250182e-04
4.69000000e-01	1.45753329e-02	1.42791842e-04
4.70000000e-01	1.44448602e-02	1.42172030e-04
4.71000000e-01	1.45071100e-02	1.42300384e-04
4.72000000e-01	1.46045683e-02	1.42932347e-04
4.73000000e-01	1.46065599e-02	1.43020144e-04
4.74000000e-01	1.44044023e-02	1.41527672e-04
4.75000000e-01	1.44299034e-02	1.41209998e-04
4.76000000e-01	1.44186337e-02	1.41797332e-04
4.77000000e-01	1.44833063e-02	1.42115273e-04
4.78000000e-01	1.44135097e-02	1.41553343e-04
4.79000000e-01	1.44604755e-02	1.42110333e-04
4.80000000e-01	1.44826821e-02	1.42455404e-04
4.81000000e-01	1.44053154e-02	1.41644000e-04
4.82000000e-01	1.43398715e-02	1.40951349e-04
4.83000000e-01	1.44231687e-02	1.41795371e-04
4.84000000e-01	1.42602209e-02	1.40551892e-04
4.85000000e-01	1.44222840e-02	1.41959791e-04
4.86000000e-01	1.43422973e-02	1.41677374e-04
4.87000000e-01	1.44110582e-02	1.41989227e-04
4.88000000e-01	1.42748245e-02	1.40880516e-04
4.89000000e-01	1.43063942e-02	1.41661762e-04
4.90000000e-01	1.43591126e-02	1.41642166e-04
4.91000000e-01	1.42521304e-02	1.41087626e-04
4.92000000e-01	1.42623030e-02	1.41124131e-04
4.93000000e-01	1.41935010e-02	1.40526783e-04
4.94000000e-01	1.42175496e-02	1.41195799e-04
4.95000000e-01	1.43407935e-02	1.43110600e-04
4.96000000e-01	1.42335398e-02	1.46452352e-04
4.97000000e-01	1.43944201e-02	1.49988396e-04
4.98000000e-01	1.42146776e-02	1.50515692e-04
4.99000000e-01	1.43899972e-02	1.53785455e-04
5.00000000e-01	1.43253092e-02	1.55241916e-04
5.01000000e-01	1.40820071e-02	1.54393433e-04
5.02000000e-01	1.42837401e-02	1.57697847e-04
5.03000000e-01	1.42756058e-02	1.59925625e-04
5.04000000e-01	1.42179014e-02	1.59379603e-04
5.05000000e-01	1.43669475e-02	1.58681537e-04
5.06000000e-01	1.43595796e-02	1.55790750e-04
5.07000000e-01	1.42297692e-02	1.52286474e-04
5.08000000e-01	1.42353228e-02	1.52115204e-04
5.09000000e-01	1.42454844e-02	1.51245274e-04
5.10000000e-01	1.43189692e-02	1.51421383e-04
5.11000000e-01	1.42287143e-02	1.50082981e-04
5.12000000e-01	1.42233144e-02	1.49577650e-04
5.13000000e-01	1.41228700e-02	1.48397399e-04
5.14000000e-01	1.40828194e-02	1.47361055e-04
5.15000000e-01	1.40523218e-02	1.47195963e-04
5.16000000e-01	1.41709910e-02	1.47794314e-04
5.17000000e-01	1.40780867e-02	1.46780013e-04
5.18000000e-01	1.41129770e-02	1.47362717e-04
5.19000000e-01	1.41212128e-02	1.46351569e-04
5.20000000e-01	1.41700196e-02	1.46507024e-04
5.21000000e-01	1.40263272e-02	1.45448039e-04
5.22000000e-01	1.40893917e-02	1.45797669e-04
5.23000000e-01	1.41160994e-02	1.45759163e-04
5.24000000e-01	1.42093158e-02	1.46704410e-04
5.25000000e-01	1.41671123e-02	1.45894694e-04
5.26000000e-01	1.40974608e-02	1.45540066e-04
5.27000000e-01	1.41371600e-02	1.45914329e-04
5.28000000e-01	1.38697880e-02	1.43325440e-04
5.29000000e-01	1.38240332e-02	1.43186043e-04
5.30000000e-01	1.39983071e-02	1.44341645e-04
5.31000000e-01	1.39857157e-02	1.44681105e-04
5.32000000e-01	1.38694556e-02	1.43621871e-04
5.33000000e-01	1.38752779e-02	1.44003133e-04
5.34000000e-01	1.39976818e-02	1.45046848e-04
5.35000000e-01	1.38615172e-02	1.43337759e-04
5.36000000e-01	1.38465777e-02	1.43093364e-04
5.37000000e-01	1.38809320e-02	1.43340096e-04
5.38000000e-01	1.38794109e-02	1.43377137e-04
5.39000000e-01	1.39316563e-02	1.44087889e-04
5.40000000e-01	1.39262163e-02	1.44191055e-04
5.41000000e-01	1.38570650e-02	1.43487444e-04
5.42000000e-01	1.38362729e-02	1.43184917e-04
5.43000000e-01	1.38200832e-02	1.42941710e-04
5.44000000e-01	1.39314376e-02	1.44367507e-04
5.45000000e-01	1.40162295e-02	1.44416397e-04
5.46000000e-01	1.36521860e-02	1.41410111e-04
5.47000000e-01	1.37645021e-02	1.42756686e-04
5.48000000e-01	1.38688836e-02	1.43324654e-04
5.49000000e-01	1.38594442e-02	1.43246676e-04
5.50000000e-01	1.37778083e-02	1.42136363e-04
5.51000000e-01	1.38390210e-02	1.42444189e-04
5.52000000e-01	1.35873326e-02	1.40499389e-04
5.53000000e-01	1.38590504e-02	1.42512363e-04
5.54000000e-01	1.39140366e-02	1.42795327e-04
5.55000000e-01	1.37646748e-02	1.41439321e-04
5.56000000e-01	1.37392454e-02	1.41167724e-04
5.57000000e-01	1.39140958e-02	1.42739909e-04
5.58000000e-01	1.36954901e-02	1.40493807e-04
5.59000000e-01	1.39200757e-02	1.42680709e-04
5.60000000e-01	1.36456737e-02	1.40174408e-04
5.61000000e-01	1.36915662e-02	1.41003556e-04
5.62000000e-01	1.37229761e-02	1.40736404e-04
5.63000000e-01	1.36584441e-02	1.40176206e-04
5.64000000e-01	1.35468781e-02	1.39616769e-04
5.65000000e-01	1.34879872e-02	1.38676389e-04
5.66000000e-01	1.35102402e-02	1.39006183e-04
5.67000000e-01	1.36168195e-02	1.40117577e-04
5.68000000e-01	1.35807108e-02	1.40045397e-04
5.69000000e-01	1.35950941e-02	1.39391100e-04
5.70000000e-01	1.36096341e-02	1.39698561e-04
5.71000000e-01	1.36122569e-02	1.39829757e-04
5.72000000e-01	1.35017085e-02	1.38950631e-04
5.73000000e-01	1.33772250e-02	1.38113857e-04
5.74000000e-01	1.35212765e-02	1.38957799e-04
5.75000000e-01	1.34458941e-02	1.38625509e-04
5.76000000e-01	1.35730686e-02	1.39391768e-04
5.77000000e-01	1.35075755e-02	1.38700057e-04
5.78000000e-01	1.34465138e-02	1.38775822e-04
5.79000000e-01	1.35637520e-02	1.39544481e-04
5.80000000e-01	1.34890867e-02	1.38943867e-04
5.81000000e-01	1.35777279e-02	1.40261505e-04
5.82000000e-01	1.35361999e-02	1.39661061e-04
5.83000000e-01	1.34897429e-02	1.39611721e-04
5.84000000e-01	1.33732343e-02	1.38305896e-04
5.85000000e-01	1.35178587e-02	1.39511790e-04
5.86000000e-01	1.33663244e-02	1.38310405e-04
5.87000000e-01	1.34219612e-02	1.38503661e-04
5.88000000e-01	1.33843174e-02	1.38176008e-04
5.89000000e-01	1.33606186e-02	1.38714290e-04
5.90000000e-01	1.34459633e-02	1.38621588e-04
5.91000000e-01	1.34329303e-02	1.38942831e-04
5.92000000e-01	1.34304997e-02	1.38712799e-04
5.93000000e-01	1.33895835e-02	1.38206224e-04
5.94000000e-01	1.34164421e-02	1.38641820e-04
5.95000000e-01	1.33459710e-02	1.37770349e-04
5.96000000e-01	1.32437217e-02	1.37472832e-04
5.97000000e-01	1.33158404e-02	1.37504352e-04
5.98000000e-01	1.32576324e-02	1.37774343e-04
5.99000000e-01	1.33532157e-02	1.38127653e-04
6.00000000e-01	1.32750102e-02	1.37400648e-04
6.01000000e-01	1.33327164e-02	1.38040773e-04
6.02000000e-01	1.30531624e-02	1.35061157e-04
6.03000000e-01	1.32739469e-02	1.37628941e-04
6.04000000e-01	1.32702933e-02	1.37799654e-04
6.05000000e-01	1.32238629e-02	1.37094036e-04
6.06000000e-01	1.32461896e-02	1.37172678e-04
6.07000000e-01	1.31194284e-02	1.36512923e-04
6.08000000e-01	1.32669585e-02	1.37886008e-04
6.09000000e-01	1.33168223e-02	1.38293086e-04
6.10000000e-01	1.31703733e-02	1.36838009e-04
6.11000000e-01	1.32510052e-02	1.37495228e-04
6.12000000e-01	1.30553452e-02	1.35506312e-04
6.13000000e-01	1.30959489e-02	1.35924526e-04
6.14000000e-01	1.31192665e-02	1.35875605e-04
6.15000000e-01	1.31434738e-02	1.36480111e-04
6.16000000e-01	1.31736376e-02	1.36946079e-04
6.17000000e-01	1.29195798e-02	1.34561866e-04
6.18000000e-01	1.31152272e-02	1.36660661e-04
6.19000000e-01	1.31285197e-02	1.36185838e-04
6.20000000e-01	1.30765805e-02	1.35547291e-04
6.21000000e-01	1.31086047e-02	1.35562501e-04
6.22000000e-01	1.31624211e-02	1.35331050e-04
6.23000000e-01	1.31169325e-02	1.35146273e-04
6.24000000e-01	1.31447980e-02	1.35833618e-04
6.25000000e-01	1.30541461e-02	1.34833035e-04
6.26000000e-01	1.30829983e-02	1.34542750e-04
6.27000000e-01	1.29486848e-02	1.33780225e-04
6.28000000e-01	1.29280048e-02	1.33358800e-04
6.29000000e-01	1.30013246e-02	1.33841624e-04
6.30000000e-01	1.28804351e-02	1.33141616e-04
6.31000000e-01	1.30445426e-02	1.34986803e-04
6.32000000e-01	1.28734824e-02	1.32898494e-04
6.33000000e-01	1.29853669e-02	1.34297446e-04
6.34000000e-01	1.30200637e-02	1.38278770e-04
6.35000000e-01	1.29814201e-02	1.40787104e-04
6.36000000e-01	1.30927955e-02	1.45534027e-04
6.37000000e-01	1.29793193e-02	1.45769395e-04
6.38000000e-01	1.30193486e-02	1.48863113e-04
6.39000000e-01	1.29043320e-02	1.49790295e-04
6.40000000e-01	1.30917474e-02	1.52833891e-04
6.41000000e-01	1.31925471e-02	1.55677148e-04
6.42000000e-01	1.31521719e-02	1.57242701e-04
6.43000000e-01	1.30226456e-02	1.55441619e-04
6.44000000e-01	1.29765976e-02	1.49579245e-04
6.45000000e-01	1.32045775e-02	1.50079225e-04
6.46000000e-01	1.30737763e-02	1.46860416e-04
6.47000000e-01	1.31777457e-02	1.46576693e-04
6.48000000e-01	1.30915862e-02	1.45169789e-04
6.49000000e-01	1.30474862e-02	1.43764670e-04
6.50000000e-01	1.29879120e-02	1.42816386e-04
6.51000000e-01	1.30531756e-02	1.42582538e-04
6.52000000e-01	1.30586393e-02	1.42514134e-04
6.53000000e-01	1.28764886e-02	1.39799022e-04
6.54000000e-01	1.28422284e-02	1.39697283e-04
6.55000000e-01	1.29830331e-02	1.40379523e-04
6.56000000e-01	1.29685930e-02	1.40026862e-04
6.57000000e-01	1.28200235e-02	1.38015355e-04
6.58000000e-01	1.29120845e-02	1.38786927e-04
6.59000000e-01	1.29087936e-02	1.39170507e-04
6.60000000e-01	1.30816212e-02	1.40452032e-04
6.61000000e-01	1.28942105e-02	1.38037765e-04
6.62000000e-01	1.30148124e-02	1.39986999e-04
6.63000000e-01	1.29351357e-02	1.39570624e-04
6.64000000e-01	1.28238985e-02	1.37866886e-04
6.65000000e-01	1.28195509e-02	1.37565171e-04
6.66000000e-01	1.30327873e-02	1.39258442e-04
6.67000000e-01	1.28450001e-02	1.37892928e-04
6.68000000e-01	1.28183843e-02	1.37881385e-04
6.69000000e-01	1.29720143e-02	1.38464860e-04
6.70000000e-01	1.29206571e-02	1.38065293e-04
6.71000000e-01	1.27440232e-02	1.36338120e-04
6.72000000e-01	1.29054292e-02	1.37714514e-04
6.73000000e-01	1.27403168e-02	1.36085095e-04
6.74000000e-01	1.27619731e-02	1.36657880e-04
6.75000000e-01	1.28825631e-02	1.37764358e-04
6.76000000e-01	1.27640676e-02	1.36426320e-04
6.77000000e-01	1.28452017e-02	1.36968937e-04
6.78000000e-01	1.28506486e-02	1.37544995e-04
6.79000000e-01	1.28947830e-02	1.37639389e-04
6.80000000e-01	1.27525723e-02	1.36177479e-04
6.81000000e-01	1.26963838e-02	1.36026310e-04
6.82000000e-01	1.28049216e-02	1.36793056e-04
6.83000000e-01	1.27355623e-02	1.35921468e-04
6.84000000e-01	1.27028477e-02	1.35766811e-04
6.85000000e-01	1.27187181e-02	1.35881699e-04
6.86000000e-01	1.28531456e-02	1.36497717e-04
6.87000000e-01	1.28631316e-02	1.36993603e-04
6.88000000e-01	1.26790977e-02	1.35493117e-04
6.89000000e-01	1.26846464e-02	1.35183496e-04
6.90000000e-01	1.27312852e-02	1.35621586e-04
6.91000000e-01	1.26901401e-02	1.35123611e-04
6.92000000e-01	1.26251244e-02	1.34510634e-04
6.93000000e-01	1.27773311e-02	1.35405052e-04
6.94000000e-01	1.26186816e-02	1.34636489e-04
6.95000000e-01	1.26679589e-02	1.34760265e-04
6.96000000e-01	1.26078986e-02	1.34090357e-04
6.97000000e-01	1.25920300e-02	1.34482074e-04
6.98000000e-01	1.26099842e-02	1.34305351e-04
6.99000000e-01	1.26600277e-02	1.34629214e-04
7.00000000e-01	1.25410699e-02	1.33745110e-04
7.01000000e-01	1.25095506e-02	1.33066959e-04
7.02000000e-01	1.25682300e-02	1.33831741e-04
7.03000000e-01	1.24999506e-02	1.33605530e-04
7.04000000e-01	1.26856312e-02	1.35444486e-04
7.05000000e-01	1.23918805e-02	1.32911339e-04
7.06000000e-01	1.24640078e-02	1.32856326e-04
7.07000000e-01	1.24887275e-02	1.33255040e-04
7.08000000e-01	1.24944367e-02	1.32002312e-04
7.09000000e-01	1.26137175e-02	1.34337667e-04
7.10000000e-01	1.25149184e-02	1.32905642e-04
7.11000000e-01	1.24225367e-02	1.31954202e-04
7.12000000e-01	1.25209242e-02	1.33155231e-04
7.13000000e-01	1.25286546e-02	1.33605452e-04
7.14000000e-01	1.23847596e-02	1.31731303e-04
7.15000000e-01	1.24674355e-02	1.32898062e-04
7.16000000e-01	1.23523543e-02	1.31770684e-04
7.17000000e-01	1.22735725e-02	1.31152566e-04
7.18000000e-01	1.23219816e-02	1.31476492e-04
7.19000000e-01	1.24178854e-02	1.32297041e-04
7.20000000e-01	1.24550445e-02	1.32247638e-04
7.21000000e-01	1.24544579e-02	1.32725985e-04
7.22000000e-01	1.24713074e-02	1.32348624e-04
7.23000000e-01	1.22912388e-02	1.31361010e-04
7.24000000e-01	1.23645824e-02	1.31326352e-04
7.25000000e-01	1.22241166e-02	1.30412498e-04
7.26000000e-01	1.22688033e-02	1.30635510e-04
7.27000000e-01	1.23586335e-02	1.32260234e-04
7.28000000e-01	1.21866472e-02	1.30184599e-04
7.29000000e-01	1.22360106e-02	1.30710680e-04
7.30000000e-01	1.21460912e-02	1.29773781e-04
7.31000000e-01	1.22140262e-02	1.30563460e-04
7.32000000e-01	1.22941490e-02	1.31332890e-04
7.33000000e-01	1.22368555e-02	1.30945912e-04
7.34000000e-01	1.23033602e-02	1.30726721e-04
7.35000000e-01	1.20826128e-02	1.29074560e-04
7.36000000e-01	1.21689255e-02	1.29559370e-04
7.37000000e-01	1.22397545e-02	1.29966057e-04
7.38000000e-01	1.22550498e-02	1.29946113e-04
7.39000000e-01	1.21184578e-02	1.28172039e-04
7.40000000e-01	1.21513664e-02	1.29080546e-04
7.41000000e-01	1.22249493e-02	1.29050178e-04
7.42000000e-01	1.21834372e-02	1.28599380e-04
7.43000000e-01	1.21630156e-02	1.28865680e-04
7.44000000e-01	1.21650657e-02	1.28527948e-04
7.45000000e-01	1.21473238e-02	1.27886858e-04
7.46000000e-01	1.21533434e-02	1.28514976e-04
7.47000000e-01	1.20960404e-02	1.27778182e-04
7.48000000e-01	1.21095793e-02	1.27999583e-04
7.49000000e-01	1.20591792e-02	1.27565730e-04
7.50000000e-01	1.20616350e-02	1.27109920e-04
7.51000000e-01	1.20005802e-02	1.26914613e-04
7.52000000e-01	1.19369561e-02	1.26645164e-04
7.53000000e-01	1.22159491e-02	1.29111723e-04
7.54000000e-01	1.21142410e-02	1.27699415e-04
7.55000000e-01	1.20116236e-02	1.27278394e-04
7.56000000e-01	1.20595548e-02	1.27549467e-04
7.57000000e-01	1.19414442e-02	1.26515512e-04
7.58000000e-01	1.19848106e-02	1.26797570e-04
7.59000000e-01	1.20295130e-02	1.27109338e-04
7.60000000e-01	1.19405569e-02	1.26225946e-04
7.61000000e-01	1.20049312e-02	1.26398948e-04
7.62000000e-01	1.18218099e-02	1.24823692e-04
7.63000000e-01	1.19382241e-02	1.25069884e-04
7.64000000e-01	1.19127238e-02	1.25005069e-04
7.65000000e-01	1.19144773e-02	1.25072483e-04
7.66000000e-01	1.17782312e-02	1.23772186e-04
7.67000000e-01	1.19018905e-02	1.24900227e-04
7.68000000e-01	1.18769344e-02	1.24736226e-04
7.69000000e-01	1.18733186e-02	1.24407913e-04
7.70000000e-01	1.17407247e-02	1.23501811e-04
7.71000000e-01	1.18632546e-02	1.24329571e-04
7.72000000e-01	1.19041827e-02	1.28962308e-04
7.73000000e-01	1.18103074e-02	1.32123796e-04
7.74000000e-01	1.17807375e-02	1.33896134e-04
7.75000000e-01	1.18674201e-02	1.37804204e-04
7.76000000e-01	1.18506853e-02	1.39699428e-04
7.77000000e-01	1.16353486e-02	1.39771124e-04
7.78000000e-01	1.17844896e-02	1.42840152e-04
7.79000000e-01	1.17013221e-02	1.43504942e-04
7.80000000e-01	1.16467352e-02	1.45152951e-04
7.81000000e-01	1.18968320e-02	1.49188171e-04
7.82000000e-01	1.17588200e-02	1.48192603e-04
7.83000000e-01	1.14512088e-02	1.46828579e-04
7.84000000e-01	1.16671914e-02	1.50765870e-04
7.85000000e-01	1.16256376e-02	1.52489016e-04
7.86000000e-01	1.16519172e-02	1.54545260e-04
7.87000000e-01	1.16976095e-02	1.55895634e-04
7.88000000e-01	1.14852193e-02	1.54745548e-04
7.89000000e-01	1.14988914e-02	1.56868941e-04
7.90000000e-01	1.15479431e-02	1.59078869e-04
7.91000000e-01	1.16019650e-02	1.61390331e-04
7.92000000e-01	1.16969527e-02	1.64547438e-04
7.93000000e-01	1.16585556e-02	1.65364706e-04
7.94000000e-01	1.14372785e-02	1.63675385e-04
7.95000000e-01	1.13558822e-02	1.64435677e-04
7.96000000e-01	1.16637870e-02	1.70457752e-04
7.97000000e-01	1.14950030e-02	1.70163506e-04
7.98000000e-01	1.15967303e-02	1.73012890e-04
7.99000000e-01	1.14868021e-02	1.73374536e-04
8.00000000e-01	1.14570838e-02	1.73491206e-04
8.01000000e-01	1.15744195e-02	1.78190394e-04
8.02000000e-01	1.14770734e-02	1.78344410e-04
8.03000000e-01	1.15667667e-02	1.81233195e-04
8.04000000e-01	1.16420558e-02	1.84663169e-04
8.05000000e-01	1.14185610e-02	1.83328702e-04
8.06000000e-01	1.14419300e-02	1.85488302e-04
8.07000000e-01	1.12947898e-02	1.85554008e-04
8.08000000e-01	1.13722214e-02	1.89019715e-04
8.09000000e-01	1.13284939e-02	1.90814302e-04
8.10000000e-01	1.14079369e-02	1.93306733e-04
8.11000000e-01	1.16239553e-02	1.98765031e-04
8.12000000e-01	1.14028178e-02	1.98910365e-04
8.13000000e-01	1.13795924e-02	2.00092378e-04
8.14000000e-01	1.12630800e-02	2.00892721e-04
8.15000000e-01	1.13383483e-02	2.04988376e-04
8.16000000e-01	1.14408367e-02	2.08732979e-04
8.17000000e-01	1.12455690e-02	2.05919788e-04
8.18000000e-01	1.13000200e-02	2.11639969e-04
8.19000000e-01	1.13581957e-02	2.14082224e-04
8.20000000e-01	1.14336960e-02	2.17893825e-04
8.21000000e-01	1.12432407e-02	2.18315516e-04
8.22000000e-01	1.13024967e-02	2.22255326e-04
8.23000000e-01	1.13460349e-02	2.25478396e-04
8.24000000e-01	1.10903584e-02	2.24561868e-04
8.25000000e-01	1.13603271e-02	2.31414798e-04
8.26000000e-01	1.09137895e-02	2.29111648e-04
8.27000000e-01	1.11413456e-02	2.35124928e-04
8.28000000e-01	1.11632702e-02	2.39031271e-04
8.29000000e-01	1.13327711e-02	2.46207138e-04
8.30000000e-01	1.13372926e-02	2.49369711e-04
8.31000000e-01	1.09808764e-02	2.46808522e-04
8.32000000e-01	1.13814851e-02	2.59068778e-04
8.33000000e-01	1.09389395e-02	2.56644350e-04
8.34000000e-01	1.07887821e-02	2.56803627e-04
8.35000000e-01	1.11957950e-02	2.69123743e-04
8.36000000e-01	1.08378264e-02	2.65573149e-04
8.37000000e-01	1.10471256e-02	2.75853629e-04
8.38000000e-01	1.12353093e-02	2.84206528e-04
8.39000000e-01	1.08965164e-02	2.84113106e-04
8.40000000e-01	1.04318827e-02	2.77846257e-04
8.41000000e-01	1.09385130e-02	3.00405055e-04
8.42000000e-01	1.09304930e-02	3.04341128e-04
8.43000000e-01	1.04470542e-02	3.00979861e-04
8.44000000e-01	1.05475032e-02	3.10385893e-04
8.45000000e-01	1.11601863e-02	3.32770573e-04
8.46000000e-01	1.09702023e-02	3.35178205e-04
8.47000000e-01	1.06827465e-02	3.39093295e-04
8.48000000e-01	1.09763007e-02	3.58057115e-04
8.49000000e-01	1.07505513e-02	3.62881579e-04
8.50000000e-01	1.07626628e-02	3.73002328e-04
8.51000000e-01	1.08689585e-02	3.92041403e-04
8.52000000e-01	1.08347909e-02	4.05699726e-04
8.53000000e-01	1.05674568e-02	4.14472431e-04
8.54000000e-01	1.09284143e-02	4.44832827e-04
8.55000000e-01	1.09264544e-02	4.64518643e-04
8.56000000e-01	1.10617962e-02	4.77094829e-04
8.57000000e-01	1.05999766e-02	4.86099133e-04
8.58000000e-01	1.02670880e-02	4.74093576e-04
8.59000000e-01	1.03876744e-02	4.96526346e-04
8.60000000e-01	1.08606732e-02	5.29650616e-04
8.61000000e-01	1.12092431e-02	5.65352151e-04
8.62000000e-01	1.04438139e-02	5.54275982e-04
8.63000000e-01	1.03662907e-02	5.76594132e-04
8.64000000e-01	1.07221004e-02	6.10683439e-04
8.65000000e-01	1.04168465e-02	6.28261918e-04
8.66000000e-01	1.00617373e-02	6.27291152e-04
8.67000000e-01	1.11327387e-02	7.27181248e-04
8.68000000e-01	1.10408246e-02	7.84387880e-04
8.69000000e-01	1.03255465e-02	8.17268185e-04
8.70000000e-01	1.09242282e-02	9.17363666e-04
8.71000000e-01	9.94378414e-03	9.63304032e-04
8.72000000e-01	1.10545623e-02	1.12495109e-03
8.73000000e-01	1.08934236e-02	1.28751025e-03
8.74000000e-01	1.19546731e-02	1.85437724e-03
8.75000000e-01	1.19552325e-02	3.86640452e-03
