% Filename : SDL7_00012_00055.h5
% Date & Time : 30-Oct-2025 14:49:22
% X-ray Energy (keV) : 13.30001
% Exposure Time (s) : 0.500
% Beam Center : 1461.24000, 208.98300
% Sample to Detector Distance (SDD) (mm) : 1990.750
% Detector Pixel Size (mm) : 0.075
% Photodiode Value : 135569.000
% I0 of Sample : 0
% I0 of Standard : 1
% 
% q(A^-1)   I(q)    I(q)_SE
0.00000000e+00	5.33061492e-03	3.26432031e-03
2.50000000e-04	0.00000000e+00	0.00000000e+00
5.00000000e-04	0.00000000e+00	0.00000000e+00
7.50000000e-04	0.00000000e+00	0.00000000e+00
1.00000000e-03	0.00000000e+00	0.00000000e+00
1.25000000e-03	0.00000000e+00	0.00000000e+00
1.50000000e-03	0.00000000e+00	0.00000000e+00
1.75000000e-03	0.00000000e+00	0.00000000e+00
2.00000000e-03	0.00000000e+00	0.00000000e+00
2.25000000e-03	0.00000000e+00	0.00000000e+00
2.50000000e-03	0.00000000e+00	0.00000000e+00
2.75000000e-03	0.00000000e+00	0.00000000e+00
3.00000000e-03	0.00000000e+00	0.00000000e+00
3.25000000e-03	1.33886222e+02	9.49282185e+01
3.50000000e-03	2.57521972e+01	1.49128219e+01
3.75000000e-03	1.62482019e+01	7.65486655e+00
4.00000000e-03	1.19888475e+01	4.63485380e+00
4.25000000e-03	5.90841148e+00	1.72615073e+00
4.50000000e-03	7.94035511e+00	1.96310347e+00
4.75000000e-03	8.61773232e+00	2.04620269e+00
5.00000000e-03	7.00949507e+00	1.70512428e+00
5.25000000e-03	6.19387038e+00	1.58458535e+00
5.50000000e-03	5.19113239e+00	1.34750282e+00
5.75000000e-03	4.38369410e+00	1.11898713e+00
6.00000000e-03	3.52444445e+00	8.41087261e-01
6.25000000e-03	2.82994696e+00	6.30837683e-01
6.50000000e-03	2.35506830e+00	4.95324974e-01
6.75000000e-03	2.01840868e+00	4.19175492e-01
7.00000000e-03	1.84958573e+00	4.05686700e-01
7.25000000e-03	1.66791069e+00	3.76982198e-01
7.50000000e-03	1.46830823e+00	3.54186393e-01
7.75000000e-03	1.32752374e+00	3.16090579e-01
8.00000000e-03	1.11248329e+00	2.45315780e-01
8.25000000e-03	9.24201885e-01	1.83211494e-01
8.50000000e-03	7.94546489e-01	1.46441417e-01
8.75000000e-03	7.29443761e-01	1.39229443e-01
9.00000000e-03	6.71580740e-01	1.31700963e-01
9.25000000e-03	6.25420449e-01	1.25243402e-01
9.50000000e-03	5.68855779e-01	1.19549848e-01
9.75000000e-03	5.18423393e-01	1.09546364e-01
1.00000000e-02	4.42225016e-01	8.65398037e-02
1.02500000e-02	4.00815111e-01	7.22184096e-02
1.05000000e-02	3.54443460e-01	5.94973784e-02
1.07500000e-02	3.27751388e-01	5.67911433e-02
1.10000000e-02	3.09170229e-01	5.53034284e-02
1.12500000e-02	2.90777205e-01	5.65539775e-02
1.15000000e-02	2.90749797e-01	5.76149273e-02
1.17500000e-02	2.41382314e-01	4.70900978e-02
1.20000000e-02	2.26596802e-01	4.23746392e-02
1.22500000e-02	2.20706615e-01	3.83004079e-02
1.25000000e-02	1.93468480e-01	3.12231031e-02
1.27500000e-02	1.82271391e-01	2.94416729e-02
1.30000000e-02	1.75560702e-01	2.90815590e-02
1.32500000e-02	1.62694629e-01	2.74962730e-02
1.35000000e-02	1.59967168e-01	2.84623544e-02
1.37500000e-02	1.53721093e-01	2.77122269e-02
1.40000000e-02	1.39361001e-01	2.24526766e-02
1.42500000e-02	1.27350263e-01	1.91935339e-02
1.45000000e-02	1.16232526e-01	1.65561971e-02
1.47500000e-02	1.09337712e-01	1.49506933e-02
1.50000000e-02	1.09517160e-01	1.55860822e-02
1.52500000e-02	1.03286936e-01	1.55774594e-02
1.55000000e-02	9.81658401e-02	1.43629057e-02
1.57500000e-02	9.43502536e-02	1.41212971e-02
1.60000000e-02	8.86264763e-02	1.23662369e-02
1.62500000e-02	8.22151394e-02	1.10281814e-02
1.65000000e-02	7.72497081e-02	9.80305365e-03
1.67500000e-02	7.46096647e-02	8.84568263e-03
1.70000000e-02	7.40345601e-02	9.49782970e-03
1.72500000e-02	7.09348320e-02	9.52125083e-03
1.75000000e-02	6.74706227e-02	8.85102479e-03
1.77500000e-02	6.54104404e-02	8.62277896e-03
1.80000000e-02	6.23015881e-02	7.67159409e-03
1.82500000e-02	5.95113330e-02	6.81796905e-03
1.85000000e-02	5.85540674e-02	6.88866935e-03
1.87500000e-02	5.58085189e-02	6.05274903e-03
1.90000000e-02	5.41436645e-02	6.14996460e-03
1.92500000e-02	5.21420834e-02	5.46744663e-03
1.95000000e-02	5.16980579e-02	5.52145920e-03
1.97500000e-02	5.12591136e-02	5.37799513e-03
2.00000000e-02	4.91986691e-02	4.93262092e-03
2.02500000e-02	4.44906871e-02	4.00880776e-03
2.05000000e-02	4.59338080e-02	4.05089128e-03
2.07500000e-02	4.39251490e-02	4.00404267e-03
2.10000000e-02	4.35926780e-02	3.83783328e-03
2.12500000e-02	4.32255785e-02	3.85587678e-03
2.15000000e-02	4.30491010e-02	3.91473446e-03
2.17500000e-02	4.27482183e-02	3.94718101e-03
2.20000000e-02	4.22562386e-02	3.86794293e-03
2.22500000e-02	4.06994662e-02	3.55849578e-03
2.25000000e-02	3.90938131e-02	3.42695379e-03
2.27500000e-02	3.95233405e-02	3.16199989e-03
2.30000000e-02	3.85832707e-02	3.17420858e-03
2.32500000e-02	3.86558672e-02	3.00530165e-03
2.35000000e-02	3.66547487e-02	2.98326001e-03
2.37500000e-02	3.68017564e-02	2.88583778e-03
2.40000000e-02	3.56261515e-02	2.83615344e-03
2.42500000e-02	3.59276036e-02	2.83269873e-03
2.45000000e-02	3.50477870e-02	2.70071914e-03
2.47500000e-02	3.52364070e-02	2.70523029e-03
2.50000000e-02	3.38926209e-02	2.42581119e-03
2.52500000e-02	3.42834617e-02	2.51044753e-03
2.55000000e-02	3.32386158e-02	2.43692692e-03
2.57500000e-02	3.37967550e-02	2.43230672e-03
2.60000000e-02	3.22343311e-02	2.25945966e-03
2.62500000e-02	3.17765061e-02	2.23886129e-03
2.65000000e-02	3.22240474e-02	2.18829143e-03
2.67500000e-02	3.05100144e-02	1.97204371e-03
2.70000000e-02	3.03146885e-02	1.95182978e-03
2.72500000e-02	3.17254383e-02	2.03660151e-03
2.75000000e-02	3.05669007e-02	2.00198979e-03
2.77500000e-02	3.11618887e-02	1.95379471e-03
2.80000000e-02	2.99574758e-02	1.85036021e-03
2.82500000e-02	3.12915559e-02	1.91823511e-03
2.85000000e-02	2.99381593e-02	1.92256936e-03
2.87500000e-02	2.93732530e-02	1.88413012e-03
2.90000000e-02	2.98457321e-02	1.80236296e-03
2.92500000e-02	2.95166155e-02	1.66158357e-03
2.95000000e-02	2.93414723e-02	1.65670331e-03
2.97500000e-02	2.92664955e-02	1.65180651e-03
3.00000000e-02	2.87607116e-02	1.70140174e-03
3.02500000e-02	2.96099691e-02	1.58357964e-03
3.05000000e-02	2.85329158e-02	1.54121308e-03
3.07500000e-02	2.81870458e-02	1.57819579e-03
3.10000000e-02	2.85890314e-02	1.56959768e-03
3.12500000e-02	2.82782780e-02	1.52569920e-03
3.15000000e-02	2.74814376e-02	1.49124689e-03
3.17500000e-02	2.72553359e-02	1.38623673e-03
3.20000000e-02	2.75270365e-02	1.45221183e-03
3.22500000e-02	2.60138545e-02	1.34493417e-03
3.25000000e-02	2.67000319e-02	1.43409747e-03
3.27500000e-02	2.66193652e-02	1.37350741e-03
3.30000000e-02	2.58678923e-02	1.35427083e-03
3.32500000e-02	2.67798291e-02	1.36957287e-03
3.35000000e-02	2.57912858e-02	1.34944749e-03
3.37500000e-02	2.58775722e-02	1.29697191e-03
3.40000000e-02	2.44402673e-02	1.21251539e-03
3.42500000e-02	2.60212308e-02	1.29456521e-03
3.45000000e-02	2.58150492e-02	1.30750579e-03
3.47500000e-02	2.53284844e-02	1.24949958e-03
3.50000000e-02	2.61185016e-02	1.25245409e-03
3.52500000e-02	2.57198679e-02	1.26194481e-03
3.55000000e-02	2.49653803e-02	1.20949050e-03
3.57500000e-02	2.43678891e-02	1.20700847e-03
3.60000000e-02	2.57679781e-02	1.24813639e-03
3.62500000e-02	2.51460452e-02	1.21621113e-03
3.65000000e-02	2.45615295e-02	1.15262465e-03
3.67500000e-02	2.55422597e-02	1.20208276e-03
3.70000000e-02	2.44974811e-02	1.16019795e-03
3.72500000e-02	2.47756340e-02	1.14396276e-03
3.75000000e-02	2.41116701e-02	1.13811712e-03
3.77500000e-02	2.39122418e-02	1.13363601e-03
3.80000000e-02	2.41758397e-02	1.12580196e-03
3.82500000e-02	2.31945661e-02	1.06751845e-03
3.85000000e-02	2.33120833e-02	1.08213827e-03
3.87500000e-02	2.36245224e-02	1.07802047e-03
3.90000000e-02	2.37991778e-02	1.08663926e-03
3.92500000e-02	2.38025454e-02	1.07799109e-03
3.95000000e-02	2.40555712e-02	1.08067778e-03
3.97500000e-02	2.29361983e-02	1.05471147e-03
4.00000000e-02	2.42592057e-02	1.08873778e-03
4.02500000e-02	2.37864919e-02	1.08118135e-03
4.05000000e-02	2.37600130e-02	1.04755826e-03
4.07500000e-02	2.28036587e-02	9.92895636e-04
4.10000000e-02	2.39026165e-02	1.05472961e-03
4.12500000e-02	2.31112457e-02	1.02930351e-03
4.15000000e-02	2.32129160e-02	1.01041073e-03
4.17500000e-02	2.34501579e-02	1.01954250e-03
4.20000000e-02	2.30033305e-02	1.01246199e-03
4.22500000e-02	2.38905995e-02	1.01961625e-03
4.25000000e-02	2.31564441e-02	1.01274125e-03
4.27500000e-02	2.31210705e-02	1.00060113e-03
4.30000000e-02	2.29350447e-02	9.90756241e-04
4.32500000e-02	2.32784497e-02	9.91986717e-04
4.35000000e-02	2.23913113e-02	9.60898527e-04
4.37500000e-02	2.11080166e-02	8.93117567e-04
4.40000000e-02	2.29164235e-02	9.77892801e-04
4.42500000e-02	2.28307724e-02	9.63868596e-04
4.45000000e-02	2.25045151e-02	9.44213856e-04
4.47500000e-02	2.28476133e-02	9.67517538e-04
4.50000000e-02	2.33139099e-02	9.93709825e-04
4.52500000e-02	2.14681647e-02	9.07767970e-04
4.55000000e-02	2.21031662e-02	9.29046385e-04
4.57500000e-02	2.27905211e-02	9.60240758e-04
4.60000000e-02	2.18606651e-02	9.29593524e-04
4.62500000e-02	2.22423059e-02	9.23306415e-04
4.65000000e-02	2.18587919e-02	9.03497129e-04
4.67500000e-02	2.25993124e-02	9.23155802e-04
4.70000000e-02	2.20235186e-02	9.16249616e-04
4.72500000e-02	2.19365286e-02	9.18713604e-04
4.75000000e-02	2.21815944e-02	9.24992155e-04
4.77500000e-02	2.16972668e-02	8.85906422e-04
4.80000000e-02	2.24964902e-02	9.11214793e-04
4.82500000e-02	2.14400304e-02	8.80141916e-04
4.85000000e-02	2.22583341e-02	9.21268509e-04
4.87500000e-02	2.22013320e-02	9.05675548e-04
4.90000000e-02	2.19377240e-02	8.81725183e-04
4.92500000e-02	2.15640735e-02	8.88531291e-04
4.95000000e-02	2.17691914e-02	8.72572807e-04
4.97500000e-02	2.21078250e-02	8.98395136e-04
5.00000000e-02	2.24316108e-02	9.07584471e-04
5.02500000e-02	2.13811496e-02	8.53706925e-04
5.05000000e-02	2.15692578e-02	8.63848536e-04
5.07500000e-02	2.15541867e-02	8.76455158e-04
5.10000000e-02	2.13294129e-02	8.48970540e-04
5.12500000e-02	2.16994149e-02	8.79049533e-04
5.15000000e-02	2.14475359e-02	8.43511573e-04
5.17500000e-02	2.15246575e-02	8.58860495e-04
5.20000000e-02	2.12723242e-02	8.45301191e-04
5.22500000e-02	2.18200120e-02	8.69339006e-04
5.25000000e-02	2.10157631e-02	8.29019964e-04
5.27500000e-02	2.12004684e-02	8.41970295e-04
5.30000000e-02	2.18058676e-02	8.60567951e-04
5.32500000e-02	2.11367673e-02	8.33707507e-04
5.35000000e-02	2.10278627e-02	8.35557546e-04
5.37500000e-02	2.16328825e-02	8.37841448e-04
5.40000000e-02	2.11897025e-02	8.27798076e-04
5.42500000e-02	2.10915828e-02	8.18947501e-04
5.45000000e-02	2.08025646e-02	8.07320327e-04
5.47500000e-02	2.15146027e-02	8.39097698e-04
5.50000000e-02	2.16311120e-02	8.32760098e-04
5.52500000e-02	2.16593452e-02	8.38834883e-04
5.55000000e-02	2.10366291e-02	8.17990271e-04
5.57500000e-02	2.08587458e-02	8.16447791e-04
5.60000000e-02	2.16174820e-02	8.31103450e-04
5.62500000e-02	2.03130602e-02	7.86654082e-04
5.65000000e-02	2.06986880e-02	7.90124825e-04
5.67500000e-02	2.08331114e-02	8.00680261e-04
5.70000000e-02	2.15153623e-02	8.19665691e-04
5.72500000e-02	2.12813941e-02	8.12479926e-04
5.75000000e-02	2.07232954e-02	7.92907019e-04
5.77500000e-02	2.11216907e-02	7.97081507e-04
5.80000000e-02	2.14759923e-02	8.14408993e-04
5.82500000e-02	2.08734803e-02	7.91625190e-04
5.85000000e-02	2.14824568e-02	8.17417927e-04
5.87500000e-02	2.11143758e-02	7.94366375e-04
5.90000000e-02	2.06838499e-02	7.84276463e-04
5.92500000e-02	2.09250787e-02	7.89672711e-04
5.95000000e-02	2.10988045e-02	7.94068604e-04
5.97500000e-02	2.10145325e-02	7.97521923e-04
6.00000000e-02	2.15179128e-02	8.00147602e-04
6.02500000e-02	2.05817877e-02	7.72550997e-04
6.05000000e-02	2.09923123e-02	7.82738885e-04
6.07500000e-02	2.12013754e-02	7.92277183e-04
6.10000000e-02	2.01184930e-02	7.47832283e-04
6.12500000e-02	2.06134088e-02	7.66577308e-04
6.15000000e-02	2.08872709e-02	7.72370171e-04
6.17500000e-02	2.05751257e-02	7.59945422e-04
6.20000000e-02	2.10342617e-02	7.75243967e-04
6.22500000e-02	2.02199448e-02	7.53645764e-04
6.25000000e-02	2.11457300e-02	7.77199304e-04
6.27500000e-02	2.02408468e-02	7.39180917e-04
6.30000000e-02	2.07906200e-02	7.58543820e-04
6.32500000e-02	2.12418856e-02	7.79350418e-04
6.35000000e-02	2.03292664e-02	7.42308780e-04
6.37500000e-02	2.09800966e-02	7.71044753e-04
6.40000000e-02	2.08570601e-02	7.67497882e-04
6.42500000e-02	1.99108705e-02	7.25754727e-04
6.45000000e-02	2.06218538e-02	7.44507147e-04
6.47500000e-02	2.08017393e-02	7.58293105e-04
6.50000000e-02	2.07143590e-02	7.51546507e-04
6.52500000e-02	2.06720751e-02	7.41863948e-04
6.55000000e-02	2.00783818e-02	7.27310361e-04
6.57500000e-02	2.07585456e-02	7.42987973e-04
6.60000000e-02	2.02014534e-02	7.27845915e-04
6.62500000e-02	1.99659579e-02	7.20793510e-04
6.65000000e-02	1.98425169e-02	7.10361448e-04
6.67500000e-02	2.07010642e-02	7.37486707e-04
6.70000000e-02	2.07001636e-02	7.37908715e-04
6.72500000e-02	2.04352806e-02	7.32656450e-04
6.75000000e-02	2.07439609e-02	7.37974656e-04
6.77500000e-02	2.06190042e-02	7.30862409e-04
6.80000000e-02	2.05224923e-02	7.33670874e-04
6.82500000e-02	2.05873614e-02	7.33933699e-04
6.85000000e-02	2.02908237e-02	7.23164283e-04
6.87500000e-02	2.07497233e-02	7.34013809e-04
6.90000000e-02	2.10587725e-02	7.41178377e-04
6.92500000e-02	2.07346336e-02	7.29277683e-04
6.95000000e-02	1.99249105e-02	7.08250150e-04
6.97500000e-02	2.04718450e-02	7.21239183e-04
7.00000000e-02	2.03279864e-02	7.12235718e-04
7.02500000e-02	2.02644081e-02	7.13295640e-04
7.05000000e-02	1.98888719e-02	6.87962307e-04
7.07500000e-02	2.03816501e-02	7.22880208e-04
7.10000000e-02	2.01378555e-02	6.99663959e-04
7.12500000e-02	2.07460942e-02	7.22391364e-04
7.15000000e-02	2.03129832e-02	7.04711080e-04
7.17500000e-02	2.09014901e-02	7.22027020e-04
7.20000000e-02	2.01636929e-02	7.02787680e-04
7.22500000e-02	2.04628777e-02	7.18881132e-04
7.25000000e-02	2.05538863e-02	7.09509094e-04
7.27500000e-02	2.05631593e-02	7.11854613e-04
7.30000000e-02	2.05047051e-02	7.07834317e-04
7.32500000e-02	2.09768692e-02	7.15471398e-04
7.35000000e-02	2.03830564e-02	7.01365138e-04
7.37500000e-02	2.01892547e-02	6.92410825e-04
7.40000000e-02	2.04259474e-02	7.03628623e-04
7.42500000e-02	2.01864760e-02	6.96587206e-04
7.45000000e-02	1.97356494e-02	6.74627580e-04
7.47500000e-02	2.02430601e-02	6.92188150e-04
7.50000000e-02	2.04840156e-02	6.98567646e-04
7.52500000e-02	2.01762996e-02	6.87727511e-04
7.55000000e-02	2.03820706e-02	6.89570707e-04
7.57500000e-02	2.03857441e-02	6.96652497e-04
7.60000000e-02	2.02524938e-02	6.85126405e-04
7.62500000e-02	2.03007020e-02	6.88936247e-04
7.65000000e-02	2.02169990e-02	6.81334472e-04
7.67500000e-02	2.00264174e-02	6.78327086e-04
7.70000000e-02	2.01738257e-02	6.81708232e-04
7.72500000e-02	2.01385850e-02	6.97309455e-04
7.75000000e-02	2.04345623e-02	7.07460443e-04
7.77500000e-02	2.10029790e-02	7.27548086e-04
7.80000000e-02	2.02414556e-02	7.12193188e-04
7.82500000e-02	2.01051802e-02	7.06159354e-04
7.85000000e-02	2.00532659e-02	7.09664729e-04
7.87500000e-02	2.01481933e-02	7.19447324e-04
7.90000000e-02	1.99703338e-02	7.09932522e-04
7.92500000e-02	2.01568893e-02	7.25698439e-04
7.95000000e-02	2.01054988e-02	7.27194656e-04
7.97500000e-02	2.02093508e-02	7.26376672e-04
8.00000000e-02	2.05692866e-02	7.38240734e-04
8.02500000e-02	1.99295422e-02	7.20580273e-04
8.05000000e-02	2.07496930e-02	7.44485342e-04
8.07500000e-02	2.02251087e-02	7.30611605e-04
8.10000000e-02	1.98591289e-02	7.16559649e-04
8.12500000e-02	2.02203086e-02	7.40368553e-04
8.15000000e-02	2.04084116e-02	7.42304609e-04
8.17500000e-02	2.03684839e-02	7.46834320e-04
8.20000000e-02	2.04463356e-02	7.43146665e-04
8.22500000e-02	1.98710020e-02	7.31675369e-04
8.25000000e-02	1.94861125e-02	7.13971521e-04
8.27500000e-02	2.02865333e-02	7.38281539e-04
8.30000000e-02	2.00619827e-02	7.38308119e-04
8.32500000e-02	2.03394226e-02	7.45580504e-04
8.35000000e-02	2.00200574e-02	7.38144468e-04
8.37500000e-02	2.00099521e-02	7.33871970e-04
8.40000000e-02	2.03730797e-02	7.48308158e-04
8.42500000e-02	2.00469407e-02	7.48476737e-04
8.45000000e-02	2.01061353e-02	7.41762609e-04
8.47500000e-02	1.92157141e-02	7.20070255e-04
8.50000000e-02	2.02589846e-02	7.45896183e-04
8.52500000e-02	2.01739120e-02	7.50724848e-04
8.55000000e-02	1.93957838e-02	7.16846460e-04
8.57500000e-02	1.99571033e-02	7.46219872e-04
8.60000000e-02	2.02995407e-02	7.50680074e-04
8.62500000e-02	1.99171480e-02	7.43110175e-04
8.65000000e-02	1.96600053e-02	7.30358351e-04
8.67500000e-02	1.95765664e-02	7.20886219e-04
8.70000000e-02	2.05119548e-02	7.51459010e-04
8.72500000e-02	2.05220451e-02	7.34365768e-04
8.75000000e-02	1.97462015e-02	7.03676604e-04
8.77500000e-02	1.99088027e-02	6.95865182e-04
8.80000000e-02	1.95194209e-02	6.92985003e-04
8.82500000e-02	2.07576019e-02	7.23998692e-04
8.85000000e-02	2.00550193e-02	7.03921540e-04
8.87500000e-02	1.95770908e-02	6.74948354e-04
8.90000000e-02	2.00393004e-02	6.95115008e-04
8.92500000e-02	2.00577959e-02	6.90414191e-04
8.95000000e-02	2.01380574e-02	6.97127844e-04
8.97500000e-02	2.02803656e-02	6.90740031e-04
9.00000000e-02	2.02960965e-02	6.91005636e-04
9.02500000e-02	2.05580710e-02	6.98426406e-04
9.05000000e-02	1.99199214e-02	6.77358797e-04
9.07500000e-02	1.93822866e-02	6.60250446e-04
9.10000000e-02	1.97182122e-02	6.60992885e-04
9.12500000e-02	2.01438114e-02	6.77075106e-04
9.15000000e-02	1.96483096e-02	6.58852536e-04
9.17500000e-02	2.02865117e-02	6.88369514e-04
9.20000000e-02	1.96863759e-02	6.63709911e-04
9.22500000e-02	2.00576761e-02	6.72191580e-04
9.25000000e-02	2.00857214e-02	6.71161622e-04
9.27500000e-02	1.98190917e-02	6.58052177e-04
9.30000000e-02	2.03154473e-02	6.76953664e-04
9.32500000e-02	1.93673727e-02	6.44972644e-04
9.35000000e-02	1.97191258e-02	6.53204242e-04
9.37500000e-02	1.95815464e-02	6.47549271e-04
9.40000000e-02	1.96352345e-02	6.52729456e-04
9.42500000e-02	1.98742591e-02	6.53325990e-04
9.45000000e-02	1.92694854e-02	6.33949438e-04
9.47500000e-02	2.02080603e-02	6.62167504e-04
9.50000000e-02	2.00677947e-02	6.55158425e-04
9.52500000e-02	2.02624061e-02	6.59754681e-04
9.55000000e-02	1.95370792e-02	6.38850983e-04
9.57500000e-02	1.97956481e-02	6.44377222e-04
9.60000000e-02	2.00037989e-02	6.49185795e-04
9.62500000e-02	1.98585140e-02	6.43464486e-04
9.65000000e-02	2.02070745e-02	6.59839374e-04
9.67500000e-02	1.97477429e-02	6.38307278e-04
9.70000000e-02	1.98585235e-02	6.37796087e-04
9.72500000e-02	1.90985436e-02	6.17943919e-04
9.75000000e-02	2.00535993e-02	6.45876272e-04
9.77500000e-02	1.93121368e-02	6.24750601e-04
9.80000000e-02	1.96717226e-02	6.28812824e-04
9.82500000e-02	1.99591804e-02	6.38488388e-04
9.85000000e-02	2.00135012e-02	6.39882372e-04
9.87500000e-02	1.97263752e-02	6.29993542e-04
9.90000000e-02	1.97164466e-02	6.28044436e-04
9.92500000e-02	2.00352087e-02	6.40538221e-04
9.95000000e-02	2.05162663e-02	6.48289104e-04
9.97500000e-02	1.97334327e-02	6.22708052e-04
1.00000000e-01	1.99516646e-02	5.20148526e-04
1.00500000e-01	1.98548801e-02	4.45847098e-04
1.01000000e-01	1.96452785e-02	4.35968219e-04
1.01500000e-01	1.99801181e-02	4.45520594e-04
1.02000000e-01	1.96469196e-02	4.36454287e-04
1.02500000e-01	1.97892797e-02	4.35600589e-04
1.03000000e-01	1.99910563e-02	4.40448994e-04
1.03500000e-01	1.95729338e-02	4.29476224e-04
1.04000000e-01	1.98660425e-02	4.34241746e-04
1.04500000e-01	1.98774864e-02	4.35600663e-04
1.05000000e-01	1.97797727e-02	4.31663885e-04
1.05500000e-01	1.99358484e-02	4.33120542e-04
1.06000000e-01	1.97982698e-02	4.29234871e-04
1.06500000e-01	2.01069696e-02	4.34982639e-04
1.07000000e-01	1.97488570e-02	4.34534836e-04
1.07500000e-01	1.96581752e-02	4.37180281e-04
1.08000000e-01	1.98043355e-02	4.43974421e-04
1.08500000e-01	1.96900330e-02	4.44973470e-04
1.09000000e-01	1.98929877e-02	4.54596334e-04
1.09500000e-01	1.94543726e-02	4.45295387e-04
1.10000000e-01	2.01276641e-02	4.55521102e-04
1.10500000e-01	1.97455535e-02	4.34721064e-04
1.11000000e-01	1.95293340e-02	4.26358607e-04
1.11500000e-01	2.00352092e-02	4.32007653e-04
1.12000000e-01	1.98400201e-02	4.26149530e-04
1.12500000e-01	1.98568902e-02	4.22815920e-04
1.13000000e-01	1.98459369e-02	4.22010843e-04
1.13500000e-01	2.01140001e-02	4.25656619e-04
1.14000000e-01	1.98225391e-02	4.17893178e-04
1.14500000e-01	1.98999117e-02	4.19210070e-04
1.15000000e-01	1.96225453e-02	4.11894426e-04
1.15500000e-01	1.93319388e-02	4.05703212e-04
1.16000000e-01	1.99811036e-02	4.17995096e-04
1.16500000e-01	1.94254982e-02	4.06726504e-04
1.17000000e-01	2.00659721e-02	4.15607995e-04
1.17500000e-01	1.97345545e-02	4.09424304e-04
1.18000000e-01	1.98961381e-02	4.10475432e-04
1.18500000e-01	1.98935229e-02	4.07206376e-04
1.19000000e-01	1.95413276e-02	4.02055535e-04
1.19500000e-01	1.95436802e-02	4.01006603e-04
1.20000000e-01	1.96307005e-02	4.01569178e-04
1.20500000e-01	1.97315719e-02	4.02681304e-04
1.21000000e-01	2.00312589e-02	4.08711083e-04
1.21500000e-01	1.95028412e-02	3.95660303e-04
1.22000000e-01	1.95835406e-02	3.97894120e-04
1.22500000e-01	1.96098270e-02	3.96403764e-04
1.23000000e-01	1.96851690e-02	3.98077704e-04
1.23500000e-01	1.96614260e-02	3.95591223e-04
1.24000000e-01	1.98831340e-02	3.99370535e-04
1.24500000e-01	1.95642236e-02	3.92785139e-04
1.25000000e-01	1.97352459e-02	3.95173945e-04
1.25500000e-01	1.97282363e-02	3.95418793e-04
1.26000000e-01	1.98574155e-02	3.94439261e-04
1.26500000e-01	1.97521019e-02	3.94549053e-04
1.27000000e-01	1.98205761e-02	3.91610381e-04
1.27500000e-01	1.98091646e-02	3.92205170e-04
1.28000000e-01	1.99821975e-02	3.95336359e-04
1.28500000e-01	1.98098604e-02	3.92040632e-04
1.29000000e-01	1.96310355e-02	3.87369332e-04
1.29500000e-01	1.94708413e-02	3.83513757e-04
1.30000000e-01	1.96765288e-02	3.85683477e-04
1.30500000e-01	1.96078472e-02	3.83420891e-04
1.31000000e-01	1.95776430e-02	3.82476920e-04
1.31500000e-01	1.99487554e-02	3.89139785e-04
1.32000000e-01	1.98473367e-02	3.85600314e-04
1.32500000e-01	1.97766470e-02	3.82428641e-04
1.33000000e-01	1.96133172e-02	3.81134863e-04
1.33500000e-01	1.97947531e-02	3.80488488e-04
1.34000000e-01	1.99081330e-02	3.83398121e-04
1.34500000e-01	1.93751211e-02	3.71073829e-04
1.35000000e-01	1.96924372e-02	3.77084275e-04
1.35500000e-01	1.95000964e-02	3.73520736e-04
1.36000000e-01	1.93776479e-02	3.68811384e-04
1.36500000e-01	1.97025261e-02	3.74427383e-04
1.37000000e-01	1.96335430e-02	3.73520594e-04
1.37500000e-01	1.95692078e-02	3.71698365e-04
1.38000000e-01	1.93202455e-02	3.68453218e-04
1.38500000e-01	1.94038271e-02	3.68579621e-04
1.39000000e-01	1.95906612e-02	3.69645282e-04
1.39500000e-01	1.94430001e-02	3.68040825e-04
1.40000000e-01	1.95346994e-02	3.69463409e-04
1.40500000e-01	1.94211079e-02	3.65641114e-04
1.41000000e-01	1.95756178e-02	3.70165121e-04
1.41500000e-01	1.96863340e-02	3.72872179e-04
1.42000000e-01	1.96744048e-02	3.69184228e-04
1.42500000e-01	1.94304808e-02	3.65037573e-04
1.43000000e-01	1.95331753e-02	3.66851856e-04
1.43500000e-01	1.94289638e-02	3.61920939e-04
1.44000000e-01	1.94284624e-02	3.60925531e-04
1.44500000e-01	1.95381503e-02	3.62813276e-04
1.45000000e-01	1.91829222e-02	3.58239992e-04
1.45500000e-01	1.95692993e-02	3.63680620e-04
1.46000000e-01	1.95023748e-02	3.61757829e-04
1.46500000e-01	1.91159339e-02	3.55543145e-04
1.47000000e-01	1.94049718e-02	3.58040493e-04
1.47500000e-01	1.95322318e-02	3.60944541e-04
1.48000000e-01	1.93068923e-02	3.54728358e-04
1.48500000e-01	1.94952372e-02	3.58637458e-04
1.49000000e-01	1.94589175e-02	3.57628072e-04
1.49500000e-01	1.90907147e-02	3.51207053e-04
1.50000000e-01	1.94983553e-02	3.55750579e-04
1.50500000e-01	1.96087502e-02	3.58806593e-04
1.51000000e-01	1.93811696e-02	3.54879975e-04
1.51500000e-01	1.92833895e-02	3.50356899e-04
1.52000000e-01	1.91961246e-02	3.46944673e-04
1.52500000e-01	1.92945189e-02	3.49399760e-04
1.53000000e-01	1.92547108e-02	3.48383334e-04
1.53500000e-01	1.92602118e-02	3.46674413e-04
1.54000000e-01	1.89079260e-02	3.39299691e-04
1.54500000e-01	1.92825291e-02	3.52239618e-04
1.55000000e-01	1.91529148e-02	3.56021324e-04
1.55500000e-01	1.89221762e-02	3.54883576e-04
1.56000000e-01	1.93652505e-02	3.64166252e-04
1.56500000e-01	1.91230882e-02	3.59373970e-04
1.57000000e-01	1.88978601e-02	3.57562595e-04
1.57500000e-01	1.91512066e-02	3.54430384e-04
1.58000000e-01	1.93956580e-02	3.52116030e-04
1.58500000e-01	1.91477440e-02	3.46332160e-04
1.59000000e-01	1.92560439e-02	3.46371940e-04
1.59500000e-01	1.93361448e-02	3.47275754e-04
1.60000000e-01	1.91685987e-02	3.44973345e-04
1.60500000e-01	1.91668263e-02	3.42659292e-04
1.61000000e-01	1.90162283e-02	3.41536745e-04
1.61500000e-01	1.91922803e-02	3.44072571e-04
1.62000000e-01	1.95269099e-02	3.46928283e-04
1.62500000e-01	1.90298114e-02	3.38323126e-04
1.63000000e-01	1.89818288e-02	3.34691359e-04
1.63500000e-01	1.89217241e-02	3.37826448e-04
1.64000000e-01	1.93508872e-02	3.39980380e-04
1.64500000e-01	1.91363525e-02	3.39038957e-04
1.65000000e-01	1.89800503e-02	3.34075592e-04
1.65500000e-01	1.88603383e-02	3.30869737e-04
1.66000000e-01	1.88087898e-02	3.30696847e-04
1.66500000e-01	1.89056032e-02	3.31225809e-04
1.67000000e-01	1.87780737e-02	3.29007999e-04
1.67500000e-01	1.88368271e-02	3.29600394e-04
1.68000000e-01	1.90529892e-02	3.33629512e-04
1.68500000e-01	1.90429028e-02	3.30906929e-04
1.69000000e-01	1.87913658e-02	3.26922228e-04
1.69500000e-01	1.89603251e-02	3.28145587e-04
1.70000000e-01	1.89546473e-02	3.29448737e-04
1.70500000e-01	1.88984342e-02	3.26647626e-04
1.71000000e-01	1.88316114e-02	3.25686678e-04
1.71500000e-01	1.89427368e-02	3.27163547e-04
1.72000000e-01	1.89842284e-02	3.25406716e-04
1.72500000e-01	1.85607140e-02	3.19562142e-04
1.73000000e-01	1.88978402e-02	3.23826047e-04
1.73500000e-01	1.86852475e-02	3.20926423e-04
1.74000000e-01	1.89780312e-02	3.23918712e-04
1.74500000e-01	1.90849831e-02	3.24012639e-04
1.75000000e-01	1.88965352e-02	3.20450117e-04
1.75500000e-01	1.88957637e-02	3.18814675e-04
1.76000000e-01	1.88725342e-02	3.20141079e-04
1.76500000e-01	1.85968100e-02	3.16469312e-04
1.77000000e-01	1.86239135e-02	3.14814197e-04
1.77500000e-01	1.85897741e-02	3.15449737e-04
1.78000000e-01	1.87930110e-02	3.16470458e-04
1.78500000e-01	1.87292675e-02	3.17564787e-04
1.79000000e-01	1.88046741e-02	3.15956448e-04
1.79500000e-01	1.84320694e-02	3.11846767e-04
1.80000000e-01	1.86942968e-02	3.15842735e-04
1.80500000e-01	1.89986239e-02	3.20017357e-04
1.81000000e-01	1.87778080e-02	3.16931608e-04
1.81500000e-01	1.87887394e-02	3.14156663e-04
1.82000000e-01	1.84278628e-02	3.09654923e-04
1.82500000e-01	1.85500181e-02	3.11360489e-04
1.83000000e-01	1.89237703e-02	3.16398799e-04
1.83500000e-01	1.85721939e-02	3.10525549e-04
1.84000000e-01	1.86623703e-02	3.11118019e-04
1.84500000e-01	1.89721939e-02	3.15093723e-04
1.85000000e-01	1.86715765e-02	3.12082178e-04
1.85500000e-01	1.88200833e-02	3.12075160e-04
1.86000000e-01	1.82253176e-02	3.03136271e-04
1.86500000e-01	1.84967612e-02	3.07690987e-04
1.87000000e-01	1.87418656e-02	3.09759715e-04
1.87500000e-01	1.88319513e-02	3.11535664e-04
1.88000000e-01	1.84801194e-02	3.04980689e-04
1.88500000e-01	1.87473981e-02	3.06722629e-04
1.89000000e-01	1.87003898e-02	3.08379417e-04
1.89500000e-01	1.83732824e-02	3.03275525e-04
1.90000000e-01	1.84695142e-02	3.02172784e-04
1.90500000e-01	1.82068435e-02	2.99764441e-04
1.91000000e-01	1.84666536e-02	3.02229715e-04
1.91500000e-01	1.82681986e-02	2.99049372e-04
1.92000000e-01	1.85043606e-02	3.01812695e-04
1.92500000e-01	1.83166146e-02	2.99903465e-04
1.93000000e-01	1.86845371e-02	3.04713207e-04
1.93500000e-01	1.86459802e-02	3.02561354e-04
1.94000000e-01	1.85159049e-02	3.01380339e-04
1.94500000e-01	1.83389964e-02	2.98316571e-04
1.95000000e-01	1.83740039e-02	2.98298932e-04
1.95500000e-01	1.85130361e-02	2.99210455e-04
1.96000000e-01	1.83732879e-02	2.97574087e-04
1.96500000e-01	1.85230905e-02	2.99517381e-04
1.97000000e-01	1.82296519e-02	2.93951012e-04
1.97500000e-01	1.82133822e-02	2.94442113e-04
1.98000000e-01	1.82671680e-02	2.93788685e-04
1.98500000e-01	1.83261724e-02	2.94770189e-04
1.99000000e-01	1.83552291e-02	2.94118117e-04
1.99500000e-01	1.81602118e-02	2.92306198e-04
2.00000000e-01	1.81613524e-02	2.90573925e-04
2.00500000e-01	1.82208620e-02	2.92606481e-04
2.01000000e-01	1.81500301e-02	2.89604241e-04
2.01500000e-01	1.83282501e-02	2.92306700e-04
2.02000000e-01	1.83533292e-02	2.93223895e-04
2.02500000e-01	1.82248087e-02	2.90037820e-04
2.03000000e-01	1.82028852e-02	2.90350357e-04
2.03500000e-01	1.83832675e-02	2.92103457e-04
2.04000000e-01	1.81194893e-02	2.87449976e-04
2.04500000e-01	1.83239482e-02	2.90700472e-04
2.05000000e-01	1.85628323e-02	2.92841923e-04
2.05500000e-01	1.84591086e-02	2.92969954e-04
2.06000000e-01	1.83484257e-02	2.90150776e-04
2.06500000e-01	1.82630538e-02	2.88163616e-04
2.07000000e-01	1.80469133e-02	2.85155228e-04
2.07500000e-01	1.82348281e-02	2.87156118e-04
2.08000000e-01	1.81615517e-02	2.85842444e-04
2.08500000e-01	1.80991146e-02	2.84678840e-04
2.09000000e-01	1.79686459e-02	2.81505805e-04
2.09500000e-01	1.83383874e-02	2.86842457e-04
2.10000000e-01	1.83052780e-02	2.85454183e-04
2.10500000e-01	1.81579753e-02	2.84525100e-04
2.11000000e-01	1.81606172e-02	2.82765780e-04
2.11500000e-01	1.80976088e-02	2.83489625e-04
2.12000000e-01	1.80364650e-02	2.80628860e-04
2.12500000e-01	1.79286034e-02	2.78790987e-04
2.13000000e-01	1.80300318e-02	2.80305382e-04
2.13500000e-01	1.81051482e-02	2.81432908e-04
2.14000000e-01	1.80660970e-02	2.80634665e-04
2.14500000e-01	1.80995464e-02	2.79026647e-04
2.15000000e-01	1.78105037e-02	2.77268630e-04
2.15500000e-01	1.80539525e-02	2.77317357e-04
2.16000000e-01	1.82015509e-02	2.80723463e-04
2.16500000e-01	1.80309014e-02	2.78836742e-04
2.17000000e-01	1.82038496e-02	2.84250842e-04
2.17500000e-01	1.78825144e-02	2.84239584e-04
2.18000000e-01	1.79241427e-02	2.83995345e-04
2.18500000e-01	1.80985367e-02	2.90638672e-04
2.19000000e-01	1.80336166e-02	2.90205782e-04
2.19500000e-01	1.79236887e-02	2.89318332e-04
2.20000000e-01	1.78290179e-02	2.90120258e-04
2.20500000e-01	1.81166691e-02	2.94145835e-04
2.21000000e-01	1.77926844e-02	2.91756006e-04
2.21500000e-01	1.77779821e-02	2.91059535e-04
2.22000000e-01	1.82195833e-02	2.96496135e-04
2.22500000e-01	1.83668703e-02	3.01294418e-04
2.23000000e-01	1.81182295e-02	2.97095284e-04
2.23500000e-01	1.80009809e-02	2.97699264e-04
2.24000000e-01	1.77888186e-02	2.94460951e-04
2.24500000e-01	1.79990964e-02	2.98544202e-04
2.25000000e-01	1.82058983e-02	3.01617094e-04
2.25500000e-01	1.79517625e-02	2.98612675e-04
2.26000000e-01	1.77875284e-02	2.98081882e-04
2.26500000e-01	1.80927808e-02	2.97663858e-04
2.27000000e-01	1.80629322e-02	2.94190300e-04
2.27500000e-01	1.78045012e-02	2.88777400e-04
2.28000000e-01	1.79487309e-02	2.88704446e-04
2.28500000e-01	1.79571521e-02	2.87280380e-04
2.29000000e-01	1.79018309e-02	2.86206641e-04
2.29500000e-01	1.80145224e-02	2.84407702e-04
2.30000000e-01	1.78081410e-02	2.82048175e-04
2.30500000e-01	1.80298149e-02	2.83467809e-04
2.31000000e-01	1.77112642e-02	2.80418288e-04
2.31500000e-01	1.82171672e-02	2.84709821e-04
2.32000000e-01	1.78379018e-02	2.79586204e-04
2.32500000e-01	1.78632675e-02	2.78991330e-04
2.33000000e-01	1.78014646e-02	2.76794496e-04
2.33500000e-01	1.79728806e-02	2.78649372e-04
2.34000000e-01	1.75883660e-02	2.73493230e-04
2.34500000e-01	1.77053036e-02	2.73970400e-04
2.35000000e-01	1.79063723e-02	2.76668455e-04
2.35500000e-01	1.76390968e-02	2.71129263e-04
2.36000000e-01	1.77833621e-02	2.73503553e-04
2.36500000e-01	1.78277077e-02	2.74471250e-04
2.37000000e-01	1.79805748e-02	2.74407380e-04
2.37500000e-01	1.78621087e-02	2.73567526e-04
2.38000000e-01	1.74238825e-02	2.66948621e-04
2.38500000e-01	1.74823496e-02	2.68047307e-04
2.39000000e-01	1.76323109e-02	2.68288108e-04
2.39500000e-01	1.75878650e-02	2.68198942e-04
2.40000000e-01	1.78009245e-02	2.70612251e-04
2.40500000e-01	1.77796983e-02	2.69415064e-04
2.41000000e-01	1.78031650e-02	2.68845827e-04
2.41500000e-01	1.77175570e-02	2.67785840e-04
2.42000000e-01	1.76567288e-02	2.66691725e-04
2.42500000e-01	1.78233510e-02	2.68174112e-04
2.43000000e-01	1.74247342e-02	2.63134236e-04
2.43500000e-01	1.76207440e-02	2.64067769e-04
2.44000000e-01	1.74594471e-02	2.60583619e-04
2.44500000e-01	1.77942845e-02	2.66997452e-04
2.45000000e-01	1.76749868e-02	2.63784067e-04
2.45500000e-01	1.75539583e-02	2.62924769e-04
2.46000000e-01	1.72893732e-02	2.58752147e-04
2.46500000e-01	1.76151494e-02	2.61697229e-04
2.47000000e-01	1.74613483e-02	2.60469275e-04
2.47500000e-01	1.75554247e-02	2.60092577e-04
2.48000000e-01	1.76260048e-02	2.61170379e-04
2.48500000e-01	1.76064703e-02	2.60641984e-04
2.49000000e-01	1.75863142e-02	2.60732248e-04
2.49500000e-01	1.75842620e-02	2.60410146e-04
2.50000000e-01	1.74433888e-02	2.57633586e-04
2.50500000e-01	1.75001048e-02	2.59150211e-04
2.51000000e-01	1.76170774e-02	2.59154444e-04
2.51500000e-01	1.73757980e-02	2.56124951e-04
2.52000000e-01	1.73668872e-02	2.56511859e-04
2.52500000e-01	1.75401265e-02	2.58378820e-04
2.53000000e-01	1.76563415e-02	2.60515865e-04
2.53500000e-01	1.74472876e-02	2.55984442e-04
2.54000000e-01	1.74493830e-02	2.55430270e-04
2.54500000e-01	1.75154219e-02	2.56929080e-04
2.55000000e-01	1.75255717e-02	2.55975555e-04
2.55500000e-01	1.72701270e-02	2.53088508e-04
2.56000000e-01	1.75153567e-02	2.55393717e-04
2.56500000e-01	1.71254879e-02	2.51451287e-04
2.57000000e-01	1.74301739e-02	2.53927132e-04
2.57500000e-01	1.72874415e-02	2.51997508e-04
2.58000000e-01	1.72874799e-02	2.51573528e-04
2.58500000e-01	1.73119278e-02	2.50826391e-04
2.59000000e-01	1.73115292e-02	2.51872617e-04
2.59500000e-01	1.74024456e-02	2.51012622e-04
2.60000000e-01	1.71720479e-02	2.49091756e-04
2.60500000e-01	1.69020741e-02	2.44781509e-04
2.61000000e-01	1.71936555e-02	2.47695270e-04
2.61500000e-01	1.74645020e-02	2.52094458e-04
2.62000000e-01	1.73509398e-02	2.50766676e-04
2.62500000e-01	1.72494121e-02	2.48827052e-04
2.63000000e-01	1.72314802e-02	2.48447314e-04
2.63500000e-01	1.71701001e-02	2.46662287e-04
2.64000000e-01	1.73344918e-02	2.49221218e-04
2.64500000e-01	1.72824184e-02	2.48567004e-04
2.65000000e-01	1.73804809e-02	2.48038898e-04
2.65500000e-01	1.70597037e-02	2.44199466e-04
2.66000000e-01	1.71726377e-02	2.45180141e-04
2.66500000e-01	1.72474135e-02	2.45257086e-04
2.67000000e-01	1.73223241e-02	2.46923226e-04
2.67500000e-01	1.72105031e-02	2.44669559e-04
2.68000000e-01	1.71262706e-02	2.43196757e-04
2.68500000e-01	1.71856564e-02	2.44273586e-04
2.69000000e-01	1.72546162e-02	2.44187814e-04
2.69500000e-01	1.72465938e-02	2.43637195e-04
2.70000000e-01	1.72723086e-02	2.43840792e-04
2.70500000e-01	1.71080827e-02	2.42366226e-04
2.71000000e-01	1.71915091e-02	2.43030549e-04
2.71500000e-01	1.72933980e-02	2.44043334e-04
2.72000000e-01	1.69863955e-02	2.39373134e-04
2.72500000e-01	1.70237240e-02	2.40415128e-04
2.73000000e-01	1.71934751e-02	2.41046280e-04
2.73500000e-01	1.72174610e-02	2.41434015e-04
2.74000000e-01	1.72110627e-02	2.41235754e-04
2.74500000e-01	1.71374156e-02	2.40748901e-04
2.75000000e-01	1.70907242e-02	2.39120430e-04
2.75500000e-01	1.69666289e-02	2.37214877e-04
2.76000000e-01	1.70546217e-02	2.39117218e-04
2.76500000e-01	1.68757813e-02	2.36684524e-04
2.77000000e-01	1.70274604e-02	2.37602698e-04
2.77500000e-01	1.71567917e-02	2.38863357e-04
2.78000000e-01	1.70584025e-02	2.38862117e-04
2.78500000e-01	1.71965808e-02	2.40252348e-04
2.79000000e-01	1.72313851e-02	2.39770101e-04
2.79500000e-01	1.71502633e-02	2.38784441e-04
2.80000000e-01	1.72242078e-02	2.39146833e-04
2.80500000e-01	1.69618368e-02	2.34802365e-04
2.81000000e-01	1.72041421e-02	2.39236455e-04
2.81500000e-01	1.71253578e-02	2.38177278e-04
2.82000000e-01	1.69977025e-02	2.36313097e-04
2.82500000e-01	1.69485923e-02	2.35756060e-04
2.83000000e-01	1.70228224e-02	2.35330889e-04
2.83500000e-01	1.69087622e-02	2.33826728e-04
2.84000000e-01	1.69932899e-02	2.34683078e-04
2.84500000e-01	1.71268057e-02	2.36024454e-04
2.85000000e-01	1.68529732e-02	2.33075382e-04
2.85500000e-01	1.69010055e-02	2.32915480e-04
2.86000000e-01	1.66841089e-02	2.30276015e-04
2.86500000e-01	1.68972314e-02	2.32259706e-04
2.87000000e-01	1.69475065e-02	2.32633720e-04
2.87500000e-01	1.69828471e-02	2.32526321e-04
2.88000000e-01	1.68851419e-02	2.30268865e-04
2.88500000e-01	1.67566127e-02	2.30650408e-04
2.89000000e-01	1.69657567e-02	2.32423690e-04
2.89500000e-01	1.68187536e-02	2.31103015e-04
2.90000000e-01	1.69274808e-02	2.31802253e-04
2.90500000e-01	1.69066624e-02	2.30381948e-04
2.91000000e-01	1.68041829e-02	2.29418603e-04
2.91500000e-01	1.70644327e-02	2.30777473e-04
2.92000000e-01	1.67121207e-02	2.26789328e-04
2.92500000e-01	1.67486301e-02	2.27165935e-04
2.93000000e-01	1.70595242e-02	2.31343794e-04
2.93500000e-01	1.69471106e-02	2.29589057e-04
2.94000000e-01	1.68753708e-02	2.28265672e-04
2.94500000e-01	1.68187708e-02	2.28068571e-04
2.95000000e-01	1.67766233e-02	2.26112626e-04
2.95500000e-01	1.67745295e-02	2.27417482e-04
2.96000000e-01	1.67365610e-02	2.26323147e-04
2.96500000e-01	1.67130783e-02	2.25018895e-04
2.97000000e-01	1.66827773e-02	2.25160804e-04
2.97500000e-01	1.66891106e-02	2.24832534e-04
2.98000000e-01	1.66432844e-02	2.24726001e-04
2.98500000e-01	1.67163587e-02	2.25912906e-04
2.99000000e-01	1.68342429e-02	2.26177718e-04
2.99500000e-01	1.68169747e-02	2.26407970e-04
3.00000000e-01	1.66390765e-02	2.23949383e-04
3.00500000e-01	1.68106715e-02	2.25967231e-04
3.01000000e-01	1.67881536e-02	2.24486390e-04
3.01500000e-01	1.68035626e-02	2.25166909e-04
3.02000000e-01	1.68142837e-02	2.25098697e-04
3.02500000e-01	1.67626005e-02	2.23414438e-04
3.03000000e-01	1.68366234e-02	2.23971132e-04
3.03500000e-01	1.67195815e-02	2.23535466e-04
3.04000000e-01	1.66606816e-02	2.22518116e-04
3.04500000e-01	1.67386916e-02	2.22586643e-04
3.05000000e-01	1.65320967e-02	2.20849912e-04
3.05500000e-01	1.64492267e-02	2.19656767e-04
3.06000000e-01	1.68290052e-02	2.22753541e-04
3.06500000e-01	1.67090485e-02	2.22071574e-04
3.07000000e-01	1.66715486e-02	2.20251216e-04
3.07500000e-01	1.68486166e-02	2.22823240e-04
3.08000000e-01	1.65845523e-02	2.19716230e-04
3.08500000e-01	1.65616562e-02	2.19872336e-04
3.09000000e-01	1.65742004e-02	2.19395761e-04
3.09500000e-01	1.66684584e-02	2.19398068e-04
3.10000000e-01	1.66279242e-02	2.19487374e-04
3.10500000e-01	1.65579664e-02	2.19073751e-04
3.11000000e-01	1.66614279e-02	2.19564571e-04
3.11500000e-01	1.64894579e-02	2.17991856e-04
3.12000000e-01	1.66972404e-02	2.19541304e-04
3.12500000e-01	1.64032349e-02	2.15955184e-04
3.13000000e-01	1.66011475e-02	2.17449929e-04
3.13500000e-01	1.64874157e-02	2.17065694e-04
3.14000000e-01	1.64534074e-02	2.16299974e-04
3.14500000e-01	1.66428830e-02	2.18115444e-04
3.15000000e-01	1.67145679e-02	2.18641604e-04
3.15500000e-01	1.65389595e-02	2.17043064e-04
3.16000000e-01	1.62999945e-02	2.13962345e-04
3.16500000e-01	1.64993238e-02	2.15310691e-04
3.17000000e-01	1.64243309e-02	2.14780291e-04
3.17500000e-01	1.64936659e-02	2.15234569e-04
3.18000000e-01	1.62945541e-02	2.12888700e-04
3.18500000e-01	1.65289829e-02	2.15922219e-04
3.19000000e-01	1.64521164e-02	2.14178325e-04
3.19500000e-01	1.65656597e-02	2.14434164e-04
3.20000000e-01	1.61705970e-02	2.11382994e-04
3.20500000e-01	1.62879688e-02	2.11544384e-04
3.21000000e-01	1.62537532e-02	2.12333606e-04
3.21500000e-01	1.64249957e-02	2.13229300e-04
3.22000000e-01	1.61320772e-02	2.09820981e-04
3.22500000e-01	1.62166246e-02	2.11209300e-04
3.23000000e-01	1.63495435e-02	2.11724406e-04
3.23500000e-01	1.62104631e-02	2.10147896e-04
3.24000000e-01	1.63888660e-02	2.11833789e-04
3.24500000e-01	1.62268506e-02	2.10953161e-04
3.25000000e-01	1.62555579e-02	2.09444152e-04
3.25500000e-01	1.62579790e-02	2.10305564e-04
3.26000000e-01	1.63230050e-02	2.11117298e-04
3.26500000e-01	1.61624781e-02	2.08234386e-04
3.27000000e-01	1.63974364e-02	2.11552567e-04
3.27500000e-01	1.63689761e-02	2.10591942e-04
3.28000000e-01	1.61631966e-02	2.08314516e-04
3.28500000e-01	1.63436639e-02	2.09846296e-04
3.29000000e-01	1.59782866e-02	2.05090531e-04
3.29500000e-01	1.63941867e-02	2.10976220e-04
3.30000000e-01	1.61336559e-02	2.06794054e-04
3.30500000e-01	1.62804074e-02	2.08675742e-04
3.31000000e-01	1.60184020e-02	2.04838354e-04
3.31500000e-01	1.60230086e-02	2.05185925e-04
3.32000000e-01	1.62910488e-02	2.08789633e-04
3.32500000e-01	1.60479161e-02	2.05100760e-04
3.33000000e-01	1.60827097e-02	2.05444537e-04
3.33500000e-01	1.62380218e-02	2.07170527e-04
3.34000000e-01	1.61808315e-02	2.05880123e-04
3.34500000e-01	1.60565326e-02	2.04721489e-04
3.35000000e-01	1.61319207e-02	2.04435825e-04
3.35500000e-01	1.61497949e-02	2.05604759e-04
3.36000000e-01	1.60915331e-02	2.05130494e-04
3.36500000e-01	1.61448255e-02	2.05283798e-04
3.37000000e-01	1.62766823e-02	2.05905179e-04
3.37500000e-01	1.61110585e-02	2.04493851e-04
3.38000000e-01	1.61083957e-02	2.04470733e-04
3.38500000e-01	1.60377410e-02	2.02832104e-04
3.39000000e-01	1.60798837e-02	2.03792706e-04
3.39500000e-01	1.59375363e-02	2.00943154e-04
3.40000000e-01	1.61369010e-02	2.04486074e-04
3.40500000e-01	1.58976547e-02	2.01189517e-04
3.41000000e-01	1.59674390e-02	2.01742918e-04
3.41500000e-01	1.59782005e-02	2.02000980e-04
3.42000000e-01	1.59442861e-02	2.00944729e-04
3.42500000e-01	1.58239292e-02	2.00695708e-04
3.43000000e-01	1.59494307e-02	2.00391160e-04
3.43500000e-01	1.60579820e-02	2.01660883e-04
3.44000000e-01	1.60712595e-02	2.02405464e-04
3.44500000e-01	1.59739547e-02	2.00446861e-04
3.45000000e-01	1.59676786e-02	2.01001041e-04
3.45500000e-01	1.58411932e-02	1.98767038e-04
3.46000000e-01	1.58048198e-02	1.98618589e-04
3.46500000e-01	1.59889956e-02	1.99876613e-04
3.47000000e-01	1.58353924e-02	1.98531046e-04
3.47500000e-01	1.59844490e-02	2.00365774e-04
3.48000000e-01	1.59277618e-02	2.00074589e-04
3.48500000e-01	1.58533505e-02	1.98572938e-04
3.49000000e-01	1.58907756e-02	1.98816646e-04
3.49500000e-01	1.56834324e-02	1.95933040e-04
3.50000000e-01	1.58655282e-02	1.61479247e-04
3.51000000e-01	1.57927290e-02	1.39406252e-04
3.52000000e-01	1.58736919e-02	1.39428233e-04
3.53000000e-01	1.59028460e-02	1.39229599e-04
3.54000000e-01	1.58300161e-02	1.38520845e-04
3.55000000e-01	1.58820782e-02	1.39039418e-04
3.56000000e-01	1.57488172e-02	1.38805542e-04
3.57000000e-01	1.57407688e-02	1.40747827e-04
3.58000000e-01	1.55744886e-02	1.41156680e-04
3.59000000e-01	1.57074600e-02	1.43061354e-04
3.60000000e-01	1.55683800e-02	1.42504044e-04
3.61000000e-01	1.56492534e-02	1.44146513e-04
3.62000000e-01	1.55492307e-02	1.44138109e-04
3.63000000e-01	1.56043453e-02	1.44921137e-04
3.64000000e-01	1.57095806e-02	1.46005742e-04
3.65000000e-01	1.54819558e-02	1.44855912e-04
3.66000000e-01	1.55959922e-02	1.44048302e-04
3.67000000e-01	1.55407410e-02	1.41631158e-04
3.68000000e-01	1.56202378e-02	1.41012388e-04
3.69000000e-01	1.54230279e-02	1.38829329e-04
3.70000000e-01	1.54961165e-02	1.38843288e-04
3.71000000e-01	1.55848250e-02	1.41158491e-04
3.72000000e-01	1.55466211e-02	1.41837161e-04
3.73000000e-01	1.54350275e-02	1.41233875e-04
3.74000000e-01	1.54883082e-02	1.41716059e-04
3.75000000e-01	1.55478262e-02	1.42090491e-04
3.76000000e-01	1.55764370e-02	1.42261840e-04
3.77000000e-01	1.54552377e-02	1.41541333e-04
3.78000000e-01	1.53918915e-02	1.41045940e-04
3.79000000e-01	1.55100116e-02	1.42299611e-04
3.80000000e-01	1.55879271e-02	1.42129428e-04
3.81000000e-01	1.53841221e-02	1.40606443e-04
3.82000000e-01	1.54283529e-02	1.40816528e-04
3.83000000e-01	1.53678957e-02	1.40577925e-04
3.84000000e-01	1.52782445e-02	1.39698478e-04
3.85000000e-01	1.54272866e-02	1.41008425e-04
3.86000000e-01	1.53331796e-02	1.39951217e-04
3.87000000e-01	1.53007053e-02	1.39700264e-04
3.88000000e-01	1.53984562e-02	1.40532040e-04
3.89000000e-01	1.53201856e-02	1.40006775e-04
3.90000000e-01	1.53522415e-02	1.40375306e-04
3.91000000e-01	1.52883045e-02	1.39511073e-04
3.92000000e-01	1.52380839e-02	1.38994156e-04
3.93000000e-01	1.51949211e-02	1.38467120e-04
3.94000000e-01	1.51904082e-02	1.38310761e-04
3.95000000e-01	1.51017446e-02	1.37507163e-04
3.96000000e-01	1.52604443e-02	1.39418526e-04
3.97000000e-01	1.51047529e-02	1.37717339e-04
3.98000000e-01	1.51514912e-02	1.37733610e-04
3.99000000e-01	1.53070571e-02	1.39403011e-04
4.00000000e-01	1.51127578e-02	1.38042735e-04
4.01000000e-01	1.51479150e-02	1.37590538e-04
4.02000000e-01	1.52115686e-02	1.38523504e-04
4.03000000e-01	1.50530034e-02	1.36984995e-04
4.04000000e-01	1.50105591e-02	1.36761201e-04
4.05000000e-01	1.49561679e-02	1.36715254e-04
4.06000000e-01	1.50463013e-02	1.37000697e-04
4.07000000e-01	1.49852187e-02	1.36113112e-04
4.08000000e-01	1.49502273e-02	1.36108649e-04
4.09000000e-01	1.49677040e-02	1.35985597e-04
4.10000000e-01	1.50256196e-02	1.36559149e-04
4.11000000e-01	1.48937174e-02	1.35612689e-04
4.12000000e-01	1.49092795e-02	1.35727286e-04
4.13000000e-01	1.48572952e-02	1.35159221e-04
4.14000000e-01	1.50351223e-02	1.36477917e-04
4.15000000e-01	1.49486407e-02	1.35366552e-04
4.16000000e-01	1.48361066e-02	1.34931801e-04
4.17000000e-01	1.50261004e-02	1.36261244e-04
4.18000000e-01	1.50206948e-02	1.37243313e-04
4.19000000e-01	1.48818619e-02	1.38574677e-04
4.20000000e-01	1.51043815e-02	1.40648158e-04
4.21000000e-01	1.51305038e-02	1.41317175e-04
4.22000000e-01	1.48797308e-02	1.40299170e-04
4.23000000e-01	1.51550298e-02	1.42545644e-04
4.24000000e-01	1.50287827e-02	1.42191614e-04
4.25000000e-01	1.50387483e-02	1.42245812e-04
4.26000000e-01	1.50658135e-02	1.42554247e-04
4.27000000e-01	1.49796182e-02	1.41826835e-04
4.28000000e-01	1.50316899e-02	1.42429589e-04
4.29000000e-01	1.50275555e-02	1.42690317e-04
4.30000000e-01	1.48101195e-02	1.40850385e-04
4.31000000e-01	1.49761287e-02	1.41813222e-04
4.32000000e-01	1.48462237e-02	1.41476233e-04
4.33000000e-01	1.49563521e-02	1.42240971e-04
4.34000000e-01	1.49838124e-02	1.42230399e-04
4.35000000e-01	1.46729724e-02	1.40346699e-04
4.36000000e-01	1.48662887e-02	1.42059188e-04
4.37000000e-01	1.47001225e-02	1.40916997e-04
4.38000000e-01	1.47577889e-02	1.41458944e-04
4.39000000e-01	1.48640431e-02	1.42595192e-04
4.40000000e-01	1.48864815e-02	1.42741641e-04
4.41000000e-01	1.47802494e-02	1.42003319e-04
4.42000000e-01	1.47128631e-02	1.41720312e-04
4.43000000e-01	1.48401685e-02	1.42756414e-04
4.44000000e-01	1.47203670e-02	1.41804082e-04
4.45000000e-01	1.47497473e-02	1.42372164e-04
4.46000000e-01	1.47999967e-02	1.42664361e-04
4.47000000e-01	1.47855273e-02	1.43345922e-04
4.48000000e-01	1.47686257e-02	1.42742178e-04
4.49000000e-01	1.48416468e-02	1.43989756e-04
4.50000000e-01	1.46242500e-02	1.42224317e-04
4.51000000e-01	1.46089199e-02	1.41485603e-04
4.52000000e-01	1.48593465e-02	1.44330946e-04
4.53000000e-01	1.45579019e-02	1.41492751e-04
4.54000000e-01	1.46108416e-02	1.42430884e-04
4.55000000e-01	1.45841506e-02	1.42572186e-04
4.56000000e-01	1.45930557e-02	1.42295449e-04
4.57000000e-01	1.47304345e-02	1.43763613e-04
4.58000000e-01	1.47144370e-02	1.43953261e-04
4.59000000e-01	1.46270036e-02	1.42885679e-04
4.60000000e-01	1.46181267e-02	1.43253876e-04
4.61000000e-01	1.45420586e-02	1.42521857e-04
4.62000000e-01	1.46231341e-02	1.43028636e-04
4.63000000e-01	1.47556533e-02	1.44992228e-04
4.64000000e-01	1.45932727e-02	1.43372403e-04
4.65000000e-01	1.46397197e-02	1.43881306e-04
4.66000000e-01	1.44994368e-02	1.42391077e-04
4.67000000e-01	1.46799998e-02	1.44800583e-04
4.68000000e-01	1.44454724e-02	1.42313461e-04
4.69000000e-01	1.44822052e-02	1.42978925e-04
4.70000000e-01	1.44345295e-02	1.42624571e-04
4.71000000e-01	1.45368053e-02	1.43421316e-04
4.72000000e-01	1.44291412e-02	1.42575614e-04
4.73000000e-01	1.44419951e-02	1.42703156e-04
4.74000000e-01	1.43061129e-02	1.41261474e-04
4.75000000e-01	1.45294275e-02	1.43111868e-04
4.76000000e-01	1.44049188e-02	1.41606626e-04
4.77000000e-01	1.45718134e-02	1.43426922e-04
4.78000000e-01	1.44798464e-02	1.43190860e-04
4.79000000e-01	1.43702633e-02	1.42080182e-04
4.80000000e-01	1.44579573e-02	1.42518071e-04
4.81000000e-01	1.44516502e-02	1.42960476e-04
4.82000000e-01	1.44685284e-02	1.42734840e-04
4.83000000e-01	1.44899947e-02	1.43371745e-04
4.84000000e-01	1.43505036e-02	1.42156917e-04
4.85000000e-01	1.44642788e-02	1.42934545e-04
4.86000000e-01	1.43825934e-02	1.42931330e-04
4.87000000e-01	1.42637204e-02	1.41686151e-04
4.88000000e-01	1.44537943e-02	1.43188013e-04
4.89000000e-01	1.43977231e-02	1.42427369e-04
4.90000000e-01	1.44075705e-02	1.43168800e-04
4.91000000e-01	1.44995883e-02	1.43811834e-04
4.92000000e-01	1.42986041e-02	1.42290271e-04
4.93000000e-01	1.43846680e-02	1.42850511e-04
4.94000000e-01	1.43012610e-02	1.42396580e-04
4.95000000e-01	1.43403958e-02	1.43345292e-04
4.96000000e-01	1.42707799e-02	1.47447380e-04
4.97000000e-01	1.42700484e-02	1.49719230e-04
4.98000000e-01	1.43601572e-02	1.52733353e-04
4.99000000e-01	1.42626846e-02	1.53704287e-04
5.00000000e-01	1.41576506e-02	1.54624628e-04
5.01000000e-01	1.44596550e-02	1.59115103e-04
5.02000000e-01	1.43795781e-02	1.59882671e-04
5.03000000e-01	1.43081871e-02	1.60639542e-04
5.04000000e-01	1.43572804e-02	1.62181091e-04
5.05000000e-01	1.42824168e-02	1.58735097e-04
5.06000000e-01	1.42029953e-02	1.55212982e-04
5.07000000e-01	1.43153289e-02	1.54204908e-04
5.08000000e-01	1.42191452e-02	1.52916310e-04
5.09000000e-01	1.43729282e-02	1.52790879e-04
5.10000000e-01	1.42465255e-02	1.51448366e-04
5.11000000e-01	1.42402870e-02	1.50435271e-04
5.12000000e-01	1.41756621e-02	1.49788741e-04
5.13000000e-01	1.41840723e-02	1.49963293e-04
5.14000000e-01	1.43527608e-02	1.50812244e-04
5.15000000e-01	1.42434478e-02	1.49459685e-04
5.16000000e-01	1.41181515e-02	1.48068730e-04
5.17000000e-01	1.41051837e-02	1.48111973e-04
5.18000000e-01	1.41058710e-02	1.47886103e-04
5.19000000e-01	1.40268583e-02	1.46461392e-04
5.20000000e-01	1.41319988e-02	1.46924413e-04
5.21000000e-01	1.40365834e-02	1.46334009e-04
5.22000000e-01	1.40489299e-02	1.45987751e-04
5.23000000e-01	1.39857587e-02	1.45444691e-04
5.24000000e-01	1.40408486e-02	1.46033563e-04
5.25000000e-01	1.40804916e-02	1.46126638e-04
5.26000000e-01	1.40959133e-02	1.46665533e-04
5.27000000e-01	1.41810419e-02	1.47017607e-04
5.28000000e-01	1.39993340e-02	1.45357056e-04
5.29000000e-01	1.39005786e-02	1.44703670e-04
5.30000000e-01	1.40710318e-02	1.46683753e-04
5.31000000e-01	1.39768479e-02	1.45528740e-04
5.32000000e-01	1.39765310e-02	1.45638900e-04
5.33000000e-01	1.39767846e-02	1.45320780e-04
5.34000000e-01	1.39816487e-02	1.45032231e-04
5.35000000e-01	1.40608130e-02	1.45905409e-04
5.36000000e-01	1.39008818e-02	1.44308446e-04
5.37000000e-01	1.38834187e-02	1.44344732e-04
5.38000000e-01	1.38940176e-02	1.44187317e-04
5.39000000e-01	1.37617514e-02	1.43171389e-04
5.40000000e-01	1.39791704e-02	1.45423270e-04
5.41000000e-01	1.39434397e-02	1.44685295e-04
5.42000000e-01	1.38144265e-02	1.43543994e-04
5.43000000e-01	1.37445569e-02	1.42763485e-04
5.44000000e-01	1.39412753e-02	1.45077430e-04
5.45000000e-01	1.39288194e-02	1.44624339e-04
5.46000000e-01	1.37975474e-02	1.43023327e-04
5.47000000e-01	1.37650427e-02	1.43204313e-04
5.48000000e-01	1.39113800e-02	1.44295611e-04
5.49000000e-01	1.38986898e-02	1.44162700e-04
5.50000000e-01	1.39089009e-02	1.44488992e-04
5.51000000e-01	1.37297909e-02	1.42289471e-04
5.52000000e-01	1.39667825e-02	1.44101936e-04
5.53000000e-01	1.37242181e-02	1.41860928e-04
5.54000000e-01	1.37186802e-02	1.41793343e-04
5.55000000e-01	1.35928815e-02	1.40516212e-04
5.56000000e-01	1.35555521e-02	1.40149497e-04
5.57000000e-01	1.37595328e-02	1.42228578e-04
5.58000000e-01	1.38042652e-02	1.42305580e-04
5.59000000e-01	1.36091084e-02	1.40614972e-04
5.60000000e-01	1.37861772e-02	1.42462313e-04
5.61000000e-01	1.37892652e-02	1.42351141e-04
5.62000000e-01	1.36284144e-02	1.40999509e-04
5.63000000e-01	1.35585535e-02	1.40202721e-04
5.64000000e-01	1.35845272e-02	1.40762322e-04
5.65000000e-01	1.35740157e-02	1.40550014e-04
5.66000000e-01	1.36685057e-02	1.41448985e-04
5.67000000e-01	1.35419173e-02	1.40248434e-04
5.68000000e-01	1.36420745e-02	1.41487251e-04
5.69000000e-01	1.36543689e-02	1.40737138e-04
5.70000000e-01	1.36271171e-02	1.40026350e-04
5.71000000e-01	1.36172799e-02	1.40636139e-04
5.72000000e-01	1.34937983e-02	1.39620646e-04
5.73000000e-01	1.36307448e-02	1.41458935e-04
5.74000000e-01	1.34624943e-02	1.39405383e-04
5.75000000e-01	1.35696551e-02	1.40310116e-04
5.76000000e-01	1.35743820e-02	1.39898053e-04
5.77000000e-01	1.36261289e-02	1.41239674e-04
5.78000000e-01	1.34697973e-02	1.39596874e-04
5.79000000e-01	1.33842798e-02	1.39051882e-04
5.80000000e-01	1.33754341e-02	1.38403825e-04
5.81000000e-01	1.34771540e-02	1.39676404e-04
5.82000000e-01	1.35481082e-02	1.40397532e-04
5.83000000e-01	1.34474619e-02	1.39229867e-04
5.84000000e-01	1.33363275e-02	1.39028240e-04
5.85000000e-01	1.35804465e-02	1.40776272e-04
5.86000000e-01	1.34377009e-02	1.39775857e-04
5.87000000e-01	1.34564151e-02	1.39344417e-04
5.88000000e-01	1.35220426e-02	1.40333861e-04
5.89000000e-01	1.33359899e-02	1.38605725e-04
5.90000000e-01	1.32673698e-02	1.37689241e-04
5.91000000e-01	1.32853379e-02	1.38414437e-04
5.92000000e-01	1.32897655e-02	1.38532296e-04
5.93000000e-01	1.33213043e-02	1.38316243e-04
5.94000000e-01	1.32572242e-02	1.37791255e-04
5.95000000e-01	1.33883760e-02	1.39433569e-04
5.96000000e-01	1.33715538e-02	1.39159312e-04
5.97000000e-01	1.33381683e-02	1.38690086e-04
5.98000000e-01	1.33868791e-02	1.39802648e-04
5.99000000e-01	1.32914493e-02	1.38192724e-04
6.00000000e-01	1.33109457e-02	1.37918248e-04
6.01000000e-01	1.31053892e-02	1.37179441e-04
6.02000000e-01	1.32000829e-02	1.37875221e-04
6.03000000e-01	1.31447595e-02	1.37042601e-04
6.04000000e-01	1.33539321e-02	1.38898622e-04
6.05000000e-01	1.32504952e-02	1.38131275e-04
6.06000000e-01	1.31877443e-02	1.36940511e-04
6.07000000e-01	1.31725005e-02	1.37656577e-04
6.08000000e-01	1.32486622e-02	1.38322958e-04
6.09000000e-01	1.33048133e-02	1.38385537e-04
6.10000000e-01	1.31213949e-02	1.37206007e-04
6.11000000e-01	1.31752540e-02	1.37445459e-04
6.12000000e-01	1.32151713e-02	1.38026717e-04
6.13000000e-01	1.33020827e-02	1.38561236e-04
6.14000000e-01	1.32651109e-02	1.38431382e-04
6.15000000e-01	1.30690289e-02	1.36650281e-04
6.16000000e-01	1.32096257e-02	1.38352651e-04
6.17000000e-01	1.31308208e-02	1.36798880e-04
6.18000000e-01	1.31985426e-02	1.37975105e-04
6.19000000e-01	1.30856213e-02	1.36468503e-04
6.20000000e-01	1.30927336e-02	1.36060382e-04
6.21000000e-01	1.30080677e-02	1.35648559e-04
6.22000000e-01	1.31954542e-02	1.37451099e-04
6.23000000e-01	1.31167726e-02	1.36147729e-04
6.24000000e-01	1.29602786e-02	1.34774175e-04
6.25000000e-01	1.31196349e-02	1.35939913e-04
6.26000000e-01	1.29416659e-02	1.34168548e-04
6.27000000e-01	1.30637815e-02	1.35338414e-04
6.28000000e-01	1.30322167e-02	1.35342914e-04
6.29000000e-01	1.29497608e-02	1.34969375e-04
6.30000000e-01	1.30254599e-02	1.35437872e-04
6.31000000e-01	1.29593245e-02	1.34253972e-04
6.32000000e-01	1.29527965e-02	1.34103334e-04
6.33000000e-01	1.29698102e-02	1.34804665e-04
6.34000000e-01	1.30712099e-02	1.38997115e-04
6.35000000e-01	1.30768069e-02	1.43206960e-04
6.36000000e-01	1.31265973e-02	1.46235404e-04
6.37000000e-01	1.29539101e-02	1.46589039e-04
6.38000000e-01	1.31053330e-02	1.49930017e-04
6.39000000e-01	1.29608057e-02	1.50973607e-04
6.40000000e-01	1.29517677e-02	1.52140029e-04
6.41000000e-01	1.29365366e-02	1.53901708e-04
6.42000000e-01	1.29885146e-02	1.56255356e-04
6.43000000e-01	1.29559161e-02	1.55664424e-04
6.44000000e-01	1.30545704e-02	1.50815229e-04
6.45000000e-01	1.30557032e-02	1.48441599e-04
6.46000000e-01	1.31063296e-02	1.48080041e-04
6.47000000e-01	1.31362067e-02	1.47098486e-04
6.48000000e-01	1.30721521e-02	1.45364866e-04
6.49000000e-01	1.29682743e-02	1.44022817e-04
6.50000000e-01	1.30711896e-02	1.44218391e-04
6.51000000e-01	1.30488176e-02	1.43819898e-04
6.52000000e-01	1.30864435e-02	1.43324434e-04
6.53000000e-01	1.30796825e-02	1.42872195e-04
6.54000000e-01	1.29736944e-02	1.41420641e-04
6.55000000e-01	1.31531720e-02	1.42821853e-04
6.56000000e-01	1.30381968e-02	1.41986385e-04
6.57000000e-01	1.30083939e-02	1.40186537e-04
6.58000000e-01	1.29459220e-02	1.40352622e-04
6.59000000e-01	1.28647811e-02	1.39234945e-04
6.60000000e-01	1.30407250e-02	1.40972837e-04
6.61000000e-01	1.28480466e-02	1.39247558e-04
6.62000000e-01	1.31230450e-02	1.41536632e-04
6.63000000e-01	1.30881339e-02	1.40983496e-04
6.64000000e-01	1.27608158e-02	1.37992253e-04
6.65000000e-01	1.29495895e-02	1.40037046e-04
6.66000000e-01	1.28969763e-02	1.38999521e-04
6.67000000e-01	1.29296821e-02	1.39376418e-04
6.68000000e-01	1.29377504e-02	1.39669021e-04
6.69000000e-01	1.28426359e-02	1.38877718e-04
6.70000000e-01	1.29103265e-02	1.38601800e-04
6.71000000e-01	1.28733789e-02	1.38545572e-04
6.72000000e-01	1.29224550e-02	1.39003915e-04
6.73000000e-01	1.26988610e-02	1.36685332e-04
6.74000000e-01	1.28143012e-02	1.37893713e-04
6.75000000e-01	1.28205568e-02	1.37839859e-04
6.76000000e-01	1.28117405e-02	1.37672827e-04
6.77000000e-01	1.28577186e-02	1.38097248e-04
6.78000000e-01	1.27010085e-02	1.36761381e-04
6.79000000e-01	1.26804347e-02	1.36334535e-04
6.80000000e-01	1.27083968e-02	1.36783203e-04
6.81000000e-01	1.27487693e-02	1.36813928e-04
6.82000000e-01	1.27165418e-02	1.36892274e-04
6.83000000e-01	1.27690802e-02	1.37058501e-04
6.84000000e-01	1.28025440e-02	1.37306705e-04
6.85000000e-01	1.26376199e-02	1.35440430e-04
6.86000000e-01	1.26365036e-02	1.36127382e-04
6.87000000e-01	1.27664459e-02	1.36612652e-04
6.88000000e-01	1.26779883e-02	1.35898012e-04
6.89000000e-01	1.26721061e-02	1.36478176e-04
6.90000000e-01	1.27608805e-02	1.36977492e-04
6.91000000e-01	1.27229755e-02	1.36628401e-04
6.92000000e-01	1.26639779e-02	1.35924355e-04
6.93000000e-01	1.27102296e-02	1.36529954e-04
6.94000000e-01	1.26162304e-02	1.34843894e-04
6.95000000e-01	1.26107177e-02	1.35182712e-04
6.96000000e-01	1.27213177e-02	1.35954017e-04
6.97000000e-01	1.26668362e-02	1.35818489e-04
6.98000000e-01	1.26951842e-02	1.36268524e-04
6.99000000e-01	1.27140925e-02	1.36322420e-04
7.00000000e-01	1.26410205e-02	1.35247153e-04
7.01000000e-01	1.25148623e-02	1.34130400e-04
7.02000000e-01	1.26621590e-02	1.35898780e-04
7.03000000e-01	1.27854839e-02	1.36679707e-04
7.04000000e-01	1.25752264e-02	1.35295078e-04
7.05000000e-01	1.24598671e-02	1.33710714e-04
7.06000000e-01	1.25702773e-02	1.34574531e-04
7.07000000e-01	1.25337148e-02	1.33960602e-04
7.08000000e-01	1.24305516e-02	1.32460360e-04
7.09000000e-01	1.24229772e-02	1.32821264e-04
7.10000000e-01	1.23374903e-02	1.32379128e-04
7.11000000e-01	1.26256416e-02	1.35288828e-04
7.12000000e-01	1.24486757e-02	1.32934036e-04
7.13000000e-01	1.25178567e-02	1.34115194e-04
7.14000000e-01	1.25359955e-02	1.33498166e-04
7.15000000e-01	1.25299588e-02	1.33903778e-04
7.16000000e-01	1.23300317e-02	1.32177431e-04
7.17000000e-01	1.24705873e-02	1.33262146e-04
7.18000000e-01	1.24291357e-02	1.32722109e-04
7.19000000e-01	1.22719394e-02	1.31384811e-04
7.20000000e-01	1.22894177e-02	1.31879858e-04
7.21000000e-01	1.23822746e-02	1.33248994e-04
7.22000000e-01	1.23529283e-02	1.32450358e-04
7.23000000e-01	1.23515347e-02	1.32448255e-04
7.24000000e-01	1.23077036e-02	1.32159080e-04
7.25000000e-01	1.22957814e-02	1.31907333e-04
7.26000000e-01	1.23456144e-02	1.32336138e-04
7.27000000e-01	1.23832517e-02	1.32528812e-04
7.28000000e-01	1.22272386e-02	1.31378182e-04
7.29000000e-01	1.22934488e-02	1.32162355e-04
7.30000000e-01	1.23753590e-02	1.32748296e-04
7.31000000e-01	1.22355005e-02	1.31038005e-04
7.32000000e-01	1.22401077e-02	1.31540791e-04
7.33000000e-01	1.21933929e-02	1.31147411e-04
7.34000000e-01	1.22299926e-02	1.31184178e-04
7.35000000e-01	1.22387126e-02	1.30681490e-04
7.36000000e-01	1.21547358e-02	1.30008229e-04
7.37000000e-01	1.19883992e-02	1.28417681e-04
7.38000000e-01	1.21909942e-02	1.30216958e-04
7.39000000e-01	1.21701918e-02	1.29618753e-04
7.40000000e-01	1.20804151e-02	1.28314321e-04
7.41000000e-01	1.21233054e-02	1.29285147e-04
7.42000000e-01	1.21601787e-02	1.28918573e-04
7.43000000e-01	1.21806915e-02	1.29415241e-04
7.44000000e-01	1.21452698e-02	1.29070350e-04
7.45000000e-01	1.21320778e-02	1.28852302e-04
7.46000000e-01	1.22170535e-02	1.29986647e-04
7.47000000e-01	1.21472701e-02	1.28528408e-04
7.48000000e-01	1.21331695e-02	1.28877561e-04
7.49000000e-01	1.20997317e-02	1.28624198e-04
7.50000000e-01	1.19987697e-02	1.27798731e-04
7.51000000e-01	1.21647501e-02	1.28845976e-04
7.52000000e-01	1.20494219e-02	1.27924239e-04
7.53000000e-01	1.20296463e-02	1.28021554e-04
7.54000000e-01	1.21724154e-02	1.29297990e-04
7.55000000e-01	1.20628304e-02	1.28329749e-04
7.56000000e-01	1.19603860e-02	1.27393673e-04
7.57000000e-01	1.20312991e-02	1.27439872e-04
7.58000000e-01	1.19124452e-02	1.26916866e-04
7.59000000e-01	1.20452048e-02	1.27601410e-04
7.60000000e-01	1.20264103e-02	1.27229872e-04
7.61000000e-01	1.19831294e-02	1.26839365e-04
7.62000000e-01	1.19706995e-02	1.27149556e-04
7.63000000e-01	1.18654908e-02	1.25591719e-04
7.64000000e-01	1.17799549e-02	1.24633463e-04
7.65000000e-01	1.18943234e-02	1.25735875e-04
7.66000000e-01	1.18582844e-02	1.25450292e-04
7.67000000e-01	1.17586724e-02	1.24545923e-04
7.68000000e-01	1.18426356e-02	1.24746724e-04
7.69000000e-01	1.18431115e-02	1.25340947e-04
7.70000000e-01	1.19140686e-02	1.25950516e-04
7.71000000e-01	1.18094467e-02	1.24926095e-04
7.72000000e-01	1.18698191e-02	1.29266584e-04
7.73000000e-01	1.19412169e-02	1.33452109e-04
7.74000000e-01	1.18527093e-02	1.35766982e-04
7.75000000e-01	1.17202117e-02	1.36524006e-04
7.76000000e-01	1.19632753e-02	1.41144697e-04
7.77000000e-01	1.18480838e-02	1.42214918e-04
7.78000000e-01	1.18099990e-02	1.44378143e-04
7.79000000e-01	1.16645298e-02	1.44016249e-04
7.80000000e-01	1.16935616e-02	1.44884866e-04
7.81000000e-01	1.18831016e-02	1.49515453e-04
7.82000000e-01	1.18286020e-02	1.50823952e-04
7.83000000e-01	1.17619327e-02	1.51314582e-04
7.84000000e-01	1.17037833e-02	1.52746125e-04
7.85000000e-01	1.17534623e-02	1.55025078e-04
7.86000000e-01	1.17087331e-02	1.55805897e-04
7.87000000e-01	1.17799130e-02	1.58654774e-04
7.88000000e-01	1.14455389e-02	1.55406192e-04
7.89000000e-01	1.16798420e-02	1.60036443e-04
7.90000000e-01	1.17468658e-02	1.62043870e-04
7.91000000e-01	1.15085993e-02	1.61495462e-04
7.92000000e-01	1.14806690e-02	1.61884918e-04
7.93000000e-01	1.14768768e-02	1.64001038e-04
7.94000000e-01	1.15398135e-02	1.66202424e-04
7.95000000e-01	1.16740616e-02	1.69768509e-04
7.96000000e-01	1.17214273e-02	1.72175438e-04
7.97000000e-01	1.15845094e-02	1.72989641e-04
7.98000000e-01	1.16298620e-02	1.74517063e-04
7.99000000e-01	1.14379519e-02	1.73045518e-04
8.00000000e-01	1.16086655e-02	1.77917595e-04
8.01000000e-01	1.16098122e-02	1.79552931e-04
8.02000000e-01	1.13802167e-02	1.77327639e-04
8.03000000e-01	1.14218228e-02	1.81325738e-04
8.04000000e-01	1.14762868e-02	1.83218812e-04
8.05000000e-01	1.14129819e-02	1.84387401e-04
8.06000000e-01	1.11855836e-02	1.83165355e-04
8.07000000e-01	1.13869648e-02	1.88274960e-04
8.08000000e-01	1.15346507e-02	1.92818012e-04
8.09000000e-01	1.14826747e-02	1.94070075e-04
8.10000000e-01	1.13197425e-02	1.93659607e-04
8.11000000e-01	1.14208958e-02	1.97081317e-04
8.12000000e-01	1.13834899e-02	1.98529764e-04
8.13000000e-01	1.14499207e-02	2.02031669e-04
8.14000000e-01	1.14813125e-02	2.04899711e-04
8.15000000e-01	1.11785542e-02	2.03281776e-04
8.16000000e-01	1.13275185e-02	2.09022934e-04
8.17000000e-01	1.13489234e-02	2.10785586e-04
8.18000000e-01	1.12075982e-02	2.10613921e-04
8.19000000e-01	1.11598842e-02	2.13669268e-04
8.20000000e-01	1.11006523e-02	2.13823110e-04
8.21000000e-01	1.12491052e-02	2.18406073e-04
8.22000000e-01	1.13129473e-02	2.21931406e-04
8.23000000e-01	1.11175793e-02	2.21733874e-04
8.24000000e-01	1.12355532e-02	2.28118894e-04
8.25000000e-01	1.11935897e-02	2.29987339e-04
8.26000000e-01	1.12450286e-02	2.35140869e-04
8.27000000e-01	1.11035606e-02	2.34877818e-04
8.28000000e-01	1.10890012e-02	2.37711127e-04
8.29000000e-01	1.09659306e-02	2.41464230e-04
8.30000000e-01	1.10791644e-02	2.47951009e-04
8.31000000e-01	1.09769302e-02	2.48355787e-04
8.32000000e-01	1.10117451e-02	2.51821760e-04
8.33000000e-01	1.08465969e-02	2.53742885e-04
8.34000000e-01	1.11246381e-02	2.62757691e-04
8.35000000e-01	1.09330111e-02	2.66452553e-04
8.36000000e-01	1.11923520e-02	2.76380779e-04
8.37000000e-01	1.07817709e-02	2.72343869e-04
8.38000000e-01	1.09225536e-02	2.78714025e-04
8.39000000e-01	1.05528056e-02	2.79572326e-04
8.40000000e-01	1.08042341e-02	2.92339562e-04
8.41000000e-01	1.07106885e-02	2.97360555e-04
8.42000000e-01	1.07821588e-02	3.03157675e-04
8.43000000e-01	1.08068678e-02	3.08977576e-04
8.44000000e-01	1.07258274e-02	3.15450230e-04
8.45000000e-01	1.10339390e-02	3.28627744e-04
8.46000000e-01	1.10866876e-02	3.38175642e-04
8.47000000e-01	1.08335134e-02	3.41564092e-04
8.48000000e-01	1.08887288e-02	3.57276559e-04
8.49000000e-01	1.07193944e-02	3.61691125e-04
8.50000000e-01	1.08046586e-02	3.80596585e-04
8.51000000e-01	1.09604755e-02	4.00505732e-04
8.52000000e-01	1.05753743e-02	3.99847813e-04
8.53000000e-01	1.07259206e-02	4.23831846e-04
8.54000000e-01	1.05566241e-02	4.42019974e-04
8.55000000e-01	1.05247964e-02	4.51350506e-04
8.56000000e-01	1.08831279e-02	4.75219457e-04
8.57000000e-01	1.05266348e-02	4.81396346e-04
8.58000000e-01	1.05582677e-02	4.99930956e-04
8.59000000e-01	1.11429615e-02	5.31369249e-04
8.60000000e-01	1.03896045e-02	5.18864611e-04
8.61000000e-01	1.09796106e-02	5.56988580e-04
8.62000000e-01	1.06228560e-02	5.60845687e-04
8.63000000e-01	1.03372411e-02	5.82641265e-04
8.64000000e-01	1.06782367e-02	6.12340872e-04
8.65000000e-01	1.00037357e-02	6.17863522e-04
8.66000000e-01	1.08433389e-02	6.90186447e-04
8.67000000e-01	1.07374665e-02	7.08257613e-04
8.68000000e-01	1.16524771e-02	8.33161322e-04
8.69000000e-01	1.04876236e-02	8.20588304e-04
8.70000000e-01	1.05823313e-02	8.83966617e-04
8.71000000e-01	1.02511507e-02	9.75857349e-04
8.72000000e-01	1.07394700e-02	1.09303637e-03
8.73000000e-01	1.08843614e-02	1.35118813e-03
8.74000000e-01	8.29153669e-03	1.43721903e-03
8.75000000e-01	9.77259902e-03	3.32415820e-03
