% Filename : SDL7c_00026_00051.h5
% Date & Time : 30-Oct-2025 17:03:56
% X-ray Energy (keV) : 13.30001
% Exposure Time (s) : 0.500
% Beam Center : 1461.24000, 208.98300
% Sample to Detector Distance (SDD) (mm) : 1990.750
% Detector Pixel Size (mm) : 0.075
% Photodiode Value : 140699.000
% I0 of Sample : 0
% I0 of Standard : 1
% 
% q(A^-1)   I(q)    I(q)_SE
0.00000000e+00	8.98849188e-03	4.97319152e-03
2.50000000e-04	0.00000000e+00	0.00000000e+00
5.00000000e-04	0.00000000e+00	0.00000000e+00
7.50000000e-04	0.00000000e+00	0.00000000e+00
1.00000000e-03	0.00000000e+00	0.00000000e+00
1.25000000e-03	0.00000000e+00	0.00000000e+00
1.50000000e-03	0.00000000e+00	0.00000000e+00
1.75000000e-03	0.00000000e+00	0.00000000e+00
2.00000000e-03	0.00000000e+00	0.00000000e+00
2.25000000e-03	0.00000000e+00	0.00000000e+00
2.50000000e-03	0.00000000e+00	0.00000000e+00
2.75000000e-03	0.00000000e+00	0.00000000e+00
3.00000000e-03	0.00000000e+00	0.00000000e+00
3.25000000e-03	8.14067617e+01	7.76324927e+01
3.50000000e-03	1.73188597e+01	1.53737275e+01
3.75000000e-03	8.11060434e+00	6.56342042e+00
4.00000000e-03	6.61789971e+00	5.25670008e+00
4.25000000e-03	1.05529077e+00	1.68550949e-01
4.50000000e-03	3.25571390e+00	2.06969332e+00
4.75000000e-03	4.07124090e+00	1.93695884e+00
5.00000000e-03	3.10245995e+00	1.45062761e+00
5.25000000e-03	2.50106363e+00	1.11758893e+00
5.50000000e-03	2.16962147e+00	1.00032964e+00
5.75000000e-03	1.68833292e+00	7.25412295e-01
6.00000000e-03	1.49765172e+00	6.46521296e-01
6.25000000e-03	1.22643110e+00	5.18681436e-01
6.50000000e-03	1.08046332e+00	4.44831649e-01
6.75000000e-03	9.20255027e-01	3.83111128e-01
7.00000000e-03	7.59481067e-01	2.95951022e-01
7.25000000e-03	7.11620906e-01	2.83370980e-01
7.50000000e-03	5.92553837e-01	2.31373795e-01
7.75000000e-03	5.35154241e-01	2.03014771e-01
8.00000000e-03	4.92058674e-01	1.89370127e-01
8.25000000e-03	4.07481899e-01	1.45140084e-01
8.50000000e-03	3.92556855e-01	1.51042931e-01
8.75000000e-03	3.42641438e-01	1.27822697e-01
9.00000000e-03	3.13294322e-01	1.16913025e-01
9.25000000e-03	2.76342580e-01	1.01370030e-01
9.50000000e-03	2.44931208e-01	8.71760427e-02
9.75000000e-03	2.33349672e-01	8.60239740e-02
1.00000000e-02	2.03057617e-01	7.20791675e-02
1.02500000e-02	2.01457505e-01	7.46950629e-02
1.05000000e-02	1.70832208e-01	6.03809710e-02
1.07500000e-02	1.59090964e-01	5.64597282e-02
1.10000000e-02	1.45649753e-01	5.06654280e-02
1.12500000e-02	1.29786457e-01	4.33590603e-02
1.15000000e-02	1.29244218e-01	4.34092901e-02
1.17500000e-02	9.12993012e-02	2.89460939e-02
1.20000000e-02	1.01609987e-01	3.10962234e-02
1.22500000e-02	1.04518508e-01	3.31881974e-02
1.25000000e-02	9.53913591e-02	2.83086800e-02
1.27500000e-02	9.32606444e-02	2.84221459e-02
1.30000000e-02	8.43690533e-02	2.39071995e-02
1.32500000e-02	7.57407055e-02	2.02905381e-02
1.35000000e-02	7.78749811e-02	2.26423345e-02
1.37500000e-02	6.89620720e-02	1.84631911e-02
1.40000000e-02	6.91663738e-02	1.86361224e-02
1.42500000e-02	6.45985395e-02	1.59442232e-02
1.45000000e-02	6.11997230e-02	1.49205049e-02
1.47500000e-02	5.63606468e-02	1.33289793e-02
1.50000000e-02	5.42335468e-02	1.23141657e-02
1.52500000e-02	5.46964950e-02	1.27862431e-02
1.55000000e-02	4.90737708e-02	1.06590816e-02
1.57500000e-02	4.84291680e-02	1.03049184e-02
1.60000000e-02	4.63096398e-02	9.41516998e-03
1.62500000e-02	4.41784688e-02	7.68064731e-03
1.65000000e-02	4.43225502e-02	8.44406133e-03
1.67500000e-02	4.11560710e-02	7.17186643e-03
1.70000000e-02	4.02377682e-02	7.26592118e-03
1.72500000e-02	3.94955375e-02	6.50286628e-03
1.75000000e-02	3.78999493e-02	5.71798356e-03
1.77500000e-02	3.77961458e-02	5.96672679e-03
1.80000000e-02	3.51858416e-02	5.01094416e-03
1.82500000e-02	3.52923423e-02	5.01230878e-03
1.85000000e-02	3.40657481e-02	4.52297554e-03
1.87500000e-02	3.38239067e-02	4.11985746e-03
1.90000000e-02	3.37781853e-02	4.37312707e-03
1.92500000e-02	3.25821597e-02	3.88259924e-03
1.95000000e-02	3.26146819e-02	4.13516847e-03
1.97500000e-02	3.13497105e-02	3.64882380e-03
2.00000000e-02	3.06268473e-02	3.37378866e-03
2.02500000e-02	2.89028856e-02	2.91898863e-03
2.05000000e-02	3.12434714e-02	3.11424451e-03
2.07500000e-02	3.00760757e-02	3.30793678e-03
2.10000000e-02	2.91311212e-02	3.03298545e-03
2.12500000e-02	2.98467453e-02	2.94917817e-03
2.15000000e-02	2.86675345e-02	2.73988828e-03
2.17500000e-02	2.90627011e-02	2.55771569e-03
2.20000000e-02	2.91896839e-02	2.75850525e-03
2.22500000e-02	2.78337419e-02	2.69326645e-03
2.25000000e-02	2.82486578e-02	2.59374199e-03
2.27500000e-02	2.71913301e-02	2.26677937e-03
2.30000000e-02	2.79219869e-02	2.34624787e-03
2.32500000e-02	2.75416751e-02	2.23435543e-03
2.35000000e-02	2.68520828e-02	2.38411510e-03
2.37500000e-02	2.63523960e-02	2.20246026e-03
2.40000000e-02	2.71629825e-02	2.28642929e-03
2.42500000e-02	2.64686645e-02	2.05109646e-03
2.45000000e-02	2.59559935e-02	2.06763097e-03
2.47500000e-02	2.57926539e-02	1.96719703e-03
2.50000000e-02	2.66047488e-02	2.07009588e-03
2.52500000e-02	2.60582248e-02	2.01547764e-03
2.55000000e-02	2.56850819e-02	1.81145573e-03
2.57500000e-02	2.47760211e-02	1.79490839e-03
2.60000000e-02	2.45610845e-02	1.75133693e-03
2.62500000e-02	2.54161346e-02	1.94921213e-03
2.65000000e-02	2.48989201e-02	1.82325246e-03
2.67500000e-02	2.56958933e-02	1.80338106e-03
2.70000000e-02	2.42615148e-02	1.54982943e-03
2.72500000e-02	2.49508807e-02	1.50465415e-03
2.75000000e-02	2.40224648e-02	1.57652625e-03
2.77500000e-02	2.38986189e-02	1.59658125e-03
2.80000000e-02	2.45715984e-02	1.33115887e-03
2.82500000e-02	2.39984219e-02	1.46126362e-03
2.85000000e-02	2.37430362e-02	1.47050750e-03
2.87500000e-02	2.42341907e-02	1.46875198e-03
2.90000000e-02	2.61810745e-02	1.57303230e-03
2.92500000e-02	2.41898598e-02	1.33271847e-03
2.95000000e-02	2.41224777e-02	1.47684279e-03
2.97500000e-02	2.48330168e-02	1.39095652e-03
3.00000000e-02	2.46980422e-02	1.40866307e-03
3.02500000e-02	2.45863789e-02	1.36574014e-03
3.05000000e-02	2.51460931e-02	1.32036211e-03
3.07500000e-02	2.41344477e-02	1.30019669e-03
3.10000000e-02	2.36875480e-02	1.27377078e-03
3.12500000e-02	2.41396781e-02	1.34352379e-03
3.15000000e-02	2.40713909e-02	1.23893411e-03
3.17500000e-02	2.42902053e-02	1.23236329e-03
3.20000000e-02	2.31728661e-02	1.19864039e-03
3.22500000e-02	2.31886234e-02	1.17345113e-03
3.25000000e-02	2.34717204e-02	1.16425029e-03
3.27500000e-02	2.33042231e-02	1.16860246e-03
3.30000000e-02	2.35264263e-02	1.15578170e-03
3.32500000e-02	2.36908035e-02	1.15412596e-03
3.35000000e-02	2.40207654e-02	1.18215809e-03
3.37500000e-02	2.37169113e-02	1.17061118e-03
3.40000000e-02	2.29569428e-02	1.13002515e-03
3.42500000e-02	2.32755011e-02	1.14212762e-03
3.45000000e-02	2.36002307e-02	1.13194652e-03
3.47500000e-02	2.30610436e-02	1.11077634e-03
3.50000000e-02	2.28326843e-02	1.09426006e-03
3.52500000e-02	2.30302623e-02	1.07921220e-03
3.55000000e-02	2.28569111e-02	1.09384858e-03
3.57500000e-02	2.35133090e-02	1.11670428e-03
3.60000000e-02	2.23246055e-02	1.04912981e-03
3.62500000e-02	2.31922508e-02	1.09923247e-03
3.65000000e-02	2.23932731e-02	1.02083372e-03
3.67500000e-02	2.20947783e-02	1.01000476e-03
3.70000000e-02	2.19241172e-02	1.02271958e-03
3.72500000e-02	2.19230361e-02	1.02140939e-03
3.75000000e-02	2.27481855e-02	1.06554430e-03
3.77500000e-02	2.20291295e-02	1.02251603e-03
3.80000000e-02	2.20886564e-02	1.00305504e-03
3.82500000e-02	2.25782955e-02	1.01391860e-03
3.85000000e-02	2.22036422e-02	1.01085056e-03
3.87500000e-02	2.18576663e-02	9.91911199e-04
3.90000000e-02	2.17856697e-02	9.89294102e-04
3.92500000e-02	2.21582907e-02	9.92267033e-04
3.95000000e-02	2.11377112e-02	9.38980552e-04
3.97500000e-02	2.17080833e-02	9.70061876e-04
4.00000000e-02	2.24337979e-02	1.00959485e-03
4.02500000e-02	2.24689074e-02	1.00656413e-03
4.05000000e-02	2.07104427e-02	9.09701796e-04
4.07500000e-02	2.17229638e-02	9.38238310e-04
4.10000000e-02	2.17157036e-02	9.59272929e-04
4.12500000e-02	2.16825753e-02	9.49312619e-04
4.15000000e-02	2.22991851e-02	9.68637025e-04
4.17500000e-02	2.24372431e-02	9.61750285e-04
4.20000000e-02	2.11941680e-02	9.21122328e-04
4.22500000e-02	2.14809485e-02	9.25780814e-04
4.25000000e-02	2.19332137e-02	9.47777479e-04
4.27500000e-02	2.19843454e-02	9.31060180e-04
4.30000000e-02	2.20254936e-02	9.44156913e-04
4.32500000e-02	2.15793180e-02	9.23520504e-04
4.35000000e-02	2.05186883e-02	8.91491732e-04
4.37500000e-02	2.14171150e-02	8.95286713e-04
4.40000000e-02	2.15648279e-02	9.16632574e-04
4.42500000e-02	2.11841241e-02	8.92840636e-04
4.45000000e-02	2.15350246e-02	8.96836983e-04
4.47500000e-02	2.15541630e-02	9.05347611e-04
4.50000000e-02	2.09800664e-02	8.91877509e-04
4.52500000e-02	2.08682881e-02	8.71610529e-04
4.55000000e-02	2.09825288e-02	8.70655560e-04
4.57500000e-02	2.10370645e-02	8.82788837e-04
4.60000000e-02	2.09171388e-02	8.71279905e-04
4.62500000e-02	2.15984934e-02	9.01127921e-04
4.65000000e-02	2.12884951e-02	8.81891508e-04
4.67500000e-02	2.06421106e-02	8.50895856e-04
4.70000000e-02	2.08875725e-02	8.59442751e-04
4.72500000e-02	2.09934283e-02	8.63630131e-04
4.75000000e-02	2.16686294e-02	8.93413861e-04
4.77500000e-02	2.04721520e-02	8.29795825e-04
4.80000000e-02	2.17497968e-02	8.90001518e-04
4.82500000e-02	2.10917471e-02	8.62581757e-04
4.85000000e-02	2.09908971e-02	8.55191033e-04
4.87500000e-02	2.04316205e-02	8.28210468e-04
4.90000000e-02	2.11116719e-02	8.45734586e-04
4.92500000e-02	2.10396802e-02	8.44645155e-04
4.95000000e-02	2.10475718e-02	8.51296047e-04
4.97500000e-02	2.04946706e-02	8.34281693e-04
5.00000000e-02	2.16464246e-02	8.59978707e-04
5.02500000e-02	2.20360648e-02	8.80749772e-04
5.05000000e-02	2.08149271e-02	8.30045845e-04
5.07500000e-02	2.04193650e-02	8.27365898e-04
5.10000000e-02	2.03141702e-02	8.11718319e-04
5.12500000e-02	2.07019900e-02	8.33551817e-04
5.15000000e-02	2.09416677e-02	8.30112308e-04
5.17500000e-02	2.09758937e-02	8.32180255e-04
5.20000000e-02	2.12884366e-02	8.43860152e-04
5.22500000e-02	2.04135571e-02	8.14903624e-04
5.25000000e-02	2.07969639e-02	8.22661593e-04
5.27500000e-02	2.14290713e-02	8.42793191e-04
5.30000000e-02	2.07095777e-02	8.09093932e-04
5.32500000e-02	2.07375219e-02	8.15853081e-04
5.35000000e-02	2.13582107e-02	8.38079469e-04
5.37500000e-02	2.08197008e-02	8.06137169e-04
5.40000000e-02	2.12915162e-02	8.25648089e-04
5.42500000e-02	2.08130695e-02	8.08892001e-04
5.45000000e-02	2.16444491e-02	8.44285481e-04
5.47500000e-02	2.07482202e-02	7.97062629e-04
5.50000000e-02	2.06004922e-02	7.95528984e-04
5.52500000e-02	2.04687490e-02	7.90493223e-04
5.55000000e-02	2.06022949e-02	7.92719780e-04
5.57500000e-02	2.09348924e-02	8.05318493e-04
5.60000000e-02	2.00202146e-02	7.68508732e-04
5.62500000e-02	2.04319689e-02	7.84671275e-04
5.65000000e-02	2.00790314e-02	7.72262249e-04
5.67500000e-02	2.05470909e-02	7.92768565e-04
5.70000000e-02	2.09288863e-02	7.98576014e-04
5.72500000e-02	2.01782114e-02	7.74788511e-04
5.75000000e-02	1.99969941e-02	7.65544711e-04
5.77500000e-02	2.01690514e-02	7.62150922e-04
5.80000000e-02	2.03277903e-02	7.78028749e-04
5.82500000e-02	2.05135186e-02	7.70939704e-04
5.85000000e-02	2.08141845e-02	7.88327460e-04
5.87500000e-02	2.09918283e-02	7.85320521e-04
5.90000000e-02	2.03968911e-02	7.69346400e-04
5.92500000e-02	2.12687641e-02	8.01404594e-04
5.95000000e-02	2.05145938e-02	7.62130170e-04
5.97500000e-02	2.07201422e-02	7.78989185e-04
6.00000000e-02	2.06436217e-02	7.65076612e-04
6.02500000e-02	2.02054303e-02	7.48121650e-04
6.05000000e-02	2.04548089e-02	7.62449810e-04
6.07500000e-02	2.04785484e-02	7.68121922e-04
6.10000000e-02	2.08901539e-02	7.72378730e-04
6.12500000e-02	2.02360594e-02	7.44955975e-04
6.15000000e-02	2.04054563e-02	7.56936862e-04
6.17500000e-02	2.02563917e-02	7.47575887e-04
6.20000000e-02	2.06223276e-02	7.58567662e-04
6.22500000e-02	2.07020798e-02	7.62359240e-04
6.25000000e-02	2.00977172e-02	7.40641536e-04
6.27500000e-02	2.01502688e-02	7.41667797e-04
6.30000000e-02	2.02794950e-02	7.47029181e-04
6.32500000e-02	1.96568524e-02	7.25625349e-04
6.35000000e-02	2.03486414e-02	7.47105172e-04
6.37500000e-02	2.04191217e-02	7.49726610e-04
6.40000000e-02	2.02617578e-02	7.40569112e-04
6.42500000e-02	2.04775042e-02	7.37880935e-04
6.45000000e-02	1.98017186e-02	7.24034553e-04
6.47500000e-02	2.02017775e-02	7.37602161e-04
6.50000000e-02	2.00011822e-02	7.23800475e-04
6.52500000e-02	1.91070585e-02	6.91974967e-04
6.55000000e-02	2.02564161e-02	7.28885071e-04
6.57500000e-02	2.02040762e-02	7.23402187e-04
6.60000000e-02	2.01154427e-02	7.18023866e-04
6.62500000e-02	1.97055546e-02	7.10381732e-04
6.65000000e-02	2.04412943e-02	7.29671269e-04
6.67500000e-02	1.98392953e-02	7.11382300e-04
6.70000000e-02	2.03005757e-02	7.28761317e-04
6.72500000e-02	1.99613239e-02	7.11978511e-04
6.75000000e-02	2.01286967e-02	7.19584869e-04
6.77500000e-02	1.95708430e-02	6.97174151e-04
6.80000000e-02	2.02258308e-02	7.20002669e-04
6.82500000e-02	2.03853728e-02	7.18423403e-04
6.85000000e-02	1.99518678e-02	7.12165804e-04
6.87500000e-02	2.01727509e-02	7.12439144e-04
6.90000000e-02	2.00281421e-02	7.06869672e-04
6.92500000e-02	2.02461368e-02	7.10121852e-04
6.95000000e-02	1.98582065e-02	6.99207008e-04
6.97500000e-02	2.05990222e-02	7.33911096e-04
7.00000000e-02	2.00675294e-02	7.02107495e-04
7.02500000e-02	2.02919292e-02	7.10623437e-04
7.05000000e-02	2.01546825e-02	7.02188504e-04
7.07500000e-02	1.98112190e-02	6.94265108e-04
7.10000000e-02	2.01204714e-02	7.04944850e-04
7.12500000e-02	2.02417879e-02	7.00126735e-04
7.15000000e-02	1.95675532e-02	6.77742121e-04
7.17500000e-02	1.95754241e-02	6.79224179e-04
7.20000000e-02	2.01398381e-02	7.01568774e-04
7.22500000e-02	2.04075915e-02	7.08633432e-04
7.25000000e-02	2.04484064e-02	7.04116569e-04
7.27500000e-02	2.00956383e-02	6.92655473e-04
7.30000000e-02	1.99667618e-02	6.84750897e-04
7.32500000e-02	2.00757853e-02	6.87059387e-04
7.35000000e-02	1.99718687e-02	6.87671149e-04
7.37500000e-02	1.98369585e-02	6.79206872e-04
7.40000000e-02	2.00758586e-02	6.87639966e-04
7.42500000e-02	1.99583545e-02	6.86081930e-04
7.45000000e-02	1.96228682e-02	6.65891282e-04
7.47500000e-02	2.04185533e-02	6.91628634e-04
7.50000000e-02	2.00151399e-02	6.81842489e-04
7.52500000e-02	2.00244308e-02	6.83289973e-04
7.55000000e-02	1.96159703e-02	6.63587333e-04
7.57500000e-02	2.02270875e-02	6.86006173e-04
7.60000000e-02	1.99095959e-02	6.70794088e-04
7.62500000e-02	1.98637859e-02	6.75826423e-04
7.65000000e-02	2.04504307e-02	6.91719388e-04
7.67500000e-02	1.99928697e-02	6.76368463e-04
7.70000000e-02	2.01331403e-02	6.76368683e-04
7.72500000e-02	2.01043745e-02	6.83142086e-04
7.75000000e-02	2.01295973e-02	7.00212570e-04
7.77500000e-02	2.00000761e-02	6.94223767e-04
7.80000000e-02	2.03503530e-02	7.07206400e-04
7.82500000e-02	2.03698777e-02	7.10236571e-04
7.85000000e-02	1.98184462e-02	7.04091781e-04
7.87500000e-02	1.99595960e-02	7.03202715e-04
7.90000000e-02	2.00946055e-02	7.15761477e-04
7.92500000e-02	1.97862094e-02	7.04272084e-04
7.95000000e-02	2.02224612e-02	7.20172668e-04
7.97500000e-02	1.98589627e-02	7.11312959e-04
8.00000000e-02	1.97425741e-02	7.13399790e-04
8.02500000e-02	1.94455775e-02	7.00329196e-04
8.05000000e-02	2.02756764e-02	7.24678995e-04
8.07500000e-02	2.00184982e-02	7.28973539e-04
8.10000000e-02	1.98460781e-02	7.19626686e-04
8.12500000e-02	1.97508138e-02	7.22072580e-04
8.15000000e-02	1.98779899e-02	7.17760661e-04
8.17500000e-02	2.00237610e-02	7.30918545e-04
8.20000000e-02	1.98861531e-02	7.29988891e-04
8.22500000e-02	1.99493547e-02	7.32240749e-04
8.25000000e-02	2.00504561e-02	7.30522546e-04
8.27500000e-02	1.94249666e-02	7.09405757e-04
8.30000000e-02	1.96905687e-02	7.17995802e-04
8.32500000e-02	1.97595735e-02	7.26363251e-04
8.35000000e-02	2.01276202e-02	7.46282833e-04
8.37500000e-02	1.98911834e-02	7.24163808e-04
8.40000000e-02	2.04228033e-02	7.48693288e-04
8.42500000e-02	1.98604329e-02	7.31348478e-04
8.45000000e-02	2.02862020e-02	7.44529145e-04
8.47500000e-02	1.95519386e-02	7.24810527e-04
8.50000000e-02	2.03217149e-02	7.54523644e-04
8.52500000e-02	1.98249129e-02	7.35642946e-04
8.55000000e-02	1.98167806e-02	7.26201816e-04
8.57500000e-02	2.01396232e-02	7.49532802e-04
8.60000000e-02	1.94930627e-02	7.26850389e-04
8.62500000e-02	1.98869124e-02	7.35525153e-04
8.65000000e-02	1.94424120e-02	7.14277379e-04
8.67500000e-02	2.01000487e-02	7.41120507e-04
8.70000000e-02	1.99924664e-02	7.28236731e-04
8.72500000e-02	1.96201520e-02	7.00998453e-04
8.75000000e-02	1.96435503e-02	6.97124425e-04
8.77500000e-02	1.99260514e-02	7.00323428e-04
8.80000000e-02	2.00201672e-02	7.05687812e-04
8.82500000e-02	1.95788680e-02	6.88083503e-04
8.85000000e-02	2.04177816e-02	7.09319578e-04
8.87500000e-02	1.97469199e-02	6.77562106e-04
8.90000000e-02	1.95732849e-02	6.79328755e-04
8.92500000e-02	2.01541383e-02	6.94429338e-04
8.95000000e-02	2.05337574e-02	7.01775325e-04
8.97500000e-02	2.01005715e-02	6.80773241e-04
9.00000000e-02	1.94040223e-02	6.56125561e-04
9.02500000e-02	1.96048206e-02	6.70536697e-04
9.05000000e-02	1.98411207e-02	6.73596334e-04
9.07500000e-02	1.94722470e-02	6.59061650e-04
9.10000000e-02	2.04471780e-02	6.84578751e-04
9.12500000e-02	2.01255470e-02	6.75355874e-04
9.15000000e-02	1.96751393e-02	6.61178180e-04
9.17500000e-02	2.03432019e-02	6.77562791e-04
9.20000000e-02	1.97498383e-02	6.64228668e-04
9.22500000e-02	1.96676709e-02	6.56167061e-04
9.25000000e-02	1.99519832e-02	6.63020831e-04
9.27500000e-02	1.91273364e-02	6.39539211e-04
9.30000000e-02	1.99698237e-02	6.64564552e-04
9.32500000e-02	1.99784334e-02	6.60705358e-04
9.35000000e-02	1.95807705e-02	6.47850459e-04
9.37500000e-02	2.00486970e-02	6.59017635e-04
9.40000000e-02	2.00097308e-02	6.58813281e-04
9.42500000e-02	2.00615145e-02	6.60159824e-04
9.45000000e-02	1.94252177e-02	6.39977192e-04
9.47500000e-02	1.97792394e-02	6.43336313e-04
9.50000000e-02	1.97899260e-02	6.44371248e-04
9.52500000e-02	1.95786660e-02	6.35572567e-04
9.55000000e-02	1.94219516e-02	6.32172353e-04
9.57500000e-02	1.98798806e-02	6.43238459e-04
9.60000000e-02	2.00862639e-02	6.44896077e-04
9.62500000e-02	1.95977908e-02	6.33362691e-04
9.65000000e-02	1.96783239e-02	6.32423705e-04
9.67500000e-02	1.98336335e-02	6.35239427e-04
9.70000000e-02	1.97218182e-02	6.32892519e-04
9.72500000e-02	1.99950493e-02	6.42581727e-04
9.75000000e-02	1.98505670e-02	6.40154243e-04
9.77500000e-02	1.98339679e-02	6.35018150e-04
9.80000000e-02	1.96362325e-02	6.25923038e-04
9.82500000e-02	1.99423662e-02	6.34181132e-04
9.85000000e-02	1.97693265e-02	6.31297950e-04
9.87500000e-02	1.99960395e-02	6.38405943e-04
9.90000000e-02	1.96136410e-02	6.21965376e-04
9.92500000e-02	2.01132828e-02	6.41467436e-04
9.95000000e-02	1.97281858e-02	6.23907186e-04
9.97500000e-02	1.99446599e-02	6.28131805e-04
1.00000000e-01	1.96370081e-02	5.03497321e-04
1.00500000e-01	1.95638451e-02	4.40336869e-04
1.01000000e-01	1.99504361e-02	4.43497826e-04
1.01500000e-01	1.96559737e-02	4.35823287e-04
1.02000000e-01	1.99650246e-02	4.39731822e-04
1.02500000e-01	1.98196111e-02	4.35223476e-04
1.03000000e-01	1.98962716e-02	4.37937998e-04
1.03500000e-01	1.96814186e-02	4.31986428e-04
1.04000000e-01	1.95542390e-02	4.25564375e-04
1.04500000e-01	1.96716583e-02	4.27876994e-04
1.05000000e-01	1.96143445e-02	4.24742773e-04
1.05500000e-01	1.95436745e-02	4.24048060e-04
1.06000000e-01	1.96935151e-02	4.23082327e-04
1.06500000e-01	1.97250631e-02	4.24968092e-04
1.07000000e-01	1.99480720e-02	4.33170524e-04
1.07500000e-01	1.93244941e-02	4.25982148e-04
1.08000000e-01	1.95269117e-02	4.38228554e-04
1.08500000e-01	1.97332760e-02	4.45039644e-04
1.09000000e-01	1.98100161e-02	4.49968562e-04
1.09500000e-01	1.96768037e-02	4.50078500e-04
1.10000000e-01	1.95477439e-02	4.38369848e-04
1.10500000e-01	1.95980184e-02	4.30562598e-04
1.11000000e-01	2.00004229e-02	4.30877708e-04
1.11500000e-01	1.95429931e-02	4.21838560e-04
1.12000000e-01	1.99105018e-02	4.26568666e-04
1.12500000e-01	1.94299033e-02	4.12391760e-04
1.13000000e-01	1.97563956e-02	4.18915099e-04
1.13500000e-01	1.97318351e-02	4.15376811e-04
1.14000000e-01	1.96732812e-02	4.13276844e-04
1.14500000e-01	1.99083665e-02	4.17812515e-04
1.15000000e-01	1.98874721e-02	4.15815728e-04
1.15500000e-01	1.96001243e-02	4.10897770e-04
1.16000000e-01	1.98470366e-02	4.11628570e-04
1.16500000e-01	1.98427405e-02	4.12522459e-04
1.17000000e-01	1.98041222e-02	4.11517888e-04
1.17500000e-01	1.98179411e-02	4.09222355e-04
1.18000000e-01	1.99608321e-02	4.11428238e-04
1.18500000e-01	1.96045543e-02	4.01794064e-04
1.19000000e-01	1.95927336e-02	4.01540904e-04
1.19500000e-01	2.00160664e-02	4.06859326e-04
1.20000000e-01	1.97579325e-02	4.02925944e-04
1.20500000e-01	1.97571018e-02	4.01603277e-04
1.21000000e-01	1.97467764e-02	3.99639671e-04
1.21500000e-01	1.97917672e-02	4.02506085e-04
1.22000000e-01	1.95873083e-02	3.96455648e-04
1.22500000e-01	1.95160143e-02	3.94155518e-04
1.23000000e-01	1.96128907e-02	3.95762843e-04
1.23500000e-01	1.97332416e-02	3.95952301e-04
1.24000000e-01	1.93142898e-02	3.90505153e-04
1.24500000e-01	1.96299896e-02	3.92878231e-04
1.25000000e-01	1.98350498e-02	3.94777490e-04
1.25500000e-01	1.93585442e-02	3.87136407e-04
1.26000000e-01	1.97391543e-02	3.91284737e-04
1.26500000e-01	1.95762306e-02	3.88299446e-04
1.27000000e-01	1.93913313e-02	3.85791425e-04
1.27500000e-01	1.96330466e-02	3.88341064e-04
1.28000000e-01	1.96371183e-02	3.87910636e-04
1.28500000e-01	1.94577902e-02	3.84260353e-04
1.29000000e-01	1.94519741e-02	3.82387434e-04
1.29500000e-01	1.94545767e-02	3.81614077e-04
1.30000000e-01	1.96947012e-02	3.85458742e-04
1.30500000e-01	1.95907011e-02	3.84409487e-04
1.31000000e-01	1.95144590e-02	3.80263683e-04
1.31500000e-01	1.97791179e-02	3.83844373e-04
1.32000000e-01	1.97760394e-02	3.83335947e-04
1.32500000e-01	1.96409147e-02	3.80489405e-04
1.33000000e-01	1.96793130e-02	3.79406941e-04
1.33500000e-01	1.96173780e-02	3.75975694e-04
1.34000000e-01	1.93644649e-02	3.73395173e-04
1.34500000e-01	1.96626468e-02	3.75654045e-04
1.35000000e-01	1.94973579e-02	3.72779068e-04
1.35500000e-01	1.95051028e-02	3.72796643e-04
1.36000000e-01	1.95283972e-02	3.70740902e-04
1.36500000e-01	1.97824403e-02	3.76775438e-04
1.37000000e-01	1.94878492e-02	3.67838438e-04
1.37500000e-01	1.95908359e-02	3.70289171e-04
1.38000000e-01	1.98180259e-02	3.73096499e-04
1.38500000e-01	1.94851157e-02	3.67856548e-04
1.39000000e-01	1.97855953e-02	3.72921064e-04
1.39500000e-01	1.94011523e-02	3.65712868e-04
1.40000000e-01	1.94454271e-02	3.67065735e-04
1.40500000e-01	1.96535687e-02	3.69873207e-04
1.41000000e-01	1.96003194e-02	3.68396645e-04
1.41500000e-01	1.93408167e-02	3.63831648e-04
1.42000000e-01	1.95355526e-02	3.64559454e-04
1.42500000e-01	1.93520443e-02	3.62070671e-04
1.43000000e-01	1.97406351e-02	3.67434167e-04
1.43500000e-01	1.93434847e-02	3.60992120e-04
1.44000000e-01	1.92140225e-02	3.56737875e-04
1.44500000e-01	1.95028908e-02	3.61079620e-04
1.45000000e-01	1.96154474e-02	3.63114229e-04
1.45500000e-01	1.97040932e-02	3.66062438e-04
1.46000000e-01	1.92639629e-02	3.55613650e-04
1.46500000e-01	1.92031110e-02	3.54181172e-04
1.47000000e-01	1.95804870e-02	3.59108501e-04
1.47500000e-01	1.93711965e-02	3.56518186e-04
1.48000000e-01	1.95264696e-02	3.59576748e-04
1.48500000e-01	1.95965015e-02	3.57998141e-04
1.49000000e-01	1.97052618e-02	3.58239428e-04
1.49500000e-01	1.95494490e-02	3.56000264e-04
1.50000000e-01	1.93417436e-02	3.50751065e-04
1.50500000e-01	1.93879022e-02	3.53109014e-04
1.51000000e-01	1.93355151e-02	3.49138739e-04
1.51500000e-01	1.92036089e-02	3.48980817e-04
1.52000000e-01	1.93206346e-02	3.46084691e-04
1.52500000e-01	1.92719620e-02	3.48669172e-04
1.53000000e-01	1.91414771e-02	3.44919120e-04
1.53500000e-01	1.93680850e-02	3.47577578e-04
1.54000000e-01	1.91224561e-02	3.42998278e-04
1.54500000e-01	1.94517794e-02	3.53427811e-04
1.55000000e-01	1.95145174e-02	3.61471732e-04
1.55500000e-01	1.91784733e-02	3.57138884e-04
1.56000000e-01	1.90104453e-02	3.57570218e-04
1.56500000e-01	1.89738514e-02	3.55511074e-04
1.57000000e-01	1.93954466e-02	3.65091292e-04
1.57500000e-01	1.88452080e-02	3.48922406e-04
1.58000000e-01	1.88128831e-02	3.42063854e-04
1.58500000e-01	1.94142779e-02	3.50341350e-04
1.59000000e-01	1.91105201e-02	3.44021514e-04
1.59500000e-01	1.93766853e-02	3.46826822e-04
1.60000000e-01	1.92307925e-02	3.43237650e-04
1.60500000e-01	1.91699111e-02	3.40440853e-04
1.61000000e-01	1.90576715e-02	3.40470238e-04
1.61500000e-01	1.90303419e-02	3.37267656e-04
1.62000000e-01	1.89533977e-02	3.37449882e-04
1.62500000e-01	1.89360418e-02	3.37418135e-04
1.63000000e-01	1.87794519e-02	3.30810263e-04
1.63500000e-01	1.92239708e-02	3.40981101e-04
1.64000000e-01	1.91830316e-02	3.36616593e-04
1.64500000e-01	1.89557910e-02	3.35350401e-04
1.65000000e-01	1.89533530e-02	3.31884114e-04
1.65500000e-01	1.92052407e-02	3.36513559e-04
1.66000000e-01	1.90691578e-02	3.34944560e-04
1.66500000e-01	1.88691993e-02	3.29882665e-04
1.67000000e-01	1.88434709e-02	3.29601244e-04
1.67500000e-01	1.88851174e-02	3.27069419e-04
1.68000000e-01	1.89909745e-02	3.30822431e-04
1.68500000e-01	1.88043442e-02	3.26460948e-04
1.69000000e-01	1.91616088e-02	3.32603223e-04
1.69500000e-01	1.86888705e-02	3.23253262e-04
1.70000000e-01	1.87924606e-02	3.24811665e-04
1.70500000e-01	1.86481054e-02	3.22279451e-04
1.71000000e-01	1.87127616e-02	3.23309122e-04
1.71500000e-01	1.85835617e-02	3.20287957e-04
1.72000000e-01	1.88413340e-02	3.23009369e-04
1.72500000e-01	1.88810928e-02	3.24217395e-04
1.73000000e-01	1.88386996e-02	3.22877122e-04
1.73500000e-01	1.87407242e-02	3.18458504e-04
1.74000000e-01	1.88962643e-02	3.23377016e-04
1.74500000e-01	1.87784732e-02	3.17692515e-04
1.75000000e-01	1.86605554e-02	3.15397543e-04
1.75500000e-01	1.87383783e-02	3.16631028e-04
1.76000000e-01	1.88998687e-02	3.18378728e-04
1.76500000e-01	1.87649283e-02	3.15926608e-04
1.77000000e-01	1.87885426e-02	3.15773903e-04
1.77500000e-01	1.84638223e-02	3.12034158e-04
1.78000000e-01	1.88080864e-02	3.16387976e-04
1.78500000e-01	1.86321012e-02	3.14960316e-04
1.79000000e-01	1.88702329e-02	3.17326663e-04
1.79500000e-01	1.89972993e-02	3.17821868e-04
1.80000000e-01	1.87914695e-02	3.15433782e-04
1.80500000e-01	1.86100336e-02	3.12695230e-04
1.81000000e-01	1.87533909e-02	3.14598474e-04
1.81500000e-01	1.85413684e-02	3.08436032e-04
1.82000000e-01	1.86977651e-02	3.12834743e-04
1.82500000e-01	1.85924730e-02	3.09584128e-04
1.83000000e-01	1.85646981e-02	3.10991290e-04
1.83500000e-01	1.88943686e-02	3.13581146e-04
1.84000000e-01	1.88923056e-02	3.14022251e-04
1.84500000e-01	1.86967595e-02	3.11574783e-04
1.85000000e-01	1.87313503e-02	3.10003770e-04
1.85500000e-01	1.84212814e-02	3.05185742e-04
1.86000000e-01	1.82792918e-02	3.02919849e-04
1.86500000e-01	1.84679751e-02	3.05011573e-04
1.87000000e-01	1.83859418e-02	3.04533506e-04
1.87500000e-01	1.84583211e-02	3.03753762e-04
1.88000000e-01	1.86269166e-02	3.06476738e-04
1.88500000e-01	1.84985504e-02	3.03431818e-04
1.89000000e-01	1.85569947e-02	3.04097768e-04
1.89500000e-01	1.87550417e-02	3.06712144e-04
1.90000000e-01	1.83162266e-02	3.00180943e-04
1.90500000e-01	1.86787943e-02	3.03592036e-04
1.91000000e-01	1.83115870e-02	2.98145656e-04
1.91500000e-01	1.82477470e-02	2.96623925e-04
1.92000000e-01	1.85427805e-02	3.01394970e-04
1.92500000e-01	1.86556694e-02	3.02764886e-04
1.93000000e-01	1.84087536e-02	2.98598815e-04
1.93500000e-01	1.84190951e-02	2.98285918e-04
1.94000000e-01	1.84357002e-02	2.98586471e-04
1.94500000e-01	1.85161089e-02	3.00075025e-04
1.95000000e-01	1.85617206e-02	2.98998487e-04
1.95500000e-01	1.84041111e-02	2.96738734e-04
1.96000000e-01	1.82821786e-02	2.94752336e-04
1.96500000e-01	1.84409066e-02	2.98298692e-04
1.97000000e-01	1.84593793e-02	2.96262364e-04
1.97500000e-01	1.83384174e-02	2.95430505e-04
1.98000000e-01	1.85268671e-02	2.95669882e-04
1.98500000e-01	1.84569988e-02	2.96306348e-04
1.99000000e-01	1.84201638e-02	2.94759668e-04
1.99500000e-01	1.82768833e-02	2.91821612e-04
2.00000000e-01	1.84419556e-02	2.93660116e-04
2.00500000e-01	1.81584525e-02	2.90219556e-04
2.01000000e-01	1.80398538e-02	2.86929021e-04
2.01500000e-01	1.81189998e-02	2.89439064e-04
2.02000000e-01	1.84203699e-02	2.92174023e-04
2.02500000e-01	1.82518396e-02	2.89944372e-04
2.03000000e-01	1.81506461e-02	2.88097182e-04
2.03500000e-01	1.81658873e-02	2.87105463e-04
2.04000000e-01	1.83657143e-02	2.90205978e-04
2.04500000e-01	1.84163768e-02	2.91137799e-04
2.05000000e-01	1.80625267e-02	2.84702953e-04
2.05500000e-01	1.82735245e-02	2.87303887e-04
2.06000000e-01	1.81182584e-02	2.85255555e-04
2.06500000e-01	1.81522834e-02	2.85189361e-04
2.07000000e-01	1.80751343e-02	2.83750272e-04
2.07500000e-01	1.81809915e-02	2.83550001e-04
2.08000000e-01	1.80756284e-02	2.83931003e-04
2.08500000e-01	1.83414654e-02	2.86141383e-04
2.09000000e-01	1.81942502e-02	2.85362301e-04
2.09500000e-01	1.82350270e-02	2.84205676e-04
2.10000000e-01	1.81917558e-02	2.83789808e-04
2.10500000e-01	1.81396315e-02	2.83607031e-04
2.11000000e-01	1.81465222e-02	2.82068326e-04
2.11500000e-01	1.83155043e-02	2.83967259e-04
2.12000000e-01	1.81007935e-02	2.80848443e-04
2.12500000e-01	1.82892485e-02	2.83826578e-04
2.13000000e-01	1.79404310e-02	2.78035573e-04
2.13500000e-01	1.81864217e-02	2.80793900e-04
2.14000000e-01	1.80640270e-02	2.80203779e-04
2.14500000e-01	1.80612685e-02	2.78531453e-04
2.15000000e-01	1.78148574e-02	2.76495241e-04
2.15500000e-01	1.82540855e-02	2.79519320e-04
2.16000000e-01	1.79921474e-02	2.76584234e-04
2.16500000e-01	1.80437290e-02	2.77827419e-04
2.17000000e-01	1.79477211e-02	2.80859401e-04
2.17500000e-01	1.77655752e-02	2.80865755e-04
2.18000000e-01	1.80164058e-02	2.84397183e-04
2.18500000e-01	1.79015159e-02	2.85121239e-04
2.19000000e-01	1.81129457e-02	2.91234248e-04
2.19500000e-01	1.78634584e-02	2.88259466e-04
2.20000000e-01	1.80344095e-02	2.91845919e-04
2.20500000e-01	1.77740282e-02	2.87144329e-04
2.21000000e-01	1.79278261e-02	2.90513805e-04
2.21500000e-01	1.77997142e-02	2.91656660e-04
2.22000000e-01	1.79279750e-02	2.93284057e-04
2.22500000e-01	1.76603038e-02	2.88540886e-04
2.23000000e-01	1.78821294e-02	2.93028080e-04
2.23500000e-01	1.80590609e-02	2.96581196e-04
2.24000000e-01	1.79500829e-02	2.94833317e-04
2.24500000e-01	1.78227313e-02	2.94972715e-04
2.25000000e-01	1.80506722e-02	2.97874696e-04
2.25500000e-01	1.79562509e-02	2.96364928e-04
2.26000000e-01	1.76889411e-02	2.94828577e-04
2.26500000e-01	1.77574937e-02	2.89965497e-04
2.27000000e-01	1.78140874e-02	2.89346001e-04
2.27500000e-01	1.81050304e-02	2.90461002e-04
2.28000000e-01	1.76141608e-02	2.83220352e-04
2.28500000e-01	1.78671697e-02	2.84967687e-04
2.29000000e-01	1.80315983e-02	2.84732959e-04
2.29500000e-01	1.78066043e-02	2.82010971e-04
2.30000000e-01	1.79402916e-02	2.82488805e-04
2.30500000e-01	1.79352594e-02	2.81115789e-04
2.31000000e-01	1.78928922e-02	2.79495768e-04
2.31500000e-01	1.81736629e-02	2.83390614e-04
2.32000000e-01	1.76616424e-02	2.75684721e-04
2.32500000e-01	1.78518296e-02	2.77188106e-04
2.33000000e-01	1.76061414e-02	2.72090353e-04
2.33500000e-01	1.78317999e-02	2.75629412e-04
2.34000000e-01	1.75761326e-02	2.70959638e-04
2.34500000e-01	1.78371813e-02	2.74464652e-04
2.35000000e-01	1.77012723e-02	2.72862089e-04
2.35500000e-01	1.78983532e-02	2.74199076e-04
2.36000000e-01	1.79064132e-02	2.74806189e-04
2.36500000e-01	1.78053627e-02	2.73915008e-04
2.37000000e-01	1.76665027e-02	2.69938813e-04
2.37500000e-01	1.76286821e-02	2.69713996e-04
2.38000000e-01	1.79939799e-02	2.72673171e-04
2.38500000e-01	1.75827623e-02	2.68037624e-04
2.39000000e-01	1.76704029e-02	2.67404647e-04
2.39500000e-01	1.77748174e-02	2.68820755e-04
2.40000000e-01	1.74801969e-02	2.65230903e-04
2.40500000e-01	1.76182264e-02	2.64905060e-04
2.41000000e-01	1.78406734e-02	2.67994008e-04
2.41500000e-01	1.77635198e-02	2.66527337e-04
2.42000000e-01	1.74154930e-02	2.61600186e-04
2.42500000e-01	1.76205676e-02	2.64832367e-04
2.43000000e-01	1.77621671e-02	2.65833986e-04
2.43500000e-01	1.75036497e-02	2.62639382e-04
2.44000000e-01	1.75028107e-02	2.61210122e-04
2.44500000e-01	1.74354567e-02	2.60893061e-04
2.45000000e-01	1.74464270e-02	2.59923366e-04
2.45500000e-01	1.74758488e-02	2.59349464e-04
2.46000000e-01	1.76616248e-02	2.62416816e-04
2.46500000e-01	1.73758368e-02	2.58159952e-04
2.47000000e-01	1.77796037e-02	2.63585506e-04
2.47500000e-01	1.73777584e-02	2.57721367e-04
2.48000000e-01	1.73661656e-02	2.56413623e-04
2.48500000e-01	1.75602925e-02	2.58931478e-04
2.49000000e-01	1.74738678e-02	2.57556012e-04
2.49500000e-01	1.74781986e-02	2.57352994e-04
2.50000000e-01	1.74797507e-02	2.57318484e-04
2.50500000e-01	1.74263676e-02	2.56665869e-04
2.51000000e-01	1.74468020e-02	2.54732221e-04
2.51500000e-01	1.71677269e-02	2.52935415e-04
2.52000000e-01	1.75487239e-02	2.56368641e-04
2.52500000e-01	1.72966282e-02	2.53479096e-04
2.53000000e-01	1.73861484e-02	2.55114745e-04
2.53500000e-01	1.75343222e-02	2.56588421e-04
2.54000000e-01	1.74597286e-02	2.54974732e-04
2.54500000e-01	1.73624826e-02	2.53919442e-04
2.55000000e-01	1.74580347e-02	2.53675696e-04
2.55500000e-01	1.75495498e-02	2.55287325e-04
2.56000000e-01	1.76134671e-02	2.55988274e-04
2.56500000e-01	1.74952076e-02	2.54338464e-04
2.57000000e-01	1.72522159e-02	2.49537088e-04
2.57500000e-01	1.75470655e-02	2.52975355e-04
2.58000000e-01	1.73667291e-02	2.51773503e-04
2.58500000e-01	1.73486665e-02	2.51963627e-04
2.59000000e-01	1.72536101e-02	2.50201440e-04
2.59500000e-01	1.69955060e-02	2.46157014e-04
2.60000000e-01	1.72641681e-02	2.49399555e-04
2.60500000e-01	1.73368995e-02	2.49478825e-04
2.61000000e-01	1.70927660e-02	2.46180992e-04
2.61500000e-01	1.75098072e-02	2.51826765e-04
2.62000000e-01	1.74675366e-02	2.49839543e-04
2.62500000e-01	1.73156810e-02	2.48300343e-04
2.63000000e-01	1.73867915e-02	2.48894443e-04
2.63500000e-01	1.73781782e-02	2.47374559e-04
2.64000000e-01	1.71919300e-02	2.45965123e-04
2.64500000e-01	1.72183307e-02	2.45001545e-04
2.65000000e-01	1.72573273e-02	2.46750834e-04
2.65500000e-01	1.71898168e-02	2.44819890e-04
2.66000000e-01	1.72188370e-02	2.44664672e-04
2.66500000e-01	1.71147528e-02	2.43291094e-04
2.67000000e-01	1.71485344e-02	2.43483057e-04
2.67500000e-01	1.70843040e-02	2.42089952e-04
2.68000000e-01	1.70810227e-02	2.41990478e-04
2.68500000e-01	1.70831573e-02	2.43059042e-04
2.69000000e-01	1.72448995e-02	2.43618640e-04
2.69500000e-01	1.71777270e-02	2.42638003e-04
2.70000000e-01	1.72780999e-02	2.43352448e-04
2.70500000e-01	1.70474262e-02	2.39563798e-04
2.71000000e-01	1.75472658e-02	2.47349146e-04
2.71500000e-01	1.71741392e-02	2.41329567e-04
2.72000000e-01	1.71577189e-02	2.40537626e-04
2.72500000e-01	1.72055466e-02	2.41151778e-04
2.73000000e-01	1.71262115e-02	2.39825120e-04
2.73500000e-01	1.70802023e-02	2.39441240e-04
2.74000000e-01	1.71750965e-02	2.39892054e-04
2.74500000e-01	1.69624591e-02	2.37160382e-04
2.75000000e-01	1.71535422e-02	2.39468272e-04
2.75500000e-01	1.71228387e-02	2.39699997e-04
2.76000000e-01	1.69388863e-02	2.35658152e-04
2.76500000e-01	1.71013276e-02	2.37800184e-04
2.77000000e-01	1.70555820e-02	2.37540125e-04
2.77500000e-01	1.71776046e-02	2.39255574e-04
2.78000000e-01	1.71553369e-02	2.38871745e-04
2.78500000e-01	1.71534963e-02	2.38756525e-04
2.79000000e-01	1.70326859e-02	2.36307791e-04
2.79500000e-01	1.71014800e-02	2.36876980e-04
2.80000000e-01	1.70742329e-02	2.36587800e-04
2.80500000e-01	1.70176928e-02	2.35137377e-04
2.81000000e-01	1.70846462e-02	2.36615693e-04
2.81500000e-01	1.71250134e-02	2.36211251e-04
2.82000000e-01	1.67934448e-02	2.32610488e-04
2.82500000e-01	1.72345977e-02	2.37955961e-04
2.83000000e-01	1.70695320e-02	2.34853725e-04
2.83500000e-01	1.69123240e-02	2.33209560e-04
2.84000000e-01	1.70296465e-02	2.34140695e-04
2.84500000e-01	1.72042494e-02	2.35831438e-04
2.85000000e-01	1.68881568e-02	2.32507072e-04
2.85500000e-01	1.69454752e-02	2.32194524e-04
2.86000000e-01	1.69160420e-02	2.33314751e-04
2.86500000e-01	1.70925888e-02	2.33285699e-04
2.87000000e-01	1.70059560e-02	2.32791651e-04
2.87500000e-01	1.71152257e-02	2.32804993e-04
2.88000000e-01	1.68569249e-02	2.29729253e-04
2.88500000e-01	1.67781071e-02	2.29156917e-04
2.89000000e-01	1.68751254e-02	2.30405695e-04
2.89500000e-01	1.67302356e-02	2.28174947e-04
2.90000000e-01	1.67806014e-02	2.28240235e-04
2.90500000e-01	1.69246278e-02	2.29905720e-04
2.91000000e-01	1.68232925e-02	2.29203104e-04
2.91500000e-01	1.66876565e-02	2.26526270e-04
2.92000000e-01	1.69220275e-02	2.29016456e-04
2.92500000e-01	1.69435835e-02	2.28934703e-04
2.93000000e-01	1.69840663e-02	2.28816890e-04
2.93500000e-01	1.68649256e-02	2.27973493e-04
2.94000000e-01	1.65666754e-02	2.23675217e-04
2.94500000e-01	1.66611107e-02	2.26221625e-04
2.95000000e-01	1.66924480e-02	2.24460846e-04
2.95500000e-01	1.69107169e-02	2.28259911e-04
2.96000000e-01	1.68271425e-02	2.26213959e-04
2.96500000e-01	1.68902584e-02	2.26399836e-04
2.97000000e-01	1.67258464e-02	2.24639887e-04
2.97500000e-01	1.66221015e-02	2.23304789e-04
2.98000000e-01	1.66569974e-02	2.24105100e-04
2.98500000e-01	1.69219636e-02	2.27082477e-04
2.99000000e-01	1.68523107e-02	2.25171802e-04
2.99500000e-01	1.67339818e-02	2.24013297e-04
3.00000000e-01	1.69284690e-02	2.26607275e-04
3.00500000e-01	1.66481001e-02	2.23023874e-04
3.01000000e-01	1.66839300e-02	2.22604435e-04
3.01500000e-01	1.68197435e-02	2.23940701e-04
3.02000000e-01	1.66901104e-02	2.22706354e-04
3.02500000e-01	1.67613499e-02	2.22640839e-04
3.03000000e-01	1.66776090e-02	2.21380841e-04
3.03500000e-01	1.68636908e-02	2.23436142e-04
3.04000000e-01	1.69002912e-02	2.24429288e-04
3.04500000e-01	1.67312903e-02	2.21758051e-04
3.05000000e-01	1.67872224e-02	2.22135827e-04
3.05500000e-01	1.68446638e-02	2.23144403e-04
3.06000000e-01	1.67309831e-02	2.20266435e-04
3.06500000e-01	1.66772407e-02	2.20185451e-04
3.07000000e-01	1.66882104e-02	2.20116303e-04
3.07500000e-01	1.66109037e-02	2.18804220e-04
3.08000000e-01	1.66497624e-02	2.19656733e-04
3.08500000e-01	1.67794874e-02	2.20778424e-04
3.09000000e-01	1.65020874e-02	2.17459405e-04
3.09500000e-01	1.64958701e-02	2.17150817e-04
3.10000000e-01	1.65455419e-02	2.17401838e-04
3.10500000e-01	1.65657433e-02	2.17290617e-04
3.11000000e-01	1.66505016e-02	2.19457907e-04
3.11500000e-01	1.65070456e-02	2.17324279e-04
3.12000000e-01	1.63862926e-02	2.15008126e-04
3.12500000e-01	1.66301690e-02	2.18047565e-04
3.13000000e-01	1.64793382e-02	2.15035353e-04
3.13500000e-01	1.64139428e-02	2.14538179e-04
3.14000000e-01	1.66473973e-02	2.17590807e-04
3.14500000e-01	1.66404860e-02	2.17492024e-04
3.15000000e-01	1.64394989e-02	2.14708739e-04
3.15500000e-01	1.65187013e-02	2.15358326e-04
3.16000000e-01	1.65360267e-02	2.15673595e-04
3.16500000e-01	1.64940005e-02	2.14933316e-04
3.17000000e-01	1.64395547e-02	2.14055043e-04
3.17500000e-01	1.63851692e-02	2.13059914e-04
3.18000000e-01	1.63560887e-02	2.12229742e-04
3.18500000e-01	1.63445810e-02	2.12340242e-04
3.19000000e-01	1.63626608e-02	2.12002877e-04
3.19500000e-01	1.65088492e-02	2.14485517e-04
3.20000000e-01	1.62669232e-02	2.10996074e-04
3.20500000e-01	1.62611198e-02	2.11374962e-04
3.21000000e-01	1.65077108e-02	2.13627108e-04
3.21500000e-01	1.63621812e-02	2.11572850e-04
3.22000000e-01	1.64103661e-02	2.11973747e-04
3.22500000e-01	1.62694661e-02	2.09990274e-04
3.23000000e-01	1.64887904e-02	2.13100107e-04
3.23500000e-01	1.61342086e-02	2.09738964e-04
3.24000000e-01	1.63814307e-02	2.10615561e-04
3.24500000e-01	1.61245073e-02	2.08524915e-04
3.25000000e-01	1.62215521e-02	2.08889447e-04
3.25500000e-01	1.61592481e-02	2.07644490e-04
3.26000000e-01	1.61280115e-02	2.06921575e-04
3.26500000e-01	1.63077528e-02	2.09553593e-04
3.27000000e-01	1.61817943e-02	2.07946986e-04
3.27500000e-01	1.63429878e-02	2.09613562e-04
3.28000000e-01	1.62575647e-02	2.08575908e-04
3.28500000e-01	1.62313686e-02	2.08004060e-04
3.29000000e-01	1.62585880e-02	2.07718392e-04
3.29500000e-01	1.60673063e-02	2.05815368e-04
3.30000000e-01	1.62329832e-02	2.07188642e-04
3.30500000e-01	1.63751357e-02	2.09218049e-04
3.31000000e-01	1.60028643e-02	2.04191422e-04
3.31500000e-01	1.61266945e-02	2.05472382e-04
3.32000000e-01	1.59941653e-02	2.03808907e-04
3.32500000e-01	1.60572804e-02	2.03760734e-04
3.33000000e-01	1.61977051e-02	2.06040640e-04
3.33500000e-01	1.62383104e-02	2.06324128e-04
3.34000000e-01	1.60363538e-02	2.04019109e-04
3.34500000e-01	1.60844221e-02	2.04320158e-04
3.35000000e-01	1.60879134e-02	2.04087045e-04
3.35500000e-01	1.61180508e-02	2.04937586e-04
3.36000000e-01	1.60268500e-02	2.03431001e-04
3.36500000e-01	1.60397262e-02	2.02692415e-04
3.37000000e-01	1.60459132e-02	2.02239951e-04
3.37500000e-01	1.59161202e-02	2.01363786e-04
3.38000000e-01	1.60762258e-02	2.02776359e-04
3.38500000e-01	1.60552943e-02	2.02540319e-04
3.39000000e-01	1.59516129e-02	2.01795303e-04
3.39500000e-01	1.60529442e-02	2.02591237e-04
3.40000000e-01	1.61449188e-02	2.03369732e-04
3.40500000e-01	1.57931922e-02	1.98775723e-04
3.41000000e-01	1.60350369e-02	2.01945226e-04
3.41500000e-01	1.60532749e-02	2.02335654e-04
3.42000000e-01	1.59895733e-02	2.00840920e-04
3.42500000e-01	1.60204431e-02	2.01353891e-04
3.43000000e-01	1.60422171e-02	2.00985915e-04
3.43500000e-01	1.59249774e-02	1.99013838e-04
3.44000000e-01	1.60181015e-02	2.00997642e-04
3.44500000e-01	1.59870815e-02	2.00469887e-04
3.45000000e-01	1.60386809e-02	2.00693238e-04
3.45500000e-01	1.59490133e-02	1.98671705e-04
3.46000000e-01	1.57448154e-02	1.97879145e-04
3.46500000e-01	1.58781041e-02	1.98310565e-04
3.47000000e-01	1.58479490e-02	1.97146621e-04
3.47500000e-01	1.59828370e-02	1.99265942e-04
3.48000000e-01	1.58756786e-02	1.97874201e-04
3.48500000e-01	1.58354672e-02	1.97393356e-04
3.49000000e-01	1.58152748e-02	1.96843383e-04
3.49500000e-01	1.60979893e-02	2.00654834e-04
3.50000000e-01	1.58838038e-02	1.61057014e-04
3.51000000e-01	1.59374549e-02	1.39585928e-04
3.52000000e-01	1.57831533e-02	1.38270420e-04
3.53000000e-01	1.58579818e-02	1.38180428e-04
3.54000000e-01	1.59523500e-02	1.38887776e-04
3.55000000e-01	1.58031995e-02	1.37466315e-04
3.56000000e-01	1.58862174e-02	1.38905811e-04
3.57000000e-01	1.58114262e-02	1.40489690e-04
3.58000000e-01	1.56664548e-02	1.40671799e-04
3.59000000e-01	1.56797496e-02	1.42036234e-04
3.60000000e-01	1.55562107e-02	1.41909911e-04
3.61000000e-01	1.55391693e-02	1.42008768e-04
3.62000000e-01	1.56911333e-02	1.44536721e-04
3.63000000e-01	1.54862037e-02	1.43709302e-04
3.64000000e-01	1.55205584e-02	1.44099114e-04
3.65000000e-01	1.55584973e-02	1.44517829e-04
3.66000000e-01	1.56851319e-02	1.44169867e-04
3.67000000e-01	1.55818556e-02	1.41132792e-04
3.68000000e-01	1.55911075e-02	1.40147648e-04
3.69000000e-01	1.55657144e-02	1.39240323e-04
3.70000000e-01	1.55151925e-02	1.38388053e-04
3.71000000e-01	1.55819839e-02	1.40325867e-04
3.72000000e-01	1.56216616e-02	1.41954192e-04
3.73000000e-01	1.57118374e-02	1.42911697e-04
3.74000000e-01	1.55072341e-02	1.41266493e-04
3.75000000e-01	1.54970336e-02	1.41255671e-04
3.76000000e-01	1.55117903e-02	1.41309025e-04
3.77000000e-01	1.54322152e-02	1.41046927e-04
3.78000000e-01	1.54777570e-02	1.40900940e-04
3.79000000e-01	1.53928106e-02	1.40099353e-04
3.80000000e-01	1.52893333e-02	1.39525832e-04
3.81000000e-01	1.54104461e-02	1.40192888e-04
3.82000000e-01	1.53912262e-02	1.39418991e-04
3.83000000e-01	1.53717479e-02	1.40031638e-04
3.84000000e-01	1.54281041e-02	1.40542564e-04
3.85000000e-01	1.53864606e-02	1.39964047e-04
3.86000000e-01	1.53293830e-02	1.39333705e-04
3.87000000e-01	1.54370624e-02	1.40233597e-04
3.88000000e-01	1.52084804e-02	1.38249266e-04
3.89000000e-01	1.52829025e-02	1.39195198e-04
3.90000000e-01	1.52881173e-02	1.39079747e-04
3.91000000e-01	1.52034226e-02	1.38109640e-04
3.92000000e-01	1.53612920e-02	1.39240658e-04
3.93000000e-01	1.52381402e-02	1.38146917e-04
3.94000000e-01	1.52987656e-02	1.38679262e-04
3.95000000e-01	1.52043235e-02	1.37659261e-04
3.96000000e-01	1.51898345e-02	1.37633879e-04
3.97000000e-01	1.52246558e-02	1.38061681e-04
3.98000000e-01	1.51156439e-02	1.37340370e-04
3.99000000e-01	1.49276651e-02	1.35668150e-04
4.00000000e-01	1.51615960e-02	1.37480183e-04
4.01000000e-01	1.51553428e-02	1.37484263e-04
4.02000000e-01	1.50932756e-02	1.37187563e-04
4.03000000e-01	1.50319097e-02	1.36535527e-04
4.04000000e-01	1.51214016e-02	1.36966590e-04
4.05000000e-01	1.49982980e-02	1.36086799e-04
4.06000000e-01	1.51926318e-02	1.37620591e-04
4.07000000e-01	1.51603846e-02	1.37550973e-04
4.08000000e-01	1.50855341e-02	1.36894077e-04
4.09000000e-01	1.50535750e-02	1.36120711e-04
4.10000000e-01	1.50592188e-02	1.36163734e-04
4.11000000e-01	1.50222691e-02	1.35632193e-04
4.12000000e-01	1.49346953e-02	1.35297299e-04
4.13000000e-01	1.50457688e-02	1.36247568e-04
4.14000000e-01	1.49372683e-02	1.35044905e-04
4.15000000e-01	1.48954499e-02	1.34843577e-04
4.16000000e-01	1.50226167e-02	1.35558421e-04
4.17000000e-01	1.48902769e-02	1.34819891e-04
4.18000000e-01	1.49284336e-02	1.36070631e-04
4.19000000e-01	1.51040826e-02	1.39617451e-04
4.20000000e-01	1.50331992e-02	1.40005948e-04
4.21000000e-01	1.50887796e-02	1.40161872e-04
4.22000000e-01	1.50679480e-02	1.40877193e-04
4.23000000e-01	1.49713306e-02	1.40427759e-04
4.24000000e-01	1.50311311e-02	1.41384383e-04
4.25000000e-01	1.50559009e-02	1.42088931e-04
4.26000000e-01	1.50201964e-02	1.41511526e-04
4.27000000e-01	1.49677352e-02	1.41388529e-04
4.28000000e-01	1.48776690e-02	1.40384008e-04
4.29000000e-01	1.49232362e-02	1.41437129e-04
4.30000000e-01	1.49171151e-02	1.41241174e-04
4.31000000e-01	1.48817331e-02	1.40701627e-04
4.32000000e-01	1.49517603e-02	1.41648120e-04
4.33000000e-01	1.48871124e-02	1.41057459e-04
4.34000000e-01	1.48984864e-02	1.40897094e-04
4.35000000e-01	1.47949967e-02	1.40710462e-04
4.36000000e-01	1.47732555e-02	1.40372627e-04
4.37000000e-01	1.48520991e-02	1.40822654e-04
4.38000000e-01	1.48687982e-02	1.41643824e-04
4.39000000e-01	1.47357238e-02	1.40816076e-04
4.40000000e-01	1.48204338e-02	1.41305754e-04
4.41000000e-01	1.48116518e-02	1.41477633e-04
4.42000000e-01	1.48816989e-02	1.42620313e-04
4.43000000e-01	1.46127264e-02	1.40222026e-04
4.44000000e-01	1.47894907e-02	1.41659189e-04
4.45000000e-01	1.47075805e-02	1.41906951e-04
4.46000000e-01	1.46721889e-02	1.41043648e-04
4.47000000e-01	1.48579437e-02	1.43130928e-04
4.48000000e-01	1.47891526e-02	1.42179066e-04
4.49000000e-01	1.47951401e-02	1.42596297e-04
4.50000000e-01	1.46382849e-02	1.41942254e-04
4.51000000e-01	1.44902240e-02	1.40899760e-04
4.52000000e-01	1.47397657e-02	1.42851167e-04
4.53000000e-01	1.47336696e-02	1.42552619e-04
4.54000000e-01	1.45449646e-02	1.41028202e-04
4.55000000e-01	1.48120075e-02	1.43635538e-04
4.56000000e-01	1.45712070e-02	1.41723268e-04
4.57000000e-01	1.45937432e-02	1.41821603e-04
4.58000000e-01	1.47453798e-02	1.42947312e-04
4.59000000e-01	1.46264077e-02	1.42767152e-04
4.60000000e-01	1.45788773e-02	1.42345712e-04
4.61000000e-01	1.45481359e-02	1.42306434e-04
4.62000000e-01	1.45902941e-02	1.41853703e-04
4.63000000e-01	1.46100473e-02	1.42622654e-04
4.64000000e-01	1.46249004e-02	1.43108693e-04
4.65000000e-01	1.44625906e-02	1.41761635e-04
4.66000000e-01	1.47081225e-02	1.43711601e-04
4.67000000e-01	1.46401206e-02	1.43672892e-04
4.68000000e-01	1.45192574e-02	1.42435163e-04
4.69000000e-01	1.44284488e-02	1.41354470e-04
4.70000000e-01	1.46341560e-02	1.43473740e-04
4.71000000e-01	1.45211790e-02	1.42775588e-04
4.72000000e-01	1.46376467e-02	1.43385576e-04
4.73000000e-01	1.44252655e-02	1.41482024e-04
4.74000000e-01	1.44384385e-02	1.41428311e-04
4.75000000e-01	1.44510444e-02	1.42015264e-04
4.76000000e-01	1.45552203e-02	1.42400382e-04
4.77000000e-01	1.44627273e-02	1.42621783e-04
4.78000000e-01	1.43457597e-02	1.41127116e-04
4.79000000e-01	1.43683691e-02	1.41391478e-04
4.80000000e-01	1.43561086e-02	1.41364552e-04
4.81000000e-01	1.43684162e-02	1.41246233e-04
4.82000000e-01	1.43636124e-02	1.41406570e-04
4.83000000e-01	1.42585827e-02	1.40516077e-04
4.84000000e-01	1.43098728e-02	1.40638329e-04
4.85000000e-01	1.42873209e-02	1.40809531e-04
4.86000000e-01	1.43223745e-02	1.40986788e-04
4.87000000e-01	1.43505071e-02	1.41544146e-04
4.88000000e-01	1.43285657e-02	1.40987025e-04
4.89000000e-01	1.44044431e-02	1.42465996e-04
4.90000000e-01	1.43663712e-02	1.41565336e-04
4.91000000e-01	1.42174734e-02	1.40585692e-04
4.92000000e-01	1.42473236e-02	1.41330967e-04
4.93000000e-01	1.42877737e-02	1.41514322e-04
4.94000000e-01	1.42925532e-02	1.41327931e-04
4.95000000e-01	1.42847657e-02	1.42576647e-04
4.96000000e-01	1.41770759e-02	1.46025972e-04
4.97000000e-01	1.43126078e-02	1.49761702e-04
4.98000000e-01	1.42455543e-02	1.51251239e-04
4.99000000e-01	1.42323124e-02	1.52563211e-04
5.00000000e-01	1.42569203e-02	1.54950150e-04
5.01000000e-01	1.43695796e-02	1.57140691e-04
5.02000000e-01	1.42325842e-02	1.57255883e-04
5.03000000e-01	1.44817834e-02	1.61383344e-04
5.04000000e-01	1.43215687e-02	1.61052151e-04
5.05000000e-01	1.41972571e-02	1.57086547e-04
5.06000000e-01	1.42363444e-02	1.54565084e-04
5.07000000e-01	1.42937148e-02	1.53092384e-04
5.08000000e-01	1.41965230e-02	1.51077291e-04
5.09000000e-01	1.42196151e-02	1.50990144e-04
5.10000000e-01	1.42848382e-02	1.51288562e-04
5.11000000e-01	1.44055287e-02	1.51446558e-04
5.12000000e-01	1.42038182e-02	1.49726044e-04
5.13000000e-01	1.42406803e-02	1.49686332e-04
5.14000000e-01	1.42160607e-02	1.48857890e-04
5.15000000e-01	1.41224571e-02	1.47395852e-04
5.16000000e-01	1.41547151e-02	1.48087092e-04
5.17000000e-01	1.41180873e-02	1.46975410e-04
5.18000000e-01	1.40867466e-02	1.46577060e-04
5.19000000e-01	1.40140368e-02	1.45700763e-04
5.20000000e-01	1.41119164e-02	1.45648413e-04
5.21000000e-01	1.41251922e-02	1.46061443e-04
5.22000000e-01	1.41982151e-02	1.46778501e-04
5.23000000e-01	1.40518573e-02	1.45278174e-04
5.24000000e-01	1.41060483e-02	1.45576772e-04
5.25000000e-01	1.40405340e-02	1.45141390e-04
5.26000000e-01	1.39652017e-02	1.44127852e-04
5.27000000e-01	1.41887038e-02	1.46493694e-04
5.28000000e-01	1.39688083e-02	1.44181225e-04
5.29000000e-01	1.40196900e-02	1.45071878e-04
5.30000000e-01	1.39926647e-02	1.44429878e-04
5.31000000e-01	1.39859456e-02	1.44705662e-04
5.32000000e-01	1.39267331e-02	1.43693154e-04
5.33000000e-01	1.39499636e-02	1.44286043e-04
5.34000000e-01	1.39816953e-02	1.44549507e-04
5.35000000e-01	1.40040226e-02	1.44235032e-04
5.36000000e-01	1.39112743e-02	1.43995074e-04
5.37000000e-01	1.39505562e-02	1.44246262e-04
5.38000000e-01	1.39215658e-02	1.43817828e-04
5.39000000e-01	1.38714543e-02	1.43233528e-04
5.40000000e-01	1.39002661e-02	1.43409758e-04
5.41000000e-01	1.38785505e-02	1.43653902e-04
5.42000000e-01	1.37445750e-02	1.41849089e-04
5.43000000e-01	1.39001778e-02	1.43781679e-04
5.44000000e-01	1.38464640e-02	1.43480383e-04
5.45000000e-01	1.38702210e-02	1.43448187e-04
5.46000000e-01	1.37560532e-02	1.42246539e-04
5.47000000e-01	1.37944794e-02	1.43121769e-04
5.48000000e-01	1.37913344e-02	1.42557495e-04
5.49000000e-01	1.37888583e-02	1.42368271e-04
5.50000000e-01	1.37714610e-02	1.42486681e-04
5.51000000e-01	1.38625266e-02	1.42493885e-04
5.52000000e-01	1.38261606e-02	1.42660725e-04
5.53000000e-01	1.37940133e-02	1.41601227e-04
5.54000000e-01	1.37132747e-02	1.41255283e-04
5.55000000e-01	1.37020584e-02	1.41105541e-04
5.56000000e-01	1.37289828e-02	1.40996432e-04
5.57000000e-01	1.36828974e-02	1.40777062e-04
5.58000000e-01	1.37597517e-02	1.41466585e-04
5.59000000e-01	1.37937647e-02	1.41784217e-04
5.60000000e-01	1.36844245e-02	1.40743253e-04
5.61000000e-01	1.36808239e-02	1.40645093e-04
5.62000000e-01	1.37000101e-02	1.40399961e-04
5.63000000e-01	1.36138845e-02	1.40141062e-04
5.64000000e-01	1.36995463e-02	1.41109119e-04
5.65000000e-01	1.35940427e-02	1.39871504e-04
5.66000000e-01	1.36253758e-02	1.40380276e-04
5.67000000e-01	1.37382349e-02	1.41257514e-04
5.68000000e-01	1.35856485e-02	1.40043985e-04
5.69000000e-01	1.36008572e-02	1.39533716e-04
5.70000000e-01	1.34788903e-02	1.38464277e-04
5.71000000e-01	1.37104367e-02	1.40669574e-04
5.72000000e-01	1.36234911e-02	1.40125850e-04
5.73000000e-01	1.34919163e-02	1.38698213e-04
5.74000000e-01	1.34439774e-02	1.38085117e-04
5.75000000e-01	1.34625701e-02	1.39162611e-04
5.76000000e-01	1.35077189e-02	1.39054634e-04
5.77000000e-01	1.34358443e-02	1.38897218e-04
5.78000000e-01	1.35661346e-02	1.39790085e-04
5.79000000e-01	1.33447487e-02	1.37765302e-04
5.80000000e-01	1.34552124e-02	1.39139703e-04
5.81000000e-01	1.34023436e-02	1.38546378e-04
5.82000000e-01	1.34584910e-02	1.38615318e-04
5.83000000e-01	1.32864590e-02	1.37327376e-04
5.84000000e-01	1.34580744e-02	1.38860435e-04
5.85000000e-01	1.34572374e-02	1.38980373e-04
5.86000000e-01	1.34477256e-02	1.38664346e-04
5.87000000e-01	1.33093860e-02	1.37707125e-04
5.88000000e-01	1.32859311e-02	1.37345137e-04
5.89000000e-01	1.32357827e-02	1.36762895e-04
5.90000000e-01	1.33336654e-02	1.37907114e-04
5.91000000e-01	1.33112162e-02	1.37973386e-04
5.92000000e-01	1.34868546e-02	1.39527992e-04
5.93000000e-01	1.34494077e-02	1.39180799e-04
5.94000000e-01	1.33159807e-02	1.37753617e-04
5.95000000e-01	1.33135012e-02	1.37956097e-04
5.96000000e-01	1.31492908e-02	1.36708399e-04
5.97000000e-01	1.32518452e-02	1.37643184e-04
5.98000000e-01	1.31369541e-02	1.36138269e-04
5.99000000e-01	1.33242480e-02	1.38149547e-04
6.00000000e-01	1.31634770e-02	1.36732758e-04
6.01000000e-01	1.32953235e-02	1.37774764e-04
6.02000000e-01	1.32174269e-02	1.36994439e-04
6.03000000e-01	1.32885402e-02	1.37772826e-04
6.04000000e-01	1.32406958e-02	1.36966940e-04
6.05000000e-01	1.32699181e-02	1.37393679e-04
6.06000000e-01	1.32065907e-02	1.37045619e-04
6.07000000e-01	1.31118927e-02	1.36421667e-04
6.08000000e-01	1.32728340e-02	1.37628727e-04
6.09000000e-01	1.32330934e-02	1.37318174e-04
6.10000000e-01	1.33467026e-02	1.38371120e-04
6.11000000e-01	1.33102012e-02	1.38023194e-04
6.12000000e-01	1.31381708e-02	1.37191668e-04
6.13000000e-01	1.30906569e-02	1.36320287e-04
6.14000000e-01	1.32390509e-02	1.37574634e-04
6.15000000e-01	1.30533006e-02	1.35713613e-04
6.16000000e-01	1.30916608e-02	1.36509553e-04
6.17000000e-01	1.32683047e-02	1.37934052e-04
6.18000000e-01	1.31685745e-02	1.37229234e-04
6.19000000e-01	1.30825092e-02	1.35674837e-04
6.20000000e-01	1.31474514e-02	1.36219232e-04
6.21000000e-01	1.31417389e-02	1.36001308e-04
6.22000000e-01	1.31905842e-02	1.36275527e-04
6.23000000e-01	1.31305403e-02	1.35772439e-04
6.24000000e-01	1.31265625e-02	1.35312500e-04
6.25000000e-01	1.30715623e-02	1.34609241e-04
6.26000000e-01	1.30822302e-02	1.34482319e-04
6.27000000e-01	1.30695718e-02	1.34925760e-04
6.28000000e-01	1.29174824e-02	1.33499027e-04
6.29000000e-01	1.30777805e-02	1.34902653e-04
6.30000000e-01	1.29851075e-02	1.34197151e-04
6.31000000e-01	1.29668539e-02	1.34025630e-04
6.32000000e-01	1.30066594e-02	1.34586200e-04
6.33000000e-01	1.29749150e-02	1.33882071e-04
6.34000000e-01	1.30415438e-02	1.37752312e-04
6.35000000e-01	1.30977617e-02	1.42445510e-04
6.36000000e-01	1.29985486e-02	1.44118997e-04
6.37000000e-01	1.30974057e-02	1.46741325e-04
6.38000000e-01	1.29224356e-02	1.47835021e-04
6.39000000e-01	1.29891024e-02	1.50154624e-04
6.40000000e-01	1.30920834e-02	1.53464584e-04
6.41000000e-01	1.30073892e-02	1.53588451e-04
6.42000000e-01	1.30014635e-02	1.55302595e-04
6.43000000e-01	1.29863069e-02	1.55330401e-04
6.44000000e-01	1.30404178e-02	1.50464800e-04
6.45000000e-01	1.31970301e-02	1.49647173e-04
6.46000000e-01	1.31061142e-02	1.47947703e-04
6.47000000e-01	1.30485161e-02	1.45850025e-04
6.48000000e-01	1.29312666e-02	1.43816333e-04
6.49000000e-01	1.29032884e-02	1.42781049e-04
6.50000000e-01	1.29591134e-02	1.42302890e-04
6.51000000e-01	1.29774257e-02	1.42641869e-04
6.52000000e-01	1.28659850e-02	1.40015175e-04
6.53000000e-01	1.29424006e-02	1.40617353e-04
6.54000000e-01	1.29268041e-02	1.40061585e-04
6.55000000e-01	1.29172283e-02	1.39880524e-04
6.56000000e-01	1.28738959e-02	1.39081892e-04
6.57000000e-01	1.30451551e-02	1.40811195e-04
6.58000000e-01	1.28549698e-02	1.38780642e-04
6.59000000e-01	1.30372291e-02	1.40246185e-04
6.60000000e-01	1.30927986e-02	1.40675716e-04
6.61000000e-01	1.29534521e-02	1.38773973e-04
6.62000000e-01	1.30913445e-02	1.40803629e-04
6.63000000e-01	1.28373872e-02	1.38211379e-04
6.64000000e-01	1.29388312e-02	1.38491136e-04
6.65000000e-01	1.28832506e-02	1.38328051e-04
6.66000000e-01	1.29742805e-02	1.38975769e-04
6.67000000e-01	1.29430540e-02	1.38581086e-04
6.68000000e-01	1.28232207e-02	1.37474777e-04
6.69000000e-01	1.27732190e-02	1.36525359e-04
6.70000000e-01	1.28162822e-02	1.37281587e-04
6.71000000e-01	1.28842820e-02	1.37607889e-04
6.72000000e-01	1.29139075e-02	1.38017998e-04
6.73000000e-01	1.27234499e-02	1.36054164e-04
6.74000000e-01	1.26766816e-02	1.35795858e-04
6.75000000e-01	1.28681333e-02	1.37585032e-04
6.76000000e-01	1.27405824e-02	1.36571392e-04
6.77000000e-01	1.28536340e-02	1.37150876e-04
6.78000000e-01	1.27992341e-02	1.36485887e-04
6.79000000e-01	1.26887885e-02	1.35978645e-04
6.80000000e-01	1.28525983e-02	1.36707659e-04
6.81000000e-01	1.27559850e-02	1.36410431e-04
6.82000000e-01	1.27779812e-02	1.36834292e-04
6.83000000e-01	1.27554157e-02	1.36355602e-04
6.84000000e-01	1.26736921e-02	1.34847078e-04
6.85000000e-01	1.26974921e-02	1.35246980e-04
6.86000000e-01	1.27345370e-02	1.35730171e-04
6.87000000e-01	1.27432097e-02	1.35747990e-04
6.88000000e-01	1.29256278e-02	1.37586782e-04
6.89000000e-01	1.27308606e-02	1.35567832e-04
6.90000000e-01	1.25962594e-02	1.34758050e-04
6.91000000e-01	1.26702039e-02	1.35019785e-04
6.92000000e-01	1.27663234e-02	1.36008678e-04
6.93000000e-01	1.26645432e-02	1.34908333e-04
6.94000000e-01	1.26386980e-02	1.35102728e-04
6.95000000e-01	1.25828171e-02	1.34468390e-04
6.96000000e-01	1.25741474e-02	1.34545638e-04
6.97000000e-01	1.26058193e-02	1.34361990e-04
6.98000000e-01	1.25824968e-02	1.34113038e-04
6.99000000e-01	1.27243191e-02	1.35542374e-04
7.00000000e-01	1.25539039e-02	1.33843098e-04
7.01000000e-01	1.25887304e-02	1.34159879e-04
7.02000000e-01	1.26879464e-02	1.35427295e-04
7.03000000e-01	1.25704183e-02	1.33717171e-04
7.04000000e-01	1.25119357e-02	1.33752807e-04
7.05000000e-01	1.25581786e-02	1.34006645e-04
7.06000000e-01	1.26753102e-02	1.35161851e-04
7.07000000e-01	1.25793221e-02	1.33531652e-04
7.08000000e-01	1.24227161e-02	1.32009416e-04
7.09000000e-01	1.25046268e-02	1.32906746e-04
7.10000000e-01	1.23433223e-02	1.31953733e-04
7.11000000e-01	1.23715547e-02	1.31744130e-04
7.12000000e-01	1.24140319e-02	1.32139026e-04
7.13000000e-01	1.24656654e-02	1.32649140e-04
7.14000000e-01	1.24487197e-02	1.32751763e-04
7.15000000e-01	1.25258421e-02	1.33532504e-04
7.16000000e-01	1.24219676e-02	1.32125223e-04
7.17000000e-01	1.23467557e-02	1.31927951e-04
7.18000000e-01	1.24729868e-02	1.32865235e-04
7.19000000e-01	1.24390958e-02	1.32770441e-04
7.20000000e-01	1.23151365e-02	1.31256956e-04
7.21000000e-01	1.22949316e-02	1.31216591e-04
7.22000000e-01	1.23539706e-02	1.31489688e-04
7.23000000e-01	1.23459070e-02	1.31419556e-04
7.24000000e-01	1.24132415e-02	1.32682347e-04
7.25000000e-01	1.23357813e-02	1.31685516e-04
7.26000000e-01	1.22514418e-02	1.30839737e-04
7.27000000e-01	1.22331300e-02	1.30987643e-04
7.28000000e-01	1.23159313e-02	1.31397946e-04
7.29000000e-01	1.23419768e-02	1.31984364e-04
7.30000000e-01	1.23276240e-02	1.31308608e-04
7.31000000e-01	1.20986355e-02	1.29196957e-04
7.32000000e-01	1.21479028e-02	1.30031008e-04
7.33000000e-01	1.21421499e-02	1.30001045e-04
7.34000000e-01	1.22013654e-02	1.30232571e-04
7.35000000e-01	1.21729614e-02	1.29873018e-04
7.36000000e-01	1.22911064e-02	1.30651136e-04
7.37000000e-01	1.21225183e-02	1.28861178e-04
7.38000000e-01	1.22010625e-02	1.28909526e-04
7.39000000e-01	1.22521728e-02	1.29793663e-04
7.40000000e-01	1.22604134e-02	1.29747126e-04
7.41000000e-01	1.21269576e-02	1.28202307e-04
7.42000000e-01	1.22199751e-02	1.28874585e-04
7.43000000e-01	1.21516427e-02	1.28550925e-04
7.44000000e-01	1.21002072e-02	1.27922125e-04
7.45000000e-01	1.20744311e-02	1.27787667e-04
7.46000000e-01	1.20383515e-02	1.27261667e-04
7.47000000e-01	1.22219731e-02	1.28724758e-04
7.48000000e-01	1.19818886e-02	1.26917492e-04
7.49000000e-01	1.21481134e-02	1.28404586e-04
7.50000000e-01	1.19977209e-02	1.26801201e-04
7.51000000e-01	1.20049210e-02	1.27255757e-04
7.52000000e-01	1.19970266e-02	1.26931594e-04
7.53000000e-01	1.20346007e-02	1.27334710e-04
7.54000000e-01	1.21084062e-02	1.28299403e-04
7.55000000e-01	1.20932443e-02	1.27978115e-04
7.56000000e-01	1.19654866e-02	1.26665085e-04
7.57000000e-01	1.20582975e-02	1.27628658e-04
7.58000000e-01	1.19826899e-02	1.26959281e-04
7.59000000e-01	1.19358179e-02	1.26369532e-04
7.60000000e-01	1.19772614e-02	1.26620144e-04
7.61000000e-01	1.19776293e-02	1.26345868e-04
7.62000000e-01	1.20088208e-02	1.26289169e-04
7.63000000e-01	1.19363803e-02	1.25527937e-04
7.64000000e-01	1.19552023e-02	1.25557638e-04
7.65000000e-01	1.19553671e-02	1.25410949e-04
7.66000000e-01	1.19964710e-02	1.25365456e-04
7.67000000e-01	1.19439259e-02	1.25196616e-04
7.68000000e-01	1.18657503e-02	1.24263891e-04
7.69000000e-01	1.19385740e-02	1.25665514e-04
7.70000000e-01	1.18234172e-02	1.23990867e-04
7.71000000e-01	1.17935390e-02	1.24110752e-04
7.72000000e-01	1.17174421e-02	1.26934266e-04
7.73000000e-01	1.18346325e-02	1.32301167e-04
7.74000000e-01	1.18601035e-02	1.35061979e-04
7.75000000e-01	1.18449023e-02	1.36896820e-04
7.76000000e-01	1.17566269e-02	1.38692649e-04
7.77000000e-01	1.18260704e-02	1.41583198e-04
7.78000000e-01	1.16675633e-02	1.41374785e-04
7.79000000e-01	1.18846376e-02	1.45167926e-04
7.80000000e-01	1.16581263e-02	1.45151969e-04
7.81000000e-01	1.17467738e-02	1.47480214e-04
7.82000000e-01	1.17628525e-02	1.49060173e-04
7.83000000e-01	1.17401215e-02	1.50490348e-04
7.84000000e-01	1.17214232e-02	1.51799454e-04
7.85000000e-01	1.17200337e-02	1.53590719e-04
7.86000000e-01	1.16496656e-02	1.53881469e-04
7.87000000e-01	1.16708177e-02	1.55231258e-04
7.88000000e-01	1.14995816e-02	1.56145183e-04
7.89000000e-01	1.16551341e-02	1.58512835e-04
7.90000000e-01	1.15990768e-02	1.59076559e-04
7.91000000e-01	1.16674353e-02	1.62290052e-04
7.92000000e-01	1.15738334e-02	1.63052421e-04
7.93000000e-01	1.13447789e-02	1.61279755e-04
7.94000000e-01	1.15815045e-02	1.65909471e-04
7.95000000e-01	1.16994251e-02	1.68845248e-04
7.96000000e-01	1.16396912e-02	1.70171449e-04
7.97000000e-01	1.15883645e-02	1.71335712e-04
7.98000000e-01	1.15964240e-02	1.73092795e-04
7.99000000e-01	1.16346334e-02	1.75598348e-04
8.00000000e-01	1.14354887e-02	1.74293621e-04
8.01000000e-01	1.14954385e-02	1.77185107e-04
8.02000000e-01	1.12793608e-02	1.76238129e-04
8.03000000e-01	1.14350476e-02	1.80331390e-04
8.04000000e-01	1.15224464e-02	1.82758202e-04
8.05000000e-01	1.13658309e-02	1.83332747e-04
8.06000000e-01	1.14557524e-02	1.86363188e-04
8.07000000e-01	1.11675909e-02	1.83363530e-04
8.08000000e-01	1.15125242e-02	1.91199956e-04
8.09000000e-01	1.14328723e-02	1.92349420e-04
8.10000000e-01	1.14060908e-02	1.93823873e-04
8.11000000e-01	1.12590163e-02	1.93652118e-04
8.12000000e-01	1.12683730e-02	1.95820641e-04
8.13000000e-01	1.12728991e-02	1.99004682e-04
8.14000000e-01	1.12682009e-02	2.00015108e-04
8.15000000e-01	1.14015290e-02	2.04959705e-04
8.16000000e-01	1.14839597e-02	2.08291553e-04
8.17000000e-01	1.12633651e-02	2.08033229e-04
8.18000000e-01	1.11994218e-02	2.08131588e-04
8.19000000e-01	1.14136800e-02	2.15057329e-04
8.20000000e-01	1.12779126e-02	2.15828644e-04
8.21000000e-01	1.13091717e-02	2.20546289e-04
8.22000000e-01	1.12591330e-02	2.21037134e-04
8.23000000e-01	1.12156677e-02	2.23123787e-04
8.24000000e-01	1.13064361e-02	2.28620333e-04
8.25000000e-01	1.09937019e-02	2.26782482e-04
8.26000000e-01	1.10931072e-02	2.32224895e-04
8.27000000e-01	1.10839459e-02	2.33208865e-04
8.28000000e-01	1.11258455e-02	2.37600291e-04
8.29000000e-01	1.10650381e-02	2.40017904e-04
8.30000000e-01	1.13100271e-02	2.50189481e-04
8.31000000e-01	1.10785832e-02	2.49536698e-04
8.32000000e-01	1.08631398e-02	2.48155062e-04
8.33000000e-01	1.07491778e-02	2.51675384e-04
8.34000000e-01	1.10013103e-02	2.61436172e-04
8.35000000e-01	1.08665111e-02	2.60549742e-04
8.36000000e-01	1.11546971e-02	2.72519040e-04
8.37000000e-01	1.09817911e-02	2.76002041e-04
8.38000000e-01	1.08342464e-02	2.77960209e-04
8.39000000e-01	1.10088253e-02	2.86394789e-04
8.40000000e-01	1.09595237e-02	2.92175598e-04
8.41000000e-01	1.10250035e-02	3.00294082e-04
8.42000000e-01	1.08592877e-02	3.06701700e-04
8.43000000e-01	1.07453476e-02	3.04644073e-04
8.44000000e-01	1.10859399e-02	3.22198582e-04
8.45000000e-01	1.08671175e-02	3.27075094e-04
8.46000000e-01	1.06990089e-02	3.28774865e-04
8.47000000e-01	1.10211632e-02	3.48809378e-04
8.48000000e-01	1.06522117e-02	3.48333172e-04
8.49000000e-01	1.08402182e-02	3.63679453e-04
8.50000000e-01	1.08228982e-02	3.76222738e-04
8.51000000e-01	1.06066895e-02	3.84594338e-04
8.52000000e-01	1.06735991e-02	4.00163802e-04
8.53000000e-01	1.09592333e-02	4.29202676e-04
8.54000000e-01	1.07076911e-02	4.40202268e-04
8.55000000e-01	1.02291779e-02	4.37709243e-04
8.56000000e-01	1.04863189e-02	4.64166378e-04
8.57000000e-01	1.09898163e-02	4.86580012e-04
8.58000000e-01	1.07228152e-02	4.96805850e-04
8.59000000e-01	1.03182566e-02	4.96607971e-04
8.60000000e-01	1.03141399e-02	5.01647142e-04
8.61000000e-01	1.09124448e-02	5.52975269e-04
8.62000000e-01	1.09854310e-02	5.85952111e-04
8.63000000e-01	1.07176085e-02	5.90776794e-04
8.64000000e-01	1.03922595e-02	5.98337761e-04
8.65000000e-01	1.05551949e-02	6.37870327e-04
8.66000000e-01	1.03227714e-02	6.79559654e-04
8.67000000e-01	1.01111915e-02	6.87976004e-04
8.68000000e-01	1.09433965e-02	7.94486451e-04
8.69000000e-01	1.05552763e-02	7.82691163e-04
8.70000000e-01	1.07561984e-02	9.00734534e-04
8.71000000e-01	1.13877232e-02	1.05462470e-03
8.72000000e-01	1.09270857e-02	1.14345353e-03
8.73000000e-01	9.08196152e-03	1.07576609e-03
8.74000000e-01	1.16984940e-02	1.96073426e-03
8.75000000e-01	1.24123838e-02	4.08299160e-03
