% Filename : SDL7_00012_00096.h5
% Date & Time : 30-Oct-2025 14:51:52
% X-ray Energy (keV) : 13.30001
% Exposure Time (s) : 0.500
% Beam Center : 1461.24000, 208.98300
% Sample to Detector Distance (SDD) (mm) : 1990.750
% Detector Pixel Size (mm) : 0.075
% Photodiode Value : 135477.000
% I0 of Sample : 0
% I0 of Standard : 1
% 
% q(A^-1)   I(q)    I(q)_SE
0.00000000e+00	1.73363482e-02	9.89000619e-03
2.50000000e-04	0.00000000e+00	0.00000000e+00
5.00000000e-04	0.00000000e+00	0.00000000e+00
7.50000000e-04	0.00000000e+00	0.00000000e+00
1.00000000e-03	0.00000000e+00	0.00000000e+00
1.25000000e-03	0.00000000e+00	0.00000000e+00
1.50000000e-03	0.00000000e+00	0.00000000e+00
1.75000000e-03	0.00000000e+00	0.00000000e+00
2.00000000e-03	0.00000000e+00	0.00000000e+00
2.25000000e-03	0.00000000e+00	0.00000000e+00
2.50000000e-03	0.00000000e+00	0.00000000e+00
2.75000000e-03	0.00000000e+00	0.00000000e+00
3.00000000e-03	0.00000000e+00	0.00000000e+00
3.25000000e-03	7.63607476e+00	5.44230379e+00
3.50000000e-03	3.28175510e+00	1.12454405e+00
3.75000000e-03	2.43051397e+00	8.70720841e-01
4.00000000e-03	2.11926385e+00	7.40748013e-01
4.25000000e-03	1.40240313e+00	4.30829599e-01
4.50000000e-03	1.64260817e+00	3.97368081e-01
4.75000000e-03	1.75116668e+00	3.76393810e-01
5.00000000e-03	1.37213021e+00	2.77650049e-01
5.25000000e-03	1.10385420e+00	2.08241347e-01
5.50000000e-03	9.31541033e-01	1.72771668e-01
5.75000000e-03	7.95258434e-01	1.49438780e-01
6.00000000e-03	6.55652257e-01	1.15121908e-01
6.25000000e-03	5.72744373e-01	1.02268459e-01
6.50000000e-03	4.79501595e-01	8.23596768e-02
6.75000000e-03	4.12078574e-01	6.58946615e-02
7.00000000e-03	3.59747067e-01	5.30202989e-02
7.25000000e-03	3.09398365e-01	4.51441442e-02
7.50000000e-03	2.56815440e-01	3.52341462e-02
7.75000000e-03	2.39223611e-01	3.36193571e-02
8.00000000e-03	2.29689367e-01	3.25058058e-02
8.25000000e-03	2.00817734e-01	2.70816470e-02
8.50000000e-03	1.75631913e-01	2.22280754e-02
8.75000000e-03	1.63029514e-01	2.02715029e-02
9.00000000e-03	1.44184331e-01	1.74696153e-02
9.25000000e-03	1.34396236e-01	1.58103193e-02
9.50000000e-03	1.20828561e-01	1.37909037e-02
9.75000000e-03	1.11385669e-01	1.20455017e-02
1.00000000e-02	1.00024102e-01	1.06968315e-02
1.02500000e-02	9.61518556e-02	1.02278938e-02
1.05000000e-02	8.87084914e-02	8.80552043e-03
1.07500000e-02	8.29952296e-02	8.19901407e-03
1.10000000e-02	7.62131664e-02	6.85606544e-03
1.12500000e-02	7.29771595e-02	6.75527339e-03
1.15000000e-02	6.85542166e-02	6.20409139e-03
1.17500000e-02	6.21952285e-02	5.48807671e-03
1.20000000e-02	5.89712972e-02	5.38484317e-03
1.22500000e-02	5.75008813e-02	4.82549871e-03
1.25000000e-02	5.55829671e-02	4.62968509e-03
1.27500000e-02	5.30274819e-02	4.33059190e-03
1.30000000e-02	4.93787883e-02	3.90183079e-03
1.32500000e-02	4.92462058e-02	3.68866367e-03
1.35000000e-02	4.46407151e-02	3.40997073e-03
1.37500000e-02	4.32095935e-02	3.24759594e-03
1.40000000e-02	4.27094070e-02	3.12978771e-03
1.42500000e-02	3.98446041e-02	2.86830207e-03
1.45000000e-02	3.88327680e-02	2.66532717e-03
1.47500000e-02	3.80241289e-02	2.60757516e-03
1.50000000e-02	3.56130657e-02	2.43033935e-03
1.52500000e-02	3.52448223e-02	2.31957491e-03
1.55000000e-02	3.48580923e-02	2.30606513e-03
1.57500000e-02	3.32576327e-02	2.11416796e-03
1.60000000e-02	3.30616106e-02	2.04995098e-03
1.62500000e-02	3.26242049e-02	2.07443835e-03
1.65000000e-02	3.02120709e-02	1.85826554e-03
1.67500000e-02	3.05548922e-02	1.81715981e-03
1.70000000e-02	3.04660223e-02	1.81527930e-03
1.72500000e-02	2.94958747e-02	1.69977165e-03
1.75000000e-02	2.91153299e-02	1.72730859e-03
1.77500000e-02	2.82671430e-02	1.62608389e-03
1.80000000e-02	2.78996155e-02	1.58909683e-03
1.82500000e-02	2.90947059e-02	1.61380551e-03
1.85000000e-02	2.65403671e-02	1.52930917e-03
1.87500000e-02	2.71598230e-02	1.48898198e-03
1.90000000e-02	2.72438690e-02	1.48939342e-03
1.92500000e-02	2.55331786e-02	1.35667935e-03
1.95000000e-02	2.57530327e-02	1.38707149e-03
1.97500000e-02	2.54403159e-02	1.35671543e-03
2.00000000e-02	2.53653690e-02	1.33113393e-03
2.02500000e-02	2.65683877e-02	1.37454449e-03
2.05000000e-02	2.49074581e-02	1.28917696e-03
2.07500000e-02	2.41736428e-02	1.23206920e-03
2.10000000e-02	2.45462999e-02	1.26403998e-03
2.12500000e-02	2.41246135e-02	1.27625925e-03
2.15000000e-02	2.46680601e-02	1.26145679e-03
2.17500000e-02	2.45263462e-02	1.24980124e-03
2.20000000e-02	2.46095246e-02	1.27522128e-03
2.22500000e-02	2.47569658e-02	1.27971683e-03
2.25000000e-02	2.40927543e-02	1.25184586e-03
2.27500000e-02	2.40982158e-02	1.23333466e-03
2.30000000e-02	2.36989086e-02	1.21721792e-03
2.32500000e-02	2.44127144e-02	1.24623853e-03
2.35000000e-02	2.35459271e-02	1.20532432e-03
2.37500000e-02	2.37710753e-02	1.20541737e-03
2.40000000e-02	2.42549081e-02	1.22132759e-03
2.42500000e-02	2.41941141e-02	1.22364055e-03
2.45000000e-02	2.31643661e-02	1.17843353e-03
2.47500000e-02	2.32597465e-02	1.16568330e-03
2.50000000e-02	2.39610942e-02	1.22082588e-03
2.52500000e-02	2.37865850e-02	1.21913140e-03
2.55000000e-02	2.28909758e-02	1.14125222e-03
2.57500000e-02	2.28010949e-02	1.14622796e-03
2.60000000e-02	2.27011152e-02	1.14281516e-03
2.62500000e-02	2.25218745e-02	1.14399689e-03
2.65000000e-02	2.31035639e-02	1.14491054e-03
2.67500000e-02	2.28215701e-02	1.13010810e-03
2.70000000e-02	2.27462863e-02	1.13834777e-03
2.72500000e-02	2.34179262e-02	1.15729436e-03
2.75000000e-02	2.22436707e-02	1.11148466e-03
2.77500000e-02	2.25776079e-02	1.12152745e-03
2.80000000e-02	2.28986247e-02	1.11851522e-03
2.82500000e-02	2.30611236e-02	1.11494004e-03
2.85000000e-02	2.28051162e-02	1.11411070e-03
2.87500000e-02	2.25227156e-02	1.09248538e-03
2.90000000e-02	2.36292469e-02	1.15067778e-03
2.92500000e-02	2.30003241e-02	1.10187967e-03
2.95000000e-02	2.33385470e-02	1.13940586e-03
2.97500000e-02	2.38532835e-02	1.13665734e-03
3.00000000e-02	2.30791446e-02	1.11276351e-03
3.02500000e-02	2.39210814e-02	1.15025286e-03
3.05000000e-02	2.36410737e-02	1.10916915e-03
3.07500000e-02	2.32353854e-02	1.11438778e-03
3.10000000e-02	2.33314377e-02	1.09896415e-03
3.12500000e-02	2.34564831e-02	1.12455918e-03
3.15000000e-02	2.29720089e-02	1.09178046e-03
3.17500000e-02	2.39925744e-02	1.12481780e-03
3.20000000e-02	2.34923975e-02	1.09585428e-03
3.22500000e-02	2.30235581e-02	1.08184755e-03
3.25000000e-02	2.34265908e-02	1.11731545e-03
3.27500000e-02	2.19880644e-02	1.03447092e-03
3.30000000e-02	2.24455609e-02	1.03973559e-03
3.32500000e-02	2.32857412e-02	1.07634388e-03
3.35000000e-02	2.22953177e-02	1.04657054e-03
3.37500000e-02	2.26988825e-02	1.05457683e-03
3.40000000e-02	2.20057510e-02	1.01433782e-03
3.42500000e-02	2.25275411e-02	1.02640858e-03
3.45000000e-02	2.20265255e-02	1.02147407e-03
3.47500000e-02	2.21096867e-02	1.02135641e-03
3.50000000e-02	2.18907580e-02	1.00958093e-03
3.52500000e-02	2.20187328e-02	1.01061400e-03
3.55000000e-02	2.18327232e-02	9.88538377e-04
3.57500000e-02	2.21140705e-02	1.01014676e-03
3.60000000e-02	2.15097122e-02	9.73844335e-04
3.62500000e-02	2.20199201e-02	9.93616560e-04
3.65000000e-02	2.17705050e-02	9.92856521e-04
3.67500000e-02	2.20326701e-02	9.99557340e-04
3.70000000e-02	2.20456818e-02	9.99263198e-04
3.72500000e-02	2.12010676e-02	9.47345026e-04
3.75000000e-02	2.15873523e-02	9.69846082e-04
3.77500000e-02	2.16683817e-02	9.73999229e-04
3.80000000e-02	2.11035286e-02	9.37943115e-04
3.82500000e-02	2.08358812e-02	9.24733629e-04
3.85000000e-02	2.07610886e-02	9.41175332e-04
3.87500000e-02	2.22422476e-02	9.78887675e-04
3.90000000e-02	2.11359057e-02	9.45987990e-04
3.92500000e-02	2.09078919e-02	9.25654597e-04
3.95000000e-02	2.13737013e-02	9.47700562e-04
3.97500000e-02	2.10798206e-02	9.41867614e-04
4.00000000e-02	2.20144722e-02	9.72850393e-04
4.02500000e-02	2.13514240e-02	9.42880495e-04
4.05000000e-02	2.09616990e-02	9.14029467e-04
4.07500000e-02	2.09914165e-02	9.15470157e-04
4.10000000e-02	2.11546795e-02	9.29603613e-04
4.12500000e-02	2.17832697e-02	9.40270403e-04
4.15000000e-02	2.20703551e-02	9.47884890e-04
4.17500000e-02	2.11624237e-02	9.19475973e-04
4.20000000e-02	2.16033477e-02	9.14653281e-04
4.22500000e-02	2.15023131e-02	9.16495863e-04
4.25000000e-02	2.10270266e-02	9.04524899e-04
4.27500000e-02	2.17641222e-02	9.28662188e-04
4.30000000e-02	2.07119059e-02	8.89646522e-04
4.32500000e-02	2.11882636e-02	9.01547975e-04
4.35000000e-02	2.11715120e-02	9.08144251e-04
4.37500000e-02	2.11520272e-02	8.83814818e-04
4.40000000e-02	2.11128256e-02	8.99081749e-04
4.42500000e-02	2.08108401e-02	8.81719171e-04
4.45000000e-02	2.09654380e-02	8.80304960e-04
4.47500000e-02	2.10093615e-02	8.84766929e-04
4.50000000e-02	2.04626063e-02	8.62650916e-04
4.52500000e-02	2.11394286e-02	8.80799218e-04
4.55000000e-02	2.09995557e-02	8.75306749e-04
4.57500000e-02	2.08610769e-02	8.67644740e-04
4.60000000e-02	2.14843588e-02	8.90926769e-04
4.62500000e-02	2.10783533e-02	8.71146163e-04
4.65000000e-02	2.06679463e-02	8.62242340e-04
4.67500000e-02	2.07330407e-02	8.54609299e-04
4.70000000e-02	2.04718585e-02	8.43313104e-04
4.72500000e-02	2.10798871e-02	8.75274644e-04
4.75000000e-02	2.11750540e-02	8.69819279e-04
4.77500000e-02	2.01656018e-02	8.24363210e-04
4.80000000e-02	2.01855974e-02	8.26719364e-04
4.82500000e-02	2.10182958e-02	8.63943740e-04
4.85000000e-02	2.04291061e-02	8.47296491e-04
4.87500000e-02	2.13576695e-02	8.66522609e-04
4.90000000e-02	2.03141633e-02	8.20180674e-04
4.92500000e-02	2.13611624e-02	8.65372355e-04
4.95000000e-02	2.06403156e-02	8.31796412e-04
4.97500000e-02	2.10785301e-02	8.52821426e-04
5.00000000e-02	2.08173087e-02	8.40995015e-04
5.02500000e-02	2.04446024e-02	8.24003382e-04
5.05000000e-02	2.05703884e-02	8.23718501e-04
5.07500000e-02	2.08373359e-02	8.36281197e-04
5.10000000e-02	2.08838134e-02	8.38087001e-04
5.12500000e-02	2.09711572e-02	8.45228757e-04
5.15000000e-02	2.02824346e-02	8.07590619e-04
5.17500000e-02	2.02936936e-02	8.03536622e-04
5.20000000e-02	1.96749268e-02	7.86418970e-04
5.22500000e-02	2.07972786e-02	8.23746057e-04
5.25000000e-02	2.11463297e-02	8.30337358e-04
5.27500000e-02	2.02581416e-02	7.99223047e-04
5.30000000e-02	2.04389601e-02	8.12628543e-04
5.32500000e-02	2.03282202e-02	7.99152825e-04
5.35000000e-02	2.01152324e-02	7.90530988e-04
5.37500000e-02	2.06073733e-02	7.99354080e-04
5.40000000e-02	2.04864932e-02	8.02821180e-04
5.42500000e-02	1.95399433e-02	7.61904770e-04
5.45000000e-02	2.02921664e-02	7.98395645e-04
5.47500000e-02	2.03914901e-02	7.92205356e-04
5.50000000e-02	2.06156468e-02	8.02942439e-04
5.52500000e-02	2.00770836e-02	7.75193868e-04
5.55000000e-02	2.07856189e-02	8.03219034e-04
5.57500000e-02	2.06791220e-02	8.05853273e-04
5.60000000e-02	2.03503015e-02	7.79967189e-04
5.62500000e-02	2.02710627e-02	7.85844653e-04
5.65000000e-02	2.07310363e-02	7.95980406e-04
5.67500000e-02	2.05829028e-02	7.94235594e-04
5.70000000e-02	2.06167633e-02	7.87717354e-04
5.72500000e-02	2.03490942e-02	7.79826912e-04
5.75000000e-02	2.04392954e-02	7.76164624e-04
5.77500000e-02	2.04903426e-02	7.72297802e-04
5.80000000e-02	2.08585007e-02	7.98635338e-04
5.82500000e-02	2.02568599e-02	7.62272753e-04
5.85000000e-02	2.03266504e-02	7.71813737e-04
5.87500000e-02	2.02559679e-02	7.63852131e-04
5.90000000e-02	1.98931748e-02	7.55486717e-04
5.92500000e-02	2.08044234e-02	7.84071796e-04
5.95000000e-02	2.04142150e-02	7.70506129e-04
5.97500000e-02	2.05683182e-02	7.73986361e-04
6.00000000e-02	1.97561063e-02	7.45012746e-04
6.02500000e-02	2.04044187e-02	7.63778122e-04
6.05000000e-02	1.96904103e-02	7.31348025e-04
6.07500000e-02	2.07118763e-02	7.69038513e-04
6.10000000e-02	2.01723849e-02	7.51005647e-04
6.12500000e-02	2.02444653e-02	7.53759009e-04
6.15000000e-02	2.09812099e-02	7.76079296e-04
6.17500000e-02	2.03735645e-02	7.59953649e-04
6.20000000e-02	1.97099693e-02	7.29433602e-04
6.22500000e-02	1.98775088e-02	7.32159185e-04
6.25000000e-02	1.96877401e-02	7.35434164e-04
6.27500000e-02	1.96377855e-02	7.17926781e-04
6.30000000e-02	1.96563526e-02	7.25780808e-04
6.32500000e-02	2.00911994e-02	7.31581772e-04
6.35000000e-02	2.05488943e-02	7.58090240e-04
6.37500000e-02	2.02529079e-02	7.41142470e-04
6.40000000e-02	2.03511033e-02	7.43098432e-04
6.42500000e-02	2.06581051e-02	7.39367957e-04
6.45000000e-02	2.04014214e-02	7.44793261e-04
6.47500000e-02	2.04427817e-02	7.42527359e-04
6.50000000e-02	1.99252948e-02	7.23719758e-04
6.52500000e-02	2.04538670e-02	7.42544548e-04
6.55000000e-02	2.02432470e-02	7.36094062e-04
6.57500000e-02	1.97377831e-02	7.17037925e-04
6.60000000e-02	1.99470661e-02	7.20241967e-04
6.62500000e-02	1.98122562e-02	7.15264349e-04
6.65000000e-02	2.03278697e-02	7.27476194e-04
6.67500000e-02	1.95404715e-02	6.99462320e-04
6.70000000e-02	2.05110877e-02	7.33945978e-04
6.72500000e-02	1.95884762e-02	7.03285634e-04
6.75000000e-02	2.03080369e-02	7.27418008e-04
6.77500000e-02	2.05651859e-02	7.27422096e-04
6.80000000e-02	1.99830990e-02	7.15491207e-04
6.82500000e-02	1.98224531e-02	7.03785084e-04
6.85000000e-02	2.01675877e-02	7.15434608e-04
6.87500000e-02	1.97691403e-02	6.96669289e-04
6.90000000e-02	2.02645511e-02	7.18635523e-04
6.92500000e-02	1.99821489e-02	7.02176166e-04
6.95000000e-02	2.03121897e-02	7.22251341e-04
6.97500000e-02	2.00166476e-02	7.04079305e-04
7.00000000e-02	1.96591463e-02	6.98262305e-04
7.02500000e-02	2.00500403e-02	7.02181955e-04
7.05000000e-02	1.97308491e-02	6.93842869e-04
7.07500000e-02	1.96831860e-02	6.97063211e-04
7.10000000e-02	1.97289825e-02	6.88108942e-04
7.12500000e-02	1.98890904e-02	6.97590522e-04
7.15000000e-02	2.04464639e-02	7.12277843e-04
7.17500000e-02	2.04501122e-02	7.09267036e-04
7.20000000e-02	1.99160595e-02	6.94192484e-04
7.22500000e-02	2.05465243e-02	7.12156020e-04
7.25000000e-02	1.96910357e-02	6.85674249e-04
7.27500000e-02	1.94692772e-02	6.83391474e-04
7.30000000e-02	2.02464335e-02	6.99494310e-04
7.32500000e-02	2.00786694e-02	6.87993290e-04
7.35000000e-02	1.92640109e-02	6.65940025e-04
7.37500000e-02	2.00133798e-02	6.89273541e-04
7.40000000e-02	2.00738633e-02	6.89603093e-04
7.42500000e-02	2.02832120e-02	6.95947205e-04
7.45000000e-02	1.94242636e-02	6.68738042e-04
7.47500000e-02	1.98378001e-02	6.79387171e-04
7.50000000e-02	1.99590133e-02	6.85733367e-04
7.52500000e-02	2.01515070e-02	6.83874707e-04
7.55000000e-02	1.97808878e-02	6.75843827e-04
7.57500000e-02	2.03087527e-02	6.89957799e-04
7.60000000e-02	2.02137070e-02	6.85009100e-04
7.62500000e-02	2.00281667e-02	6.85096520e-04
7.65000000e-02	1.98883986e-02	6.72112999e-04
7.67500000e-02	2.02811781e-02	6.90981759e-04
7.70000000e-02	1.99391647e-02	6.69548574e-04
7.72500000e-02	1.98448535e-02	6.85996872e-04
7.75000000e-02	1.95740647e-02	6.84183612e-04
7.77500000e-02	1.95648305e-02	6.86970736e-04
7.80000000e-02	1.92037708e-02	6.75229113e-04
7.82500000e-02	2.01034441e-02	7.10445598e-04
7.85000000e-02	1.99575417e-02	7.03877234e-04
7.87500000e-02	2.04660308e-02	7.20212702e-04
7.90000000e-02	2.04343841e-02	7.22288882e-04
7.92500000e-02	2.00707491e-02	7.17067469e-04
7.95000000e-02	1.97438343e-02	7.06232727e-04
7.97500000e-02	1.96183623e-02	7.08373214e-04
8.00000000e-02	1.98712890e-02	7.14736123e-04
8.02500000e-02	2.03184500e-02	7.34621094e-04
8.05000000e-02	1.96487708e-02	7.03794269e-04
8.07500000e-02	1.99331864e-02	7.26488585e-04
8.10000000e-02	1.96934355e-02	7.15749958e-04
8.12500000e-02	1.98796305e-02	7.25032269e-04
8.15000000e-02	1.97727417e-02	7.15403803e-04
8.17500000e-02	1.99304778e-02	7.27286863e-04
8.20000000e-02	2.04712175e-02	7.42797047e-04
8.22500000e-02	1.95255702e-02	7.17979271e-04
8.25000000e-02	1.99757496e-02	7.33655464e-04
8.27500000e-02	1.99810532e-02	7.28998360e-04
8.30000000e-02	2.03155982e-02	7.45378674e-04
8.32500000e-02	1.96253338e-02	7.24641957e-04
8.35000000e-02	2.05850900e-02	7.60484039e-04
8.37500000e-02	1.98746048e-02	7.31401801e-04
8.40000000e-02	2.00789553e-02	7.37318912e-04
8.42500000e-02	1.98287384e-02	7.36264440e-04
8.45000000e-02	1.97904221e-02	7.34975133e-04
8.47500000e-02	1.97529250e-02	7.31956614e-04
8.50000000e-02	1.98116147e-02	7.28520921e-04
8.52500000e-02	2.00786446e-02	7.54620233e-04
8.55000000e-02	1.96523451e-02	7.33039015e-04
8.57500000e-02	2.02284525e-02	7.48329101e-04
8.60000000e-02	2.03190677e-02	7.59763967e-04
8.62500000e-02	1.96574946e-02	7.24464234e-04
8.65000000e-02	2.03684471e-02	7.54801589e-04
8.67500000e-02	1.96800325e-02	7.31302114e-04
8.70000000e-02	1.99135828e-02	7.26761724e-04
8.72500000e-02	1.98924035e-02	7.16917566e-04
8.75000000e-02	1.98430066e-02	7.04424473e-04
8.77500000e-02	1.96753514e-02	6.96983739e-04
8.80000000e-02	1.99042363e-02	7.02232941e-04
8.82500000e-02	2.02367390e-02	7.09483972e-04
8.85000000e-02	1.99973100e-02	7.03366973e-04
8.87500000e-02	1.98357553e-02	6.88473207e-04
8.90000000e-02	1.99079958e-02	6.92907509e-04
8.92500000e-02	2.02344386e-02	7.00059086e-04
8.95000000e-02	2.00629802e-02	6.91967575e-04
8.97500000e-02	1.95918345e-02	6.67959945e-04
9.00000000e-02	1.99509627e-02	6.75780140e-04
9.02500000e-02	1.93412674e-02	6.57808411e-04
9.05000000e-02	2.06635412e-02	7.00417237e-04
9.07500000e-02	2.01324663e-02	6.79874988e-04
9.10000000e-02	1.98161866e-02	6.65137076e-04
9.12500000e-02	1.95727411e-02	6.62791515e-04
9.15000000e-02	2.01388089e-02	6.73161413e-04
9.17500000e-02	2.00324368e-02	6.72272807e-04
9.20000000e-02	1.96487452e-02	6.58227531e-04
9.22500000e-02	2.02186092e-02	6.75697202e-04
9.25000000e-02	2.00170805e-02	6.72674382e-04
9.27500000e-02	1.97821791e-02	6.60930603e-04
9.30000000e-02	1.93991766e-02	6.45357076e-04
9.32500000e-02	2.00576538e-02	6.64805874e-04
9.35000000e-02	1.98495169e-02	6.54669374e-04
9.37500000e-02	2.05618272e-02	6.76941074e-04
9.40000000e-02	1.90033917e-02	6.30674160e-04
9.42500000e-02	1.96254307e-02	6.42622732e-04
9.45000000e-02	1.92293532e-02	6.31552389e-04
9.47500000e-02	1.98175251e-02	6.49851212e-04
9.50000000e-02	1.96585626e-02	6.41754883e-04
9.52500000e-02	1.98584177e-02	6.45437025e-04
9.55000000e-02	1.97512662e-02	6.45994012e-04
9.57500000e-02	2.00939562e-02	6.58038391e-04
9.60000000e-02	2.01781827e-02	6.57788738e-04
9.62500000e-02	1.97202719e-02	6.41986925e-04
9.65000000e-02	1.96720697e-02	6.35581128e-04
9.67500000e-02	2.02161233e-02	6.56491655e-04
9.70000000e-02	2.04433400e-02	6.58451628e-04
9.72500000e-02	1.96330081e-02	6.33225200e-04
9.75000000e-02	1.98015397e-02	6.41524116e-04
9.77500000e-02	1.92664223e-02	6.16614884e-04
9.80000000e-02	1.98928281e-02	6.38329812e-04
9.82500000e-02	1.97690605e-02	6.34879454e-04
9.85000000e-02	1.95942783e-02	6.29091563e-04
9.87500000e-02	1.97816902e-02	6.24906092e-04
9.90000000e-02	1.96963811e-02	6.26101281e-04
9.92500000e-02	1.97633021e-02	6.32138625e-04
9.95000000e-02	1.92535586e-02	6.14070200e-04
9.97500000e-02	1.95311117e-02	6.26134124e-04
1.00000000e-01	1.94293261e-02	5.04386022e-04
1.00500000e-01	1.94063563e-02	4.36369045e-04
1.01000000e-01	1.96647277e-02	4.38628821e-04
1.01500000e-01	1.96389858e-02	4.39467524e-04
1.02000000e-01	1.96481680e-02	4.36629737e-04
1.02500000e-01	1.96828954e-02	4.33796126e-04
1.03000000e-01	1.97043822e-02	4.31422488e-04
1.03500000e-01	1.93936195e-02	4.27352892e-04
1.04000000e-01	1.97551504e-02	4.31841625e-04
1.04500000e-01	1.95802189e-02	4.27716833e-04
1.05000000e-01	1.96377354e-02	4.28110379e-04
1.05500000e-01	1.94697312e-02	4.22394165e-04
1.06000000e-01	1.95665527e-02	4.24205518e-04
1.06500000e-01	1.97923515e-02	4.29263278e-04
1.07000000e-01	1.98749353e-02	4.35552617e-04
1.07500000e-01	1.97021277e-02	4.37624607e-04
1.08000000e-01	1.94391927e-02	4.37503898e-04
1.08500000e-01	1.97771836e-02	4.48383384e-04
1.09000000e-01	1.99512544e-02	4.49263133e-04
1.09500000e-01	1.97499101e-02	4.51782947e-04
1.10000000e-01	1.96196015e-02	4.43008647e-04
1.10500000e-01	1.97387422e-02	4.37228675e-04
1.11000000e-01	1.93899802e-02	4.23405519e-04
1.11500000e-01	1.97356125e-02	4.28994116e-04
1.12000000e-01	1.97795754e-02	4.25329743e-04
1.12500000e-01	1.98628971e-02	4.20667598e-04
1.13000000e-01	1.96113110e-02	4.17594882e-04
1.13500000e-01	1.95314759e-02	4.12859634e-04
1.14000000e-01	1.95867675e-02	4.13655126e-04
1.14500000e-01	1.95989933e-02	4.13306898e-04
1.15000000e-01	1.97225233e-02	4.13263830e-04
1.15500000e-01	1.94029163e-02	4.08570570e-04
1.16000000e-01	1.93952449e-02	4.06350317e-04
1.16500000e-01	1.95173310e-02	4.05863041e-04
1.17000000e-01	1.94047591e-02	4.03661810e-04
1.17500000e-01	1.96189887e-02	4.07123123e-04
1.18000000e-01	1.96231542e-02	4.07835194e-04
1.18500000e-01	1.98495126e-02	4.09509571e-04
1.19000000e-01	1.96853692e-02	4.02838320e-04
1.19500000e-01	1.96002234e-02	4.04561645e-04
1.20000000e-01	1.91228736e-02	3.91765750e-04
1.20500000e-01	1.95459773e-02	4.00125829e-04
1.21000000e-01	1.99013301e-02	4.06547011e-04
1.21500000e-01	1.97940581e-02	4.03802046e-04
1.22000000e-01	1.96374090e-02	3.99690011e-04
1.22500000e-01	1.95220799e-02	3.97623075e-04
1.23000000e-01	1.97102975e-02	3.99787369e-04
1.23500000e-01	1.95713496e-02	3.95641885e-04
1.24000000e-01	2.00687932e-02	4.04591752e-04
1.24500000e-01	1.96485138e-02	3.93110828e-04
1.25000000e-01	1.97998697e-02	3.95197117e-04
1.25500000e-01	1.97104177e-02	3.93961075e-04
1.26000000e-01	1.97283684e-02	3.92890733e-04
1.26500000e-01	1.96205270e-02	3.89760039e-04
1.27000000e-01	1.95649571e-02	3.88204943e-04
1.27500000e-01	1.95349809e-02	3.89874781e-04
1.28000000e-01	1.99522308e-02	3.93314383e-04
1.28500000e-01	1.96791318e-02	3.88381683e-04
1.29000000e-01	1.94095926e-02	3.81460287e-04
1.29500000e-01	1.94999669e-02	3.83589657e-04
1.30000000e-01	1.94378833e-02	3.80837910e-04
1.30500000e-01	1.98243847e-02	3.88901266e-04
1.31000000e-01	1.98245367e-02	3.87317018e-04
1.31500000e-01	1.95646848e-02	3.81681372e-04
1.32000000e-01	1.98390100e-02	3.83244404e-04
1.32500000e-01	1.94482287e-02	3.78889997e-04
1.33000000e-01	1.94585310e-02	3.78051910e-04
1.33500000e-01	1.97747610e-02	3.79075063e-04
1.34000000e-01	1.95355795e-02	3.77537123e-04
1.34500000e-01	1.96418185e-02	3.75443210e-04
1.35000000e-01	1.93507776e-02	3.70818557e-04
1.35500000e-01	1.97187265e-02	3.77737069e-04
1.36000000e-01	1.96969930e-02	3.74038577e-04
1.36500000e-01	1.97054110e-02	3.77755338e-04
1.37000000e-01	1.94947808e-02	3.68862042e-04
1.37500000e-01	1.95484662e-02	3.71329320e-04
1.38000000e-01	1.94647142e-02	3.70115540e-04
1.38500000e-01	1.96026434e-02	3.71322775e-04
1.39000000e-01	1.94711766e-02	3.69866874e-04
1.39500000e-01	1.95616568e-02	3.70555385e-04
1.40000000e-01	1.91627114e-02	3.62157178e-04
1.40500000e-01	1.94824807e-02	3.66747865e-04
1.41000000e-01	1.91217808e-02	3.61314529e-04
1.41500000e-01	1.93247615e-02	3.64529777e-04
1.42000000e-01	1.91705383e-02	3.59707326e-04
1.42500000e-01	1.96969995e-02	3.69452181e-04
1.43000000e-01	1.97195707e-02	3.69784524e-04
1.43500000e-01	1.95838520e-02	3.66113044e-04
1.44000000e-01	1.96045512e-02	3.64882672e-04
1.44500000e-01	1.94863319e-02	3.61057966e-04
1.45000000e-01	1.93821655e-02	3.59971087e-04
1.45500000e-01	1.92776253e-02	3.58280426e-04
1.46000000e-01	1.93637133e-02	3.57864734e-04
1.46500000e-01	1.95930727e-02	3.63866762e-04
1.47000000e-01	1.94153494e-02	3.59097954e-04
1.47500000e-01	1.93797735e-02	3.57929094e-04
1.48000000e-01	1.95702083e-02	3.59152213e-04
1.48500000e-01	1.92342748e-02	3.54157984e-04
1.49000000e-01	1.93110453e-02	3.55284661e-04
1.49500000e-01	1.91435643e-02	3.50213534e-04
1.50000000e-01	1.93187911e-02	3.53633900e-04
1.50500000e-01	1.90126166e-02	3.47910631e-04
1.51000000e-01	1.93820724e-02	3.54176748e-04
1.51500000e-01	1.96249009e-02	3.55829816e-04
1.52000000e-01	1.94501333e-02	3.52549353e-04
1.52500000e-01	1.93279039e-02	3.50156955e-04
1.53000000e-01	1.92435414e-02	3.48192919e-04
1.53500000e-01	1.92130996e-02	3.45413548e-04
1.54000000e-01	1.94848291e-02	3.51083124e-04
1.54500000e-01	1.96303333e-02	3.59773436e-04
1.55000000e-01	1.92467782e-02	3.57416298e-04
1.55500000e-01	1.89622831e-02	3.56226841e-04
1.56000000e-01	1.91967237e-02	3.61383737e-04
1.56500000e-01	1.90347022e-02	3.58028259e-04
1.57000000e-01	1.93069117e-02	3.65352322e-04
1.57500000e-01	1.90616621e-02	3.52317981e-04
1.58000000e-01	1.90756240e-02	3.46994080e-04
1.58500000e-01	1.91095076e-02	3.46530616e-04
1.59000000e-01	1.92571339e-02	3.47126208e-04
1.59500000e-01	1.92310732e-02	3.45350184e-04
1.60000000e-01	1.91895865e-02	3.46422199e-04
1.60500000e-01	1.91130958e-02	3.40996035e-04
1.61000000e-01	1.93501757e-02	3.44864641e-04
1.61500000e-01	1.94196442e-02	3.43916406e-04
1.62000000e-01	1.90258867e-02	3.37633725e-04
1.62500000e-01	1.92465731e-02	3.44184673e-04
1.63000000e-01	1.89767838e-02	3.35858175e-04
1.63500000e-01	1.92300819e-02	3.42842042e-04
1.64000000e-01	1.91223436e-02	3.35749400e-04
1.64500000e-01	1.88712291e-02	3.33526116e-04
1.65000000e-01	1.90500973e-02	3.35864847e-04
1.65500000e-01	1.89350373e-02	3.33320337e-04
1.66000000e-01	1.88202982e-02	3.31232998e-04
1.66500000e-01	1.91189814e-02	3.34676923e-04
1.67000000e-01	1.87807744e-02	3.28549872e-04
1.67500000e-01	1.90220465e-02	3.31754527e-04
1.68000000e-01	1.91345013e-02	3.34881189e-04
1.68500000e-01	1.89182962e-02	3.28372960e-04
1.69000000e-01	1.89069223e-02	3.29352201e-04
1.69500000e-01	1.88294922e-02	3.25871046e-04
1.70000000e-01	1.91149826e-02	3.30989040e-04
1.70500000e-01	1.91060149e-02	3.30264170e-04
1.71000000e-01	1.89860133e-02	3.28304422e-04
1.71500000e-01	1.87309707e-02	3.24137411e-04
1.72000000e-01	1.89934867e-02	3.25882128e-04
1.72500000e-01	1.88809560e-02	3.26879519e-04
1.73000000e-01	1.86215377e-02	3.21184717e-04
1.73500000e-01	1.88089491e-02	3.22032720e-04
1.74000000e-01	1.92128953e-02	3.29196231e-04
1.74500000e-01	1.87361543e-02	3.18841806e-04
1.75000000e-01	1.90803386e-02	3.23918164e-04
1.75500000e-01	1.86337414e-02	3.14646223e-04
1.76000000e-01	1.87679709e-02	3.18040566e-04
1.76500000e-01	1.87995109e-02	3.20026742e-04
1.77000000e-01	1.88101674e-02	3.16431845e-04
1.77500000e-01	1.87891573e-02	3.16775566e-04
1.78000000e-01	1.87836993e-02	3.17207049e-04
1.78500000e-01	1.86966259e-02	3.15042072e-04
1.79000000e-01	1.87560061e-02	3.14489874e-04
1.79500000e-01	1.87138847e-02	3.16240301e-04
1.80000000e-01	1.88301714e-02	3.18521489e-04
1.80500000e-01	1.85961947e-02	3.15287560e-04
1.81000000e-01	1.85885484e-02	3.12961717e-04
1.81500000e-01	1.85805200e-02	3.11973498e-04
1.82000000e-01	1.84748171e-02	3.11494148e-04
1.82500000e-01	1.85648913e-02	3.09474265e-04
1.83000000e-01	1.88304402e-02	3.15634310e-04
1.83500000e-01	1.86483945e-02	3.10686633e-04
1.84000000e-01	1.85629456e-02	3.10039691e-04
1.84500000e-01	1.83025924e-02	3.04740203e-04
1.85000000e-01	1.88773783e-02	3.14010892e-04
1.85500000e-01	1.87285112e-02	3.10445229e-04
1.86000000e-01	1.87138590e-02	3.09934941e-04
1.86500000e-01	1.83238153e-02	3.04801811e-04
1.87000000e-01	1.84034038e-02	3.04224671e-04
1.87500000e-01	1.84974890e-02	3.05257988e-04
1.88000000e-01	1.86302680e-02	3.07467010e-04
1.88500000e-01	1.86740329e-02	3.07925647e-04
1.89000000e-01	1.88561889e-02	3.09071420e-04
1.89500000e-01	1.83075874e-02	3.01624389e-04
1.90000000e-01	1.85061618e-02	3.03910614e-04
1.90500000e-01	1.84700162e-02	3.02894910e-04
1.91000000e-01	1.84181808e-02	3.02987848e-04
1.91500000e-01	1.83908992e-02	3.01604338e-04
1.92000000e-01	1.84488141e-02	3.01934429e-04
1.92500000e-01	1.86971064e-02	3.04945097e-04
1.93000000e-01	1.84006160e-02	3.00639613e-04
1.93500000e-01	1.84508811e-02	2.99404902e-04
1.94000000e-01	1.87842064e-02	3.05351372e-04
1.94500000e-01	1.84189348e-02	2.99127771e-04
1.95000000e-01	1.85429710e-02	3.00438827e-04
1.95500000e-01	1.85521852e-02	3.00808899e-04
1.96000000e-01	1.84208118e-02	2.98198201e-04
1.96500000e-01	1.82866978e-02	2.95245579e-04
1.97000000e-01	1.82790597e-02	2.94452978e-04
1.97500000e-01	1.85432243e-02	2.98526111e-04
1.98000000e-01	1.82311344e-02	2.93055097e-04
1.98500000e-01	1.84989220e-02	2.97385111e-04
1.99000000e-01	1.81442988e-02	2.93443871e-04
1.99500000e-01	1.82027708e-02	2.91967525e-04
2.00000000e-01	1.80641993e-02	2.90791815e-04
2.00500000e-01	1.83384676e-02	2.93199768e-04
2.01000000e-01	1.83384574e-02	2.93103505e-04
2.01500000e-01	1.82039034e-02	2.91287386e-04
2.02000000e-01	1.84784148e-02	2.94140700e-04
2.02500000e-01	1.83027530e-02	2.90607024e-04
2.03000000e-01	1.81535943e-02	2.88885693e-04
2.03500000e-01	1.78536742e-02	2.83654651e-04
2.04000000e-01	1.80817405e-02	2.87461938e-04
2.04500000e-01	1.83230913e-02	2.91133489e-04
2.05000000e-01	1.81288007e-02	2.86851662e-04
2.05500000e-01	1.83425426e-02	2.90091458e-04
2.06000000e-01	1.83205546e-02	2.88912168e-04
2.06500000e-01	1.80640677e-02	2.85537572e-04
2.07000000e-01	1.81606923e-02	2.85923687e-04
2.07500000e-01	1.82020989e-02	2.85978609e-04
2.08000000e-01	1.81718692e-02	2.86610884e-04
2.08500000e-01	1.81203675e-02	2.84922634e-04
2.09000000e-01	1.81709947e-02	2.85300423e-04
2.09500000e-01	1.81710477e-02	2.84424850e-04
2.10000000e-01	1.80434941e-02	2.82691959e-04
2.10500000e-01	1.82209668e-02	2.84765097e-04
2.11000000e-01	1.81788534e-02	2.84091533e-04
2.11500000e-01	1.79535143e-02	2.80647686e-04
2.12000000e-01	1.80055328e-02	2.80689093e-04
2.12500000e-01	1.79653223e-02	2.79920196e-04
2.13000000e-01	1.80060931e-02	2.80002651e-04
2.13500000e-01	1.81350091e-02	2.80902800e-04
2.14000000e-01	1.81809499e-02	2.82885960e-04
2.14500000e-01	1.79685845e-02	2.77675104e-04
2.15000000e-01	1.80329325e-02	2.80184087e-04
2.15500000e-01	1.80248604e-02	2.77720557e-04
2.16000000e-01	1.77383047e-02	2.75692235e-04
2.16500000e-01	1.82487855e-02	2.81177426e-04
2.17000000e-01	1.80972485e-02	2.82046274e-04
2.17500000e-01	1.79099806e-02	2.84859672e-04
2.18000000e-01	1.79916384e-02	2.86908356e-04
2.18500000e-01	1.81368391e-02	2.91072311e-04
2.19000000e-01	1.80679076e-02	2.92491801e-04
2.19500000e-01	1.81088887e-02	2.92247113e-04
2.20000000e-01	1.79361613e-02	2.91975857e-04
2.20500000e-01	1.78810830e-02	2.91633551e-04
2.21000000e-01	1.80453433e-02	2.93612746e-04
2.21500000e-01	1.79724058e-02	2.94119130e-04
2.22000000e-01	1.77253017e-02	2.91192079e-04
2.22500000e-01	1.79403318e-02	2.93467164e-04
2.23000000e-01	1.78424860e-02	2.92885559e-04
2.23500000e-01	1.79259823e-02	2.96365020e-04
2.24000000e-01	1.78451659e-02	2.96430392e-04
2.24500000e-01	1.78764074e-02	2.95876435e-04
2.25000000e-01	1.77179994e-02	2.94782694e-04
2.25500000e-01	1.76843680e-02	2.93754199e-04
2.26000000e-01	1.80039152e-02	2.99879718e-04
2.26500000e-01	1.80625464e-02	2.96816586e-04
2.27000000e-01	1.81813148e-02	2.95113149e-04
2.27500000e-01	1.78618545e-02	2.88461177e-04
2.28000000e-01	1.77425975e-02	2.85662406e-04
2.28500000e-01	1.77999999e-02	2.84848574e-04
2.29000000e-01	1.78566734e-02	2.84116935e-04
2.29500000e-01	1.78997925e-02	2.84181847e-04
2.30000000e-01	1.79736660e-02	2.83820142e-04
2.30500000e-01	1.80710842e-02	2.84050278e-04
2.31000000e-01	1.78172141e-02	2.80864769e-04
2.31500000e-01	1.78113699e-02	2.80412748e-04
2.32000000e-01	1.79231833e-02	2.81545611e-04
2.32500000e-01	1.78182126e-02	2.79281741e-04
2.33000000e-01	1.79885507e-02	2.80072564e-04
2.33500000e-01	1.79168678e-02	2.78166801e-04
2.34000000e-01	1.75586305e-02	2.72469600e-04
2.34500000e-01	1.76932110e-02	2.75096688e-04
2.35000000e-01	1.76850469e-02	2.72798589e-04
2.35500000e-01	1.77766076e-02	2.74180151e-04
2.36000000e-01	1.75829386e-02	2.70588435e-04
2.36500000e-01	1.75181789e-02	2.69692780e-04
2.37000000e-01	1.77357869e-02	2.72435114e-04
2.37500000e-01	1.77160093e-02	2.70714558e-04
2.38000000e-01	1.78301464e-02	2.71436771e-04
2.38500000e-01	1.75083596e-02	2.67282106e-04
2.39000000e-01	1.75190949e-02	2.66777639e-04
2.39500000e-01	1.75923372e-02	2.67211803e-04
2.40000000e-01	1.75083813e-02	2.66145880e-04
2.40500000e-01	1.75144143e-02	2.65573574e-04
2.41000000e-01	1.76845060e-02	2.67507480e-04
2.41500000e-01	1.75880685e-02	2.65405901e-04
2.42000000e-01	1.77670319e-02	2.68032841e-04
2.42500000e-01	1.79679815e-02	2.70842791e-04
2.43000000e-01	1.75540805e-02	2.64160907e-04
2.43500000e-01	1.75099451e-02	2.63769425e-04
2.44000000e-01	1.77235670e-02	2.65318445e-04
2.44500000e-01	1.77240733e-02	2.65121524e-04
2.45000000e-01	1.76600507e-02	2.63167780e-04
2.45500000e-01	1.78059662e-02	2.65728558e-04
2.46000000e-01	1.75526753e-02	2.62961531e-04
2.46500000e-01	1.75423446e-02	2.60254024e-04
2.47000000e-01	1.74857379e-02	2.60147789e-04
2.47500000e-01	1.76911657e-02	2.62719077e-04
2.48000000e-01	1.76069134e-02	2.61936189e-04
2.48500000e-01	1.74012963e-02	2.57787513e-04
2.49000000e-01	1.73805363e-02	2.56729061e-04
2.49500000e-01	1.74127349e-02	2.58873543e-04
2.50000000e-01	1.76006721e-02	2.60353593e-04
2.50500000e-01	1.74282623e-02	2.58036536e-04
2.51000000e-01	1.74083398e-02	2.57092119e-04
2.51500000e-01	1.73534729e-02	2.56225672e-04
2.52000000e-01	1.74327851e-02	2.57133645e-04
2.52500000e-01	1.73880401e-02	2.55591767e-04
2.53000000e-01	1.74012753e-02	2.55487089e-04
2.53500000e-01	1.75222278e-02	2.56878990e-04
2.54000000e-01	1.75877318e-02	2.57333637e-04
2.54500000e-01	1.74020775e-02	2.54805408e-04
2.55000000e-01	1.75761231e-02	2.57153933e-04
2.55500000e-01	1.74185755e-02	2.55332039e-04
2.56000000e-01	1.74393930e-02	2.54438678e-04
2.56500000e-01	1.73311288e-02	2.53932416e-04
2.57000000e-01	1.73034470e-02	2.52199838e-04
2.57500000e-01	1.73602873e-02	2.52005746e-04
2.58000000e-01	1.73043195e-02	2.52160133e-04
2.58500000e-01	1.70952740e-02	2.47958874e-04
2.59000000e-01	1.72835374e-02	2.50270998e-04
2.59500000e-01	1.74470648e-02	2.53097863e-04
2.60000000e-01	1.73384416e-02	2.51075715e-04
2.60500000e-01	1.73548915e-02	2.51376082e-04
2.61000000e-01	1.72220373e-02	2.48785054e-04
2.61500000e-01	1.71891641e-02	2.47211115e-04
2.62000000e-01	1.73710354e-02	2.49725042e-04
2.62500000e-01	1.70802110e-02	2.47162239e-04
2.63000000e-01	1.71493476e-02	2.46754936e-04
2.63500000e-01	1.72972612e-02	2.47804026e-04
2.64000000e-01	1.73711005e-02	2.49813353e-04
2.64500000e-01	1.73567282e-02	2.48280265e-04
2.65000000e-01	1.74647370e-02	2.50501802e-04
2.65500000e-01	1.71525186e-02	2.46511636e-04
2.66000000e-01	1.73185454e-02	2.47381053e-04
2.66500000e-01	1.71506810e-02	2.44317255e-04
2.67000000e-01	1.71696373e-02	2.43978600e-04
2.67500000e-01	1.70424382e-02	2.42191898e-04
2.68000000e-01	1.72892918e-02	2.46028351e-04
2.68500000e-01	1.71133393e-02	2.43125929e-04
2.69000000e-01	1.72824147e-02	2.45375499e-04
2.69500000e-01	1.69490605e-02	2.40105461e-04
2.70000000e-01	1.72278975e-02	2.44711826e-04
2.70500000e-01	1.69830813e-02	2.40613816e-04
2.71000000e-01	1.69949455e-02	2.40157342e-04
2.71500000e-01	1.70703930e-02	2.41410060e-04
2.72000000e-01	1.70772680e-02	2.40945268e-04
2.72500000e-01	1.71069283e-02	2.41519522e-04
2.73000000e-01	1.70774933e-02	2.41354567e-04
2.73500000e-01	1.71880835e-02	2.42342939e-04
2.74000000e-01	1.72519689e-02	2.42452523e-04
2.74500000e-01	1.70216263e-02	2.38750520e-04
2.75000000e-01	1.70881600e-02	2.40496843e-04
2.75500000e-01	1.69773624e-02	2.38338303e-04
2.76000000e-01	1.69932471e-02	2.37481530e-04
2.76500000e-01	1.70348790e-02	2.39743815e-04
2.77000000e-01	1.71756925e-02	2.39902767e-04
2.77500000e-01	1.70784695e-02	2.39387655e-04
2.78000000e-01	1.70349528e-02	2.37435468e-04
2.78500000e-01	1.69674037e-02	2.37001081e-04
2.79000000e-01	1.68985980e-02	2.35723598e-04
2.79500000e-01	1.70489670e-02	2.36266853e-04
2.80000000e-01	1.70964923e-02	2.38306972e-04
2.80500000e-01	1.70087937e-02	2.36193794e-04
2.81000000e-01	1.69255102e-02	2.35929782e-04
2.81500000e-01	1.70085939e-02	2.35684247e-04
2.82000000e-01	1.69324650e-02	2.36011929e-04
2.82500000e-01	1.70593696e-02	2.36764284e-04
2.83000000e-01	1.68840073e-02	2.33922986e-04
2.83500000e-01	1.70659766e-02	2.36653647e-04
2.84000000e-01	1.70970319e-02	2.35867533e-04
2.84500000e-01	1.70571032e-02	2.34782492e-04
2.85000000e-01	1.70292930e-02	2.34486426e-04
2.85500000e-01	1.70015548e-02	2.33637684e-04
2.86000000e-01	1.69716474e-02	2.34275941e-04
2.86500000e-01	1.70790591e-02	2.34003475e-04
2.87000000e-01	1.69469304e-02	2.33398671e-04
2.87500000e-01	1.66716497e-02	2.27763785e-04
2.88000000e-01	1.69586615e-02	2.31886975e-04
2.88500000e-01	1.68777149e-02	2.30924481e-04
2.89000000e-01	1.67882847e-02	2.29904143e-04
2.89500000e-01	1.69182613e-02	2.30250590e-04
2.90000000e-01	1.69479105e-02	2.31691822e-04
2.90500000e-01	1.66593630e-02	2.28224110e-04
2.91000000e-01	1.69121978e-02	2.31139735e-04
2.91500000e-01	1.69056170e-02	2.28960040e-04
2.92000000e-01	1.68411041e-02	2.29016550e-04
2.92500000e-01	1.65257939e-02	2.24551987e-04
2.93000000e-01	1.69518435e-02	2.30687053e-04
2.93500000e-01	1.67160795e-02	2.27573939e-04
2.94000000e-01	1.67170112e-02	2.25699949e-04
2.94500000e-01	1.69273192e-02	2.29847442e-04
2.95000000e-01	1.70218710e-02	2.29382030e-04
2.95500000e-01	1.66060246e-02	2.25349791e-04
2.96000000e-01	1.70063041e-02	2.29793798e-04
2.96500000e-01	1.67897771e-02	2.25429107e-04
2.97000000e-01	1.68390057e-02	2.27960697e-04
2.97500000e-01	1.67213795e-02	2.25009538e-04
2.98000000e-01	1.67921673e-02	2.26831034e-04
2.98500000e-01	1.67544812e-02	2.25905350e-04
2.99000000e-01	1.68118562e-02	2.26524500e-04
2.99500000e-01	1.68211779e-02	2.25995568e-04
3.00000000e-01	1.67049480e-02	2.24308431e-04
3.00500000e-01	1.68795645e-02	2.26508428e-04
3.01000000e-01	1.66460988e-02	2.22388110e-04
3.01500000e-01	1.69209572e-02	2.26954821e-04
3.02000000e-01	1.68463535e-02	2.25194144e-04
3.02500000e-01	1.68551203e-02	2.25477113e-04
3.03000000e-01	1.67041301e-02	2.23033312e-04
3.03500000e-01	1.64961744e-02	2.19756610e-04
3.04000000e-01	1.67139892e-02	2.24148791e-04
3.04500000e-01	1.67126875e-02	2.22692040e-04
3.05000000e-01	1.65115276e-02	2.19850478e-04
3.05500000e-01	1.66959698e-02	2.22621363e-04
3.06000000e-01	1.65401615e-02	2.19077388e-04
3.06500000e-01	1.67746554e-02	2.22928497e-04
3.07000000e-01	1.67640318e-02	2.22461235e-04
3.07500000e-01	1.67488093e-02	2.21570478e-04
3.08000000e-01	1.67300634e-02	2.22066924e-04
3.08500000e-01	1.65346202e-02	2.19005287e-04
3.09000000e-01	1.64990298e-02	2.18504532e-04
3.09500000e-01	1.66527040e-02	2.19493282e-04
3.10000000e-01	1.65370710e-02	2.18862344e-04
3.10500000e-01	1.66087284e-02	2.18997658e-04
3.11000000e-01	1.65282245e-02	2.17808879e-04
3.11500000e-01	1.64633804e-02	2.18076545e-04
3.12000000e-01	1.65046551e-02	2.17787433e-04
3.12500000e-01	1.65927613e-02	2.18384834e-04
3.13000000e-01	1.66158507e-02	2.18358501e-04
3.13500000e-01	1.64547167e-02	2.16464652e-04
3.14000000e-01	1.64974500e-02	2.16819168e-04
3.14500000e-01	1.63737608e-02	2.14640662e-04
3.15000000e-01	1.63198870e-02	2.14646222e-04
3.15500000e-01	1.65481484e-02	2.16941704e-04
3.16000000e-01	1.62429475e-02	2.13032258e-04
3.16500000e-01	1.64827210e-02	2.15504959e-04
3.17000000e-01	1.65310427e-02	2.15916511e-04
3.17500000e-01	1.63303952e-02	2.14479053e-04
3.18000000e-01	1.64399140e-02	2.15055624e-04
3.18500000e-01	1.63199774e-02	2.13939871e-04
3.19000000e-01	1.63771847e-02	2.13511485e-04
3.19500000e-01	1.66038098e-02	2.15631084e-04
3.20000000e-01	1.64145421e-02	2.13815930e-04
3.20500000e-01	1.63606638e-02	2.12785567e-04
3.21000000e-01	1.62768720e-02	2.12242362e-04
3.21500000e-01	1.64709032e-02	2.13443185e-04
3.22000000e-01	1.62985743e-02	2.11263689e-04
3.22500000e-01	1.63348003e-02	2.11445981e-04
3.23000000e-01	1.62032554e-02	2.10407076e-04
3.23500000e-01	1.62520978e-02	2.11197178e-04
3.24000000e-01	1.62646109e-02	2.09863308e-04
3.24500000e-01	1.64919503e-02	2.13040676e-04
3.25000000e-01	1.62276961e-02	2.09195036e-04
3.25500000e-01	1.62637370e-02	2.10124894e-04
3.26000000e-01	1.63182830e-02	2.10095339e-04
3.26500000e-01	1.61662372e-02	2.08991252e-04
3.27000000e-01	1.63737393e-02	2.11106776e-04
3.27500000e-01	1.65523761e-02	2.12552657e-04
3.28000000e-01	1.62247032e-02	2.08613962e-04
3.28500000e-01	1.61790737e-02	2.07523485e-04
3.29000000e-01	1.63260868e-02	2.09983706e-04
3.29500000e-01	1.62051353e-02	2.08210740e-04
3.30000000e-01	1.62010889e-02	2.08117329e-04
3.30500000e-01	1.62374742e-02	2.08871120e-04
3.31000000e-01	1.61696097e-02	2.06818632e-04
3.31500000e-01	1.61560824e-02	2.06242353e-04
3.32000000e-01	1.60058745e-02	2.04408683e-04
3.32500000e-01	1.62785769e-02	2.08559330e-04
3.33000000e-01	1.62981563e-02	2.08430476e-04
3.33500000e-01	1.60973439e-02	2.05358645e-04
3.34000000e-01	1.61680438e-02	2.06635313e-04
3.34500000e-01	1.59896644e-02	2.03917601e-04
3.35000000e-01	1.60968972e-02	2.04853537e-04
3.35500000e-01	1.62241225e-02	2.06206738e-04
3.36000000e-01	1.62185437e-02	2.06072846e-04
3.36500000e-01	1.60248110e-02	2.03706042e-04
3.37000000e-01	1.59199556e-02	2.02243338e-04
3.37500000e-01	1.60590449e-02	2.03800086e-04
3.38000000e-01	1.62797005e-02	2.06467573e-04
3.38500000e-01	1.58167480e-02	1.99837017e-04
3.39000000e-01	1.62121020e-02	2.05303949e-04
3.39500000e-01	1.61518802e-02	2.03750085e-04
3.40000000e-01	1.62129563e-02	2.05492733e-04
3.40500000e-01	1.59134924e-02	2.01249175e-04
3.41000000e-01	1.62611337e-02	2.05392463e-04
3.41500000e-01	1.60313056e-02	2.02612789e-04
3.42000000e-01	1.62295549e-02	2.04812224e-04
3.42500000e-01	1.60957406e-02	2.03088208e-04
3.43000000e-01	1.60627154e-02	2.02710699e-04
3.43500000e-01	1.61634938e-02	2.02927316e-04
3.44000000e-01	1.58908458e-02	2.00860549e-04
3.44500000e-01	1.59705050e-02	2.00832293e-04
3.45000000e-01	1.58005268e-02	1.98776229e-04
3.45500000e-01	1.59868875e-02	2.01078312e-04
3.46000000e-01	1.59348356e-02	2.00397330e-04
3.46500000e-01	1.59132970e-02	1.99511005e-04
3.47000000e-01	1.58973042e-02	1.99224426e-04
3.47500000e-01	1.58539712e-02	1.98246504e-04
3.48000000e-01	1.59939737e-02	2.00041974e-04
3.48500000e-01	1.58820060e-02	1.99121986e-04
3.49000000e-01	1.59058562e-02	1.98461288e-04
3.49500000e-01	1.58408649e-02	1.97424363e-04
3.50000000e-01	1.58127382e-02	1.61493320e-04
3.51000000e-01	1.57829972e-02	1.39054847e-04
3.52000000e-01	1.59237565e-02	1.40115566e-04
3.53000000e-01	1.56861949e-02	1.37389091e-04
3.54000000e-01	1.57438428e-02	1.37967858e-04
3.55000000e-01	1.57664641e-02	1.38321384e-04
3.56000000e-01	1.57095929e-02	1.38013159e-04
3.57000000e-01	1.56708122e-02	1.40244621e-04
3.58000000e-01	1.57295480e-02	1.42162548e-04
3.59000000e-01	1.56534688e-02	1.42680225e-04
3.60000000e-01	1.56474007e-02	1.43245625e-04
3.61000000e-01	1.55627052e-02	1.43394303e-04
3.62000000e-01	1.56226978e-02	1.44106278e-04
3.63000000e-01	1.56017872e-02	1.44699499e-04
3.64000000e-01	1.56111824e-02	1.45442432e-04
3.65000000e-01	1.56361998e-02	1.46024188e-04
3.66000000e-01	1.56617026e-02	1.44317511e-04
3.67000000e-01	1.54610355e-02	1.40626749e-04
3.68000000e-01	1.55335733e-02	1.40716514e-04
3.69000000e-01	1.54509364e-02	1.39083011e-04
3.70000000e-01	1.55445908e-02	1.38908190e-04
3.71000000e-01	1.54406480e-02	1.39917501e-04
3.72000000e-01	1.56018816e-02	1.42092802e-04
3.73000000e-01	1.55682947e-02	1.42424336e-04
3.74000000e-01	1.55479722e-02	1.42085293e-04
3.75000000e-01	1.54648977e-02	1.41633101e-04
3.76000000e-01	1.54856910e-02	1.41855657e-04
3.77000000e-01	1.54174506e-02	1.41219822e-04
3.78000000e-01	1.55017665e-02	1.42049240e-04
3.79000000e-01	1.53178735e-02	1.40593460e-04
3.80000000e-01	1.54801244e-02	1.41213840e-04
3.81000000e-01	1.55396226e-02	1.42102936e-04
3.82000000e-01	1.53354395e-02	1.40209474e-04
3.83000000e-01	1.54105760e-02	1.40901316e-04
3.84000000e-01	1.51901236e-02	1.39207734e-04
3.85000000e-01	1.53260771e-02	1.40005506e-04
3.86000000e-01	1.53527136e-02	1.40571269e-04
3.87000000e-01	1.52551089e-02	1.39191283e-04
3.88000000e-01	1.53026351e-02	1.39457220e-04
3.89000000e-01	1.53052571e-02	1.39831313e-04
3.90000000e-01	1.51981084e-02	1.38976878e-04
3.91000000e-01	1.52704852e-02	1.39819757e-04
3.92000000e-01	1.52643069e-02	1.39601122e-04
3.93000000e-01	1.53358208e-02	1.39348321e-04
3.94000000e-01	1.51492895e-02	1.38287073e-04
3.95000000e-01	1.52570433e-02	1.38493657e-04
3.96000000e-01	1.51686744e-02	1.38075663e-04
3.97000000e-01	1.52128489e-02	1.38525859e-04
3.98000000e-01	1.52633853e-02	1.39332970e-04
3.99000000e-01	1.51431661e-02	1.38711855e-04
4.00000000e-01	1.49965489e-02	1.36464993e-04
4.01000000e-01	1.50429733e-02	1.37208340e-04
4.02000000e-01	1.50001643e-02	1.36391394e-04
4.03000000e-01	1.51967014e-02	1.38097922e-04
4.04000000e-01	1.48937832e-02	1.35814313e-04
4.05000000e-01	1.51129639e-02	1.37467411e-04
4.06000000e-01	1.49969103e-02	1.36631385e-04
4.07000000e-01	1.49844549e-02	1.36632005e-04
4.08000000e-01	1.50114738e-02	1.37151146e-04
4.09000000e-01	1.51391301e-02	1.37824775e-04
4.10000000e-01	1.49460301e-02	1.36304499e-04
4.11000000e-01	1.50269724e-02	1.36353409e-04
4.12000000e-01	1.49899470e-02	1.36177042e-04
4.13000000e-01	1.50027307e-02	1.36461647e-04
4.14000000e-01	1.50504470e-02	1.36388626e-04
4.15000000e-01	1.51143947e-02	1.36742606e-04
4.16000000e-01	1.50072969e-02	1.36044423e-04
4.17000000e-01	1.50040749e-02	1.36035645e-04
4.18000000e-01	1.50344852e-02	1.37986217e-04
4.19000000e-01	1.50790804e-02	1.39721231e-04
4.20000000e-01	1.49602303e-02	1.39194445e-04
4.21000000e-01	1.50965616e-02	1.41365697e-04
4.22000000e-01	1.49285344e-02	1.40470030e-04
4.23000000e-01	1.50307240e-02	1.41475330e-04
4.24000000e-01	1.50688310e-02	1.42084068e-04
4.25000000e-01	1.50315950e-02	1.42281377e-04
4.26000000e-01	1.50378355e-02	1.41976209e-04
4.27000000e-01	1.49446218e-02	1.41293134e-04
4.28000000e-01	1.49937107e-02	1.42271150e-04
4.29000000e-01	1.49507431e-02	1.42255088e-04
4.30000000e-01	1.50406461e-02	1.42978461e-04
4.31000000e-01	1.48401133e-02	1.41262436e-04
4.32000000e-01	1.48692988e-02	1.41307699e-04
4.33000000e-01	1.48653013e-02	1.41181577e-04
4.34000000e-01	1.49753432e-02	1.42673033e-04
4.35000000e-01	1.47608281e-02	1.41121867e-04
4.36000000e-01	1.48142099e-02	1.41449855e-04
4.37000000e-01	1.47292438e-02	1.41095518e-04
4.38000000e-01	1.48446080e-02	1.42460307e-04
4.39000000e-01	1.49090732e-02	1.43265349e-04
4.40000000e-01	1.48648445e-02	1.42605449e-04
4.41000000e-01	1.47066454e-02	1.41666625e-04
4.42000000e-01	1.47289555e-02	1.42111851e-04
4.43000000e-01	1.48380237e-02	1.42533613e-04
4.44000000e-01	1.46972288e-02	1.42059339e-04
4.45000000e-01	1.46788522e-02	1.42153459e-04
4.46000000e-01	1.45832001e-02	1.41112953e-04
4.47000000e-01	1.48785300e-02	1.43426325e-04
4.48000000e-01	1.47394687e-02	1.42609433e-04
4.49000000e-01	1.47013664e-02	1.42882514e-04
4.50000000e-01	1.46553390e-02	1.42491909e-04
4.51000000e-01	1.46644592e-02	1.42093916e-04
4.52000000e-01	1.46223812e-02	1.42162371e-04
4.53000000e-01	1.46550215e-02	1.43156165e-04
4.54000000e-01	1.46827434e-02	1.42548830e-04
4.55000000e-01	1.46469904e-02	1.42510746e-04
4.56000000e-01	1.46140059e-02	1.42615395e-04
4.57000000e-01	1.45328938e-02	1.42205716e-04
4.58000000e-01	1.46661253e-02	1.42870236e-04
4.59000000e-01	1.47381986e-02	1.44066614e-04
4.60000000e-01	1.45939675e-02	1.42544518e-04
4.61000000e-01	1.46784653e-02	1.43700149e-04
4.62000000e-01	1.45811402e-02	1.43465589e-04
4.63000000e-01	1.46436039e-02	1.43837595e-04
4.64000000e-01	1.45215714e-02	1.42949516e-04
4.65000000e-01	1.46261384e-02	1.43911702e-04
4.66000000e-01	1.45115225e-02	1.42903532e-04
4.67000000e-01	1.46256141e-02	1.43768967e-04
4.68000000e-01	1.46016431e-02	1.43509326e-04
4.69000000e-01	1.45629411e-02	1.43640961e-04
4.70000000e-01	1.45378645e-02	1.43477218e-04
4.71000000e-01	1.45279318e-02	1.42951554e-04
4.72000000e-01	1.46235823e-02	1.44436652e-04
4.73000000e-01	1.45524598e-02	1.43680306e-04
4.74000000e-01	1.44820667e-02	1.43091727e-04
4.75000000e-01	1.42312688e-02	1.40647183e-04
4.76000000e-01	1.45525467e-02	1.43058795e-04
4.77000000e-01	1.44469051e-02	1.42486967e-04
4.78000000e-01	1.44589363e-02	1.42430088e-04
4.79000000e-01	1.43601613e-02	1.41801386e-04
4.80000000e-01	1.44520146e-02	1.42479523e-04
4.81000000e-01	1.42825608e-02	1.41402902e-04
4.82000000e-01	1.44437822e-02	1.43086601e-04
4.83000000e-01	1.44426085e-02	1.42955439e-04
4.84000000e-01	1.43308328e-02	1.41856985e-04
4.85000000e-01	1.43336643e-02	1.41917246e-04
4.86000000e-01	1.43900950e-02	1.42428303e-04
4.87000000e-01	1.42734081e-02	1.41555653e-04
4.88000000e-01	1.43293148e-02	1.42358891e-04
4.89000000e-01	1.43308962e-02	1.42164422e-04
4.90000000e-01	1.43673039e-02	1.42869084e-04
4.91000000e-01	1.42632427e-02	1.41841287e-04
4.92000000e-01	1.43918935e-02	1.43009915e-04
4.93000000e-01	1.42891219e-02	1.42032991e-04
4.94000000e-01	1.43296367e-02	1.42595566e-04
4.95000000e-01	1.42730692e-02	1.43286264e-04
4.96000000e-01	1.43153100e-02	1.47840409e-04
4.97000000e-01	1.43408690e-02	1.50405556e-04
4.98000000e-01	1.41956540e-02	1.51313337e-04
4.99000000e-01	1.42397485e-02	1.53406312e-04
5.00000000e-01	1.42626859e-02	1.55266897e-04
5.01000000e-01	1.41688298e-02	1.55982320e-04
5.02000000e-01	1.41789363e-02	1.57698382e-04
5.03000000e-01	1.41626522e-02	1.59067109e-04
5.04000000e-01	1.43307066e-02	1.62288256e-04
5.05000000e-01	1.43664814e-02	1.59572274e-04
5.06000000e-01	1.43185477e-02	1.56168038e-04
5.07000000e-01	1.41767153e-02	1.53456046e-04
5.08000000e-01	1.42989573e-02	1.53027115e-04
5.09000000e-01	1.41855885e-02	1.51441802e-04
5.10000000e-01	1.42253458e-02	1.51181301e-04
5.11000000e-01	1.42184526e-02	1.50497247e-04
5.12000000e-01	1.42123431e-02	1.50665457e-04
5.13000000e-01	1.43047372e-02	1.50952228e-04
5.14000000e-01	1.42244093e-02	1.50051479e-04
5.15000000e-01	1.42459202e-02	1.49697156e-04
5.16000000e-01	1.40918464e-02	1.48214384e-04
5.17000000e-01	1.40962162e-02	1.48141799e-04
5.18000000e-01	1.40407238e-02	1.47522548e-04
5.19000000e-01	1.41022059e-02	1.47067983e-04
5.20000000e-01	1.40213215e-02	1.45883770e-04
5.21000000e-01	1.40577241e-02	1.46007854e-04
5.22000000e-01	1.41068652e-02	1.46021909e-04
5.23000000e-01	1.40464862e-02	1.46046874e-04
5.24000000e-01	1.40574219e-02	1.46503406e-04
5.25000000e-01	1.40525492e-02	1.45720277e-04
5.26000000e-01	1.40403866e-02	1.45914819e-04
5.27000000e-01	1.39687369e-02	1.44907732e-04
5.28000000e-01	1.40204001e-02	1.45819829e-04
5.29000000e-01	1.39662223e-02	1.45234156e-04
5.30000000e-01	1.39674208e-02	1.45074367e-04
5.31000000e-01	1.40028896e-02	1.46092330e-04
5.32000000e-01	1.40603785e-02	1.46090983e-04
5.33000000e-01	1.40081112e-02	1.45312610e-04
5.34000000e-01	1.38800462e-02	1.44579074e-04
5.35000000e-01	1.37724490e-02	1.43449985e-04
5.36000000e-01	1.39700514e-02	1.44976983e-04
5.37000000e-01	1.39163846e-02	1.44668658e-04
5.38000000e-01	1.38186823e-02	1.43323147e-04
5.39000000e-01	1.40199136e-02	1.45751717e-04
5.40000000e-01	1.40698203e-02	1.45607717e-04
5.41000000e-01	1.39055320e-02	1.44428518e-04
5.42000000e-01	1.39404674e-02	1.44997304e-04
5.43000000e-01	1.38197916e-02	1.43607789e-04
5.44000000e-01	1.37024684e-02	1.42197521e-04
5.45000000e-01	1.37338422e-02	1.43060215e-04
5.46000000e-01	1.37463796e-02	1.42677175e-04
5.47000000e-01	1.38123615e-02	1.44099322e-04
5.48000000e-01	1.36775899e-02	1.41922422e-04
5.49000000e-01	1.37734574e-02	1.42856163e-04
5.50000000e-01	1.38395045e-02	1.43985255e-04
5.51000000e-01	1.35915395e-02	1.40695966e-04
5.52000000e-01	1.36138246e-02	1.41487966e-04
5.53000000e-01	1.37396467e-02	1.42279957e-04
5.54000000e-01	1.36605660e-02	1.41105982e-04
5.55000000e-01	1.36004892e-02	1.40432163e-04
5.56000000e-01	1.38861039e-02	1.43463970e-04
5.57000000e-01	1.36860331e-02	1.41964357e-04
5.58000000e-01	1.35587548e-02	1.40458258e-04
5.59000000e-01	1.35473155e-02	1.39865433e-04
5.60000000e-01	1.38736824e-02	1.43214049e-04
5.61000000e-01	1.36064341e-02	1.40684861e-04
5.62000000e-01	1.37715411e-02	1.42392438e-04
5.63000000e-01	1.35596329e-02	1.40193128e-04
5.64000000e-01	1.35754802e-02	1.40447050e-04
5.65000000e-01	1.37356259e-02	1.41639418e-04
5.66000000e-01	1.35907921e-02	1.40639641e-04
5.67000000e-01	1.36944445e-02	1.41718039e-04
5.68000000e-01	1.36220803e-02	1.41200257e-04
5.69000000e-01	1.35226821e-02	1.39675560e-04
5.70000000e-01	1.35642841e-02	1.40461373e-04
5.71000000e-01	1.35545533e-02	1.40498222e-04
5.72000000e-01	1.35989150e-02	1.40529472e-04
5.73000000e-01	1.36212382e-02	1.40990960e-04
5.74000000e-01	1.36356931e-02	1.40866929e-04
5.75000000e-01	1.34442562e-02	1.39393203e-04
5.76000000e-01	1.33864661e-02	1.39002434e-04
5.77000000e-01	1.33903059e-02	1.38799915e-04
5.78000000e-01	1.35071041e-02	1.39969789e-04
5.79000000e-01	1.35615142e-02	1.40285838e-04
5.80000000e-01	1.34615979e-02	1.39644193e-04
5.81000000e-01	1.35658177e-02	1.40724993e-04
5.82000000e-01	1.34981883e-02	1.39712714e-04
5.83000000e-01	1.33757869e-02	1.38700178e-04
5.84000000e-01	1.33245831e-02	1.38551654e-04
5.85000000e-01	1.35035110e-02	1.39896172e-04
5.86000000e-01	1.33356186e-02	1.38805476e-04
5.87000000e-01	1.33146581e-02	1.38462307e-04
5.88000000e-01	1.33412258e-02	1.38572312e-04
5.89000000e-01	1.33278808e-02	1.38327249e-04
5.90000000e-01	1.35001386e-02	1.39779384e-04
5.91000000e-01	1.33974834e-02	1.39521531e-04
5.92000000e-01	1.33948409e-02	1.39151390e-04
5.93000000e-01	1.33393545e-02	1.39271134e-04
5.94000000e-01	1.32261288e-02	1.37684344e-04
5.95000000e-01	1.33512314e-02	1.39074563e-04
5.96000000e-01	1.31777000e-02	1.37744795e-04
5.97000000e-01	1.32834430e-02	1.38413983e-04
5.98000000e-01	1.32677870e-02	1.38747359e-04
5.99000000e-01	1.32537817e-02	1.38338688e-04
6.00000000e-01	1.32774051e-02	1.38768985e-04
6.01000000e-01	1.31302837e-02	1.36897782e-04
6.02000000e-01	1.31857113e-02	1.37026081e-04
6.03000000e-01	1.32471790e-02	1.38198277e-04
6.04000000e-01	1.32724388e-02	1.38871474e-04
6.05000000e-01	1.32697426e-02	1.38181897e-04
6.06000000e-01	1.32155709e-02	1.37862431e-04
6.07000000e-01	1.31461486e-02	1.36588388e-04
6.08000000e-01	1.31571462e-02	1.37509845e-04
6.09000000e-01	1.32502310e-02	1.38251251e-04
6.10000000e-01	1.32012979e-02	1.37655015e-04
6.11000000e-01	1.32240393e-02	1.38118271e-04
6.12000000e-01	1.32615092e-02	1.38825969e-04
6.13000000e-01	1.31996858e-02	1.37929742e-04
6.14000000e-01	1.31915569e-02	1.37969480e-04
6.15000000e-01	1.32606956e-02	1.38014900e-04
6.16000000e-01	1.31852729e-02	1.37628105e-04
6.17000000e-01	1.32240574e-02	1.37904527e-04
6.18000000e-01	1.30907505e-02	1.37155044e-04
6.19000000e-01	1.30118489e-02	1.36066135e-04
6.20000000e-01	1.29535541e-02	1.34914629e-04
6.21000000e-01	1.30009944e-02	1.35167727e-04
6.22000000e-01	1.30500040e-02	1.36194041e-04
6.23000000e-01	1.31139088e-02	1.35993894e-04
6.24000000e-01	1.30362749e-02	1.35322958e-04
6.25000000e-01	1.31147942e-02	1.35874637e-04
6.26000000e-01	1.30926033e-02	1.35278551e-04
6.27000000e-01	1.30341683e-02	1.35312113e-04
6.28000000e-01	1.29109041e-02	1.33851064e-04
6.29000000e-01	1.30212109e-02	1.35221245e-04
6.30000000e-01	1.30849015e-02	1.35560680e-04
6.31000000e-01	1.29976644e-02	1.35534968e-04
6.32000000e-01	1.30053372e-02	1.34831071e-04
6.33000000e-01	1.31806681e-02	1.36561358e-04
6.34000000e-01	1.29893027e-02	1.38326021e-04
6.35000000e-01	1.30753119e-02	1.42945246e-04
6.36000000e-01	1.30180544e-02	1.45244969e-04
6.37000000e-01	1.29998719e-02	1.47223627e-04
6.38000000e-01	1.29806253e-02	1.48712188e-04
6.39000000e-01	1.29817992e-02	1.50715309e-04
6.40000000e-01	1.29855508e-02	1.53074165e-04
6.41000000e-01	1.28709765e-02	1.53038194e-04
6.42000000e-01	1.31055709e-02	1.57531031e-04
6.43000000e-01	1.30642489e-02	1.57085448e-04
6.44000000e-01	1.31191474e-02	1.51705957e-04
6.45000000e-01	1.30630970e-02	1.49414893e-04
6.46000000e-01	1.30978576e-02	1.48369041e-04
6.47000000e-01	1.29623637e-02	1.45516240e-04
6.48000000e-01	1.30116677e-02	1.44902299e-04
6.49000000e-01	1.30160507e-02	1.44125085e-04
6.50000000e-01	1.31107716e-02	1.44554070e-04
6.51000000e-01	1.31146777e-02	1.43885064e-04
6.52000000e-01	1.28942669e-02	1.41701192e-04
6.53000000e-01	1.28617961e-02	1.40434925e-04
6.54000000e-01	1.30083808e-02	1.41509656e-04
6.55000000e-01	1.30373671e-02	1.41465820e-04
6.56000000e-01	1.29951987e-02	1.40591049e-04
6.57000000e-01	1.30123704e-02	1.40934173e-04
6.58000000e-01	1.29916920e-02	1.40996035e-04
6.59000000e-01	1.29869743e-02	1.40668008e-04
6.60000000e-01	1.29551937e-02	1.40340565e-04
6.61000000e-01	1.30768710e-02	1.41285965e-04
6.62000000e-01	1.28962286e-02	1.39268123e-04
6.63000000e-01	1.28956237e-02	1.39501750e-04
6.64000000e-01	1.28511352e-02	1.38762945e-04
6.65000000e-01	1.28060791e-02	1.38660501e-04
6.66000000e-01	1.28939579e-02	1.39291282e-04
6.67000000e-01	1.30435187e-02	1.40481765e-04
6.68000000e-01	1.28790503e-02	1.39265892e-04
6.69000000e-01	1.29375055e-02	1.39991302e-04
6.70000000e-01	1.28474534e-02	1.38184593e-04
6.71000000e-01	1.27991319e-02	1.38145144e-04
6.72000000e-01	1.30028413e-02	1.39414144e-04
6.73000000e-01	1.29671735e-02	1.39283445e-04
6.74000000e-01	1.27359119e-02	1.36880171e-04
6.75000000e-01	1.27366545e-02	1.36827939e-04
6.76000000e-01	1.28152444e-02	1.37971497e-04
6.77000000e-01	1.28068216e-02	1.37618353e-04
6.78000000e-01	1.27990185e-02	1.37896003e-04
6.79000000e-01	1.28086631e-02	1.37538645e-04
6.80000000e-01	1.26682907e-02	1.36213331e-04
6.81000000e-01	1.26750746e-02	1.36510436e-04
6.82000000e-01	1.28528814e-02	1.37491108e-04
6.83000000e-01	1.26468549e-02	1.35689271e-04
6.84000000e-01	1.27888445e-02	1.37087803e-04
6.85000000e-01	1.27641606e-02	1.36357203e-04
6.86000000e-01	1.27866100e-02	1.36784400e-04
6.87000000e-01	1.26804182e-02	1.36032885e-04
6.88000000e-01	1.27576533e-02	1.37353299e-04
6.89000000e-01	1.26914435e-02	1.35925089e-04
6.90000000e-01	1.26654660e-02	1.35755236e-04
6.91000000e-01	1.27213081e-02	1.36332000e-04
6.92000000e-01	1.27099432e-02	1.36319438e-04
6.93000000e-01	1.27192912e-02	1.36339465e-04
6.94000000e-01	1.26338169e-02	1.35886441e-04
6.95000000e-01	1.27174792e-02	1.36297602e-04
6.96000000e-01	1.26050223e-02	1.34997033e-04
6.97000000e-01	1.25503829e-02	1.34987209e-04
6.98000000e-01	1.26896523e-02	1.35982163e-04
6.99000000e-01	1.25877099e-02	1.35291888e-04
7.00000000e-01	1.25827655e-02	1.34509035e-04
7.01000000e-01	1.25117938e-02	1.33879793e-04
7.02000000e-01	1.25773911e-02	1.34951158e-04
7.03000000e-01	1.25423767e-02	1.34162823e-04
7.04000000e-01	1.24839406e-02	1.33867372e-04
7.05000000e-01	1.26529220e-02	1.35802514e-04
7.06000000e-01	1.25257414e-02	1.34469892e-04
7.07000000e-01	1.24639290e-02	1.33307317e-04
7.08000000e-01	1.24698040e-02	1.32551728e-04
7.09000000e-01	1.24455500e-02	1.33124632e-04
7.10000000e-01	1.24629996e-02	1.33108949e-04
7.11000000e-01	1.25202574e-02	1.34484305e-04
7.12000000e-01	1.24032921e-02	1.32588520e-04
7.13000000e-01	1.24360653e-02	1.33322600e-04
7.14000000e-01	1.24264718e-02	1.33488859e-04
7.15000000e-01	1.24469117e-02	1.33460911e-04
7.16000000e-01	1.22567831e-02	1.31689488e-04
7.17000000e-01	1.23100305e-02	1.32121444e-04
7.18000000e-01	1.24427038e-02	1.33452729e-04
7.19000000e-01	1.22871189e-02	1.31768832e-04
7.20000000e-01	1.23737956e-02	1.32624498e-04
7.21000000e-01	1.22170055e-02	1.31253597e-04
7.22000000e-01	1.23215681e-02	1.31912427e-04
7.23000000e-01	1.23115996e-02	1.32138149e-04
7.24000000e-01	1.23737538e-02	1.32321290e-04
7.25000000e-01	1.22362023e-02	1.31460004e-04
7.26000000e-01	1.23591213e-02	1.32720186e-04
7.27000000e-01	1.22176282e-02	1.31411774e-04
7.28000000e-01	1.22064811e-02	1.31557627e-04
7.29000000e-01	1.21521975e-02	1.30385076e-04
7.30000000e-01	1.22520633e-02	1.31467371e-04
7.31000000e-01	1.21852963e-02	1.30477811e-04
7.32000000e-01	1.22372988e-02	1.31503611e-04
7.33000000e-01	1.21786221e-02	1.30823463e-04
7.34000000e-01	1.21735905e-02	1.30402018e-04
7.35000000e-01	1.22398098e-02	1.30330766e-04
7.36000000e-01	1.21185434e-02	1.29575578e-04
7.37000000e-01	1.20902118e-02	1.29422925e-04
7.38000000e-01	1.21382625e-02	1.29320041e-04
7.39000000e-01	1.20325272e-02	1.28098437e-04
7.40000000e-01	1.21706822e-02	1.29493143e-04
7.41000000e-01	1.21674292e-02	1.29087149e-04
7.42000000e-01	1.22315106e-02	1.29970251e-04
7.43000000e-01	1.20486151e-02	1.28146070e-04
7.44000000e-01	1.21906914e-02	1.29468988e-04
7.45000000e-01	1.20856259e-02	1.28295453e-04
7.46000000e-01	1.20872533e-02	1.28424516e-04
7.47000000e-01	1.19818972e-02	1.27578151e-04
7.48000000e-01	1.21326404e-02	1.29114412e-04
7.49000000e-01	1.21518144e-02	1.29242659e-04
7.50000000e-01	1.20106802e-02	1.27953089e-04
7.51000000e-01	1.19180159e-02	1.27150830e-04
7.52000000e-01	1.20826695e-02	1.27956605e-04
7.53000000e-01	1.20699770e-02	1.28499402e-04
7.54000000e-01	1.19961885e-02	1.27706498e-04
7.55000000e-01	1.19016850e-02	1.26722413e-04
7.56000000e-01	1.19781156e-02	1.27486352e-04
7.57000000e-01	1.20285986e-02	1.27842452e-04
7.58000000e-01	1.20552969e-02	1.27926890e-04
7.59000000e-01	1.19210452e-02	1.26980789e-04
7.60000000e-01	1.19905747e-02	1.27551632e-04
7.61000000e-01	1.18841175e-02	1.26014052e-04
7.62000000e-01	1.19652105e-02	1.26744195e-04
7.63000000e-01	1.19197007e-02	1.26061493e-04
7.64000000e-01	1.19061781e-02	1.25492595e-04
7.65000000e-01	1.18905119e-02	1.25815306e-04
7.66000000e-01	1.19383603e-02	1.26081223e-04
7.67000000e-01	1.18428794e-02	1.24708611e-04
7.68000000e-01	1.17051869e-02	1.23740234e-04
7.69000000e-01	1.17425372e-02	1.24426240e-04
7.70000000e-01	1.18709277e-02	1.25274700e-04
7.71000000e-01	1.18887632e-02	1.24904740e-04
7.72000000e-01	1.18892148e-02	1.29555507e-04
7.73000000e-01	1.17577100e-02	1.31908740e-04
7.74000000e-01	1.18578597e-02	1.35723671e-04
7.75000000e-01	1.18859749e-02	1.38921027e-04
7.76000000e-01	1.17824402e-02	1.39790709e-04
7.77000000e-01	1.17097820e-02	1.41252538e-04
7.78000000e-01	1.16955893e-02	1.42643743e-04
7.79000000e-01	1.17558870e-02	1.44735269e-04
7.80000000e-01	1.17066268e-02	1.45993925e-04
7.81000000e-01	1.18031410e-02	1.49283784e-04
7.82000000e-01	1.19169622e-02	1.51844320e-04
7.83000000e-01	1.17388563e-02	1.51200349e-04
7.84000000e-01	1.18020393e-02	1.54293339e-04
7.85000000e-01	1.17303208e-02	1.54605405e-04
7.86000000e-01	1.15614050e-02	1.53913014e-04
7.87000000e-01	1.16868965e-02	1.56236956e-04
7.88000000e-01	1.16380644e-02	1.57386172e-04
7.89000000e-01	1.17008119e-02	1.60622341e-04
7.90000000e-01	1.17253584e-02	1.62023144e-04
7.91000000e-01	1.17467025e-02	1.64220411e-04
7.92000000e-01	1.16721918e-02	1.64576290e-04
7.93000000e-01	1.15798387e-02	1.65246964e-04
7.94000000e-01	1.14822955e-02	1.65608852e-04
7.95000000e-01	1.18285558e-02	1.71733952e-04
7.96000000e-01	1.15024715e-02	1.69034200e-04
7.97000000e-01	1.14437483e-02	1.70402232e-04
7.98000000e-01	1.13722702e-02	1.71255156e-04
7.99000000e-01	1.13986360e-02	1.73424290e-04
8.00000000e-01	1.15608338e-02	1.78407458e-04
8.01000000e-01	1.14344854e-02	1.77144452e-04
8.02000000e-01	1.15376693e-02	1.80003386e-04
8.03000000e-01	1.13273781e-02	1.79181447e-04
8.04000000e-01	1.13909368e-02	1.82384914e-04
8.05000000e-01	1.15528999e-02	1.87011850e-04
8.06000000e-01	1.12964152e-02	1.86429908e-04
8.07000000e-01	1.13689063e-02	1.88225168e-04
8.08000000e-01	1.14469148e-02	1.90880720e-04
8.09000000e-01	1.10949654e-02	1.88834130e-04
8.10000000e-01	1.12222804e-02	1.90287126e-04
8.11000000e-01	1.11513019e-02	1.91906334e-04
8.12000000e-01	1.12504361e-02	1.97171342e-04
8.13000000e-01	1.12261379e-02	1.99183400e-04
8.14000000e-01	1.13267165e-02	2.02084286e-04
8.15000000e-01	1.12266262e-02	2.02903423e-04
8.16000000e-01	1.12183917e-02	2.05364063e-04
8.17000000e-01	1.11855607e-02	2.08583466e-04
8.18000000e-01	1.12395222e-02	2.10690856e-04
8.19000000e-01	1.12540515e-02	2.13209781e-04
8.20000000e-01	1.12371334e-02	2.15714887e-04
8.21000000e-01	1.13712389e-02	2.21138165e-04
8.22000000e-01	1.14027791e-02	2.23630377e-04
8.23000000e-01	1.08273902e-02	2.18053329e-04
8.24000000e-01	1.12581725e-02	2.29480982e-04
8.25000000e-01	1.12656102e-02	2.30470435e-04
8.26000000e-01	1.13256171e-02	2.36898540e-04
8.27000000e-01	1.11745280e-02	2.37305213e-04
8.28000000e-01	1.09605977e-02	2.37380812e-04
8.29000000e-01	1.12107957e-02	2.46397438e-04
8.30000000e-01	1.12096334e-02	2.50101155e-04
8.31000000e-01	1.09272907e-02	2.47779556e-04
8.32000000e-01	1.08783962e-02	2.52509957e-04
8.33000000e-01	1.08460727e-02	2.54877862e-04
8.34000000e-01	1.12747060e-02	2.66537117e-04
8.35000000e-01	1.09954510e-02	2.66599684e-04
8.36000000e-01	1.08065140e-02	2.65714406e-04
8.37000000e-01	1.11404378e-02	2.80194431e-04
8.38000000e-01	1.06459533e-02	2.77170612e-04
8.39000000e-01	1.09780146e-02	2.85488512e-04
8.40000000e-01	1.06548497e-02	2.84982939e-04
8.41000000e-01	1.08287084e-02	2.95754943e-04
8.42000000e-01	1.11705841e-02	3.10901153e-04
8.43000000e-01	1.10267120e-02	3.14217803e-04
8.44000000e-01	1.08755179e-02	3.20425863e-04
8.45000000e-01	1.11620837e-02	3.34699896e-04
8.46000000e-01	1.04822644e-02	3.22378670e-04
8.47000000e-01	1.07205784e-02	3.39279280e-04
8.48000000e-01	1.06325385e-02	3.53971243e-04
8.49000000e-01	1.07019497e-02	3.65156926e-04
8.50000000e-01	1.03618707e-02	3.63053335e-04
8.51000000e-01	1.05728045e-02	3.89683036e-04
8.52000000e-01	1.01775057e-02	3.87061787e-04
8.53000000e-01	1.06381704e-02	4.20531159e-04
8.54000000e-01	1.02457188e-02	4.26120862e-04
8.55000000e-01	1.13883522e-02	4.82980276e-04
8.56000000e-01	1.05261297e-02	4.63715360e-04
8.57000000e-01	1.06355636e-02	4.77978904e-04
8.58000000e-01	1.06656826e-02	5.04354632e-04
8.59000000e-01	1.06257886e-02	5.10180425e-04
8.60000000e-01	1.05541876e-02	5.19806837e-04
8.61000000e-01	1.09496718e-02	5.60340489e-04
8.62000000e-01	1.02861977e-02	5.47012248e-04
8.63000000e-01	1.03224145e-02	5.70416675e-04
8.64000000e-01	1.01607561e-02	5.96287820e-04
8.65000000e-01	1.03103274e-02	6.11513558e-04
8.66000000e-01	1.07495472e-02	6.85343463e-04
8.67000000e-01	1.11999126e-02	7.42247042e-04
8.68000000e-01	1.03504385e-02	7.33603703e-04
8.69000000e-01	1.01973309e-02	7.86905101e-04
8.70000000e-01	1.09938984e-02	9.00313303e-04
8.71000000e-01	1.00071698e-02	9.46847971e-04
8.72000000e-01	1.07868458e-02	1.16565556e-03
8.73000000e-01	1.02741726e-02	1.30101568e-03
8.74000000e-01	1.13592446e-02	1.72505293e-03
8.75000000e-01	1.06682442e-02	3.50007483e-03
