% Filename : SDL7c_00026_00074.h5
% Date & Time : 30-Oct-2025 17:05:21
% X-ray Energy (keV) : 13.30001
% Exposure Time (s) : 0.500
% Beam Center : 1461.24000, 208.98300
% Sample to Detector Distance (SDD) (mm) : 1990.750
% Detector Pixel Size (mm) : 0.075
% Photodiode Value : 140765.000
% I0 of Sample : 0
% I0 of Standard : 1
% 
% q(A^-1)   I(q)    I(q)_SE
0.00000000e+00	7.70078292e-03	4.44604106e-03
2.50000000e-04	0.00000000e+00	0.00000000e+00
5.00000000e-04	0.00000000e+00	0.00000000e+00
7.50000000e-04	0.00000000e+00	0.00000000e+00
1.00000000e-03	0.00000000e+00	0.00000000e+00
1.25000000e-03	0.00000000e+00	0.00000000e+00
1.50000000e-03	0.00000000e+00	0.00000000e+00
1.75000000e-03	0.00000000e+00	0.00000000e+00
2.00000000e-03	0.00000000e+00	0.00000000e+00
2.25000000e-03	0.00000000e+00	0.00000000e+00
2.50000000e-03	0.00000000e+00	0.00000000e+00
2.75000000e-03	0.00000000e+00	0.00000000e+00
3.00000000e-03	0.00000000e+00	0.00000000e+00
3.25000000e-03	8.93834934e+01	8.02071533e+01
3.50000000e-03	2.13965281e+01	1.75069154e+01
3.75000000e-03	9.28509552e+00	7.76940298e+00
4.00000000e-03	7.14256122e+00	4.71063882e+00
4.25000000e-03	2.34255858e+00	1.40770466e+00
4.50000000e-03	4.51114170e+00	2.38880381e+00
4.75000000e-03	4.80433738e+00	2.09693505e+00
5.00000000e-03	3.46742737e+00	1.45185247e+00
5.25000000e-03	2.87751125e+00	1.23614946e+00
5.50000000e-03	2.11012744e+00	8.74091213e-01
5.75000000e-03	1.66291923e+00	6.89108330e-01
6.00000000e-03	1.40629662e+00	5.96778424e-01
6.25000000e-03	1.19078324e+00	4.95670428e-01
6.50000000e-03	1.10123736e+00	4.83616793e-01
6.75000000e-03	1.08257597e+00	4.89320516e-01
7.00000000e-03	9.19907234e-01	4.02417477e-01
7.25000000e-03	8.27239868e-01	3.57742977e-01
7.50000000e-03	8.58537599e-01	3.89756642e-01
7.75000000e-03	7.28367093e-01	3.35968865e-01
8.00000000e-03	6.13993912e-01	2.67724050e-01
8.25000000e-03	5.63574687e-01	2.57321510e-01
8.50000000e-03	4.70510223e-01	2.18389058e-01
8.75000000e-03	3.62732403e-01	1.52221628e-01
9.00000000e-03	3.26310982e-01	1.33610814e-01
9.25000000e-03	2.76904201e-01	1.07509601e-01
9.50000000e-03	2.33635128e-01	8.34896445e-02
9.75000000e-03	2.25664278e-01	8.44970671e-02
1.00000000e-02	2.02477330e-01	7.59031150e-02
1.02500000e-02	1.99494457e-01	7.46881605e-02
1.05000000e-02	2.04099238e-01	8.13744049e-02
1.07500000e-02	1.93149918e-01	7.39694420e-02
1.10000000e-02	1.75023583e-01	6.55319332e-02
1.12500000e-02	1.30481483e-01	4.35161508e-02
1.15000000e-02	1.82009411e-01	7.22647719e-02
1.17500000e-02	1.45611451e-01	5.50381089e-02
1.20000000e-02	1.34031267e-01	4.89526777e-02
1.22500000e-02	1.28678881e-01	4.68550795e-02
1.25000000e-02	1.05765188e-01	3.51590132e-02
1.27500000e-02	9.33549914e-02	2.90494622e-02
1.30000000e-02	8.71438498e-02	2.76049847e-02
1.32500000e-02	7.75398851e-02	2.14800926e-02
1.35000000e-02	7.68697259e-02	2.07049262e-02
1.37500000e-02	7.62041347e-02	2.19468486e-02
1.40000000e-02	7.38106518e-02	1.93822545e-02
1.42500000e-02	7.08436203e-02	1.91068134e-02
1.45000000e-02	7.59617696e-02	2.26953868e-02
1.47500000e-02	7.43350324e-02	2.15724002e-02
1.50000000e-02	6.81260238e-02	1.94378704e-02
1.52500000e-02	6.66260762e-02	2.02464470e-02
1.55000000e-02	5.89777020e-02	1.64953934e-02
1.57500000e-02	5.59557127e-02	1.44143757e-02
1.60000000e-02	5.37356388e-02	1.45519479e-02
1.62500000e-02	4.88620809e-02	1.15884746e-02
1.65000000e-02	4.42625640e-02	8.73584027e-03
1.67500000e-02	4.48683767e-02	8.79858773e-03
1.70000000e-02	4.32346865e-02	8.02950515e-03
1.72500000e-02	4.00540589e-02	6.76921138e-03
1.75000000e-02	4.31619692e-02	9.02160199e-03
1.77500000e-02	4.18735818e-02	8.43611376e-03
1.80000000e-02	3.99327411e-02	8.13331798e-03
1.82500000e-02	4.21052074e-02	8.74767880e-03
1.85000000e-02	4.14252224e-02	9.35238014e-03
1.87500000e-02	3.72749514e-02	7.26434550e-03
1.90000000e-02	3.83580318e-02	7.48907632e-03
1.92500000e-02	3.66019138e-02	6.70593833e-03
1.95000000e-02	3.13098396e-02	3.63422810e-03
1.97500000e-02	3.45392257e-02	5.61266066e-03
2.00000000e-02	3.24961662e-02	4.54994069e-03
2.02500000e-02	3.27206120e-02	4.14777652e-03
2.05000000e-02	3.15768328e-02	3.55870836e-03
2.07500000e-02	3.11981261e-02	3.54996994e-03
2.10000000e-02	3.14123840e-02	3.42977781e-03
2.12500000e-02	3.10553194e-02	3.61669568e-03
2.15000000e-02	3.26726551e-02	3.99464959e-03
2.17500000e-02	3.05015284e-02	3.44749551e-03
2.20000000e-02	3.10027977e-02	3.61854822e-03
2.22500000e-02	3.27424931e-02	4.17080961e-03
2.25000000e-02	3.10302618e-02	3.52547252e-03
2.27500000e-02	2.89808743e-02	3.05595619e-03
2.30000000e-02	2.89014931e-02	3.08871856e-03
2.32500000e-02	2.92557728e-02	2.66669360e-03
2.35000000e-02	2.87058502e-02	2.61208348e-03
2.37500000e-02	2.77581898e-02	2.41775743e-03
2.40000000e-02	2.76444613e-02	2.36437738e-03
2.42500000e-02	2.69225806e-02	2.20574560e-03
2.45000000e-02	2.76018093e-02	2.51555568e-03
2.47500000e-02	2.75339244e-02	2.15594729e-03
2.50000000e-02	2.65103894e-02	2.41800284e-03
2.52500000e-02	2.70241632e-02	2.45493627e-03
2.55000000e-02	2.69367897e-02	2.26945670e-03
2.57500000e-02	2.63656817e-02	2.13199378e-03
2.60000000e-02	2.59895717e-02	2.20221019e-03
2.62500000e-02	2.66810684e-02	2.17726343e-03
2.65000000e-02	2.61782841e-02	1.97665598e-03
2.67500000e-02	2.53894185e-02	1.71777102e-03
2.70000000e-02	2.47675816e-02	1.71855520e-03
2.72500000e-02	2.59169991e-02	1.67806190e-03
2.75000000e-02	2.54384053e-02	1.69249682e-03
2.77500000e-02	2.47665820e-02	1.56972542e-03
2.80000000e-02	2.50263479e-02	1.49908104e-03
2.82500000e-02	2.48833518e-02	1.62439585e-03
2.85000000e-02	2.52564990e-02	1.60603407e-03
2.87500000e-02	2.59557963e-02	1.56212694e-03
2.90000000e-02	2.45713697e-02	1.50725290e-03
2.92500000e-02	2.48896507e-02	1.49292141e-03
2.95000000e-02	2.55984519e-02	1.46347293e-03
2.97500000e-02	2.51289609e-02	1.42909954e-03
3.00000000e-02	2.51681032e-02	1.45892842e-03
3.02500000e-02	2.43490485e-02	1.33652874e-03
3.05000000e-02	2.37684060e-02	1.30100922e-03
3.07500000e-02	2.54136319e-02	1.36321478e-03
3.10000000e-02	2.46499494e-02	1.32307488e-03
3.12500000e-02	2.45961453e-02	1.40749717e-03
3.15000000e-02	2.37683566e-02	1.26924721e-03
3.17500000e-02	2.44635466e-02	1.34836091e-03
3.20000000e-02	2.41847860e-02	1.29016803e-03
3.22500000e-02	2.40345162e-02	1.24256925e-03
3.25000000e-02	2.43929892e-02	1.29495469e-03
3.27500000e-02	2.38150522e-02	1.19933767e-03
3.30000000e-02	2.27816314e-02	1.13854019e-03
3.32500000e-02	2.41315653e-02	1.24361285e-03
3.35000000e-02	2.30815995e-02	1.14603608e-03
3.37500000e-02	2.38013792e-02	1.17883877e-03
3.40000000e-02	2.30767529e-02	1.12158477e-03
3.42500000e-02	2.29070642e-02	1.10028447e-03
3.45000000e-02	2.30349412e-02	1.14393987e-03
3.47500000e-02	2.33753641e-02	1.15764240e-03
3.50000000e-02	2.29326409e-02	1.08232519e-03
3.52500000e-02	2.34550830e-02	1.13823900e-03
3.55000000e-02	2.31765801e-02	1.09986794e-03
3.57500000e-02	2.35107536e-02	1.12095802e-03
3.60000000e-02	2.29440065e-02	1.08327599e-03
3.62500000e-02	2.27179178e-02	1.08109423e-03
3.65000000e-02	2.25989519e-02	1.06679295e-03
3.67500000e-02	2.21172949e-02	1.03327414e-03
3.70000000e-02	2.25200524e-02	1.06789779e-03
3.72500000e-02	2.21817753e-02	1.06305583e-03
3.75000000e-02	2.21631329e-02	1.03431982e-03
3.77500000e-02	2.21724391e-02	1.01770898e-03
3.80000000e-02	2.22952262e-02	1.02679058e-03
3.82500000e-02	2.21960616e-02	1.00330496e-03
3.85000000e-02	2.23062563e-02	1.03673867e-03
3.87500000e-02	2.18159375e-02	9.93443250e-04
3.90000000e-02	2.22079209e-02	1.01267173e-03
3.92500000e-02	2.20625382e-02	9.96496498e-04
3.95000000e-02	2.21477093e-02	1.00412584e-03
3.97500000e-02	2.18075696e-02	9.80931680e-04
4.00000000e-02	2.19724822e-02	9.80212304e-04
4.02500000e-02	2.23885295e-02	1.00366501e-03
4.05000000e-02	2.17918508e-02	9.52889462e-04
4.07500000e-02	2.17354275e-02	9.56245302e-04
4.10000000e-02	2.23436935e-02	9.61378515e-04
4.12500000e-02	2.21972938e-02	9.57760179e-04
4.15000000e-02	2.22962118e-02	9.61306882e-04
4.17500000e-02	2.18405019e-02	9.57767343e-04
4.20000000e-02	2.13915562e-02	9.25086580e-04
4.22500000e-02	2.24024642e-02	9.73256642e-04
4.25000000e-02	2.19674888e-02	9.55852922e-04
4.27500000e-02	2.17538569e-02	9.32878285e-04
4.30000000e-02	2.17513364e-02	9.21309519e-04
4.32500000e-02	2.15328761e-02	9.21170143e-04
4.35000000e-02	2.08855841e-02	8.98474731e-04
4.37500000e-02	2.14427755e-02	9.04980032e-04
4.40000000e-02	2.15983060e-02	9.28334679e-04
4.42500000e-02	2.18007750e-02	9.20659051e-04
4.45000000e-02	2.17518042e-02	9.13414305e-04
4.47500000e-02	2.14661785e-02	9.22179087e-04
4.50000000e-02	2.15335238e-02	9.20389648e-04
4.52500000e-02	2.15123092e-02	8.98102041e-04
4.55000000e-02	2.13501993e-02	8.93851175e-04
4.57500000e-02	2.15194301e-02	8.93713725e-04
4.60000000e-02	2.12349888e-02	8.89998545e-04
4.62500000e-02	2.13795144e-02	8.99305304e-04
4.65000000e-02	2.12579150e-02	8.90709255e-04
4.67500000e-02	2.07409525e-02	8.57445999e-04
4.70000000e-02	2.14890345e-02	8.84595159e-04
4.72500000e-02	2.16996323e-02	8.94472349e-04
4.75000000e-02	2.12253003e-02	8.90051935e-04
4.77500000e-02	2.19975784e-02	8.95115569e-04
4.80000000e-02	2.14655984e-02	8.77477715e-04
4.82500000e-02	2.14484409e-02	8.69846283e-04
4.85000000e-02	2.12462939e-02	8.82190967e-04
4.87500000e-02	2.13618279e-02	8.75066821e-04
4.90000000e-02	2.06110344e-02	8.33993102e-04
4.92500000e-02	2.07811743e-02	8.48548692e-04
4.95000000e-02	2.11228763e-02	8.52887251e-04
4.97500000e-02	2.15165878e-02	8.70070721e-04
5.00000000e-02	2.09828088e-02	8.46459833e-04
5.02500000e-02	2.12448147e-02	8.41599579e-04
5.05000000e-02	2.03174464e-02	8.11031768e-04
5.07500000e-02	2.07908599e-02	8.31129179e-04
5.10000000e-02	2.11838292e-02	8.44345167e-04
5.12500000e-02	2.10723723e-02	8.47556922e-04
5.15000000e-02	2.02669474e-02	8.00372063e-04
5.17500000e-02	2.08449045e-02	8.25041296e-04
5.20000000e-02	2.05436325e-02	8.12231366e-04
5.22500000e-02	2.08110480e-02	8.30311280e-04
5.25000000e-02	2.11478642e-02	8.31859538e-04
5.27500000e-02	2.16723942e-02	8.42194024e-04
5.30000000e-02	2.01729619e-02	8.00990463e-04
5.32500000e-02	2.15259738e-02	8.42146187e-04
5.35000000e-02	2.09702975e-02	8.28820151e-04
5.37500000e-02	2.09259232e-02	8.11771998e-04
5.40000000e-02	2.13732113e-02	8.29707528e-04
5.42500000e-02	2.05127788e-02	7.98022783e-04
5.45000000e-02	2.02110712e-02	7.94160795e-04
5.47500000e-02	2.09851642e-02	8.07452272e-04
5.50000000e-02	2.06391970e-02	8.02840597e-04
5.52500000e-02	2.06983702e-02	8.05721270e-04
5.55000000e-02	2.09310954e-02	8.06396472e-04
5.57500000e-02	2.13943569e-02	8.27819658e-04
5.60000000e-02	2.03472930e-02	7.81259335e-04
5.62500000e-02	2.14247150e-02	8.22928267e-04
5.65000000e-02	2.04393207e-02	7.82952086e-04
5.67500000e-02	2.05847923e-02	7.93059328e-04
5.70000000e-02	2.08841503e-02	7.92151627e-04
5.72500000e-02	2.10156859e-02	7.98394135e-04
5.75000000e-02	2.01632564e-02	7.72497206e-04
5.77500000e-02	2.07240178e-02	7.80320839e-04
5.80000000e-02	2.09150030e-02	7.98512663e-04
5.82500000e-02	2.04065357e-02	7.74505832e-04
5.85000000e-02	2.06607483e-02	7.74705368e-04
5.87500000e-02	2.09365830e-02	7.84788171e-04
5.90000000e-02	2.08770791e-02	7.86787567e-04
5.92500000e-02	2.02937655e-02	7.59161624e-04
5.95000000e-02	2.10487101e-02	7.80294983e-04
5.97500000e-02	2.06876998e-02	7.70663929e-04
6.00000000e-02	2.02976110e-02	7.58984959e-04
6.02500000e-02	2.02238594e-02	7.52731247e-04
6.05000000e-02	2.00007570e-02	7.46708159e-04
6.07500000e-02	2.06974942e-02	7.71818538e-04
6.10000000e-02	2.03272373e-02	7.51371133e-04
6.12500000e-02	2.04961122e-02	7.55599346e-04
6.15000000e-02	1.97434397e-02	7.30114212e-04
6.17500000e-02	2.07163558e-02	7.65856196e-04
6.20000000e-02	2.04106807e-02	7.52788590e-04
6.22500000e-02	2.04420843e-02	7.54583834e-04
6.25000000e-02	1.99199866e-02	7.27987789e-04
6.27500000e-02	2.07932851e-02	7.58709611e-04
6.30000000e-02	2.00875677e-02	7.34669737e-04
6.32500000e-02	2.05704632e-02	7.53854507e-04
6.35000000e-02	2.01891942e-02	7.32141240e-04
6.37500000e-02	2.00983612e-02	7.37643894e-04
6.40000000e-02	2.04013670e-02	7.40949442e-04
6.42500000e-02	2.04051338e-02	7.37646239e-04
6.45000000e-02	2.06792107e-02	7.47039703e-04
6.47500000e-02	2.02028666e-02	7.33008300e-04
6.50000000e-02	2.03335896e-02	7.39955116e-04
6.52500000e-02	2.02468967e-02	7.27057455e-04
6.55000000e-02	2.02833060e-02	7.30487920e-04
6.57500000e-02	2.03450381e-02	7.22411434e-04
6.60000000e-02	2.01318148e-02	7.23729103e-04
6.62500000e-02	1.97482435e-02	7.15270236e-04
6.65000000e-02	2.02888310e-02	7.22369676e-04
6.67500000e-02	1.97230519e-02	7.07337205e-04
6.70000000e-02	2.07026408e-02	7.41956700e-04
6.72500000e-02	2.03456864e-02	7.26893561e-04
6.75000000e-02	2.01494756e-02	7.11126537e-04
6.77500000e-02	2.03348948e-02	7.15059688e-04
6.80000000e-02	2.02315631e-02	7.23070558e-04
6.82500000e-02	2.03758147e-02	7.18861605e-04
6.85000000e-02	2.05917096e-02	7.30275901e-04
6.87500000e-02	2.06768482e-02	7.28345323e-04
6.90000000e-02	2.01327480e-02	7.09366252e-04
6.92500000e-02	1.99346044e-02	7.01222765e-04
6.95000000e-02	2.01186769e-02	7.11690085e-04
6.97500000e-02	2.08076609e-02	7.33365635e-04
7.00000000e-02	2.00826355e-02	6.99462291e-04
7.02500000e-02	1.97115607e-02	6.89076682e-04
7.05000000e-02	1.99558703e-02	6.96379534e-04
7.07500000e-02	2.03641768e-02	7.18599222e-04
7.10000000e-02	1.98786518e-02	6.90501782e-04
7.12500000e-02	2.00190707e-02	7.01574834e-04
7.15000000e-02	2.02495216e-02	7.05737394e-04
7.17500000e-02	2.01395980e-02	7.00099508e-04
7.20000000e-02	2.03045170e-02	6.98230933e-04
7.22500000e-02	1.91081623e-02	6.64538831e-04
7.25000000e-02	2.05818479e-02	7.04690186e-04
7.27500000e-02	2.01244667e-02	6.95854898e-04
7.30000000e-02	1.98811901e-02	6.99057307e-04
7.32500000e-02	1.99395781e-02	6.83953826e-04
7.35000000e-02	2.02564194e-02	6.95248237e-04
7.37500000e-02	1.99212283e-02	6.83195175e-04
7.40000000e-02	2.01181028e-02	6.90055457e-04
7.42500000e-02	2.05365615e-02	7.05625822e-04
7.45000000e-02	2.00288951e-02	6.87315266e-04
7.47500000e-02	1.99964429e-02	6.81963976e-04
7.50000000e-02	1.99085052e-02	6.76390000e-04
7.52500000e-02	2.00474588e-02	6.86274405e-04
7.55000000e-02	1.97994912e-02	6.72982125e-04
7.57500000e-02	2.04200559e-02	6.97531043e-04
7.60000000e-02	2.01714820e-02	6.85302481e-04
7.62500000e-02	1.98315086e-02	6.71799087e-04
7.65000000e-02	2.01434043e-02	6.82571003e-04
7.67500000e-02	2.03839845e-02	6.88738250e-04
7.70000000e-02	2.01958607e-02	6.85938005e-04
7.72500000e-02	2.00667714e-02	6.88643005e-04
7.75000000e-02	2.01775363e-02	6.95756291e-04
7.77500000e-02	2.01551517e-02	6.97664181e-04
7.80000000e-02	1.99662020e-02	6.97419403e-04
7.82500000e-02	1.98666235e-02	7.02170473e-04
7.85000000e-02	2.00246342e-02	7.17245268e-04
7.87500000e-02	1.97368927e-02	6.95532425e-04
7.90000000e-02	1.95104573e-02	6.94185678e-04
7.92500000e-02	1.99589751e-02	7.10558248e-04
7.95000000e-02	2.00603520e-02	7.21487151e-04
7.97500000e-02	1.95200258e-02	7.04457602e-04
8.00000000e-02	2.02088806e-02	7.16376317e-04
8.02500000e-02	1.99680468e-02	7.23005650e-04
8.05000000e-02	1.99683649e-02	7.14665810e-04
8.07500000e-02	2.01719588e-02	7.26716675e-04
8.10000000e-02	2.00562521e-02	7.24207912e-04
8.12500000e-02	1.98465059e-02	7.17793343e-04
8.15000000e-02	1.98582510e-02	7.17159287e-04
8.17500000e-02	1.97704239e-02	7.22563223e-04
8.20000000e-02	2.04695357e-02	7.42619657e-04
8.22500000e-02	1.96636472e-02	7.19128543e-04
8.25000000e-02	2.04782367e-02	7.54645395e-04
8.27500000e-02	1.99403258e-02	7.28960219e-04
8.30000000e-02	1.93214428e-02	7.14496083e-04
8.32500000e-02	1.95940309e-02	7.21589259e-04
8.35000000e-02	2.00251699e-02	7.36868220e-04
8.37500000e-02	2.02269361e-02	7.38339011e-04
8.40000000e-02	2.02300047e-02	7.39166521e-04
8.42500000e-02	1.95953634e-02	7.28713267e-04
8.45000000e-02	1.95060667e-02	7.26324677e-04
8.47500000e-02	1.97401730e-02	7.28732919e-04
8.50000000e-02	1.97817858e-02	7.28204555e-04
8.52500000e-02	1.99977670e-02	7.41959550e-04
8.55000000e-02	1.97911465e-02	7.33001427e-04
8.57500000e-02	1.95291970e-02	7.25788440e-04
8.60000000e-02	1.95889132e-02	7.32765965e-04
8.62500000e-02	2.03541241e-02	7.54574163e-04
8.65000000e-02	1.99213219e-02	7.31602118e-04
8.67500000e-02	1.97597587e-02	7.34010407e-04
8.70000000e-02	1.93672482e-02	7.12396391e-04
8.72500000e-02	1.99590461e-02	7.09514918e-04
8.75000000e-02	1.98450305e-02	7.01405017e-04
8.77500000e-02	1.95106496e-02	6.88195168e-04
8.80000000e-02	2.03187151e-02	7.16563977e-04
8.82500000e-02	1.97167917e-02	6.88564486e-04
8.85000000e-02	2.00208349e-02	7.07510244e-04
8.87500000e-02	1.92653556e-02	6.60468692e-04
8.90000000e-02	1.94919685e-02	6.74035861e-04
8.92500000e-02	2.00448448e-02	6.91509812e-04
8.95000000e-02	2.02773654e-02	6.92983903e-04
8.97500000e-02	2.06412063e-02	6.98201566e-04
9.00000000e-02	1.97173286e-02	6.66151955e-04
9.02500000e-02	1.98501170e-02	6.72152141e-04
9.05000000e-02	1.92955726e-02	6.57283658e-04
9.07500000e-02	1.97834600e-02	6.69224203e-04
9.10000000e-02	2.02747779e-02	6.81262032e-04
9.12500000e-02	1.95128078e-02	6.56033950e-04
9.15000000e-02	1.94362986e-02	6.57716742e-04
9.17500000e-02	1.98180862e-02	6.67204091e-04
9.20000000e-02	1.97048812e-02	6.59343018e-04
9.22500000e-02	1.95786990e-02	6.50841874e-04
9.25000000e-02	2.00042204e-02	6.66437820e-04
9.27500000e-02	1.97530027e-02	6.53542571e-04
9.30000000e-02	2.02237334e-02	6.66972017e-04
9.32500000e-02	2.01496025e-02	6.66110741e-04
9.35000000e-02	2.02905286e-02	6.63173867e-04
9.37500000e-02	1.96687578e-02	6.42646110e-04
9.40000000e-02	1.96920500e-02	6.45359435e-04
9.42500000e-02	1.93845607e-02	6.36084177e-04
9.45000000e-02	1.96722030e-02	6.43255545e-04
9.47500000e-02	1.97485879e-02	6.43560361e-04
9.50000000e-02	1.98188009e-02	6.44222571e-04
9.52500000e-02	1.95567898e-02	6.36415415e-04
9.55000000e-02	1.97155143e-02	6.36168228e-04
9.57500000e-02	2.02501714e-02	6.52686181e-04
9.60000000e-02	1.97505973e-02	6.38868713e-04
9.62500000e-02	2.02645028e-02	6.50800430e-04
9.65000000e-02	1.98770163e-02	6.37439168e-04
9.67500000e-02	1.96880135e-02	6.33771407e-04
9.70000000e-02	2.00267817e-02	6.40223506e-04
9.72500000e-02	1.95207952e-02	6.24904016e-04
9.75000000e-02	1.95608179e-02	6.26530741e-04
9.77500000e-02	2.01360720e-02	6.41780272e-04
9.80000000e-02	2.02023707e-02	6.46557002e-04
9.82500000e-02	1.99044295e-02	6.35473557e-04
9.85000000e-02	1.97438803e-02	6.24383504e-04
9.87500000e-02	1.99866638e-02	6.32469965e-04
9.90000000e-02	1.99022746e-02	6.29545004e-04
9.92500000e-02	1.98977626e-02	6.31039414e-04
9.95000000e-02	1.96308868e-02	6.24846322e-04
9.97500000e-02	2.01269558e-02	6.34002372e-04
1.00000000e-01	1.97335972e-02	5.09889765e-04
1.00500000e-01	1.96663338e-02	4.38782391e-04
1.01000000e-01	1.99018897e-02	4.41527848e-04
1.01500000e-01	1.96369480e-02	4.38503214e-04
1.02000000e-01	1.95056083e-02	4.31480870e-04
1.02500000e-01	1.97488133e-02	4.33948100e-04
1.03000000e-01	1.93032228e-02	4.27137835e-04
1.03500000e-01	1.97964082e-02	4.34671130e-04
1.04000000e-01	1.99023010e-02	4.35058347e-04
1.04500000e-01	1.96453978e-02	4.29085866e-04
1.05000000e-01	1.93919271e-02	4.20486638e-04
1.05500000e-01	1.98372846e-02	4.29790763e-04
1.06000000e-01	1.98366283e-02	4.28309783e-04
1.06500000e-01	1.97453768e-02	4.24189827e-04
1.07000000e-01	2.01384678e-02	4.38964972e-04
1.07500000e-01	1.96767263e-02	4.39427211e-04
1.08000000e-01	1.98480903e-02	4.46133079e-04
1.08500000e-01	1.97240243e-02	4.45792278e-04
1.09000000e-01	1.96632940e-02	4.47445558e-04
1.09500000e-01	1.99310015e-02	4.53937454e-04
1.10000000e-01	1.98260895e-02	4.45319444e-04
1.10500000e-01	1.96082900e-02	4.34433348e-04
1.11000000e-01	1.98968901e-02	4.31744744e-04
1.11500000e-01	1.97254838e-02	4.25299510e-04
1.12000000e-01	1.97515890e-02	4.23903268e-04
1.12500000e-01	1.95575335e-02	4.14672653e-04
1.13000000e-01	1.96789094e-02	4.17608710e-04
1.13500000e-01	1.98740491e-02	4.22824769e-04
1.14000000e-01	1.93871481e-02	4.08870743e-04
1.14500000e-01	1.98057829e-02	4.15338491e-04
1.15000000e-01	1.97426261e-02	4.09621653e-04
1.15500000e-01	1.99615270e-02	4.16897660e-04
1.16000000e-01	1.94249126e-02	4.06397655e-04
1.16500000e-01	1.97009844e-02	4.10303965e-04
1.17000000e-01	1.96645961e-02	4.05942085e-04
1.17500000e-01	1.96318167e-02	4.06421109e-04
1.18000000e-01	1.97472266e-02	4.08308456e-04
1.18500000e-01	1.96473662e-02	4.02456161e-04
1.19000000e-01	1.96338906e-02	4.02585626e-04
1.19500000e-01	1.95602376e-02	4.00916403e-04
1.20000000e-01	1.96973512e-02	4.02073046e-04
1.20500000e-01	1.98221340e-02	4.04260355e-04
1.21000000e-01	1.95187970e-02	3.94845573e-04
1.21500000e-01	1.97595093e-02	3.99630068e-04
1.22000000e-01	1.96903809e-02	3.98849604e-04
1.22500000e-01	1.95700877e-02	3.94454037e-04
1.23000000e-01	1.97864082e-02	3.97781930e-04
1.23500000e-01	1.99054153e-02	3.98677177e-04
1.24000000e-01	1.95996143e-02	3.94164930e-04
1.24500000e-01	1.99704196e-02	3.99737901e-04
1.25000000e-01	1.97255638e-02	3.93504587e-04
1.25500000e-01	1.96151136e-02	3.91898606e-04
1.26000000e-01	1.98938814e-02	3.94355124e-04
1.26500000e-01	1.99950812e-02	3.95859147e-04
1.27000000e-01	1.94368417e-02	3.84399979e-04
1.27500000e-01	1.99706569e-02	3.93441436e-04
1.28000000e-01	1.93097805e-02	3.80591615e-04
1.28500000e-01	1.94486675e-02	3.82001104e-04
1.29000000e-01	1.98117586e-02	3.90458195e-04
1.29500000e-01	2.00117530e-02	3.91933670e-04
1.30000000e-01	1.97571615e-02	3.87989264e-04
1.30500000e-01	1.96815836e-02	3.84133505e-04
1.31000000e-01	1.95173800e-02	3.80432641e-04
1.31500000e-01	1.94624944e-02	3.78464188e-04
1.32000000e-01	1.97412850e-02	3.83458107e-04
1.32500000e-01	1.97150739e-02	3.82907056e-04
1.33000000e-01	1.95053278e-02	3.76497411e-04
1.33500000e-01	1.97266543e-02	3.77704500e-04
1.34000000e-01	1.97959813e-02	3.78733262e-04
1.34500000e-01	1.93789104e-02	3.71418981e-04
1.35000000e-01	1.93593568e-02	3.69738027e-04
1.35500000e-01	1.96489008e-02	3.73654019e-04
1.36000000e-01	2.00728469e-02	3.79749934e-04
1.36500000e-01	1.96837070e-02	3.75208667e-04
1.37000000e-01	1.95995122e-02	3.71945180e-04
1.37500000e-01	1.97625008e-02	3.73179272e-04
1.38000000e-01	1.94351712e-02	3.67315230e-04
1.38500000e-01	1.93951547e-02	3.66020623e-04
1.39000000e-01	1.96811783e-02	3.71893225e-04
1.39500000e-01	1.94850905e-02	3.66567333e-04
1.40000000e-01	1.96500041e-02	3.70119216e-04
1.40500000e-01	1.96935388e-02	3.70006815e-04
1.41000000e-01	1.94972925e-02	3.65091577e-04
1.41500000e-01	1.94525020e-02	3.67205593e-04
1.42000000e-01	1.93350394e-02	3.59586873e-04
1.42500000e-01	1.95004010e-02	3.63348783e-04
1.43000000e-01	1.95786384e-02	3.65462016e-04
1.43500000e-01	1.96374625e-02	3.65270631e-04
1.44000000e-01	1.96987196e-02	3.66083703e-04
1.44500000e-01	1.96517122e-02	3.64219554e-04
1.45000000e-01	1.92491757e-02	3.57966869e-04
1.45500000e-01	1.93320474e-02	3.56854747e-04
1.46000000e-01	1.93970687e-02	3.57408314e-04
1.46500000e-01	1.94079920e-02	3.55889158e-04
1.47000000e-01	1.92479029e-02	3.54598745e-04
1.47500000e-01	1.96382175e-02	3.58492126e-04
1.48000000e-01	1.95775159e-02	3.57388208e-04
1.48500000e-01	1.95100090e-02	3.57452786e-04
1.49000000e-01	1.94508824e-02	3.54109489e-04
1.49500000e-01	1.92305399e-02	3.51134294e-04
1.50000000e-01	1.93958446e-02	3.55146394e-04
1.50500000e-01	1.92477302e-02	3.51462605e-04
1.51000000e-01	1.91271935e-02	3.47761554e-04
1.51500000e-01	1.93670115e-02	3.51448187e-04
1.52000000e-01	1.94268885e-02	3.50289090e-04
1.52500000e-01	1.92629259e-02	3.48194546e-04
1.53000000e-01	1.94397318e-02	3.50301256e-04
1.53500000e-01	1.94298073e-02	3.49950258e-04
1.54000000e-01	1.90980900e-02	3.43662813e-04
1.54500000e-01	1.93840885e-02	3.54393871e-04
1.55000000e-01	1.94534878e-02	3.59295021e-04
1.55500000e-01	1.93986757e-02	3.60806474e-04
1.56000000e-01	1.92980815e-02	3.61988372e-04
1.56500000e-01	1.92938841e-02	3.61576519e-04
1.57000000e-01	1.91424105e-02	3.58820506e-04
1.57500000e-01	1.90378235e-02	3.49896953e-04
1.58000000e-01	1.90867908e-02	3.46562071e-04
1.58500000e-01	1.91599015e-02	3.44482140e-04
1.59000000e-01	1.89323607e-02	3.39750271e-04
1.59500000e-01	1.92448908e-02	3.44275879e-04
1.60000000e-01	1.90108143e-02	3.41986215e-04
1.60500000e-01	1.93208910e-02	3.44062516e-04
1.61000000e-01	1.90879906e-02	3.40562583e-04
1.61500000e-01	1.90701757e-02	3.39596975e-04
1.62000000e-01	1.91115769e-02	3.38326989e-04
1.62500000e-01	1.90433727e-02	3.37229832e-04
1.63000000e-01	1.89272336e-02	3.32761034e-04
1.63500000e-01	1.87584091e-02	3.32567369e-04
1.64000000e-01	1.90614074e-02	3.33406943e-04
1.64500000e-01	1.90954726e-02	3.35828986e-04
1.65000000e-01	1.88234428e-02	3.29964644e-04
1.65500000e-01	1.91597667e-02	3.34960137e-04
1.66000000e-01	1.91685411e-02	3.35757368e-04
1.66500000e-01	1.89809808e-02	3.30851421e-04
1.67000000e-01	1.88346360e-02	3.28544500e-04
1.67500000e-01	1.92177840e-02	3.34528685e-04
1.68000000e-01	1.87216799e-02	3.24005313e-04
1.68500000e-01	1.92284180e-02	3.33171896e-04
1.69000000e-01	1.90429632e-02	3.29523999e-04
1.69500000e-01	1.89058964e-02	3.25864455e-04
1.70000000e-01	1.88652554e-02	3.26294607e-04
1.70500000e-01	1.89823962e-02	3.27711623e-04
1.71000000e-01	1.86064671e-02	3.20887577e-04
1.71500000e-01	1.89802078e-02	3.27586801e-04
1.72000000e-01	1.89945274e-02	3.25191568e-04
1.72500000e-01	1.91088714e-02	3.28639067e-04
1.73000000e-01	1.88553752e-02	3.22142014e-04
1.73500000e-01	1.90605072e-02	3.24054058e-04
1.74000000e-01	1.89413878e-02	3.23362082e-04
1.74500000e-01	1.88868723e-02	3.20298265e-04
1.75000000e-01	1.87981975e-02	3.16869310e-04
1.75500000e-01	1.89274244e-02	3.17729875e-04
1.76000000e-01	1.88187049e-02	3.16995820e-04
1.76500000e-01	1.87843600e-02	3.16486353e-04
1.77000000e-01	1.89591543e-02	3.17754171e-04
1.77500000e-01	1.88258862e-02	3.16889551e-04
1.78000000e-01	1.89356806e-02	3.17230388e-04
1.78500000e-01	1.85192615e-02	3.12301018e-04
1.79000000e-01	1.86650289e-02	3.11767211e-04
1.79500000e-01	1.87917716e-02	3.17920266e-04
1.80000000e-01	1.88050273e-02	3.16639821e-04
1.80500000e-01	1.85567699e-02	3.11360325e-04
1.81000000e-01	1.88068132e-02	3.15610691e-04
1.81500000e-01	1.84753723e-02	3.09042788e-04
1.82000000e-01	1.88050102e-02	3.13890151e-04
1.82500000e-01	1.88586569e-02	3.13568878e-04
1.83000000e-01	1.86933479e-02	3.11445038e-04
1.83500000e-01	1.84265134e-02	3.07479011e-04
1.84000000e-01	1.86186351e-02	3.08145391e-04
1.84500000e-01	1.85333127e-02	3.07108576e-04
1.85000000e-01	1.88443053e-02	3.12027956e-04
1.85500000e-01	1.84493620e-02	3.05440008e-04
1.86000000e-01	1.85564709e-02	3.07398823e-04
1.86500000e-01	1.85700951e-02	3.06033076e-04
1.87000000e-01	1.85050086e-02	3.04963218e-04
1.87500000e-01	1.83215367e-02	3.01395255e-04
1.88000000e-01	1.88606153e-02	3.10208741e-04
1.88500000e-01	1.86024842e-02	3.05310782e-04
1.89000000e-01	1.81679632e-02	2.98889274e-04
1.89500000e-01	1.85014693e-02	3.02959525e-04
1.90000000e-01	1.83888372e-02	3.01365959e-04
1.90500000e-01	1.83801621e-02	3.01128539e-04
1.91000000e-01	1.84823088e-02	3.01028919e-04
1.91500000e-01	1.82864865e-02	2.98924467e-04
1.92000000e-01	1.83821676e-02	2.98545941e-04
1.92500000e-01	1.87313118e-02	3.03523659e-04
1.93000000e-01	1.84563823e-02	3.00040297e-04
1.93500000e-01	1.83161785e-02	2.97654205e-04
1.94000000e-01	1.81871401e-02	2.95334327e-04
1.94500000e-01	1.84713444e-02	2.99095096e-04
1.95000000e-01	1.83755850e-02	2.97398363e-04
1.95500000e-01	1.81795937e-02	2.93164855e-04
1.96000000e-01	1.83901297e-02	2.96889081e-04
1.96500000e-01	1.83595552e-02	2.95631755e-04
1.97000000e-01	1.84894157e-02	2.97440389e-04
1.97500000e-01	1.85094928e-02	2.96717517e-04
1.98000000e-01	1.84421709e-02	2.95665052e-04
1.98500000e-01	1.81962492e-02	2.92053198e-04
1.99000000e-01	1.84206124e-02	2.94477922e-04
1.99500000e-01	1.84859965e-02	2.95528591e-04
2.00000000e-01	1.83178999e-02	2.91910501e-04
2.00500000e-01	1.81529463e-02	2.88764992e-04
2.01000000e-01	1.84142366e-02	2.93203917e-04
2.01500000e-01	1.84306646e-02	2.94025440e-04
2.02000000e-01	1.82267700e-02	2.90308356e-04
2.02500000e-01	1.81042534e-02	2.87137494e-04
2.03000000e-01	1.80659876e-02	2.86701017e-04
2.03500000e-01	1.82007635e-02	2.88080400e-04
2.04000000e-01	1.82627225e-02	2.87781707e-04
2.04500000e-01	1.81468000e-02	2.88267907e-04
2.05000000e-01	1.82538781e-02	2.87705628e-04
2.05500000e-01	1.82336500e-02	2.88257087e-04
2.06000000e-01	1.80515385e-02	2.82817058e-04
2.06500000e-01	1.82489025e-02	2.87185105e-04
2.07000000e-01	1.81566298e-02	2.85470664e-04
2.07500000e-01	1.81859748e-02	2.85325508e-04
2.08000000e-01	1.86043588e-02	2.91596114e-04
2.08500000e-01	1.81709001e-02	2.83071373e-04
2.09000000e-01	1.80113846e-02	2.82622723e-04
2.09500000e-01	1.80773382e-02	2.81489988e-04
2.10000000e-01	1.83400437e-02	2.85859417e-04
2.10500000e-01	1.81158302e-02	2.83690000e-04
2.11000000e-01	1.79978572e-02	2.81327867e-04
2.11500000e-01	1.81611698e-02	2.83400574e-04
2.12000000e-01	1.82122614e-02	2.82574537e-04
2.12500000e-01	1.79915382e-02	2.79412628e-04
2.13000000e-01	1.81240166e-02	2.80383498e-04
2.13500000e-01	1.80050753e-02	2.77405911e-04
2.14000000e-01	1.78129610e-02	2.76088487e-04
2.14500000e-01	1.80965829e-02	2.78121709e-04
2.15000000e-01	1.80023457e-02	2.79348726e-04
2.15500000e-01	1.81474176e-02	2.79277859e-04
2.16000000e-01	1.80189932e-02	2.77602816e-04
2.16500000e-01	1.82406168e-02	2.80430531e-04
2.17000000e-01	1.83180905e-02	2.85249038e-04
2.17500000e-01	1.80325212e-02	2.84947543e-04
2.18000000e-01	1.78482209e-02	2.82166309e-04
2.18500000e-01	1.79792429e-02	2.87335466e-04
2.19000000e-01	1.79731150e-02	2.87956587e-04
2.19500000e-01	1.78804679e-02	2.88426529e-04
2.20000000e-01	1.80783669e-02	2.93288847e-04
2.20500000e-01	1.79456555e-02	2.90745456e-04
2.21000000e-01	1.80672328e-02	2.92231647e-04
2.21500000e-01	1.77234670e-02	2.89738223e-04
2.22000000e-01	1.78798062e-02	2.91761264e-04
2.22500000e-01	1.78669710e-02	2.92146126e-04
2.23000000e-01	1.79647432e-02	2.94811003e-04
2.23500000e-01	1.82014842e-02	2.98767921e-04
2.24000000e-01	1.77339713e-02	2.92467389e-04
2.24500000e-01	1.79560230e-02	2.96365367e-04
2.25000000e-01	1.78595077e-02	2.95585891e-04
2.25500000e-01	1.75764978e-02	2.90270539e-04
2.26000000e-01	1.79848309e-02	2.99449759e-04
2.26500000e-01	1.78845298e-02	2.92064240e-04
2.27000000e-01	1.80533237e-02	2.92768898e-04
2.27500000e-01	1.79222931e-02	2.88114061e-04
2.28000000e-01	1.81789585e-02	2.91454469e-04
2.28500000e-01	1.80346966e-02	2.85081883e-04
2.29000000e-01	1.79069107e-02	2.84053465e-04
2.29500000e-01	1.80592608e-02	2.85092898e-04
2.30000000e-01	1.78522169e-02	2.80969097e-04
2.30500000e-01	1.78285938e-02	2.78332817e-04
2.31000000e-01	1.75681246e-02	2.75106842e-04
2.31500000e-01	1.78955611e-02	2.80443377e-04
2.32000000e-01	1.79854743e-02	2.79994056e-04
2.32500000e-01	1.80256519e-02	2.79887473e-04
2.33000000e-01	1.78067697e-02	2.76332104e-04
2.33500000e-01	1.78421976e-02	2.75164686e-04
2.34000000e-01	1.76938291e-02	2.73290807e-04
2.34500000e-01	1.79095881e-02	2.75957064e-04
2.35000000e-01	1.78201870e-02	2.73777027e-04
2.35500000e-01	1.77848233e-02	2.72133313e-04
2.36000000e-01	1.77874672e-02	2.73180879e-04
2.36500000e-01	1.78273269e-02	2.73174171e-04
2.37000000e-01	1.77686577e-02	2.70211790e-04
2.37500000e-01	1.77161650e-02	2.69999009e-04
2.38000000e-01	1.75833339e-02	2.66947127e-04
2.38500000e-01	1.75953821e-02	2.67726068e-04
2.39000000e-01	1.79111838e-02	2.71342524e-04
2.39500000e-01	1.77215411e-02	2.68258360e-04
2.40000000e-01	1.76773215e-02	2.67312465e-04
2.40500000e-01	1.75581851e-02	2.64657412e-04
2.41000000e-01	1.75056672e-02	2.64363532e-04
2.41500000e-01	1.77852614e-02	2.66176160e-04
2.42000000e-01	1.76734997e-02	2.65444379e-04
2.42500000e-01	1.76237415e-02	2.65060200e-04
2.43000000e-01	1.76661661e-02	2.62987693e-04
2.43500000e-01	1.77177458e-02	2.64249571e-04
2.44000000e-01	1.75729227e-02	2.63400621e-04
2.44500000e-01	1.76509650e-02	2.62538228e-04
2.45000000e-01	1.76949208e-02	2.63289653e-04
2.45500000e-01	1.77575706e-02	2.63018183e-04
2.46000000e-01	1.76127038e-02	2.61995731e-04
2.46500000e-01	1.74432621e-02	2.58373103e-04
2.47000000e-01	1.74732135e-02	2.59042275e-04
2.47500000e-01	1.75602797e-02	2.59969148e-04
2.48000000e-01	1.74246440e-02	2.57165757e-04
2.48500000e-01	1.74713581e-02	2.57847735e-04
2.49000000e-01	1.75895326e-02	2.58971042e-04
2.49500000e-01	1.74606652e-02	2.57519330e-04
2.50000000e-01	1.74192760e-02	2.57383007e-04
2.50500000e-01	1.74478847e-02	2.57305820e-04
2.51000000e-01	1.74302259e-02	2.55833490e-04
2.51500000e-01	1.75487327e-02	2.57995109e-04
2.52000000e-01	1.73868015e-02	2.55544169e-04
2.52500000e-01	1.75240210e-02	2.56204322e-04
2.53000000e-01	1.74935322e-02	2.55733488e-04
2.53500000e-01	1.76367300e-02	2.57374306e-04
2.54000000e-01	1.75107482e-02	2.55961908e-04
2.54500000e-01	1.74540935e-02	2.55301558e-04
2.55000000e-01	1.72539412e-02	2.50916895e-04
2.55500000e-01	1.76215963e-02	2.55689142e-04
2.56000000e-01	1.72677998e-02	2.50852721e-04
2.56500000e-01	1.74631506e-02	2.53845003e-04
2.57000000e-01	1.74339369e-02	2.51805206e-04
2.57500000e-01	1.74596062e-02	2.52773607e-04
2.58000000e-01	1.73741289e-02	2.51980979e-04
2.58500000e-01	1.74520761e-02	2.52511871e-04
2.59000000e-01	1.73081936e-02	2.50495729e-04
2.59500000e-01	1.72967552e-02	2.49854959e-04
2.60000000e-01	1.73256774e-02	2.49424478e-04
2.60500000e-01	1.74951211e-02	2.52552747e-04
2.61000000e-01	1.73355729e-02	2.49161057e-04
2.61500000e-01	1.71857011e-02	2.47278557e-04
2.62000000e-01	1.74345430e-02	2.49580067e-04
2.62500000e-01	1.74375495e-02	2.50134850e-04
2.63000000e-01	1.73298885e-02	2.48709707e-04
2.63500000e-01	1.74827811e-02	2.49206628e-04
2.64000000e-01	1.73113572e-02	2.48198913e-04
2.64500000e-01	1.72784041e-02	2.46137302e-04
2.65000000e-01	1.74235670e-02	2.48782206e-04
2.65500000e-01	1.71422731e-02	2.44748410e-04
2.66000000e-01	1.74794106e-02	2.48631233e-04
2.66500000e-01	1.72048221e-02	2.44906866e-04
2.67000000e-01	1.72243321e-02	2.44276598e-04
2.67500000e-01	1.74183967e-02	2.45873898e-04
2.68000000e-01	1.73410452e-02	2.45842808e-04
2.68500000e-01	1.71707486e-02	2.42111912e-04
2.69000000e-01	1.72933076e-02	2.43419541e-04
2.69500000e-01	1.72980012e-02	2.44235736e-04
2.70000000e-01	1.74946153e-02	2.45375883e-04
2.70500000e-01	1.73277811e-02	2.43742736e-04
2.71000000e-01	1.72364962e-02	2.42214453e-04
2.71500000e-01	1.70961566e-02	2.40997213e-04
2.72000000e-01	1.71198950e-02	2.39794727e-04
2.72500000e-01	1.70197361e-02	2.38773125e-04
2.73000000e-01	1.73486423e-02	2.43690510e-04
2.73500000e-01	1.70759944e-02	2.39049977e-04
2.74000000e-01	1.71123228e-02	2.39417957e-04
2.74500000e-01	1.70945569e-02	2.37984176e-04
2.75000000e-01	1.69363983e-02	2.36982188e-04
2.75500000e-01	1.73143042e-02	2.41633358e-04
2.76000000e-01	1.71438547e-02	2.38149325e-04
2.76500000e-01	1.73752247e-02	2.42132933e-04
2.77000000e-01	1.71956553e-02	2.39264501e-04
2.77500000e-01	1.69120300e-02	2.35678110e-04
2.78000000e-01	1.72297145e-02	2.37836207e-04
2.78500000e-01	1.71244483e-02	2.38044829e-04
2.79000000e-01	1.70306737e-02	2.37165292e-04
2.79500000e-01	1.70346449e-02	2.35091927e-04
2.80000000e-01	1.71139341e-02	2.37884831e-04
2.80500000e-01	1.71743160e-02	2.37173969e-04
2.81000000e-01	1.68462720e-02	2.33246156e-04
2.81500000e-01	1.69800951e-02	2.34108217e-04
2.82000000e-01	1.68860701e-02	2.33010531e-04
2.82500000e-01	1.69510111e-02	2.34443912e-04
2.83000000e-01	1.72327017e-02	2.36474232e-04
2.83500000e-01	1.68897084e-02	2.32340210e-04
2.84000000e-01	1.68493176e-02	2.31741059e-04
2.84500000e-01	1.69964649e-02	2.33128523e-04
2.85000000e-01	1.70762142e-02	2.34514484e-04
2.85500000e-01	1.70690253e-02	2.32885903e-04
2.86000000e-01	1.68956952e-02	2.32071652e-04
2.86500000e-01	1.67581180e-02	2.29247553e-04
2.87000000e-01	1.68809451e-02	2.31282710e-04
2.87500000e-01	1.70602486e-02	2.31036207e-04
2.88000000e-01	1.68785226e-02	2.29539221e-04
2.88500000e-01	1.70544934e-02	2.32521109e-04
2.89000000e-01	1.67866918e-02	2.28922231e-04
2.89500000e-01	1.68905057e-02	2.29680414e-04
2.90000000e-01	1.67598345e-02	2.27752483e-04
2.90500000e-01	1.69009474e-02	2.29675311e-04
2.91000000e-01	1.70321048e-02	2.31535191e-04
2.91500000e-01	1.69222715e-02	2.28890224e-04
2.92000000e-01	1.66371045e-02	2.25435160e-04
2.92500000e-01	1.68605015e-02	2.27786377e-04
2.93000000e-01	1.69052486e-02	2.28937795e-04
2.93500000e-01	1.69638286e-02	2.28597725e-04
2.94000000e-01	1.66998053e-02	2.25343662e-04
2.94500000e-01	1.68586675e-02	2.27268137e-04
2.95000000e-01	1.68942666e-02	2.27090041e-04
2.95500000e-01	1.67592098e-02	2.27119245e-04
2.96000000e-01	1.69733587e-02	2.27854579e-04
2.96500000e-01	1.67977804e-02	2.25784876e-04
2.97000000e-01	1.69205320e-02	2.27566347e-04
2.97500000e-01	1.68220466e-02	2.25392040e-04
2.98000000e-01	1.69488591e-02	2.27365855e-04
2.98500000e-01	1.67601391e-02	2.24802621e-04
2.99000000e-01	1.66789008e-02	2.22329682e-04
2.99500000e-01	1.67740578e-02	2.25217469e-04
3.00000000e-01	1.67380857e-02	2.23525234e-04
3.00500000e-01	1.66969958e-02	2.22876416e-04
3.01000000e-01	1.68079997e-02	2.24040816e-04
3.01500000e-01	1.66478260e-02	2.22667611e-04
3.02000000e-01	1.67377990e-02	2.22896107e-04
3.02500000e-01	1.67658203e-02	2.22631301e-04
3.03000000e-01	1.68206541e-02	2.24037411e-04
3.03500000e-01	1.68605471e-02	2.23371800e-04
3.04000000e-01	1.66176770e-02	2.21097246e-04
3.04500000e-01	1.65042487e-02	2.18870103e-04
3.05000000e-01	1.65794277e-02	2.19690913e-04
3.05500000e-01	1.66971914e-02	2.21294400e-04
3.06000000e-01	1.67143811e-02	2.20553402e-04
3.06500000e-01	1.66578914e-02	2.21215150e-04
3.07000000e-01	1.66595105e-02	2.20294228e-04
3.07500000e-01	1.68233142e-02	2.21113174e-04
3.08000000e-01	1.67960606e-02	2.21697686e-04
3.08500000e-01	1.67401344e-02	2.19836479e-04
3.09000000e-01	1.66553423e-02	2.19360452e-04
3.09500000e-01	1.64881358e-02	2.16954374e-04
3.10000000e-01	1.65919534e-02	2.19006624e-04
3.10500000e-01	1.65539728e-02	2.17804910e-04
3.11000000e-01	1.64809795e-02	2.17021736e-04
3.11500000e-01	1.68348065e-02	2.20558521e-04
3.12000000e-01	1.67008513e-02	2.18566586e-04
3.12500000e-01	1.66283377e-02	2.17922148e-04
3.13000000e-01	1.66346766e-02	2.17098434e-04
3.13500000e-01	1.64947007e-02	2.16069179e-04
3.14000000e-01	1.65750023e-02	2.17090955e-04
3.14500000e-01	1.63982546e-02	2.14555895e-04
3.15000000e-01	1.62732431e-02	2.12109964e-04
3.15500000e-01	1.66531399e-02	2.16348538e-04
3.16000000e-01	1.66121862e-02	2.17205053e-04
3.16500000e-01	1.64471013e-02	2.13924198e-04
3.17000000e-01	1.65733882e-02	2.15885751e-04
3.17500000e-01	1.62958150e-02	2.12159689e-04
3.18000000e-01	1.62880172e-02	2.11765015e-04
3.18500000e-01	1.65280682e-02	2.15260563e-04
3.19000000e-01	1.65045414e-02	2.13577173e-04
3.19500000e-01	1.63192301e-02	2.12440552e-04
3.20000000e-01	1.65262774e-02	2.14869836e-04
3.20500000e-01	1.64675603e-02	2.12576450e-04
3.21000000e-01	1.63494662e-02	2.11986485e-04
3.21500000e-01	1.63017648e-02	2.10534421e-04
3.22000000e-01	1.62189212e-02	2.09769528e-04
3.22500000e-01	1.63745852e-02	2.11050010e-04
3.23000000e-01	1.63736821e-02	2.10674507e-04
3.23500000e-01	1.62983740e-02	2.10849520e-04
3.24000000e-01	1.62796804e-02	2.09441312e-04
3.24500000e-01	1.63922103e-02	2.11262623e-04
3.25000000e-01	1.63199205e-02	2.09821759e-04
3.25500000e-01	1.62597135e-02	2.08757982e-04
3.26000000e-01	1.63277231e-02	2.09667487e-04
3.26500000e-01	1.62401310e-02	2.08022329e-04
3.27000000e-01	1.62437851e-02	2.08028438e-04
3.27500000e-01	1.61222286e-02	2.06822988e-04
3.28000000e-01	1.63023638e-02	2.09155314e-04
3.28500000e-01	1.61640426e-02	2.07182152e-04
3.29000000e-01	1.62101934e-02	2.06839725e-04
3.29500000e-01	1.62769926e-02	2.08167988e-04
3.30000000e-01	1.63034692e-02	2.08349614e-04
3.30500000e-01	1.62247245e-02	2.07224174e-04
3.31000000e-01	1.61011671e-02	2.04774033e-04
3.31500000e-01	1.61191335e-02	2.05268565e-04
3.32000000e-01	1.60590355e-02	2.05046409e-04
3.32500000e-01	1.63108795e-02	2.07632126e-04
3.33000000e-01	1.63068503e-02	2.06462016e-04
3.33500000e-01	1.60822171e-02	2.04179395e-04
3.34000000e-01	1.59942020e-02	2.03307327e-04
3.34500000e-01	1.59630571e-02	2.03347421e-04
3.35000000e-01	1.60981934e-02	2.04184758e-04
3.35500000e-01	1.61542273e-02	2.04219142e-04
3.36000000e-01	1.61795532e-02	2.04756704e-04
3.36500000e-01	1.60752506e-02	2.03827345e-04
3.37000000e-01	1.62077296e-02	2.04606641e-04
3.37500000e-01	1.60683930e-02	2.02831195e-04
3.38000000e-01	1.60086666e-02	2.02581323e-04
3.38500000e-01	1.62016156e-02	2.03582859e-04
3.39000000e-01	1.59734713e-02	2.02262954e-04
3.39500000e-01	1.60908995e-02	2.01845948e-04
3.40000000e-01	1.59785910e-02	2.01989841e-04
3.40500000e-01	1.60023383e-02	2.01493319e-04
3.41000000e-01	1.59870774e-02	2.00776428e-04
3.41500000e-01	1.59146440e-02	2.00160725e-04
3.42000000e-01	1.61679912e-02	2.01950436e-04
3.42500000e-01	1.59573646e-02	2.00311074e-04
3.43000000e-01	1.58651436e-02	1.99327244e-04
3.43500000e-01	1.59995783e-02	1.99990090e-04
3.44000000e-01	1.59630517e-02	1.99937659e-04
3.44500000e-01	1.61465006e-02	2.01435003e-04
3.45000000e-01	1.60473331e-02	2.01121604e-04
3.45500000e-01	1.57538824e-02	1.96849121e-04
3.46000000e-01	1.58480504e-02	1.97908357e-04
3.46500000e-01	1.60176314e-02	1.99816054e-04
3.47000000e-01	1.59028064e-02	1.98018850e-04
3.47500000e-01	1.57680414e-02	1.96960994e-04
3.48000000e-01	1.58338769e-02	1.97483124e-04
3.48500000e-01	1.59907227e-02	1.99284731e-04
3.49000000e-01	1.59411442e-02	1.97794840e-04
3.49500000e-01	1.58546000e-02	1.97277201e-04
3.50000000e-01	1.57508674e-02	1.59882032e-04
3.51000000e-01	1.58512322e-02	1.39304937e-04
3.52000000e-01	1.58226476e-02	1.38696986e-04
3.53000000e-01	1.57626919e-02	1.37749079e-04
3.54000000e-01	1.57263400e-02	1.37190071e-04
3.55000000e-01	1.58190170e-02	1.37839203e-04
3.56000000e-01	1.56921590e-02	1.37311372e-04
3.57000000e-01	1.58479744e-02	1.40711221e-04
3.58000000e-01	1.57309498e-02	1.41612029e-04
3.59000000e-01	1.55982859e-02	1.41305818e-04
3.60000000e-01	1.57082246e-02	1.43286104e-04
3.61000000e-01	1.57173377e-02	1.44060077e-04
3.62000000e-01	1.55797533e-02	1.43118337e-04
3.63000000e-01	1.55016688e-02	1.43274630e-04
3.64000000e-01	1.56090934e-02	1.44544012e-04
3.65000000e-01	1.57056316e-02	1.45990448e-04
3.66000000e-01	1.56092968e-02	1.42930809e-04
3.67000000e-01	1.55333028e-02	1.40518740e-04
3.68000000e-01	1.54510717e-02	1.39223959e-04
3.69000000e-01	1.54861156e-02	1.38384747e-04
3.70000000e-01	1.55758378e-02	1.38383444e-04
3.71000000e-01	1.56381595e-02	1.40843066e-04
3.72000000e-01	1.56385183e-02	1.41817770e-04
3.73000000e-01	1.55859817e-02	1.41924052e-04
3.74000000e-01	1.55419027e-02	1.41695511e-04
3.75000000e-01	1.56810803e-02	1.42526432e-04
3.76000000e-01	1.55360762e-02	1.41355549e-04
3.77000000e-01	1.55416240e-02	1.41767127e-04
3.78000000e-01	1.54919743e-02	1.41083916e-04
3.79000000e-01	1.55163668e-02	1.41541964e-04
3.80000000e-01	1.53176336e-02	1.39507382e-04
3.81000000e-01	1.54860417e-02	1.41067265e-04
3.82000000e-01	1.54486737e-02	1.40801985e-04
3.83000000e-01	1.52278733e-02	1.38604502e-04
3.84000000e-01	1.54233818e-02	1.39966518e-04
3.85000000e-01	1.53588174e-02	1.39570758e-04
3.86000000e-01	1.53745613e-02	1.39915326e-04
3.87000000e-01	1.54743100e-02	1.40429474e-04
3.88000000e-01	1.52707902e-02	1.38676371e-04
3.89000000e-01	1.53501306e-02	1.39519154e-04
3.90000000e-01	1.52232718e-02	1.38173297e-04
3.91000000e-01	1.53853460e-02	1.39408689e-04
3.92000000e-01	1.54105269e-02	1.39748072e-04
3.93000000e-01	1.52191750e-02	1.38028876e-04
3.94000000e-01	1.51309423e-02	1.37197941e-04
3.95000000e-01	1.50799843e-02	1.36820842e-04
3.96000000e-01	1.51923549e-02	1.37800902e-04
3.97000000e-01	1.51761868e-02	1.37587302e-04
3.98000000e-01	1.51826743e-02	1.37832961e-04
3.99000000e-01	1.52187990e-02	1.37998798e-04
4.00000000e-01	1.51663172e-02	1.37629251e-04
4.01000000e-01	1.52389443e-02	1.38112534e-04
4.02000000e-01	1.51178834e-02	1.37245629e-04
4.03000000e-01	1.51272596e-02	1.36953243e-04
4.04000000e-01	1.51323014e-02	1.36993702e-04
4.05000000e-01	1.49639697e-02	1.35923216e-04
4.06000000e-01	1.51647315e-02	1.37273004e-04
4.07000000e-01	1.50486115e-02	1.36401860e-04
4.08000000e-01	1.50280495e-02	1.35998661e-04
4.09000000e-01	1.50548485e-02	1.36074740e-04
4.10000000e-01	1.50395038e-02	1.35980500e-04
4.11000000e-01	1.49917691e-02	1.35914541e-04
4.12000000e-01	1.50279888e-02	1.36296942e-04
4.13000000e-01	1.49777398e-02	1.35346159e-04
4.14000000e-01	1.50699505e-02	1.36434615e-04
4.15000000e-01	1.49476934e-02	1.35104520e-04
4.16000000e-01	1.50152659e-02	1.35892641e-04
4.17000000e-01	1.49818809e-02	1.35427314e-04
4.18000000e-01	1.50034252e-02	1.36921269e-04
4.19000000e-01	1.49362472e-02	1.38115619e-04
4.20000000e-01	1.49259971e-02	1.38697114e-04
4.21000000e-01	1.49527236e-02	1.39498215e-04
4.22000000e-01	1.50312188e-02	1.40583347e-04
4.23000000e-01	1.49031964e-02	1.39793294e-04
4.24000000e-01	1.49633028e-02	1.40744749e-04
4.25000000e-01	1.48940851e-02	1.40306096e-04
4.26000000e-01	1.48897958e-02	1.40150957e-04
4.27000000e-01	1.50148911e-02	1.41296146e-04
4.28000000e-01	1.49130382e-02	1.40840392e-04
4.29000000e-01	1.49371766e-02	1.41561068e-04
4.30000000e-01	1.50076124e-02	1.42084915e-04
4.31000000e-01	1.49496569e-02	1.41528857e-04
4.32000000e-01	1.49717881e-02	1.41879916e-04
4.33000000e-01	1.47648035e-02	1.40150354e-04
4.34000000e-01	1.48826978e-02	1.40979882e-04
4.35000000e-01	1.48949103e-02	1.41082717e-04
4.36000000e-01	1.48788669e-02	1.41397925e-04
4.37000000e-01	1.48035218e-02	1.40917694e-04
4.38000000e-01	1.47933897e-02	1.40846896e-04
4.39000000e-01	1.48046408e-02	1.40999490e-04
4.40000000e-01	1.48368300e-02	1.41830718e-04
4.41000000e-01	1.48535567e-02	1.42154177e-04
4.42000000e-01	1.48381096e-02	1.42225021e-04
4.43000000e-01	1.47487816e-02	1.41577828e-04
4.44000000e-01	1.48092456e-02	1.41999899e-04
4.45000000e-01	1.48185343e-02	1.42379150e-04
4.46000000e-01	1.47626525e-02	1.41829688e-04
4.47000000e-01	1.48091363e-02	1.42889503e-04
4.48000000e-01	1.46484700e-02	1.41140694e-04
4.49000000e-01	1.45502890e-02	1.40692763e-04
4.50000000e-01	1.47160317e-02	1.42276927e-04
4.51000000e-01	1.45993397e-02	1.41293727e-04
4.52000000e-01	1.46817779e-02	1.42203801e-04
4.53000000e-01	1.47592157e-02	1.43073212e-04
4.54000000e-01	1.47358090e-02	1.42922076e-04
4.55000000e-01	1.47767613e-02	1.43566495e-04
4.56000000e-01	1.46058120e-02	1.41420657e-04
4.57000000e-01	1.46692115e-02	1.42631495e-04
4.58000000e-01	1.46013797e-02	1.42224682e-04
4.59000000e-01	1.47024264e-02	1.42565857e-04
4.60000000e-01	1.45966462e-02	1.42644464e-04
4.61000000e-01	1.46538079e-02	1.42976178e-04
4.62000000e-01	1.45791696e-02	1.42043076e-04
4.63000000e-01	1.45813473e-02	1.42535523e-04
4.64000000e-01	1.46388462e-02	1.42707586e-04
4.65000000e-01	1.45754776e-02	1.42804100e-04
4.66000000e-01	1.45176961e-02	1.42231427e-04
4.67000000e-01	1.45986870e-02	1.43005622e-04
4.68000000e-01	1.45711729e-02	1.42892071e-04
4.69000000e-01	1.45415522e-02	1.42669082e-04
4.70000000e-01	1.45546272e-02	1.42912998e-04
4.71000000e-01	1.45197827e-02	1.42361121e-04
4.72000000e-01	1.46459234e-02	1.43519491e-04
4.73000000e-01	1.44455102e-02	1.41732184e-04
4.74000000e-01	1.44557588e-02	1.41568072e-04
4.75000000e-01	1.44586594e-02	1.42349321e-04
4.76000000e-01	1.44876330e-02	1.42145017e-04
4.77000000e-01	1.44970316e-02	1.42804349e-04
4.78000000e-01	1.45190936e-02	1.42032817e-04
4.79000000e-01	1.45091263e-02	1.42389067e-04
4.80000000e-01	1.44003017e-02	1.41621453e-04
4.81000000e-01	1.44036397e-02	1.42101951e-04
4.82000000e-01	1.44451229e-02	1.42170698e-04
4.83000000e-01	1.43830672e-02	1.41688987e-04
4.84000000e-01	1.42472670e-02	1.41122367e-04
4.85000000e-01	1.42897068e-02	1.41090628e-04
4.86000000e-01	1.43908660e-02	1.41703006e-04
4.87000000e-01	1.43088681e-02	1.41256069e-04
4.88000000e-01	1.42799791e-02	1.41140401e-04
4.89000000e-01	1.43549865e-02	1.42330429e-04
4.90000000e-01	1.43902885e-02	1.42474371e-04
4.91000000e-01	1.42907625e-02	1.41539103e-04
4.92000000e-01	1.43185227e-02	1.42023057e-04
4.93000000e-01	1.43052237e-02	1.41422402e-04
4.94000000e-01	1.44416518e-02	1.43359466e-04
4.95000000e-01	1.43820594e-02	1.43264774e-04
4.96000000e-01	1.41309813e-02	1.45266090e-04
4.97000000e-01	1.44439920e-02	1.50724975e-04
4.98000000e-01	1.42275557e-02	1.50694107e-04
4.99000000e-01	1.42282191e-02	1.52439489e-04
5.00000000e-01	1.41540054e-02	1.53387410e-04
5.01000000e-01	1.41043522e-02	1.54633903e-04
5.02000000e-01	1.45033809e-02	1.60277725e-04
5.03000000e-01	1.42203782e-02	1.59053508e-04
5.04000000e-01	1.43257206e-02	1.61086849e-04
5.05000000e-01	1.42887809e-02	1.58116304e-04
5.06000000e-01	1.43891550e-02	1.55126683e-04
5.07000000e-01	1.43024915e-02	1.52473416e-04
5.08000000e-01	1.44616544e-02	1.53931564e-04
5.09000000e-01	1.42726737e-02	1.51660719e-04
5.10000000e-01	1.42124803e-02	1.49962635e-04
5.11000000e-01	1.42434197e-02	1.49844959e-04
5.12000000e-01	1.42256771e-02	1.49681510e-04
5.13000000e-01	1.41481855e-02	1.49071317e-04
5.14000000e-01	1.42758540e-02	1.49663254e-04
5.15000000e-01	1.41186887e-02	1.47624612e-04
5.16000000e-01	1.42911283e-02	1.49376023e-04
5.17000000e-01	1.41532499e-02	1.47767036e-04
5.18000000e-01	1.41249906e-02	1.47150428e-04
5.19000000e-01	1.42051347e-02	1.47407174e-04
5.20000000e-01	1.40629904e-02	1.45989969e-04
5.21000000e-01	1.40922330e-02	1.46030010e-04
5.22000000e-01	1.39853521e-02	1.44601200e-04
5.23000000e-01	1.40814505e-02	1.45701873e-04
5.24000000e-01	1.40886762e-02	1.45552659e-04
5.25000000e-01	1.40216543e-02	1.45290626e-04
5.26000000e-01	1.41501845e-02	1.45883057e-04
5.27000000e-01	1.40772369e-02	1.44958996e-04
5.28000000e-01	1.40878401e-02	1.45070443e-04
5.29000000e-01	1.41753926e-02	1.45933641e-04
5.30000000e-01	1.39618568e-02	1.44578189e-04
5.31000000e-01	1.38838198e-02	1.43706265e-04
5.32000000e-01	1.39687062e-02	1.44515496e-04
5.33000000e-01	1.38546049e-02	1.43062553e-04
5.34000000e-01	1.40276099e-02	1.45186496e-04
5.35000000e-01	1.38883974e-02	1.43567795e-04
5.36000000e-01	1.39190243e-02	1.43800814e-04
5.37000000e-01	1.38756608e-02	1.43657379e-04
5.38000000e-01	1.38572141e-02	1.43055795e-04
5.39000000e-01	1.39872665e-02	1.44981316e-04
5.40000000e-01	1.39682878e-02	1.44172481e-04
5.41000000e-01	1.39945603e-02	1.43982865e-04
5.42000000e-01	1.37460658e-02	1.42748446e-04
5.43000000e-01	1.39317155e-02	1.43955703e-04
5.44000000e-01	1.39750997e-02	1.43925184e-04
5.45000000e-01	1.37962814e-02	1.42809098e-04
5.46000000e-01	1.39196396e-02	1.43729875e-04
5.47000000e-01	1.39464999e-02	1.44138588e-04
5.48000000e-01	1.38256687e-02	1.43115304e-04
5.49000000e-01	1.37341856e-02	1.41848742e-04
5.50000000e-01	1.37049318e-02	1.41948608e-04
5.51000000e-01	1.37372099e-02	1.41642421e-04
5.52000000e-01	1.37592523e-02	1.42266336e-04
5.53000000e-01	1.37942095e-02	1.41901810e-04
5.54000000e-01	1.36697040e-02	1.40403628e-04
5.55000000e-01	1.37780847e-02	1.41516566e-04
5.56000000e-01	1.38100162e-02	1.42108019e-04
5.57000000e-01	1.35811171e-02	1.40145410e-04
5.58000000e-01	1.38353301e-02	1.41981781e-04
5.59000000e-01	1.35782907e-02	1.39715040e-04
5.60000000e-01	1.37250141e-02	1.40840778e-04
5.61000000e-01	1.37200679e-02	1.40640343e-04
5.62000000e-01	1.38126381e-02	1.41959606e-04
5.63000000e-01	1.36571649e-02	1.40368170e-04
5.64000000e-01	1.37810498e-02	1.41453234e-04
5.65000000e-01	1.34941927e-02	1.39302258e-04
5.66000000e-01	1.35419107e-02	1.39908594e-04
5.67000000e-01	1.34982201e-02	1.39140037e-04
5.68000000e-01	1.36727479e-02	1.40245192e-04
5.69000000e-01	1.34990865e-02	1.38794861e-04
5.70000000e-01	1.34608105e-02	1.38250498e-04
5.71000000e-01	1.35905150e-02	1.39378259e-04
5.72000000e-01	1.36081025e-02	1.39922862e-04
5.73000000e-01	1.33909898e-02	1.38096989e-04
5.74000000e-01	1.35553096e-02	1.39505780e-04
5.75000000e-01	1.35960212e-02	1.39728636e-04
5.76000000e-01	1.35158894e-02	1.38991093e-04
5.77000000e-01	1.34546180e-02	1.38203691e-04
5.78000000e-01	1.35774490e-02	1.39624592e-04
5.79000000e-01	1.34940510e-02	1.38945548e-04
5.80000000e-01	1.34520443e-02	1.38558366e-04
5.81000000e-01	1.34164648e-02	1.38695858e-04
5.82000000e-01	1.34404088e-02	1.38775744e-04
5.83000000e-01	1.33615341e-02	1.38227858e-04
5.84000000e-01	1.34556883e-02	1.39370404e-04
5.85000000e-01	1.33412847e-02	1.38002243e-04
5.86000000e-01	1.34823461e-02	1.39291406e-04
5.87000000e-01	1.33828247e-02	1.38242865e-04
5.88000000e-01	1.31570089e-02	1.36423072e-04
5.89000000e-01	1.34773732e-02	1.39331849e-04
5.90000000e-01	1.32665005e-02	1.37169131e-04
5.91000000e-01	1.32718930e-02	1.37579902e-04
5.92000000e-01	1.34907574e-02	1.38980167e-04
5.93000000e-01	1.31820216e-02	1.36440819e-04
5.94000000e-01	1.33341537e-02	1.38238707e-04
5.95000000e-01	1.33509701e-02	1.37913355e-04
5.96000000e-01	1.33786846e-02	1.38387226e-04
5.97000000e-01	1.32129703e-02	1.36512556e-04
5.98000000e-01	1.32655920e-02	1.37408201e-04
5.99000000e-01	1.32222119e-02	1.37041608e-04
6.00000000e-01	1.32743391e-02	1.37668794e-04
6.01000000e-01	1.31714653e-02	1.36673350e-04
6.02000000e-01	1.32202918e-02	1.36954591e-04
6.03000000e-01	1.31927236e-02	1.36898867e-04
6.04000000e-01	1.32064870e-02	1.37185916e-04
6.05000000e-01	1.32041135e-02	1.36791360e-04
6.06000000e-01	1.31696015e-02	1.36727338e-04
6.07000000e-01	1.32917853e-02	1.37837677e-04
6.08000000e-01	1.31611867e-02	1.36542108e-04
6.09000000e-01	1.31087788e-02	1.36349850e-04
6.10000000e-01	1.31804923e-02	1.36965004e-04
6.11000000e-01	1.31411072e-02	1.36480538e-04
6.12000000e-01	1.32256630e-02	1.36850902e-04
6.13000000e-01	1.31280511e-02	1.36332219e-04
6.14000000e-01	1.31320375e-02	1.36376378e-04
6.15000000e-01	1.31258533e-02	1.36518818e-04
6.16000000e-01	1.31366014e-02	1.36744549e-04
6.17000000e-01	1.30803868e-02	1.36341870e-04
6.18000000e-01	1.32799123e-02	1.38095903e-04
6.19000000e-01	1.30460516e-02	1.35285461e-04
6.20000000e-01	1.31704165e-02	1.36775361e-04
6.21000000e-01	1.30386184e-02	1.35076156e-04
6.22000000e-01	1.29518774e-02	1.34605521e-04
6.23000000e-01	1.30079835e-02	1.34188100e-04
6.24000000e-01	1.31285887e-02	1.35398762e-04
6.25000000e-01	1.29743574e-02	1.34098382e-04
6.26000000e-01	1.31161298e-02	1.35195255e-04
6.27000000e-01	1.29862496e-02	1.33780679e-04
6.28000000e-01	1.31514710e-02	1.35438834e-04
6.29000000e-01	1.28568988e-02	1.33123490e-04
6.30000000e-01	1.28621501e-02	1.32960359e-04
6.31000000e-01	1.29755732e-02	1.33758843e-04
6.32000000e-01	1.29795100e-02	1.34226791e-04
6.33000000e-01	1.31005514e-02	1.35311290e-04
6.34000000e-01	1.31506961e-02	1.38803241e-04
6.35000000e-01	1.30234623e-02	1.41500377e-04
6.36000000e-01	1.28812100e-02	1.43203336e-04
6.37000000e-01	1.31182101e-02	1.47608277e-04
6.38000000e-01	1.30244898e-02	1.48509144e-04
6.39000000e-01	1.29522146e-02	1.50002228e-04
6.40000000e-01	1.32487804e-02	1.54885243e-04
6.41000000e-01	1.30283811e-02	1.54115135e-04
6.42000000e-01	1.30696975e-02	1.56764928e-04
6.43000000e-01	1.29535232e-02	1.54811316e-04
6.44000000e-01	1.31595766e-02	1.51905676e-04
6.45000000e-01	1.31402490e-02	1.49133164e-04
6.46000000e-01	1.31032188e-02	1.47020394e-04
6.47000000e-01	1.31145841e-02	1.46447338e-04
6.48000000e-01	1.30582645e-02	1.44802992e-04
6.49000000e-01	1.30468162e-02	1.44360682e-04
6.50000000e-01	1.29887666e-02	1.42578429e-04
6.51000000e-01	1.29432547e-02	1.41732276e-04
6.52000000e-01	1.31191268e-02	1.42226681e-04
6.53000000e-01	1.29712699e-02	1.41009342e-04
6.54000000e-01	1.28614896e-02	1.39876015e-04
6.55000000e-01	1.29244190e-02	1.39779093e-04
6.56000000e-01	1.29228822e-02	1.39730048e-04
6.57000000e-01	1.28885969e-02	1.39096877e-04
6.58000000e-01	1.28620757e-02	1.38777002e-04
6.59000000e-01	1.30281550e-02	1.40000793e-04
6.60000000e-01	1.29839862e-02	1.39021977e-04
6.61000000e-01	1.29305335e-02	1.39028186e-04
6.62000000e-01	1.29246621e-02	1.38978941e-04
6.63000000e-01	1.27878726e-02	1.37872003e-04
6.64000000e-01	1.29680650e-02	1.38491250e-04
6.65000000e-01	1.28927932e-02	1.38436935e-04
6.66000000e-01	1.29988359e-02	1.39345499e-04
6.67000000e-01	1.27783996e-02	1.37379238e-04
6.68000000e-01	1.28821609e-02	1.38109493e-04
6.69000000e-01	1.29204935e-02	1.38361484e-04
6.70000000e-01	1.27952318e-02	1.37299953e-04
6.71000000e-01	1.27983728e-02	1.37336643e-04
6.72000000e-01	1.28477015e-02	1.37960836e-04
6.73000000e-01	1.27882999e-02	1.36883184e-04
6.74000000e-01	1.28379633e-02	1.37763776e-04
6.75000000e-01	1.28471090e-02	1.37164404e-04
6.76000000e-01	1.28720916e-02	1.37486720e-04
6.77000000e-01	1.27731716e-02	1.36528510e-04
6.78000000e-01	1.29079368e-02	1.37898987e-04
6.79000000e-01	1.27480900e-02	1.36621572e-04
6.80000000e-01	1.26726503e-02	1.35257699e-04
6.81000000e-01	1.29284417e-02	1.38245363e-04
6.82000000e-01	1.28620941e-02	1.36903062e-04
6.83000000e-01	1.27204275e-02	1.35747538e-04
6.84000000e-01	1.25972935e-02	1.34709937e-04
6.85000000e-01	1.26936133e-02	1.35487419e-04
6.86000000e-01	1.27513358e-02	1.36157754e-04
6.87000000e-01	1.27422045e-02	1.35851181e-04
6.88000000e-01	1.26949304e-02	1.35105292e-04
6.89000000e-01	1.26323512e-02	1.34590552e-04
6.90000000e-01	1.26917643e-02	1.35648675e-04
6.91000000e-01	1.26886515e-02	1.35639183e-04
6.92000000e-01	1.26669174e-02	1.35071062e-04
6.93000000e-01	1.28706849e-02	1.37179147e-04
6.94000000e-01	1.25232647e-02	1.33872875e-04
6.95000000e-01	1.27143494e-02	1.35434836e-04
6.96000000e-01	1.26682462e-02	1.35197950e-04
6.97000000e-01	1.26374174e-02	1.34360347e-04
6.98000000e-01	1.27095111e-02	1.35652247e-04
6.99000000e-01	1.25570582e-02	1.34038634e-04
7.00000000e-01	1.26078112e-02	1.34232724e-04
7.01000000e-01	1.25147830e-02	1.33803062e-04
7.02000000e-01	1.25777097e-02	1.33735372e-04
7.03000000e-01	1.26218101e-02	1.34997959e-04
7.04000000e-01	1.24908140e-02	1.33387712e-04
7.05000000e-01	1.25601210e-02	1.33715909e-04
7.06000000e-01	1.25363181e-02	1.33140724e-04
7.07000000e-01	1.24791258e-02	1.32904391e-04
7.08000000e-01	1.25334387e-02	1.32820626e-04
7.09000000e-01	1.23507466e-02	1.31678040e-04
7.10000000e-01	1.24547934e-02	1.32643762e-04
7.11000000e-01	1.24692453e-02	1.32437377e-04
7.12000000e-01	1.24686630e-02	1.32531468e-04
7.13000000e-01	1.23362646e-02	1.31846705e-04
7.14000000e-01	1.24078965e-02	1.31915430e-04
7.15000000e-01	1.24343242e-02	1.32737484e-04
7.16000000e-01	1.23824186e-02	1.32475078e-04
7.17000000e-01	1.23627921e-02	1.31892429e-04
7.18000000e-01	1.24453406e-02	1.31968027e-04
7.19000000e-01	1.24517918e-02	1.32888844e-04
7.20000000e-01	1.23706160e-02	1.31938506e-04
7.21000000e-01	1.23258095e-02	1.30970770e-04
7.22000000e-01	1.23773838e-02	1.31769399e-04
7.23000000e-01	1.23355911e-02	1.31786020e-04
7.24000000e-01	1.23996067e-02	1.32033969e-04
7.25000000e-01	1.21984163e-02	1.30478106e-04
7.26000000e-01	1.23837441e-02	1.31900388e-04
7.27000000e-01	1.22422080e-02	1.30511602e-04
7.28000000e-01	1.22443532e-02	1.30609248e-04
7.29000000e-01	1.22493923e-02	1.31066036e-04
7.30000000e-01	1.23358357e-02	1.31767304e-04
7.31000000e-01	1.21801053e-02	1.30259328e-04
7.32000000e-01	1.22656636e-02	1.31448369e-04
7.33000000e-01	1.22892817e-02	1.31008556e-04
7.34000000e-01	1.22124412e-02	1.30090864e-04
7.35000000e-01	1.21259972e-02	1.29367267e-04
7.36000000e-01	1.21435800e-02	1.29151076e-04
7.37000000e-01	1.21375476e-02	1.29121137e-04
7.38000000e-01	1.22249019e-02	1.29695794e-04
7.39000000e-01	1.21297925e-02	1.28497157e-04
7.40000000e-01	1.19500197e-02	1.26083966e-04
7.41000000e-01	1.21867467e-02	1.28342868e-04
7.42000000e-01	1.21446964e-02	1.28005487e-04
7.43000000e-01	1.21057452e-02	1.27766667e-04
7.44000000e-01	1.20756395e-02	1.27880469e-04
7.45000000e-01	1.21531478e-02	1.28295300e-04
7.46000000e-01	1.21724408e-02	1.28508410e-04
7.47000000e-01	1.20744517e-02	1.27469467e-04
7.48000000e-01	1.20887979e-02	1.27743550e-04
7.49000000e-01	1.20455174e-02	1.27676921e-04
7.50000000e-01	1.21689993e-02	1.28319803e-04
7.51000000e-01	1.21382654e-02	1.28001459e-04
7.52000000e-01	1.20255751e-02	1.27287370e-04
7.53000000e-01	1.19947941e-02	1.26765630e-04
7.54000000e-01	1.21537472e-02	1.27933681e-04
7.55000000e-01	1.20666490e-02	1.27516175e-04
7.56000000e-01	1.20217812e-02	1.27362843e-04
7.57000000e-01	1.20377572e-02	1.27199707e-04
7.58000000e-01	1.18875276e-02	1.26094814e-04
7.59000000e-01	1.19902997e-02	1.26909566e-04
7.60000000e-01	1.20563493e-02	1.27280220e-04
7.61000000e-01	1.19847526e-02	1.26477260e-04
7.62000000e-01	1.19165821e-02	1.25516467e-04
7.63000000e-01	1.19335588e-02	1.25603731e-04
7.64000000e-01	1.18867810e-02	1.24987199e-04
7.65000000e-01	1.18566266e-02	1.24435608e-04
7.66000000e-01	1.18140110e-02	1.23865570e-04
7.67000000e-01	1.17908190e-02	1.24029165e-04
7.68000000e-01	1.18904739e-02	1.24499855e-04
7.69000000e-01	1.18651263e-02	1.24382810e-04
7.70000000e-01	1.17109716e-02	1.23375879e-04
7.71000000e-01	1.18242911e-02	1.24176619e-04
7.72000000e-01	1.18424352e-02	1.28012279e-04
7.73000000e-01	1.17817490e-02	1.31937180e-04
7.74000000e-01	1.17300753e-02	1.33337958e-04
7.75000000e-01	1.17922450e-02	1.36160724e-04
7.76000000e-01	1.18606260e-02	1.39818993e-04
7.77000000e-01	1.17817420e-02	1.40893442e-04
7.78000000e-01	1.18034894e-02	1.42547133e-04
7.79000000e-01	1.18389155e-02	1.45416585e-04
7.80000000e-01	1.16849960e-02	1.44622631e-04
7.81000000e-01	1.18327176e-02	1.48439915e-04
7.82000000e-01	1.16943435e-02	1.48472112e-04
7.83000000e-01	1.16437488e-02	1.49350108e-04
7.84000000e-01	1.17956450e-02	1.52899375e-04
7.85000000e-01	1.16821403e-02	1.53386016e-04
7.86000000e-01	1.16798459e-02	1.54095045e-04
7.87000000e-01	1.16354811e-02	1.55990323e-04
7.88000000e-01	1.17966022e-02	1.59070726e-04
7.89000000e-01	1.15723826e-02	1.57448073e-04
7.90000000e-01	1.17084933e-02	1.60683952e-04
7.91000000e-01	1.16502642e-02	1.61407342e-04
7.92000000e-01	1.16189270e-02	1.63057541e-04
7.93000000e-01	1.15297994e-02	1.63246247e-04
7.94000000e-01	1.16148347e-02	1.66814133e-04
7.95000000e-01	1.17529002e-02	1.69620428e-04
7.96000000e-01	1.14188869e-02	1.66591797e-04
7.97000000e-01	1.14834184e-02	1.70168397e-04
7.98000000e-01	1.15013171e-02	1.71716541e-04
7.99000000e-01	1.14932184e-02	1.72725086e-04
8.00000000e-01	1.14581794e-02	1.75053759e-04
8.01000000e-01	1.15111409e-02	1.77180391e-04
8.02000000e-01	1.16223135e-02	1.80430471e-04
8.03000000e-01	1.12944331e-02	1.78867894e-04
8.04000000e-01	1.13252000e-02	1.80294532e-04
8.05000000e-01	1.13568411e-02	1.82077649e-04
8.06000000e-01	1.13191599e-02	1.84817479e-04
8.07000000e-01	1.13809791e-02	1.87726606e-04
8.08000000e-01	1.14034031e-02	1.88761144e-04
8.09000000e-01	1.14315022e-02	1.92563817e-04
8.10000000e-01	1.13445219e-02	1.93249657e-04
8.11000000e-01	1.12464377e-02	1.92273597e-04
8.12000000e-01	1.13964487e-02	1.98910084e-04
8.13000000e-01	1.11113940e-02	1.95879352e-04
8.14000000e-01	1.14370693e-02	2.02288590e-04
8.15000000e-01	1.14248295e-02	2.05698321e-04
8.16000000e-01	1.12103788e-02	2.03647823e-04
8.17000000e-01	1.12160181e-02	2.06573227e-04
8.18000000e-01	1.13037840e-02	2.12031447e-04
8.19000000e-01	1.12517567e-02	2.11946321e-04
8.20000000e-01	1.13126988e-02	2.16689812e-04
8.21000000e-01	1.10502824e-02	2.13896672e-04
8.22000000e-01	1.14228800e-02	2.25610471e-04
8.23000000e-01	1.10091250e-02	2.20614515e-04
8.24000000e-01	1.12434467e-02	2.26740268e-04
8.25000000e-01	1.11214017e-02	2.27261796e-04
8.26000000e-01	1.14023483e-02	2.39039256e-04
8.27000000e-01	1.11006644e-02	2.35213074e-04
8.28000000e-01	1.10398666e-02	2.37378904e-04
8.29000000e-01	1.10481793e-02	2.41598365e-04
8.30000000e-01	1.10097576e-02	2.44398068e-04
8.31000000e-01	1.13321897e-02	2.54618741e-04
8.32000000e-01	1.12445232e-02	2.57743064e-04
8.33000000e-01	1.10211884e-02	2.57317389e-04
8.34000000e-01	1.07002859e-02	2.54171360e-04
8.35000000e-01	1.09754663e-02	2.65037447e-04
8.36000000e-01	1.08149784e-02	2.63715253e-04
8.37000000e-01	1.08888144e-02	2.74312854e-04
8.38000000e-01	1.09066144e-02	2.77979079e-04
8.39000000e-01	1.09441410e-02	2.84422941e-04
8.40000000e-01	1.06972158e-02	2.85709611e-04
8.41000000e-01	1.07936625e-02	2.92085430e-04
8.42000000e-01	1.07482361e-02	3.00784425e-04
8.43000000e-01	1.07772416e-02	3.09351849e-04
8.44000000e-01	1.07440578e-02	3.13965829e-04
8.45000000e-01	1.10032578e-02	3.27599301e-04
8.46000000e-01	1.11638405e-02	3.41943315e-04
8.47000000e-01	1.09984554e-02	3.49439354e-04
8.48000000e-01	1.11471226e-02	3.62888854e-04
8.49000000e-01	1.05377996e-02	3.55220906e-04
8.50000000e-01	1.08900196e-02	3.77792724e-04
8.51000000e-01	1.05879653e-02	3.80710082e-04
8.52000000e-01	1.04662793e-02	3.97686919e-04
8.53000000e-01	1.06474272e-02	4.17477582e-04
8.54000000e-01	1.09852482e-02	4.52652943e-04
8.55000000e-01	1.06270710e-02	4.51487264e-04
8.56000000e-01	1.08916598e-02	4.71159535e-04
8.57000000e-01	1.10126499e-02	4.96117945e-04
8.58000000e-01	1.06064491e-02	4.90489181e-04
8.59000000e-01	1.07868725e-02	5.13030552e-04
8.60000000e-01	1.03261409e-02	5.09551075e-04
8.61000000e-01	1.05473406e-02	5.42360559e-04
8.62000000e-01	1.06493157e-02	5.62571252e-04
8.63000000e-01	1.07651588e-02	5.84386231e-04
8.64000000e-01	1.07776195e-02	6.17989991e-04
8.65000000e-01	1.09015092e-02	6.57740167e-04
8.66000000e-01	1.12496084e-02	6.89834373e-04
8.67000000e-01	1.14831818e-02	7.51595791e-04
8.68000000e-01	1.07784320e-02	7.86732176e-04
8.69000000e-01	1.07547811e-02	8.36552694e-04
8.70000000e-01	1.00214396e-02	8.60666597e-04
8.71000000e-01	1.12314125e-02	1.03712841e-03
8.72000000e-01	1.02658488e-02	1.09703072e-03
8.73000000e-01	9.78016360e-03	1.24513143e-03
8.74000000e-01	9.88678019e-03	1.59641583e-03
8.75000000e-01	8.98405623e-03	2.80535464e-03
