% Filename : SDL7c_00015_00017.h5
% Date & Time : 30-Oct-2025 16:14:58
% X-ray Energy (keV) : 13.30001
% Exposure Time (s) : 0.500
% Beam Center : 1461.24000, 208.98300
% Sample to Detector Distance (SDD) (mm) : 1990.750
% Detector Pixel Size (mm) : 0.075
% Photodiode Value : 139754.000
% I0 of Sample : 0
% I0 of Standard : 1
% 
% q(A^-1)   I(q)    I(q)_SE
0.00000000e+00	1.29274875e-02	7.08066676e-03
2.50000000e-04	0.00000000e+00	0.00000000e+00
5.00000000e-04	0.00000000e+00	0.00000000e+00
7.50000000e-04	0.00000000e+00	0.00000000e+00
1.00000000e-03	0.00000000e+00	0.00000000e+00
1.25000000e-03	0.00000000e+00	0.00000000e+00
1.50000000e-03	0.00000000e+00	0.00000000e+00
1.75000000e-03	0.00000000e+00	0.00000000e+00
2.00000000e-03	0.00000000e+00	0.00000000e+00
2.25000000e-03	0.00000000e+00	0.00000000e+00
2.50000000e-03	0.00000000e+00	0.00000000e+00
2.75000000e-03	0.00000000e+00	0.00000000e+00
3.00000000e-03	0.00000000e+00	0.00000000e+00
3.25000000e-03	7.01789509e+01	6.33713982e+01
3.50000000e-03	1.36354771e+01	1.02198309e+01
3.75000000e-03	7.90245680e+00	5.51167289e+00
4.00000000e-03	5.24378894e+00	3.06885201e+00
4.25000000e-03	1.62140539e+00	3.58460882e-01
4.50000000e-03	3.10170654e+00	1.50561282e+00
4.75000000e-03	3.21245012e+00	1.23413693e+00
5.00000000e-03	2.55770706e+00	9.71952814e-01
5.25000000e-03	2.07897276e+00	7.46526853e-01
5.50000000e-03	1.76514572e+00	6.22935252e-01
5.75000000e-03	1.48951666e+00	5.02392713e-01
6.00000000e-03	1.25386749e+00	4.18432976e-01
6.25000000e-03	1.10450145e+00	3.53103933e-01
6.50000000e-03	9.43191687e-01	3.10675016e-01
6.75000000e-03	8.36590658e-01	2.66163862e-01
7.00000000e-03	7.04840510e-01	2.20468722e-01
7.25000000e-03	6.34806392e-01	2.04425437e-01
7.50000000e-03	5.37215750e-01	1.70422450e-01
7.75000000e-03	5.03275799e-01	1.67410814e-01
8.00000000e-03	4.29906201e-01	1.36902908e-01
8.25000000e-03	3.86108812e-01	1.22445984e-01
8.50000000e-03	3.46051488e-01	1.07900002e-01
8.75000000e-03	3.07833242e-01	9.30397544e-02
9.00000000e-03	2.79140184e-01	8.89833996e-02
9.25000000e-03	2.49523425e-01	7.41896003e-02
9.50000000e-03	2.28850131e-01	6.78832093e-02
9.75000000e-03	2.04610626e-01	5.72357574e-02
1.00000000e-02	1.80756243e-01	5.18577228e-02
1.02500000e-02	1.69950032e-01	4.38408450e-02
1.05000000e-02	1.57361168e-01	4.18601526e-02
1.07500000e-02	1.45455843e-01	3.86952228e-02
1.10000000e-02	1.29731208e-01	3.28879165e-02
1.12500000e-02	1.11054158e-01	3.00531746e-02
1.15000000e-02	1.11691746e-01	2.59566738e-02
1.17500000e-02	1.03859681e-01	2.72242631e-02
1.20000000e-02	1.01999416e-01	2.48711726e-02
1.22500000e-02	9.78062085e-02	2.41812291e-02
1.25000000e-02	8.95469566e-02	2.10581341e-02
1.27500000e-02	8.59119826e-02	2.03750128e-02
1.30000000e-02	8.07978109e-02	1.95452460e-02
1.32500000e-02	7.33998573e-02	1.64014541e-02
1.35000000e-02	7.33276598e-02	1.71204536e-02
1.37500000e-02	6.59918184e-02	1.36328166e-02
1.40000000e-02	6.63256628e-02	1.48143837e-02
1.42500000e-02	6.17302725e-02	1.21300073e-02
1.45000000e-02	5.98173672e-02	1.17392302e-02
1.47500000e-02	5.31065691e-02	9.70510100e-03
1.50000000e-02	5.05907448e-02	9.02337708e-03
1.52500000e-02	4.99529399e-02	8.99178765e-03
1.55000000e-02	4.56385647e-02	7.68056241e-03
1.57500000e-02	4.61802397e-02	8.23054346e-03
1.60000000e-02	4.28047672e-02	6.90750232e-03
1.62500000e-02	4.27416372e-02	7.57840375e-03
1.65000000e-02	4.11472466e-02	6.14291863e-03
1.67500000e-02	4.01259099e-02	6.71139814e-03
1.70000000e-02	3.99610412e-02	5.89202822e-03
1.72500000e-02	3.86886199e-02	5.74161257e-03
1.75000000e-02	3.68990176e-02	5.26973626e-03
1.77500000e-02	3.55792617e-02	4.62882119e-03
1.80000000e-02	3.62152886e-02	5.01565823e-03
1.82500000e-02	3.41988601e-02	4.25522197e-03
1.85000000e-02	3.52898352e-02	4.90509073e-03
1.87500000e-02	3.23181910e-02	3.41421700e-03
1.90000000e-02	3.21733500e-02	3.64874810e-03
1.92500000e-02	3.06371132e-02	3.22615626e-03
1.95000000e-02	3.06007064e-02	3.20012124e-03
1.97500000e-02	3.06046042e-02	3.19840618e-03
2.00000000e-02	2.74296319e-02	1.94578488e-03
2.02500000e-02	2.91735681e-02	2.91537637e-03
2.05000000e-02	2.96814766e-02	2.62369897e-03
2.07500000e-02	2.99392280e-02	2.75771121e-03
2.10000000e-02	2.83030832e-02	2.35329073e-03
2.12500000e-02	2.88487280e-02	2.59149671e-03
2.15000000e-02	2.79814608e-02	2.57282114e-03
2.17500000e-02	2.82277796e-02	2.43977963e-03
2.20000000e-02	2.76427694e-02	2.25177874e-03
2.22500000e-02	2.90407396e-02	2.38718195e-03
2.25000000e-02	2.71231194e-02	2.20084896e-03
2.27500000e-02	2.74270613e-02	1.94676038e-03
2.30000000e-02	2.77810780e-02	2.02736773e-03
2.32500000e-02	2.75195847e-02	1.95086165e-03
2.35000000e-02	2.64996025e-02	1.87788557e-03
2.37500000e-02	2.70662410e-02	1.86170003e-03
2.40000000e-02	2.65840841e-02	1.77863953e-03
2.42500000e-02	2.62196935e-02	1.71586375e-03
2.45000000e-02	2.53122695e-02	1.75617223e-03
2.47500000e-02	2.66241947e-02	1.82369831e-03
2.50000000e-02	2.49288977e-02	1.56456551e-03
2.52500000e-02	2.51863081e-02	1.74979439e-03
2.55000000e-02	2.45457779e-02	1.55895249e-03
2.57500000e-02	2.43044955e-02	1.54051922e-03
2.60000000e-02	2.47371664e-02	1.51486947e-03
2.62500000e-02	2.41372887e-02	1.51450216e-03
2.65000000e-02	2.52373331e-02	1.48982875e-03
2.67500000e-02	2.36553545e-02	1.50881769e-03
2.70000000e-02	2.38843370e-02	1.40737417e-03
2.72500000e-02	2.52561150e-02	1.47236391e-03
2.75000000e-02	2.39723095e-02	1.29445529e-03
2.77500000e-02	2.37382077e-02	1.33820457e-03
2.80000000e-02	2.33000646e-02	1.30170174e-03
2.82500000e-02	2.51785955e-02	1.35294163e-03
2.85000000e-02	2.42222984e-02	1.30558340e-03
2.87500000e-02	2.47686137e-02	1.39209883e-03
2.90000000e-02	2.41640368e-02	1.30260965e-03
2.92500000e-02	2.49135944e-02	1.29910032e-03
2.95000000e-02	2.53130954e-02	1.35021579e-03
2.97500000e-02	2.45033571e-02	1.31395389e-03
3.00000000e-02	2.49126088e-02	1.29942484e-03
3.02500000e-02	2.45346695e-02	1.28108177e-03
3.05000000e-02	2.34606379e-02	1.20343152e-03
3.07500000e-02	2.42233659e-02	1.25616093e-03
3.10000000e-02	2.42732421e-02	1.24569223e-03
3.12500000e-02	2.40673232e-02	1.22952595e-03
3.15000000e-02	2.35362444e-02	1.15016065e-03
3.17500000e-02	2.38076503e-02	1.17582009e-03
3.20000000e-02	2.39312585e-02	1.18926250e-03
3.22500000e-02	2.35089310e-02	1.14492197e-03
3.25000000e-02	2.27005321e-02	1.09362162e-03
3.27500000e-02	2.31144192e-02	1.10339007e-03
3.30000000e-02	2.26208931e-02	1.08063823e-03
3.32500000e-02	2.29757320e-02	1.11557792e-03
3.35000000e-02	2.37518299e-02	1.12326475e-03
3.37500000e-02	2.34046381e-02	1.12777051e-03
3.40000000e-02	2.32086217e-02	1.10025746e-03
3.42500000e-02	2.41016635e-02	1.14047801e-03
3.45000000e-02	2.20327776e-02	1.04639699e-03
3.47500000e-02	2.27516059e-02	1.07217469e-03
3.50000000e-02	2.23011505e-02	1.05104924e-03
3.52500000e-02	2.30053203e-02	1.08066942e-03
3.55000000e-02	2.21878458e-02	1.03452027e-03
3.57500000e-02	2.21282719e-02	1.01402488e-03
3.60000000e-02	2.20187758e-02	1.02953357e-03
3.62500000e-02	2.13884648e-02	1.00087578e-03
3.65000000e-02	2.26870636e-02	1.04435570e-03
3.67500000e-02	2.25422045e-02	1.03162173e-03
3.70000000e-02	2.23694141e-02	1.04623101e-03
3.72500000e-02	2.20876993e-02	1.01637957e-03
3.75000000e-02	2.15961539e-02	1.00052953e-03
3.77500000e-02	2.20803511e-02	1.00286016e-03
3.80000000e-02	2.18333953e-02	9.80087339e-04
3.82500000e-02	2.12336226e-02	9.57211021e-04
3.85000000e-02	2.17601734e-02	9.94984125e-04
3.87500000e-02	2.14505725e-02	9.57368647e-04
3.90000000e-02	2.11021259e-02	9.60158082e-04
3.92500000e-02	2.20110978e-02	9.68545047e-04
3.95000000e-02	2.19523294e-02	9.76745957e-04
3.97500000e-02	2.15550567e-02	9.61461067e-04
4.00000000e-02	2.23036632e-02	9.74683482e-04
4.02500000e-02	2.09403002e-02	9.36182384e-04
4.05000000e-02	2.15037431e-02	9.42957918e-04
4.07500000e-02	2.23717330e-02	9.74888676e-04
4.10000000e-02	2.14520876e-02	9.40239597e-04
4.12500000e-02	2.13081707e-02	9.21455516e-04
4.15000000e-02	2.15079601e-02	9.31002783e-04
4.17500000e-02	2.26798015e-02	9.65764596e-04
4.20000000e-02	2.08825393e-02	8.96890568e-04
4.22500000e-02	2.13804479e-02	9.17498128e-04
4.25000000e-02	2.21638057e-02	9.51632002e-04
4.27500000e-02	2.15416051e-02	9.17676975e-04
4.30000000e-02	2.23072968e-02	9.47037988e-04
4.32500000e-02	2.08910559e-02	8.87272986e-04
4.35000000e-02	2.08805158e-02	8.95607982e-04
4.37500000e-02	2.11951375e-02	8.88421663e-04
4.40000000e-02	2.11618437e-02	8.92899465e-04
4.42500000e-02	2.12403181e-02	8.93946729e-04
4.45000000e-02	2.14307003e-02	9.00610909e-04
4.47500000e-02	2.17070409e-02	9.01512054e-04
4.50000000e-02	2.20771223e-02	9.22921450e-04
4.52500000e-02	2.08182093e-02	8.72317724e-04
4.55000000e-02	2.12229908e-02	8.85099060e-04
4.57500000e-02	2.06067119e-02	8.56402336e-04
4.60000000e-02	2.19503551e-02	9.04268125e-04
4.62500000e-02	2.17796006e-02	9.05458103e-04
4.65000000e-02	2.08376760e-02	8.60664316e-04
4.67500000e-02	2.08090165e-02	8.56104540e-04
4.70000000e-02	2.08783128e-02	8.61242601e-04
4.72500000e-02	2.13551860e-02	8.88259238e-04
4.75000000e-02	2.04023594e-02	8.42915076e-04
4.77500000e-02	2.13433132e-02	8.73201073e-04
4.80000000e-02	2.12910507e-02	8.63888889e-04
4.82500000e-02	2.12746473e-02	8.61955033e-04
4.85000000e-02	2.08177264e-02	8.49285399e-04
4.87500000e-02	2.11337001e-02	8.64592862e-04
4.90000000e-02	2.08919478e-02	8.42813855e-04
4.92500000e-02	2.12676249e-02	8.69874437e-04
4.95000000e-02	2.08071419e-02	8.35230139e-04
4.97500000e-02	2.04001466e-02	8.25782365e-04
5.00000000e-02	2.05619729e-02	8.31567314e-04
5.02500000e-02	2.08569317e-02	8.27188032e-04
5.05000000e-02	2.06777314e-02	8.28049264e-04
5.07500000e-02	2.10843852e-02	8.53017106e-04
5.10000000e-02	2.10591314e-02	8.38903472e-04
5.12500000e-02	2.06927324e-02	8.28407075e-04
5.15000000e-02	2.07168270e-02	8.17422482e-04
5.17500000e-02	2.07644834e-02	8.23530220e-04
5.20000000e-02	2.13817788e-02	8.45552929e-04
5.22500000e-02	2.08398772e-02	8.33737501e-04
5.25000000e-02	2.04991722e-02	8.12106388e-04
5.27500000e-02	2.12627495e-02	8.36257767e-04
5.30000000e-02	2.01798985e-02	8.01423529e-04
5.32500000e-02	2.10210863e-02	8.34481759e-04
5.35000000e-02	2.11219997e-02	8.26613601e-04
5.37500000e-02	2.11756812e-02	8.27297128e-04
5.40000000e-02	2.04689817e-02	8.10618686e-04
5.42500000e-02	2.05331440e-02	7.93487471e-04
5.45000000e-02	2.06329589e-02	7.99647775e-04
5.47500000e-02	2.05006830e-02	7.89581215e-04
5.50000000e-02	2.07641470e-02	8.10892099e-04
5.52500000e-02	2.07818441e-02	8.06414306e-04
5.55000000e-02	2.06997390e-02	7.98684899e-04
5.57500000e-02	2.08704139e-02	8.07723556e-04
5.60000000e-02	2.06669107e-02	7.93732232e-04
5.62500000e-02	2.06302212e-02	7.92122745e-04
5.65000000e-02	2.07113076e-02	7.98718619e-04
5.67500000e-02	2.07277458e-02	7.98952033e-04
5.70000000e-02	2.07010574e-02	7.91850032e-04
5.72500000e-02	1.95321897e-02	7.49362263e-04
5.75000000e-02	2.04211627e-02	7.77079359e-04
5.77500000e-02	2.05810715e-02	7.81526881e-04
5.80000000e-02	2.02434937e-02	7.70888071e-04
5.82500000e-02	2.03580210e-02	7.68980620e-04
5.85000000e-02	2.04050053e-02	7.77341005e-04
5.87500000e-02	2.00247784e-02	7.56368520e-04
5.90000000e-02	2.05118687e-02	7.67807737e-04
5.92500000e-02	2.04860475e-02	7.67816126e-04
5.95000000e-02	2.02863165e-02	7.62553468e-04
5.97500000e-02	2.05683777e-02	7.75373566e-04
6.00000000e-02	2.00435752e-02	7.56532251e-04
6.02500000e-02	2.03195734e-02	7.55818479e-04
6.05000000e-02	2.06322935e-02	7.65583370e-04
6.07500000e-02	2.05047288e-02	7.66477854e-04
6.10000000e-02	2.07584204e-02	7.70121180e-04
6.12500000e-02	2.03008650e-02	7.57629113e-04
6.15000000e-02	2.07146307e-02	7.70235309e-04
6.17500000e-02	2.03823662e-02	7.48845566e-04
6.20000000e-02	1.98325523e-02	7.32107048e-04
6.22500000e-02	1.98884705e-02	7.34397701e-04
6.25000000e-02	2.11468624e-02	7.75936198e-04
6.27500000e-02	2.04858321e-02	7.46507946e-04
6.30000000e-02	2.03733900e-02	7.43645700e-04
6.32500000e-02	1.97735577e-02	7.23441684e-04
6.35000000e-02	2.06210499e-02	7.59103313e-04
6.37500000e-02	1.99303179e-02	7.30293580e-04
6.40000000e-02	1.98677432e-02	7.24141176e-04
6.42500000e-02	2.05790903e-02	7.38429258e-04
6.45000000e-02	2.08129516e-02	7.52870688e-04
6.47500000e-02	2.05511241e-02	7.48508699e-04
6.50000000e-02	2.02635384e-02	7.34560723e-04
6.52500000e-02	1.94718682e-02	7.05005200e-04
6.55000000e-02	1.97703293e-02	7.15063524e-04
6.57500000e-02	1.96405518e-02	7.08109587e-04
6.60000000e-02	2.07036881e-02	7.41860532e-04
6.62500000e-02	2.07750380e-02	7.47412676e-04
6.65000000e-02	2.03687867e-02	7.25104100e-04
6.67500000e-02	1.97682748e-02	7.04973903e-04
6.70000000e-02	2.01424713e-02	7.22458374e-04
6.72500000e-02	1.97821344e-02	7.09745682e-04
6.75000000e-02	2.00872654e-02	7.10409428e-04
6.77500000e-02	2.02089069e-02	7.17457331e-04
6.80000000e-02	2.02553164e-02	7.19105946e-04
6.82500000e-02	2.01178195e-02	7.16969606e-04
6.85000000e-02	1.96014688e-02	6.99870015e-04
6.87500000e-02	2.04447520e-02	7.19275612e-04
6.90000000e-02	2.00138037e-02	7.01526605e-04
6.92500000e-02	2.04827845e-02	7.15375757e-04
6.95000000e-02	1.98364908e-02	7.00346620e-04
6.97500000e-02	2.03135497e-02	7.15051341e-04
7.00000000e-02	1.97439474e-02	6.93637755e-04
7.02500000e-02	1.98000986e-02	6.93521999e-04
7.05000000e-02	2.03545432e-02	7.06005593e-04
7.07500000e-02	2.04568497e-02	7.18922745e-04
7.10000000e-02	1.98907945e-02	6.93116687e-04
7.12500000e-02	2.02468705e-02	7.02948546e-04
7.15000000e-02	2.02316425e-02	6.96629155e-04
7.17500000e-02	2.02658791e-02	7.02855899e-04
7.20000000e-02	2.00275645e-02	6.97436414e-04
7.22500000e-02	2.05745635e-02	7.15025436e-04
7.25000000e-02	2.00776518e-02	6.87508231e-04
7.27500000e-02	1.98414362e-02	6.89394892e-04
7.30000000e-02	1.96699943e-02	6.76711045e-04
7.32500000e-02	1.98473211e-02	6.84143584e-04
7.35000000e-02	2.05175535e-02	7.08305972e-04
7.37500000e-02	1.94762930e-02	6.70269669e-04
7.40000000e-02	2.02352594e-02	6.91659198e-04
7.42500000e-02	2.01737976e-02	6.91061813e-04
7.45000000e-02	2.02959668e-02	6.90402831e-04
7.47500000e-02	2.00477244e-02	6.81705253e-04
7.50000000e-02	2.01504796e-02	6.81841725e-04
7.52500000e-02	2.02064783e-02	6.83117768e-04
7.55000000e-02	1.95036602e-02	6.58169339e-04
7.57500000e-02	1.98911449e-02	6.72461427e-04
7.60000000e-02	2.01368269e-02	6.85163062e-04
7.62500000e-02	2.03265468e-02	6.89782783e-04
7.65000000e-02	2.01923343e-02	6.83402420e-04
7.67500000e-02	1.97659281e-02	6.68154735e-04
7.70000000e-02	1.99467503e-02	6.66686222e-04
7.72500000e-02	1.96632396e-02	6.68961165e-04
7.75000000e-02	1.96637119e-02	6.82326540e-04
7.77500000e-02	2.00183901e-02	6.99223592e-04
7.80000000e-02	2.00665379e-02	6.98539676e-04
7.82500000e-02	2.00650415e-02	7.05447122e-04
7.85000000e-02	2.04824353e-02	7.18615241e-04
7.87500000e-02	1.99696253e-02	7.04013410e-04
7.90000000e-02	2.00730671e-02	7.09985037e-04
7.92500000e-02	1.98334146e-02	7.00031399e-04
7.95000000e-02	2.02823374e-02	7.26796835e-04
7.97500000e-02	2.04290102e-02	7.35404737e-04
8.00000000e-02	1.97627583e-02	7.04274112e-04
8.02500000e-02	2.02164658e-02	7.21300942e-04
8.05000000e-02	1.96473637e-02	7.04626661e-04
8.07500000e-02	2.04766190e-02	7.41247397e-04
8.10000000e-02	1.96434105e-02	7.16572008e-04
8.12500000e-02	2.06454908e-02	7.50590139e-04
8.15000000e-02	2.02380273e-02	7.26963482e-04
8.17500000e-02	2.01858673e-02	7.35919084e-04
8.20000000e-02	1.98287304e-02	7.22447929e-04
8.22500000e-02	1.95864262e-02	7.15674957e-04
8.25000000e-02	1.97510602e-02	7.22786181e-04
8.27500000e-02	1.96150115e-02	7.14820326e-04
8.30000000e-02	2.02294943e-02	7.44692309e-04
8.32500000e-02	2.02134305e-02	7.39308539e-04
8.35000000e-02	1.99826630e-02	7.40026915e-04
8.37500000e-02	1.98224874e-02	7.24536182e-04
8.40000000e-02	1.99149794e-02	7.34453764e-04
8.42500000e-02	1.96439418e-02	7.26766295e-04
8.45000000e-02	2.00765628e-02	7.38997625e-04
8.47500000e-02	1.97890846e-02	7.33859233e-04
8.50000000e-02	2.01211411e-02	7.46484485e-04
8.52500000e-02	1.99923242e-02	7.46685626e-04
8.55000000e-02	1.98190911e-02	7.28182653e-04
8.57500000e-02	1.96815810e-02	7.30912324e-04
8.60000000e-02	1.96360040e-02	7.37121927e-04
8.62500000e-02	1.93372707e-02	7.17195669e-04
8.65000000e-02	1.96125412e-02	7.30617065e-04
8.67500000e-02	1.99081667e-02	7.30650211e-04
8.70000000e-02	1.98175034e-02	7.25712764e-04
8.72500000e-02	1.93300252e-02	6.90775790e-04
8.75000000e-02	2.02614394e-02	7.12882443e-04
8.77500000e-02	1.98213763e-02	6.97288771e-04
8.80000000e-02	2.02605963e-02	7.16335538e-04
8.82500000e-02	1.97161971e-02	6.91908266e-04
8.85000000e-02	2.03385315e-02	7.08009628e-04
8.87500000e-02	2.06225735e-02	7.07164443e-04
8.90000000e-02	2.00447214e-02	6.89219735e-04
8.92500000e-02	2.07070492e-02	7.06256015e-04
8.95000000e-02	1.92243270e-02	6.61133656e-04
8.97500000e-02	1.98233077e-02	6.74286308e-04
9.00000000e-02	1.95398690e-02	6.65609128e-04
9.02500000e-02	1.97467069e-02	6.70486313e-04
9.05000000e-02	2.09065327e-02	7.08912108e-04
9.07500000e-02	1.97329803e-02	6.67604328e-04
9.10000000e-02	1.93463958e-02	6.54998892e-04
9.12500000e-02	1.98852425e-02	6.68653396e-04
9.15000000e-02	1.98036455e-02	6.66528899e-04
9.17500000e-02	1.97200203e-02	6.60522737e-04
9.20000000e-02	1.96811351e-02	6.58691756e-04
9.22500000e-02	1.99300774e-02	6.61040960e-04
9.25000000e-02	1.94665200e-02	6.48464428e-04
9.27500000e-02	1.95984811e-02	6.55375293e-04
9.30000000e-02	1.97159309e-02	6.53042991e-04
9.32500000e-02	1.97099241e-02	6.51321931e-04
9.35000000e-02	2.03718789e-02	6.71650503e-04
9.37500000e-02	2.02710596e-02	6.64750009e-04
9.40000000e-02	2.01800235e-02	6.61159412e-04
9.42500000e-02	1.96109936e-02	6.41178439e-04
9.45000000e-02	1.96511492e-02	6.46223741e-04
9.47500000e-02	1.99818872e-02	6.53955469e-04
9.50000000e-02	1.94369653e-02	6.39585967e-04
9.52500000e-02	1.99284562e-02	6.51228152e-04
9.55000000e-02	2.01926364e-02	6.54514421e-04
9.57500000e-02	1.94237760e-02	6.29712726e-04
9.60000000e-02	1.95775060e-02	6.40629286e-04
9.62500000e-02	1.97471183e-02	6.37977670e-04
9.65000000e-02	1.95391371e-02	6.26268390e-04
9.67500000e-02	1.95225390e-02	6.31402662e-04
9.70000000e-02	1.98426822e-02	6.37729747e-04
9.72500000e-02	1.99686477e-02	6.44173864e-04
9.75000000e-02	1.94613925e-02	6.23996255e-04
9.77500000e-02	1.97277490e-02	6.29622488e-04
9.80000000e-02	1.94196617e-02	6.22726595e-04
9.82500000e-02	1.92997929e-02	6.19791813e-04
9.85000000e-02	1.95893469e-02	6.20279552e-04
9.87500000e-02	1.98508595e-02	6.29417661e-04
9.90000000e-02	1.98313966e-02	6.33878872e-04
9.92500000e-02	2.00986887e-02	6.39035666e-04
9.95000000e-02	1.93254392e-02	6.14724008e-04
9.97500000e-02	1.99347479e-02	6.29611052e-04
1.00000000e-01	1.95673246e-02	5.02217972e-04
1.00500000e-01	1.96539576e-02	4.40095404e-04
1.01000000e-01	1.92366066e-02	4.26284902e-04
1.01500000e-01	1.97216968e-02	4.36781058e-04
1.02000000e-01	2.00648546e-02	4.43222350e-04
1.02500000e-01	1.97464841e-02	4.31464853e-04
1.03000000e-01	1.94273417e-02	4.27074436e-04
1.03500000e-01	1.96104672e-02	4.30187764e-04
1.04000000e-01	2.00654163e-02	4.40090752e-04
1.04500000e-01	2.00944912e-02	4.37253535e-04
1.05000000e-01	1.98731954e-02	4.29126854e-04
1.05500000e-01	1.95176967e-02	4.22811649e-04
1.06000000e-01	1.97686691e-02	4.26177399e-04
1.06500000e-01	1.99477684e-02	4.27712141e-04
1.07000000e-01	2.01940942e-02	4.41038854e-04
1.07500000e-01	1.96015176e-02	4.35649374e-04
1.08000000e-01	1.96891979e-02	4.42751267e-04
1.08500000e-01	1.98033627e-02	4.46522552e-04
1.09000000e-01	1.98055404e-02	4.49268912e-04
1.09500000e-01	1.95131889e-02	4.44122264e-04
1.10000000e-01	1.99450417e-02	4.49531994e-04
1.10500000e-01	2.00186749e-02	4.38851763e-04
1.11000000e-01	1.97980457e-02	4.29155374e-04
1.11500000e-01	2.02261491e-02	4.34551142e-04
1.12000000e-01	1.98173072e-02	4.24901293e-04
1.12500000e-01	1.97787536e-02	4.18316722e-04
1.13000000e-01	1.97724437e-02	4.20983319e-04
1.13500000e-01	1.95996234e-02	4.14859855e-04
1.14000000e-01	1.96215527e-02	4.14185976e-04
1.14500000e-01	1.94404547e-02	4.08832474e-04
1.15000000e-01	1.97804466e-02	4.13430273e-04
1.15500000e-01	1.95872042e-02	4.07546897e-04
1.16000000e-01	1.93653620e-02	4.03412488e-04
1.16500000e-01	1.98504347e-02	4.13097804e-04
1.17000000e-01	1.98189353e-02	4.12162775e-04
1.17500000e-01	1.99536599e-02	4.11971655e-04
1.18000000e-01	1.95969240e-02	4.05530135e-04
1.18500000e-01	1.97404973e-02	4.04715579e-04
1.19000000e-01	1.94209721e-02	3.98870340e-04
1.19500000e-01	2.00356386e-02	4.09854393e-04
1.20000000e-01	1.97181284e-02	4.02285222e-04
1.20500000e-01	1.96113192e-02	4.00380503e-04
1.21000000e-01	1.95241723e-02	3.97812302e-04
1.21500000e-01	1.95536345e-02	3.96242630e-04
1.22000000e-01	1.95739136e-02	3.96398988e-04
1.22500000e-01	1.96512451e-02	3.96403967e-04
1.23000000e-01	1.91868906e-02	3.86692472e-04
1.23500000e-01	1.97567094e-02	3.95792050e-04
1.24000000e-01	1.95696516e-02	3.93155717e-04
1.24500000e-01	1.97707298e-02	3.96101292e-04
1.25000000e-01	1.98458364e-02	3.97946901e-04
1.25500000e-01	1.94623687e-02	3.87715033e-04
1.26000000e-01	1.95724667e-02	3.90034426e-04
1.26500000e-01	1.98602077e-02	3.93620725e-04
1.27000000e-01	1.98587225e-02	3.93051174e-04
1.27500000e-01	1.94117791e-02	3.83815557e-04
1.28000000e-01	1.95385659e-02	3.86009279e-04
1.28500000e-01	1.96173154e-02	3.85853663e-04
1.29000000e-01	1.96686581e-02	3.86418007e-04
1.29500000e-01	1.98589912e-02	3.86977330e-04
1.30000000e-01	1.94929290e-02	3.80670567e-04
1.30500000e-01	1.97094266e-02	3.84587747e-04
1.31000000e-01	1.93622107e-02	3.78047719e-04
1.31500000e-01	1.96123937e-02	3.81105369e-04
1.32000000e-01	1.97844494e-02	3.84196486e-04
1.32500000e-01	1.98082127e-02	3.81942427e-04
1.33000000e-01	1.97062339e-02	3.79061863e-04
1.33500000e-01	1.97102513e-02	3.76894686e-04
1.34000000e-01	1.95486589e-02	3.75209174e-04
1.34500000e-01	1.96273607e-02	3.75293988e-04
1.35000000e-01	1.94352385e-02	3.70293778e-04
1.35500000e-01	1.96355405e-02	3.74068883e-04
1.36000000e-01	1.95250056e-02	3.71759746e-04
1.36500000e-01	1.96953028e-02	3.75517729e-04
1.37000000e-01	1.96997859e-02	3.71463816e-04
1.37500000e-01	1.96874490e-02	3.70548505e-04
1.38000000e-01	1.96458707e-02	3.70969684e-04
1.38500000e-01	1.97182766e-02	3.72044779e-04
1.39000000e-01	1.96032930e-02	3.69608121e-04
1.39500000e-01	1.94741288e-02	3.66668793e-04
1.40000000e-01	1.99560809e-02	3.75314458e-04
1.40500000e-01	1.95755635e-02	3.66897213e-04
1.41000000e-01	1.93590195e-02	3.64640389e-04
1.41500000e-01	1.94871539e-02	3.67112717e-04
1.42000000e-01	1.93115033e-02	3.61063508e-04
1.42500000e-01	1.94267700e-02	3.64459518e-04
1.43000000e-01	1.94475454e-02	3.64171073e-04
1.43500000e-01	1.94104607e-02	3.61835278e-04
1.44000000e-01	1.94686109e-02	3.63873721e-04
1.44500000e-01	1.96333955e-02	3.63916899e-04
1.45000000e-01	1.93360633e-02	3.58750786e-04
1.45500000e-01	1.96087641e-02	3.61784252e-04
1.46000000e-01	1.93874065e-02	3.58985414e-04
1.46500000e-01	1.95702081e-02	3.63183332e-04
1.47000000e-01	1.93192822e-02	3.54232658e-04
1.47500000e-01	1.94319819e-02	3.56324795e-04
1.48000000e-01	1.91572402e-02	3.51208797e-04
1.48500000e-01	1.93289527e-02	3.56021693e-04
1.49000000e-01	1.92806149e-02	3.51983117e-04
1.49500000e-01	1.92336636e-02	3.52869367e-04
1.50000000e-01	1.94698788e-02	3.53306854e-04
1.50500000e-01	1.94469846e-02	3.56011628e-04
1.51000000e-01	1.94174057e-02	3.51323454e-04
1.51500000e-01	1.94150269e-02	3.50793401e-04
1.52000000e-01	1.90819588e-02	3.43915938e-04
1.52500000e-01	1.94363574e-02	3.51569730e-04
1.53000000e-01	1.94119262e-02	3.49761003e-04
1.53500000e-01	1.90763411e-02	3.43247999e-04
1.54000000e-01	1.95180506e-02	3.49741172e-04
1.54500000e-01	1.91783972e-02	3.52701949e-04
1.55000000e-01	1.93123158e-02	3.57919500e-04
1.55500000e-01	1.91496187e-02	3.56550636e-04
1.56000000e-01	1.93855556e-02	3.64097619e-04
1.56500000e-01	1.90782846e-02	3.59094145e-04
1.57000000e-01	1.91552125e-02	3.59138742e-04
1.57500000e-01	1.93661983e-02	3.54406414e-04
1.58000000e-01	1.97087187e-02	3.57358585e-04
1.58500000e-01	1.91769438e-02	3.46380300e-04
1.59000000e-01	1.93533583e-02	3.47572831e-04
1.59500000e-01	1.92772512e-02	3.46983843e-04
1.60000000e-01	1.92256095e-02	3.45887174e-04
1.60500000e-01	1.90597497e-02	3.40866244e-04
1.61000000e-01	1.87235504e-02	3.36519661e-04
1.61500000e-01	1.91439122e-02	3.40098812e-04
1.62000000e-01	1.93402487e-02	3.41186095e-04
1.62500000e-01	1.95713024e-02	3.47192434e-04
1.63000000e-01	1.92020053e-02	3.37372053e-04
1.63500000e-01	1.88312889e-02	3.34600709e-04
1.64000000e-01	1.90833892e-02	3.34366813e-04
1.64500000e-01	1.92472162e-02	3.38238081e-04
1.65000000e-01	1.91504661e-02	3.36884775e-04
1.65500000e-01	1.88661449e-02	3.30244416e-04
1.66000000e-01	1.90877669e-02	3.35614518e-04
1.66500000e-01	1.90599720e-02	3.32978971e-04
1.67000000e-01	1.90585807e-02	3.33568864e-04
1.67500000e-01	1.88589887e-02	3.29456965e-04
1.68000000e-01	1.88341511e-02	3.28675251e-04
1.68500000e-01	1.87717432e-02	3.27337850e-04
1.69000000e-01	1.87184930e-02	3.25037963e-04
1.69500000e-01	1.88104803e-02	3.23831967e-04
1.70000000e-01	1.91184726e-02	3.30270308e-04
1.70500000e-01	1.88133842e-02	3.24252223e-04
1.71000000e-01	1.89079348e-02	3.25271471e-04
1.71500000e-01	1.90050852e-02	3.26854009e-04
1.72000000e-01	1.88114075e-02	3.22990232e-04
1.72500000e-01	1.88549560e-02	3.24131729e-04
1.73000000e-01	1.90198067e-02	3.25823146e-04
1.73500000e-01	1.88362035e-02	3.21060534e-04
1.74000000e-01	1.88181108e-02	3.19077557e-04
1.74500000e-01	1.86487175e-02	3.16164276e-04
1.75000000e-01	1.87261557e-02	3.16683549e-04
1.75500000e-01	1.87842413e-02	3.16668461e-04
1.76000000e-01	1.87124737e-02	3.15057798e-04
1.76500000e-01	1.87234828e-02	3.16186420e-04
1.77000000e-01	1.87834382e-02	3.16849959e-04
1.77500000e-01	1.87844262e-02	3.15962691e-04
1.78000000e-01	1.87314170e-02	3.15588983e-04
1.78500000e-01	1.87321564e-02	3.15979579e-04
1.79000000e-01	1.88438801e-02	3.16004854e-04
1.79500000e-01	1.88388194e-02	3.16643480e-04
1.80000000e-01	1.88081376e-02	3.16100767e-04
1.80500000e-01	1.87426015e-02	3.13761110e-04
1.81000000e-01	1.86217041e-02	3.12689055e-04
1.81500000e-01	1.83493035e-02	3.07038631e-04
1.82000000e-01	1.85259478e-02	3.09503948e-04
1.82500000e-01	1.86773772e-02	3.10717494e-04
1.83000000e-01	1.85529893e-02	3.09263928e-04
1.83500000e-01	1.87337326e-02	3.11937064e-04
1.84000000e-01	1.85930681e-02	3.09359728e-04
1.84500000e-01	1.87310214e-02	3.10735814e-04
1.85000000e-01	1.85000082e-02	3.07739426e-04
1.85500000e-01	1.86731088e-02	3.08986958e-04
1.86000000e-01	1.84485111e-02	3.04612116e-04
1.86500000e-01	1.86881841e-02	3.08290744e-04
1.87000000e-01	1.84529843e-02	3.04649269e-04
1.87500000e-01	1.83755677e-02	3.02764868e-04
1.88000000e-01	1.84527464e-02	3.04024934e-04
1.88500000e-01	1.86214955e-02	3.05727116e-04
1.89000000e-01	1.82695146e-02	2.99268528e-04
1.89500000e-01	1.85243112e-02	3.04534601e-04
1.90000000e-01	1.85377966e-02	3.04731231e-04
1.90500000e-01	1.86246064e-02	3.03728464e-04
1.91000000e-01	1.83836550e-02	3.00520074e-04
1.91500000e-01	1.84050113e-02	3.01512791e-04
1.92000000e-01	1.86230979e-02	3.03742334e-04
1.92500000e-01	1.85803355e-02	3.01192381e-04
1.93000000e-01	1.83863177e-02	2.98341802e-04
1.93500000e-01	1.85332072e-02	3.01142989e-04
1.94000000e-01	1.83926620e-02	2.97359542e-04
1.94500000e-01	1.84388251e-02	2.98612870e-04
1.95000000e-01	1.82622630e-02	2.97130665e-04
1.95500000e-01	1.80874754e-02	2.91810550e-04
1.96000000e-01	1.86662699e-02	2.99583928e-04
1.96500000e-01	1.83706630e-02	2.95770132e-04
1.97000000e-01	1.85329215e-02	2.98861008e-04
1.97500000e-01	1.83949376e-02	2.94475115e-04
1.98000000e-01	1.83897974e-02	2.95312653e-04
1.98500000e-01	1.81074818e-02	2.90057028e-04
1.99000000e-01	1.82742754e-02	2.91775171e-04
1.99500000e-01	1.83277194e-02	2.91996283e-04
2.00000000e-01	1.82866617e-02	2.91744168e-04
2.00500000e-01	1.84064789e-02	2.93582159e-04
2.01000000e-01	1.84470287e-02	2.93894255e-04
2.01500000e-01	1.83610651e-02	2.93069412e-04
2.02000000e-01	1.81703211e-02	2.89428980e-04
2.02500000e-01	1.84139884e-02	2.91855919e-04
2.03000000e-01	1.81060344e-02	2.87592383e-04
2.03500000e-01	1.82350816e-02	2.90065785e-04
2.04000000e-01	1.83374028e-02	2.89558932e-04
2.04500000e-01	1.82701420e-02	2.88354312e-04
2.05000000e-01	1.80540855e-02	2.85024522e-04
2.05500000e-01	1.82610983e-02	2.89004790e-04
2.06000000e-01	1.81146835e-02	2.85002146e-04
2.06500000e-01	1.81318780e-02	2.85697979e-04
2.07000000e-01	1.81437634e-02	2.85048411e-04
2.07500000e-01	1.82368741e-02	2.86364109e-04
2.08000000e-01	1.82789195e-02	2.87831347e-04
2.08500000e-01	1.80610222e-02	2.82406691e-04
2.09000000e-01	1.81106367e-02	2.83985343e-04
2.09500000e-01	1.83294415e-02	2.86422172e-04
2.10000000e-01	1.83032080e-02	2.84553826e-04
2.10500000e-01	1.80908852e-02	2.83383050e-04
2.11000000e-01	1.82329803e-02	2.82626774e-04
2.11500000e-01	1.82973476e-02	2.84340754e-04
2.12000000e-01	1.81318590e-02	2.81505994e-04
2.12500000e-01	1.82530289e-02	2.83310455e-04
2.13000000e-01	1.78114766e-02	2.76657297e-04
2.13500000e-01	1.79366618e-02	2.78048106e-04
2.14000000e-01	1.78944672e-02	2.76763326e-04
2.14500000e-01	1.80163778e-02	2.77815678e-04
2.15000000e-01	1.80993852e-02	2.80137855e-04
2.15500000e-01	1.79589356e-02	2.76570002e-04
2.16000000e-01	1.78837496e-02	2.75552868e-04
2.16500000e-01	1.80515597e-02	2.77094730e-04
2.17000000e-01	1.83295182e-02	2.86153031e-04
2.17500000e-01	1.79698743e-02	2.83725612e-04
2.18000000e-01	1.81183667e-02	2.86994671e-04
2.18500000e-01	1.80225634e-02	2.87534335e-04
2.19000000e-01	1.80746423e-02	2.90382250e-04
2.19500000e-01	1.80312960e-02	2.90953802e-04
2.20000000e-01	1.79648551e-02	2.90896445e-04
2.20500000e-01	1.78279241e-02	2.89764318e-04
2.21000000e-01	1.78439489e-02	2.91607842e-04
2.21500000e-01	1.80968445e-02	2.95339427e-04
2.22000000e-01	1.79258874e-02	2.93696082e-04
2.22500000e-01	1.80100194e-02	2.93801780e-04
2.23000000e-01	1.78847449e-02	2.94062721e-04
2.23500000e-01	1.78525925e-02	2.93508000e-04
2.24000000e-01	1.81025699e-02	2.97889373e-04
2.24500000e-01	1.78611020e-02	2.95579314e-04
2.25000000e-01	1.76239097e-02	2.92617065e-04
2.25500000e-01	1.78272380e-02	2.95262512e-04
2.26000000e-01	1.80427165e-02	2.99476682e-04
2.26500000e-01	1.78669987e-02	2.93281464e-04
2.27000000e-01	1.80322177e-02	2.92489859e-04
2.27500000e-01	1.78223553e-02	2.87268319e-04
2.28000000e-01	1.77231398e-02	2.83045562e-04
2.28500000e-01	1.78468440e-02	2.84803651e-04
2.29000000e-01	1.78747295e-02	2.83556087e-04
2.29500000e-01	1.79102719e-02	2.82481819e-04
2.30000000e-01	1.79588566e-02	2.82627567e-04
2.30500000e-01	1.78421078e-02	2.79884219e-04
2.31000000e-01	1.75344289e-02	2.75698570e-04
2.31500000e-01	1.78112617e-02	2.77207681e-04
2.32000000e-01	1.80072734e-02	2.80331952e-04
2.32500000e-01	1.80193754e-02	2.80230275e-04
2.33000000e-01	1.79697039e-02	2.77914525e-04
2.33500000e-01	1.79325385e-02	2.77729503e-04
2.34000000e-01	1.76508179e-02	2.72391830e-04
2.34500000e-01	1.77492655e-02	2.72927921e-04
2.35000000e-01	1.79846411e-02	2.76710743e-04
2.35500000e-01	1.75381939e-02	2.70026315e-04
2.36000000e-01	1.75681772e-02	2.70624691e-04
2.36500000e-01	1.75982400e-02	2.70080927e-04
2.37000000e-01	1.77344802e-02	2.71384453e-04
2.37500000e-01	1.75972536e-02	2.68167723e-04
2.38000000e-01	1.78652985e-02	2.71949285e-04
2.38500000e-01	1.77765770e-02	2.71573898e-04
2.39000000e-01	1.76694347e-02	2.67312533e-04
2.39500000e-01	1.78434039e-02	2.69477577e-04
2.40000000e-01	1.75929774e-02	2.65999217e-04
2.40500000e-01	1.76159626e-02	2.65890110e-04
2.41000000e-01	1.79640072e-02	2.70707642e-04
2.41500000e-01	1.77687158e-02	2.66410635e-04
2.42000000e-01	1.75706632e-02	2.63772420e-04
2.42500000e-01	1.79116016e-02	2.68743416e-04
2.43000000e-01	1.75308084e-02	2.63310448e-04
2.43500000e-01	1.75047614e-02	2.62487636e-04
2.44000000e-01	1.77018005e-02	2.64308087e-04
2.44500000e-01	1.75375738e-02	2.62364443e-04
2.45000000e-01	1.78107412e-02	2.65588321e-04
2.45500000e-01	1.74937756e-02	2.60414024e-04
2.46000000e-01	1.74021929e-02	2.59104858e-04
2.46500000e-01	1.76403769e-02	2.61661439e-04
2.47000000e-01	1.74677334e-02	2.58574367e-04
2.47500000e-01	1.74601134e-02	2.58892575e-04
2.48000000e-01	1.75137035e-02	2.59729463e-04
2.48500000e-01	1.74326116e-02	2.56594952e-04
2.49000000e-01	1.77142141e-02	2.61089272e-04
2.49500000e-01	1.76365711e-02	2.60375358e-04
2.50000000e-01	1.74866862e-02	2.56234904e-04
2.50500000e-01	1.73562442e-02	2.55977685e-04
2.51000000e-01	1.75123453e-02	2.56635863e-04
2.51500000e-01	1.74839888e-02	2.57268219e-04
2.52000000e-01	1.74863557e-02	2.56586673e-04
2.52500000e-01	1.74691025e-02	2.55434200e-04
2.53000000e-01	1.73485493e-02	2.55036587e-04
2.53500000e-01	1.74501341e-02	2.55720727e-04
2.54000000e-01	1.73115355e-02	2.54242566e-04
2.54500000e-01	1.72161423e-02	2.51303851e-04
2.55000000e-01	1.73437893e-02	2.52375227e-04
2.55500000e-01	1.73572982e-02	2.54149480e-04
2.56000000e-01	1.73993327e-02	2.52697190e-04
2.56500000e-01	1.74552612e-02	2.53781530e-04
2.57000000e-01	1.75328620e-02	2.53828867e-04
2.57500000e-01	1.72411864e-02	2.49680056e-04
2.58000000e-01	1.73086601e-02	2.51230966e-04
2.58500000e-01	1.74266131e-02	2.51868799e-04
2.59000000e-01	1.73407649e-02	2.52141318e-04
2.59500000e-01	1.72669701e-02	2.48945554e-04
2.60000000e-01	1.73287339e-02	2.49751125e-04
2.60500000e-01	1.71905971e-02	2.48717380e-04
2.61000000e-01	1.75581487e-02	2.51237707e-04
2.61500000e-01	1.72986618e-02	2.49437475e-04
2.62000000e-01	1.74663816e-02	2.50003565e-04
2.62500000e-01	1.72856761e-02	2.48824349e-04
2.63000000e-01	1.74504253e-02	2.50299291e-04
2.63500000e-01	1.72333637e-02	2.46099403e-04
2.64000000e-01	1.71091422e-02	2.45433608e-04
2.64500000e-01	1.74010041e-02	2.48458190e-04
2.65000000e-01	1.72287568e-02	2.46661651e-04
2.65500000e-01	1.72774185e-02	2.46731884e-04
2.66000000e-01	1.72027514e-02	2.44861492e-04
2.66500000e-01	1.70929467e-02	2.42894743e-04
2.67000000e-01	1.72021439e-02	2.44451384e-04
2.67500000e-01	1.71707842e-02	2.43672583e-04
2.68000000e-01	1.72161424e-02	2.43443428e-04
2.68500000e-01	1.72315526e-02	2.43200267e-04
2.69000000e-01	1.70621845e-02	2.41946196e-04
2.69500000e-01	1.72269164e-02	2.43293833e-04
2.70000000e-01	1.73125213e-02	2.43798463e-04
2.70500000e-01	1.72920385e-02	2.44020892e-04
2.71000000e-01	1.73054994e-02	2.43347959e-04
2.71500000e-01	1.71610057e-02	2.41317240e-04
2.72000000e-01	1.71106900e-02	2.40231655e-04
2.72500000e-01	1.70039565e-02	2.39010184e-04
2.73000000e-01	1.71989736e-02	2.40380028e-04
2.73500000e-01	1.72401023e-02	2.40792690e-04
2.74000000e-01	1.69919193e-02	2.37596588e-04
2.74500000e-01	1.72845601e-02	2.40805686e-04
2.75000000e-01	1.71565952e-02	2.40327929e-04
2.75500000e-01	1.70705363e-02	2.38446992e-04
2.76000000e-01	1.70754779e-02	2.39453469e-04
2.76500000e-01	1.70350198e-02	2.37769768e-04
2.77000000e-01	1.70717342e-02	2.37888395e-04
2.77500000e-01	1.71284195e-02	2.38188581e-04
2.78000000e-01	1.70117220e-02	2.36818726e-04
2.78500000e-01	1.71591671e-02	2.38336243e-04
2.79000000e-01	1.71320643e-02	2.36875034e-04
2.79500000e-01	1.71413783e-02	2.37922753e-04
2.80000000e-01	1.70995900e-02	2.36351063e-04
2.80500000e-01	1.68810862e-02	2.34498637e-04
2.81000000e-01	1.69179917e-02	2.34359281e-04
2.81500000e-01	1.70284029e-02	2.34831641e-04
2.82000000e-01	1.70513966e-02	2.35713687e-04
2.82500000e-01	1.69863592e-02	2.35208438e-04
2.83000000e-01	1.71701549e-02	2.36407042e-04
2.83500000e-01	1.70577486e-02	2.34569704e-04
2.84000000e-01	1.68677935e-02	2.32151765e-04
2.84500000e-01	1.70464708e-02	2.34719026e-04
2.85000000e-01	1.68388402e-02	2.31511211e-04
2.85500000e-01	1.68090674e-02	2.31438367e-04
2.86000000e-01	1.69649583e-02	2.32801796e-04
2.86500000e-01	1.69794556e-02	2.31721934e-04
2.87000000e-01	1.68573574e-02	2.30860257e-04
2.87500000e-01	1.70556130e-02	2.32202009e-04
2.88000000e-01	1.70390368e-02	2.32273022e-04
2.88500000e-01	1.68748019e-02	2.30530371e-04
2.89000000e-01	1.70000956e-02	2.31482785e-04
2.89500000e-01	1.68296146e-02	2.29264907e-04
2.90000000e-01	1.68377703e-02	2.29231959e-04
2.90500000e-01	1.70736719e-02	2.31691454e-04
2.91000000e-01	1.67872155e-02	2.28324981e-04
2.91500000e-01	1.69786137e-02	2.29795279e-04
2.92000000e-01	1.67610454e-02	2.27273167e-04
2.92500000e-01	1.69774750e-02	2.29601900e-04
2.93000000e-01	1.66749888e-02	2.25865075e-04
2.93500000e-01	1.67766218e-02	2.26814132e-04
2.94000000e-01	1.68511259e-02	2.27422593e-04
2.94500000e-01	1.66967357e-02	2.25754337e-04
2.95000000e-01	1.66598382e-02	2.24219358e-04
2.95500000e-01	1.67925444e-02	2.26882865e-04
2.96000000e-01	1.67010390e-02	2.24988128e-04
2.96500000e-01	1.68017500e-02	2.26226701e-04
2.97000000e-01	1.70394084e-02	2.28394922e-04
2.97500000e-01	1.67107037e-02	2.24206131e-04
2.98000000e-01	1.65927382e-02	2.23324416e-04
2.98500000e-01	1.66786865e-02	2.23675807e-04
2.99000000e-01	1.67556153e-02	2.24062933e-04
2.99500000e-01	1.66736482e-02	2.23369572e-04
3.00000000e-01	1.66064920e-02	2.22933000e-04
3.00500000e-01	1.67892292e-02	2.23974968e-04
3.01000000e-01	1.67261699e-02	2.23004667e-04
3.01500000e-01	1.67689534e-02	2.23689998e-04
3.02000000e-01	1.67539545e-02	2.23041317e-04
3.02500000e-01	1.67449784e-02	2.23079787e-04
3.03000000e-01	1.66356633e-02	2.21964064e-04
3.03500000e-01	1.67357506e-02	2.21816031e-04
3.04000000e-01	1.67316824e-02	2.23150504e-04
3.04500000e-01	1.67172869e-02	2.21813057e-04
3.05000000e-01	1.66021047e-02	2.20539035e-04
3.05500000e-01	1.66081343e-02	2.20532323e-04
3.06000000e-01	1.67375886e-02	2.21114434e-04
3.06500000e-01	1.65960080e-02	2.20113183e-04
3.07000000e-01	1.65792644e-02	2.18694896e-04
3.07500000e-01	1.66703203e-02	2.20473718e-04
3.08000000e-01	1.67616676e-02	2.21549874e-04
3.08500000e-01	1.65697446e-02	2.18514688e-04
3.09000000e-01	1.65298913e-02	2.18290834e-04
3.09500000e-01	1.67850763e-02	2.21138175e-04
3.10000000e-01	1.65462766e-02	2.18260502e-04
3.10500000e-01	1.65487183e-02	2.17938637e-04
3.11000000e-01	1.62804675e-02	2.14163493e-04
3.11500000e-01	1.64788090e-02	2.16831541e-04
3.12000000e-01	1.67181515e-02	2.19355148e-04
3.12500000e-01	1.63820754e-02	2.15420166e-04
3.13000000e-01	1.65083140e-02	2.15988400e-04
3.13500000e-01	1.64059179e-02	2.14801571e-04
3.14000000e-01	1.65760818e-02	2.16509520e-04
3.14500000e-01	1.64712440e-02	2.15149403e-04
3.15000000e-01	1.66182502e-02	2.17495086e-04
3.15500000e-01	1.64700282e-02	2.14977709e-04
3.16000000e-01	1.65837903e-02	2.16567945e-04
3.16500000e-01	1.64405012e-02	2.14467276e-04
3.17000000e-01	1.62544178e-02	2.11671953e-04
3.17500000e-01	1.64235726e-02	2.13772492e-04
3.18000000e-01	1.65046304e-02	2.14793536e-04
3.18500000e-01	1.65605354e-02	2.15742047e-04
3.19000000e-01	1.62541977e-02	2.10725588e-04
3.19500000e-01	1.63199367e-02	2.11700884e-04
3.20000000e-01	1.63397142e-02	2.11992185e-04
3.20500000e-01	1.64808304e-02	2.13323879e-04
3.21000000e-01	1.64553787e-02	2.12650912e-04
3.21500000e-01	1.63179789e-02	2.11743515e-04
3.22000000e-01	1.63375452e-02	2.11150222e-04
3.22500000e-01	1.64291618e-02	2.12168019e-04
3.23000000e-01	1.64644498e-02	2.11759642e-04
3.23500000e-01	1.63188207e-02	2.11197641e-04
3.24000000e-01	1.64147349e-02	2.10539275e-04
3.24500000e-01	1.64617907e-02	2.13173517e-04
3.25000000e-01	1.63964351e-02	2.10053140e-04
3.25500000e-01	1.62006603e-02	2.07527785e-04
3.26000000e-01	1.62651590e-02	2.09082471e-04
3.26500000e-01	1.63359936e-02	2.09951319e-04
3.27000000e-01	1.63071410e-02	2.08989254e-04
3.27500000e-01	1.63220473e-02	2.08795797e-04
3.28000000e-01	1.61900103e-02	2.07443335e-04
3.28500000e-01	1.62683128e-02	2.07733694e-04
3.29000000e-01	1.61221263e-02	2.06802386e-04
3.29500000e-01	1.64048893e-02	2.09744861e-04
3.30000000e-01	1.62420621e-02	2.07647744e-04
3.30500000e-01	1.63446187e-02	2.09094398e-04
3.31000000e-01	1.63066637e-02	2.07982052e-04
3.31500000e-01	1.62269667e-02	2.06787692e-04
3.32000000e-01	1.62330199e-02	2.07778264e-04
3.32500000e-01	1.61964699e-02	2.06529400e-04
3.33000000e-01	1.64260671e-02	2.09356041e-04
3.33500000e-01	1.62203678e-02	2.06262590e-04
3.34000000e-01	1.61946232e-02	2.05536527e-04
3.34500000e-01	1.60124895e-02	2.03521640e-04
3.35000000e-01	1.61100316e-02	2.03809757e-04
3.35500000e-01	1.60713151e-02	2.04080844e-04
3.36000000e-01	1.62526988e-02	2.05523963e-04
3.36500000e-01	1.61042099e-02	2.03998143e-04
3.37000000e-01	1.60725184e-02	2.03090066e-04
3.37500000e-01	1.61340858e-02	2.04214787e-04
3.38000000e-01	1.60294739e-02	2.03067186e-04
3.38500000e-01	1.61509952e-02	2.03186448e-04
3.39000000e-01	1.58803247e-02	2.01461568e-04
3.39500000e-01	1.61584381e-02	2.03751576e-04
3.40000000e-01	1.60077965e-02	2.02169391e-04
3.40500000e-01	1.60673905e-02	2.02417764e-04
3.41000000e-01	1.59689758e-02	2.00783407e-04
3.41500000e-01	1.59655807e-02	2.01874584e-04
3.42000000e-01	1.60813304e-02	2.01583221e-04
3.42500000e-01	1.57698402e-02	1.98471874e-04
3.43000000e-01	1.58375983e-02	1.99027168e-04
3.43500000e-01	1.60990306e-02	2.01701437e-04
3.44000000e-01	1.59579128e-02	2.00368086e-04
3.44500000e-01	1.59397158e-02	1.99998223e-04
3.45000000e-01	1.59950968e-02	2.00322497e-04
3.45500000e-01	1.59116502e-02	1.99004497e-04
3.46000000e-01	1.59566748e-02	2.00242327e-04
3.46500000e-01	1.60735724e-02	2.00424559e-04
3.47000000e-01	1.56838452e-02	1.95523988e-04
3.47500000e-01	1.58952715e-02	1.98485036e-04
3.48000000e-01	1.58308767e-02	1.97905998e-04
3.48500000e-01	1.59963663e-02	1.99654519e-04
3.49000000e-01	1.57719276e-02	1.95733344e-04
3.49500000e-01	1.59026133e-02	1.98002025e-04
3.50000000e-01	1.58407165e-02	1.60683166e-04
3.51000000e-01	1.59093723e-02	1.39731822e-04
3.52000000e-01	1.59329785e-02	1.39772698e-04
3.53000000e-01	1.59217014e-02	1.39207328e-04
3.54000000e-01	1.58787425e-02	1.38331239e-04
3.55000000e-01	1.57442471e-02	1.37625920e-04
3.56000000e-01	1.57026991e-02	1.37564608e-04
3.57000000e-01	1.57943559e-02	1.40822486e-04
3.58000000e-01	1.56413329e-02	1.40811631e-04
3.59000000e-01	1.56452959e-02	1.41633126e-04
3.60000000e-01	1.56773502e-02	1.43078042e-04
3.61000000e-01	1.57725255e-02	1.44105771e-04
3.62000000e-01	1.56434793e-02	1.43862523e-04
3.63000000e-01	1.57053639e-02	1.45002886e-04
3.64000000e-01	1.56123306e-02	1.44732824e-04
3.65000000e-01	1.55508456e-02	1.44723985e-04
3.66000000e-01	1.56600418e-02	1.43673144e-04
3.67000000e-01	1.56485055e-02	1.42066545e-04
3.68000000e-01	1.55811467e-02	1.40332268e-04
3.69000000e-01	1.55741775e-02	1.39474550e-04
3.70000000e-01	1.55778423e-02	1.39140903e-04
3.71000000e-01	1.54958419e-02	1.39787819e-04
3.72000000e-01	1.56643473e-02	1.42353953e-04
3.73000000e-01	1.55397104e-02	1.41467596e-04
3.74000000e-01	1.54809171e-02	1.41208397e-04
3.75000000e-01	1.55286863e-02	1.41807820e-04
3.76000000e-01	1.55305345e-02	1.41651319e-04
3.77000000e-01	1.54795725e-02	1.41127349e-04
3.78000000e-01	1.55019402e-02	1.41456927e-04
3.79000000e-01	1.54648384e-02	1.40809732e-04
3.80000000e-01	1.55473184e-02	1.41300442e-04
3.81000000e-01	1.54634589e-02	1.40839864e-04
3.82000000e-01	1.54415509e-02	1.40617183e-04
3.83000000e-01	1.52991994e-02	1.39070280e-04
3.84000000e-01	1.53563211e-02	1.39743779e-04
3.85000000e-01	1.53603911e-02	1.39796931e-04
3.86000000e-01	1.52845994e-02	1.38928285e-04
3.87000000e-01	1.54022918e-02	1.40162968e-04
3.88000000e-01	1.53122643e-02	1.38933905e-04
3.89000000e-01	1.53613715e-02	1.39569065e-04
3.90000000e-01	1.51898914e-02	1.37799674e-04
3.91000000e-01	1.52374097e-02	1.38736743e-04
3.92000000e-01	1.52494039e-02	1.38588238e-04
3.93000000e-01	1.52854061e-02	1.38720581e-04
3.94000000e-01	1.52940250e-02	1.38845356e-04
3.95000000e-01	1.52222686e-02	1.38392891e-04
3.96000000e-01	1.51756804e-02	1.37436001e-04
3.97000000e-01	1.52346392e-02	1.37816246e-04
3.98000000e-01	1.51849168e-02	1.38144799e-04
3.99000000e-01	1.52016313e-02	1.38020294e-04
4.00000000e-01	1.51728711e-02	1.37682271e-04
4.01000000e-01	1.51504999e-02	1.37476746e-04
4.02000000e-01	1.51330707e-02	1.37116103e-04
4.03000000e-01	1.50926115e-02	1.37129003e-04
4.04000000e-01	1.50983798e-02	1.37140846e-04
4.05000000e-01	1.50294204e-02	1.36904747e-04
4.06000000e-01	1.51107724e-02	1.36904715e-04
4.07000000e-01	1.51440638e-02	1.37354278e-04
4.08000000e-01	1.49582714e-02	1.35981791e-04
4.09000000e-01	1.50879241e-02	1.36266816e-04
4.10000000e-01	1.50752469e-02	1.36458417e-04
4.11000000e-01	1.49842704e-02	1.35798158e-04
4.12000000e-01	1.49890573e-02	1.35719721e-04
4.13000000e-01	1.50479398e-02	1.36493508e-04
4.14000000e-01	1.49948874e-02	1.35917810e-04
4.15000000e-01	1.48434765e-02	1.34243683e-04
4.16000000e-01	1.49166738e-02	1.34815450e-04
4.17000000e-01	1.50030275e-02	1.35547038e-04
4.18000000e-01	1.48648426e-02	1.35970336e-04
4.19000000e-01	1.48768649e-02	1.38158610e-04
4.20000000e-01	1.50022012e-02	1.39365607e-04
4.21000000e-01	1.49118550e-02	1.39333272e-04
4.22000000e-01	1.50055010e-02	1.40343553e-04
4.23000000e-01	1.50698894e-02	1.41564044e-04
4.24000000e-01	1.50759208e-02	1.42003336e-04
4.25000000e-01	1.49254068e-02	1.41115199e-04
4.26000000e-01	1.50904460e-02	1.41874663e-04
4.27000000e-01	1.50029291e-02	1.41339229e-04
4.28000000e-01	1.50094121e-02	1.41755015e-04
4.29000000e-01	1.49921737e-02	1.42166675e-04
4.30000000e-01	1.49982757e-02	1.41371376e-04
4.31000000e-01	1.49028404e-02	1.40680319e-04
4.32000000e-01	1.48993340e-02	1.41028454e-04
4.33000000e-01	1.49029532e-02	1.41270204e-04
4.34000000e-01	1.47461992e-02	1.40138419e-04
4.35000000e-01	1.48468638e-02	1.40750509e-04
4.36000000e-01	1.49659557e-02	1.42326088e-04
4.37000000e-01	1.48116687e-02	1.41218480e-04
4.38000000e-01	1.48735234e-02	1.41709124e-04
4.39000000e-01	1.47157916e-02	1.40599191e-04
4.40000000e-01	1.47401497e-02	1.40798887e-04
4.41000000e-01	1.47146454e-02	1.40934781e-04
4.42000000e-01	1.47022753e-02	1.40801849e-04
4.43000000e-01	1.47882109e-02	1.42076761e-04
4.44000000e-01	1.46786189e-02	1.41109109e-04
4.45000000e-01	1.49253832e-02	1.43297526e-04
4.46000000e-01	1.48295279e-02	1.42800748e-04
4.47000000e-01	1.47571768e-02	1.42102186e-04
4.48000000e-01	1.47280594e-02	1.41642534e-04
4.49000000e-01	1.46096661e-02	1.41234221e-04
4.50000000e-01	1.46990750e-02	1.42310137e-04
4.51000000e-01	1.47265330e-02	1.42405965e-04
4.52000000e-01	1.47450556e-02	1.43282154e-04
4.53000000e-01	1.45781808e-02	1.41448471e-04
4.54000000e-01	1.47009131e-02	1.42411188e-04
4.55000000e-01	1.46042728e-02	1.41770565e-04
4.56000000e-01	1.47036232e-02	1.42621366e-04
4.57000000e-01	1.45623463e-02	1.42080330e-04
4.58000000e-01	1.46705195e-02	1.42874283e-04
4.59000000e-01	1.46783756e-02	1.42713110e-04
4.60000000e-01	1.45413369e-02	1.41711974e-04
4.61000000e-01	1.46479474e-02	1.43092482e-04
4.62000000e-01	1.44944416e-02	1.41775897e-04
4.63000000e-01	1.44801065e-02	1.41351474e-04
4.64000000e-01	1.45070431e-02	1.41796617e-04
4.65000000e-01	1.45198475e-02	1.42665146e-04
4.66000000e-01	1.46444237e-02	1.43721829e-04
4.67000000e-01	1.45769875e-02	1.43188706e-04
4.68000000e-01	1.44759171e-02	1.42348592e-04
4.69000000e-01	1.44747368e-02	1.42014012e-04
4.70000000e-01	1.45645132e-02	1.43414364e-04
4.71000000e-01	1.45059831e-02	1.42643424e-04
4.72000000e-01	1.43989708e-02	1.41135037e-04
4.73000000e-01	1.44342977e-02	1.42065933e-04
4.74000000e-01	1.44607469e-02	1.41967736e-04
4.75000000e-01	1.44614266e-02	1.41996319e-04
4.76000000e-01	1.44671413e-02	1.42190796e-04
4.77000000e-01	1.44102423e-02	1.42008271e-04
4.78000000e-01	1.43573541e-02	1.41299699e-04
4.79000000e-01	1.43463902e-02	1.40977603e-04
4.80000000e-01	1.43585972e-02	1.41287296e-04
4.81000000e-01	1.43395112e-02	1.41251576e-04
4.82000000e-01	1.43580112e-02	1.41210649e-04
4.83000000e-01	1.45137595e-02	1.42722850e-04
4.84000000e-01	1.43967633e-02	1.42062847e-04
4.85000000e-01	1.42810944e-02	1.40931167e-04
4.86000000e-01	1.43599362e-02	1.41607620e-04
4.87000000e-01	1.42405942e-02	1.40567975e-04
4.88000000e-01	1.43579790e-02	1.42053070e-04
4.89000000e-01	1.42426676e-02	1.40886692e-04
4.90000000e-01	1.44451371e-02	1.43093056e-04
4.91000000e-01	1.42069679e-02	1.41094216e-04
4.92000000e-01	1.42755309e-02	1.41561772e-04
4.93000000e-01	1.42671845e-02	1.41119549e-04
4.94000000e-01	1.42939344e-02	1.42029431e-04
4.95000000e-01	1.42679833e-02	1.42554520e-04
4.96000000e-01	1.42196983e-02	1.46484096e-04
4.97000000e-01	1.43332587e-02	1.50319385e-04
4.98000000e-01	1.42401057e-02	1.51030376e-04
4.99000000e-01	1.42735339e-02	1.53104717e-04
5.00000000e-01	1.42962301e-02	1.55113264e-04
5.01000000e-01	1.42635902e-02	1.56134386e-04
5.02000000e-01	1.43573712e-02	1.59188557e-04
5.03000000e-01	1.43588827e-02	1.60374181e-04
5.04000000e-01	1.43998534e-02	1.62585371e-04
5.05000000e-01	1.42914094e-02	1.58249988e-04
5.06000000e-01	1.43051736e-02	1.54921610e-04
5.07000000e-01	1.44211185e-02	1.54554801e-04
5.08000000e-01	1.43211780e-02	1.52692559e-04
5.09000000e-01	1.42179008e-02	1.51116434e-04
5.10000000e-01	1.43296168e-02	1.51598620e-04
5.11000000e-01	1.40682335e-02	1.49008333e-04
5.12000000e-01	1.42894553e-02	1.50668906e-04
5.13000000e-01	1.41125640e-02	1.49143361e-04
5.14000000e-01	1.42109555e-02	1.49139860e-04
5.15000000e-01	1.41633595e-02	1.47839138e-04
5.16000000e-01	1.40969280e-02	1.47727429e-04
5.17000000e-01	1.41175355e-02	1.47789209e-04
5.18000000e-01	1.41063041e-02	1.47075797e-04
5.19000000e-01	1.40982978e-02	1.46830449e-04
5.20000000e-01	1.39540517e-02	1.45291086e-04
5.21000000e-01	1.39156645e-02	1.44529142e-04
5.22000000e-01	1.40829169e-02	1.46034780e-04
5.23000000e-01	1.39482242e-02	1.44582831e-04
5.24000000e-01	1.40084190e-02	1.45173005e-04
5.25000000e-01	1.39772644e-02	1.44463956e-04
5.26000000e-01	1.40216899e-02	1.44976507e-04
5.27000000e-01	1.41290849e-02	1.46318893e-04
5.28000000e-01	1.39643914e-02	1.44521683e-04
5.29000000e-01	1.40796351e-02	1.45533781e-04
5.30000000e-01	1.41080988e-02	1.45676312e-04
5.31000000e-01	1.41426865e-02	1.46180780e-04
5.32000000e-01	1.39268009e-02	1.43965336e-04
5.33000000e-01	1.39632164e-02	1.44654824e-04
5.34000000e-01	1.38888654e-02	1.43991094e-04
5.35000000e-01	1.39896675e-02	1.44693529e-04
5.36000000e-01	1.39051102e-02	1.43734271e-04
5.37000000e-01	1.39844441e-02	1.44886379e-04
5.38000000e-01	1.38704947e-02	1.43590633e-04
5.39000000e-01	1.38612507e-02	1.43682948e-04
5.40000000e-01	1.39167819e-02	1.43920298e-04
5.41000000e-01	1.39029036e-02	1.44146927e-04
5.42000000e-01	1.39186347e-02	1.44298282e-04
5.43000000e-01	1.38871631e-02	1.43761517e-04
5.44000000e-01	1.38359198e-02	1.43009155e-04
5.45000000e-01	1.38061844e-02	1.42671504e-04
5.46000000e-01	1.36825946e-02	1.41991822e-04
5.47000000e-01	1.38729533e-02	1.43438761e-04
5.48000000e-01	1.38766131e-02	1.43507082e-04
5.49000000e-01	1.37328401e-02	1.42137262e-04
5.50000000e-01	1.37463576e-02	1.42380814e-04
5.51000000e-01	1.36887727e-02	1.41547066e-04
5.52000000e-01	1.39963249e-02	1.43986010e-04
5.53000000e-01	1.37483157e-02	1.41467732e-04
5.54000000e-01	1.38757014e-02	1.42336324e-04
5.55000000e-01	1.37018258e-02	1.40770387e-04
5.56000000e-01	1.37852376e-02	1.41857717e-04
5.57000000e-01	1.36273988e-02	1.40209648e-04
5.58000000e-01	1.36997432e-02	1.41182505e-04
5.59000000e-01	1.35718499e-02	1.40314769e-04
5.60000000e-01	1.37603878e-02	1.41563064e-04
5.61000000e-01	1.35260951e-02	1.39899610e-04
5.62000000e-01	1.36766805e-02	1.41112470e-04
5.63000000e-01	1.35798968e-02	1.39718499e-04
5.64000000e-01	1.36622833e-02	1.40322840e-04
5.65000000e-01	1.36335690e-02	1.40070861e-04
5.66000000e-01	1.36233239e-02	1.40413971e-04
5.67000000e-01	1.35102102e-02	1.39532081e-04
5.68000000e-01	1.35199408e-02	1.39127349e-04
5.69000000e-01	1.35994973e-02	1.39872661e-04
5.70000000e-01	1.35187061e-02	1.39120697e-04
5.71000000e-01	1.36454703e-02	1.40249226e-04
5.72000000e-01	1.34676993e-02	1.38636935e-04
5.73000000e-01	1.34281607e-02	1.38370930e-04
5.74000000e-01	1.35651956e-02	1.39396749e-04
5.75000000e-01	1.34788629e-02	1.39344239e-04
5.76000000e-01	1.34853421e-02	1.39319541e-04
5.77000000e-01	1.35381411e-02	1.39889328e-04
5.78000000e-01	1.35399786e-02	1.40050899e-04
5.79000000e-01	1.34077506e-02	1.38352176e-04
5.80000000e-01	1.35062636e-02	1.39678809e-04
5.81000000e-01	1.34008661e-02	1.38348857e-04
5.82000000e-01	1.34495007e-02	1.39073252e-04
5.83000000e-01	1.34095326e-02	1.38631293e-04
5.84000000e-01	1.33659974e-02	1.38302190e-04
5.85000000e-01	1.34278997e-02	1.38514424e-04
5.86000000e-01	1.33448463e-02	1.38044380e-04
5.87000000e-01	1.33214993e-02	1.37827017e-04
5.88000000e-01	1.34260720e-02	1.38641545e-04
5.89000000e-01	1.34560201e-02	1.39456879e-04
5.90000000e-01	1.33288287e-02	1.38311624e-04
5.91000000e-01	1.32619833e-02	1.37380422e-04
5.92000000e-01	1.34429394e-02	1.38977669e-04
5.93000000e-01	1.34261221e-02	1.38844074e-04
5.94000000e-01	1.32909937e-02	1.37795110e-04
5.95000000e-01	1.32325753e-02	1.37229230e-04
5.96000000e-01	1.33085505e-02	1.37976102e-04
5.97000000e-01	1.32459297e-02	1.37072124e-04
5.98000000e-01	1.34052255e-02	1.39079242e-04
5.99000000e-01	1.32241631e-02	1.36943788e-04
6.00000000e-01	1.33362343e-02	1.38439598e-04
6.01000000e-01	1.31617932e-02	1.36285444e-04
6.02000000e-01	1.33972810e-02	1.38633723e-04
6.03000000e-01	1.32973038e-02	1.37436408e-04
6.04000000e-01	1.33846517e-02	1.38923225e-04
6.05000000e-01	1.32749921e-02	1.38223884e-04
6.06000000e-01	1.32748128e-02	1.37832929e-04
6.07000000e-01	1.31563935e-02	1.37276709e-04
6.08000000e-01	1.30905514e-02	1.35734935e-04
6.09000000e-01	1.32298691e-02	1.37114724e-04
6.10000000e-01	1.32436225e-02	1.37524478e-04
6.11000000e-01	1.31609285e-02	1.36640416e-04
6.12000000e-01	1.31334754e-02	1.36132839e-04
6.13000000e-01	1.31971132e-02	1.37626478e-04
6.14000000e-01	1.30729416e-02	1.36391689e-04
6.15000000e-01	1.32004983e-02	1.36996357e-04
6.16000000e-01	1.32388129e-02	1.37407729e-04
6.17000000e-01	1.31012470e-02	1.36374988e-04
6.18000000e-01	1.30998057e-02	1.36489460e-04
6.19000000e-01	1.31622454e-02	1.36526595e-04
6.20000000e-01	1.30959865e-02	1.36039900e-04
6.21000000e-01	1.30514910e-02	1.35172580e-04
6.22000000e-01	1.31889409e-02	1.36546292e-04
6.23000000e-01	1.30662814e-02	1.35090659e-04
6.24000000e-01	1.31482230e-02	1.35742280e-04
6.25000000e-01	1.31238841e-02	1.35572727e-04
6.26000000e-01	1.30250639e-02	1.34357697e-04
6.27000000e-01	1.31516640e-02	1.36020767e-04
6.28000000e-01	1.29746552e-02	1.34297156e-04
6.29000000e-01	1.30639359e-02	1.34813408e-04
6.30000000e-01	1.29763845e-02	1.34007241e-04
6.31000000e-01	1.30180537e-02	1.34873196e-04
6.32000000e-01	1.29061351e-02	1.33359557e-04
6.33000000e-01	1.29554930e-02	1.33538515e-04
6.34000000e-01	1.30929561e-02	1.38593256e-04
6.35000000e-01	1.30048595e-02	1.41610141e-04
6.36000000e-01	1.30859901e-02	1.45101311e-04
6.37000000e-01	1.29080355e-02	1.46139309e-04
6.38000000e-01	1.31177511e-02	1.49678826e-04
6.39000000e-01	1.29681085e-02	1.49875577e-04
6.40000000e-01	1.31316587e-02	1.53742998e-04
6.41000000e-01	1.31967595e-02	1.55862080e-04
6.42000000e-01	1.29638941e-02	1.55246506e-04
6.43000000e-01	1.30351022e-02	1.56297188e-04
6.44000000e-01	1.32429924e-02	1.52191079e-04
6.45000000e-01	1.30390863e-02	1.48602716e-04
6.46000000e-01	1.30483196e-02	1.46929830e-04
6.47000000e-01	1.30276877e-02	1.45236110e-04
6.48000000e-01	1.30859453e-02	1.45087875e-04
6.49000000e-01	1.29392697e-02	1.43788733e-04
6.50000000e-01	1.31018346e-02	1.44027808e-04
6.51000000e-01	1.30744613e-02	1.43419199e-04
6.52000000e-01	1.29613073e-02	1.41595449e-04
6.53000000e-01	1.29929870e-02	1.41550187e-04
6.54000000e-01	1.30072938e-02	1.41016616e-04
6.55000000e-01	1.31074193e-02	1.42042012e-04
6.56000000e-01	1.29386092e-02	1.39757179e-04
6.57000000e-01	1.29929660e-02	1.40109689e-04
6.58000000e-01	1.29090340e-02	1.38746574e-04
6.59000000e-01	1.29369606e-02	1.39129041e-04
6.60000000e-01	1.28425739e-02	1.38491141e-04
6.61000000e-01	1.29074241e-02	1.38802059e-04
6.62000000e-01	1.29019890e-02	1.38620065e-04
6.63000000e-01	1.29288710e-02	1.39244090e-04
6.64000000e-01	1.27765794e-02	1.37034795e-04
6.65000000e-01	1.28027852e-02	1.37396863e-04
6.66000000e-01	1.29280067e-02	1.38891932e-04
6.67000000e-01	1.29376076e-02	1.38794414e-04
6.68000000e-01	1.29078193e-02	1.38419176e-04
6.69000000e-01	1.28756154e-02	1.38132756e-04
6.70000000e-01	1.28507554e-02	1.37755417e-04
6.71000000e-01	1.27785008e-02	1.37383695e-04
6.72000000e-01	1.29822939e-02	1.38792505e-04
6.73000000e-01	1.28342394e-02	1.37318801e-04
6.74000000e-01	1.28233052e-02	1.37350757e-04
6.75000000e-01	1.27336490e-02	1.36690353e-04
6.76000000e-01	1.27423870e-02	1.36363865e-04
6.77000000e-01	1.28236894e-02	1.37246728e-04
6.78000000e-01	1.27518284e-02	1.37236503e-04
6.79000000e-01	1.28244064e-02	1.37240148e-04
6.80000000e-01	1.27655817e-02	1.36003136e-04
6.81000000e-01	1.28572845e-02	1.37168584e-04
6.82000000e-01	1.29551392e-02	1.38385977e-04
6.83000000e-01	1.28137022e-02	1.36684329e-04
6.84000000e-01	1.27326720e-02	1.35852560e-04
6.85000000e-01	1.27950364e-02	1.37178437e-04
6.86000000e-01	1.26792786e-02	1.35353314e-04
6.87000000e-01	1.27108748e-02	1.35955728e-04
6.88000000e-01	1.27604670e-02	1.36450348e-04
6.89000000e-01	1.26775462e-02	1.35893969e-04
6.90000000e-01	1.26710120e-02	1.35170620e-04
6.91000000e-01	1.26180496e-02	1.34633795e-04
6.92000000e-01	1.26886071e-02	1.35261060e-04
6.93000000e-01	1.27222818e-02	1.36038078e-04
6.94000000e-01	1.26496554e-02	1.34455373e-04
6.95000000e-01	1.26874377e-02	1.35260766e-04
6.96000000e-01	1.26271252e-02	1.34844705e-04
6.97000000e-01	1.25648481e-02	1.34253725e-04
6.98000000e-01	1.25154142e-02	1.34479888e-04
6.99000000e-01	1.25810025e-02	1.34420694e-04
7.00000000e-01	1.26209284e-02	1.34867744e-04
7.01000000e-01	1.25874570e-02	1.34078573e-04
7.02000000e-01	1.24611020e-02	1.33092232e-04
7.03000000e-01	1.25342070e-02	1.33531510e-04
7.04000000e-01	1.25280109e-02	1.33520632e-04
7.05000000e-01	1.25949341e-02	1.34403291e-04
7.06000000e-01	1.25801228e-02	1.34567094e-04
7.07000000e-01	1.25851629e-02	1.33993000e-04
7.08000000e-01	1.25365834e-02	1.32927951e-04
7.09000000e-01	1.24758086e-02	1.32726807e-04
7.10000000e-01	1.25424070e-02	1.33393648e-04
7.11000000e-01	1.24913411e-02	1.33343735e-04
7.12000000e-01	1.23935950e-02	1.31909669e-04
7.13000000e-01	1.23761419e-02	1.32147751e-04
7.14000000e-01	1.24375418e-02	1.32774610e-04
7.15000000e-01	1.24504508e-02	1.33165295e-04
7.16000000e-01	1.24525252e-02	1.32561818e-04
7.17000000e-01	1.24294131e-02	1.32186324e-04
7.18000000e-01	1.23377857e-02	1.31502264e-04
7.19000000e-01	1.23444634e-02	1.31853885e-04
7.20000000e-01	1.24365035e-02	1.32335069e-04
7.21000000e-01	1.24560298e-02	1.33145059e-04
7.22000000e-01	1.24892969e-02	1.33019783e-04
7.23000000e-01	1.22436635e-02	1.30904339e-04
7.24000000e-01	1.22780246e-02	1.30868638e-04
7.25000000e-01	1.23268360e-02	1.31493120e-04
7.26000000e-01	1.22540039e-02	1.31410769e-04
7.27000000e-01	1.22574024e-02	1.31008643e-04
7.28000000e-01	1.22546363e-02	1.31058123e-04
7.29000000e-01	1.22692233e-02	1.30700640e-04
7.30000000e-01	1.23144039e-02	1.31502632e-04
7.31000000e-01	1.22582830e-02	1.30950584e-04
7.32000000e-01	1.21168849e-02	1.29830233e-04
7.33000000e-01	1.21688081e-02	1.30368924e-04
7.34000000e-01	1.21311746e-02	1.29283191e-04
7.35000000e-01	1.22770794e-02	1.30425147e-04
7.36000000e-01	1.22814854e-02	1.30491105e-04
7.37000000e-01	1.21942626e-02	1.29530527e-04
7.38000000e-01	1.21640559e-02	1.28902038e-04
7.39000000e-01	1.21248576e-02	1.28268611e-04
7.40000000e-01	1.21862382e-02	1.29370458e-04
7.41000000e-01	1.22421361e-02	1.29706843e-04
7.42000000e-01	1.20802981e-02	1.28035604e-04
7.43000000e-01	1.22010137e-02	1.28874926e-04
7.44000000e-01	1.21419417e-02	1.28347804e-04
7.45000000e-01	1.21087275e-02	1.28370742e-04
7.46000000e-01	1.19798153e-02	1.26888056e-04
7.47000000e-01	1.20553954e-02	1.27460728e-04
7.48000000e-01	1.20066430e-02	1.27209561e-04
7.49000000e-01	1.20812232e-02	1.28086197e-04
7.50000000e-01	1.20043326e-02	1.27120468e-04
7.51000000e-01	1.20310763e-02	1.27513111e-04
7.52000000e-01	1.19854187e-02	1.27156377e-04
7.53000000e-01	1.21350080e-02	1.28210464e-04
7.54000000e-01	1.21352515e-02	1.28179516e-04
7.55000000e-01	1.20619321e-02	1.27911210e-04
7.56000000e-01	1.20156232e-02	1.27520285e-04
7.57000000e-01	1.20215144e-02	1.27055022e-04
7.58000000e-01	1.20349997e-02	1.27769753e-04
7.59000000e-01	1.19975667e-02	1.26963457e-04
7.60000000e-01	1.19061268e-02	1.26403314e-04
7.61000000e-01	1.19130413e-02	1.25429670e-04
7.62000000e-01	1.19111531e-02	1.25711302e-04
7.63000000e-01	1.19595679e-02	1.26011261e-04
7.64000000e-01	1.19405386e-02	1.25627569e-04
7.65000000e-01	1.17841953e-02	1.24160401e-04
7.66000000e-01	1.20676720e-02	1.26395678e-04
7.67000000e-01	1.19118682e-02	1.25151053e-04
7.68000000e-01	1.18619942e-02	1.24600002e-04
7.69000000e-01	1.17296421e-02	1.23299133e-04
7.70000000e-01	1.18763446e-02	1.24874750e-04
7.71000000e-01	1.19487561e-02	1.25430160e-04
7.72000000e-01	1.18972538e-02	1.28525564e-04
7.73000000e-01	1.17316030e-02	1.31110183e-04
7.74000000e-01	1.18776174e-02	1.35375277e-04
7.75000000e-01	1.19404870e-02	1.38565282e-04
7.76000000e-01	1.16793988e-02	1.37532584e-04
7.77000000e-01	1.18243107e-02	1.41221229e-04
7.78000000e-01	1.18735815e-02	1.43929635e-04
7.79000000e-01	1.17902908e-02	1.45393583e-04
7.80000000e-01	1.16674070e-02	1.45036800e-04
7.81000000e-01	1.18120745e-02	1.47738917e-04
7.82000000e-01	1.17997068e-02	1.49768481e-04
7.83000000e-01	1.17090875e-02	1.50629747e-04
7.84000000e-01	1.16431069e-02	1.50957718e-04
7.85000000e-01	1.15505191e-02	1.51325425e-04
7.86000000e-01	1.16830963e-02	1.55006537e-04
7.87000000e-01	1.17337334e-02	1.56242899e-04
7.88000000e-01	1.16760413e-02	1.57945337e-04
7.89000000e-01	1.15270236e-02	1.57854037e-04
7.90000000e-01	1.15087411e-02	1.58743575e-04
7.91000000e-01	1.15397311e-02	1.61273387e-04
7.92000000e-01	1.15460812e-02	1.62675562e-04
7.93000000e-01	1.16247377e-02	1.64521885e-04
7.94000000e-01	1.15846745e-02	1.66314972e-04
7.95000000e-01	1.15206822e-02	1.66474798e-04
7.96000000e-01	1.15674045e-02	1.69572953e-04
7.97000000e-01	1.15359492e-02	1.71136219e-04
7.98000000e-01	1.14950011e-02	1.72311183e-04
7.99000000e-01	1.15282723e-02	1.74894536e-04
8.00000000e-01	1.13341629e-02	1.73495566e-04
8.01000000e-01	1.15051869e-02	1.77628649e-04
8.02000000e-01	1.15232372e-02	1.79225484e-04
8.03000000e-01	1.14690208e-02	1.79846609e-04
8.04000000e-01	1.12454940e-02	1.80321367e-04
8.05000000e-01	1.11679990e-02	1.80391232e-04
8.06000000e-01	1.15785336e-02	1.88608949e-04
8.07000000e-01	1.16210169e-02	1.91543272e-04
8.08000000e-01	1.13755136e-02	1.88778259e-04
8.09000000e-01	1.13536106e-02	1.90058671e-04
8.10000000e-01	1.13215686e-02	1.92858501e-04
8.11000000e-01	1.11187977e-02	1.91531170e-04
8.12000000e-01	1.13134068e-02	1.96684451e-04
8.13000000e-01	1.14756686e-02	2.01336083e-04
8.14000000e-01	1.11791028e-02	1.99002229e-04
8.15000000e-01	1.14359198e-02	2.05928783e-04
8.16000000e-01	1.12136188e-02	2.04114505e-04
8.17000000e-01	1.12874776e-02	2.09058315e-04
8.18000000e-01	1.14054072e-02	2.12764003e-04
8.19000000e-01	1.12212316e-02	2.12652028e-04
8.20000000e-01	1.12994870e-02	2.14895220e-04
8.21000000e-01	1.10620214e-02	2.16970084e-04
8.22000000e-01	1.11705096e-02	2.20455158e-04
8.23000000e-01	1.12154759e-02	2.23721669e-04
8.24000000e-01	1.12361549e-02	2.27003711e-04
8.25000000e-01	1.09996423e-02	2.27092540e-04
8.26000000e-01	1.11727282e-02	2.32532934e-04
8.27000000e-01	1.11131723e-02	2.35646933e-04
8.28000000e-01	1.11343712e-02	2.37312728e-04
8.29000000e-01	1.12540973e-02	2.46119422e-04
8.30000000e-01	1.08752189e-02	2.42219633e-04
8.31000000e-01	1.12249116e-02	2.52603269e-04
8.32000000e-01	1.08314364e-02	2.47306747e-04
8.33000000e-01	1.11200310e-02	2.58600303e-04
8.34000000e-01	1.12335882e-02	2.64856381e-04
8.35000000e-01	1.11492362e-02	2.70758547e-04
8.36000000e-01	1.10267091e-02	2.72193067e-04
8.37000000e-01	1.10825918e-02	2.78185103e-04
8.38000000e-01	1.07698478e-02	2.73965446e-04
8.39000000e-01	1.09969366e-02	2.85404704e-04
8.40000000e-01	1.08642579e-02	2.86523278e-04
8.41000000e-01	1.09136373e-02	2.96334643e-04
8.42000000e-01	1.08560859e-02	3.03071299e-04
8.43000000e-01	1.06692289e-02	3.05366701e-04
8.44000000e-01	1.07647636e-02	3.09835653e-04
8.45000000e-01	1.12978118e-02	3.36209148e-04
8.46000000e-01	1.08413403e-02	3.32220602e-04
8.47000000e-01	1.06857814e-02	3.41359410e-04
8.48000000e-01	1.06415755e-02	3.48264626e-04
8.49000000e-01	1.06819086e-02	3.59723812e-04
8.50000000e-01	1.08575696e-02	3.76755692e-04
8.51000000e-01	1.08491438e-02	3.92899881e-04
8.52000000e-01	1.13471822e-02	4.25969010e-04
8.53000000e-01	1.04697551e-02	4.12637141e-04
8.54000000e-01	1.08986876e-02	4.49168038e-04
8.55000000e-01	1.05962048e-02	4.48662239e-04
8.56000000e-01	1.11304213e-02	4.85030872e-04
8.57000000e-01	1.08386126e-02	4.80659155e-04
8.58000000e-01	1.05336542e-02	4.89262655e-04
8.59000000e-01	1.02449669e-02	4.92327003e-04
8.60000000e-01	1.01463469e-02	5.07314695e-04
8.61000000e-01	1.09046373e-02	5.48759789e-04
8.62000000e-01	1.04518283e-02	5.46079810e-04
8.63000000e-01	1.03241758e-02	5.70917506e-04
8.64000000e-01	1.05550102e-02	6.10099181e-04
8.65000000e-01	9.95688591e-03	6.04665445e-04
8.66000000e-01	1.02104918e-02	6.53804547e-04
8.67000000e-01	1.04316962e-02	6.91911296e-04
8.68000000e-01	1.17149044e-02	8.30273464e-04
8.69000000e-01	1.00088264e-02	7.75505840e-04
8.70000000e-01	1.05839211e-02	8.73788349e-04
8.71000000e-01	1.07348396e-02	9.79285919e-04
8.72000000e-01	9.95139450e-03	1.06315176e-03
8.73000000e-01	1.06128456e-02	1.29595212e-03
8.74000000e-01	9.76681607e-03	1.62498634e-03
8.75000000e-01	1.03417726e-02	3.33779445e-03
