% Filename : SDL7c_00026_00048.h5
% Date & Time : 30-Oct-2025 17:03:45
% X-ray Energy (keV) : 13.30001
% Exposure Time (s) : 0.500
% Beam Center : 1461.24000, 208.98300
% Sample to Detector Distance (SDD) (mm) : 1990.750
% Detector Pixel Size (mm) : 0.075
% Photodiode Value : 140790.000
% I0 of Sample : 0
% I0 of Standard : 1
% 
% q(A^-1)   I(q)    I(q)_SE
0.00000000e+00	1.02659134e-02	5.44432497e-03
2.50000000e-04	0.00000000e+00	0.00000000e+00
5.00000000e-04	0.00000000e+00	0.00000000e+00
7.50000000e-04	0.00000000e+00	0.00000000e+00
1.00000000e-03	0.00000000e+00	0.00000000e+00
1.25000000e-03	0.00000000e+00	0.00000000e+00
1.50000000e-03	0.00000000e+00	0.00000000e+00
1.75000000e-03	0.00000000e+00	0.00000000e+00
2.00000000e-03	0.00000000e+00	0.00000000e+00
2.25000000e-03	0.00000000e+00	0.00000000e+00
2.50000000e-03	0.00000000e+00	0.00000000e+00
2.75000000e-03	0.00000000e+00	0.00000000e+00
3.00000000e-03	0.00000000e+00	0.00000000e+00
3.25000000e-03	5.17189568e+01	3.80077329e+01
3.50000000e-03	1.04024782e+01	6.64699331e+00
3.75000000e-03	4.92474169e+00	3.06135852e+00
4.00000000e-03	4.64038912e+00	2.35228449e+00
4.25000000e-03	1.78909671e+00	7.02143537e-01
4.50000000e-03	2.54595974e+00	9.59723233e-01
4.75000000e-03	2.97382858e+00	9.42628568e-01
5.00000000e-03	2.26801954e+00	6.85117869e-01
5.25000000e-03	1.90554914e+00	5.64561372e-01
5.50000000e-03	1.62300542e+00	4.85768260e-01
5.75000000e-03	1.37120671e+00	3.97656276e-01
6.00000000e-03	1.15826148e+00	3.32150312e-01
6.25000000e-03	1.00287533e+00	2.83443927e-01
6.50000000e-03	8.59297638e-01	2.38136087e-01
6.75000000e-03	7.47268611e-01	2.01907477e-01
7.00000000e-03	6.54160690e-01	1.72245794e-01
7.25000000e-03	5.71597698e-01	1.45188955e-01
7.50000000e-03	5.05399432e-01	1.28510213e-01
7.75000000e-03	4.33840013e-01	1.04377905e-01
8.00000000e-03	3.89814745e-01	9.19983425e-02
8.25000000e-03	3.39834922e-01	7.58777201e-02
8.50000000e-03	3.01396665e-01	6.50995302e-02
8.75000000e-03	2.70589536e-01	5.82063932e-02
9.00000000e-03	2.43307351e-01	5.13637136e-02
9.25000000e-03	2.16708526e-01	4.44105803e-02
9.50000000e-03	1.93123359e-01	3.86172104e-02
9.75000000e-03	1.77105561e-01	3.33200887e-02
1.00000000e-02	1.52266424e-01	2.97527274e-02
1.02500000e-02	1.52218734e-01	3.03397939e-02
1.05000000e-02	1.32664628e-01	2.40679330e-02
1.07500000e-02	1.20307584e-01	2.22098071e-02
1.10000000e-02	1.11114449e-01	1.93188154e-02
1.12500000e-02	1.00922895e-01	1.76505917e-02
1.15000000e-02	9.86695259e-02	1.70480966e-02
1.17500000e-02	8.33553257e-02	1.16079061e-02
1.20000000e-02	8.52942671e-02	1.33771695e-02
1.22500000e-02	7.95892836e-02	1.30348964e-02
1.25000000e-02	7.83116122e-02	1.15346399e-02
1.27500000e-02	6.86276347e-02	9.43515957e-03
1.30000000e-02	6.65046798e-02	9.51273503e-03
1.32500000e-02	6.16443658e-02	7.90798559e-03
1.35000000e-02	5.92442346e-02	7.51653479e-03
1.37500000e-02	5.62861103e-02	7.14104254e-03
1.40000000e-02	5.11375238e-02	6.04394800e-03
1.42500000e-02	5.02998661e-02	5.53531799e-03
1.45000000e-02	4.96533054e-02	5.01562249e-03
1.47500000e-02	4.63898916e-02	4.64550236e-03
1.50000000e-02	4.40874890e-02	4.33690287e-03
1.52500000e-02	4.24792711e-02	3.85724696e-03
1.55000000e-02	4.13827067e-02	3.67599515e-03
1.57500000e-02	3.99513944e-02	3.64178107e-03
1.60000000e-02	3.83128722e-02	3.28338618e-03
1.62500000e-02	3.78740358e-02	3.14459721e-03
1.65000000e-02	3.59708297e-02	2.85130385e-03
1.67500000e-02	3.44698064e-02	2.54903926e-03
1.70000000e-02	3.46120132e-02	2.52633654e-03
1.72500000e-02	3.30860772e-02	2.25806690e-03
1.75000000e-02	3.21473363e-02	2.16914647e-03
1.77500000e-02	3.25998043e-02	2.11512050e-03
1.80000000e-02	3.01104433e-02	2.05473009e-03
1.82500000e-02	2.93532780e-02	1.97839987e-03
1.85000000e-02	2.90755103e-02	1.90869018e-03
1.87500000e-02	2.88666016e-02	1.80661038e-03
1.90000000e-02	2.95026880e-02	1.90048689e-03
1.92500000e-02	2.77551963e-02	1.76934320e-03
1.95000000e-02	2.91080633e-02	1.70045898e-03
1.97500000e-02	2.77612487e-02	1.65414662e-03
2.00000000e-02	2.79165580e-02	1.65055130e-03
2.02500000e-02	2.78385255e-02	1.57236029e-03
2.05000000e-02	2.69557890e-02	1.57527167e-03
2.07500000e-02	2.73651497e-02	1.54275841e-03
2.10000000e-02	2.75756951e-02	1.62271536e-03
2.12500000e-02	2.67350106e-02	1.52421735e-03
2.15000000e-02	2.62239101e-02	1.47192027e-03
2.17500000e-02	2.57738640e-02	1.44246739e-03
2.20000000e-02	2.62885758e-02	1.51494158e-03
2.22500000e-02	2.64708370e-02	1.50516837e-03
2.25000000e-02	2.64029137e-02	1.50405419e-03
2.27500000e-02	2.57733645e-02	1.46286121e-03
2.30000000e-02	2.55495776e-02	1.44010735e-03
2.32500000e-02	2.56730947e-02	1.44572600e-03
2.35000000e-02	2.52443638e-02	1.42810317e-03
2.37500000e-02	2.58557801e-02	1.44620903e-03
2.40000000e-02	2.47904392e-02	1.38576737e-03
2.42500000e-02	2.52186009e-02	1.37976069e-03
2.45000000e-02	2.51155840e-02	1.40785966e-03
2.47500000e-02	2.54396414e-02	1.41395845e-03
2.50000000e-02	2.45714834e-02	1.36785709e-03
2.52500000e-02	2.43039026e-02	1.33699358e-03
2.55000000e-02	2.45243426e-02	1.30688669e-03
2.57500000e-02	2.45284168e-02	1.37825849e-03
2.60000000e-02	2.48033710e-02	1.37146490e-03
2.62500000e-02	2.56346055e-02	1.41559560e-03
2.65000000e-02	2.36714520e-02	1.26978632e-03
2.67500000e-02	2.28140377e-02	1.22010720e-03
2.70000000e-02	2.37284827e-02	1.27933325e-03
2.72500000e-02	2.38796728e-02	1.28527985e-03
2.75000000e-02	2.35647841e-02	1.28213715e-03
2.77500000e-02	2.38532054e-02	1.25811046e-03
2.80000000e-02	2.42798095e-02	1.27757542e-03
2.82500000e-02	2.43927933e-02	1.29899922e-03
2.85000000e-02	2.44850587e-02	1.27560423e-03
2.87500000e-02	2.43637220e-02	1.27341897e-03
2.90000000e-02	2.46444439e-02	1.32629163e-03
2.92500000e-02	2.51313489e-02	1.26231971e-03
2.95000000e-02	2.51363618e-02	1.27620919e-03
2.97500000e-02	2.44162413e-02	1.26081254e-03
3.00000000e-02	2.38983708e-02	1.22170640e-03
3.02500000e-02	2.36956578e-02	1.25906748e-03
3.05000000e-02	2.35395713e-02	1.18139398e-03
3.07500000e-02	2.45796595e-02	1.23830475e-03
3.10000000e-02	2.47741259e-02	1.24319035e-03
3.12500000e-02	2.41427835e-02	1.23249938e-03
3.15000000e-02	2.35453636e-02	1.17921733e-03
3.17500000e-02	2.37819789e-02	1.14505449e-03
3.20000000e-02	2.34203263e-02	1.13506476e-03
3.22500000e-02	2.33359410e-02	1.14063890e-03
3.25000000e-02	2.39090292e-02	1.15834812e-03
3.27500000e-02	2.36074633e-02	1.12098563e-03
3.30000000e-02	2.31007343e-02	1.09701439e-03
3.32500000e-02	2.34148434e-02	1.13137611e-03
3.35000000e-02	2.30864214e-02	1.10966949e-03
3.37500000e-02	2.30760269e-02	1.10104670e-03
3.40000000e-02	2.31509856e-02	1.11355634e-03
3.42500000e-02	2.16859293e-02	1.03561300e-03
3.45000000e-02	2.27970790e-02	1.08179186e-03
3.47500000e-02	2.21821216e-02	1.05714438e-03
3.50000000e-02	2.26902616e-02	1.06042798e-03
3.52500000e-02	2.17856126e-02	1.01065022e-03
3.55000000e-02	2.30238176e-02	1.07831777e-03
3.57500000e-02	2.30154471e-02	1.06269893e-03
3.60000000e-02	2.21086538e-02	1.02340555e-03
3.62500000e-02	2.22673573e-02	1.01838381e-03
3.65000000e-02	2.22956683e-02	1.03890163e-03
3.67500000e-02	2.15792280e-02	9.92587555e-04
3.70000000e-02	2.19181371e-02	9.96635608e-04
3.72500000e-02	2.25690665e-02	1.01516945e-03
3.75000000e-02	2.15192797e-02	9.75801804e-04
3.77500000e-02	2.17561775e-02	9.81528477e-04
3.80000000e-02	2.23394646e-02	1.00616545e-03
3.82500000e-02	2.18679744e-02	9.72083453e-04
3.85000000e-02	2.18664200e-02	9.95056206e-04
3.87500000e-02	2.21110746e-02	9.76924960e-04
3.90000000e-02	2.12110842e-02	9.45426727e-04
3.92500000e-02	2.16861922e-02	9.53022020e-04
3.95000000e-02	2.20810239e-02	9.74716953e-04
3.97500000e-02	2.10753409e-02	9.33692317e-04
4.00000000e-02	2.16577411e-02	9.56652393e-04
4.02500000e-02	2.15233111e-02	9.44745045e-04
4.05000000e-02	2.20015889e-02	9.62384152e-04
4.07500000e-02	2.18900824e-02	9.65416025e-04
4.10000000e-02	2.16401680e-02	9.49734429e-04
4.12500000e-02	2.20792672e-02	9.60154029e-04
4.15000000e-02	2.23520974e-02	9.63520329e-04
4.17500000e-02	2.08747902e-02	8.98645214e-04
4.20000000e-02	2.14025641e-02	9.12694062e-04
4.22500000e-02	2.11344135e-02	9.06657527e-04
4.25000000e-02	2.13770013e-02	9.17989768e-04
4.27500000e-02	2.11923020e-02	9.07726560e-04
4.30000000e-02	2.19526390e-02	9.35833384e-04
4.32500000e-02	2.16743228e-02	9.21235681e-04
4.35000000e-02	2.09556890e-02	8.98679026e-04
4.37500000e-02	2.10034777e-02	8.82606362e-04
4.40000000e-02	2.10714967e-02	8.92586905e-04
4.42500000e-02	2.09832101e-02	8.86433216e-04
4.45000000e-02	2.14147758e-02	8.86419956e-04
4.47500000e-02	2.12358510e-02	8.93309124e-04
4.50000000e-02	2.14940548e-02	9.11430370e-04
4.52500000e-02	2.14311710e-02	8.91343300e-04
4.55000000e-02	2.13254393e-02	8.84433143e-04
4.57500000e-02	2.09541513e-02	8.58032679e-04
4.60000000e-02	2.16424595e-02	8.88173687e-04
4.62500000e-02	2.11529819e-02	8.77658985e-04
4.65000000e-02	2.10756494e-02	8.68799619e-04
4.67500000e-02	2.13611508e-02	8.77650284e-04
4.70000000e-02	2.15734957e-02	8.79077892e-04
4.72500000e-02	2.12116809e-02	8.73884837e-04
4.75000000e-02	2.13246484e-02	8.74006184e-04
4.77500000e-02	2.09393640e-02	8.53288682e-04
4.80000000e-02	2.15152408e-02	8.65847790e-04
4.82500000e-02	2.10447946e-02	8.63594049e-04
4.85000000e-02	2.11133254e-02	8.64482140e-04
4.87500000e-02	2.06583177e-02	8.43091415e-04
4.90000000e-02	2.10326060e-02	8.53050792e-04
4.92500000e-02	2.04307562e-02	8.31867259e-04
4.95000000e-02	2.11322266e-02	8.54947049e-04
4.97500000e-02	2.12879873e-02	8.65230977e-04
5.00000000e-02	2.11032195e-02	8.50360144e-04
5.02500000e-02	2.10682469e-02	8.35024807e-04
5.05000000e-02	2.13725193e-02	8.52636927e-04
5.07500000e-02	2.08904903e-02	8.42791068e-04
5.10000000e-02	2.04742791e-02	8.20704359e-04
5.12500000e-02	2.08303121e-02	8.37582444e-04
5.15000000e-02	2.12667951e-02	8.37033405e-04
5.17500000e-02	2.05351836e-02	8.26863403e-04
5.20000000e-02	2.01694987e-02	8.16517856e-04
5.22500000e-02	2.06038578e-02	8.26893648e-04
5.25000000e-02	2.14300922e-02	8.41781794e-04
5.27500000e-02	2.05811023e-02	8.10629278e-04
5.30000000e-02	2.07589076e-02	8.19970729e-04
5.32500000e-02	2.05014110e-02	8.06785102e-04
5.35000000e-02	2.08117247e-02	8.13699459e-04
5.37500000e-02	2.12273736e-02	8.29244370e-04
5.40000000e-02	2.03000286e-02	7.94731052e-04
5.42500000e-02	2.12837512e-02	8.24384260e-04
5.45000000e-02	2.04446453e-02	7.95531966e-04
5.47500000e-02	2.09633919e-02	8.14248674e-04
5.50000000e-02	2.03272684e-02	7.85281759e-04
5.52500000e-02	1.99054145e-02	7.67019444e-04
5.55000000e-02	2.09748735e-02	8.00858168e-04
5.57500000e-02	2.07769927e-02	8.02772177e-04
5.60000000e-02	2.00485874e-02	7.69484573e-04
5.62500000e-02	2.00190966e-02	7.70730827e-04
5.65000000e-02	2.01305932e-02	7.67132543e-04
5.67500000e-02	2.04273255e-02	7.85067390e-04
5.70000000e-02	2.10608469e-02	7.99903711e-04
5.72500000e-02	2.06148412e-02	7.79839655e-04
5.75000000e-02	2.09089322e-02	7.95912577e-04
5.77500000e-02	2.08856445e-02	7.84356679e-04
5.80000000e-02	2.03088588e-02	7.76078823e-04
5.82500000e-02	1.99734375e-02	7.60977281e-04
5.85000000e-02	1.97664408e-02	7.50999059e-04
5.87500000e-02	2.03710996e-02	7.67199167e-04
5.90000000e-02	2.08107404e-02	7.81749018e-04
5.92500000e-02	2.03578712e-02	7.61162990e-04
5.95000000e-02	2.04396846e-02	7.64580625e-04
5.97500000e-02	2.05192811e-02	7.71385204e-04
6.00000000e-02	2.09105052e-02	7.81405094e-04
6.02500000e-02	2.00082453e-02	7.47867074e-04
6.05000000e-02	2.09081892e-02	7.77470688e-04
6.07500000e-02	2.09278996e-02	7.81004032e-04
6.10000000e-02	2.01300694e-02	7.52275118e-04
6.12500000e-02	1.97059931e-02	7.34287765e-04
6.15000000e-02	2.14392894e-02	7.84394475e-04
6.17500000e-02	2.01013940e-02	7.45296267e-04
6.20000000e-02	2.02051144e-02	7.41028121e-04
6.22500000e-02	2.04819750e-02	7.52131893e-04
6.25000000e-02	2.01281534e-02	7.38049827e-04
6.27500000e-02	2.01639802e-02	7.35321018e-04
6.30000000e-02	2.02771161e-02	7.44461991e-04
6.32500000e-02	2.05399889e-02	7.43592554e-04
6.35000000e-02	1.98216152e-02	7.24733622e-04
6.37500000e-02	1.99982343e-02	7.32894355e-04
6.40000000e-02	2.04137176e-02	7.40837012e-04
6.42500000e-02	2.09506409e-02	7.59026236e-04
6.45000000e-02	2.05286432e-02	7.35469768e-04
6.47500000e-02	2.01200869e-02	7.29542733e-04
6.50000000e-02	1.98673365e-02	7.19290092e-04
6.52500000e-02	2.01913290e-02	7.25887173e-04
6.55000000e-02	2.02017454e-02	7.29451531e-04
6.57500000e-02	1.99783709e-02	7.23027623e-04
6.60000000e-02	2.07267726e-02	7.41409815e-04
6.62500000e-02	2.03262279e-02	7.33747572e-04
6.65000000e-02	2.03413493e-02	7.26750342e-04
6.67500000e-02	1.96533595e-02	7.07083292e-04
6.70000000e-02	2.01279943e-02	7.19573186e-04
6.72500000e-02	2.11498262e-02	7.49008475e-04
6.75000000e-02	2.02667428e-02	7.21829374e-04
6.77500000e-02	2.02308827e-02	7.17150009e-04
6.80000000e-02	2.06691420e-02	7.41848897e-04
6.82500000e-02	2.05029811e-02	7.28941178e-04
6.85000000e-02	1.95079412e-02	7.02083846e-04
6.87500000e-02	2.00251145e-02	7.05051335e-04
6.90000000e-02	1.99854639e-02	7.01143965e-04
6.92500000e-02	1.98617565e-02	6.97382972e-04
6.95000000e-02	1.97954205e-02	7.01641403e-04
6.97500000e-02	2.05212225e-02	7.21104630e-04
7.00000000e-02	2.00398525e-02	7.03859268e-04
7.02500000e-02	1.96300087e-02	6.92743399e-04
7.05000000e-02	1.95154142e-02	6.84134265e-04
7.07500000e-02	1.97244473e-02	6.91798262e-04
7.10000000e-02	1.98073553e-02	6.92006329e-04
7.12500000e-02	1.99331473e-02	6.97102693e-04
7.15000000e-02	1.98860195e-02	6.89886007e-04
7.17500000e-02	1.95820406e-02	6.85520797e-04
7.20000000e-02	1.99817450e-02	6.93030219e-04
7.22500000e-02	2.02361937e-02	7.02194615e-04
7.25000000e-02	2.04208894e-02	7.03935896e-04
7.27500000e-02	1.97097746e-02	6.82466067e-04
7.30000000e-02	2.04253196e-02	7.06019638e-04
7.32500000e-02	1.98656085e-02	6.77142500e-04
7.35000000e-02	1.98641654e-02	6.82930948e-04
7.37500000e-02	1.99785013e-02	6.82769493e-04
7.40000000e-02	2.02178262e-02	6.91592489e-04
7.42500000e-02	1.98608602e-02	6.86539879e-04
7.45000000e-02	2.02632357e-02	6.92570803e-04
7.47500000e-02	2.00067954e-02	6.77592925e-04
7.50000000e-02	2.00531345e-02	6.80220929e-04
7.52500000e-02	1.98262822e-02	6.75493613e-04
7.55000000e-02	1.95711774e-02	6.64062328e-04
7.57500000e-02	2.02140138e-02	6.82499795e-04
7.60000000e-02	1.99748620e-02	6.75180342e-04
7.62500000e-02	2.00897274e-02	6.77820397e-04
7.65000000e-02	1.95542079e-02	6.67219967e-04
7.67500000e-02	1.97433365e-02	6.62379102e-04
7.70000000e-02	1.92182836e-02	6.51016029e-04
7.72500000e-02	2.01993729e-02	6.93577271e-04
7.75000000e-02	2.04751282e-02	7.08700533e-04
7.77500000e-02	1.94358461e-02	6.75257379e-04
7.80000000e-02	2.01231749e-02	6.97787380e-04
7.82500000e-02	1.95767985e-02	6.87916831e-04
7.85000000e-02	2.01212842e-02	7.09374960e-04
7.87500000e-02	1.98127580e-02	7.02555580e-04
7.90000000e-02	1.97388589e-02	7.06327099e-04
7.92500000e-02	1.98644255e-02	7.08161659e-04
7.95000000e-02	1.97770224e-02	7.05565253e-04
7.97500000e-02	2.00366577e-02	7.23040190e-04
8.00000000e-02	1.98116163e-02	7.13231931e-04
8.02500000e-02	2.03669905e-02	7.25304272e-04
8.05000000e-02	2.02882396e-02	7.26952906e-04
8.07500000e-02	1.96694194e-02	7.12963064e-04
8.10000000e-02	2.00788150e-02	7.25755085e-04
8.12500000e-02	1.96436076e-02	7.09836650e-04
8.15000000e-02	2.00422301e-02	7.25307690e-04
8.17500000e-02	2.01009573e-02	7.34725108e-04
8.20000000e-02	2.05611404e-02	7.46848768e-04
8.22500000e-02	2.00267906e-02	7.33405399e-04
8.25000000e-02	1.97816302e-02	7.20648649e-04
8.27500000e-02	2.03128506e-02	7.33378020e-04
8.30000000e-02	2.02524947e-02	7.47824523e-04
8.32500000e-02	1.92888269e-02	7.12227852e-04
8.35000000e-02	2.01419628e-02	7.45981023e-04
8.37500000e-02	1.97721673e-02	7.19165506e-04
8.40000000e-02	1.96822284e-02	7.19792322e-04
8.42500000e-02	2.05331215e-02	7.54314351e-04
8.45000000e-02	1.99288298e-02	7.32215197e-04
8.47500000e-02	2.00107885e-02	7.36971025e-04
8.50000000e-02	1.96375796e-02	7.24406126e-04
8.52500000e-02	2.03087814e-02	7.53174909e-04
8.55000000e-02	1.93791344e-02	7.24423199e-04
8.57500000e-02	1.94209896e-02	7.19709469e-04
8.60000000e-02	2.04528293e-02	7.59012554e-04
8.62500000e-02	2.10624495e-02	7.78928412e-04
8.65000000e-02	1.99506794e-02	7.33646835e-04
8.67500000e-02	1.98809803e-02	7.32054398e-04
8.70000000e-02	1.93691172e-02	7.12170992e-04
8.72500000e-02	2.03700684e-02	7.29146234e-04
8.75000000e-02	1.97712889e-02	7.00598591e-04
8.77500000e-02	2.00963615e-02	7.06511548e-04
8.80000000e-02	2.00121927e-02	7.04584502e-04
8.82500000e-02	1.98015372e-02	6.93312764e-04
8.85000000e-02	2.02427992e-02	7.08301429e-04
8.87500000e-02	1.96774899e-02	6.74583598e-04
8.90000000e-02	1.91903857e-02	6.63160505e-04
8.92500000e-02	2.04500970e-02	6.98831455e-04
8.95000000e-02	2.04398270e-02	7.03389053e-04
8.97500000e-02	1.97659916e-02	6.80668384e-04
9.00000000e-02	2.00960391e-02	6.81160390e-04
9.02500000e-02	1.99715010e-02	6.79774764e-04
9.05000000e-02	1.98190524e-02	6.72938778e-04
9.07500000e-02	1.95282939e-02	6.63749246e-04
9.10000000e-02	1.99727397e-02	6.68536905e-04
9.12500000e-02	1.95273486e-02	6.59030249e-04
9.15000000e-02	1.94868649e-02	6.52464786e-04
9.17500000e-02	1.96924780e-02	6.65935205e-04
9.20000000e-02	1.94872366e-02	6.49277876e-04
9.22500000e-02	1.91676822e-02	6.37011789e-04
9.25000000e-02	1.98467154e-02	6.58535563e-04
9.27500000e-02	1.96569605e-02	6.53975998e-04
9.30000000e-02	1.96410451e-02	6.52115464e-04
9.32500000e-02	1.97101730e-02	6.54825154e-04
9.35000000e-02	1.96503880e-02	6.44194432e-04
9.37500000e-02	1.93464851e-02	6.39811331e-04
9.40000000e-02	1.95626509e-02	6.45960124e-04
9.42500000e-02	1.93982321e-02	6.34559327e-04
9.45000000e-02	1.95620234e-02	6.37838528e-04
9.47500000e-02	1.98134771e-02	6.51910243e-04
9.50000000e-02	1.93066543e-02	6.29808237e-04
9.52500000e-02	1.96633335e-02	6.37707791e-04
9.55000000e-02	1.96573746e-02	6.36763081e-04
9.57500000e-02	1.97742537e-02	6.41909073e-04
9.60000000e-02	1.96592697e-02	6.38467733e-04
9.62500000e-02	1.96184955e-02	6.35011882e-04
9.65000000e-02	1.98360679e-02	6.37502246e-04
9.67500000e-02	1.96556061e-02	6.35097489e-04
9.70000000e-02	1.93453129e-02	6.25693155e-04
9.72500000e-02	1.96941985e-02	6.31513132e-04
9.75000000e-02	1.96233189e-02	6.30100026e-04
9.77500000e-02	1.92388869e-02	6.13570905e-04
9.80000000e-02	2.02314216e-02	6.46673896e-04
9.82500000e-02	1.98437321e-02	6.29958668e-04
9.85000000e-02	2.00719419e-02	6.40815278e-04
9.87500000e-02	1.93336839e-02	6.11173831e-04
9.90000000e-02	1.97257078e-02	6.26092840e-04
9.92500000e-02	1.94417203e-02	6.21201946e-04
9.95000000e-02	1.93953138e-02	6.18061530e-04
9.97500000e-02	2.05185839e-02	6.45214471e-04
1.00000000e-01	1.94286278e-02	5.00091018e-04
1.00500000e-01	1.97126811e-02	4.41301371e-04
1.01000000e-01	1.97278991e-02	4.37216042e-04
1.01500000e-01	1.94431881e-02	4.33717875e-04
1.02000000e-01	1.96088196e-02	4.31617830e-04
1.02500000e-01	1.96165541e-02	4.29650128e-04
1.03000000e-01	1.93826180e-02	4.26449076e-04
1.03500000e-01	1.95043780e-02	4.28089576e-04
1.04000000e-01	1.96821871e-02	4.28451610e-04
1.04500000e-01	1.97365421e-02	4.28734056e-04
1.05000000e-01	1.92089605e-02	4.16828236e-04
1.05500000e-01	1.97777030e-02	4.28982493e-04
1.06000000e-01	1.97160797e-02	4.24653292e-04
1.06500000e-01	1.99709327e-02	4.29169457e-04
1.07000000e-01	2.00036521e-02	4.36179125e-04
1.07500000e-01	1.98067300e-02	4.37370937e-04
1.08000000e-01	1.98946080e-02	4.44086848e-04
1.08500000e-01	1.98706267e-02	4.49079119e-04
1.09000000e-01	1.97479905e-02	4.48112932e-04
1.09500000e-01	1.95707631e-02	4.48010357e-04
1.10000000e-01	1.97537408e-02	4.43451180e-04
1.10500000e-01	1.96281563e-02	4.34783055e-04
1.11000000e-01	1.97144938e-02	4.28780137e-04
1.11500000e-01	1.98243021e-02	4.29584648e-04
1.12000000e-01	1.98192093e-02	4.23973136e-04
1.12500000e-01	1.96601958e-02	4.17488597e-04
1.13000000e-01	1.98226084e-02	4.20265216e-04
1.13500000e-01	1.97333346e-02	4.18421423e-04
1.14000000e-01	1.97610814e-02	4.15281120e-04
1.14500000e-01	1.93695260e-02	4.07775248e-04
1.15000000e-01	1.97113263e-02	4.11137378e-04
1.15500000e-01	1.98066405e-02	4.13452316e-04
1.16000000e-01	1.95803444e-02	4.06567637e-04
1.16500000e-01	1.94670257e-02	4.03850832e-04
1.17000000e-01	1.98358699e-02	4.10809091e-04
1.17500000e-01	1.95008296e-02	4.02931371e-04
1.18000000e-01	1.95820538e-02	4.03982316e-04
1.18500000e-01	1.99625537e-02	4.07911720e-04
1.19000000e-01	1.95985253e-02	4.02909074e-04
1.19500000e-01	1.96450386e-02	4.03655462e-04
1.20000000e-01	1.97898487e-02	4.02519203e-04
1.20500000e-01	1.95016749e-02	3.98724615e-04
1.21000000e-01	1.98080033e-02	4.02654388e-04
1.21500000e-01	1.95196967e-02	3.96276906e-04
1.22000000e-01	1.93940941e-02	3.91594790e-04
1.22500000e-01	1.95617495e-02	3.94726874e-04
1.23000000e-01	1.95581812e-02	3.94163323e-04
1.23500000e-01	1.93946213e-02	3.89556648e-04
1.24000000e-01	1.95173246e-02	3.93421555e-04
1.24500000e-01	1.95426210e-02	3.92190011e-04
1.25000000e-01	1.98651586e-02	3.96844724e-04
1.25500000e-01	1.98060866e-02	3.95590373e-04
1.26000000e-01	1.95135721e-02	3.86464025e-04
1.26500000e-01	1.96639038e-02	3.91515914e-04
1.27000000e-01	1.95129396e-02	3.86669990e-04
1.27500000e-01	1.92969272e-02	3.81574667e-04
1.28000000e-01	1.97190728e-02	3.86350484e-04
1.28500000e-01	1.96856965e-02	3.88344141e-04
1.29000000e-01	1.94301798e-02	3.83035396e-04
1.29500000e-01	1.93501860e-02	3.80303646e-04
1.30000000e-01	1.95004798e-02	3.81121027e-04
1.30500000e-01	1.97902666e-02	3.87116654e-04
1.31000000e-01	1.97311545e-02	3.85423407e-04
1.31500000e-01	1.98311070e-02	3.85128252e-04
1.32000000e-01	1.96373669e-02	3.81118984e-04
1.32500000e-01	1.95552852e-02	3.77779604e-04
1.33000000e-01	1.96814344e-02	3.78888626e-04
1.33500000e-01	1.96661180e-02	3.78539583e-04
1.34000000e-01	1.93622273e-02	3.72763596e-04
1.34500000e-01	1.94785764e-02	3.71809902e-04
1.35000000e-01	1.97004494e-02	3.77041920e-04
1.35500000e-01	1.95848222e-02	3.71391959e-04
1.36000000e-01	1.95558219e-02	3.71411153e-04
1.36500000e-01	1.95042118e-02	3.71339268e-04
1.37000000e-01	1.99384761e-02	3.76065989e-04
1.37500000e-01	1.95625121e-02	3.69860799e-04
1.38000000e-01	1.91065095e-02	3.61462968e-04
1.38500000e-01	1.92938872e-02	3.64863765e-04
1.39000000e-01	1.94576234e-02	3.68814468e-04
1.39500000e-01	1.95619640e-02	3.66336894e-04
1.40000000e-01	1.98092342e-02	3.71971870e-04
1.40500000e-01	1.96310304e-02	3.70037135e-04
1.41000000e-01	1.94840278e-02	3.65796793e-04
1.41500000e-01	1.94546632e-02	3.65073244e-04
1.42000000e-01	1.95090624e-02	3.64318550e-04
1.42500000e-01	1.96515539e-02	3.67724795e-04
1.43000000e-01	1.94182827e-02	3.62901515e-04
1.43500000e-01	1.94645751e-02	3.63010014e-04
1.44000000e-01	1.94119758e-02	3.62087509e-04
1.44500000e-01	1.95352155e-02	3.61946497e-04
1.45000000e-01	1.94358896e-02	3.60987455e-04
1.45500000e-01	1.93055190e-02	3.55846029e-04
1.46000000e-01	1.95316769e-02	3.59802130e-04
1.46500000e-01	1.95926765e-02	3.60208383e-04
1.47000000e-01	1.93926860e-02	3.58101723e-04
1.47500000e-01	1.93117733e-02	3.54308977e-04
1.48000000e-01	1.96944209e-02	3.61585272e-04
1.48500000e-01	1.93333064e-02	3.53648040e-04
1.49000000e-01	1.91095926e-02	3.49980342e-04
1.49500000e-01	1.92112435e-02	3.49657174e-04
1.50000000e-01	1.92160821e-02	3.50381068e-04
1.50500000e-01	1.95421716e-02	3.56084361e-04
1.51000000e-01	1.93426770e-02	3.52642265e-04
1.51500000e-01	1.93048082e-02	3.49075386e-04
1.52000000e-01	1.94156662e-02	3.49002922e-04
1.52500000e-01	1.92152670e-02	3.47577904e-04
1.53000000e-01	1.92729719e-02	3.46763646e-04
1.53500000e-01	1.93761602e-02	3.48890033e-04
1.54000000e-01	1.93346497e-02	3.46728645e-04
1.54500000e-01	1.91863347e-02	3.50470682e-04
1.55000000e-01	1.92439172e-02	3.57497259e-04
1.55500000e-01	1.94407859e-02	3.63334726e-04
1.56000000e-01	1.92582919e-02	3.62021355e-04
1.56500000e-01	1.90897906e-02	3.57123922e-04
1.57000000e-01	1.89988407e-02	3.55704266e-04
1.57500000e-01	1.88979131e-02	3.49591852e-04
1.58000000e-01	1.92417533e-02	3.50082832e-04
1.58500000e-01	1.90552936e-02	3.44543163e-04
1.59000000e-01	1.91250810e-02	3.44402959e-04
1.59500000e-01	1.88222915e-02	3.37637132e-04
1.60000000e-01	1.91544463e-02	3.44660195e-04
1.60500000e-01	1.89660959e-02	3.38163419e-04
1.61000000e-01	1.91694276e-02	3.40819729e-04
1.61500000e-01	1.89230450e-02	3.35073794e-04
1.62000000e-01	1.90471031e-02	3.36874488e-04
1.62500000e-01	1.90499863e-02	3.39044245e-04
1.63000000e-01	1.88437440e-02	3.32347750e-04
1.63500000e-01	1.91616585e-02	3.40052451e-04
1.64000000e-01	1.88634026e-02	3.32265037e-04
1.64500000e-01	1.89950997e-02	3.34106789e-04
1.65000000e-01	1.90633266e-02	3.34517484e-04
1.65500000e-01	1.90044359e-02	3.31105494e-04
1.66000000e-01	1.87830272e-02	3.28401521e-04
1.66500000e-01	1.92043525e-02	3.35174218e-04
1.67000000e-01	1.91347484e-02	3.32341430e-04
1.67500000e-01	1.89510623e-02	3.29108058e-04
1.68000000e-01	1.91406640e-02	3.33052873e-04
1.68500000e-01	1.90211163e-02	3.29398305e-04
1.69000000e-01	1.90932108e-02	3.29739110e-04
1.69500000e-01	1.89025391e-02	3.26265035e-04
1.70000000e-01	1.85059758e-02	3.20596693e-04
1.70500000e-01	1.87468408e-02	3.23705947e-04
1.71000000e-01	1.90248943e-02	3.28088782e-04
1.71500000e-01	1.87595091e-02	3.23400803e-04
1.72000000e-01	1.91601464e-02	3.28345205e-04
1.72500000e-01	1.89994214e-02	3.25258906e-04
1.73000000e-01	1.89192649e-02	3.23288427e-04
1.73500000e-01	1.88388807e-02	3.20236416e-04
1.74000000e-01	1.87003088e-02	3.19564949e-04
1.74500000e-01	1.86935228e-02	3.15995610e-04
1.75000000e-01	1.88311675e-02	3.18850408e-04
1.75500000e-01	1.88325119e-02	3.16825812e-04
1.76000000e-01	1.87961626e-02	3.17191045e-04
1.76500000e-01	1.87652182e-02	3.17527949e-04
1.77000000e-01	1.87270665e-02	3.14955753e-04
1.77500000e-01	1.87675069e-02	3.16719788e-04
1.78000000e-01	1.90418760e-02	3.19114659e-04
1.78500000e-01	1.85529061e-02	3.12552290e-04
1.79000000e-01	1.88245723e-02	3.15122064e-04
1.79500000e-01	1.87739139e-02	3.15940637e-04
1.80000000e-01	1.85467348e-02	3.10799757e-04
1.80500000e-01	1.85434555e-02	3.11724762e-04
1.81000000e-01	1.88656779e-02	3.15789172e-04
1.81500000e-01	1.86494753e-02	3.10248384e-04
1.82000000e-01	1.86116658e-02	3.11100610e-04
1.82500000e-01	1.89319605e-02	3.14116929e-04
1.83000000e-01	1.86823380e-02	3.12003503e-04
1.83500000e-01	1.83839059e-02	3.06444199e-04
1.84000000e-01	1.86229555e-02	3.09380739e-04
1.84500000e-01	1.86922984e-02	3.10814817e-04
1.85000000e-01	1.87779280e-02	3.10542080e-04
1.85500000e-01	1.83175979e-02	3.01627204e-04
1.86000000e-01	1.86685334e-02	3.08271275e-04
1.86500000e-01	1.86571260e-02	3.06556405e-04
1.87000000e-01	1.86047128e-02	3.07191745e-04
1.87500000e-01	1.83684581e-02	3.02532601e-04
1.88000000e-01	1.86330291e-02	3.05937807e-04
1.88500000e-01	1.86140512e-02	3.04838668e-04
1.89000000e-01	1.83670503e-02	3.00638549e-04
1.89500000e-01	1.84324974e-02	3.02067094e-04
1.90000000e-01	1.85110380e-02	3.01999709e-04
1.90500000e-01	1.84612109e-02	3.00805646e-04
1.91000000e-01	1.85094301e-02	3.01546443e-04
1.91500000e-01	1.84629296e-02	3.01657089e-04
1.92000000e-01	1.84330018e-02	2.99997552e-04
1.92500000e-01	1.84394464e-02	2.99534456e-04
1.93000000e-01	1.83728967e-02	2.99366048e-04
1.93500000e-01	1.82942814e-02	2.96282441e-04
1.94000000e-01	1.83152207e-02	2.96829156e-04
1.94500000e-01	1.84402337e-02	2.97426384e-04
1.95000000e-01	1.84269866e-02	2.97926360e-04
1.95500000e-01	1.82121706e-02	2.93866954e-04
1.96000000e-01	1.81620356e-02	2.92266016e-04
1.96500000e-01	1.82272927e-02	2.93522312e-04
1.97000000e-01	1.83232502e-02	2.94600570e-04
1.97500000e-01	1.84239968e-02	2.95661404e-04
1.98000000e-01	1.83335131e-02	2.93468664e-04
1.98500000e-01	1.81910019e-02	2.91471744e-04
1.99000000e-01	1.84526640e-02	2.94153945e-04
1.99500000e-01	1.82931529e-02	2.91753687e-04
2.00000000e-01	1.82845456e-02	2.92220630e-04
2.00500000e-01	1.85667968e-02	2.96701295e-04
2.01000000e-01	1.82893566e-02	2.91537428e-04
2.01500000e-01	1.80644080e-02	2.88544614e-04
2.02000000e-01	1.81807810e-02	2.88981983e-04
2.02500000e-01	1.82646881e-02	2.88854968e-04
2.03000000e-01	1.80558582e-02	2.86563120e-04
2.03500000e-01	1.82478200e-02	2.89884940e-04
2.04000000e-01	1.82870026e-02	2.89591667e-04
2.04500000e-01	1.79545513e-02	2.84186603e-04
2.05000000e-01	1.80128437e-02	2.84513918e-04
2.05500000e-01	1.84035502e-02	2.90192697e-04
2.06000000e-01	1.80434820e-02	2.84861405e-04
2.06500000e-01	1.82232774e-02	2.86974074e-04
2.07000000e-01	1.84542215e-02	2.90622130e-04
2.07500000e-01	1.84152269e-02	2.88158517e-04
2.08000000e-01	1.81570184e-02	2.86116075e-04
2.08500000e-01	1.79750728e-02	2.82064070e-04
2.09000000e-01	1.82759015e-02	2.84564199e-04
2.09500000e-01	1.81295668e-02	2.82806614e-04
2.10000000e-01	1.80585810e-02	2.82085982e-04
2.10500000e-01	1.81938608e-02	2.83306010e-04
2.11000000e-01	1.82436793e-02	2.82697418e-04
2.11500000e-01	1.80636553e-02	2.81904352e-04
2.12000000e-01	1.80314893e-02	2.79394673e-04
2.12500000e-01	1.78957612e-02	2.77629279e-04
2.13000000e-01	1.79542419e-02	2.78627590e-04
2.13500000e-01	1.83718701e-02	2.83712691e-04
2.14000000e-01	1.77815934e-02	2.75632507e-04
2.14500000e-01	1.80114064e-02	2.79177625e-04
2.15000000e-01	1.79784391e-02	2.78227804e-04
2.15500000e-01	1.79285787e-02	2.75229591e-04
2.16000000e-01	1.79127511e-02	2.76060735e-04
2.16500000e-01	1.79688943e-02	2.76126763e-04
2.17000000e-01	1.80124365e-02	2.79950675e-04
2.17500000e-01	1.78573027e-02	2.82682243e-04
2.18000000e-01	1.79603970e-02	2.85603490e-04
2.18500000e-01	1.81612779e-02	2.90008984e-04
2.19000000e-01	1.78830536e-02	2.87447909e-04
2.19500000e-01	1.77280531e-02	2.85820975e-04
2.20000000e-01	1.78912301e-02	2.89950887e-04
2.20500000e-01	1.78118918e-02	2.88637352e-04
2.21000000e-01	1.79307068e-02	2.91954855e-04
2.21500000e-01	1.77902982e-02	2.91048654e-04
2.22000000e-01	1.78839550e-02	2.90726607e-04
2.22500000e-01	1.77342204e-02	2.90587648e-04
2.23000000e-01	1.80609986e-02	2.95732884e-04
2.23500000e-01	1.79167106e-02	2.92990141e-04
2.24000000e-01	1.79235717e-02	2.95388480e-04
2.24500000e-01	1.80687074e-02	2.99354454e-04
2.25000000e-01	1.75887820e-02	2.91689527e-04
2.25500000e-01	1.77907573e-02	2.94827190e-04
2.26000000e-01	1.78328307e-02	2.95595453e-04
2.26500000e-01	1.80124942e-02	2.94341890e-04
2.27000000e-01	1.77066499e-02	2.88051276e-04
2.27500000e-01	1.78563115e-02	2.86853002e-04
2.28000000e-01	1.79093576e-02	2.86473830e-04
2.28500000e-01	1.81666290e-02	2.87380489e-04
2.29000000e-01	1.76910010e-02	2.80279870e-04
2.29500000e-01	1.78195297e-02	2.80713037e-04
2.30000000e-01	1.78092225e-02	2.80531030e-04
2.30500000e-01	1.76780713e-02	2.75894855e-04
2.31000000e-01	1.76246160e-02	2.75595201e-04
2.31500000e-01	1.78149644e-02	2.79229670e-04
2.32000000e-01	1.78966508e-02	2.78553643e-04
2.32500000e-01	1.78089820e-02	2.77526742e-04
2.33000000e-01	1.76286286e-02	2.73404324e-04
2.33500000e-01	1.79346816e-02	2.77696077e-04
2.34000000e-01	1.75675700e-02	2.72311034e-04
2.34500000e-01	1.79147617e-02	2.74378325e-04
2.35000000e-01	1.77297522e-02	2.73157861e-04
2.35500000e-01	1.77936530e-02	2.74088542e-04
2.36000000e-01	1.76037763e-02	2.69954915e-04
2.36500000e-01	1.76946680e-02	2.71037835e-04
2.37000000e-01	1.75848179e-02	2.70604228e-04
2.37500000e-01	1.79290985e-02	2.73166661e-04
2.38000000e-01	1.76805199e-02	2.69465199e-04
2.38500000e-01	1.76992787e-02	2.69329779e-04
2.39000000e-01	1.77434871e-02	2.67754499e-04
2.39500000e-01	1.78469055e-02	2.70195274e-04
2.40000000e-01	1.78238882e-02	2.68819495e-04
2.40500000e-01	1.75631005e-02	2.65369619e-04
2.41000000e-01	1.75088044e-02	2.64892808e-04
2.41500000e-01	1.74867522e-02	2.62549511e-04
2.42000000e-01	1.76137762e-02	2.65017006e-04
2.42500000e-01	1.77666078e-02	2.66358187e-04
2.43000000e-01	1.76858197e-02	2.64630483e-04
2.43500000e-01	1.76988486e-02	2.64885745e-04
2.44000000e-01	1.76672483e-02	2.64008417e-04
2.44500000e-01	1.76347779e-02	2.63414610e-04
2.45000000e-01	1.76261097e-02	2.62128754e-04
2.45500000e-01	1.73659129e-02	2.59381078e-04
2.46000000e-01	1.76199509e-02	2.61300721e-04
2.46500000e-01	1.77320926e-02	2.62112171e-04
2.47000000e-01	1.74744175e-02	2.58562005e-04
2.47500000e-01	1.74363129e-02	2.57920120e-04
2.48000000e-01	1.76905459e-02	2.61469463e-04
2.48500000e-01	1.75735730e-02	2.59722717e-04
2.49000000e-01	1.75244915e-02	2.58283816e-04
2.49500000e-01	1.74609598e-02	2.57350464e-04
2.50000000e-01	1.75814251e-02	2.58101254e-04
2.50500000e-01	1.76296651e-02	2.59390005e-04
2.51000000e-01	1.74884084e-02	2.56435978e-04
2.51500000e-01	1.74841532e-02	2.57254432e-04
2.52000000e-01	1.73299726e-02	2.54771949e-04
2.52500000e-01	1.75868716e-02	2.56940103e-04
2.53000000e-01	1.77298250e-02	2.59342229e-04
2.53500000e-01	1.73283815e-02	2.52815180e-04
2.54000000e-01	1.74651186e-02	2.55199754e-04
2.54500000e-01	1.72340720e-02	2.51344284e-04
2.55000000e-01	1.73657563e-02	2.53498245e-04
2.55500000e-01	1.73032161e-02	2.53090802e-04
2.56000000e-01	1.73156235e-02	2.51433285e-04
2.56500000e-01	1.73786298e-02	2.52604520e-04
2.57000000e-01	1.74136633e-02	2.52663864e-04
2.57500000e-01	1.72368198e-02	2.49441528e-04
2.58000000e-01	1.73342385e-02	2.51520351e-04
2.58500000e-01	1.72519790e-02	2.50279003e-04
2.59000000e-01	1.74833389e-02	2.52933748e-04
2.59500000e-01	1.73114891e-02	2.49928560e-04
2.60000000e-01	1.73428309e-02	2.50147031e-04
2.60500000e-01	1.72877461e-02	2.49065123e-04
2.61000000e-01	1.72529213e-02	2.47846727e-04
2.61500000e-01	1.75613353e-02	2.51354260e-04
2.62000000e-01	1.73290558e-02	2.48631473e-04
2.62500000e-01	1.73333695e-02	2.49242313e-04
2.63000000e-01	1.73651657e-02	2.48220923e-04
2.63500000e-01	1.71724446e-02	2.45388928e-04
2.64000000e-01	1.72333968e-02	2.45886148e-04
2.64500000e-01	1.72547370e-02	2.46506441e-04
2.65000000e-01	1.72968787e-02	2.47214206e-04
2.65500000e-01	1.73168743e-02	2.46364058e-04
2.66000000e-01	1.70659251e-02	2.43665171e-04
2.66500000e-01	1.72253049e-02	2.44475888e-04
2.67000000e-01	1.73199799e-02	2.46481829e-04
2.67500000e-01	1.69743110e-02	2.39888629e-04
2.68000000e-01	1.73099221e-02	2.44846768e-04
2.68500000e-01	1.73472096e-02	2.45419786e-04
2.69000000e-01	1.69714521e-02	2.39927668e-04
2.69500000e-01	1.71040175e-02	2.40964929e-04
2.70000000e-01	1.70300074e-02	2.40799248e-04
2.70500000e-01	1.69710609e-02	2.39755576e-04
2.71000000e-01	1.71113645e-02	2.40524154e-04
2.71500000e-01	1.70938886e-02	2.40573129e-04
2.72000000e-01	1.71046400e-02	2.40063101e-04
2.72500000e-01	1.70733979e-02	2.40415759e-04
2.73000000e-01	1.73226727e-02	2.41829408e-04
2.73500000e-01	1.72971567e-02	2.41621222e-04
2.74000000e-01	1.70051817e-02	2.38615626e-04
2.74500000e-01	1.72769621e-02	2.40776971e-04
2.75000000e-01	1.71924482e-02	2.40282542e-04
2.75500000e-01	1.72224974e-02	2.40790395e-04
2.76000000e-01	1.70849495e-02	2.37810079e-04
2.76500000e-01	1.71182335e-02	2.39022945e-04
2.77000000e-01	1.71452573e-02	2.37847654e-04
2.77500000e-01	1.70038860e-02	2.36826298e-04
2.78000000e-01	1.69824326e-02	2.37328578e-04
2.78500000e-01	1.69638970e-02	2.36473038e-04
2.79000000e-01	1.67648478e-02	2.33424891e-04
2.79500000e-01	1.69564369e-02	2.34756495e-04
2.80000000e-01	1.70356211e-02	2.36358503e-04
2.80500000e-01	1.70155891e-02	2.35646316e-04
2.81000000e-01	1.69004891e-02	2.34365250e-04
2.81500000e-01	1.69489677e-02	2.34323719e-04
2.82000000e-01	1.71726945e-02	2.37613783e-04
2.82500000e-01	1.70531484e-02	2.35219561e-04
2.83000000e-01	1.69600734e-02	2.33344044e-04
2.83500000e-01	1.72325198e-02	2.36519940e-04
2.84000000e-01	1.70567676e-02	2.34434687e-04
2.84500000e-01	1.68829998e-02	2.31566133e-04
2.85000000e-01	1.68575007e-02	2.32079412e-04
2.85500000e-01	1.70797960e-02	2.34304908e-04
2.86000000e-01	1.70066031e-02	2.34023282e-04
2.86500000e-01	1.68254990e-02	2.29984770e-04
2.87000000e-01	1.68532370e-02	2.30589687e-04
2.87500000e-01	1.69279434e-02	2.31104674e-04
2.88000000e-01	1.67891953e-02	2.29159942e-04
2.88500000e-01	1.69263573e-02	2.31192898e-04
2.89000000e-01	1.69519143e-02	2.30684982e-04
2.89500000e-01	1.69399440e-02	2.31031865e-04
2.90000000e-01	1.69789651e-02	2.31044332e-04
2.90500000e-01	1.66246025e-02	2.25925493e-04
2.91000000e-01	1.69554301e-02	2.30219462e-04
2.91500000e-01	1.67652736e-02	2.27251551e-04
2.92000000e-01	1.70520506e-02	2.30819960e-04
2.92500000e-01	1.69652327e-02	2.29779088e-04
2.93000000e-01	1.69419185e-02	2.28822585e-04
2.93500000e-01	1.69360634e-02	2.28507894e-04
2.94000000e-01	1.67686843e-02	2.26298960e-04
2.94500000e-01	1.68280604e-02	2.27623468e-04
2.95000000e-01	1.68071425e-02	2.25725517e-04
2.95500000e-01	1.68843049e-02	2.26683871e-04
2.96000000e-01	1.69388286e-02	2.27565304e-04
2.96500000e-01	1.67116519e-02	2.24072330e-04
2.97000000e-01	1.69077184e-02	2.27234466e-04
2.97500000e-01	1.68405945e-02	2.25564995e-04
2.98000000e-01	1.66127854e-02	2.23169760e-04
2.98500000e-01	1.68490626e-02	2.26524160e-04
2.99000000e-01	1.68947307e-02	2.25616648e-04
2.99500000e-01	1.69217630e-02	2.25614951e-04
3.00000000e-01	1.68484310e-02	2.25192321e-04
3.00500000e-01	1.69166460e-02	2.26005942e-04
3.01000000e-01	1.68682019e-02	2.24661292e-04
3.01500000e-01	1.66428024e-02	2.21785048e-04
3.02000000e-01	1.65922977e-02	2.21115698e-04
3.02500000e-01	1.66231308e-02	2.20935681e-04
3.03000000e-01	1.64378313e-02	2.19364265e-04
3.03500000e-01	1.67337164e-02	2.21510805e-04
3.04000000e-01	1.68160841e-02	2.23298031e-04
3.04500000e-01	1.68853536e-02	2.23213709e-04
3.05000000e-01	1.65615258e-02	2.20030387e-04
3.05500000e-01	1.65090683e-02	2.19929585e-04
3.06000000e-01	1.66710019e-02	2.20514244e-04
3.06500000e-01	1.65810230e-02	2.19783861e-04
3.07000000e-01	1.66343352e-02	2.19633766e-04
3.07500000e-01	1.67146232e-02	2.20664468e-04
3.08000000e-01	1.64230232e-02	2.16611491e-04
3.08500000e-01	1.65717260e-02	2.18029976e-04
3.09000000e-01	1.65135533e-02	2.17704516e-04
3.09500000e-01	1.67504091e-02	2.19782151e-04
3.10000000e-01	1.67093628e-02	2.19310489e-04
3.10500000e-01	1.68032115e-02	2.20818735e-04
3.11000000e-01	1.64800495e-02	2.17300248e-04
3.11500000e-01	1.64199885e-02	2.15901182e-04
3.12000000e-01	1.63770278e-02	2.15149197e-04
3.12500000e-01	1.64862049e-02	2.16544744e-04
3.13000000e-01	1.66442644e-02	2.18100149e-04
3.13500000e-01	1.67009880e-02	2.18764761e-04
3.14000000e-01	1.67176887e-02	2.18009568e-04
3.14500000e-01	1.64662497e-02	2.14501712e-04
3.15000000e-01	1.62815353e-02	2.12487050e-04
3.15500000e-01	1.65368499e-02	2.15609632e-04
3.16000000e-01	1.63988359e-02	2.13816112e-04
3.16500000e-01	1.63208301e-02	2.12211788e-04
3.17000000e-01	1.64211033e-02	2.13673999e-04
3.17500000e-01	1.63856842e-02	2.13361685e-04
3.18000000e-01	1.63701931e-02	2.13034887e-04
3.18500000e-01	1.64640279e-02	2.13428131e-04
3.19000000e-01	1.65061422e-02	2.12980294e-04
3.19500000e-01	1.63448066e-02	2.12124650e-04
3.20000000e-01	1.63633125e-02	2.12944672e-04
3.20500000e-01	1.62383603e-02	2.10628545e-04
3.21000000e-01	1.63026465e-02	2.11529263e-04
3.21500000e-01	1.63387432e-02	2.11375448e-04
3.22000000e-01	1.60849975e-02	2.08102791e-04
3.22500000e-01	1.63780825e-02	2.11263170e-04
3.23000000e-01	1.62691683e-02	2.10065378e-04
3.23500000e-01	1.63076531e-02	2.10448657e-04
3.24000000e-01	1.62094277e-02	2.08249587e-04
3.24500000e-01	1.63803379e-02	2.10605529e-04
3.25000000e-01	1.62827607e-02	2.08899959e-04
3.25500000e-01	1.62187010e-02	2.09180827e-04
3.26000000e-01	1.63172190e-02	2.09415559e-04
3.26500000e-01	1.63830572e-02	2.09547486e-04
3.27000000e-01	1.64451688e-02	2.11075048e-04
3.27500000e-01	1.63368367e-02	2.09981072e-04
3.28000000e-01	1.63929257e-02	2.10569937e-04
3.28500000e-01	1.63830232e-02	2.09860909e-04
3.29000000e-01	1.63735085e-02	2.09120747e-04
3.29500000e-01	1.61230194e-02	2.06885877e-04
3.30000000e-01	1.62868316e-02	2.08023947e-04
3.30500000e-01	1.61329640e-02	2.06292956e-04
3.31000000e-01	1.62096949e-02	2.06216079e-04
3.31500000e-01	1.62307428e-02	2.06037688e-04
3.32000000e-01	1.63256468e-02	2.07801663e-04
3.32500000e-01	1.60344985e-02	2.04260737e-04
3.33000000e-01	1.61754401e-02	2.06043145e-04
3.33500000e-01	1.60502894e-02	2.03530287e-04
3.34000000e-01	1.63963707e-02	2.07249018e-04
3.34500000e-01	1.61210308e-02	2.04380955e-04
3.35000000e-01	1.60418747e-02	2.03701338e-04
3.35500000e-01	1.60318834e-02	2.03391898e-04
3.36000000e-01	1.63252085e-02	2.05782965e-04
3.36500000e-01	1.60853067e-02	2.03617653e-04
3.37000000e-01	1.61602322e-02	2.03879736e-04
3.37500000e-01	1.60545256e-02	2.02905936e-04
3.38000000e-01	1.60333801e-02	2.03563814e-04
3.38500000e-01	1.59026466e-02	2.01001929e-04
3.39000000e-01	1.59248016e-02	2.01647264e-04
3.39500000e-01	1.60862229e-02	2.02373105e-04
3.40000000e-01	1.62603722e-02	2.03996644e-04
3.40500000e-01	1.60419505e-02	2.01864284e-04
3.41000000e-01	1.60880398e-02	2.01851691e-04
3.41500000e-01	1.60125563e-02	2.01154906e-04
3.42000000e-01	1.60099180e-02	1.99888167e-04
3.42500000e-01	1.60692681e-02	2.01914840e-04
3.43000000e-01	1.59001977e-02	1.99446815e-04
3.43500000e-01	1.58649732e-02	1.99069981e-04
3.44000000e-01	1.60029356e-02	2.01576548e-04
3.44500000e-01	1.56513511e-02	1.95391136e-04
3.45000000e-01	1.58833864e-02	1.98402441e-04
3.45500000e-01	1.58833120e-02	1.98881600e-04
3.46000000e-01	1.59384966e-02	1.98513372e-04
3.46500000e-01	1.59493459e-02	1.98308253e-04
3.47000000e-01	1.57878852e-02	1.96752985e-04
3.47500000e-01	1.59410315e-02	1.98854468e-04
3.48000000e-01	1.61035140e-02	2.00040923e-04
3.48500000e-01	1.55776933e-02	1.94545179e-04
3.49000000e-01	1.59654375e-02	1.97951256e-04
3.49500000e-01	1.59020174e-02	1.98413537e-04
3.50000000e-01	1.59009834e-02	1.60788554e-04
3.51000000e-01	1.58804407e-02	1.39727837e-04
3.52000000e-01	1.57881901e-02	1.38386594e-04
3.53000000e-01	1.58900457e-02	1.38303404e-04
3.54000000e-01	1.56953642e-02	1.36733910e-04
3.55000000e-01	1.58585897e-02	1.38430899e-04
3.56000000e-01	1.59277919e-02	1.39421892e-04
3.57000000e-01	1.56757084e-02	1.39383361e-04
3.58000000e-01	1.56110127e-02	1.40538622e-04
3.59000000e-01	1.56877477e-02	1.41962308e-04
3.60000000e-01	1.55597718e-02	1.41958455e-04
3.61000000e-01	1.55345515e-02	1.42067985e-04
3.62000000e-01	1.54034341e-02	1.42020560e-04
3.63000000e-01	1.54859318e-02	1.43250644e-04
3.64000000e-01	1.55311244e-02	1.43529740e-04
3.65000000e-01	1.55789925e-02	1.44912672e-04
3.66000000e-01	1.56573139e-02	1.44031130e-04
3.67000000e-01	1.55692860e-02	1.40978592e-04
3.68000000e-01	1.56466121e-02	1.40587070e-04
3.69000000e-01	1.55657177e-02	1.39384442e-04
3.70000000e-01	1.54801145e-02	1.37801432e-04
3.71000000e-01	1.54675763e-02	1.39510473e-04
3.72000000e-01	1.54718427e-02	1.40684162e-04
3.73000000e-01	1.54773488e-02	1.40950521e-04
3.74000000e-01	1.54344711e-02	1.40878807e-04
3.75000000e-01	1.54898579e-02	1.41202124e-04
3.76000000e-01	1.54796766e-02	1.40830810e-04
3.77000000e-01	1.54576391e-02	1.40667757e-04
3.78000000e-01	1.54746987e-02	1.41419553e-04
3.79000000e-01	1.54975438e-02	1.40823184e-04
3.80000000e-01	1.54191054e-02	1.40226979e-04
3.81000000e-01	1.54208730e-02	1.40332764e-04
3.82000000e-01	1.53549150e-02	1.39474436e-04
3.83000000e-01	1.53614997e-02	1.39446492e-04
3.84000000e-01	1.52699982e-02	1.38962696e-04
3.85000000e-01	1.53102090e-02	1.39591231e-04
3.86000000e-01	1.54147819e-02	1.40214362e-04
3.87000000e-01	1.52476089e-02	1.38741797e-04
3.88000000e-01	1.53199939e-02	1.39116542e-04
3.89000000e-01	1.52498992e-02	1.38546648e-04
3.90000000e-01	1.53019258e-02	1.38288314e-04
3.91000000e-01	1.52790595e-02	1.38514316e-04
3.92000000e-01	1.52403814e-02	1.37991334e-04
3.93000000e-01	1.52653021e-02	1.38442101e-04
3.94000000e-01	1.52263084e-02	1.38023177e-04
3.95000000e-01	1.52187415e-02	1.37742252e-04
3.96000000e-01	1.52655438e-02	1.38514427e-04
3.97000000e-01	1.50976774e-02	1.37029863e-04
3.98000000e-01	1.51715728e-02	1.37518704e-04
3.99000000e-01	1.50984824e-02	1.37232732e-04
4.00000000e-01	1.50914128e-02	1.37089896e-04
4.01000000e-01	1.50123042e-02	1.36308806e-04
4.02000000e-01	1.51620957e-02	1.37524938e-04
4.03000000e-01	1.50494959e-02	1.36571387e-04
4.04000000e-01	1.49767358e-02	1.36167720e-04
4.05000000e-01	1.49703069e-02	1.36093222e-04
4.06000000e-01	1.50938307e-02	1.36588707e-04
4.07000000e-01	1.50852594e-02	1.36746502e-04
4.08000000e-01	1.49190106e-02	1.35153526e-04
4.09000000e-01	1.49654847e-02	1.35158860e-04
4.10000000e-01	1.51127463e-02	1.36470194e-04
4.11000000e-01	1.48993115e-02	1.35021907e-04
4.12000000e-01	1.50910404e-02	1.36259807e-04
4.13000000e-01	1.49233540e-02	1.35217012e-04
4.14000000e-01	1.48743962e-02	1.34490886e-04
4.15000000e-01	1.49729596e-02	1.34854184e-04
4.16000000e-01	1.49981694e-02	1.35152461e-04
4.17000000e-01	1.48702118e-02	1.34464441e-04
4.18000000e-01	1.49520774e-02	1.36438949e-04
4.19000000e-01	1.50353769e-02	1.38455738e-04
4.20000000e-01	1.49672377e-02	1.39238059e-04
4.21000000e-01	1.50453143e-02	1.39901763e-04
4.22000000e-01	1.48713556e-02	1.39309263e-04
4.23000000e-01	1.49135017e-02	1.40017201e-04
4.24000000e-01	1.50310996e-02	1.41375442e-04
4.25000000e-01	1.50561948e-02	1.41705767e-04
4.26000000e-01	1.49720503e-02	1.41062931e-04
4.27000000e-01	1.47912249e-02	1.39618298e-04
4.28000000e-01	1.49265176e-02	1.40930775e-04
4.29000000e-01	1.49166298e-02	1.41107193e-04
4.30000000e-01	1.49169178e-02	1.41055573e-04
4.31000000e-01	1.49800613e-02	1.41228423e-04
4.32000000e-01	1.49755484e-02	1.41883263e-04
4.33000000e-01	1.48375879e-02	1.40116883e-04
4.34000000e-01	1.48841179e-02	1.40788122e-04
4.35000000e-01	1.48790388e-02	1.41306551e-04
4.36000000e-01	1.47596270e-02	1.40267054e-04
4.37000000e-01	1.48244231e-02	1.40896369e-04
4.38000000e-01	1.47716038e-02	1.41030365e-04
4.39000000e-01	1.47488396e-02	1.40865467e-04
4.40000000e-01	1.46842005e-02	1.40292459e-04
4.41000000e-01	1.47508296e-02	1.40968454e-04
4.42000000e-01	1.47449997e-02	1.41161959e-04
4.43000000e-01	1.47288641e-02	1.41316578e-04
4.44000000e-01	1.47088852e-02	1.41456857e-04
4.45000000e-01	1.46893846e-02	1.41199250e-04
4.46000000e-01	1.47131059e-02	1.41879878e-04
4.47000000e-01	1.46043130e-02	1.40969913e-04
4.48000000e-01	1.47478220e-02	1.41864374e-04
4.49000000e-01	1.47946854e-02	1.42905762e-04
4.50000000e-01	1.45786263e-02	1.41157794e-04
4.51000000e-01	1.48018353e-02	1.42972046e-04
4.52000000e-01	1.47193210e-02	1.42085166e-04
4.53000000e-01	1.46909929e-02	1.42380123e-04
4.54000000e-01	1.45948517e-02	1.41323568e-04
4.55000000e-01	1.46754441e-02	1.42468669e-04
4.56000000e-01	1.45688695e-02	1.41379999e-04
4.57000000e-01	1.46219119e-02	1.42104994e-04
4.58000000e-01	1.46378458e-02	1.42458973e-04
4.59000000e-01	1.44288282e-02	1.41250845e-04
4.60000000e-01	1.44895949e-02	1.41232347e-04
4.61000000e-01	1.46008600e-02	1.42458965e-04
4.62000000e-01	1.46104852e-02	1.42705437e-04
4.63000000e-01	1.45694474e-02	1.42549808e-04
4.64000000e-01	1.46652917e-02	1.43123590e-04
4.65000000e-01	1.45495344e-02	1.42271058e-04
4.66000000e-01	1.46016583e-02	1.42585107e-04
4.67000000e-01	1.44942046e-02	1.41923302e-04
4.68000000e-01	1.44839390e-02	1.41883895e-04
4.69000000e-01	1.44841009e-02	1.42341050e-04
4.70000000e-01	1.45307173e-02	1.42705097e-04
4.71000000e-01	1.46275943e-02	1.43696247e-04
4.72000000e-01	1.43369844e-02	1.40679371e-04
4.73000000e-01	1.45182003e-02	1.42313687e-04
4.74000000e-01	1.44291058e-02	1.41617292e-04
4.75000000e-01	1.44589696e-02	1.41638722e-04
4.76000000e-01	1.43689534e-02	1.40967242e-04
4.77000000e-01	1.44151850e-02	1.41380843e-04
4.78000000e-01	1.44750244e-02	1.42355891e-04
4.79000000e-01	1.44077589e-02	1.41750678e-04
4.80000000e-01	1.44544400e-02	1.41849822e-04
4.81000000e-01	1.44611181e-02	1.41776273e-04
4.82000000e-01	1.43637290e-02	1.41346608e-04
4.83000000e-01	1.43247206e-02	1.41170054e-04
4.84000000e-01	1.42516323e-02	1.40635000e-04
4.85000000e-01	1.44085011e-02	1.41687221e-04
4.86000000e-01	1.42190317e-02	1.39841346e-04
4.87000000e-01	1.43339590e-02	1.41530181e-04
4.88000000e-01	1.44226856e-02	1.41746342e-04
4.89000000e-01	1.43192300e-02	1.41447737e-04
4.90000000e-01	1.43056393e-02	1.41423465e-04
4.91000000e-01	1.43553901e-02	1.42032766e-04
4.92000000e-01	1.41715810e-02	1.39919183e-04
4.93000000e-01	1.43773146e-02	1.42496696e-04
4.94000000e-01	1.42217400e-02	1.40949049e-04
4.95000000e-01	1.43057196e-02	1.42918050e-04
4.96000000e-01	1.42341679e-02	1.46357263e-04
4.97000000e-01	1.41509896e-02	1.47939645e-04
4.98000000e-01	1.41751448e-02	1.50504545e-04
4.99000000e-01	1.41951626e-02	1.52729347e-04
5.00000000e-01	1.42591284e-02	1.54756489e-04
5.01000000e-01	1.43133435e-02	1.56566738e-04
5.02000000e-01	1.41621421e-02	1.57211382e-04
5.03000000e-01	1.42858008e-02	1.59540630e-04
5.04000000e-01	1.43699387e-02	1.61623129e-04
5.05000000e-01	1.42293647e-02	1.57652424e-04
5.06000000e-01	1.42833705e-02	1.54648726e-04
5.07000000e-01	1.44151743e-02	1.54546479e-04
5.08000000e-01	1.42760866e-02	1.52034482e-04
5.09000000e-01	1.42499529e-02	1.51486746e-04
5.10000000e-01	1.41969932e-02	1.50607945e-04
5.11000000e-01	1.41246061e-02	1.48613936e-04
5.12000000e-01	1.42355486e-02	1.49753028e-04
5.13000000e-01	1.42310642e-02	1.49564002e-04
5.14000000e-01	1.41560131e-02	1.48095250e-04
5.15000000e-01	1.40852160e-02	1.47369903e-04
5.16000000e-01	1.40484546e-02	1.46415024e-04
5.17000000e-01	1.41101787e-02	1.47367335e-04
5.18000000e-01	1.39992708e-02	1.45702613e-04
5.19000000e-01	1.42519193e-02	1.47178576e-04
5.20000000e-01	1.41506857e-02	1.46270330e-04
5.21000000e-01	1.41204496e-02	1.46384557e-04
5.22000000e-01	1.40373973e-02	1.45161123e-04
5.23000000e-01	1.41596540e-02	1.46552702e-04
5.24000000e-01	1.41371608e-02	1.46101341e-04
5.25000000e-01	1.41452778e-02	1.46069198e-04
5.26000000e-01	1.40806679e-02	1.45278901e-04
5.27000000e-01	1.40405986e-02	1.45040841e-04
5.28000000e-01	1.40746085e-02	1.45534198e-04
5.29000000e-01	1.40515864e-02	1.45565373e-04
5.30000000e-01	1.40050810e-02	1.44928429e-04
5.31000000e-01	1.39514269e-02	1.44312604e-04
5.32000000e-01	1.39598650e-02	1.44573991e-04
5.33000000e-01	1.39088356e-02	1.43921670e-04
5.34000000e-01	1.39957111e-02	1.44599288e-04
5.35000000e-01	1.39545277e-02	1.44270453e-04
5.36000000e-01	1.38650217e-02	1.43657208e-04
5.37000000e-01	1.37520070e-02	1.42418151e-04
5.38000000e-01	1.38650504e-02	1.43258267e-04
5.39000000e-01	1.40574450e-02	1.45429551e-04
5.40000000e-01	1.36157694e-02	1.40692639e-04
5.41000000e-01	1.39730480e-02	1.44958221e-04
5.42000000e-01	1.39157779e-02	1.44092376e-04
5.43000000e-01	1.38804913e-02	1.43340111e-04
5.44000000e-01	1.37527292e-02	1.42063476e-04
5.45000000e-01	1.38120765e-02	1.43007208e-04
5.46000000e-01	1.39417379e-02	1.44365093e-04
5.47000000e-01	1.37331423e-02	1.41852252e-04
5.48000000e-01	1.38172731e-02	1.42518216e-04
5.49000000e-01	1.37850833e-02	1.41747020e-04
5.50000000e-01	1.37416172e-02	1.42196529e-04
5.51000000e-01	1.37229682e-02	1.41922840e-04
5.52000000e-01	1.36512769e-02	1.40869469e-04
5.53000000e-01	1.35922844e-02	1.39832707e-04
5.54000000e-01	1.36973741e-02	1.40565217e-04
5.55000000e-01	1.35951406e-02	1.39643299e-04
5.56000000e-01	1.38438757e-02	1.41826716e-04
5.57000000e-01	1.36091848e-02	1.39910020e-04
5.58000000e-01	1.37196145e-02	1.40860666e-04
5.59000000e-01	1.37317285e-02	1.40617164e-04
5.60000000e-01	1.36352422e-02	1.40369038e-04
5.61000000e-01	1.37593804e-02	1.41355567e-04
5.62000000e-01	1.35623366e-02	1.39692155e-04
5.63000000e-01	1.37313728e-02	1.41398043e-04
5.64000000e-01	1.36141063e-02	1.40007416e-04
5.65000000e-01	1.35965974e-02	1.39746656e-04
5.66000000e-01	1.35852742e-02	1.39607248e-04
5.67000000e-01	1.34546824e-02	1.38711397e-04
5.68000000e-01	1.34986593e-02	1.38979875e-04
5.69000000e-01	1.35236617e-02	1.38936943e-04
5.70000000e-01	1.35277884e-02	1.38918143e-04
5.71000000e-01	1.35747985e-02	1.39608176e-04
5.72000000e-01	1.34973139e-02	1.38582716e-04
5.73000000e-01	1.34251101e-02	1.38451782e-04
5.74000000e-01	1.34548259e-02	1.38202617e-04
5.75000000e-01	1.34358114e-02	1.38143351e-04
5.76000000e-01	1.34864457e-02	1.38754560e-04
5.77000000e-01	1.35019824e-02	1.39327744e-04
5.78000000e-01	1.33362803e-02	1.37857967e-04
5.79000000e-01	1.34849937e-02	1.39037360e-04
5.80000000e-01	1.34060930e-02	1.38122344e-04
5.81000000e-01	1.33983897e-02	1.38225356e-04
5.82000000e-01	1.33093382e-02	1.37556734e-04
5.83000000e-01	1.34322044e-02	1.38763461e-04
5.84000000e-01	1.34038435e-02	1.38254577e-04
5.85000000e-01	1.33208387e-02	1.37675252e-04
5.86000000e-01	1.34055932e-02	1.38863170e-04
5.87000000e-01	1.32788068e-02	1.37257301e-04
5.88000000e-01	1.33571588e-02	1.38252313e-04
5.89000000e-01	1.33605419e-02	1.38405521e-04
5.90000000e-01	1.33969497e-02	1.38460011e-04
5.91000000e-01	1.32998554e-02	1.37603341e-04
5.92000000e-01	1.34572909e-02	1.39227406e-04
5.93000000e-01	1.32477946e-02	1.37447334e-04
5.94000000e-01	1.33983277e-02	1.38647023e-04
5.95000000e-01	1.34277366e-02	1.38938796e-04
5.96000000e-01	1.33605282e-02	1.38019148e-04
5.97000000e-01	1.33770502e-02	1.38337476e-04
5.98000000e-01	1.32628416e-02	1.37438595e-04
5.99000000e-01	1.33337654e-02	1.37793352e-04
6.00000000e-01	1.32282508e-02	1.36900890e-04
6.01000000e-01	1.33005416e-02	1.37644410e-04
6.02000000e-01	1.33006674e-02	1.37541979e-04
6.03000000e-01	1.32397025e-02	1.37189824e-04
6.04000000e-01	1.31532759e-02	1.36307009e-04
6.05000000e-01	1.31859897e-02	1.36929738e-04
6.06000000e-01	1.31747629e-02	1.37076994e-04
6.07000000e-01	1.32546744e-02	1.37178037e-04
6.08000000e-01	1.31323988e-02	1.36483035e-04
6.09000000e-01	1.30195621e-02	1.35599420e-04
6.10000000e-01	1.31907895e-02	1.36904269e-04
6.11000000e-01	1.31194129e-02	1.36078705e-04
6.12000000e-01	1.31296778e-02	1.36675352e-04
6.13000000e-01	1.32495625e-02	1.37336057e-04
6.14000000e-01	1.30976914e-02	1.36063718e-04
6.15000000e-01	1.32689778e-02	1.37553780e-04
6.16000000e-01	1.32233468e-02	1.37301986e-04
6.17000000e-01	1.30946868e-02	1.36347523e-04
6.18000000e-01	1.31545242e-02	1.36592842e-04
6.19000000e-01	1.29834909e-02	1.34773982e-04
6.20000000e-01	1.31444632e-02	1.36094753e-04
6.21000000e-01	1.31489451e-02	1.36325359e-04
6.22000000e-01	1.29809413e-02	1.34699201e-04
6.23000000e-01	1.30869069e-02	1.35418056e-04
6.24000000e-01	1.29848643e-02	1.34109654e-04
6.25000000e-01	1.30825704e-02	1.35076043e-04
6.26000000e-01	1.28989085e-02	1.32761902e-04
6.27000000e-01	1.30825637e-02	1.34813192e-04
6.28000000e-01	1.29989895e-02	1.34284909e-04
6.29000000e-01	1.30152605e-02	1.34231194e-04
6.30000000e-01	1.30690229e-02	1.34840843e-04
6.31000000e-01	1.30087049e-02	1.34381487e-04
6.32000000e-01	1.31159624e-02	1.35442455e-04
6.33000000e-01	1.29961412e-02	1.33667273e-04
6.34000000e-01	1.30790480e-02	1.38137745e-04
6.35000000e-01	1.30246219e-02	1.41596372e-04
6.36000000e-01	1.30919138e-02	1.44961830e-04
6.37000000e-01	1.30522499e-02	1.46709038e-04
6.38000000e-01	1.29217033e-02	1.47616677e-04
6.39000000e-01	1.29460028e-02	1.49087143e-04
6.40000000e-01	1.31026592e-02	1.53342517e-04
6.41000000e-01	1.29790543e-02	1.53350503e-04
6.42000000e-01	1.30323137e-02	1.55812580e-04
6.43000000e-01	1.30292051e-02	1.55742678e-04
6.44000000e-01	1.30012865e-02	1.49789115e-04
6.45000000e-01	1.29908870e-02	1.47746162e-04
6.46000000e-01	1.31431470e-02	1.47792249e-04
6.47000000e-01	1.31122553e-02	1.45804405e-04
6.48000000e-01	1.30622600e-02	1.45227505e-04
6.49000000e-01	1.31132510e-02	1.44624756e-04
6.50000000e-01	1.30107171e-02	1.42804631e-04
6.51000000e-01	1.29769352e-02	1.41785887e-04
6.52000000e-01	1.31824471e-02	1.43752904e-04
6.53000000e-01	1.29055721e-02	1.40386105e-04
6.54000000e-01	1.30128956e-02	1.40764099e-04
6.55000000e-01	1.29520224e-02	1.40189608e-04
6.56000000e-01	1.29905261e-02	1.40716934e-04
6.57000000e-01	1.29989078e-02	1.40213166e-04
6.58000000e-01	1.29025773e-02	1.38971417e-04
6.59000000e-01	1.28489578e-02	1.38112389e-04
6.60000000e-01	1.31134844e-02	1.40659017e-04
6.61000000e-01	1.29964485e-02	1.39484771e-04
6.62000000e-01	1.30093845e-02	1.39645965e-04
6.63000000e-01	1.28877757e-02	1.38677799e-04
6.64000000e-01	1.28850885e-02	1.38425852e-04
6.65000000e-01	1.30454823e-02	1.39728463e-04
6.66000000e-01	1.30032433e-02	1.39257606e-04
6.67000000e-01	1.28646354e-02	1.38213576e-04
6.68000000e-01	1.27638176e-02	1.37554463e-04
6.69000000e-01	1.28788422e-02	1.37825294e-04
6.70000000e-01	1.29667636e-02	1.38542571e-04
6.71000000e-01	1.28257836e-02	1.37445215e-04
6.72000000e-01	1.28825895e-02	1.37730747e-04
6.73000000e-01	1.28430872e-02	1.37039368e-04
6.74000000e-01	1.28811308e-02	1.37839605e-04
6.75000000e-01	1.28035991e-02	1.37234145e-04
6.76000000e-01	1.27473410e-02	1.36523768e-04
6.77000000e-01	1.27800489e-02	1.36540950e-04
6.78000000e-01	1.27602128e-02	1.36906844e-04
6.79000000e-01	1.27923694e-02	1.36585990e-04
6.80000000e-01	1.28608908e-02	1.37069866e-04
6.81000000e-01	1.28394316e-02	1.37097251e-04
6.82000000e-01	1.27668133e-02	1.36616538e-04
6.83000000e-01	1.26506319e-02	1.34910838e-04
6.84000000e-01	1.27711646e-02	1.35850625e-04
6.85000000e-01	1.26341887e-02	1.34930185e-04
6.86000000e-01	1.27362386e-02	1.35797703e-04
6.87000000e-01	1.27043227e-02	1.35332329e-04
6.88000000e-01	1.27622944e-02	1.35963202e-04
6.89000000e-01	1.26858727e-02	1.35472085e-04
6.90000000e-01	1.26365398e-02	1.34566016e-04
6.91000000e-01	1.26925994e-02	1.35175359e-04
6.92000000e-01	1.27014503e-02	1.35608101e-04
6.93000000e-01	1.26914914e-02	1.35402166e-04
6.94000000e-01	1.26532512e-02	1.34921157e-04
6.95000000e-01	1.24702870e-02	1.33047596e-04
6.96000000e-01	1.25494935e-02	1.34279552e-04
6.97000000e-01	1.24798095e-02	1.33246721e-04
6.98000000e-01	1.28306495e-02	1.36302721e-04
6.99000000e-01	1.27342439e-02	1.35418383e-04
7.00000000e-01	1.27193666e-02	1.35404307e-04
7.01000000e-01	1.25653390e-02	1.34191695e-04
7.02000000e-01	1.26372958e-02	1.34799640e-04
7.03000000e-01	1.25668262e-02	1.33706312e-04
7.04000000e-01	1.25669278e-02	1.33844905e-04
7.05000000e-01	1.25801460e-02	1.34227216e-04
7.06000000e-01	1.24665500e-02	1.33254636e-04
7.07000000e-01	1.25934217e-02	1.33710520e-04
7.08000000e-01	1.25501519e-02	1.32765085e-04
7.09000000e-01	1.25237551e-02	1.33559644e-04
7.10000000e-01	1.23587907e-02	1.32290578e-04
7.11000000e-01	1.24023086e-02	1.32686311e-04
7.12000000e-01	1.23838048e-02	1.31822966e-04
7.13000000e-01	1.23871946e-02	1.32062986e-04
7.14000000e-01	1.24159827e-02	1.31746194e-04
7.15000000e-01	1.23164322e-02	1.31740411e-04
7.16000000e-01	1.23678849e-02	1.31810416e-04
7.17000000e-01	1.23317761e-02	1.31400229e-04
7.18000000e-01	1.22848270e-02	1.31241193e-04
7.19000000e-01	1.23890661e-02	1.32225324e-04
7.20000000e-01	1.24177412e-02	1.32199073e-04
7.21000000e-01	1.21774872e-02	1.30410011e-04
7.22000000e-01	1.22378265e-02	1.30863672e-04
7.23000000e-01	1.23527424e-02	1.32105988e-04
7.24000000e-01	1.22176975e-02	1.30444130e-04
7.25000000e-01	1.24153756e-02	1.32309363e-04
7.26000000e-01	1.22431114e-02	1.30638312e-04
7.27000000e-01	1.22569051e-02	1.31039337e-04
7.28000000e-01	1.22014683e-02	1.30720000e-04
7.29000000e-01	1.22299413e-02	1.30619921e-04
7.30000000e-01	1.23381703e-02	1.31310765e-04
7.31000000e-01	1.21249258e-02	1.28972748e-04
7.32000000e-01	1.22844719e-02	1.30798146e-04
7.33000000e-01	1.21761984e-02	1.29474759e-04
7.34000000e-01	1.22160088e-02	1.30384771e-04
7.35000000e-01	1.21675447e-02	1.29481563e-04
7.36000000e-01	1.21564951e-02	1.29550788e-04
7.37000000e-01	1.21163065e-02	1.28813726e-04
7.38000000e-01	1.20397296e-02	1.28022705e-04
7.39000000e-01	1.22543453e-02	1.29471740e-04
7.40000000e-01	1.22698107e-02	1.29728928e-04
7.41000000e-01	1.21464282e-02	1.28024966e-04
7.42000000e-01	1.21345034e-02	1.28096381e-04
7.43000000e-01	1.20907343e-02	1.27909565e-04
7.44000000e-01	1.20437515e-02	1.27564283e-04
7.45000000e-01	1.20979618e-02	1.27888207e-04
7.46000000e-01	1.20394019e-02	1.27227556e-04
7.47000000e-01	1.21176890e-02	1.28113908e-04
7.48000000e-01	1.19785668e-02	1.27113367e-04
7.49000000e-01	1.20654895e-02	1.27659968e-04
7.50000000e-01	1.20329790e-02	1.27298777e-04
7.51000000e-01	1.19987675e-02	1.26958998e-04
7.52000000e-01	1.19000367e-02	1.26020179e-04
7.53000000e-01	1.20959490e-02	1.27568109e-04
7.54000000e-01	1.19937415e-02	1.26843956e-04
7.55000000e-01	1.21039346e-02	1.28191194e-04
7.56000000e-01	1.19746326e-02	1.26877638e-04
7.57000000e-01	1.19455224e-02	1.25842057e-04
7.58000000e-01	1.19877946e-02	1.26652193e-04
7.59000000e-01	1.20190066e-02	1.27127588e-04
7.60000000e-01	1.20953557e-02	1.27745146e-04
7.61000000e-01	1.19854123e-02	1.26289913e-04
7.62000000e-01	1.19363132e-02	1.25786165e-04
7.63000000e-01	1.20008317e-02	1.26231442e-04
7.64000000e-01	1.18605723e-02	1.25000552e-04
7.65000000e-01	1.19030513e-02	1.24786449e-04
7.66000000e-01	1.20123425e-02	1.25604548e-04
7.67000000e-01	1.18573400e-02	1.24936622e-04
7.68000000e-01	1.19174617e-02	1.25003398e-04
7.69000000e-01	1.18117448e-02	1.23904551e-04
7.70000000e-01	1.18587631e-02	1.24487446e-04
7.71000000e-01	1.18072071e-02	1.24120747e-04
7.72000000e-01	1.17656616e-02	1.27142505e-04
7.73000000e-01	1.18818962e-02	1.32585219e-04
7.74000000e-01	1.19443780e-02	1.35793288e-04
7.75000000e-01	1.16421452e-02	1.35284092e-04
7.76000000e-01	1.18005549e-02	1.38923192e-04
7.77000000e-01	1.17939345e-02	1.41108420e-04
7.78000000e-01	1.18380448e-02	1.43149454e-04
7.79000000e-01	1.17586629e-02	1.43648129e-04
7.80000000e-01	1.16670314e-02	1.44689322e-04
7.81000000e-01	1.16062334e-02	1.45274207e-04
7.82000000e-01	1.18222369e-02	1.49599514e-04
7.83000000e-01	1.17536320e-02	1.51283566e-04
7.84000000e-01	1.17126460e-02	1.51921304e-04
7.85000000e-01	1.17149052e-02	1.53377044e-04
7.86000000e-01	1.16721468e-02	1.54628611e-04
7.87000000e-01	1.15876711e-02	1.54678855e-04
7.88000000e-01	1.16855013e-02	1.57881468e-04
7.89000000e-01	1.15538186e-02	1.56849720e-04
7.90000000e-01	1.16402156e-02	1.59615383e-04
7.91000000e-01	1.16289267e-02	1.60737671e-04
7.92000000e-01	1.14344612e-02	1.60245549e-04
7.93000000e-01	1.16085934e-02	1.64427903e-04
7.94000000e-01	1.15615854e-02	1.66116329e-04
7.95000000e-01	1.13030809e-02	1.64225640e-04
7.96000000e-01	1.15484772e-02	1.68557127e-04
7.97000000e-01	1.14588351e-02	1.69413919e-04
7.98000000e-01	1.16317717e-02	1.73844835e-04
7.99000000e-01	1.14086485e-02	1.72675461e-04
8.00000000e-01	1.15130611e-02	1.75463432e-04
8.01000000e-01	1.14846358e-02	1.76313517e-04
8.02000000e-01	1.15833760e-02	1.79751179e-04
8.03000000e-01	1.15786905e-02	1.81782534e-04
8.04000000e-01	1.14782515e-02	1.83011462e-04
8.05000000e-01	1.14463206e-02	1.83227896e-04
8.06000000e-01	1.13668162e-02	1.84862990e-04
8.07000000e-01	1.13904137e-02	1.85594214e-04
8.08000000e-01	1.13886607e-02	1.90532063e-04
8.09000000e-01	1.13358175e-02	1.89761697e-04
8.10000000e-01	1.14631056e-02	1.94255878e-04
8.11000000e-01	1.14154105e-02	1.95985044e-04
8.12000000e-01	1.15384251e-02	1.99174863e-04
8.13000000e-01	1.11105131e-02	1.96644041e-04
8.14000000e-01	1.14015540e-02	2.03051806e-04
8.15000000e-01	1.12096982e-02	2.01951948e-04
8.16000000e-01	1.13360212e-02	2.06636326e-04
8.17000000e-01	1.10962801e-02	2.05808458e-04
8.18000000e-01	1.12463639e-02	2.10705960e-04
8.19000000e-01	1.13671705e-02	2.14008051e-04
8.20000000e-01	1.14360668e-02	2.19581073e-04
8.21000000e-01	1.12354909e-02	2.17765686e-04
8.22000000e-01	1.10678703e-02	2.18403995e-04
8.23000000e-01	1.11650922e-02	2.22703431e-04
8.24000000e-01	1.12803849e-02	2.27893936e-04
8.25000000e-01	1.12330685e-02	2.28659588e-04
8.26000000e-01	1.11546155e-02	2.32089921e-04
8.27000000e-01	1.08107413e-02	2.27194233e-04
8.28000000e-01	1.12397714e-02	2.39703923e-04
8.29000000e-01	1.13897397e-02	2.46523652e-04
8.30000000e-01	1.10438091e-02	2.43698097e-04
8.31000000e-01	1.09633094e-02	2.46518652e-04
8.32000000e-01	1.09055626e-02	2.49417255e-04
8.33000000e-01	1.10628687e-02	2.58116731e-04
8.34000000e-01	1.07473619e-02	2.55759536e-04
8.35000000e-01	1.11567820e-02	2.70043334e-04
8.36000000e-01	1.09434575e-02	2.67449733e-04
8.37000000e-01	1.09944532e-02	2.76652438e-04
8.38000000e-01	1.07748590e-02	2.73935126e-04
8.39000000e-01	1.10635968e-02	2.87907105e-04
8.40000000e-01	1.07843138e-02	2.86235880e-04
8.41000000e-01	1.06851777e-02	2.91883057e-04
8.42000000e-01	1.07164438e-02	2.99267490e-04
8.43000000e-01	1.07923673e-02	3.05597635e-04
8.44000000e-01	1.06259685e-02	3.13414803e-04
8.45000000e-01	1.08632355e-02	3.25702153e-04
8.46000000e-01	1.07582607e-02	3.31282701e-04
8.47000000e-01	1.08246271e-02	3.44429515e-04
8.48000000e-01	1.07273912e-02	3.50021613e-04
8.49000000e-01	1.07579014e-02	3.62513885e-04
8.50000000e-01	1.07776816e-02	3.75859597e-04
8.51000000e-01	1.05127926e-02	3.79206549e-04
8.52000000e-01	1.07061717e-02	4.03118393e-04
8.53000000e-01	1.06778103e-02	4.27811029e-04
8.54000000e-01	1.04712234e-02	4.33372640e-04
8.55000000e-01	1.06566327e-02	4.51801007e-04
8.56000000e-01	1.04332270e-02	4.57643848e-04
8.57000000e-01	1.04790443e-02	4.70824360e-04
8.58000000e-01	1.05080918e-02	4.93145633e-04
8.59000000e-01	1.06035031e-02	5.13000185e-04
8.60000000e-01	1.02653654e-02	5.07718259e-04
8.61000000e-01	1.05274720e-02	5.38368404e-04
8.62000000e-01	1.01705342e-02	5.37410830e-04
8.63000000e-01	1.03533169e-02	5.66911347e-04
8.64000000e-01	1.01101247e-02	5.90861567e-04
8.65000000e-01	1.03225980e-02	6.18926063e-04
8.66000000e-01	1.03299988e-02	6.51668071e-04
8.67000000e-01	1.02767192e-02	7.05621024e-04
8.68000000e-01	1.07410074e-02	7.76915674e-04
8.69000000e-01	1.02622489e-02	7.82184099e-04
8.70000000e-01	9.77645679e-03	8.22561472e-04
8.71000000e-01	1.00521379e-02	9.33835122e-04
8.72000000e-01	9.99391553e-03	1.05320595e-03
8.73000000e-01	1.00485431e-02	1.27845232e-03
8.74000000e-01	1.12156885e-02	1.78326093e-03
8.75000000e-01	1.11211255e-02	3.42188214e-03
