% Filename : SDL7c_00026_00022.h5
% Date & Time : 30-Oct-2025 17:02:09
% X-ray Energy (keV) : 13.30001
% Exposure Time (s) : 0.500
% Beam Center : 1461.24000, 208.98300
% Sample to Detector Distance (SDD) (mm) : 1990.750
% Detector Pixel Size (mm) : 0.075
% Photodiode Value : 141264.000
% I0 of Sample : 0
% I0 of Standard : 1
% 
% q(A^-1)   I(q)    I(q)_SE
0.00000000e+00	1.27893470e-02	7.00502349e-03
2.50000000e-04	0.00000000e+00	0.00000000e+00
5.00000000e-04	0.00000000e+00	0.00000000e+00
7.50000000e-04	0.00000000e+00	0.00000000e+00
1.00000000e-03	0.00000000e+00	0.00000000e+00
1.25000000e-03	0.00000000e+00	0.00000000e+00
1.50000000e-03	0.00000000e+00	0.00000000e+00
1.75000000e-03	0.00000000e+00	0.00000000e+00
2.00000000e-03	0.00000000e+00	0.00000000e+00
2.25000000e-03	0.00000000e+00	0.00000000e+00
2.50000000e-03	0.00000000e+00	0.00000000e+00
2.75000000e-03	0.00000000e+00	0.00000000e+00
3.00000000e-03	0.00000000e+00	0.00000000e+00
3.25000000e-03	6.70946615e+01	6.06423458e+01
3.50000000e-03	1.33219646e+01	1.02629423e+01
3.75000000e-03	7.57249184e+00	5.59060925e+00
4.00000000e-03	5.02558906e+00	3.14129202e+00
4.25000000e-03	1.39890777e+00	3.17870316e-01
4.50000000e-03	3.14901216e+00	1.61874211e+00
4.75000000e-03	3.27651423e+00	1.32599276e+00
5.00000000e-03	2.56722910e+00	1.02329757e+00
5.25000000e-03	2.16781033e+00	8.37913072e-01
5.50000000e-03	1.77491407e+00	6.58971810e-01
5.75000000e-03	1.56167999e+00	5.80838096e-01
6.00000000e-03	1.27158047e+00	4.31767734e-01
6.25000000e-03	1.11433201e+00	3.85544187e-01
6.50000000e-03	9.53547867e-01	3.20350701e-01
6.75000000e-03	8.55062276e-01	2.92220811e-01
7.00000000e-03	7.12236342e-01	2.33063218e-01
7.25000000e-03	6.32269400e-01	2.16115923e-01
7.50000000e-03	5.29810851e-01	1.78063632e-01
7.75000000e-03	4.88009254e-01	1.66246662e-01
8.00000000e-03	4.25138864e-01	1.41673103e-01
8.25000000e-03	3.74113679e-01	1.24285555e-01
8.50000000e-03	3.30180974e-01	1.06433548e-01
8.75000000e-03	3.01831610e-01	9.83904310e-02
9.00000000e-03	2.68550501e-01	8.59302108e-02
9.25000000e-03	2.32368792e-01	7.29445356e-02
9.50000000e-03	2.08993500e-01	6.34588364e-02
9.75000000e-03	1.87869140e-01	5.60139514e-02
1.00000000e-02	1.76253464e-01	5.23821426e-02
1.02500000e-02	1.58003281e-01	4.35628123e-02
1.05000000e-02	1.49726968e-01	4.16292504e-02
1.07500000e-02	1.35990566e-01	3.61850276e-02
1.10000000e-02	1.26603756e-01	3.56593790e-02
1.12500000e-02	1.02233179e-01	2.59790123e-02
1.15000000e-02	1.09279976e-01	2.91595641e-02
1.17500000e-02	9.45781297e-02	2.46844774e-02
1.20000000e-02	9.42284718e-02	2.51169875e-02
1.22500000e-02	8.73870967e-02	2.16519155e-02
1.25000000e-02	8.38498907e-02	2.15697065e-02
1.27500000e-02	7.63429422e-02	1.85939906e-02
1.30000000e-02	7.57527174e-02	1.89446623e-02
1.32500000e-02	6.89267746e-02	1.57415465e-02
1.35000000e-02	6.59153104e-02	1.46849612e-02
1.37500000e-02	6.14054765e-02	1.40635808e-02
1.40000000e-02	5.89303374e-02	1.18873522e-02
1.42500000e-02	5.57363685e-02	1.07614005e-02
1.45000000e-02	5.23985582e-02	9.65415412e-03
1.47500000e-02	5.10293335e-02	9.99710042e-03
1.50000000e-02	4.87958040e-02	8.18403890e-03
1.52500000e-02	4.75094833e-02	8.55061421e-03
1.55000000e-02	4.37098917e-02	7.14623836e-03
1.57500000e-02	4.41297379e-02	7.83263808e-03
1.60000000e-02	4.01660173e-02	6.36049042e-03
1.62500000e-02	4.06631430e-02	6.87703520e-03
1.65000000e-02	3.92098617e-02	5.74403288e-03
1.67500000e-02	3.83898378e-02	6.36621933e-03
1.70000000e-02	3.83343622e-02	5.92436595e-03
1.72500000e-02	3.74625678e-02	5.30647685e-03
1.75000000e-02	3.60319646e-02	5.14882493e-03
1.77500000e-02	3.53779252e-02	4.47062278e-03
1.80000000e-02	3.49728294e-02	4.69737833e-03
1.82500000e-02	3.35947187e-02	4.06159879e-03
1.85000000e-02	3.32820806e-02	4.12512899e-03
1.87500000e-02	3.11948655e-02	3.55039382e-03
1.90000000e-02	3.15914018e-02	3.29938210e-03
1.92500000e-02	3.10346850e-02	3.09413626e-03
1.95000000e-02	2.94786546e-02	3.14100081e-03
1.97500000e-02	3.02334253e-02	2.93312367e-03
2.00000000e-02	2.76405465e-02	2.17534129e-03
2.02500000e-02	2.93083702e-02	2.52548203e-03
2.05000000e-02	2.87216401e-02	2.65307165e-03
2.07500000e-02	2.79770901e-02	2.23837826e-03
2.10000000e-02	2.75866426e-02	2.66244594e-03
2.12500000e-02	2.84049970e-02	2.41594345e-03
2.15000000e-02	2.77847748e-02	2.36264563e-03
2.17500000e-02	2.76449123e-02	2.32093684e-03
2.20000000e-02	2.71368455e-02	2.25752836e-03
2.22500000e-02	2.80237487e-02	2.24181855e-03
2.25000000e-02	2.69496768e-02	2.05636307e-03
2.27500000e-02	2.69081142e-02	2.05884059e-03
2.30000000e-02	2.52428807e-02	1.86896628e-03
2.32500000e-02	2.65143875e-02	1.90349918e-03
2.35000000e-02	2.64382466e-02	1.92873152e-03
2.37500000e-02	2.58521489e-02	1.85880929e-03
2.40000000e-02	2.57655406e-02	1.76507831e-03
2.42500000e-02	2.53198537e-02	1.79604735e-03
2.45000000e-02	2.51975627e-02	1.58311489e-03
2.47500000e-02	2.49987520e-02	1.52420259e-03
2.50000000e-02	2.51724034e-02	1.61989368e-03
2.52500000e-02	2.57880956e-02	1.68373544e-03
2.55000000e-02	2.48684258e-02	1.50900283e-03
2.57500000e-02	2.44461138e-02	1.50403092e-03
2.60000000e-02	2.51258802e-02	1.52632384e-03
2.62500000e-02	2.39607102e-02	1.51748318e-03
2.65000000e-02	2.45123509e-02	1.48739629e-03
2.67500000e-02	2.48107549e-02	1.48691198e-03
2.70000000e-02	2.50469726e-02	1.47480328e-03
2.72500000e-02	2.56518013e-02	1.45563483e-03
2.75000000e-02	2.45072677e-02	1.31634568e-03
2.77500000e-02	2.39722732e-02	1.33199778e-03
2.80000000e-02	2.40655910e-02	1.33996651e-03
2.82500000e-02	2.36174326e-02	1.23604528e-03
2.85000000e-02	2.45366679e-02	1.33657638e-03
2.87500000e-02	2.38189065e-02	1.25335495e-03
2.90000000e-02	2.42144525e-02	1.32690105e-03
2.92500000e-02	2.47472216e-02	1.28511765e-03
2.95000000e-02	2.53655252e-02	1.29314393e-03
2.97500000e-02	2.39720863e-02	1.21565175e-03
3.00000000e-02	2.42887107e-02	1.26203579e-03
3.02500000e-02	2.41224100e-02	1.28809351e-03
3.05000000e-02	2.46515242e-02	1.23827064e-03
3.07500000e-02	2.46900756e-02	1.27427568e-03
3.10000000e-02	2.30162569e-02	1.13601465e-03
3.12500000e-02	2.43694220e-02	1.23390551e-03
3.15000000e-02	2.31574717e-02	1.16842862e-03
3.17500000e-02	2.39914452e-02	1.16232639e-03
3.20000000e-02	2.39730867e-02	1.15467153e-03
3.22500000e-02	2.37608957e-02	1.16792830e-03
3.25000000e-02	2.31794197e-02	1.13863977e-03
3.27500000e-02	2.29642773e-02	1.12567193e-03
3.30000000e-02	2.26315222e-02	1.07357793e-03
3.32500000e-02	2.21240026e-02	1.06703877e-03
3.35000000e-02	2.29111599e-02	1.10311936e-03
3.37500000e-02	2.23751412e-02	1.07603166e-03
3.40000000e-02	2.32814845e-02	1.12128597e-03
3.42500000e-02	2.32333028e-02	1.08272821e-03
3.45000000e-02	2.29104269e-02	1.10071728e-03
3.47500000e-02	2.19030694e-02	1.03459060e-03
3.50000000e-02	2.33520966e-02	1.12298374e-03
3.52500000e-02	2.18742288e-02	1.02200293e-03
3.55000000e-02	2.23951210e-02	1.05443270e-03
3.57500000e-02	2.23474646e-02	1.02523643e-03
3.60000000e-02	2.22269472e-02	1.04208137e-03
3.62500000e-02	2.27888108e-02	1.07786423e-03
3.65000000e-02	2.25854051e-02	1.04288026e-03
3.67500000e-02	2.22029670e-02	9.99610719e-04
3.70000000e-02	2.18364295e-02	9.99477773e-04
3.72500000e-02	2.17703665e-02	9.86434056e-04
3.75000000e-02	2.20357848e-02	1.01055594e-03
3.77500000e-02	2.19329640e-02	1.00614393e-03
3.80000000e-02	2.19362629e-02	9.77183357e-04
3.82500000e-02	2.19915848e-02	9.91028634e-04
3.85000000e-02	2.19298087e-02	9.84611493e-04
3.87500000e-02	2.12761789e-02	9.47492203e-04
3.90000000e-02	2.12835583e-02	9.59002765e-04
3.92500000e-02	2.20155361e-02	9.73576609e-04
3.95000000e-02	2.22336473e-02	9.84600595e-04
3.97500000e-02	2.17929809e-02	9.63023946e-04
4.00000000e-02	2.15386006e-02	9.63269059e-04
4.02500000e-02	2.11959055e-02	9.37406020e-04
4.05000000e-02	2.18213190e-02	9.54018167e-04
4.07500000e-02	2.09289207e-02	9.09627105e-04
4.10000000e-02	2.16978042e-02	9.49179677e-04
4.12500000e-02	2.19976017e-02	9.55580339e-04
4.15000000e-02	2.12407793e-02	9.19994371e-04
4.17500000e-02	2.21228299e-02	9.48370888e-04
4.20000000e-02	2.17070442e-02	9.18357480e-04
4.22500000e-02	2.20802047e-02	9.40062852e-04
4.25000000e-02	2.10758652e-02	8.97352702e-04
4.27500000e-02	2.15892527e-02	9.23579685e-04
4.30000000e-02	2.17913459e-02	9.30919060e-04
4.32500000e-02	2.12396392e-02	8.99053493e-04
4.35000000e-02	2.04881177e-02	8.91788057e-04
4.37500000e-02	2.13599159e-02	9.08077114e-04
4.40000000e-02	2.16378386e-02	9.12564510e-04
4.42500000e-02	2.11352794e-02	8.96393942e-04
4.45000000e-02	2.04244892e-02	8.53093762e-04
4.47500000e-02	2.13056932e-02	8.95940116e-04
4.50000000e-02	2.09245750e-02	8.78998257e-04
4.52500000e-02	2.09949831e-02	8.79636652e-04
4.55000000e-02	2.15325314e-02	8.99125982e-04
4.57500000e-02	2.09598327e-02	8.59301284e-04
4.60000000e-02	2.03819359e-02	8.45914776e-04
4.62500000e-02	2.16231025e-02	8.91390275e-04
4.65000000e-02	2.14838716e-02	8.93712578e-04
4.67500000e-02	2.15800935e-02	8.78483281e-04
4.70000000e-02	2.07904950e-02	8.52144115e-04
4.72500000e-02	2.05628974e-02	8.44327443e-04
4.75000000e-02	2.11023642e-02	8.63876466e-04
4.77500000e-02	2.07626967e-02	8.53125658e-04
4.80000000e-02	2.11833342e-02	8.63841367e-04
4.82500000e-02	2.05291932e-02	8.32746780e-04
4.85000000e-02	2.00259362e-02	8.28981199e-04
4.87500000e-02	2.07550406e-02	8.42333552e-04
4.90000000e-02	2.05251879e-02	8.38533020e-04
4.92500000e-02	2.15227767e-02	8.69618049e-04
4.95000000e-02	2.07414168e-02	8.32110616e-04
4.97500000e-02	2.12495021e-02	8.58164154e-04
5.00000000e-02	2.02119502e-02	8.20252577e-04
5.02500000e-02	2.17629570e-02	8.73485770e-04
5.05000000e-02	2.11793060e-02	8.48114170e-04
5.07500000e-02	2.07109822e-02	8.27467760e-04
5.10000000e-02	2.05526579e-02	8.30871892e-04
5.12500000e-02	2.03431549e-02	8.23564817e-04
5.15000000e-02	2.07078972e-02	8.13501664e-04
5.17500000e-02	2.05997136e-02	8.19987912e-04
5.20000000e-02	2.06212648e-02	8.16828629e-04
5.22500000e-02	2.05030337e-02	8.17389648e-04
5.25000000e-02	2.06828030e-02	8.09115873e-04
5.27500000e-02	2.07706769e-02	8.17660058e-04
5.30000000e-02	2.05642422e-02	8.16358405e-04
5.32500000e-02	2.08765396e-02	8.22678887e-04
5.35000000e-02	2.06616412e-02	8.10804665e-04
5.37500000e-02	2.07911761e-02	8.07714328e-04
5.40000000e-02	2.02075526e-02	7.87461801e-04
5.42500000e-02	2.04282571e-02	7.89418820e-04
5.45000000e-02	2.10184781e-02	8.24298596e-04
5.47500000e-02	2.01196784e-02	7.73256425e-04
5.50000000e-02	2.07229178e-02	7.95820389e-04
5.52500000e-02	2.07146455e-02	7.98372864e-04
5.55000000e-02	2.08098231e-02	7.99573323e-04
5.57500000e-02	2.07132723e-02	8.08190934e-04
5.60000000e-02	2.08400950e-02	7.98724903e-04
5.62500000e-02	2.03561945e-02	7.84894941e-04
5.65000000e-02	2.06478046e-02	7.93958375e-04
5.67500000e-02	2.11016753e-02	8.04038200e-04
5.70000000e-02	2.05609793e-02	7.88052532e-04
5.72500000e-02	2.11451611e-02	7.98400490e-04
5.75000000e-02	2.10196256e-02	8.00608996e-04
5.77500000e-02	2.09632732e-02	7.89857334e-04
5.80000000e-02	1.99174170e-02	7.59472889e-04
5.82500000e-02	2.08081423e-02	7.85262567e-04
5.85000000e-02	1.99177333e-02	7.51365472e-04
5.87500000e-02	2.05176498e-02	7.66671750e-04
5.90000000e-02	1.99578075e-02	7.53834315e-04
5.92500000e-02	2.05032547e-02	7.66529722e-04
5.95000000e-02	2.04325435e-02	7.61298252e-04
5.97500000e-02	2.03428560e-02	7.65223541e-04
6.00000000e-02	2.05107837e-02	7.68722454e-04
6.02500000e-02	2.03692928e-02	7.61467285e-04
6.05000000e-02	2.04062146e-02	7.60529527e-04
6.07500000e-02	2.01744566e-02	7.51746339e-04
6.10000000e-02	1.97538703e-02	7.30084721e-04
6.12500000e-02	2.00126066e-02	7.41368779e-04
6.15000000e-02	2.05423785e-02	7.53513385e-04
6.17500000e-02	1.96096585e-02	7.23176775e-04
6.20000000e-02	2.04201757e-02	7.48569731e-04
6.22500000e-02	2.01150480e-02	7.43287406e-04
6.25000000e-02	2.03311195e-02	7.43528305e-04
6.27500000e-02	2.00163839e-02	7.24963794e-04
6.30000000e-02	2.00647272e-02	7.36453934e-04
6.32500000e-02	2.03641423e-02	7.42561657e-04
6.35000000e-02	2.01125431e-02	7.30198434e-04
6.37500000e-02	2.00166732e-02	7.27651527e-04
6.40000000e-02	1.99206991e-02	7.27749000e-04
6.42500000e-02	2.00411679e-02	7.22890930e-04
6.45000000e-02	2.04859045e-02	7.41032817e-04
6.47500000e-02	2.03156636e-02	7.32746425e-04
6.50000000e-02	2.02617633e-02	7.35029180e-04
6.52500000e-02	2.00821400e-02	7.22894997e-04
6.55000000e-02	1.97040351e-02	7.06129348e-04
6.57500000e-02	2.03817227e-02	7.30782133e-04
6.60000000e-02	2.04309577e-02	7.32235185e-04
6.62500000e-02	2.01286632e-02	7.23500296e-04
6.65000000e-02	2.01764845e-02	7.21325006e-04
6.67500000e-02	1.99832220e-02	7.09299828e-04
6.70000000e-02	2.06859038e-02	7.43677752e-04
6.72500000e-02	1.98050585e-02	7.13310383e-04
6.75000000e-02	2.02037577e-02	7.10158826e-04
6.77500000e-02	2.01129671e-02	7.14358309e-04
6.80000000e-02	2.03875236e-02	7.26676033e-04
6.82500000e-02	2.01835201e-02	7.15058065e-04
6.85000000e-02	2.03067065e-02	7.26923670e-04
6.87500000e-02	2.02709290e-02	7.11153368e-04
6.90000000e-02	1.97998719e-02	6.98896049e-04
6.92500000e-02	1.97655084e-02	6.98432170e-04
6.95000000e-02	2.04209822e-02	7.24953834e-04
6.97500000e-02	1.99629325e-02	7.00551199e-04
7.00000000e-02	2.08031742e-02	7.23309899e-04
7.02500000e-02	2.00551902e-02	7.00800259e-04
7.05000000e-02	1.98950548e-02	6.92264676e-04
7.07500000e-02	2.03069864e-02	7.08652465e-04
7.10000000e-02	1.98952696e-02	6.89144208e-04
7.12500000e-02	1.98131448e-02	6.92359673e-04
7.15000000e-02	2.03645156e-02	7.07282345e-04
7.17500000e-02	1.99532315e-02	6.95210317e-04
7.20000000e-02	1.99339765e-02	6.98729544e-04
7.22500000e-02	1.98386047e-02	6.93135151e-04
7.25000000e-02	1.97062617e-02	6.78215315e-04
7.27500000e-02	1.99342689e-02	6.90822238e-04
7.30000000e-02	2.02571123e-02	6.98912526e-04
7.32500000e-02	2.04026062e-02	7.02859801e-04
7.35000000e-02	1.97597225e-02	6.83583682e-04
7.37500000e-02	1.98322108e-02	6.77966593e-04
7.40000000e-02	2.01031919e-02	6.87999955e-04
7.42500000e-02	2.00049947e-02	6.85917520e-04
7.45000000e-02	1.97768342e-02	6.70197738e-04
7.47500000e-02	1.96117246e-02	6.63704551e-04
7.50000000e-02	1.95613041e-02	6.65767505e-04
7.52500000e-02	1.98012882e-02	6.76618796e-04
7.55000000e-02	1.99398783e-02	6.79554738e-04
7.57500000e-02	1.96601845e-02	6.68331365e-04
7.60000000e-02	2.00269368e-02	6.82143874e-04
7.62500000e-02	2.01001191e-02	6.80627082e-04
7.65000000e-02	2.02181639e-02	6.85791860e-04
7.67500000e-02	2.05341923e-02	6.90800487e-04
7.70000000e-02	1.94953489e-02	6.54256324e-04
7.72500000e-02	1.97572284e-02	6.76617555e-04
7.75000000e-02	2.01110256e-02	6.90526278e-04
7.77500000e-02	1.99779211e-02	6.94497701e-04
7.80000000e-02	2.00508054e-02	6.99136670e-04
7.82500000e-02	2.02539690e-02	7.11574695e-04
7.85000000e-02	1.98640171e-02	7.01897659e-04
7.87500000e-02	2.00923567e-02	7.04721721e-04
7.90000000e-02	2.02001105e-02	7.15143140e-04
7.92500000e-02	2.01504939e-02	7.13335745e-04
7.95000000e-02	2.00959529e-02	7.17668394e-04
7.97500000e-02	2.00515419e-02	7.22293512e-04
8.00000000e-02	2.04941813e-02	7.32160795e-04
8.02500000e-02	1.94295167e-02	6.98891860e-04
8.05000000e-02	2.01587667e-02	7.22704817e-04
8.07500000e-02	2.04514189e-02	7.37775651e-04
8.10000000e-02	2.04696800e-02	7.38566534e-04
8.12500000e-02	1.96822767e-02	7.09770072e-04
8.15000000e-02	2.03331589e-02	7.35420587e-04
8.17500000e-02	2.00387947e-02	7.33840747e-04
8.20000000e-02	1.98698967e-02	7.21925998e-04
8.22500000e-02	1.97530593e-02	7.23482284e-04
8.25000000e-02	1.96727538e-02	7.20075190e-04
8.27500000e-02	1.94898055e-02	7.16496706e-04
8.30000000e-02	2.04307574e-02	7.47618103e-04
8.32500000e-02	1.93046526e-02	7.03656796e-04
8.35000000e-02	2.04014999e-02	7.53485682e-04
8.37500000e-02	1.99809115e-02	7.29063061e-04
8.40000000e-02	1.96859945e-02	7.21685233e-04
8.42500000e-02	2.03666204e-02	7.44117650e-04
8.45000000e-02	1.96550081e-02	7.30530133e-04
8.47500000e-02	1.93535304e-02	7.15222263e-04
8.50000000e-02	1.89568698e-02	7.02413147e-04
8.52500000e-02	2.01526341e-02	7.46890294e-04
8.55000000e-02	1.96940946e-02	7.20848776e-04
8.57500000e-02	1.92349530e-02	7.19185751e-04
8.60000000e-02	1.97785116e-02	7.30322841e-04
8.62500000e-02	1.98619534e-02	7.31199413e-04
8.65000000e-02	2.01186913e-02	7.42429666e-04
8.67500000e-02	1.94467399e-02	7.17119157e-04
8.70000000e-02	1.94945745e-02	7.13438932e-04
8.72500000e-02	1.95008716e-02	7.05313682e-04
8.75000000e-02	1.99748788e-02	7.08655392e-04
8.77500000e-02	1.95848293e-02	6.94250892e-04
8.80000000e-02	1.95590106e-02	6.92455593e-04
8.82500000e-02	1.96129415e-02	6.83674737e-04
8.85000000e-02	1.99305690e-02	6.92919569e-04
8.87500000e-02	1.94514472e-02	6.65132494e-04
8.90000000e-02	2.01132038e-02	6.91036297e-04
8.92500000e-02	1.98934979e-02	6.76857769e-04
8.95000000e-02	2.00260476e-02	6.85009063e-04
8.97500000e-02	1.96671532e-02	6.66690489e-04
9.00000000e-02	1.98220804e-02	6.75063270e-04
9.02500000e-02	1.95125767e-02	6.62950675e-04
9.05000000e-02	1.98032223e-02	6.70221861e-04
9.07500000e-02	1.98823029e-02	6.67530344e-04
9.10000000e-02	2.00769742e-02	6.71576510e-04
9.12500000e-02	2.03366663e-02	6.84151397e-04
9.15000000e-02	1.96502831e-02	6.57248796e-04
9.17500000e-02	2.00049589e-02	6.73210623e-04
9.20000000e-02	1.95330086e-02	6.49888802e-04
9.22500000e-02	1.93682621e-02	6.45651195e-04
9.25000000e-02	2.01746716e-02	6.70606547e-04
9.27500000e-02	1.96305279e-02	6.48087211e-04
9.30000000e-02	1.95489069e-02	6.49662562e-04
9.32500000e-02	2.00257730e-02	6.61171265e-04
9.35000000e-02	1.96362407e-02	6.46340823e-04
9.37500000e-02	1.96851475e-02	6.44049934e-04
9.40000000e-02	2.02628712e-02	6.68124310e-04
9.42500000e-02	1.96401536e-02	6.41422262e-04
9.45000000e-02	1.98664074e-02	6.49895616e-04
9.47500000e-02	2.00068796e-02	6.53802727e-04
9.50000000e-02	2.00951893e-02	6.51877526e-04
9.52500000e-02	1.95678345e-02	6.35861764e-04
9.55000000e-02	1.99851710e-02	6.46623319e-04
9.57500000e-02	1.98003689e-02	6.48013269e-04
9.60000000e-02	1.92181935e-02	6.26254065e-04
9.62500000e-02	2.07126066e-02	6.65873373e-04
9.65000000e-02	2.03454818e-02	6.55252378e-04
9.67500000e-02	2.01247772e-02	6.45504304e-04
9.70000000e-02	1.99725185e-02	6.41966627e-04
9.72500000e-02	2.00011653e-02	6.42906617e-04
9.75000000e-02	1.99971991e-02	6.41620585e-04
9.77500000e-02	2.00165842e-02	6.35488221e-04
9.80000000e-02	1.98545168e-02	6.33325460e-04
9.82500000e-02	2.00091020e-02	6.41891026e-04
9.85000000e-02	1.92550239e-02	6.14455888e-04
9.87500000e-02	1.94698213e-02	6.17188860e-04
9.90000000e-02	1.96835830e-02	6.26897997e-04
9.92500000e-02	2.02381994e-02	6.39396512e-04
9.95000000e-02	1.95934475e-02	6.19335156e-04
9.97500000e-02	1.95466052e-02	6.22906423e-04
1.00000000e-01	2.00961216e-02	5.17476018e-04
1.00500000e-01	1.99306649e-02	4.43436531e-04
1.01000000e-01	1.96538929e-02	4.37138116e-04
1.01500000e-01	1.97005227e-02	4.37862998e-04
1.02000000e-01	1.99586274e-02	4.39820529e-04
1.02500000e-01	1.97403404e-02	4.33161076e-04
1.03000000e-01	1.97610244e-02	4.34277124e-04
1.03500000e-01	1.99264297e-02	4.34084917e-04
1.04000000e-01	1.95138987e-02	4.28279868e-04
1.04500000e-01	1.95194137e-02	4.24530252e-04
1.05000000e-01	1.96868596e-02	4.24973260e-04
1.05500000e-01	1.97299643e-02	4.26877337e-04
1.06000000e-01	1.98498667e-02	4.26463422e-04
1.06500000e-01	1.98578949e-02	4.27598636e-04
1.07000000e-01	1.97355925e-02	4.32544365e-04
1.07500000e-01	1.95602618e-02	4.34724924e-04
1.08000000e-01	1.97540399e-02	4.40293294e-04
1.08500000e-01	1.98949258e-02	4.47713779e-04
1.09000000e-01	1.95141192e-02	4.44725025e-04
1.09500000e-01	1.96931807e-02	4.48573686e-04
1.10000000e-01	1.94029812e-02	4.36229480e-04
1.10500000e-01	1.96844635e-02	4.35768821e-04
1.11000000e-01	1.96164438e-02	4.25925990e-04
1.11500000e-01	1.96317018e-02	4.23362972e-04
1.12000000e-01	1.97945140e-02	4.22702969e-04
1.12500000e-01	2.01051941e-02	4.25222954e-04
1.13000000e-01	1.98187105e-02	4.18315988e-04
1.13500000e-01	1.96387107e-02	4.16616536e-04
1.14000000e-01	1.97615607e-02	4.15147031e-04
1.14500000e-01	1.97796515e-02	4.16481070e-04
1.15000000e-01	1.98512129e-02	4.14062157e-04
1.15500000e-01	1.97696535e-02	4.12112392e-04
1.16000000e-01	1.95748852e-02	4.07983042e-04
1.16500000e-01	1.96896717e-02	4.09371687e-04
1.17000000e-01	1.97641891e-02	4.09925336e-04
1.17500000e-01	1.98386413e-02	4.06919506e-04
1.18000000e-01	1.96927364e-02	4.05878688e-04
1.18500000e-01	1.95395172e-02	3.99711975e-04
1.19000000e-01	1.95795856e-02	4.02773913e-04
1.19500000e-01	1.94214255e-02	3.97543514e-04
1.20000000e-01	1.97201467e-02	4.01968145e-04
1.20500000e-01	2.00614094e-02	4.06177961e-04
1.21000000e-01	1.96596034e-02	3.99290772e-04
1.21500000e-01	1.95997587e-02	3.96100279e-04
1.22000000e-01	1.98607573e-02	4.00798967e-04
1.22500000e-01	1.95574970e-02	3.95189303e-04
1.23000000e-01	1.93910481e-02	3.91619585e-04
1.23500000e-01	1.97919051e-02	3.96743443e-04
1.24000000e-01	1.96409845e-02	3.91885157e-04
1.24500000e-01	1.95847339e-02	3.92206310e-04
1.25000000e-01	1.98365342e-02	3.94642387e-04
1.25500000e-01	1.98656800e-02	3.95633343e-04
1.26000000e-01	1.96193550e-02	3.89326833e-04
1.26500000e-01	1.93870080e-02	3.84451745e-04
1.27000000e-01	1.94941019e-02	3.86261987e-04
1.27500000e-01	1.93732035e-02	3.83153873e-04
1.28000000e-01	1.97704315e-02	3.89125143e-04
1.28500000e-01	1.93738213e-02	3.81642616e-04
1.29000000e-01	1.96146466e-02	3.83671916e-04
1.29500000e-01	1.98419307e-02	3.89209861e-04
1.30000000e-01	1.97101720e-02	3.84446301e-04
1.30500000e-01	1.92978086e-02	3.75777327e-04
1.31000000e-01	1.94409193e-02	3.78900912e-04
1.31500000e-01	1.95228566e-02	3.80933038e-04
1.32000000e-01	1.99359295e-02	3.88648313e-04
1.32500000e-01	1.98338317e-02	3.83954894e-04
1.33000000e-01	1.98313385e-02	3.82097875e-04
1.33500000e-01	1.93348697e-02	3.70657535e-04
1.34000000e-01	1.93587249e-02	3.73232549e-04
1.34500000e-01	1.97272910e-02	3.75807958e-04
1.35000000e-01	1.94612158e-02	3.71414211e-04
1.35500000e-01	1.94055235e-02	3.68789003e-04
1.36000000e-01	1.95686037e-02	3.71220070e-04
1.36500000e-01	1.94847757e-02	3.70478468e-04
1.37000000e-01	1.99622086e-02	3.74654284e-04
1.37500000e-01	1.92471301e-02	3.64908542e-04
1.38000000e-01	1.95901473e-02	3.69238209e-04
1.38500000e-01	1.94071828e-02	3.65200880e-04
1.39000000e-01	1.94418591e-02	3.65941941e-04
1.39500000e-01	1.95721759e-02	3.68881706e-04
1.40000000e-01	1.94790590e-02	3.68650028e-04
1.40500000e-01	1.92430885e-02	3.62126219e-04
1.41000000e-01	1.94228373e-02	3.66001064e-04
1.41500000e-01	1.94971190e-02	3.65064878e-04
1.42000000e-01	1.94021493e-02	3.62554125e-04
1.42500000e-01	1.95273080e-02	3.64227951e-04
1.43000000e-01	1.94084718e-02	3.63126000e-04
1.43500000e-01	1.93814182e-02	3.61705986e-04
1.44000000e-01	1.96990240e-02	3.65189274e-04
1.44500000e-01	1.92647660e-02	3.57210626e-04
1.45000000e-01	1.95506255e-02	3.60617222e-04
1.45500000e-01	1.94072861e-02	3.58009257e-04
1.46000000e-01	1.93447381e-02	3.56508379e-04
1.46500000e-01	1.97103874e-02	3.63852930e-04
1.47000000e-01	1.93840105e-02	3.55792054e-04
1.47500000e-01	1.94232702e-02	3.57368085e-04
1.48000000e-01	1.92950668e-02	3.53988569e-04
1.48500000e-01	1.90732011e-02	3.49402870e-04
1.49000000e-01	1.95617483e-02	3.57575349e-04
1.49500000e-01	1.90940213e-02	3.47899325e-04
1.50000000e-01	1.93561814e-02	3.52089247e-04
1.50500000e-01	1.95570808e-02	3.55940107e-04
1.51000000e-01	1.92411990e-02	3.49540926e-04
1.51500000e-01	1.91033753e-02	3.46247171e-04
1.52000000e-01	1.92214122e-02	3.44412665e-04
1.52500000e-01	1.94347853e-02	3.52348678e-04
1.53000000e-01	1.93271439e-02	3.48355669e-04
1.53500000e-01	1.91777345e-02	3.44639103e-04
1.54000000e-01	1.93401105e-02	3.47267173e-04
1.54500000e-01	1.92983732e-02	3.54258785e-04
1.55000000e-01	1.93766078e-02	3.58082702e-04
1.55500000e-01	1.91265320e-02	3.56529027e-04
1.56000000e-01	1.91853087e-02	3.58944032e-04
1.56500000e-01	1.90576802e-02	3.57253611e-04
1.57000000e-01	1.89951630e-02	3.57561224e-04
1.57500000e-01	1.93154697e-02	3.55930635e-04
1.58000000e-01	1.93493578e-02	3.50202735e-04
1.58500000e-01	1.94193903e-02	3.51375739e-04
1.59000000e-01	1.90353627e-02	3.42728871e-04
1.59500000e-01	1.91972893e-02	3.42984077e-04
1.60000000e-01	1.89232761e-02	3.40549486e-04
1.60500000e-01	1.91597614e-02	3.40708398e-04
1.61000000e-01	1.89940665e-02	3.39338478e-04
1.61500000e-01	1.89766519e-02	3.37173001e-04
1.62000000e-01	1.90689147e-02	3.37813353e-04
1.62500000e-01	1.91342376e-02	3.39309965e-04
1.63000000e-01	1.93776196e-02	3.41274737e-04
1.63500000e-01	1.90687744e-02	3.37630271e-04
1.64000000e-01	1.93746881e-02	3.38842198e-04
1.64500000e-01	1.92592632e-02	3.37198421e-04
1.65000000e-01	1.87484239e-02	3.29963623e-04
1.65500000e-01	1.89757974e-02	3.33601033e-04
1.66000000e-01	1.89528655e-02	3.31368534e-04
1.66500000e-01	1.90569737e-02	3.31733974e-04
1.67000000e-01	1.90464450e-02	3.30704273e-04
1.67500000e-01	1.87736354e-02	3.27962160e-04
1.68000000e-01	1.91661180e-02	3.34400722e-04
1.68500000e-01	1.92222878e-02	3.31237006e-04
1.69000000e-01	1.90612143e-02	3.30795618e-04
1.69500000e-01	1.88261558e-02	3.25044384e-04
1.70000000e-01	1.86678003e-02	3.22303889e-04
1.70500000e-01	1.89752498e-02	3.27400099e-04
1.71000000e-01	1.87491435e-02	3.22796194e-04
1.71500000e-01	1.89646771e-02	3.27875185e-04
1.72000000e-01	1.90424249e-02	3.26066323e-04
1.72500000e-01	1.88369373e-02	3.23181668e-04
1.73000000e-01	1.88014798e-02	3.21986071e-04
1.73500000e-01	1.90859059e-02	3.25248766e-04
1.74000000e-01	1.87588817e-02	3.20211370e-04
1.74500000e-01	1.87770689e-02	3.17713363e-04
1.75000000e-01	1.87747658e-02	3.16571052e-04
1.75500000e-01	1.87603093e-02	3.16926002e-04
1.76000000e-01	1.89694943e-02	3.20165701e-04
1.76500000e-01	1.86538690e-02	3.16276427e-04
1.77000000e-01	1.85569571e-02	3.11503126e-04
1.77500000e-01	1.87246837e-02	3.15470417e-04
1.78000000e-01	1.87562589e-02	3.16347298e-04
1.78500000e-01	1.86523920e-02	3.13325554e-04
1.79000000e-01	1.86513481e-02	3.13700489e-04
1.79500000e-01	1.87287313e-02	3.15281708e-04
1.80000000e-01	1.90406201e-02	3.20603661e-04
1.80500000e-01	1.84357434e-02	3.09386322e-04
1.81000000e-01	1.85599286e-02	3.11451170e-04
1.81500000e-01	1.85199164e-02	3.10058222e-04
1.82000000e-01	1.88861138e-02	3.15213389e-04
1.82500000e-01	1.87953146e-02	3.13414632e-04
1.83000000e-01	1.88255017e-02	3.14060272e-04
1.83500000e-01	1.86456494e-02	3.09755306e-04
1.84000000e-01	1.84442749e-02	3.07456035e-04
1.84500000e-01	1.84938965e-02	3.07026962e-04
1.85000000e-01	1.84831359e-02	3.05897231e-04
1.85500000e-01	1.86973383e-02	3.09366854e-04
1.86000000e-01	1.85983717e-02	3.06422265e-04
1.86500000e-01	1.84991396e-02	3.06565500e-04
1.87000000e-01	1.85251785e-02	3.05787349e-04
1.87500000e-01	1.84781255e-02	3.03222854e-04
1.88000000e-01	1.84534447e-02	3.03511464e-04
1.88500000e-01	1.87093214e-02	3.06494670e-04
1.89000000e-01	1.83349805e-02	3.00687962e-04
1.89500000e-01	1.84772953e-02	3.01107228e-04
1.90000000e-01	1.85645143e-02	3.04226619e-04
1.90500000e-01	1.85610215e-02	3.02146016e-04
1.91000000e-01	1.83386557e-02	2.99574044e-04
1.91500000e-01	1.82606411e-02	2.98657331e-04
1.92000000e-01	1.82653915e-02	2.97953579e-04
1.92500000e-01	1.84211765e-02	2.98467988e-04
1.93000000e-01	1.85479509e-02	3.01652354e-04
1.93500000e-01	1.79964810e-02	2.91994398e-04
1.94000000e-01	1.85711499e-02	3.00286409e-04
1.94500000e-01	1.84328064e-02	2.98350030e-04
1.95000000e-01	1.86262534e-02	3.00200417e-04
1.95500000e-01	1.81357680e-02	2.92154213e-04
1.96000000e-01	1.83913722e-02	2.95586024e-04
1.96500000e-01	1.80804188e-02	2.92836239e-04
1.97000000e-01	1.82627822e-02	2.93778534e-04
1.97500000e-01	1.82681054e-02	2.91974675e-04
1.98000000e-01	1.85254795e-02	2.96172572e-04
1.98500000e-01	1.84374384e-02	2.94477355e-04
1.99000000e-01	1.82237781e-02	2.92441322e-04
1.99500000e-01	1.81298114e-02	2.89562590e-04
2.00000000e-01	1.81991931e-02	2.91181728e-04
2.00500000e-01	1.82457001e-02	2.92222677e-04
2.01000000e-01	1.81614265e-02	2.89103437e-04
2.01500000e-01	1.80992054e-02	2.87373709e-04
2.02000000e-01	1.82119316e-02	2.89181035e-04
2.02500000e-01	1.81631178e-02	2.87810258e-04
2.03000000e-01	1.81716682e-02	2.88566478e-04
2.03500000e-01	1.78259256e-02	2.82668969e-04
2.04000000e-01	1.81570650e-02	2.86832064e-04
2.04500000e-01	1.82328232e-02	2.88408645e-04
2.05000000e-01	1.81087807e-02	2.85688863e-04
2.05500000e-01	1.82920790e-02	2.88216602e-04
2.06000000e-01	1.84016413e-02	2.89031786e-04
2.06500000e-01	1.81834705e-02	2.86320221e-04
2.07000000e-01	1.81937142e-02	2.85539939e-04
2.07500000e-01	1.82486413e-02	2.85579458e-04
2.08000000e-01	1.82903122e-02	2.88121771e-04
2.08500000e-01	1.81754723e-02	2.82865701e-04
2.09000000e-01	1.82193769e-02	2.84852247e-04
2.09500000e-01	1.82535470e-02	2.83882109e-04
2.10000000e-01	1.81590149e-02	2.83603917e-04
2.10500000e-01	1.82471319e-02	2.84997994e-04
2.11000000e-01	1.84485775e-02	2.86204854e-04
2.11500000e-01	1.81273920e-02	2.82287782e-04
2.12000000e-01	1.81422810e-02	2.80820304e-04
2.12500000e-01	1.78357134e-02	2.76312991e-04
2.13000000e-01	1.82016097e-02	2.81580289e-04
2.13500000e-01	1.82849554e-02	2.82969751e-04
2.14000000e-01	1.79158830e-02	2.77399745e-04
2.14500000e-01	1.79843884e-02	2.76949546e-04
2.15000000e-01	1.82371083e-02	2.81246817e-04
2.15500000e-01	1.79763283e-02	2.75921579e-04
2.16000000e-01	1.82042222e-02	2.80391889e-04
2.16500000e-01	1.82724767e-02	2.80835395e-04
2.17000000e-01	1.80518260e-02	2.81287677e-04
2.17500000e-01	1.81069545e-02	2.86506656e-04
2.18000000e-01	1.79020974e-02	2.83148912e-04
2.18500000e-01	1.78149483e-02	2.85242094e-04
2.19000000e-01	1.80284206e-02	2.88752705e-04
2.19500000e-01	1.79255727e-02	2.88060609e-04
2.20000000e-01	1.76151177e-02	2.84458893e-04
2.20500000e-01	1.77726199e-02	2.88547207e-04
2.21000000e-01	1.80384319e-02	2.93113052e-04
2.21500000e-01	1.80585060e-02	2.94691701e-04
2.22000000e-01	1.79407285e-02	2.93416379e-04
2.22500000e-01	1.77566100e-02	2.90209595e-04
2.23000000e-01	1.78169340e-02	2.92343236e-04
2.23500000e-01	1.78767107e-02	2.94147422e-04
2.24000000e-01	1.78560012e-02	2.95998094e-04
2.24500000e-01	1.78359221e-02	2.94378088e-04
2.25000000e-01	1.79013712e-02	2.95695956e-04
2.25500000e-01	1.79638005e-02	2.96889333e-04
2.26000000e-01	1.77047954e-02	2.94645393e-04
2.26500000e-01	1.78224000e-02	2.92533210e-04
2.27000000e-01	1.77592858e-02	2.88533208e-04
2.27500000e-01	1.79670002e-02	2.87541451e-04
2.28000000e-01	1.78963485e-02	2.86542416e-04
2.28500000e-01	1.80720018e-02	2.87939259e-04
2.29000000e-01	1.78750664e-02	2.82607242e-04
2.29500000e-01	1.79798833e-02	2.83922138e-04
2.30000000e-01	1.79546948e-02	2.82155546e-04
2.30500000e-01	1.81044577e-02	2.82476455e-04
2.31000000e-01	1.77101723e-02	2.77403145e-04
2.31500000e-01	1.78352049e-02	2.78791176e-04
2.32000000e-01	1.77152241e-02	2.75681848e-04
2.32500000e-01	1.78844411e-02	2.78141180e-04
2.33000000e-01	1.77269920e-02	2.74601507e-04
2.33500000e-01	1.77090764e-02	2.73955276e-04
2.34000000e-01	1.77940038e-02	2.74800315e-04
2.34500000e-01	1.80405976e-02	2.77124536e-04
2.35000000e-01	1.77146754e-02	2.71091001e-04
2.35500000e-01	1.77991968e-02	2.73482494e-04
2.36000000e-01	1.77925666e-02	2.73435987e-04
2.36500000e-01	1.76499398e-02	2.70587008e-04
2.37000000e-01	1.77322667e-02	2.70937060e-04
2.37500000e-01	1.77880672e-02	2.70816336e-04
2.38000000e-01	1.77986220e-02	2.70467706e-04
2.38500000e-01	1.78107298e-02	2.70423031e-04
2.39000000e-01	1.78622504e-02	2.70642225e-04
2.39500000e-01	1.76634199e-02	2.67576232e-04
2.40000000e-01	1.75773547e-02	2.65230056e-04
2.40500000e-01	1.78689132e-02	2.68629968e-04
2.41000000e-01	1.76270285e-02	2.66192268e-04
2.41500000e-01	1.78608040e-02	2.67987544e-04
2.42000000e-01	1.76736328e-02	2.66071115e-04
2.42500000e-01	1.77455604e-02	2.65067611e-04
2.43000000e-01	1.76745264e-02	2.64264368e-04
2.43500000e-01	1.77153358e-02	2.64315106e-04
2.44000000e-01	1.74995753e-02	2.60599986e-04
2.44500000e-01	1.74906113e-02	2.60569377e-04
2.45000000e-01	1.76815020e-02	2.62524925e-04
2.45500000e-01	1.74266486e-02	2.59678928e-04
2.46000000e-01	1.75341187e-02	2.62554735e-04
2.46500000e-01	1.74501039e-02	2.58156316e-04
2.47000000e-01	1.74964717e-02	2.59852732e-04
2.47500000e-01	1.77662790e-02	2.62671969e-04
2.48000000e-01	1.74813946e-02	2.58851809e-04
2.48500000e-01	1.75662423e-02	2.59303451e-04
2.49000000e-01	1.75307813e-02	2.58233426e-04
2.49500000e-01	1.77382033e-02	2.61390855e-04
2.50000000e-01	1.75299943e-02	2.57494457e-04
2.50500000e-01	1.73406099e-02	2.55467386e-04
2.51000000e-01	1.75987206e-02	2.57430988e-04
2.51500000e-01	1.75085616e-02	2.57198790e-04
2.52000000e-01	1.73237106e-02	2.55432409e-04
2.52500000e-01	1.74837545e-02	2.56127952e-04
2.53000000e-01	1.71664444e-02	2.52376649e-04
2.53500000e-01	1.74045133e-02	2.54046873e-04
2.54000000e-01	1.74937639e-02	2.56604213e-04
2.54500000e-01	1.74487653e-02	2.54237857e-04
2.55000000e-01	1.72803043e-02	2.52425994e-04
2.55500000e-01	1.73202003e-02	2.52563555e-04
2.56000000e-01	1.73925007e-02	2.52275728e-04
2.56500000e-01	1.73957267e-02	2.51884995e-04
2.57000000e-01	1.73381124e-02	2.51962506e-04
2.57500000e-01	1.74101412e-02	2.51023126e-04
2.58000000e-01	1.73779677e-02	2.50258574e-04
2.58500000e-01	1.73563536e-02	2.50584474e-04
2.59000000e-01	1.74871263e-02	2.52493108e-04
2.59500000e-01	1.73945583e-02	2.50084418e-04
2.60000000e-01	1.72435075e-02	2.48653292e-04
2.60500000e-01	1.73729707e-02	2.50555710e-04
2.61000000e-01	1.74858199e-02	2.51289314e-04
2.61500000e-01	1.71980689e-02	2.46976223e-04
2.62000000e-01	1.72956244e-02	2.47736924e-04
2.62500000e-01	1.72632162e-02	2.47765663e-04
2.63000000e-01	1.72161115e-02	2.46175030e-04
2.63500000e-01	1.71876159e-02	2.45610253e-04
2.64000000e-01	1.71168162e-02	2.44411959e-04
2.64500000e-01	1.69315320e-02	2.41711173e-04
2.65000000e-01	1.74315057e-02	2.47616523e-04
2.65500000e-01	1.72383100e-02	2.45199261e-04
2.66000000e-01	1.72865656e-02	2.45374713e-04
2.66500000e-01	1.74310333e-02	2.47360493e-04
2.67000000e-01	1.71830073e-02	2.44304867e-04
2.67500000e-01	1.71534181e-02	2.42705713e-04
2.68000000e-01	1.71741982e-02	2.43074735e-04
2.68500000e-01	1.69823033e-02	2.40198920e-04
2.69000000e-01	1.73023960e-02	2.43808067e-04
2.69500000e-01	1.70782097e-02	2.40488499e-04
2.70000000e-01	1.72536049e-02	2.43200281e-04
2.70500000e-01	1.71738609e-02	2.42033049e-04
2.71000000e-01	1.72911489e-02	2.42697769e-04
2.71500000e-01	1.70618013e-02	2.40806711e-04
2.72000000e-01	1.71005078e-02	2.39272108e-04
2.72500000e-01	1.72245263e-02	2.41615906e-04
2.73000000e-01	1.71466828e-02	2.39623628e-04
2.73500000e-01	1.70459726e-02	2.38951004e-04
2.74000000e-01	1.71056460e-02	2.39334321e-04
2.74500000e-01	1.69232824e-02	2.36199811e-04
2.75000000e-01	1.70449226e-02	2.38296518e-04
2.75500000e-01	1.72025012e-02	2.40348775e-04
2.76000000e-01	1.71299406e-02	2.38924464e-04
2.76500000e-01	1.71835564e-02	2.39035047e-04
2.77000000e-01	1.70645100e-02	2.36536701e-04
2.77500000e-01	1.70218632e-02	2.37605416e-04
2.78000000e-01	1.70800024e-02	2.37523552e-04
2.78500000e-01	1.69181894e-02	2.34899402e-04
2.79000000e-01	1.70166488e-02	2.37202137e-04
2.79500000e-01	1.69307006e-02	2.34537400e-04
2.80000000e-01	1.71626695e-02	2.37417797e-04
2.80500000e-01	1.71210381e-02	2.36389300e-04
2.81000000e-01	1.70237186e-02	2.36669965e-04
2.81500000e-01	1.67409450e-02	2.31969021e-04
2.82000000e-01	1.72188987e-02	2.37076214e-04
2.82500000e-01	1.68424259e-02	2.33132678e-04
2.83000000e-01	1.68760795e-02	2.32654390e-04
2.83500000e-01	1.68541942e-02	2.32526804e-04
2.84000000e-01	1.70660371e-02	2.34409113e-04
2.84500000e-01	1.70129699e-02	2.32959491e-04
2.85000000e-01	1.68555872e-02	2.32016940e-04
2.85500000e-01	1.68364355e-02	2.30320057e-04
2.86000000e-01	1.68854991e-02	2.32359938e-04
2.86500000e-01	1.69389237e-02	2.31315766e-04
2.87000000e-01	1.70016837e-02	2.32104867e-04
2.87500000e-01	1.68430711e-02	2.29051405e-04
2.88000000e-01	1.72068038e-02	2.33547198e-04
2.88500000e-01	1.68537063e-02	2.29986156e-04
2.89000000e-01	1.69358687e-02	2.30607488e-04
2.89500000e-01	1.69410914e-02	2.29872368e-04
2.90000000e-01	1.70990821e-02	2.32724960e-04
2.90500000e-01	1.67314204e-02	2.27300866e-04
2.91000000e-01	1.66904420e-02	2.26367266e-04
2.91500000e-01	1.69506028e-02	2.28720525e-04
2.92000000e-01	1.68798890e-02	2.28618557e-04
2.92500000e-01	1.69697585e-02	2.29455344e-04
2.93000000e-01	1.69083701e-02	2.28429342e-04
2.93500000e-01	1.68094546e-02	2.27427882e-04
2.94000000e-01	1.69244206e-02	2.28675108e-04
2.94500000e-01	1.67779459e-02	2.26707086e-04
2.95000000e-01	1.68352871e-02	2.26379518e-04
2.95500000e-01	1.67484021e-02	2.25752308e-04
2.96000000e-01	1.69762225e-02	2.27367069e-04
2.96500000e-01	1.68004206e-02	2.26427853e-04
2.97000000e-01	1.67965174e-02	2.25691191e-04
2.97500000e-01	1.69121673e-02	2.26578266e-04
2.98000000e-01	1.67487105e-02	2.23862479e-04
2.98500000e-01	1.65663233e-02	2.22630866e-04
2.99000000e-01	1.68966968e-02	2.26142435e-04
2.99500000e-01	1.67099610e-02	2.24504071e-04
3.00000000e-01	1.68249519e-02	2.24861006e-04
3.00500000e-01	1.67889129e-02	2.23305361e-04
3.01000000e-01	1.67376750e-02	2.22370382e-04
3.01500000e-01	1.67792559e-02	2.23812388e-04
3.02000000e-01	1.68412137e-02	2.24090599e-04
3.02500000e-01	1.67100100e-02	2.22322151e-04
3.03000000e-01	1.66881214e-02	2.22941493e-04
3.03500000e-01	1.67243588e-02	2.21898864e-04
3.04000000e-01	1.67309902e-02	2.22603202e-04
3.04500000e-01	1.67773025e-02	2.22292007e-04
3.05000000e-01	1.67532833e-02	2.22025288e-04
3.05500000e-01	1.66504225e-02	2.20529395e-04
3.06000000e-01	1.68124151e-02	2.21168187e-04
3.06500000e-01	1.66172955e-02	2.20324927e-04
3.07000000e-01	1.66375681e-02	2.19332423e-04
3.07500000e-01	1.64887726e-02	2.17153967e-04
3.08000000e-01	1.66810726e-02	2.20805631e-04
3.08500000e-01	1.66529658e-02	2.19640937e-04
3.09000000e-01	1.65757879e-02	2.17375225e-04
3.09500000e-01	1.65643792e-02	2.17461599e-04
3.10000000e-01	1.65206821e-02	2.17520632e-04
3.10500000e-01	1.65706311e-02	2.17518772e-04
3.11000000e-01	1.65255501e-02	2.16703068e-04
3.11500000e-01	1.65548897e-02	2.16883883e-04
3.12000000e-01	1.67132139e-02	2.18856242e-04
3.12500000e-01	1.64355103e-02	2.15225994e-04
3.13000000e-01	1.64035591e-02	2.14535658e-04
3.13500000e-01	1.64390659e-02	2.15665339e-04
3.14000000e-01	1.66261294e-02	2.16928405e-04
3.14500000e-01	1.66347842e-02	2.17268488e-04
3.15000000e-01	1.65691024e-02	2.15718779e-04
3.15500000e-01	1.63821195e-02	2.14037411e-04
3.16000000e-01	1.63928048e-02	2.14299818e-04
3.16500000e-01	1.64150218e-02	2.13929332e-04
3.17000000e-01	1.66448363e-02	2.16292333e-04
3.17500000e-01	1.64797978e-02	2.14775027e-04
3.18000000e-01	1.64337016e-02	2.13568144e-04
3.18500000e-01	1.65688099e-02	2.15368250e-04
3.19000000e-01	1.63933406e-02	2.13051419e-04
3.19500000e-01	1.63202761e-02	2.11740227e-04
3.20000000e-01	1.65014779e-02	2.13978372e-04
3.20500000e-01	1.62796053e-02	2.10607937e-04
3.21000000e-01	1.63213219e-02	2.11245512e-04
3.21500000e-01	1.65076110e-02	2.13058037e-04
3.22000000e-01	1.63178423e-02	2.11329698e-04
3.22500000e-01	1.61820528e-02	2.08094687e-04
3.23000000e-01	1.62725353e-02	2.09911003e-04
3.23500000e-01	1.63895776e-02	2.11561843e-04
3.24000000e-01	1.61195699e-02	2.06622956e-04
3.24500000e-01	1.62692420e-02	2.10379083e-04
3.25000000e-01	1.63432100e-02	2.09403519e-04
3.25500000e-01	1.62200104e-02	2.08696202e-04
3.26000000e-01	1.63382635e-02	2.08953599e-04
3.26500000e-01	1.62934843e-02	2.08678471e-04
3.27000000e-01	1.62387191e-02	2.07621997e-04
3.27500000e-01	1.62053751e-02	2.07676781e-04
3.28000000e-01	1.61982049e-02	2.06812039e-04
3.28500000e-01	1.62885902e-02	2.08163024e-04
3.29000000e-01	1.62860658e-02	2.07765701e-04
3.29500000e-01	1.60664107e-02	2.06468323e-04
3.30000000e-01	1.63585631e-02	2.08408331e-04
3.30500000e-01	1.62478839e-02	2.07339418e-04
3.31000000e-01	1.61956173e-02	2.06795625e-04
3.31500000e-01	1.63288119e-02	2.07706738e-04
3.32000000e-01	1.61794827e-02	2.05631513e-04
3.32500000e-01	1.61271781e-02	2.05071988e-04
3.33000000e-01	1.62610047e-02	2.07063659e-04
3.33500000e-01	1.61203471e-02	2.03948843e-04
3.34000000e-01	1.62107074e-02	2.05719031e-04
3.34500000e-01	1.60213236e-02	2.03786566e-04
3.35000000e-01	1.61325797e-02	2.04171052e-04
3.35500000e-01	1.61880043e-02	2.04642335e-04
3.36000000e-01	1.60526681e-02	2.03486207e-04
3.36500000e-01	1.62666290e-02	2.05511970e-04
3.37000000e-01	1.61827639e-02	2.03921195e-04
3.37500000e-01	1.60793271e-02	2.02266481e-04
3.38000000e-01	1.60113175e-02	2.03568078e-04
3.38500000e-01	1.59716884e-02	2.01219934e-04
3.39000000e-01	1.58628409e-02	2.00358773e-04
3.39500000e-01	1.58805717e-02	1.99677079e-04
3.40000000e-01	1.59821540e-02	2.01328348e-04
3.40500000e-01	1.60624693e-02	2.01536207e-04
3.41000000e-01	1.61050319e-02	2.00823429e-04
3.41500000e-01	1.58971361e-02	2.00160385e-04
3.42000000e-01	1.59208249e-02	1.99467200e-04
3.42500000e-01	1.59545619e-02	2.00421179e-04
3.43000000e-01	1.60817032e-02	2.00914993e-04
3.43500000e-01	1.60481187e-02	2.00659199e-04
3.44000000e-01	1.60619711e-02	2.01239931e-04
3.44500000e-01	1.60137539e-02	1.99831771e-04
3.45000000e-01	1.59160401e-02	1.99367688e-04
3.45500000e-01	1.61007067e-02	2.00872017e-04
3.46000000e-01	1.57628738e-02	1.96728957e-04
3.46500000e-01	1.60375394e-02	1.99826698e-04
3.47000000e-01	1.58253506e-02	1.97856954e-04
3.47500000e-01	1.59082583e-02	1.98000639e-04
3.48000000e-01	1.58204466e-02	1.96785535e-04
3.48500000e-01	1.58916405e-02	1.98174971e-04
3.49000000e-01	1.59347863e-02	1.99065478e-04
3.49500000e-01	1.59717595e-02	1.98691987e-04
3.50000000e-01	1.57526721e-02	1.59249678e-04
3.51000000e-01	1.58119301e-02	1.38587570e-04
3.52000000e-01	1.57273288e-02	1.37782109e-04
3.53000000e-01	1.59277617e-02	1.38751018e-04
3.54000000e-01	1.59177932e-02	1.38872219e-04
3.55000000e-01	1.58169495e-02	1.38056161e-04
3.56000000e-01	1.58390256e-02	1.38532434e-04
3.57000000e-01	1.58348938e-02	1.41226677e-04
3.58000000e-01	1.56971962e-02	1.41128865e-04
3.59000000e-01	1.56709445e-02	1.41964539e-04
3.60000000e-01	1.54564356e-02	1.41034396e-04
3.61000000e-01	1.56952155e-02	1.43517022e-04
3.62000000e-01	1.56274118e-02	1.43700497e-04
3.63000000e-01	1.54976965e-02	1.43526214e-04
3.64000000e-01	1.54891109e-02	1.44139170e-04
3.65000000e-01	1.56066085e-02	1.44805977e-04
3.66000000e-01	1.56102237e-02	1.43158725e-04
3.67000000e-01	1.56269591e-02	1.41444648e-04
3.68000000e-01	1.55569804e-02	1.39756330e-04
3.69000000e-01	1.54575558e-02	1.38103509e-04
3.70000000e-01	1.55671401e-02	1.38320448e-04
3.71000000e-01	1.55208976e-02	1.39954579e-04
3.72000000e-01	1.54703097e-02	1.40553553e-04
3.73000000e-01	1.55381485e-02	1.41480235e-04
3.74000000e-01	1.55335081e-02	1.41313127e-04
3.75000000e-01	1.55621435e-02	1.41748176e-04
3.76000000e-01	1.55959795e-02	1.41894644e-04
3.77000000e-01	1.55314544e-02	1.41652830e-04
3.78000000e-01	1.55149770e-02	1.41755251e-04
3.79000000e-01	1.54194799e-02	1.40274404e-04
3.80000000e-01	1.53886358e-02	1.40071089e-04
3.81000000e-01	1.54107065e-02	1.40256457e-04
3.82000000e-01	1.54435245e-02	1.40530369e-04
3.83000000e-01	1.53896049e-02	1.39665911e-04
3.84000000e-01	1.53072802e-02	1.39218975e-04
3.85000000e-01	1.54433065e-02	1.40481546e-04
3.86000000e-01	1.53033799e-02	1.39231202e-04
3.87000000e-01	1.52975902e-02	1.38893657e-04
3.88000000e-01	1.54225655e-02	1.39948388e-04
3.89000000e-01	1.52853165e-02	1.38755284e-04
3.90000000e-01	1.52589682e-02	1.38565616e-04
3.91000000e-01	1.51780533e-02	1.37661891e-04
3.92000000e-01	1.52899093e-02	1.38540264e-04
3.93000000e-01	1.52367099e-02	1.37942410e-04
3.94000000e-01	1.53061385e-02	1.38857436e-04
3.95000000e-01	1.50391085e-02	1.36657478e-04
3.96000000e-01	1.52301307e-02	1.37908661e-04
3.97000000e-01	1.52387020e-02	1.37933516e-04
3.98000000e-01	1.52252447e-02	1.37889816e-04
3.99000000e-01	1.52354347e-02	1.38199506e-04
4.00000000e-01	1.50959916e-02	1.37219533e-04
4.01000000e-01	1.51532306e-02	1.36991380e-04
4.02000000e-01	1.53155142e-02	1.38563105e-04
4.03000000e-01	1.53156185e-02	1.38352875e-04
4.04000000e-01	1.52132870e-02	1.37966815e-04
4.05000000e-01	1.50196002e-02	1.36132922e-04
4.06000000e-01	1.50811910e-02	1.36502670e-04
4.07000000e-01	1.50550084e-02	1.36460823e-04
4.08000000e-01	1.49204181e-02	1.35414863e-04
4.09000000e-01	1.50333369e-02	1.35930032e-04
4.10000000e-01	1.50300515e-02	1.36299892e-04
4.11000000e-01	1.49914031e-02	1.35552076e-04
4.12000000e-01	1.50151878e-02	1.36115588e-04
4.13000000e-01	1.50165841e-02	1.35534249e-04
4.14000000e-01	1.50185562e-02	1.35721538e-04
4.15000000e-01	1.49407622e-02	1.34987985e-04
4.16000000e-01	1.49600843e-02	1.34805277e-04
4.17000000e-01	1.49044761e-02	1.34508201e-04
4.18000000e-01	1.50424579e-02	1.37030258e-04
4.19000000e-01	1.49268236e-02	1.37845838e-04
4.20000000e-01	1.51007402e-02	1.39941296e-04
4.21000000e-01	1.50036394e-02	1.39846520e-04
4.22000000e-01	1.50549763e-02	1.40715982e-04
4.23000000e-01	1.49869166e-02	1.40717278e-04
4.24000000e-01	1.48844867e-02	1.40236493e-04
4.25000000e-01	1.50226631e-02	1.41649537e-04
4.26000000e-01	1.50607243e-02	1.41719709e-04
4.27000000e-01	1.50048366e-02	1.41221825e-04
4.28000000e-01	1.49504398e-02	1.41024012e-04
4.29000000e-01	1.49012388e-02	1.41058630e-04
4.30000000e-01	1.50967918e-02	1.42348326e-04
4.31000000e-01	1.49751838e-02	1.41451066e-04
4.32000000e-01	1.49380979e-02	1.41252325e-04
4.33000000e-01	1.50041639e-02	1.41823298e-04
4.34000000e-01	1.48638625e-02	1.40983290e-04
4.35000000e-01	1.48068037e-02	1.40426998e-04
4.36000000e-01	1.49584377e-02	1.41546213e-04
4.37000000e-01	1.47977949e-02	1.40436796e-04
4.38000000e-01	1.49296932e-02	1.42195727e-04
4.39000000e-01	1.48774775e-02	1.41967993e-04
4.40000000e-01	1.47016348e-02	1.40355071e-04
4.41000000e-01	1.47901188e-02	1.40969303e-04
4.42000000e-01	1.47392323e-02	1.41241627e-04
4.43000000e-01	1.47115089e-02	1.41191852e-04
4.44000000e-01	1.47296480e-02	1.41290333e-04
4.45000000e-01	1.47762344e-02	1.41808090e-04
4.46000000e-01	1.46796734e-02	1.41009474e-04
4.47000000e-01	1.46956753e-02	1.41136412e-04
4.48000000e-01	1.47313943e-02	1.41912799e-04
4.49000000e-01	1.46619458e-02	1.41656405e-04
4.50000000e-01	1.47294691e-02	1.41956811e-04
4.51000000e-01	1.46947701e-02	1.42202321e-04
4.52000000e-01	1.46952049e-02	1.42292383e-04
4.53000000e-01	1.48620991e-02	1.43431488e-04
4.54000000e-01	1.47266664e-02	1.42600385e-04
4.55000000e-01	1.45394752e-02	1.40877209e-04
4.56000000e-01	1.46099773e-02	1.41814426e-04
4.57000000e-01	1.46297687e-02	1.41963568e-04
4.58000000e-01	1.45267975e-02	1.41455569e-04
4.59000000e-01	1.46483636e-02	1.42516024e-04
4.60000000e-01	1.45678245e-02	1.42140571e-04
4.61000000e-01	1.45949277e-02	1.41958220e-04
4.62000000e-01	1.45767566e-02	1.41923392e-04
4.63000000e-01	1.45187764e-02	1.41697538e-04
4.64000000e-01	1.43812800e-02	1.41078074e-04
4.65000000e-01	1.44767231e-02	1.42054330e-04
4.66000000e-01	1.46217390e-02	1.42965353e-04
4.67000000e-01	1.45216422e-02	1.42000379e-04
4.68000000e-01	1.45092925e-02	1.42028931e-04
4.69000000e-01	1.45632195e-02	1.43085803e-04
4.70000000e-01	1.45096997e-02	1.42433694e-04
4.71000000e-01	1.45375251e-02	1.42552743e-04
4.72000000e-01	1.45395923e-02	1.42488333e-04
4.73000000e-01	1.45164974e-02	1.41937373e-04
4.74000000e-01	1.44355055e-02	1.41633708e-04
4.75000000e-01	1.45807418e-02	1.42624019e-04
4.76000000e-01	1.45754627e-02	1.42873567e-04
4.77000000e-01	1.45054359e-02	1.42437601e-04
4.78000000e-01	1.44163879e-02	1.41575385e-04
4.79000000e-01	1.44388286e-02	1.41651547e-04
4.80000000e-01	1.44592030e-02	1.41952605e-04
4.81000000e-01	1.42914826e-02	1.40299341e-04
4.82000000e-01	1.43969800e-02	1.41189136e-04
4.83000000e-01	1.43651175e-02	1.40989345e-04
4.84000000e-01	1.44302226e-02	1.42028457e-04
4.85000000e-01	1.43847745e-02	1.41961715e-04
4.86000000e-01	1.43979586e-02	1.41724108e-04
4.87000000e-01	1.44579853e-02	1.42421277e-04
4.88000000e-01	1.42001491e-02	1.40248672e-04
4.89000000e-01	1.43952033e-02	1.42437239e-04
4.90000000e-01	1.42823649e-02	1.41060536e-04
4.91000000e-01	1.43974442e-02	1.42257550e-04
4.92000000e-01	1.43083858e-02	1.41457101e-04
4.93000000e-01	1.43830365e-02	1.42593107e-04
4.94000000e-01	1.42956622e-02	1.41714544e-04
4.95000000e-01	1.42818583e-02	1.42418635e-04
4.96000000e-01	1.43074749e-02	1.46749063e-04
4.97000000e-01	1.42797911e-02	1.48600523e-04
4.98000000e-01	1.44889692e-02	1.53263572e-04
4.99000000e-01	1.42790999e-02	1.53366638e-04
5.00000000e-01	1.42922878e-02	1.55597951e-04
5.01000000e-01	1.42470434e-02	1.55828034e-04
5.02000000e-01	1.43191411e-02	1.58484359e-04
5.03000000e-01	1.43431573e-02	1.60539719e-04
5.04000000e-01	1.43998663e-02	1.61976685e-04
5.05000000e-01	1.43942007e-02	1.59432244e-04
5.06000000e-01	1.44070617e-02	1.56033136e-04
5.07000000e-01	1.42802513e-02	1.53199633e-04
5.08000000e-01	1.43187426e-02	1.52703924e-04
5.09000000e-01	1.42943482e-02	1.51387489e-04
5.10000000e-01	1.42139527e-02	1.50532985e-04
5.11000000e-01	1.42344977e-02	1.49869957e-04
5.12000000e-01	1.41338293e-02	1.48887001e-04
5.13000000e-01	1.40583279e-02	1.48206954e-04
5.14000000e-01	1.42466813e-02	1.49214099e-04
5.15000000e-01	1.41435355e-02	1.47780922e-04
5.16000000e-01	1.41932667e-02	1.47939426e-04
5.17000000e-01	1.42301823e-02	1.48442022e-04
5.18000000e-01	1.41157581e-02	1.47226911e-04
5.19000000e-01	1.41118058e-02	1.46400964e-04
5.20000000e-01	1.42257082e-02	1.47141585e-04
5.21000000e-01	1.40007060e-02	1.45167753e-04
5.22000000e-01	1.41596770e-02	1.46321662e-04
5.23000000e-01	1.40848037e-02	1.45678362e-04
5.24000000e-01	1.41969099e-02	1.46265502e-04
5.25000000e-01	1.40428747e-02	1.44626795e-04
5.26000000e-01	1.41009895e-02	1.45902701e-04
5.27000000e-01	1.41018859e-02	1.45388706e-04
5.28000000e-01	1.39842184e-02	1.45096144e-04
5.29000000e-01	1.39755057e-02	1.44847761e-04
5.30000000e-01	1.38966923e-02	1.43919265e-04
5.31000000e-01	1.40010359e-02	1.44839072e-04
5.32000000e-01	1.39371897e-02	1.44604795e-04
5.33000000e-01	1.39083931e-02	1.43627450e-04
5.34000000e-01	1.40184616e-02	1.45140302e-04
5.35000000e-01	1.39092848e-02	1.44169234e-04
5.36000000e-01	1.39480780e-02	1.43852670e-04
5.37000000e-01	1.39090140e-02	1.43938667e-04
5.38000000e-01	1.40000684e-02	1.44392756e-04
5.39000000e-01	1.39390447e-02	1.43800451e-04
5.40000000e-01	1.38276811e-02	1.42695657e-04
5.41000000e-01	1.38344987e-02	1.43283755e-04
5.42000000e-01	1.39007121e-02	1.43408526e-04
5.43000000e-01	1.38603828e-02	1.43270880e-04
5.44000000e-01	1.39596930e-02	1.43848832e-04
5.45000000e-01	1.38396481e-02	1.43435996e-04
5.46000000e-01	1.38799499e-02	1.43417011e-04
5.47000000e-01	1.38228233e-02	1.43208892e-04
5.48000000e-01	1.37389393e-02	1.42293699e-04
5.49000000e-01	1.37986780e-02	1.42657328e-04
5.50000000e-01	1.39160408e-02	1.43627078e-04
5.51000000e-01	1.38670634e-02	1.42984009e-04
5.52000000e-01	1.37814200e-02	1.41947545e-04
5.53000000e-01	1.38153973e-02	1.42011503e-04
5.54000000e-01	1.36479085e-02	1.40493309e-04
5.55000000e-01	1.37426523e-02	1.40915544e-04
5.56000000e-01	1.38662979e-02	1.42054463e-04
5.57000000e-01	1.36258350e-02	1.40102557e-04
5.58000000e-01	1.37004357e-02	1.40932482e-04
5.59000000e-01	1.36288169e-02	1.40144247e-04
5.60000000e-01	1.35828548e-02	1.39995472e-04
5.61000000e-01	1.36774373e-02	1.40642786e-04
5.62000000e-01	1.36651178e-02	1.40710688e-04
5.63000000e-01	1.36416560e-02	1.40264786e-04
5.64000000e-01	1.35902322e-02	1.39609340e-04
5.65000000e-01	1.35646151e-02	1.39756215e-04
5.66000000e-01	1.36819907e-02	1.40802961e-04
5.67000000e-01	1.36434537e-02	1.40543948e-04
5.68000000e-01	1.35667730e-02	1.39573629e-04
5.69000000e-01	1.35674964e-02	1.38941770e-04
5.70000000e-01	1.35726225e-02	1.39480110e-04
5.71000000e-01	1.35210611e-02	1.38905113e-04
5.72000000e-01	1.33943147e-02	1.38313491e-04
5.73000000e-01	1.34387382e-02	1.38860425e-04
5.74000000e-01	1.35459829e-02	1.39479733e-04
5.75000000e-01	1.34235909e-02	1.38103813e-04
5.76000000e-01	1.34107246e-02	1.37908901e-04
5.77000000e-01	1.34547247e-02	1.38611380e-04
5.78000000e-01	1.34398652e-02	1.38460987e-04
5.79000000e-01	1.34744974e-02	1.38816521e-04
5.80000000e-01	1.35179537e-02	1.39539187e-04
5.81000000e-01	1.33514755e-02	1.38069216e-04
5.82000000e-01	1.35540290e-02	1.39980004e-04
5.83000000e-01	1.33800894e-02	1.38530266e-04
5.84000000e-01	1.34277177e-02	1.38717128e-04
5.85000000e-01	1.34558874e-02	1.38696746e-04
5.86000000e-01	1.33355179e-02	1.38162645e-04
5.87000000e-01	1.35013847e-02	1.39212650e-04
5.88000000e-01	1.33225297e-02	1.37516263e-04
5.89000000e-01	1.33306071e-02	1.37816366e-04
5.90000000e-01	1.33563031e-02	1.38097023e-04
5.91000000e-01	1.34110337e-02	1.38610050e-04
5.92000000e-01	1.34701488e-02	1.38783480e-04
5.93000000e-01	1.34450564e-02	1.39152918e-04
5.94000000e-01	1.34204716e-02	1.38832704e-04
5.95000000e-01	1.33481496e-02	1.37898752e-04
5.96000000e-01	1.33121597e-02	1.37919116e-04
5.97000000e-01	1.30953204e-02	1.35622188e-04
5.98000000e-01	1.33059227e-02	1.37983315e-04
5.99000000e-01	1.32646703e-02	1.37077959e-04
6.00000000e-01	1.32726026e-02	1.37681128e-04
6.01000000e-01	1.33809874e-02	1.38343657e-04
6.02000000e-01	1.33388758e-02	1.37722675e-04
6.03000000e-01	1.32707834e-02	1.37363699e-04
6.04000000e-01	1.31834165e-02	1.36929362e-04
6.05000000e-01	1.32215626e-02	1.36943549e-04
6.06000000e-01	1.32139627e-02	1.36741625e-04
6.07000000e-01	1.33298520e-02	1.37815851e-04
6.08000000e-01	1.31127281e-02	1.36027344e-04
6.09000000e-01	1.32325193e-02	1.37098792e-04
6.10000000e-01	1.33307116e-02	1.38293994e-04
6.11000000e-01	1.32089124e-02	1.36981632e-04
6.12000000e-01	1.30769609e-02	1.36074432e-04
6.13000000e-01	1.32331037e-02	1.37655223e-04
6.14000000e-01	1.31140121e-02	1.35661488e-04
6.15000000e-01	1.33351538e-02	1.37870572e-04
6.16000000e-01	1.31892345e-02	1.36673925e-04
6.17000000e-01	1.32262840e-02	1.37750005e-04
6.18000000e-01	1.32101345e-02	1.37522202e-04
6.19000000e-01	1.30258688e-02	1.35131646e-04
6.20000000e-01	1.31654749e-02	1.36031177e-04
6.21000000e-01	1.30379343e-02	1.35212584e-04
6.22000000e-01	1.31190722e-02	1.35702362e-04
6.23000000e-01	1.31173374e-02	1.35442675e-04
6.24000000e-01	1.31777139e-02	1.35755665e-04
6.25000000e-01	1.30875417e-02	1.35250439e-04
6.26000000e-01	1.31592604e-02	1.35313674e-04
6.27000000e-01	1.31474457e-02	1.35441621e-04
6.28000000e-01	1.29774672e-02	1.34086146e-04
6.29000000e-01	1.30169452e-02	1.34013677e-04
6.30000000e-01	1.31086316e-02	1.35205023e-04
6.31000000e-01	1.30985539e-02	1.35237624e-04
6.32000000e-01	1.31111874e-02	1.35595298e-04
6.33000000e-01	1.29467104e-02	1.33187657e-04
6.34000000e-01	1.30421124e-02	1.37338298e-04
6.35000000e-01	1.29627521e-02	1.41818422e-04
6.36000000e-01	1.29115551e-02	1.43170276e-04
6.37000000e-01	1.29996589e-02	1.46418126e-04
6.38000000e-01	1.30415971e-02	1.48777546e-04
6.39000000e-01	1.28981794e-02	1.49433441e-04
6.40000000e-01	1.29238929e-02	1.50950586e-04
6.41000000e-01	1.29324459e-02	1.52827391e-04
6.42000000e-01	1.30157069e-02	1.55545310e-04
6.43000000e-01	1.30845989e-02	1.55851710e-04
6.44000000e-01	1.29804909e-02	1.49344184e-04
6.45000000e-01	1.31074957e-02	1.48545823e-04
6.46000000e-01	1.30532316e-02	1.46879194e-04
6.47000000e-01	1.32262354e-02	1.47154188e-04
6.48000000e-01	1.29510104e-02	1.43544719e-04
6.49000000e-01	1.29691419e-02	1.43326204e-04
6.50000000e-01	1.29793663e-02	1.41886339e-04
6.51000000e-01	1.30746427e-02	1.42815797e-04
6.52000000e-01	1.30238183e-02	1.41804400e-04
6.53000000e-01	1.30591178e-02	1.41239638e-04
6.54000000e-01	1.28768140e-02	1.39669273e-04
6.55000000e-01	1.29622039e-02	1.40110416e-04
6.56000000e-01	1.30132398e-02	1.40163605e-04
6.57000000e-01	1.30865669e-02	1.40712035e-04
6.58000000e-01	1.30733297e-02	1.40222078e-04
6.59000000e-01	1.29112793e-02	1.38795513e-04
6.60000000e-01	1.29751718e-02	1.39097885e-04
6.61000000e-01	1.29440281e-02	1.38860217e-04
6.62000000e-01	1.28996369e-02	1.38459235e-04
6.63000000e-01	1.29286932e-02	1.39224763e-04
6.64000000e-01	1.27782024e-02	1.37467322e-04
6.65000000e-01	1.29446267e-02	1.38832630e-04
6.66000000e-01	1.28822418e-02	1.38051763e-04
6.67000000e-01	1.28315026e-02	1.37569541e-04
6.68000000e-01	1.29523187e-02	1.38462180e-04
6.69000000e-01	1.28477277e-02	1.37729266e-04
6.70000000e-01	1.30052855e-02	1.38884657e-04
6.71000000e-01	1.28894210e-02	1.37394096e-04
6.72000000e-01	1.28655851e-02	1.37569258e-04
6.73000000e-01	1.28311240e-02	1.36903988e-04
6.74000000e-01	1.28645044e-02	1.37535387e-04
6.75000000e-01	1.28108562e-02	1.37085014e-04
6.76000000e-01	1.28884762e-02	1.37642962e-04
6.77000000e-01	1.27404823e-02	1.36246754e-04
6.78000000e-01	1.27182268e-02	1.35724118e-04
6.79000000e-01	1.27453025e-02	1.35997812e-04
6.80000000e-01	1.27714125e-02	1.36355507e-04
6.81000000e-01	1.27169558e-02	1.36162103e-04
6.82000000e-01	1.27115630e-02	1.35869913e-04
6.83000000e-01	1.26957276e-02	1.35511710e-04
6.84000000e-01	1.25854187e-02	1.34488557e-04
6.85000000e-01	1.27565326e-02	1.35825119e-04
6.86000000e-01	1.27252711e-02	1.35395504e-04
6.87000000e-01	1.28709880e-02	1.36840595e-04
6.88000000e-01	1.27128622e-02	1.35571140e-04
6.89000000e-01	1.27433399e-02	1.35735403e-04
6.90000000e-01	1.26560083e-02	1.35169541e-04
6.91000000e-01	1.26096418e-02	1.34262542e-04
6.92000000e-01	1.26440042e-02	1.34929475e-04
6.93000000e-01	1.25689902e-02	1.33934275e-04
6.94000000e-01	1.25527347e-02	1.33750958e-04
6.95000000e-01	1.27492206e-02	1.35736193e-04
6.96000000e-01	1.26605513e-02	1.35331774e-04
6.97000000e-01	1.25874361e-02	1.34312773e-04
6.98000000e-01	1.26452842e-02	1.34663348e-04
6.99000000e-01	1.26277983e-02	1.34108028e-04
7.00000000e-01	1.24613668e-02	1.33217147e-04
7.01000000e-01	1.25318059e-02	1.33410824e-04
7.02000000e-01	1.25180820e-02	1.33510231e-04
7.03000000e-01	1.26265051e-02	1.34326609e-04
7.04000000e-01	1.26320029e-02	1.34762645e-04
7.05000000e-01	1.26439082e-02	1.34071661e-04
7.06000000e-01	1.25022959e-02	1.33429564e-04
7.07000000e-01	1.25162885e-02	1.33166442e-04
7.08000000e-01	1.24944979e-02	1.32835927e-04
7.09000000e-01	1.23979180e-02	1.32213168e-04
7.10000000e-01	1.24903306e-02	1.32549760e-04
7.11000000e-01	1.24182140e-02	1.32197685e-04
7.12000000e-01	1.23881483e-02	1.31530107e-04
7.13000000e-01	1.23337284e-02	1.31191106e-04
7.14000000e-01	1.24354339e-02	1.32861162e-04
7.15000000e-01	1.24343017e-02	1.32304818e-04
7.16000000e-01	1.25358068e-02	1.33262687e-04
7.17000000e-01	1.23047616e-02	1.31310582e-04
7.18000000e-01	1.24857992e-02	1.32801905e-04
7.19000000e-01	1.23425714e-02	1.31543836e-04
7.20000000e-01	1.24035204e-02	1.32212543e-04
7.21000000e-01	1.22859629e-02	1.31216174e-04
7.22000000e-01	1.22426703e-02	1.30842550e-04
7.23000000e-01	1.22686389e-02	1.31064714e-04
7.24000000e-01	1.22726075e-02	1.30848733e-04
7.25000000e-01	1.22782479e-02	1.30554536e-04
7.26000000e-01	1.22986509e-02	1.30957298e-04
7.27000000e-01	1.23236281e-02	1.31393621e-04
7.28000000e-01	1.22154445e-02	1.30681713e-04
7.29000000e-01	1.21991517e-02	1.30393786e-04
7.30000000e-01	1.23180947e-02	1.31517457e-04
7.31000000e-01	1.21501862e-02	1.29469186e-04
7.32000000e-01	1.21792804e-02	1.30436650e-04
7.33000000e-01	1.21971580e-02	1.30340897e-04
7.34000000e-01	1.22301327e-02	1.30079918e-04
7.35000000e-01	1.22366183e-02	1.30045950e-04
7.36000000e-01	1.22366693e-02	1.30196298e-04
7.37000000e-01	1.20966946e-02	1.28270516e-04
7.38000000e-01	1.21292622e-02	1.28626444e-04
7.39000000e-01	1.21376185e-02	1.28317066e-04
7.40000000e-01	1.20302781e-02	1.27590149e-04
7.41000000e-01	1.22509692e-02	1.29147332e-04
7.42000000e-01	1.21727019e-02	1.28565251e-04
7.43000000e-01	1.22240210e-02	1.29228186e-04
7.44000000e-01	1.21291230e-02	1.28528367e-04
7.45000000e-01	1.21670721e-02	1.28381410e-04
7.46000000e-01	1.21830571e-02	1.28203151e-04
7.47000000e-01	1.20798310e-02	1.27796285e-04
7.48000000e-01	1.21285934e-02	1.27795313e-04
7.49000000e-01	1.19552892e-02	1.26692974e-04
7.50000000e-01	1.20963678e-02	1.28092311e-04
7.51000000e-01	1.19909253e-02	1.26744854e-04
7.52000000e-01	1.19686730e-02	1.26837709e-04
7.53000000e-01	1.20225178e-02	1.26968331e-04
7.54000000e-01	1.21036095e-02	1.27711589e-04
7.55000000e-01	1.21763984e-02	1.29240070e-04
7.56000000e-01	1.20530206e-02	1.27412626e-04
7.57000000e-01	1.19266869e-02	1.26277256e-04
7.58000000e-01	1.19939851e-02	1.26669099e-04
7.59000000e-01	1.20010311e-02	1.26640727e-04
7.60000000e-01	1.18150936e-02	1.24605882e-04
7.61000000e-01	1.19745573e-02	1.26504897e-04
7.62000000e-01	1.19117025e-02	1.25668164e-04
7.63000000e-01	1.18471432e-02	1.24677479e-04
7.64000000e-01	1.18424304e-02	1.24124385e-04
7.65000000e-01	1.19456940e-02	1.25044822e-04
7.66000000e-01	1.19771368e-02	1.25701814e-04
7.67000000e-01	1.19110926e-02	1.24954548e-04
7.68000000e-01	1.20189678e-02	1.25520692e-04
7.69000000e-01	1.18475823e-02	1.24734983e-04
7.70000000e-01	1.18948346e-02	1.24767016e-04
7.71000000e-01	1.18843029e-02	1.24548415e-04
7.72000000e-01	1.18336320e-02	1.27753829e-04
7.73000000e-01	1.18954232e-02	1.32098400e-04
7.74000000e-01	1.16659638e-02	1.33486910e-04
7.75000000e-01	1.17817225e-02	1.36672732e-04
7.76000000e-01	1.18898349e-02	1.39681632e-04
7.77000000e-01	1.18352158e-02	1.41533999e-04
7.78000000e-01	1.18557264e-02	1.43172163e-04
7.79000000e-01	1.19197923e-02	1.45445921e-04
7.80000000e-01	1.17911636e-02	1.45999030e-04
7.81000000e-01	1.15466028e-02	1.44647415e-04
7.82000000e-01	1.17837105e-02	1.48476021e-04
7.83000000e-01	1.17247084e-02	1.50124985e-04
7.84000000e-01	1.16524404e-02	1.50853288e-04
7.85000000e-01	1.18181481e-02	1.54554876e-04
7.86000000e-01	1.18348598e-02	1.56370512e-04
7.87000000e-01	1.16298378e-02	1.55712446e-04
7.88000000e-01	1.14768683e-02	1.54852393e-04
7.89000000e-01	1.18316529e-02	1.60279584e-04
7.90000000e-01	1.14240985e-02	1.57862834e-04
7.91000000e-01	1.16612382e-02	1.61956449e-04
7.92000000e-01	1.15806816e-02	1.62189462e-04
7.93000000e-01	1.14106398e-02	1.62093563e-04
7.94000000e-01	1.16525166e-02	1.66840507e-04
7.95000000e-01	1.15492543e-02	1.66575408e-04
7.96000000e-01	1.15923778e-02	1.69299023e-04
7.97000000e-01	1.14529238e-02	1.68813488e-04
7.98000000e-01	1.16646940e-02	1.73357013e-04
7.99000000e-01	1.14235923e-02	1.72932963e-04
8.00000000e-01	1.14604526e-02	1.74737332e-04
8.01000000e-01	1.16327337e-02	1.78713024e-04
8.02000000e-01	1.13940792e-02	1.77332334e-04
8.03000000e-01	1.14330692e-02	1.79980714e-04
8.04000000e-01	1.16639593e-02	1.84993034e-04
8.05000000e-01	1.15839088e-02	1.86110952e-04
8.06000000e-01	1.14762540e-02	1.85742445e-04
8.07000000e-01	1.15063095e-02	1.87155437e-04
8.08000000e-01	1.12295414e-02	1.87098562e-04
8.09000000e-01	1.13235983e-02	1.89005060e-04
8.10000000e-01	1.13350039e-02	1.93330589e-04
8.11000000e-01	1.14051584e-02	1.95512448e-04
8.12000000e-01	1.12998441e-02	1.95962294e-04
8.13000000e-01	1.12256359e-02	1.97993425e-04
8.14000000e-01	1.12898738e-02	2.00360879e-04
8.15000000e-01	1.13479336e-02	2.03529047e-04
8.16000000e-01	1.12139575e-02	2.04382968e-04
8.17000000e-01	1.11883764e-02	2.06650167e-04
8.18000000e-01	1.11669015e-02	2.09719070e-04
8.19000000e-01	1.11239348e-02	2.09866653e-04
8.20000000e-01	1.11619597e-02	2.14412921e-04
8.21000000e-01	1.13790405e-02	2.19636374e-04
8.22000000e-01	1.11258122e-02	2.19258782e-04
8.23000000e-01	1.11206650e-02	2.23398099e-04
8.24000000e-01	1.12224062e-02	2.26655606e-04
8.25000000e-01	1.11674293e-02	2.29599694e-04
8.26000000e-01	1.11293569e-02	2.32378983e-04
8.27000000e-01	1.11503517e-02	2.35742909e-04
8.28000000e-01	1.11231944e-02	2.38959311e-04
8.29000000e-01	1.12202200e-02	2.44021077e-04
8.30000000e-01	1.12818807e-02	2.47943493e-04
8.31000000e-01	1.10731313e-02	2.49640806e-04
8.32000000e-01	1.10003794e-02	2.51299258e-04
8.33000000e-01	1.10125134e-02	2.55290510e-04
8.34000000e-01	1.09924565e-02	2.57742038e-04
8.35000000e-01	1.09691702e-02	2.65408122e-04
8.36000000e-01	1.07641932e-02	2.63984714e-04
8.37000000e-01	1.10319570e-02	2.75915232e-04
8.38000000e-01	1.12517012e-02	2.85849416e-04
8.39000000e-01	1.05235468e-02	2.75289750e-04
8.40000000e-01	1.07875595e-02	2.84572573e-04
8.41000000e-01	1.09705415e-02	2.98868330e-04
8.42000000e-01	1.08862423e-02	3.04248519e-04
8.43000000e-01	1.06089604e-02	3.05097664e-04
8.44000000e-01	1.09258045e-02	3.17665583e-04
8.45000000e-01	1.08236555e-02	3.22113876e-04
8.46000000e-01	1.11474813e-02	3.42469811e-04
8.47000000e-01	1.07288822e-02	3.43576698e-04
8.48000000e-01	1.10259623e-02	3.57185041e-04
8.49000000e-01	1.07968676e-02	3.66210199e-04
8.50000000e-01	1.05637587e-02	3.69494896e-04
8.51000000e-01	1.05779579e-02	3.86872788e-04
8.52000000e-01	1.07833485e-02	4.09130857e-04
8.53000000e-01	1.04168166e-02	4.08332297e-04
8.54000000e-01	1.03774264e-02	4.26304800e-04
8.55000000e-01	1.04327823e-02	4.54369350e-04
8.56000000e-01	1.02004145e-02	4.57441171e-04
8.57000000e-01	1.05554330e-02	4.73061890e-04
8.58000000e-01	1.03988701e-02	4.80345890e-04
8.59000000e-01	1.05915116e-02	5.08793642e-04
8.60000000e-01	1.03819960e-02	5.15667029e-04
8.61000000e-01	1.04024744e-02	5.28863529e-04
8.62000000e-01	1.09706010e-02	5.70978081e-04
8.63000000e-01	1.03709536e-02	5.71286697e-04
8.64000000e-01	1.06480648e-02	6.05526259e-04
8.65000000e-01	1.08629961e-02	6.51590215e-04
8.66000000e-01	1.07248852e-02	6.74568087e-04
8.67000000e-01	1.02422427e-02	6.92458119e-04
8.68000000e-01	1.09703863e-02	7.72892810e-04
8.69000000e-01	1.01055678e-02	8.00056592e-04
8.70000000e-01	1.01314787e-02	8.62410299e-04
8.71000000e-01	1.06802822e-02	9.80891607e-04
8.72000000e-01	1.01911340e-02	1.06367074e-03
8.73000000e-01	1.01763456e-02	1.26387840e-03
8.74000000e-01	1.11780618e-02	1.72604906e-03
8.75000000e-01	1.15101113e-02	3.97626171e-03
