% Filename : SDL7c_00027_00008.h5
% Date & Time : 30-Oct-2025 17:06:46
% X-ray Energy (keV) : 13.30001
% Exposure Time (s) : 0.500
% Beam Center : 1461.24000, 208.98300
% Sample to Detector Distance (SDD) (mm) : 1990.750
% Detector Pixel Size (mm) : 0.075
% Photodiode Value : 140911.000
% I0 of Sample : 0
% I0 of Standard : 1
% 
% q(A^-1)   I(q)    I(q)_SE
0.00000000e+00	1.41034711e-02	7.58519804e-03
2.50000000e-04	0.00000000e+00	0.00000000e+00
5.00000000e-04	0.00000000e+00	0.00000000e+00
7.50000000e-04	0.00000000e+00	0.00000000e+00
1.00000000e-03	0.00000000e+00	0.00000000e+00
1.25000000e-03	0.00000000e+00	0.00000000e+00
1.50000000e-03	0.00000000e+00	0.00000000e+00
1.75000000e-03	0.00000000e+00	0.00000000e+00
2.00000000e-03	0.00000000e+00	0.00000000e+00
2.25000000e-03	0.00000000e+00	0.00000000e+00
2.50000000e-03	0.00000000e+00	0.00000000e+00
2.75000000e-03	0.00000000e+00	0.00000000e+00
3.00000000e-03	0.00000000e+00	0.00000000e+00
3.25000000e-03	2.21665052e+03	2.07278334e+03
3.50000000e-03	3.38392279e+01	2.22708379e+01
3.75000000e-03	1.40424490e+01	6.61618408e+00
4.00000000e-03	1.57497311e+02	1.38060520e+02
4.25000000e-03	1.23386819e+01	6.64335606e+00
4.50000000e-03	7.77683128e+01	6.67198754e+01
4.75000000e-03	8.99032918e+01	5.34987359e+01
5.00000000e-03	6.77847975e+01	3.99307358e+01
5.25000000e-03	6.00945477e+01	3.56836838e+01
5.50000000e-03	4.56076270e+01	2.66547914e+01
5.75000000e-03	4.13102305e+01	2.39557575e+01
6.00000000e-03	3.27219401e+01	1.87144205e+01
6.25000000e-03	2.44262045e+01	1.32735757e+01
6.50000000e-03	2.21816107e+01	1.20693953e+01
6.75000000e-03	1.95309047e+01	1.06090116e+01
7.00000000e-03	1.64271811e+01	8.79458279e+00
7.25000000e-03	1.56517046e+01	8.33718899e+00
7.50000000e-03	1.33094089e+01	7.00739668e+00
7.75000000e-03	1.22083829e+01	6.62772370e+00
8.00000000e-03	1.08306995e+01	5.57379178e+00
8.25000000e-03	9.22841215e+00	4.89351750e+00
8.50000000e-03	7.78090585e+00	3.98100853e+00
8.75000000e-03	7.59810347e+00	3.91426159e+00
9.00000000e-03	7.06060424e+00	3.69691021e+00
9.25000000e-03	5.85767724e+00	3.09936428e+00
9.50000000e-03	4.97850139e+00	2.55959825e+00
9.75000000e-03	4.57156344e+00	2.38726804e+00
1.00000000e-02	4.41849841e+00	2.40358138e+00
1.02500000e-02	3.57746858e+00	1.86370383e+00
1.05000000e-02	3.44829378e+00	1.80789076e+00
1.07500000e-02	2.98674639e+00	1.54492987e+00
1.10000000e-02	2.62937864e+00	1.35994535e+00
1.12500000e-02	2.35190671e+00	1.29941526e+00
1.15000000e-02	2.22570641e+00	1.14111402e+00
1.17500000e-02	1.53504826e+00	9.30837395e-01
1.20000000e-02	2.21445508e+00	1.14401622e+00
1.22500000e-02	1.78304207e+00	8.96616976e-01
1.25000000e-02	1.75882267e+00	8.87534222e-01
1.27500000e-02	1.44625308e+00	7.17017814e-01
1.30000000e-02	1.46474218e+00	7.33605639e-01
1.32500000e-02	1.31419168e+00	6.42189967e-01
1.35000000e-02	1.12033515e+00	5.13987219e-01
1.37500000e-02	1.03380724e+00	4.58272241e-01
1.40000000e-02	1.05135652e+00	4.73960276e-01
1.42500000e-02	9.62157737e-01	4.24675426e-01
1.45000000e-02	9.95312146e-01	4.56199033e-01
1.47500000e-02	9.10932907e-01	4.14740248e-01
1.50000000e-02	8.70568658e-01	3.97612046e-01
1.52500000e-02	8.53441586e-01	4.03019552e-01
1.55000000e-02	7.07096351e-01	3.20822173e-01
1.57500000e-02	7.16256210e-01	3.29522570e-01
1.60000000e-02	6.09479568e-01	2.71265592e-01
1.62500000e-02	6.23442351e-01	2.84797213e-01
1.65000000e-02	5.56018186e-01	2.47126342e-01
1.67500000e-02	5.11335937e-01	2.23461056e-01
1.70000000e-02	5.10936914e-01	2.21693934e-01
1.72500000e-02	4.09398777e-01	1.65860185e-01
1.75000000e-02	4.24364504e-01	1.78392110e-01
1.77500000e-02	4.30120163e-01	1.89887010e-01
1.80000000e-02	4.12404031e-01	1.73531816e-01
1.82500000e-02	3.91731944e-01	1.63956987e-01
1.85000000e-02	3.61034442e-01	1.49334939e-01
1.87500000e-02	3.32328809e-01	1.33272994e-01
1.90000000e-02	3.25512278e-01	1.29772403e-01
1.92500000e-02	3.06972325e-01	1.21341006e-01
1.95000000e-02	2.90514103e-01	1.18493595e-01
1.97500000e-02	2.78820036e-01	1.09363768e-01
2.00000000e-02	2.12742801e-01	9.21565201e-02
2.02500000e-02	2.25075605e-01	1.00150229e-01
2.05000000e-02	2.44725067e-01	9.56319541e-02
2.07500000e-02	2.29336527e-01	8.80682961e-02
2.10000000e-02	2.22905757e-01	8.19406652e-02
2.12500000e-02	2.09489713e-01	7.49318981e-02
2.15000000e-02	2.06890370e-01	7.53714405e-02
2.17500000e-02	2.13633940e-01	7.83974881e-02
2.20000000e-02	2.02828382e-01	7.26169485e-02
2.22500000e-02	2.06136891e-01	7.84850703e-02
2.25000000e-02	2.02050353e-01	7.48201990e-02
2.27500000e-02	1.87398601e-01	6.68296510e-02
2.30000000e-02	1.78598527e-01	6.23760373e-02
2.32500000e-02	1.80920991e-01	6.39358212e-02
2.35000000e-02	1.73931663e-01	5.95984621e-02
2.37500000e-02	1.73855812e-01	6.16338498e-02
2.40000000e-02	1.75453411e-01	6.29041367e-02
2.42500000e-02	1.60498541e-01	5.32818367e-02
2.45000000e-02	1.55720411e-01	5.17658751e-02
2.47500000e-02	1.57496653e-01	5.37726352e-02
2.50000000e-02	1.51065131e-01	4.99557537e-02
2.52500000e-02	1.50531938e-01	5.03300213e-02
2.55000000e-02	1.37337677e-01	4.46748404e-02
2.57500000e-02	1.32516782e-01	4.05336403e-02
2.60000000e-02	1.35319246e-01	4.27982896e-02
2.62500000e-02	1.27654800e-01	3.88454132e-02
2.65000000e-02	1.22531485e-01	3.62301673e-02
2.67500000e-02	1.18315442e-01	3.42412993e-02
2.70000000e-02	1.08938011e-01	3.04899912e-02
2.72500000e-02	1.12458211e-01	3.27966191e-02
2.75000000e-02	9.14371889e-02	2.53859126e-02
2.77500000e-02	9.66981744e-02	2.69888356e-02
2.80000000e-02	1.03832528e-01	2.90043771e-02
2.82500000e-02	1.00506483e-01	2.67244473e-02
2.85000000e-02	9.88714721e-02	2.57626159e-02
2.87500000e-02	9.58044400e-02	2.45369026e-02
2.90000000e-02	9.67522790e-02	2.50251606e-02
2.92500000e-02	8.91547035e-02	2.22765884e-02
2.95000000e-02	8.98017547e-02	2.13930031e-02
2.97500000e-02	8.67149588e-02	2.07682396e-02
3.00000000e-02	8.33602019e-02	1.91124119e-02
3.02500000e-02	8.61672256e-02	2.05703761e-02
3.05000000e-02	7.95618569e-02	1.83128760e-02
3.07500000e-02	7.86941847e-02	1.73663717e-02
3.10000000e-02	7.87632451e-02	1.79574112e-02
3.12500000e-02	8.26093834e-02	1.95393016e-02
3.15000000e-02	7.71147523e-02	1.70055610e-02
3.17500000e-02	7.43866805e-02	1.59782191e-02
3.20000000e-02	7.43327558e-02	1.54839083e-02
3.22500000e-02	7.32180608e-02	1.54332313e-02
3.25000000e-02	7.38536182e-02	1.61853599e-02
3.27500000e-02	7.07174054e-02	1.42692760e-02
3.30000000e-02	6.83089874e-02	1.36309249e-02
3.32500000e-02	6.54705420e-02	1.26019288e-02
3.35000000e-02	6.55455022e-02	1.24076025e-02
3.37500000e-02	6.17986351e-02	1.14613264e-02
3.40000000e-02	6.22365901e-02	1.16581089e-02
3.42500000e-02	6.17790404e-02	1.17844350e-02
3.45000000e-02	6.21212526e-02	1.20113311e-02
3.47500000e-02	5.88907000e-02	1.04278609e-02
3.50000000e-02	5.77484080e-02	1.07200706e-02
3.52500000e-02	5.73141155e-02	1.02460345e-02
3.55000000e-02	5.62312003e-02	9.63970398e-03
3.57500000e-02	5.47395437e-02	9.51488945e-03
3.60000000e-02	4.81140343e-02	6.14604383e-03
3.62500000e-02	5.20472337e-02	8.43944739e-03
3.65000000e-02	5.23855424e-02	8.62465346e-03
3.67500000e-02	5.24895419e-02	8.30396047e-03
3.70000000e-02	5.11147695e-02	7.82777496e-03
3.72500000e-02	5.11012192e-02	7.73464294e-03
3.75000000e-02	4.89936277e-02	7.13360291e-03
3.77500000e-02	4.84428680e-02	6.63859204e-03
3.80000000e-02	4.86615837e-02	7.24461574e-03
3.82500000e-02	4.84221156e-02	6.52846051e-03
3.85000000e-02	4.78648067e-02	6.73576088e-03
3.87500000e-02	4.70773739e-02	6.20807565e-03
3.90000000e-02	4.56578743e-02	6.35664709e-03
3.92500000e-02	4.52732055e-02	5.88555414e-03
3.95000000e-02	4.50410925e-02	6.04921989e-03
3.97500000e-02	4.47202328e-02	5.71130393e-03
4.00000000e-02	4.35112169e-02	5.46409175e-03
4.02500000e-02	4.37151160e-02	5.54592721e-03
4.05000000e-02	4.28449155e-02	5.36346888e-03
4.07500000e-02	4.26339233e-02	4.98820179e-03
4.10000000e-02	4.12768748e-02	4.74379257e-03
4.12500000e-02	4.22664254e-02	5.06830294e-03
4.15000000e-02	4.04503608e-02	4.92978784e-03
4.17500000e-02	4.15860972e-02	4.79231016e-03
4.20000000e-02	3.90403783e-02	4.24806392e-03
4.22500000e-02	3.96770126e-02	4.17900555e-03
4.25000000e-02	3.95643127e-02	4.22799114e-03
4.27500000e-02	3.89022854e-02	3.99001054e-03
4.30000000e-02	3.78423747e-02	3.75833930e-03
4.32500000e-02	3.76144613e-02	3.60851607e-03
4.35000000e-02	3.51936164e-02	3.10471871e-03
4.37500000e-02	3.67066900e-02	3.58393090e-03
4.40000000e-02	3.64098303e-02	3.48640862e-03
4.42500000e-02	3.50954713e-02	3.28033110e-03
4.45000000e-02	3.61989176e-02	3.27093459e-03
4.47500000e-02	3.59284951e-02	3.19265352e-03
4.50000000e-02	3.52157061e-02	3.17959884e-03
4.52500000e-02	3.54444860e-02	3.02966325e-03
4.55000000e-02	3.58401092e-02	3.16559055e-03
4.57500000e-02	3.39701796e-02	2.89093920e-03
4.60000000e-02	3.51274799e-02	3.03816821e-03
4.62500000e-02	3.34512907e-02	2.81200468e-03
4.65000000e-02	3.35891954e-02	2.73870327e-03
4.67500000e-02	3.36335548e-02	2.52643277e-03
4.70000000e-02	3.36792170e-02	2.49995453e-03
4.72500000e-02	3.38713965e-02	2.58497343e-03
4.75000000e-02	3.33469591e-02	2.58706714e-03
4.77500000e-02	3.39489117e-02	2.49358739e-03
4.80000000e-02	3.35202671e-02	2.32839815e-03
4.82500000e-02	3.35442157e-02	2.58574724e-03
4.85000000e-02	3.30389486e-02	2.54675046e-03
4.87500000e-02	3.29183937e-02	2.34039194e-03
4.90000000e-02	3.16492782e-02	2.25552431e-03
4.92500000e-02	3.16296948e-02	2.10607403e-03
4.95000000e-02	3.12522431e-02	2.03411808e-03
4.97500000e-02	3.09005257e-02	2.12239140e-03
5.00000000e-02	3.11902791e-02	2.16409313e-03
5.02500000e-02	3.04050705e-02	1.93021089e-03
5.05000000e-02	3.03484321e-02	1.95765934e-03
5.07500000e-02	3.09894494e-02	2.00743379e-03
5.10000000e-02	3.00343565e-02	1.93063621e-03
5.12500000e-02	3.01246023e-02	1.85218521e-03
5.15000000e-02	2.91313574e-02	1.86919554e-03
5.17500000e-02	2.96265526e-02	1.71911476e-03
5.20000000e-02	2.97200728e-02	1.74256554e-03
5.22500000e-02	2.87062634e-02	1.64086858e-03
5.25000000e-02	2.93191693e-02	1.78801680e-03
5.27500000e-02	2.94900930e-02	1.72704903e-03
5.30000000e-02	2.94886796e-02	1.64911476e-03
5.32500000e-02	2.89270409e-02	1.67129249e-03
5.35000000e-02	2.87153212e-02	1.58306012e-03
5.37500000e-02	2.83926915e-02	1.57169820e-03
5.40000000e-02	2.86593950e-02	1.61329518e-03
5.42500000e-02	2.79407902e-02	1.45129402e-03
5.45000000e-02	2.90122996e-02	1.53985954e-03
5.47500000e-02	2.82597494e-02	1.49267374e-03
5.50000000e-02	2.78769249e-02	1.50631615e-03
5.52500000e-02	2.76966835e-02	1.43262777e-03
5.55000000e-02	2.68708141e-02	1.30360853e-03
5.57500000e-02	2.80374762e-02	1.44055058e-03
5.60000000e-02	2.71193048e-02	1.35388651e-03
5.62500000e-02	2.78453236e-02	1.36522732e-03
5.65000000e-02	2.71890176e-02	1.37151102e-03
5.67500000e-02	2.71184746e-02	1.32358352e-03
5.70000000e-02	2.68223991e-02	1.34169436e-03
5.72500000e-02	2.79549279e-02	1.35757325e-03
5.75000000e-02	2.75934026e-02	1.33889379e-03
5.77500000e-02	2.66484763e-02	1.20039256e-03
5.80000000e-02	2.67677746e-02	1.24576573e-03
5.82500000e-02	2.55747134e-02	1.18368271e-03
5.85000000e-02	2.57259779e-02	1.20239216e-03
5.87500000e-02	2.61081783e-02	1.16156174e-03
5.90000000e-02	2.60095769e-02	1.15801982e-03
5.92500000e-02	2.52676352e-02	1.13831669e-03
5.95000000e-02	2.55122669e-02	1.15416477e-03
5.97500000e-02	2.65011782e-02	1.14107077e-03
6.00000000e-02	2.55963124e-02	1.11271060e-03
6.02500000e-02	2.56940367e-02	1.12401448e-03
6.05000000e-02	2.57853433e-02	1.13787366e-03
6.07500000e-02	2.61276655e-02	1.12561990e-03
6.10000000e-02	2.54227795e-02	1.10215171e-03
6.12500000e-02	2.50083627e-02	1.04029462e-03
6.15000000e-02	2.52767472e-02	1.04319418e-03
6.17500000e-02	2.51992336e-02	1.04466843e-03
6.20000000e-02	2.51501804e-02	1.06492583e-03
6.22500000e-02	2.49160030e-02	1.04238418e-03
6.25000000e-02	2.51006210e-02	1.01013807e-03
6.27500000e-02	2.53449431e-02	1.02161055e-03
6.30000000e-02	2.52978317e-02	1.07049392e-03
6.32500000e-02	2.45314187e-02	1.00752677e-03
6.35000000e-02	2.52009854e-02	1.01470399e-03
6.37500000e-02	2.51531985e-02	1.01477339e-03
6.40000000e-02	2.49659136e-02	9.86607849e-04
6.42500000e-02	2.46269555e-02	9.79368618e-04
6.45000000e-02	2.47725681e-02	9.77922359e-04
6.47500000e-02	2.48449841e-02	9.93315440e-04
6.50000000e-02	2.44779805e-02	9.56064694e-04
6.52500000e-02	2.48371168e-02	9.60553977e-04
6.55000000e-02	2.41672731e-02	9.49614648e-04
6.57500000e-02	2.45214106e-02	9.52198899e-04
6.60000000e-02	2.49054161e-02	9.79282734e-04
6.62500000e-02	2.39762844e-02	9.16340935e-04
6.65000000e-02	2.47230576e-02	9.43113365e-04
6.67500000e-02	2.45405170e-02	9.22168325e-04
6.70000000e-02	2.42428371e-02	9.22372195e-04
6.72500000e-02	2.44416282e-02	9.12383818e-04
6.75000000e-02	2.44903817e-02	9.28904862e-04
6.77500000e-02	2.43314488e-02	8.92340111e-04
6.80000000e-02	2.44158649e-02	9.11407788e-04
6.82500000e-02	2.37672569e-02	8.73848204e-04
6.85000000e-02	2.43956532e-02	9.11071749e-04
6.87500000e-02	2.39427602e-02	9.06001219e-04
6.90000000e-02	2.43451878e-02	8.94666454e-04
6.92500000e-02	2.44546863e-02	8.95464443e-04
6.95000000e-02	2.43300043e-02	8.97548040e-04
6.97500000e-02	2.40868988e-02	9.00275125e-04
7.00000000e-02	2.34707708e-02	8.60499669e-04
7.02500000e-02	2.35952461e-02	8.45263750e-04
7.05000000e-02	2.34759941e-02	8.53341726e-04
7.07500000e-02	2.36046699e-02	8.57234192e-04
7.10000000e-02	2.32531736e-02	8.30050775e-04
7.12500000e-02	2.36968815e-02	8.59458112e-04
7.15000000e-02	2.40402707e-02	8.63059881e-04
7.17500000e-02	2.37766825e-02	8.47787879e-04
7.20000000e-02	2.34579064e-02	8.45160979e-04
7.22500000e-02	2.29778876e-02	8.24571251e-04
7.25000000e-02	2.31942888e-02	8.36363752e-04
7.27500000e-02	2.32989868e-02	8.23832124e-04
7.30000000e-02	2.31960666e-02	8.33874803e-04
7.32500000e-02	2.34748630e-02	8.24027128e-04
7.35000000e-02	2.40334226e-02	8.43836462e-04
7.37500000e-02	2.33497737e-02	8.25062503e-04
7.40000000e-02	2.35124785e-02	8.25577703e-04
7.42500000e-02	2.32011939e-02	8.19104532e-04
7.45000000e-02	2.30189186e-02	8.03917112e-04
7.47500000e-02	2.28002936e-02	7.88617329e-04
7.50000000e-02	2.37553505e-02	8.19066166e-04
7.52500000e-02	2.33436510e-02	8.07634329e-04
7.55000000e-02	2.33176486e-02	7.95796164e-04
7.57500000e-02	2.35152692e-02	8.11550753e-04
7.60000000e-02	2.30941833e-02	7.96915734e-04
7.62500000e-02	2.26555174e-02	7.78229919e-04
7.65000000e-02	2.28652688e-02	7.77404019e-04
7.67500000e-02	2.28906055e-02	7.81473936e-04
7.70000000e-02	2.23329958e-02	7.50204216e-04
7.72500000e-02	2.31187895e-02	8.00360502e-04
7.75000000e-02	2.25735147e-02	7.89054923e-04
7.77500000e-02	2.33426088e-02	8.22307244e-04
7.80000000e-02	2.27108650e-02	8.02020813e-04
7.82500000e-02	2.25487305e-02	8.01493627e-04
7.85000000e-02	2.29524073e-02	8.25075622e-04
7.87500000e-02	2.19914170e-02	7.79727060e-04
7.90000000e-02	2.22551372e-02	7.90785645e-04
7.92500000e-02	2.25701300e-02	8.04538613e-04
7.95000000e-02	2.28551695e-02	8.31311976e-04
7.97500000e-02	2.24942293e-02	8.14579511e-04
8.00000000e-02	2.25428609e-02	8.08417330e-04
8.02500000e-02	2.24994232e-02	8.14631363e-04
8.05000000e-02	2.29021262e-02	8.26415246e-04
8.07500000e-02	2.18303132e-02	8.05171355e-04
8.10000000e-02	2.28544283e-02	8.20466139e-04
8.12500000e-02	2.31861829e-02	8.51286256e-04
8.15000000e-02	2.22054987e-02	8.02649576e-04
8.17500000e-02	2.29126848e-02	8.33462845e-04
8.20000000e-02	2.19444173e-02	8.04335883e-04
8.22500000e-02	2.19473766e-02	8.09268865e-04
8.25000000e-02	2.25820778e-02	8.25335070e-04
8.27500000e-02	2.22640891e-02	8.13047700e-04
8.30000000e-02	2.17161141e-02	8.01365340e-04
8.32500000e-02	2.27122013e-02	8.34899754e-04
8.35000000e-02	2.26716778e-02	8.38052508e-04
8.37500000e-02	2.17280563e-02	7.96058803e-04
8.40000000e-02	2.23892950e-02	8.26320176e-04
8.42500000e-02	2.23746039e-02	8.30482370e-04
8.45000000e-02	2.21720544e-02	8.29253522e-04
8.47500000e-02	2.26283790e-02	8.43619170e-04
8.50000000e-02	2.26916915e-02	8.30531865e-04
8.52500000e-02	2.21991695e-02	8.32003968e-04
8.55000000e-02	2.23174778e-02	8.23535955e-04
8.57500000e-02	2.26815096e-02	8.37634671e-04
8.60000000e-02	2.23120866e-02	8.26830684e-04
8.62500000e-02	2.12030437e-02	7.89962744e-04
8.65000000e-02	2.18671948e-02	8.08038364e-04
8.67500000e-02	2.14948516e-02	7.98715509e-04
8.70000000e-02	2.27679411e-02	8.28382808e-04
8.72500000e-02	2.15185034e-02	7.76207022e-04
8.75000000e-02	2.24754149e-02	7.94483187e-04
8.77500000e-02	2.19242653e-02	7.67951542e-04
8.80000000e-02	2.15430091e-02	7.58742689e-04
8.82500000e-02	2.22729079e-02	7.78317614e-04
8.85000000e-02	2.12834669e-02	7.48138552e-04
8.87500000e-02	2.10807606e-02	7.23311758e-04
8.90000000e-02	2.16625271e-02	7.56778034e-04
8.92500000e-02	2.18716485e-02	7.50533104e-04
8.95000000e-02	2.19060664e-02	7.54819498e-04
8.97500000e-02	2.19004091e-02	7.46131815e-04
9.00000000e-02	2.20664166e-02	7.45476297e-04
9.02500000e-02	2.21083305e-02	7.45448065e-04
9.05000000e-02	2.20002074e-02	7.47404896e-04
9.07500000e-02	2.17013140e-02	7.30181027e-04
9.10000000e-02	2.20247901e-02	7.34809268e-04
9.12500000e-02	2.14895239e-02	7.17673495e-04
9.15000000e-02	2.10712793e-02	7.16588608e-04
9.17500000e-02	2.12297346e-02	7.09487031e-04
9.20000000e-02	2.16903542e-02	7.18396080e-04
9.22500000e-02	2.13597877e-02	7.10614757e-04
9.25000000e-02	2.09547607e-02	7.00234645e-04
9.27500000e-02	2.08816200e-02	6.88795276e-04
9.30000000e-02	2.16405123e-02	7.15987531e-04
9.32500000e-02	2.10964525e-02	7.00770912e-04
9.35000000e-02	2.15155281e-02	7.06699197e-04
9.37500000e-02	2.06942832e-02	6.80325753e-04
9.40000000e-02	2.23480320e-02	7.29075756e-04
9.42500000e-02	2.05998699e-02	6.72137520e-04
9.45000000e-02	2.15534719e-02	7.00807214e-04
9.47500000e-02	2.19149200e-02	7.10400433e-04
9.50000000e-02	2.16108138e-02	6.93041030e-04
9.52500000e-02	2.14517064e-02	6.95953134e-04
9.55000000e-02	2.14378289e-02	6.92744778e-04
9.57500000e-02	2.12362252e-02	6.93635694e-04
9.60000000e-02	2.08165028e-02	6.73737511e-04
9.62500000e-02	2.17272801e-02	7.00840112e-04
9.65000000e-02	2.09198616e-02	6.72906933e-04
9.67500000e-02	2.12893878e-02	6.81022301e-04
9.70000000e-02	2.08279147e-02	6.70738227e-04
9.72500000e-02	2.12636348e-02	6.81865021e-04
9.75000000e-02	2.10237041e-02	6.66541221e-04
9.77500000e-02	2.08828104e-02	6.59611247e-04
9.80000000e-02	2.16529598e-02	6.86140653e-04
9.82500000e-02	2.10954374e-02	6.72163492e-04
9.85000000e-02	2.09798726e-02	6.63783099e-04
9.87500000e-02	2.02077718e-02	6.43405758e-04
9.90000000e-02	2.05852510e-02	6.49938901e-04
9.92500000e-02	2.13425004e-02	6.71673557e-04
9.95000000e-02	2.10178687e-02	6.59512377e-04
9.97500000e-02	2.11351385e-02	6.61263949e-04
1.00000000e-01	2.07911520e-02	5.33918898e-04
1.00500000e-01	2.08629984e-02	4.63933807e-04
1.01000000e-01	2.09833914e-02	4.63741945e-04
1.01500000e-01	2.07925396e-02	4.62647616e-04
1.02000000e-01	2.07954064e-02	4.56530502e-04
1.02500000e-01	2.08938122e-02	4.57959353e-04
1.03000000e-01	2.10094749e-02	4.59377055e-04
1.03500000e-01	2.11313257e-02	4.60074240e-04
1.04000000e-01	2.05460480e-02	4.45287263e-04
1.04500000e-01	2.09563233e-02	4.54011090e-04
1.05000000e-01	2.08572327e-02	4.51010950e-04
1.05500000e-01	2.05206042e-02	4.43046751e-04
1.06000000e-01	2.02448014e-02	4.36225401e-04
1.06500000e-01	2.07585061e-02	4.43730794e-04
1.07000000e-01	2.11799237e-02	4.60410127e-04
1.07500000e-01	2.08018635e-02	4.60162314e-04
1.08000000e-01	2.05955074e-02	4.60102034e-04
1.08500000e-01	2.06176302e-02	4.64459589e-04
1.09000000e-01	2.01101210e-02	4.56325192e-04
1.09500000e-01	2.06583611e-02	4.69675329e-04
1.10000000e-01	2.07885432e-02	4.64112084e-04
1.10500000e-01	2.04102954e-02	4.48235343e-04
1.11000000e-01	2.07378436e-02	4.47785829e-04
1.11500000e-01	2.07143697e-02	4.43967135e-04
1.12000000e-01	2.05456613e-02	4.37756770e-04
1.12500000e-01	2.05401948e-02	4.33025019e-04
1.13000000e-01	2.06933671e-02	4.37326479e-04
1.13500000e-01	2.05352356e-02	4.32860927e-04
1.14000000e-01	2.08206479e-02	4.36441602e-04
1.14500000e-01	2.02826617e-02	4.24320307e-04
1.15000000e-01	2.06680992e-02	4.28898317e-04
1.15500000e-01	2.06882129e-02	4.29970541e-04
1.16000000e-01	2.09318389e-02	4.33982222e-04
1.16500000e-01	2.04521235e-02	4.23411727e-04
1.17000000e-01	2.05001789e-02	4.22274234e-04
1.17500000e-01	2.05490764e-02	4.21261335e-04
1.18000000e-01	2.03983806e-02	4.21874151e-04
1.18500000e-01	2.03107371e-02	4.15518144e-04
1.19000000e-01	2.06126650e-02	4.22505505e-04
1.19500000e-01	2.03453999e-02	4.13436550e-04
1.20000000e-01	2.04128226e-02	4.15092597e-04
1.20500000e-01	2.02716488e-02	4.11167637e-04
1.21000000e-01	2.01951264e-02	4.07772392e-04
1.21500000e-01	2.04670148e-02	4.13882276e-04
1.22000000e-01	2.07101167e-02	4.16559478e-04
1.22500000e-01	2.05149933e-02	4.12781056e-04
1.23000000e-01	2.01939504e-02	4.07531765e-04
1.23500000e-01	2.05969091e-02	4.13301048e-04
1.24000000e-01	2.03554726e-02	4.09341961e-04
1.24500000e-01	2.06974856e-02	4.11285363e-04
1.25000000e-01	2.05979251e-02	4.09528903e-04
1.25500000e-01	2.05125306e-02	4.06215265e-04
1.26000000e-01	2.07143826e-02	4.08539090e-04
1.26500000e-01	2.08937520e-02	4.12217980e-04
1.27000000e-01	2.05450196e-02	4.04016930e-04
1.27500000e-01	2.02187402e-02	3.98640670e-04
1.28000000e-01	2.05330747e-02	4.02984762e-04
1.28500000e-01	2.04481513e-02	4.02664514e-04
1.29000000e-01	2.04407533e-02	4.01759068e-04
1.29500000e-01	2.03411481e-02	3.96154404e-04
1.30000000e-01	2.03660340e-02	3.97872301e-04
1.30500000e-01	2.02049375e-02	3.93000485e-04
1.31000000e-01	2.00126603e-02	3.90290574e-04
1.31500000e-01	2.03438585e-02	3.94970723e-04
1.32000000e-01	2.02763682e-02	3.91304472e-04
1.32500000e-01	2.05824894e-02	3.95694516e-04
1.33000000e-01	2.05512315e-02	3.97206035e-04
1.33500000e-01	2.05638966e-02	3.91925274e-04
1.34000000e-01	2.07599159e-02	3.97579205e-04
1.34500000e-01	2.05254105e-02	3.90092201e-04
1.35000000e-01	2.07162347e-02	3.92236048e-04
1.35500000e-01	2.03290469e-02	3.86630542e-04
1.36000000e-01	2.02149576e-02	3.80748127e-04
1.36500000e-01	2.03335537e-02	3.86238860e-04
1.37000000e-01	1.99852419e-02	3.76988184e-04
1.37500000e-01	2.07861698e-02	3.89324308e-04
1.38000000e-01	2.01769923e-02	3.79304795e-04
1.38500000e-01	1.98609229e-02	3.73999562e-04
1.39000000e-01	2.01558530e-02	3.80358444e-04
1.39500000e-01	2.01520805e-02	3.77492755e-04
1.40000000e-01	2.00594187e-02	3.76904303e-04
1.40500000e-01	2.01041068e-02	3.76399210e-04
1.41000000e-01	2.03375468e-02	3.81325150e-04
1.41500000e-01	2.01406863e-02	3.75971034e-04
1.42000000e-01	2.02153754e-02	3.76505144e-04
1.42500000e-01	2.00160160e-02	3.74158324e-04
1.43000000e-01	2.04544296e-02	3.81151922e-04
1.43500000e-01	1.99198490e-02	3.70913984e-04
1.44000000e-01	1.99805455e-02	3.69968162e-04
1.44500000e-01	1.99551164e-02	3.68968572e-04
1.45000000e-01	1.98743058e-02	3.68153080e-04
1.45500000e-01	2.01726217e-02	3.71310884e-04
1.46000000e-01	2.00179565e-02	3.68148515e-04
1.46500000e-01	2.01695106e-02	3.71123628e-04
1.47000000e-01	2.01029372e-02	3.68895478e-04
1.47500000e-01	1.98254027e-02	3.64680873e-04
1.48000000e-01	1.99581581e-02	3.65061560e-04
1.48500000e-01	1.98972183e-02	3.61782721e-04
1.49000000e-01	1.96703199e-02	3.59810380e-04
1.49500000e-01	2.01640053e-02	3.66882683e-04
1.50000000e-01	1.97701523e-02	3.59410427e-04
1.50500000e-01	2.01364683e-02	3.65461796e-04
1.51000000e-01	1.98747612e-02	3.60406796e-04
1.51500000e-01	2.01571995e-02	3.62433838e-04
1.52000000e-01	1.96695034e-02	3.52722754e-04
1.52500000e-01	1.98942802e-02	3.58762108e-04
1.53000000e-01	1.97549914e-02	3.56436160e-04
1.53500000e-01	2.00513926e-02	3.59295202e-04
1.54000000e-01	2.00065117e-02	3.57321720e-04
1.54500000e-01	1.98387295e-02	3.60650160e-04
1.55000000e-01	1.97961132e-02	3.65633333e-04
1.55500000e-01	1.97468383e-02	3.66516921e-04
1.56000000e-01	1.99069014e-02	3.71268807e-04
1.56500000e-01	1.94576790e-02	3.63571643e-04
1.57000000e-01	1.95875468e-02	3.65557513e-04
1.57500000e-01	1.97406806e-02	3.63043378e-04
1.58000000e-01	1.93991376e-02	3.52249302e-04
1.58500000e-01	1.96028649e-02	3.53018566e-04
1.59000000e-01	1.96682302e-02	3.52558828e-04
1.59500000e-01	1.97229404e-02	3.52686988e-04
1.60000000e-01	1.97472365e-02	3.52193418e-04
1.60500000e-01	1.97953792e-02	3.51159171e-04
1.61000000e-01	1.97234698e-02	3.49929312e-04
1.61500000e-01	2.00083081e-02	3.52567056e-04
1.62000000e-01	1.98178832e-02	3.50014120e-04
1.62500000e-01	1.95728805e-02	3.46844019e-04
1.63000000e-01	1.97069876e-02	3.45834298e-04
1.63500000e-01	1.95875730e-02	3.45855056e-04
1.64000000e-01	1.94550217e-02	3.40873395e-04
1.64500000e-01	1.95503723e-02	3.42715125e-04
1.65000000e-01	1.96428990e-02	3.43858709e-04
1.65500000e-01	1.95236606e-02	3.40619176e-04
1.66000000e-01	1.95620750e-02	3.40262345e-04
1.66500000e-01	1.94156147e-02	3.39175594e-04
1.67000000e-01	1.94976158e-02	3.40628560e-04
1.67500000e-01	1.93456312e-02	3.37356082e-04
1.68000000e-01	1.97008082e-02	3.40950463e-04
1.68500000e-01	1.94884497e-02	3.36825784e-04
1.69000000e-01	1.92982930e-02	3.33872023e-04
1.69500000e-01	1.92996270e-02	3.33366366e-04
1.70000000e-01	1.90512858e-02	3.29800899e-04
1.70500000e-01	1.95279711e-02	3.36026012e-04
1.71000000e-01	1.92679520e-02	3.31391190e-04
1.71500000e-01	1.92445858e-02	3.30835521e-04
1.72000000e-01	1.93742557e-02	3.32072773e-04
1.72500000e-01	1.91228421e-02	3.26112542e-04
1.73000000e-01	1.92331267e-02	3.27455533e-04
1.73500000e-01	1.94791627e-02	3.31092244e-04
1.74000000e-01	1.94621879e-02	3.30044399e-04
1.74500000e-01	1.95004570e-02	3.29764838e-04
1.75000000e-01	1.93648116e-02	3.25944212e-04
1.75500000e-01	1.90625268e-02	3.19967814e-04
1.76000000e-01	1.91964528e-02	3.23109285e-04
1.76500000e-01	1.91506864e-02	3.23518611e-04
1.77000000e-01	1.94268042e-02	3.25063747e-04
1.77500000e-01	1.94112639e-02	3.26943656e-04
1.78000000e-01	1.91405733e-02	3.20734787e-04
1.78500000e-01	1.92537630e-02	3.23987117e-04
1.79000000e-01	1.91472173e-02	3.21387732e-04
1.79500000e-01	1.93604355e-02	3.24647817e-04
1.80000000e-01	1.91531202e-02	3.21037646e-04
1.80500000e-01	1.91648782e-02	3.21236314e-04
1.81000000e-01	1.93056214e-02	3.22768118e-04
1.81500000e-01	1.90947021e-02	3.18163523e-04
1.82000000e-01	1.91663138e-02	3.20004371e-04
1.82500000e-01	1.94419596e-02	3.21955982e-04
1.83000000e-01	1.92886883e-02	3.20744764e-04
1.83500000e-01	1.89914890e-02	3.16115363e-04
1.84000000e-01	1.91327754e-02	3.16781813e-04
1.84500000e-01	1.90984566e-02	3.15172926e-04
1.85000000e-01	1.91179501e-02	3.15008101e-04
1.85500000e-01	1.89469922e-02	3.12549135e-04
1.86000000e-01	1.88399335e-02	3.11113928e-04
1.86500000e-01	1.90998804e-02	3.14201720e-04
1.87000000e-01	1.88481342e-02	3.10922355e-04
1.87500000e-01	1.88870746e-02	3.09865284e-04
1.88000000e-01	1.89210896e-02	3.10630235e-04
1.88500000e-01	1.87954558e-02	3.07663555e-04
1.89000000e-01	1.89693373e-02	3.10039148e-04
1.89500000e-01	1.89819359e-02	3.09741494e-04
1.90000000e-01	1.87964246e-02	3.07402464e-04
1.90500000e-01	1.88318079e-02	3.06753200e-04
1.91000000e-01	1.90864183e-02	3.09745362e-04
1.91500000e-01	1.87945991e-02	3.05490336e-04
1.92000000e-01	1.88672605e-02	3.05433612e-04
1.92500000e-01	1.88086951e-02	3.04508543e-04
1.93000000e-01	1.90003165e-02	3.07793852e-04
1.93500000e-01	1.88188252e-02	3.04957537e-04
1.94000000e-01	1.89492837e-02	3.06019056e-04
1.94500000e-01	1.90289339e-02	3.05705311e-04
1.95000000e-01	1.89841291e-02	3.06522057e-04
1.95500000e-01	1.86033299e-02	2.99996038e-04
1.96000000e-01	1.89010101e-02	3.03023655e-04
1.96500000e-01	1.90095441e-02	3.04992852e-04
1.97000000e-01	1.88913548e-02	3.02378339e-04
1.97500000e-01	1.87194916e-02	2.99629381e-04
1.98000000e-01	1.84898818e-02	2.95757512e-04
1.98500000e-01	1.87183359e-02	2.99604440e-04
1.99000000e-01	1.86485735e-02	2.98862082e-04
1.99500000e-01	1.86442158e-02	2.96825280e-04
2.00000000e-01	1.86437858e-02	2.98418149e-04
2.00500000e-01	1.87552041e-02	2.97389402e-04
2.01000000e-01	1.89259978e-02	3.00428145e-04
2.01500000e-01	1.87224297e-02	2.96840675e-04
2.02000000e-01	1.87373627e-02	2.96889655e-04
2.02500000e-01	1.84657032e-02	2.92768979e-04
2.03000000e-01	1.85846956e-02	2.94697492e-04
2.03500000e-01	1.86705661e-02	2.93945432e-04
2.04000000e-01	1.85934336e-02	2.93460684e-04
2.04500000e-01	1.84673636e-02	2.91587167e-04
2.05000000e-01	1.87052746e-02	2.93639314e-04
2.05500000e-01	1.86027631e-02	2.92971762e-04
2.06000000e-01	1.85863643e-02	2.91516433e-04
2.06500000e-01	1.86209085e-02	2.91676346e-04
2.07000000e-01	1.84596362e-02	2.89231702e-04
2.07500000e-01	1.84003771e-02	2.88782525e-04
2.08000000e-01	1.87991605e-02	2.94142166e-04
2.08500000e-01	1.84584361e-02	2.87557595e-04
2.09000000e-01	1.82996570e-02	2.86236129e-04
2.09500000e-01	1.84033729e-02	2.86708626e-04
2.10000000e-01	1.85493380e-02	2.89215968e-04
2.10500000e-01	1.84542452e-02	2.87305293e-04
2.11000000e-01	1.83822158e-02	2.84863565e-04
2.11500000e-01	1.84839787e-02	2.87721717e-04
2.12000000e-01	1.83490760e-02	2.83614261e-04
2.12500000e-01	1.86732742e-02	2.89532782e-04
2.13000000e-01	1.83496878e-02	2.83574458e-04
2.13500000e-01	1.82913548e-02	2.82945311e-04
2.14000000e-01	1.87281896e-02	2.88691219e-04
2.14500000e-01	1.84993946e-02	2.84616021e-04
2.15000000e-01	1.84248204e-02	2.83626616e-04
2.15500000e-01	1.84392803e-02	2.82723305e-04
2.16000000e-01	1.85262256e-02	2.84419741e-04
2.16500000e-01	1.83034001e-02	2.80600925e-04
2.17000000e-01	1.85459709e-02	2.87863684e-04
2.17500000e-01	1.83673976e-02	2.89410638e-04
2.18000000e-01	1.84374807e-02	2.91497399e-04
2.18500000e-01	1.84748042e-02	2.93645200e-04
2.19000000e-01	1.82370818e-02	2.92458629e-04
2.19500000e-01	1.82078398e-02	2.92467818e-04
2.20000000e-01	1.82321109e-02	2.94420412e-04
2.20500000e-01	1.83410555e-02	2.96857235e-04
2.21000000e-01	1.83613858e-02	2.96895816e-04
2.21500000e-01	1.83865510e-02	2.99753608e-04
2.22000000e-01	1.82856779e-02	2.98028166e-04
2.22500000e-01	1.82558038e-02	2.97220608e-04
2.23000000e-01	1.85179786e-02	3.02598440e-04
2.23500000e-01	1.84395116e-02	3.02258683e-04
2.24000000e-01	1.83539968e-02	3.00809139e-04
2.24500000e-01	1.81067907e-02	2.98162325e-04
2.25000000e-01	1.81459053e-02	2.98802964e-04
2.25500000e-01	1.85066272e-02	3.05213811e-04
2.26000000e-01	1.82092911e-02	3.01410480e-04
2.26500000e-01	1.81458762e-02	2.96396570e-04
2.27000000e-01	1.83623332e-02	2.96590679e-04
2.27500000e-01	1.82245351e-02	2.92536322e-04
2.28000000e-01	1.80195184e-02	2.88224240e-04
2.28500000e-01	1.83158307e-02	2.91392861e-04
2.29000000e-01	1.82672011e-02	2.87883674e-04
2.29500000e-01	1.82436692e-02	2.87181662e-04
2.30000000e-01	1.82791751e-02	2.86708700e-04
2.30500000e-01	1.83066661e-02	2.86979667e-04
2.31000000e-01	1.82089212e-02	2.85487768e-04
2.31500000e-01	1.82360880e-02	2.83743131e-04
2.32000000e-01	1.81911873e-02	2.83267531e-04
2.32500000e-01	1.79377758e-02	2.79126248e-04
2.33000000e-01	1.80919190e-02	2.78840062e-04
2.33500000e-01	1.81151051e-02	2.79351163e-04
2.34000000e-01	1.80491913e-02	2.77323622e-04
2.34500000e-01	1.79624441e-02	2.76775017e-04
2.35000000e-01	1.80438285e-02	2.78545064e-04
2.35500000e-01	1.80298887e-02	2.76470559e-04
2.36000000e-01	1.80156765e-02	2.76578612e-04
2.36500000e-01	1.79354853e-02	2.76060022e-04
2.37000000e-01	1.79335123e-02	2.73424725e-04
2.37500000e-01	1.82079375e-02	2.78015405e-04
2.38000000e-01	1.78305693e-02	2.70666783e-04
2.38500000e-01	1.80039616e-02	2.74106743e-04
2.39000000e-01	1.78746614e-02	2.71189337e-04
2.39500000e-01	1.82850248e-02	2.76036653e-04
2.40000000e-01	1.79751777e-02	2.72140395e-04
2.40500000e-01	1.77709815e-02	2.67902264e-04
2.41000000e-01	1.81249794e-02	2.72691328e-04
2.41500000e-01	1.77067541e-02	2.65480226e-04
2.42000000e-01	1.80739091e-02	2.71296223e-04
2.42500000e-01	1.81309652e-02	2.71111147e-04
2.43000000e-01	1.78046341e-02	2.66948346e-04
2.43500000e-01	1.78926096e-02	2.66966082e-04
2.44000000e-01	1.80128379e-02	2.67780753e-04
2.44500000e-01	1.78830817e-02	2.66333491e-04
2.45000000e-01	1.80555869e-02	2.68184496e-04
2.45500000e-01	1.79596252e-02	2.66582019e-04
2.46000000e-01	1.76868801e-02	2.61905242e-04
2.46500000e-01	1.81826937e-02	2.67892479e-04
2.47000000e-01	1.77511337e-02	2.62577674e-04
2.47500000e-01	1.78541526e-02	2.63512540e-04
2.48000000e-01	1.78784219e-02	2.64441137e-04
2.48500000e-01	1.77816656e-02	2.61769484e-04
2.49000000e-01	1.78874120e-02	2.62192388e-04
2.49500000e-01	1.79166307e-02	2.63918945e-04
2.50000000e-01	1.76893107e-02	2.59997813e-04
2.50500000e-01	1.76933304e-02	2.59854824e-04
2.51000000e-01	1.78482877e-02	2.61491606e-04
2.51500000e-01	1.77526367e-02	2.60470031e-04
2.52000000e-01	1.76104160e-02	2.57820101e-04
2.52500000e-01	1.77194314e-02	2.58635769e-04
2.53000000e-01	1.76259484e-02	2.57785299e-04
2.53500000e-01	1.75810646e-02	2.56617076e-04
2.54000000e-01	1.77708339e-02	2.59227473e-04
2.54500000e-01	1.76759960e-02	2.58171759e-04
2.55000000e-01	1.76117843e-02	2.55833359e-04
2.55500000e-01	1.77157722e-02	2.57367486e-04
2.56000000e-01	1.78576002e-02	2.58653013e-04
2.56500000e-01	1.79216530e-02	2.60010864e-04
2.57000000e-01	1.77378900e-02	2.56243175e-04
2.57500000e-01	1.74504923e-02	2.52383802e-04
2.58000000e-01	1.75277348e-02	2.52945188e-04
2.58500000e-01	1.76470896e-02	2.54009045e-04
2.59000000e-01	1.75740273e-02	2.53612265e-04
2.59500000e-01	1.75699406e-02	2.52621902e-04
2.60000000e-01	1.78235539e-02	2.56663974e-04
2.60500000e-01	1.76472068e-02	2.54019794e-04
2.61000000e-01	1.78291725e-02	2.55256825e-04
2.61500000e-01	1.74729983e-02	2.50320360e-04
2.62000000e-01	1.74756240e-02	2.50211530e-04
2.62500000e-01	1.76158639e-02	2.51989322e-04
2.63000000e-01	1.75083327e-02	2.50508721e-04
2.63500000e-01	1.75654032e-02	2.50089408e-04
2.64000000e-01	1.73467510e-02	2.48068208e-04
2.64500000e-01	1.76032582e-02	2.50661239e-04
2.65000000e-01	1.76271596e-02	2.50848338e-04
2.65500000e-01	1.77224664e-02	2.53609942e-04
2.66000000e-01	1.72842248e-02	2.45235411e-04
2.66500000e-01	1.74543177e-02	2.47757026e-04
2.67000000e-01	1.71798732e-02	2.44387264e-04
2.67500000e-01	1.74369371e-02	2.46509455e-04
2.68000000e-01	1.76243019e-02	2.48797513e-04
2.68500000e-01	1.73952051e-02	2.45711305e-04
2.69000000e-01	1.76758483e-02	2.48643153e-04
2.69500000e-01	1.75287460e-02	2.46598802e-04
2.70000000e-01	1.74803447e-02	2.45796251e-04
2.70500000e-01	1.76224570e-02	2.46784063e-04
2.71000000e-01	1.74019687e-02	2.44088068e-04
2.71500000e-01	1.76304005e-02	2.47510279e-04
2.72000000e-01	1.75155807e-02	2.45130712e-04
2.72500000e-01	1.75799360e-02	2.45719316e-04
2.73000000e-01	1.74701726e-02	2.44087674e-04
2.73500000e-01	1.74326507e-02	2.43728892e-04
2.74000000e-01	1.74848321e-02	2.44067617e-04
2.74500000e-01	1.74814386e-02	2.43678686e-04
2.75000000e-01	1.73623509e-02	2.42806799e-04
2.75500000e-01	1.73456192e-02	2.42504361e-04
2.76000000e-01	1.74323049e-02	2.43398389e-04
2.76500000e-01	1.74953907e-02	2.44013771e-04
2.77000000e-01	1.73437742e-02	2.41105507e-04
2.77500000e-01	1.72939272e-02	2.40294808e-04
2.78000000e-01	1.75112644e-02	2.42308630e-04
2.78500000e-01	1.72625817e-02	2.39628545e-04
2.79000000e-01	1.74270344e-02	2.41025905e-04
2.79500000e-01	1.72245017e-02	2.37949969e-04
2.80000000e-01	1.76569158e-02	2.44203484e-04
2.80500000e-01	1.73046590e-02	2.38975589e-04
2.81000000e-01	1.73365772e-02	2.39475285e-04
2.81500000e-01	1.71132930e-02	2.37247497e-04
2.82000000e-01	1.71276818e-02	2.36018123e-04
2.82500000e-01	1.74890673e-02	2.40215548e-04
2.83000000e-01	1.73359391e-02	2.37592137e-04
2.83500000e-01	1.73446304e-02	2.38543648e-04
2.84000000e-01	1.73820554e-02	2.38160042e-04
2.84500000e-01	1.73077193e-02	2.37409062e-04
2.85000000e-01	1.72623295e-02	2.36374710e-04
2.85500000e-01	1.70832731e-02	2.32807569e-04
2.86000000e-01	1.71926264e-02	2.36460452e-04
2.86500000e-01	1.71262991e-02	2.34160315e-04
2.87000000e-01	1.72316301e-02	2.35018003e-04
2.87500000e-01	1.73377039e-02	2.35204858e-04
2.88000000e-01	1.72765048e-02	2.35447128e-04
2.88500000e-01	1.71061865e-02	2.33510835e-04
2.89000000e-01	1.73136957e-02	2.35816460e-04
2.89500000e-01	1.71335288e-02	2.32629464e-04
2.90000000e-01	1.71805734e-02	2.33158551e-04
2.90500000e-01	1.72015868e-02	2.33411889e-04
2.91000000e-01	1.72580829e-02	2.33807372e-04
2.91500000e-01	1.72373910e-02	2.32618567e-04
2.92000000e-01	1.70366974e-02	2.30719381e-04
2.92500000e-01	1.70158099e-02	2.29181734e-04
2.93000000e-01	1.72267758e-02	2.33252355e-04
2.93500000e-01	1.69377732e-02	2.28446144e-04
2.94000000e-01	1.72032802e-02	2.31507433e-04
2.94500000e-01	1.71220518e-02	2.31404825e-04
2.95000000e-01	1.71604335e-02	2.29827208e-04
2.95500000e-01	1.70181582e-02	2.29128947e-04
2.96000000e-01	1.71754951e-02	2.31064471e-04
2.96500000e-01	1.71859759e-02	2.30131604e-04
2.97000000e-01	1.69443042e-02	2.28267500e-04
2.97500000e-01	1.71238859e-02	2.28920388e-04
2.98000000e-01	1.68776914e-02	2.25643401e-04
2.98500000e-01	1.70057164e-02	2.27991162e-04
2.99000000e-01	1.70995195e-02	2.28156652e-04
2.99500000e-01	1.71278608e-02	2.28799689e-04
3.00000000e-01	1.72150469e-02	2.29611860e-04
3.00500000e-01	1.69532355e-02	2.27055125e-04
3.01000000e-01	1.69429270e-02	2.26105057e-04
3.01500000e-01	1.70746555e-02	2.26841853e-04
3.02000000e-01	1.69463902e-02	2.24606058e-04
3.02500000e-01	1.70365316e-02	2.26248635e-04
3.03000000e-01	1.69326972e-02	2.24419832e-04
3.03500000e-01	1.69586509e-02	2.24914605e-04
3.04000000e-01	1.69802463e-02	2.24836374e-04
3.04500000e-01	1.69569502e-02	2.25080446e-04
3.05000000e-01	1.70961866e-02	2.26707325e-04
3.05500000e-01	1.70811775e-02	2.25712044e-04
3.06000000e-01	1.68282873e-02	2.21486207e-04
3.06500000e-01	1.69068879e-02	2.24269272e-04
3.07000000e-01	1.69664848e-02	2.23815470e-04
3.07500000e-01	1.69982731e-02	2.23405907e-04
3.08000000e-01	1.68963012e-02	2.23330316e-04
3.08500000e-01	1.66585463e-02	2.19631145e-04
3.09000000e-01	1.67767977e-02	2.21192142e-04
3.09500000e-01	1.69429319e-02	2.22022475e-04
3.10000000e-01	1.68359767e-02	2.21116308e-04
3.10500000e-01	1.68940999e-02	2.21912228e-04
3.11000000e-01	1.69139766e-02	2.21839862e-04
3.11500000e-01	1.68970043e-02	2.21323304e-04
3.12000000e-01	1.68948407e-02	2.20745145e-04
3.12500000e-01	1.68124152e-02	2.19073781e-04
3.13000000e-01	1.67519793e-02	2.19591975e-04
3.13500000e-01	1.67822628e-02	2.18699218e-04
3.14000000e-01	1.67086003e-02	2.17949691e-04
3.14500000e-01	1.69270434e-02	2.20740738e-04
3.15000000e-01	1.67328490e-02	2.18359996e-04
3.15500000e-01	1.68636665e-02	2.19784460e-04
3.16000000e-01	1.66532593e-02	2.16664495e-04
3.16500000e-01	1.67287176e-02	2.16570480e-04
3.17000000e-01	1.69002555e-02	2.19432591e-04
3.17500000e-01	1.65139013e-02	2.14570787e-04
3.18000000e-01	1.67408875e-02	2.17449052e-04
3.18500000e-01	1.69201283e-02	2.20519408e-04
3.19000000e-01	1.67176820e-02	2.16150863e-04
3.19500000e-01	1.66760466e-02	2.15283326e-04
3.20000000e-01	1.67473762e-02	2.16443603e-04
3.20500000e-01	1.65329440e-02	2.13447456e-04
3.21000000e-01	1.67584071e-02	2.16266881e-04
3.21500000e-01	1.67359470e-02	2.15855879e-04
3.22000000e-01	1.65140413e-02	2.13435958e-04
3.22500000e-01	1.64772888e-02	2.12342004e-04
3.23000000e-01	1.65967873e-02	2.13313344e-04
3.23500000e-01	1.66994860e-02	2.14412940e-04
3.24000000e-01	1.64952021e-02	2.11605877e-04
3.24500000e-01	1.67499615e-02	2.15774837e-04
3.25000000e-01	1.67404123e-02	2.14757641e-04
3.25500000e-01	1.66796671e-02	2.13973744e-04
3.26000000e-01	1.64203511e-02	2.10682317e-04
3.26500000e-01	1.63450229e-02	2.09576400e-04
3.27000000e-01	1.65334090e-02	2.11696840e-04
3.27500000e-01	1.64997848e-02	2.10976293e-04
3.28000000e-01	1.64097643e-02	2.10371139e-04
3.28500000e-01	1.63030221e-02	2.08453860e-04
3.29000000e-01	1.64973021e-02	2.09642797e-04
3.29500000e-01	1.64620269e-02	2.10641044e-04
3.30000000e-01	1.66104984e-02	2.11612888e-04
3.30500000e-01	1.65237292e-02	2.11007286e-04
3.31000000e-01	1.65476821e-02	2.09737507e-04
3.31500000e-01	1.65220088e-02	2.09736681e-04
3.32000000e-01	1.64213154e-02	2.08399996e-04
3.32500000e-01	1.64185217e-02	2.08635966e-04
3.33000000e-01	1.63606696e-02	2.08304957e-04
3.33500000e-01	1.64715966e-02	2.09268705e-04
3.34000000e-01	1.63853804e-02	2.07888762e-04
3.34500000e-01	1.63395417e-02	2.06840210e-04
3.35000000e-01	1.63921784e-02	2.07389327e-04
3.35500000e-01	1.63725437e-02	2.07704473e-04
3.36000000e-01	1.65031297e-02	2.07745079e-04
3.36500000e-01	1.64947357e-02	2.08175893e-04
3.37000000e-01	1.63362840e-02	2.06767572e-04
3.37500000e-01	1.63305329e-02	2.06601640e-04
3.38000000e-01	1.65647547e-02	2.08608882e-04
3.38500000e-01	1.63956209e-02	2.05529718e-04
3.39000000e-01	1.63666208e-02	2.06658856e-04
3.39500000e-01	1.64994972e-02	2.07168535e-04
3.40000000e-01	1.62913755e-02	2.04977568e-04
3.40500000e-01	1.64511341e-02	2.06903138e-04
3.41000000e-01	1.64239533e-02	2.05558504e-04
3.41500000e-01	1.63492691e-02	2.05836877e-04
3.42000000e-01	1.62984950e-02	2.03927403e-04
3.42500000e-01	1.62443219e-02	2.03354558e-04
3.43000000e-01	1.63622404e-02	2.03943981e-04
3.43500000e-01	1.60236925e-02	2.00332393e-04
3.44000000e-01	1.63697168e-02	2.04332818e-04
3.44500000e-01	1.64991141e-02	2.05956110e-04
3.45000000e-01	1.62317566e-02	2.03329425e-04
3.45500000e-01	1.63249285e-02	2.03083553e-04
3.46000000e-01	1.63680118e-02	2.04433603e-04
3.46500000e-01	1.59855810e-02	1.99272426e-04
3.47000000e-01	1.62377384e-02	2.02026759e-04
3.47500000e-01	1.61931735e-02	2.01277107e-04
3.48000000e-01	1.60660153e-02	1.99714904e-04
3.48500000e-01	1.60921829e-02	2.00052149e-04
3.49000000e-01	1.62150772e-02	2.00599824e-04
3.49500000e-01	1.60578269e-02	1.99095181e-04
3.50000000e-01	1.60871210e-02	1.63000491e-04
3.51000000e-01	1.62798092e-02	1.42236674e-04
3.52000000e-01	1.61110476e-02	1.40685383e-04
3.53000000e-01	1.60274354e-02	1.39709363e-04
3.54000000e-01	1.61103655e-02	1.40163627e-04
3.55000000e-01	1.61770627e-02	1.40766521e-04
3.56000000e-01	1.60499027e-02	1.40380038e-04
3.57000000e-01	1.59829910e-02	1.41921508e-04
3.58000000e-01	1.59900114e-02	1.43060442e-04
3.59000000e-01	1.60725695e-02	1.45073930e-04
3.60000000e-01	1.59808133e-02	1.45586437e-04
3.61000000e-01	1.58997070e-02	1.45157729e-04
3.62000000e-01	1.58895086e-02	1.45718822e-04
3.63000000e-01	1.58403893e-02	1.45960177e-04
3.64000000e-01	1.58601371e-02	1.46576412e-04
3.65000000e-01	1.58472409e-02	1.46391104e-04
3.66000000e-01	1.57871115e-02	1.44713733e-04
3.67000000e-01	1.59601558e-02	1.43971665e-04
3.68000000e-01	1.58519017e-02	1.42459581e-04
3.69000000e-01	1.58418590e-02	1.41473207e-04
3.70000000e-01	1.57300751e-02	1.39768531e-04
3.71000000e-01	1.58137470e-02	1.42451116e-04
3.72000000e-01	1.57088994e-02	1.42392846e-04
3.73000000e-01	1.58818024e-02	1.43742571e-04
3.74000000e-01	1.58253722e-02	1.44160825e-04
3.75000000e-01	1.57827818e-02	1.43753161e-04
3.76000000e-01	1.57488584e-02	1.43094774e-04
3.77000000e-01	1.56969920e-02	1.43032384e-04
3.78000000e-01	1.56560589e-02	1.42256668e-04
3.79000000e-01	1.56280956e-02	1.42491361e-04
3.80000000e-01	1.56611032e-02	1.41978956e-04
3.81000000e-01	1.57288585e-02	1.42495772e-04
3.82000000e-01	1.56164232e-02	1.41974684e-04
3.83000000e-01	1.56680192e-02	1.41977596e-04
3.84000000e-01	1.55130752e-02	1.40622646e-04
3.85000000e-01	1.55290899e-02	1.41371421e-04
3.86000000e-01	1.56593393e-02	1.42030752e-04
3.87000000e-01	1.58087835e-02	1.43095860e-04
3.88000000e-01	1.55646296e-02	1.40975535e-04
3.89000000e-01	1.55840242e-02	1.40946697e-04
3.90000000e-01	1.56210965e-02	1.41290919e-04
3.91000000e-01	1.55888044e-02	1.41111280e-04
3.92000000e-01	1.55397079e-02	1.40747339e-04
3.93000000e-01	1.54482814e-02	1.39684543e-04
3.94000000e-01	1.54769744e-02	1.39708863e-04
3.95000000e-01	1.55339566e-02	1.40376549e-04
3.96000000e-01	1.55392503e-02	1.40375730e-04
3.97000000e-01	1.54227855e-02	1.39447115e-04
3.98000000e-01	1.54220504e-02	1.40038991e-04
3.99000000e-01	1.53653101e-02	1.39150229e-04
4.00000000e-01	1.55359135e-02	1.40499130e-04
4.01000000e-01	1.53178041e-02	1.38822195e-04
4.02000000e-01	1.54491471e-02	1.39945136e-04
4.03000000e-01	1.54513181e-02	1.39802098e-04
4.04000000e-01	1.54286212e-02	1.39599452e-04
4.05000000e-01	1.52973658e-02	1.38453013e-04
4.06000000e-01	1.53556358e-02	1.38704233e-04
4.07000000e-01	1.53850481e-02	1.38893866e-04
4.08000000e-01	1.52398660e-02	1.37684109e-04
4.09000000e-01	1.53518018e-02	1.38160509e-04
4.10000000e-01	1.52755120e-02	1.38122124e-04
4.11000000e-01	1.52688239e-02	1.37486927e-04
4.12000000e-01	1.51838234e-02	1.37179354e-04
4.13000000e-01	1.53187654e-02	1.38080497e-04
4.14000000e-01	1.52679499e-02	1.37758623e-04
4.15000000e-01	1.52261973e-02	1.37246254e-04
4.16000000e-01	1.53153406e-02	1.37739271e-04
4.17000000e-01	1.52127180e-02	1.37281963e-04
4.18000000e-01	1.52803564e-02	1.39263858e-04
4.19000000e-01	1.53845114e-02	1.41692434e-04
4.20000000e-01	1.52623340e-02	1.41487599e-04
4.21000000e-01	1.52462693e-02	1.42101263e-04
4.22000000e-01	1.53488557e-02	1.43285893e-04
4.23000000e-01	1.51565225e-02	1.41813178e-04
4.24000000e-01	1.51126091e-02	1.42203147e-04
4.25000000e-01	1.52853458e-02	1.43569911e-04
4.26000000e-01	1.52427214e-02	1.43465183e-04
4.27000000e-01	1.52655729e-02	1.43550489e-04
4.28000000e-01	1.51040486e-02	1.42488175e-04
4.29000000e-01	1.52269955e-02	1.43760438e-04
4.30000000e-01	1.54146503e-02	1.45306901e-04
4.31000000e-01	1.51663932e-02	1.43232235e-04
4.32000000e-01	1.52780288e-02	1.44332129e-04
4.33000000e-01	1.50721585e-02	1.42581047e-04
4.34000000e-01	1.51243152e-02	1.42953127e-04
4.35000000e-01	1.51675034e-02	1.43395864e-04
4.36000000e-01	1.50346307e-02	1.42741353e-04
4.37000000e-01	1.50951852e-02	1.43189271e-04
4.38000000e-01	1.51369851e-02	1.44154063e-04
4.39000000e-01	1.50261409e-02	1.43261939e-04
4.40000000e-01	1.49826419e-02	1.43093728e-04
4.41000000e-01	1.51003783e-02	1.43852404e-04
4.42000000e-01	1.49376329e-02	1.42487227e-04
4.43000000e-01	1.52239942e-02	1.45278031e-04
4.44000000e-01	1.47828222e-02	1.41981208e-04
4.45000000e-01	1.48768041e-02	1.43113303e-04
4.46000000e-01	1.49609381e-02	1.43464699e-04
4.47000000e-01	1.51051819e-02	1.44635283e-04
4.48000000e-01	1.47717875e-02	1.42146799e-04
4.49000000e-01	1.50007478e-02	1.44680083e-04
4.50000000e-01	1.49291033e-02	1.44121215e-04
4.51000000e-01	1.49371962e-02	1.43779649e-04
4.52000000e-01	1.50181073e-02	1.44772387e-04
4.53000000e-01	1.49215302e-02	1.44280920e-04
4.54000000e-01	1.48361943e-02	1.43517464e-04
4.55000000e-01	1.48872723e-02	1.43915076e-04
4.56000000e-01	1.48238257e-02	1.43669467e-04
4.57000000e-01	1.50063101e-02	1.45216100e-04
4.58000000e-01	1.49530974e-02	1.44775942e-04
4.59000000e-01	1.48851058e-02	1.43966832e-04
4.60000000e-01	1.49965086e-02	1.45582072e-04
4.61000000e-01	1.49465013e-02	1.45730648e-04
4.62000000e-01	1.47402169e-02	1.43061417e-04
4.63000000e-01	1.48753906e-02	1.45077034e-04
4.64000000e-01	1.48200169e-02	1.44443593e-04
4.65000000e-01	1.47958674e-02	1.44927142e-04
4.66000000e-01	1.47046513e-02	1.43720389e-04
4.67000000e-01	1.48965210e-02	1.45264732e-04
4.68000000e-01	1.47270224e-02	1.44003768e-04
4.69000000e-01	1.47248568e-02	1.44240557e-04
4.70000000e-01	1.49025039e-02	1.45877889e-04
4.71000000e-01	1.47819158e-02	1.44770874e-04
4.72000000e-01	1.47103271e-02	1.43609773e-04
4.73000000e-01	1.47895886e-02	1.44762035e-04
4.74000000e-01	1.46490926e-02	1.43387955e-04
4.75000000e-01	1.46445836e-02	1.43713915e-04
4.76000000e-01	1.48066394e-02	1.44837254e-04
4.77000000e-01	1.47700244e-02	1.44714878e-04
4.78000000e-01	1.46914912e-02	1.44161405e-04
4.79000000e-01	1.46843022e-02	1.43585490e-04
4.80000000e-01	1.47497870e-02	1.44179806e-04
4.81000000e-01	1.46394956e-02	1.43933318e-04
4.82000000e-01	1.46649929e-02	1.43699984e-04
4.83000000e-01	1.45911401e-02	1.42979879e-04
4.84000000e-01	1.47306968e-02	1.44361697e-04
4.85000000e-01	1.45819648e-02	1.43411923e-04
4.86000000e-01	1.46416336e-02	1.44168452e-04
4.87000000e-01	1.46623989e-02	1.44183885e-04
4.88000000e-01	1.46772590e-02	1.44457199e-04
4.89000000e-01	1.45927874e-02	1.43948936e-04
4.90000000e-01	1.44617742e-02	1.42442934e-04
4.91000000e-01	1.45808560e-02	1.43967372e-04
4.92000000e-01	1.46170744e-02	1.44454358e-04
4.93000000e-01	1.45762469e-02	1.43765852e-04
4.94000000e-01	1.44644063e-02	1.43151433e-04
4.95000000e-01	1.46568302e-02	1.46117700e-04
4.96000000e-01	1.45927548e-02	1.49694308e-04
4.97000000e-01	1.46730948e-02	1.52913680e-04
4.98000000e-01	1.45604480e-02	1.54081912e-04
4.99000000e-01	1.44570782e-02	1.54434219e-04
5.00000000e-01	1.45462549e-02	1.57424527e-04
5.01000000e-01	1.45552558e-02	1.58870009e-04
5.02000000e-01	1.45614155e-02	1.60710897e-04
5.03000000e-01	1.45692720e-02	1.61997754e-04
5.04000000e-01	1.45331576e-02	1.63246997e-04
5.05000000e-01	1.45494196e-02	1.60622115e-04
5.06000000e-01	1.46209049e-02	1.58409443e-04
5.07000000e-01	1.44642235e-02	1.55138038e-04
5.08000000e-01	1.46099991e-02	1.55380548e-04
5.09000000e-01	1.46520138e-02	1.54964675e-04
5.10000000e-01	1.44233588e-02	1.52155235e-04
5.11000000e-01	1.44095826e-02	1.51701846e-04
5.12000000e-01	1.44850974e-02	1.52242624e-04
5.13000000e-01	1.45403319e-02	1.52320221e-04
5.14000000e-01	1.45794774e-02	1.52696264e-04
5.15000000e-01	1.45197109e-02	1.51349013e-04
5.16000000e-01	1.43713187e-02	1.50023165e-04
5.17000000e-01	1.45527346e-02	1.51472674e-04
5.18000000e-01	1.43589900e-02	1.49677739e-04
5.19000000e-01	1.45609059e-02	1.50876381e-04
5.20000000e-01	1.43091950e-02	1.48056739e-04
5.21000000e-01	1.44618800e-02	1.48875683e-04
5.22000000e-01	1.43339334e-02	1.48101743e-04
5.23000000e-01	1.42734118e-02	1.46578181e-04
5.24000000e-01	1.44473822e-02	1.48640221e-04
5.25000000e-01	1.43791954e-02	1.48033592e-04
5.26000000e-01	1.42531735e-02	1.47082911e-04
5.27000000e-01	1.41395931e-02	1.45548812e-04
5.28000000e-01	1.42868282e-02	1.47321127e-04
5.29000000e-01	1.43776435e-02	1.48124322e-04
5.30000000e-01	1.43087409e-02	1.47401165e-04
5.31000000e-01	1.43173490e-02	1.47805484e-04
5.32000000e-01	1.42203229e-02	1.47228296e-04
5.33000000e-01	1.42296193e-02	1.46319346e-04
5.34000000e-01	1.43116830e-02	1.47561262e-04
5.35000000e-01	1.42563045e-02	1.46459086e-04
5.36000000e-01	1.42475838e-02	1.46850488e-04
5.37000000e-01	1.40796332e-02	1.45281131e-04
5.38000000e-01	1.41668894e-02	1.46146535e-04
5.39000000e-01	1.41945385e-02	1.46809992e-04
5.40000000e-01	1.42128504e-02	1.46911175e-04
5.41000000e-01	1.41919711e-02	1.46365456e-04
5.42000000e-01	1.42014677e-02	1.46582459e-04
5.43000000e-01	1.41136950e-02	1.45483694e-04
5.44000000e-01	1.41925911e-02	1.46389849e-04
5.45000000e-01	1.40716621e-02	1.44743367e-04
5.46000000e-01	1.41697091e-02	1.45971920e-04
5.47000000e-01	1.41463216e-02	1.46483758e-04
5.48000000e-01	1.42070389e-02	1.46140669e-04
5.49000000e-01	1.41174681e-02	1.45646945e-04
5.50000000e-01	1.40890814e-02	1.45098636e-04
5.51000000e-01	1.40755216e-02	1.44556945e-04
5.52000000e-01	1.40280016e-02	1.43901283e-04
5.53000000e-01	1.40410905e-02	1.43916116e-04
5.54000000e-01	1.39472808e-02	1.42872574e-04
5.55000000e-01	1.40194893e-02	1.43158087e-04
5.56000000e-01	1.40075303e-02	1.43846168e-04
5.57000000e-01	1.39719326e-02	1.43115155e-04
5.58000000e-01	1.39899583e-02	1.43731304e-04
5.59000000e-01	1.38670639e-02	1.42411292e-04
5.60000000e-01	1.38195751e-02	1.42111210e-04
5.61000000e-01	1.39584662e-02	1.43008707e-04
5.62000000e-01	1.38351007e-02	1.42107925e-04
5.63000000e-01	1.39199862e-02	1.43307410e-04
5.64000000e-01	1.39346385e-02	1.42967571e-04
5.65000000e-01	1.39400743e-02	1.43117078e-04
5.66000000e-01	1.38847205e-02	1.42467197e-04
5.67000000e-01	1.39673390e-02	1.43671977e-04
5.68000000e-01	1.38683834e-02	1.42137164e-04
5.69000000e-01	1.39440009e-02	1.42377129e-04
5.70000000e-01	1.39120503e-02	1.42934465e-04
5.71000000e-01	1.38317222e-02	1.42296276e-04
5.72000000e-01	1.38258077e-02	1.41967350e-04
5.73000000e-01	1.37963011e-02	1.41896266e-04
5.74000000e-01	1.38032371e-02	1.41663725e-04
5.75000000e-01	1.38388189e-02	1.42005314e-04
5.76000000e-01	1.38092896e-02	1.41818817e-04
5.77000000e-01	1.38516483e-02	1.42140202e-04
5.78000000e-01	1.37426892e-02	1.41580474e-04
5.79000000e-01	1.38793267e-02	1.42456868e-04
5.80000000e-01	1.36921938e-02	1.41374539e-04
5.81000000e-01	1.36789513e-02	1.40730884e-04
5.82000000e-01	1.36836306e-02	1.40589948e-04
5.83000000e-01	1.37122017e-02	1.41194258e-04
5.84000000e-01	1.36119527e-02	1.40260603e-04
5.85000000e-01	1.37412437e-02	1.40961348e-04
5.86000000e-01	1.36719949e-02	1.40796318e-04
5.87000000e-01	1.37387051e-02	1.41106622e-04
5.88000000e-01	1.36929653e-02	1.40868359e-04
5.89000000e-01	1.36343308e-02	1.40465547e-04
5.90000000e-01	1.36154894e-02	1.40269330e-04
5.91000000e-01	1.35831210e-02	1.39996080e-04
5.92000000e-01	1.35848462e-02	1.40257603e-04
5.93000000e-01	1.35637091e-02	1.40081608e-04
5.94000000e-01	1.36267914e-02	1.40731344e-04
5.95000000e-01	1.35668689e-02	1.40003273e-04
5.96000000e-01	1.36178760e-02	1.40735430e-04
5.97000000e-01	1.35664399e-02	1.39382685e-04
5.98000000e-01	1.36436090e-02	1.40697439e-04
5.99000000e-01	1.35589753e-02	1.39987565e-04
6.00000000e-01	1.35318030e-02	1.40220212e-04
6.01000000e-01	1.35596117e-02	1.40110011e-04
6.02000000e-01	1.34813135e-02	1.39106634e-04
6.03000000e-01	1.35855158e-02	1.40586286e-04
6.04000000e-01	1.33208461e-02	1.37962071e-04
6.05000000e-01	1.34852789e-02	1.39507840e-04
6.06000000e-01	1.35736371e-02	1.40361942e-04
6.07000000e-01	1.34216413e-02	1.38903950e-04
6.08000000e-01	1.34524525e-02	1.39231405e-04
6.09000000e-01	1.33639274e-02	1.38457632e-04
6.10000000e-01	1.35522973e-02	1.39920571e-04
6.11000000e-01	1.35306445e-02	1.39748404e-04
6.12000000e-01	1.34507852e-02	1.39526874e-04
6.13000000e-01	1.34951442e-02	1.39383204e-04
6.14000000e-01	1.33952598e-02	1.38262714e-04
6.15000000e-01	1.34597838e-02	1.39241776e-04
6.16000000e-01	1.35256692e-02	1.40158907e-04
6.17000000e-01	1.32550676e-02	1.37545345e-04
6.18000000e-01	1.34017229e-02	1.38911476e-04
6.19000000e-01	1.34145477e-02	1.38639647e-04
6.20000000e-01	1.34631174e-02	1.38800411e-04
6.21000000e-01	1.35709759e-02	1.39408116e-04
6.22000000e-01	1.33450500e-02	1.37955793e-04
6.23000000e-01	1.34448113e-02	1.38676351e-04
6.24000000e-01	1.33263105e-02	1.37311705e-04
6.25000000e-01	1.33644980e-02	1.37125805e-04
6.26000000e-01	1.34550765e-02	1.38032626e-04
6.27000000e-01	1.33435668e-02	1.37468985e-04
6.28000000e-01	1.32493880e-02	1.36355530e-04
6.29000000e-01	1.33659019e-02	1.36983438e-04
6.30000000e-01	1.32352565e-02	1.35957044e-04
6.31000000e-01	1.33620786e-02	1.37623619e-04
6.32000000e-01	1.33531543e-02	1.37296464e-04
6.33000000e-01	1.33061511e-02	1.36413803e-04
6.34000000e-01	1.32554972e-02	1.40190786e-04
6.35000000e-01	1.34388788e-02	1.45172104e-04
6.36000000e-01	1.32970774e-02	1.47024088e-04
6.37000000e-01	1.33004530e-02	1.49838560e-04
6.38000000e-01	1.34781865e-02	1.53391505e-04
6.39000000e-01	1.32679654e-02	1.52936379e-04
6.40000000e-01	1.32390564e-02	1.54656746e-04
6.41000000e-01	1.31481398e-02	1.54925133e-04
6.42000000e-01	1.33416681e-02	1.58727042e-04
6.43000000e-01	1.33401477e-02	1.59258436e-04
6.44000000e-01	1.34346996e-02	1.54248875e-04
6.45000000e-01	1.32362195e-02	1.50023312e-04
6.46000000e-01	1.34014119e-02	1.50123593e-04
6.47000000e-01	1.32707790e-02	1.47602591e-04
6.48000000e-01	1.32465935e-02	1.46841309e-04
6.49000000e-01	1.33428516e-02	1.46430373e-04
6.50000000e-01	1.32943281e-02	1.45426812e-04
6.51000000e-01	1.33493963e-02	1.45734824e-04
6.52000000e-01	1.33353319e-02	1.44900890e-04
6.53000000e-01	1.32577221e-02	1.43423248e-04
6.54000000e-01	1.34220704e-02	1.44483764e-04
6.55000000e-01	1.33518914e-02	1.43341122e-04
6.56000000e-01	1.32166999e-02	1.42215727e-04
6.57000000e-01	1.32760051e-02	1.42542080e-04
6.58000000e-01	1.33748377e-02	1.43360013e-04
6.59000000e-01	1.32704527e-02	1.42094472e-04
6.60000000e-01	1.33048222e-02	1.42535788e-04
6.61000000e-01	1.32469634e-02	1.41581228e-04
6.62000000e-01	1.33620191e-02	1.42639525e-04
6.63000000e-01	1.32833788e-02	1.42643231e-04
6.64000000e-01	1.32182706e-02	1.41534060e-04
6.65000000e-01	1.31727148e-02	1.40919345e-04
6.66000000e-01	1.31400761e-02	1.40319895e-04
6.67000000e-01	1.33146082e-02	1.41931294e-04
6.68000000e-01	1.31614170e-02	1.40446801e-04
6.69000000e-01	1.31560003e-02	1.40768982e-04
6.70000000e-01	1.31242744e-02	1.40023162e-04
6.71000000e-01	1.32976682e-02	1.42378042e-04
6.72000000e-01	1.31331551e-02	1.39990178e-04
6.73000000e-01	1.31283385e-02	1.39876926e-04
6.74000000e-01	1.30687832e-02	1.39535858e-04
6.75000000e-01	1.31379359e-02	1.39743625e-04
6.76000000e-01	1.31846227e-02	1.40184540e-04
6.77000000e-01	1.31986160e-02	1.40561888e-04
6.78000000e-01	1.29975234e-02	1.38630418e-04
6.79000000e-01	1.31388559e-02	1.40295949e-04
6.80000000e-01	1.31144005e-02	1.39152950e-04
6.81000000e-01	1.31032487e-02	1.39158273e-04
6.82000000e-01	1.29856495e-02	1.38495145e-04
6.83000000e-01	1.31874519e-02	1.39972310e-04
6.84000000e-01	1.30400796e-02	1.38577271e-04
6.85000000e-01	1.30778123e-02	1.39355868e-04
6.86000000e-01	1.29986863e-02	1.38175228e-04
6.87000000e-01	1.30857363e-02	1.39445033e-04
6.88000000e-01	1.30883563e-02	1.38876502e-04
6.89000000e-01	1.30418726e-02	1.38203011e-04
6.90000000e-01	1.30152044e-02	1.38410712e-04
6.91000000e-01	1.30182758e-02	1.38219036e-04
6.92000000e-01	1.28693422e-02	1.36572762e-04
6.93000000e-01	1.29680310e-02	1.37878293e-04
6.94000000e-01	1.29474451e-02	1.37718481e-04
6.95000000e-01	1.27856929e-02	1.36069335e-04
6.96000000e-01	1.29308499e-02	1.37401617e-04
6.97000000e-01	1.30208407e-02	1.38629706e-04
6.98000000e-01	1.29919863e-02	1.37907597e-04
6.99000000e-01	1.29454262e-02	1.37857841e-04
7.00000000e-01	1.29041169e-02	1.37028515e-04
7.01000000e-01	1.29891688e-02	1.37640989e-04
7.02000000e-01	1.30378131e-02	1.38356003e-04
7.03000000e-01	1.28981569e-02	1.36671449e-04
7.04000000e-01	1.27826911e-02	1.35704849e-04
7.05000000e-01	1.28950556e-02	1.36912850e-04
7.06000000e-01	1.28772110e-02	1.37095191e-04
7.07000000e-01	1.28211866e-02	1.35513388e-04
7.08000000e-01	1.27158643e-02	1.34613541e-04
7.09000000e-01	1.27864904e-02	1.35318404e-04
7.10000000e-01	1.27517843e-02	1.35552552e-04
7.11000000e-01	1.28294974e-02	1.36550758e-04
7.12000000e-01	1.26845660e-02	1.35193796e-04
7.13000000e-01	1.27604168e-02	1.35304521e-04
7.14000000e-01	1.25652696e-02	1.33405793e-04
7.15000000e-01	1.27673711e-02	1.35323625e-04
7.16000000e-01	1.28067361e-02	1.35987757e-04
7.17000000e-01	1.26963883e-02	1.35140953e-04
7.18000000e-01	1.27003059e-02	1.34892724e-04
7.19000000e-01	1.26803289e-02	1.34789162e-04
7.20000000e-01	1.25105637e-02	1.33132154e-04
7.21000000e-01	1.27576354e-02	1.35446293e-04
7.22000000e-01	1.26102826e-02	1.33890312e-04
7.23000000e-01	1.26632485e-02	1.34526517e-04
7.24000000e-01	1.27668197e-02	1.35409261e-04
7.25000000e-01	1.27012895e-02	1.34686730e-04
7.26000000e-01	1.26409701e-02	1.34269820e-04
7.27000000e-01	1.26163757e-02	1.34516538e-04
7.28000000e-01	1.25940422e-02	1.34179693e-04
7.29000000e-01	1.25338127e-02	1.33457723e-04
7.30000000e-01	1.25101038e-02	1.33339483e-04
7.31000000e-01	1.25017272e-02	1.33097782e-04
7.32000000e-01	1.24531657e-02	1.33073332e-04
7.33000000e-01	1.25182715e-02	1.33134366e-04
7.34000000e-01	1.25472766e-02	1.33106364e-04
7.35000000e-01	1.25431277e-02	1.32591897e-04
7.36000000e-01	1.25945080e-02	1.33314375e-04
7.37000000e-01	1.25428069e-02	1.32800541e-04
7.38000000e-01	1.24877174e-02	1.31900294e-04
7.39000000e-01	1.24732228e-02	1.31265821e-04
7.40000000e-01	1.24363984e-02	1.31209268e-04
7.41000000e-01	1.25761922e-02	1.31895693e-04
7.42000000e-01	1.24060091e-02	1.30605939e-04
7.43000000e-01	1.24337524e-02	1.30433993e-04
7.44000000e-01	1.24631039e-02	1.31209266e-04
7.45000000e-01	1.23452594e-02	1.30211310e-04
7.46000000e-01	1.24438162e-02	1.31560482e-04
7.47000000e-01	1.23941842e-02	1.30336693e-04
7.48000000e-01	1.24966154e-02	1.31949954e-04
7.49000000e-01	1.23941202e-02	1.30221400e-04
7.50000000e-01	1.23817111e-02	1.30284493e-04
7.51000000e-01	1.24803940e-02	1.31397291e-04
7.52000000e-01	1.23665358e-02	1.30776175e-04
7.53000000e-01	1.23148412e-02	1.29655269e-04
7.54000000e-01	1.24184576e-02	1.30579155e-04
7.55000000e-01	1.24292057e-02	1.31422042e-04
7.56000000e-01	1.22418365e-02	1.29263510e-04
7.57000000e-01	1.23572333e-02	1.30315767e-04
7.58000000e-01	1.23838507e-02	1.30793516e-04
7.59000000e-01	1.23215780e-02	1.29400947e-04
7.60000000e-01	1.23623652e-02	1.29540218e-04
7.61000000e-01	1.23788398e-02	1.29761100e-04
7.62000000e-01	1.21979235e-02	1.28103054e-04
7.63000000e-01	1.21569243e-02	1.27483435e-04
7.64000000e-01	1.21957275e-02	1.27821615e-04
7.65000000e-01	1.23032274e-02	1.28480066e-04
7.66000000e-01	1.21688409e-02	1.27037585e-04
7.67000000e-01	1.22246079e-02	1.27747463e-04
7.68000000e-01	1.22011389e-02	1.27528558e-04
7.69000000e-01	1.22212866e-02	1.27109969e-04
7.70000000e-01	1.21232400e-02	1.26947726e-04
7.71000000e-01	1.21142057e-02	1.26497928e-04
7.72000000e-01	1.21818220e-02	1.31486434e-04
7.73000000e-01	1.21714526e-02	1.35196592e-04
7.74000000e-01	1.21605269e-02	1.37936022e-04
7.75000000e-01	1.20119325e-02	1.38697397e-04
7.76000000e-01	1.19631830e-02	1.40688010e-04
7.77000000e-01	1.21523862e-02	1.44305830e-04
7.78000000e-01	1.21496183e-02	1.46855006e-04
7.79000000e-01	1.22309589e-02	1.49096110e-04
7.80000000e-01	1.20780078e-02	1.49067369e-04
7.81000000e-01	1.21567434e-02	1.51701931e-04
7.82000000e-01	1.19402273e-02	1.50861467e-04
7.83000000e-01	1.21136559e-02	1.54415274e-04
7.84000000e-01	1.20744343e-02	1.55836359e-04
7.85000000e-01	1.21036408e-02	1.57715529e-04
7.86000000e-01	1.19594554e-02	1.58100635e-04
7.87000000e-01	1.20004821e-02	1.59738495e-04
7.88000000e-01	1.19918272e-02	1.61385829e-04
7.89000000e-01	1.20044897e-02	1.62329822e-04
7.90000000e-01	1.20149245e-02	1.64317711e-04
7.91000000e-01	1.21490732e-02	1.67138747e-04
7.92000000e-01	1.19727807e-02	1.66495356e-04
7.93000000e-01	1.18273682e-02	1.67505366e-04
7.94000000e-01	1.18007977e-02	1.69201896e-04
7.95000000e-01	1.17325224e-02	1.69574233e-04
7.96000000e-01	1.18053806e-02	1.71868223e-04
7.97000000e-01	1.20656362e-02	1.77424254e-04
7.98000000e-01	1.17367218e-02	1.74584942e-04
7.99000000e-01	1.18507608e-02	1.78626209e-04
8.00000000e-01	1.19078203e-02	1.80570509e-04
8.01000000e-01	1.18220071e-02	1.81476947e-04
8.02000000e-01	1.18613274e-02	1.83319105e-04
8.03000000e-01	1.17880844e-02	1.85642115e-04
8.04000000e-01	1.17137727e-02	1.85103577e-04
8.05000000e-01	1.17911978e-02	1.88078523e-04
8.06000000e-01	1.16332834e-02	1.89338450e-04
8.07000000e-01	1.17106142e-02	1.91667329e-04
8.08000000e-01	1.16603953e-02	1.93064651e-04
8.09000000e-01	1.15838981e-02	1.93014619e-04
8.10000000e-01	1.18668273e-02	1.99637488e-04
8.11000000e-01	1.17899603e-02	2.00776471e-04
8.12000000e-01	1.16915883e-02	2.02654933e-04
8.13000000e-01	1.14665677e-02	1.99838003e-04
8.14000000e-01	1.16203771e-02	2.04765900e-04
8.15000000e-01	1.16694141e-02	2.10001677e-04
8.16000000e-01	1.14058467e-02	2.07800458e-04
8.17000000e-01	1.17566382e-02	2.16249289e-04
8.18000000e-01	1.16993159e-02	2.17693960e-04
8.19000000e-01	1.14557923e-02	2.16236346e-04
8.20000000e-01	1.15592596e-02	2.20420043e-04
8.21000000e-01	1.14698843e-02	2.21877809e-04
8.22000000e-01	1.16330020e-02	2.27623921e-04
8.23000000e-01	1.15939588e-02	2.30085646e-04
8.24000000e-01	1.17505178e-02	2.35263755e-04
8.25000000e-01	1.15080262e-02	2.33737241e-04
8.26000000e-01	1.14728833e-02	2.39986571e-04
8.27000000e-01	1.15222835e-02	2.40263141e-04
8.28000000e-01	1.13511357e-02	2.43396140e-04
8.29000000e-01	1.12866546e-02	2.45182332e-04
8.30000000e-01	1.15208589e-02	2.52518085e-04
8.31000000e-01	1.13416958e-02	2.52933293e-04
8.32000000e-01	1.12090867e-02	2.56714260e-04
8.33000000e-01	1.13775198e-02	2.62582928e-04
8.34000000e-01	1.14271324e-02	2.67924051e-04
8.35000000e-01	1.11146515e-02	2.65683757e-04
8.36000000e-01	1.14510327e-02	2.78532988e-04
8.37000000e-01	1.12284937e-02	2.79969226e-04
8.38000000e-01	1.13868353e-02	2.88537197e-04
8.39000000e-01	1.13180804e-02	2.93181102e-04
8.40000000e-01	1.08763362e-02	2.85936866e-04
8.41000000e-01	1.11356663e-02	2.97731827e-04
8.42000000e-01	1.11116382e-02	3.07811127e-04
8.43000000e-01	1.14527850e-02	3.22121030e-04
8.44000000e-01	1.12121281e-02	3.28822352e-04
8.45000000e-01	1.12019043e-02	3.38349592e-04
8.46000000e-01	1.11754086e-02	3.44661474e-04
8.47000000e-01	1.12113570e-02	3.52787224e-04
8.48000000e-01	1.11020371e-02	3.59377001e-04
8.49000000e-01	1.14219425e-02	3.80739202e-04
8.50000000e-01	1.10017828e-02	3.81929666e-04
8.51000000e-01	1.11765603e-02	4.02811019e-04
8.52000000e-01	1.16089353e-02	4.24651331e-04
8.53000000e-01	1.13619709e-02	4.41243870e-04
8.54000000e-01	1.08268378e-02	4.47918293e-04
8.55000000e-01	1.13514509e-02	4.77112240e-04
8.56000000e-01	1.07878277e-02	4.74646135e-04
8.57000000e-01	1.07705910e-02	4.83176111e-04
8.58000000e-01	1.09513546e-02	5.12143425e-04
8.59000000e-01	1.10594829e-02	5.17446666e-04
8.60000000e-01	1.07866332e-02	5.28002208e-04
8.61000000e-01	1.08960089e-02	5.53895329e-04
8.62000000e-01	1.02784856e-02	5.50513748e-04
8.63000000e-01	1.07644964e-02	5.89139431e-04
8.64000000e-01	1.10416393e-02	6.20748001e-04
8.65000000e-01	1.08150137e-02	6.51778338e-04
8.66000000e-01	1.08350924e-02	6.88416963e-04
8.67000000e-01	1.06429763e-02	7.34203994e-04
8.68000000e-01	1.01109286e-02	7.14399422e-04
8.69000000e-01	1.01717419e-02	7.75618551e-04
8.70000000e-01	1.06914197e-02	8.92129128e-04
8.71000000e-01	1.06768931e-02	1.00031824e-03
8.72000000e-01	1.14118192e-02	1.13323471e-03
8.73000000e-01	1.12274298e-02	1.35913342e-03
8.74000000e-01	1.14909642e-02	1.81930084e-03
8.75000000e-01	1.49579148e-02	4.58302414e-03
