% Filename : SDL7_00012_00075.h5
% Date & Time : 30-Oct-2025 14:50:35
% X-ray Energy (keV) : 13.30001
% Exposure Time (s) : 0.500
% Beam Center : 1461.24000, 208.98300
% Sample to Detector Distance (SDD) (mm) : 1990.750
% Detector Pixel Size (mm) : 0.075
% Photodiode Value : 135222.000
% I0 of Sample : 0
% I0 of Standard : 1
% 
% q(A^-1)   I(q)    I(q)_SE
0.00000000e+00	8.01647201e-03	4.22505395e-03
2.50000000e-04	0.00000000e+00	0.00000000e+00
5.00000000e-04	0.00000000e+00	0.00000000e+00
7.50000000e-04	0.00000000e+00	0.00000000e+00
1.00000000e-03	0.00000000e+00	0.00000000e+00
1.25000000e-03	0.00000000e+00	0.00000000e+00
1.50000000e-03	0.00000000e+00	0.00000000e+00
1.75000000e-03	0.00000000e+00	0.00000000e+00
2.00000000e-03	0.00000000e+00	0.00000000e+00
2.25000000e-03	0.00000000e+00	0.00000000e+00
2.50000000e-03	0.00000000e+00	0.00000000e+00
2.75000000e-03	0.00000000e+00	0.00000000e+00
3.00000000e-03	0.00000000e+00	0.00000000e+00
3.25000000e-03	4.11280666e+03	2.95580356e+03
3.50000000e-03	2.47332532e+02	2.38446897e+02
3.75000000e-03	1.05338916e+02	9.41740824e+01
4.00000000e-03	5.37100371e+01	4.37116086e+01
4.25000000e-03	1.26979590e+02	1.19403240e+02
4.50000000e-03	1.12705230e+02	9.18236627e+01
4.75000000e-03	1.41686617e+02	8.40638224e+01
5.00000000e-03	1.07649877e+02	6.29835459e+01
5.25000000e-03	9.18367280e+01	5.20327883e+01
5.50000000e-03	8.03299474e+01	4.54685831e+01
5.75000000e-03	6.59828914e+01	3.69463767e+01
6.00000000e-03	5.43015652e+01	3.09051683e+01
6.25000000e-03	5.09916456e+01	2.87700105e+01
6.50000000e-03	3.98255884e+01	2.06196679e+01
6.75000000e-03	3.82086785e+01	2.06053600e+01
7.00000000e-03	2.88738255e+01	1.47417634e+01
7.25000000e-03	2.56218083e+01	1.31288915e+01
7.50000000e-03	2.13329465e+01	1.06232237e+01
7.75000000e-03	1.82995646e+01	8.94561773e+00
8.00000000e-03	1.65459435e+01	8.00216532e+00
8.25000000e-03	1.39994659e+01	6.76287314e+00
8.50000000e-03	1.26218308e+01	6.13901445e+00
8.75000000e-03	1.09544776e+01	5.30075191e+00
9.00000000e-03	9.71295582e+00	4.65073001e+00
9.25000000e-03	8.78361524e+00	4.24817894e+00
9.50000000e-03	7.24352381e+00	3.40614736e+00
9.75000000e-03	6.90356421e+00	3.21210076e+00
1.00000000e-02	5.38263536e+00	2.77486753e+00
1.02500000e-02	6.00468315e+00	2.72253197e+00
1.05000000e-02	5.30186353e+00	2.36495285e+00
1.07500000e-02	4.66493221e+00	2.03454293e+00
1.10000000e-02	4.33722243e+00	1.88021944e+00
1.12500000e-02	3.38843819e+00	1.59639527e+00
1.15000000e-02	3.99345740e+00	1.72196866e+00
1.17500000e-02	3.34061212e+00	1.40854651e+00
1.20000000e-02	3.22114039e+00	1.34904056e+00
1.22500000e-02	2.79892951e+00	1.15634954e+00
1.25000000e-02	2.62401429e+00	1.07733238e+00
1.27500000e-02	2.70285378e+00	1.13942759e+00
1.30000000e-02	2.26125204e+00	9.32799130e-01
1.32500000e-02	2.08100315e+00	8.52987942e-01
1.35000000e-02	1.92560769e+00	7.72896233e-01
1.37500000e-02	1.81549443e+00	7.31587573e-01
1.40000000e-02	1.76539471e+00	7.03403314e-01
1.42500000e-02	1.50224791e+00	5.76007315e-01
1.45000000e-02	1.48044031e+00	5.59662425e-01
1.47500000e-02	1.42981521e+00	5.42746603e-01
1.50000000e-02	1.25627298e+00	4.49893581e-01
1.52500000e-02	1.21785234e+00	4.39656662e-01
1.55000000e-02	1.11828615e+00	4.04599314e-01
1.57500000e-02	1.03733518e+00	3.64933494e-01
1.60000000e-02	1.02971882e+00	3.69244241e-01
1.62500000e-02	1.02648276e+00	3.63843682e-01
1.65000000e-02	9.39673607e-01	3.32612223e-01
1.67500000e-02	8.21990395e-01	2.79730557e-01
1.70000000e-02	8.25294638e-01	2.89886007e-01
1.72500000e-02	7.88527482e-01	2.74125604e-01
1.75000000e-02	6.96018730e-01	2.49541121e-01
1.77500000e-02	6.51008859e-01	2.19407941e-01
1.80000000e-02	6.18347105e-01	2.06854675e-01
1.82500000e-02	5.53260326e-01	1.77635984e-01
1.85000000e-02	4.72214742e-01	1.54824234e-01
1.87500000e-02	5.49156314e-01	1.79073251e-01
1.90000000e-02	4.93090668e-01	1.52605139e-01
1.92500000e-02	4.76645907e-01	1.48918074e-01
1.95000000e-02	4.21448832e-01	1.36282665e-01
1.97500000e-02	4.53820385e-01	1.38632755e-01
2.00000000e-02	4.09479737e-01	1.27474270e-01
2.02500000e-02	4.22685165e-01	1.30265945e-01
2.05000000e-02	3.97757805e-01	1.20465373e-01
2.07500000e-02	3.80752270e-01	1.16629882e-01
2.10000000e-02	3.72175047e-01	1.10520251e-01
2.12500000e-02	3.68338508e-01	1.09020316e-01
2.15000000e-02	3.56660254e-01	1.04314564e-01
2.17500000e-02	3.36293236e-01	9.58604733e-02
2.20000000e-02	3.22824536e-01	9.20495891e-02
2.22500000e-02	3.04688715e-01	8.51685928e-02
2.25000000e-02	2.98231629e-01	8.05969382e-02
2.27500000e-02	2.79045820e-01	7.51678760e-02
2.30000000e-02	2.78492643e-01	7.56890336e-02
2.32500000e-02	2.65192295e-01	7.10360537e-02
2.35000000e-02	2.68413140e-01	7.09923840e-02
2.37500000e-02	2.61475603e-01	7.01822927e-02
2.40000000e-02	2.44079214e-01	6.84100704e-02
2.42500000e-02	2.51286379e-01	6.78505641e-02
2.45000000e-02	2.45063112e-01	6.64478224e-02
2.47500000e-02	2.40188485e-01	6.33678443e-02
2.50000000e-02	2.27638782e-01	5.87713908e-02
2.52500000e-02	1.90759859e-01	4.76034356e-02
2.55000000e-02	2.14228100e-01	5.39508540e-02
2.57500000e-02	2.01875102e-01	4.98200083e-02
2.60000000e-02	1.94481230e-01	4.71586479e-02
2.62500000e-02	1.83194411e-01	4.57904147e-02
2.65000000e-02	1.87337727e-01	4.32591738e-02
2.67500000e-02	1.79984703e-01	4.16355014e-02
2.70000000e-02	1.60819101e-01	3.73241915e-02
2.72500000e-02	1.65040863e-01	3.68901266e-02
2.75000000e-02	1.73660407e-01	4.01813921e-02
2.77500000e-02	1.62251718e-01	3.65915361e-02
2.80000000e-02	1.56006263e-01	3.48879718e-02
2.82500000e-02	1.53792551e-01	3.42096434e-02
2.85000000e-02	1.44894420e-01	3.11468297e-02
2.87500000e-02	1.49399889e-01	3.20992528e-02
2.90000000e-02	1.45429131e-01	3.12059171e-02
2.92500000e-02	1.36506386e-01	2.88685260e-02
2.95000000e-02	1.36414799e-01	2.77878337e-02
2.97500000e-02	1.29854036e-01	2.63779102e-02
3.00000000e-02	1.28845949e-01	2.57449284e-02
3.02500000e-02	1.25070809e-01	2.38182416e-02
3.05000000e-02	1.18063455e-01	2.29303292e-02
3.07500000e-02	1.16117739e-01	2.16407702e-02
3.10000000e-02	1.16944105e-01	2.19904604e-02
3.12500000e-02	1.12633982e-01	2.12664495e-02
3.15000000e-02	1.10976599e-01	2.01216153e-02
3.17500000e-02	1.06425731e-01	1.90994604e-02
3.20000000e-02	1.05274439e-01	1.88349480e-02
3.22500000e-02	1.05711907e-01	1.84985503e-02
3.25000000e-02	9.69076126e-02	1.69408443e-02
3.27500000e-02	9.74436149e-02	1.72077486e-02
3.30000000e-02	9.53166404e-02	1.68718399e-02
3.32500000e-02	9.30291425e-02	1.56625925e-02
3.35000000e-02	8.49469913e-02	1.34626660e-02
3.37500000e-02	9.12109924e-02	1.50183198e-02
3.40000000e-02	8.88686266e-02	1.49614059e-02
3.42500000e-02	8.76305299e-02	1.40794598e-02
3.45000000e-02	8.31969563e-02	1.35082036e-02
3.47500000e-02	8.32435876e-02	1.29562690e-02
3.50000000e-02	8.11529740e-02	1.27187106e-02
3.52500000e-02	7.96249826e-02	1.20044410e-02
3.55000000e-02	7.75818205e-02	1.15258511e-02
3.57500000e-02	7.90924932e-02	1.23982764e-02
3.60000000e-02	7.46260221e-02	1.13048937e-02
3.62500000e-02	7.50176841e-02	1.10685972e-02
3.65000000e-02	7.45055168e-02	1.08862120e-02
3.67500000e-02	7.17240991e-02	1.02970625e-02
3.70000000e-02	7.19157618e-02	1.02062693e-02
3.72500000e-02	7.05885089e-02	9.83260718e-03
3.75000000e-02	6.86340741e-02	9.63935017e-03
3.77500000e-02	6.58600710e-02	9.08429963e-03
3.80000000e-02	6.68005303e-02	8.93149719e-03
3.82500000e-02	6.65519620e-02	8.97948833e-03
3.85000000e-02	6.48883438e-02	8.45819138e-03
3.87500000e-02	6.28873009e-02	7.81290669e-03
3.90000000e-02	6.03759372e-02	7.49032726e-03
3.92500000e-02	5.90289491e-02	6.81646055e-03
3.95000000e-02	5.96194720e-02	7.27157472e-03
3.97500000e-02	5.90532619e-02	6.79359311e-03
4.00000000e-02	5.82630825e-02	6.85199223e-03
4.02500000e-02	5.49171819e-02	5.87407025e-03
4.05000000e-02	5.65301592e-02	6.40735275e-03
4.07500000e-02	5.49588172e-02	6.10120230e-03
4.10000000e-02	5.36827783e-02	5.78074992e-03
4.12500000e-02	5.42124405e-02	5.89262372e-03
4.15000000e-02	5.18957691e-02	5.68165238e-03
4.17500000e-02	5.34987242e-02	5.82091376e-03
4.20000000e-02	5.02947523e-02	5.36865354e-03
4.22500000e-02	5.06053284e-02	5.13520811e-03
4.25000000e-02	4.93230865e-02	5.29151114e-03
4.27500000e-02	4.94932915e-02	4.93470133e-03
4.30000000e-02	5.00998460e-02	5.00658007e-03
4.32500000e-02	4.83779562e-02	4.60060402e-03
4.35000000e-02	4.79793477e-02	4.67603169e-03
4.37500000e-02	4.73491759e-02	4.47994013e-03
4.40000000e-02	4.83402476e-02	4.64732498e-03
4.42500000e-02	4.40993163e-02	3.99172292e-03
4.45000000e-02	4.54640342e-02	4.19960313e-03
4.47500000e-02	4.53702820e-02	4.19173587e-03
4.50000000e-02	4.42460608e-02	3.87722907e-03
4.52500000e-02	4.53517896e-02	4.03085439e-03
4.55000000e-02	4.53386180e-02	3.99296253e-03
4.57500000e-02	4.30060714e-02	3.60307343e-03
4.60000000e-02	4.21861401e-02	3.68239411e-03
4.62500000e-02	4.28449639e-02	3.52320298e-03
4.65000000e-02	4.13852533e-02	3.33190762e-03
4.67500000e-02	4.17560944e-02	3.30006542e-03
4.70000000e-02	4.06815622e-02	3.26742806e-03
4.72500000e-02	4.05710051e-02	3.10786325e-03
4.75000000e-02	3.96957868e-02	2.90060214e-03
4.77500000e-02	3.95318620e-02	3.06171035e-03
4.80000000e-02	3.94177080e-02	2.99374075e-03
4.82500000e-02	3.92919503e-02	2.98574634e-03
4.85000000e-02	3.87051328e-02	2.92139198e-03
4.87500000e-02	3.85287911e-02	2.86674095e-03
4.90000000e-02	3.84776142e-02	2.74044495e-03
4.92500000e-02	3.75308600e-02	2.72871503e-03
4.95000000e-02	3.61954879e-02	2.56680976e-03
4.97500000e-02	3.81478181e-02	2.72041609e-03
5.00000000e-02	3.71758421e-02	2.48672348e-03
5.02500000e-02	3.64818748e-02	2.48008460e-03
5.05000000e-02	3.64084376e-02	2.36382125e-03
5.07500000e-02	3.66904263e-02	2.42591693e-03
5.10000000e-02	3.58139376e-02	2.33285770e-03
5.12500000e-02	3.56907018e-02	2.28721720e-03
5.15000000e-02	3.45751980e-02	2.15499636e-03
5.17500000e-02	3.57319480e-02	2.18736481e-03
5.20000000e-02	3.56320266e-02	2.16950845e-03
5.22500000e-02	3.51048974e-02	2.20859981e-03
5.25000000e-02	3.44429600e-02	2.07348046e-03
5.27500000e-02	3.39280245e-02	2.06801020e-03
5.30000000e-02	3.35175461e-02	2.03278743e-03
5.32500000e-02	3.33388008e-02	2.05326647e-03
5.35000000e-02	3.34639280e-02	1.99743540e-03
5.37500000e-02	3.30504970e-02	1.96134178e-03
5.40000000e-02	3.26900493e-02	1.86345781e-03
5.42500000e-02	3.27708051e-02	1.87440971e-03
5.45000000e-02	3.27528277e-02	1.82288813e-03
5.47500000e-02	3.21918806e-02	1.84279484e-03
5.50000000e-02	3.28257150e-02	1.84561452e-03
5.52500000e-02	3.11031454e-02	1.69515011e-03
5.55000000e-02	3.16853688e-02	1.72503815e-03
5.57500000e-02	3.17911633e-02	1.70621427e-03
5.60000000e-02	3.13081114e-02	1.61530612e-03
5.62500000e-02	3.14762931e-02	1.65568570e-03
5.65000000e-02	3.05870717e-02	1.61921715e-03
5.67500000e-02	3.06985188e-02	1.58190248e-03
5.70000000e-02	3.07320087e-02	1.57565860e-03
5.72500000e-02	3.11497162e-02	1.63297171e-03
5.75000000e-02	3.02291919e-02	1.58069876e-03
5.77500000e-02	3.08498565e-02	1.55221284e-03
5.80000000e-02	3.07285629e-02	1.56729101e-03
5.82500000e-02	2.98940748e-02	1.46529963e-03
5.85000000e-02	3.02782537e-02	1.46997066e-03
5.87500000e-02	2.96348002e-02	1.40941460e-03
5.90000000e-02	2.93209961e-02	1.41504609e-03
5.92500000e-02	2.91916929e-02	1.41642696e-03
5.95000000e-02	2.92231616e-02	1.38127752e-03
5.97500000e-02	2.92131157e-02	1.38614313e-03
6.00000000e-02	2.93574310e-02	1.36035270e-03
6.02500000e-02	2.84771475e-02	1.34925725e-03
6.05000000e-02	2.92529778e-02	1.32874733e-03
6.07500000e-02	2.81321393e-02	1.32156919e-03
6.10000000e-02	2.87437167e-02	1.30020208e-03
6.12500000e-02	2.85743603e-02	1.27418127e-03
6.15000000e-02	2.78070108e-02	1.27639220e-03
6.17500000e-02	2.86290587e-02	1.25756863e-03
6.20000000e-02	2.78051068e-02	1.25310679e-03
6.22500000e-02	2.79976719e-02	1.24655364e-03
6.25000000e-02	2.78239317e-02	1.20794445e-03
6.27500000e-02	2.71015890e-02	1.19827523e-03
6.30000000e-02	2.77975474e-02	1.20074036e-03
6.32500000e-02	2.72167149e-02	1.16033943e-03
6.35000000e-02	2.74260426e-02	1.15474256e-03
6.37500000e-02	2.72391128e-02	1.16184637e-03
6.40000000e-02	2.75795727e-02	1.17332658e-03
6.42500000e-02	2.66322887e-02	1.11644417e-03
6.45000000e-02	2.72622959e-02	1.14938084e-03
6.47500000e-02	2.72589715e-02	1.12720657e-03
6.50000000e-02	2.67339337e-02	1.11143315e-03
6.52500000e-02	2.64285900e-02	1.06539985e-03
6.55000000e-02	2.66450691e-02	1.06713111e-03
6.57500000e-02	2.68058772e-02	1.09651718e-03
6.60000000e-02	2.59693424e-02	1.05779671e-03
6.62500000e-02	2.70878090e-02	1.10234576e-03
6.65000000e-02	2.65174987e-02	1.03383565e-03
6.67500000e-02	2.56577938e-02	1.00814777e-03
6.70000000e-02	2.61946600e-02	1.03799494e-03
6.72500000e-02	2.62310957e-02	1.01369554e-03
6.75000000e-02	2.64906015e-02	1.04844431e-03
6.77500000e-02	2.64161472e-02	1.04035251e-03
6.80000000e-02	2.62139209e-02	1.01855250e-03
6.82500000e-02	2.63750330e-02	1.03550271e-03
6.85000000e-02	2.61928605e-02	1.00823953e-03
6.87500000e-02	2.67303635e-02	1.03323406e-03
6.90000000e-02	2.59060197e-02	9.72034829e-04
6.92500000e-02	2.62515444e-02	9.84254424e-04
6.95000000e-02	2.58892817e-02	9.91774362e-04
6.97500000e-02	2.52655413e-02	9.55951446e-04
7.00000000e-02	2.61119089e-02	9.80785898e-04
7.02500000e-02	2.55072525e-02	9.67778948e-04
7.05000000e-02	2.53128178e-02	9.53569516e-04
7.07500000e-02	2.59223683e-02	9.80946846e-04
7.10000000e-02	2.55519047e-02	9.42945432e-04
7.12500000e-02	2.56472961e-02	9.31237264e-04
7.15000000e-02	2.58960652e-02	9.62714451e-04
7.17500000e-02	2.50077210e-02	9.15258887e-04
7.20000000e-02	2.55575473e-02	9.45584373e-04
7.22500000e-02	2.44088199e-02	8.96874322e-04
7.25000000e-02	2.52917606e-02	9.41151378e-04
7.27500000e-02	2.52099640e-02	9.18751275e-04
7.30000000e-02	2.49603391e-02	8.97256058e-04
7.32500000e-02	2.52935467e-02	9.18195767e-04
7.35000000e-02	2.45856015e-02	8.74157602e-04
7.37500000e-02	2.48435188e-02	8.81447779e-04
7.40000000e-02	2.49416596e-02	8.91952640e-04
7.42500000e-02	2.52831673e-02	8.98258888e-04
7.45000000e-02	2.45750241e-02	8.77684101e-04
7.47500000e-02	2.44833252e-02	8.66451775e-04
7.50000000e-02	2.52127507e-02	8.93187833e-04
7.52500000e-02	2.46583898e-02	8.76630300e-04
7.55000000e-02	2.43559779e-02	8.55948186e-04
7.57500000e-02	2.49931519e-02	8.84155211e-04
7.60000000e-02	2.42524224e-02	8.49189956e-04
7.62500000e-02	2.51720637e-02	8.70211088e-04
7.65000000e-02	2.36938668e-02	8.29130341e-04
7.67500000e-02	2.48390628e-02	8.62015868e-04
7.70000000e-02	2.40331520e-02	8.39519670e-04
7.72500000e-02	2.45754129e-02	8.68494981e-04
7.75000000e-02	2.43345349e-02	8.56793510e-04
7.77500000e-02	2.44153010e-02	8.74358557e-04
7.80000000e-02	2.47450820e-02	8.87225219e-04
7.82500000e-02	2.34819725e-02	8.55476667e-04
7.85000000e-02	2.38763182e-02	8.77395181e-04
7.87500000e-02	2.45074171e-02	8.87144599e-04
7.90000000e-02	2.48498515e-02	9.03759304e-04
7.92500000e-02	2.41619023e-02	8.88265270e-04
7.95000000e-02	2.44204816e-02	8.89924164e-04
7.97500000e-02	2.42126563e-02	8.86031896e-04
8.00000000e-02	2.37734040e-02	8.65899659e-04
8.02500000e-02	2.40638576e-02	8.84489888e-04
8.05000000e-02	2.47155174e-02	9.06234496e-04
8.07500000e-02	2.39354017e-02	8.78550207e-04
8.10000000e-02	2.35221942e-02	8.72457968e-04
8.12500000e-02	2.48335779e-02	9.17576323e-04
8.15000000e-02	2.37199743e-02	8.74625856e-04
8.17500000e-02	2.36668737e-02	8.79269405e-04
8.20000000e-02	2.44046498e-02	8.96927483e-04
8.22500000e-02	2.38167686e-02	8.89573742e-04
8.25000000e-02	2.37818922e-02	8.95139664e-04
8.27500000e-02	2.38184316e-02	8.75812433e-04
8.30000000e-02	2.34796881e-02	8.71036993e-04
8.32500000e-02	2.39931070e-02	8.92169576e-04
8.35000000e-02	2.42178571e-02	9.08021350e-04
8.37500000e-02	2.33772181e-02	8.63306834e-04
8.40000000e-02	2.33761265e-02	8.73494443e-04
8.42500000e-02	2.32026442e-02	8.61259204e-04
8.45000000e-02	2.29910785e-02	8.68214968e-04
8.47500000e-02	2.38943384e-02	9.01780148e-04
8.50000000e-02	2.33533923e-02	8.70520375e-04
8.52500000e-02	2.31273772e-02	8.71091669e-04
8.55000000e-02	2.33981817e-02	8.64511840e-04
8.57500000e-02	2.35152242e-02	8.81905296e-04
8.60000000e-02	2.36016814e-02	8.93459951e-04
8.62500000e-02	2.34464532e-02	8.76767668e-04
8.65000000e-02	2.29127626e-02	8.56307902e-04
8.67500000e-02	2.33421182e-02	8.63175578e-04
8.70000000e-02	2.30294684e-02	8.47198343e-04
8.72500000e-02	2.28234845e-02	8.25043695e-04
8.75000000e-02	2.29248940e-02	8.13504216e-04
8.77500000e-02	2.30270757e-02	8.09783670e-04
8.80000000e-02	2.30025771e-02	8.21293779e-04
8.82500000e-02	2.30057856e-02	8.08875194e-04
8.85000000e-02	2.27556999e-02	8.04078635e-04
8.87500000e-02	2.32853274e-02	8.10668535e-04
8.90000000e-02	2.24787817e-02	7.87837826e-04
8.92500000e-02	2.28512152e-02	7.86108029e-04
8.95000000e-02	2.29808283e-02	7.91539770e-04
8.97500000e-02	2.28169408e-02	7.83661633e-04
9.00000000e-02	2.18824433e-02	7.50010184e-04
9.02500000e-02	2.21377324e-02	7.56120639e-04
9.05000000e-02	2.21991333e-02	7.55070968e-04
9.07500000e-02	2.28239346e-02	7.74733884e-04
9.10000000e-02	2.24523612e-02	7.54232662e-04
9.12500000e-02	2.19718077e-02	7.40191036e-04
9.15000000e-02	2.27686012e-02	7.66493117e-04
9.17500000e-02	2.27114030e-02	7.66551837e-04
9.20000000e-02	2.22684567e-02	7.44313298e-04
9.22500000e-02	2.22353662e-02	7.42505227e-04
9.25000000e-02	2.31141173e-02	7.64630205e-04
9.27500000e-02	2.19161286e-02	7.35930722e-04
9.30000000e-02	2.26925625e-02	7.46711235e-04
9.32500000e-02	2.25386557e-02	7.48876535e-04
9.35000000e-02	2.22944821e-02	7.35077424e-04
9.37500000e-02	2.24350563e-02	7.43004349e-04
9.40000000e-02	2.20497041e-02	7.29482390e-04
9.42500000e-02	2.15645387e-02	7.12910996e-04
9.45000000e-02	2.18026699e-02	7.13749069e-04
9.47500000e-02	2.19734646e-02	7.19250913e-04
9.50000000e-02	2.24449915e-02	7.26486809e-04
9.52500000e-02	2.19312719e-02	7.10251343e-04
9.55000000e-02	2.16220788e-02	7.02911846e-04
9.57500000e-02	2.16335048e-02	7.08200508e-04
9.60000000e-02	2.18620964e-02	7.07851169e-04
9.62500000e-02	2.19681760e-02	7.07377198e-04
9.65000000e-02	2.12026139e-02	6.84721995e-04
9.67500000e-02	2.15959292e-02	6.94675780e-04
9.70000000e-02	2.14072136e-02	6.93810383e-04
9.72500000e-02	2.17171199e-02	6.96355690e-04
9.75000000e-02	2.11998259e-02	6.83522876e-04
9.77500000e-02	2.18497923e-02	7.00376577e-04
9.80000000e-02	2.15147444e-02	6.92640279e-04
9.82500000e-02	2.18979313e-02	6.95470859e-04
9.85000000e-02	2.18120085e-02	6.94700982e-04
9.87500000e-02	2.16627196e-02	6.88669575e-04
9.90000000e-02	2.20546224e-02	6.99116509e-04
9.92500000e-02	2.16725187e-02	6.86723861e-04
9.95000000e-02	2.10772001e-02	6.66643527e-04
9.97500000e-02	2.10517486e-02	6.66943298e-04
1.00000000e-01	2.17374539e-02	5.55768204e-04
1.00500000e-01	2.18735813e-02	4.88143860e-04
1.01000000e-01	2.15459234e-02	4.76850497e-04
1.01500000e-01	2.13323685e-02	4.74621732e-04
1.02000000e-01	2.11513127e-02	4.67300646e-04
1.02500000e-01	2.10885694e-02	4.62512502e-04
1.03000000e-01	2.15063266e-02	4.71939045e-04
1.03500000e-01	2.14931701e-02	4.69912976e-04
1.04000000e-01	2.12561643e-02	4.64375215e-04
1.04500000e-01	2.15877245e-02	4.67999705e-04
1.05000000e-01	2.14699325e-02	4.63013278e-04
1.05500000e-01	2.14598154e-02	4.63139424e-04
1.06000000e-01	2.14485277e-02	4.62927454e-04
1.06500000e-01	2.14068174e-02	4.61313939e-04
1.07000000e-01	2.11560754e-02	4.62134867e-04
1.07500000e-01	2.10147617e-02	4.66967782e-04
1.08000000e-01	2.10180803e-02	4.72537980e-04
1.08500000e-01	2.08535676e-02	4.69113589e-04
1.09000000e-01	2.06914033e-02	4.69230004e-04
1.09500000e-01	2.09639325e-02	4.78223641e-04
1.10000000e-01	2.09612790e-02	4.72218748e-04
1.10500000e-01	2.12750657e-02	4.70206373e-04
1.11000000e-01	2.10418306e-02	4.57442831e-04
1.11500000e-01	2.09931357e-02	4.51240509e-04
1.12000000e-01	2.13170032e-02	4.53203988e-04
1.12500000e-01	2.13874959e-02	4.54430857e-04
1.13000000e-01	2.11957861e-02	4.48536835e-04
1.13500000e-01	2.13194204e-02	4.50151887e-04
1.14000000e-01	2.15185075e-02	4.51832489e-04
1.14500000e-01	2.08539271e-02	4.40781579e-04
1.15000000e-01	2.09136471e-02	4.35048030e-04
1.15500000e-01	2.10478425e-02	4.41079684e-04
1.16000000e-01	2.10572814e-02	4.36866141e-04
1.16500000e-01	2.10278592e-02	4.35692940e-04
1.17000000e-01	2.06365908e-02	4.26394691e-04
1.17500000e-01	2.07498533e-02	4.26859281e-04
1.18000000e-01	2.11484911e-02	4.35897505e-04
1.18500000e-01	2.09661625e-02	4.28190789e-04
1.19000000e-01	2.08702040e-02	4.29243372e-04
1.19500000e-01	2.08580064e-02	4.25852928e-04
1.20000000e-01	2.14697944e-02	4.35160535e-04
1.20500000e-01	2.08735787e-02	4.24379044e-04
1.21000000e-01	2.07879774e-02	4.19758344e-04
1.21500000e-01	2.11589449e-02	4.27982569e-04
1.22000000e-01	2.09175360e-02	4.21656417e-04
1.22500000e-01	2.03047991e-02	4.10234864e-04
1.23000000e-01	2.09964114e-02	4.21859230e-04
1.23500000e-01	2.05525688e-02	4.12301650e-04
1.24000000e-01	2.09087604e-02	4.20682110e-04
1.24500000e-01	2.09577914e-02	4.19301781e-04
1.25000000e-01	2.11201792e-02	4.21485770e-04
1.25500000e-01	2.10644226e-02	4.18635903e-04
1.26000000e-01	2.10589840e-02	4.17467457e-04
1.26500000e-01	2.08489920e-02	4.12941801e-04
1.27000000e-01	2.09627765e-02	4.12039024e-04
1.27500000e-01	2.10985155e-02	4.15374241e-04
1.28000000e-01	2.10027576e-02	4.13576724e-04
1.28500000e-01	2.08574223e-02	4.10364957e-04
1.29000000e-01	2.08574961e-02	4.08825411e-04
1.29500000e-01	2.09818400e-02	4.11191554e-04
1.30000000e-01	2.09211557e-02	4.08712723e-04
1.30500000e-01	2.09160969e-02	4.05530775e-04
1.31000000e-01	2.11923319e-02	4.10757977e-04
1.31500000e-01	2.09017639e-02	4.06342909e-04
1.32000000e-01	2.07221613e-02	4.03013348e-04
1.32500000e-01	2.07494932e-02	4.01221536e-04
1.33000000e-01	2.10017524e-02	4.05202097e-04
1.33500000e-01	2.11473708e-02	4.05906037e-04
1.34000000e-01	2.09239290e-02	4.01522061e-04
1.34500000e-01	2.11107363e-02	4.02167249e-04
1.35000000e-01	2.09547698e-02	3.98317691e-04
1.35500000e-01	2.09154623e-02	3.98626832e-04
1.36000000e-01	2.11815854e-02	3.98122611e-04
1.36500000e-01	2.07744600e-02	3.95334240e-04
1.37000000e-01	2.06026570e-02	3.89168199e-04
1.37500000e-01	2.05533311e-02	3.88309667e-04
1.38000000e-01	2.09075813e-02	3.95721582e-04
1.38500000e-01	2.09754870e-02	3.94797350e-04
1.39000000e-01	2.06416799e-02	3.90190602e-04
1.39500000e-01	2.04158859e-02	3.84023544e-04
1.40000000e-01	2.05895571e-02	3.88251153e-04
1.40500000e-01	2.06792845e-02	3.86693410e-04
1.41000000e-01	2.06406048e-02	3.87287560e-04
1.41500000e-01	2.04252955e-02	3.82637888e-04
1.42000000e-01	2.04394059e-02	3.81587282e-04
1.42500000e-01	2.03882262e-02	3.80618468e-04
1.43000000e-01	2.03248289e-02	3.80539054e-04
1.43500000e-01	2.02517227e-02	3.77952120e-04
1.44000000e-01	2.03616143e-02	3.78237209e-04
1.44500000e-01	2.04586899e-02	3.78977302e-04
1.45000000e-01	2.04070987e-02	3.77972013e-04
1.45500000e-01	2.00424615e-02	3.70674083e-04
1.46000000e-01	2.00202704e-02	3.69241049e-04
1.46500000e-01	2.06347733e-02	3.80426561e-04
1.47000000e-01	2.01393109e-02	3.71988572e-04
1.47500000e-01	2.03860194e-02	3.73377747e-04
1.48000000e-01	2.03995315e-02	3.73707861e-04
1.48500000e-01	2.03832961e-02	3.73558916e-04
1.49000000e-01	1.98537012e-02	3.64007368e-04
1.49500000e-01	2.01497408e-02	3.66982118e-04
1.50000000e-01	2.00004878e-02	3.64079910e-04
1.50500000e-01	2.01194303e-02	3.66544126e-04
1.51000000e-01	2.02292101e-02	3.67907717e-04
1.51500000e-01	2.00657254e-02	3.63146392e-04
1.52000000e-01	2.00829621e-02	3.60967767e-04
1.52500000e-01	2.02273079e-02	3.64721423e-04
1.53000000e-01	2.01664304e-02	3.63540418e-04
1.53500000e-01	1.99703105e-02	3.58959261e-04
1.54000000e-01	2.00586431e-02	3.59449944e-04
1.54500000e-01	1.98391798e-02	3.61770614e-04
1.55000000e-01	2.00846406e-02	3.73409767e-04
1.55500000e-01	2.01953005e-02	3.75753306e-04
1.56000000e-01	1.98852836e-02	3.71716761e-04
1.56500000e-01	2.01370082e-02	3.76616250e-04
1.57000000e-01	1.99650394e-02	3.73495039e-04
1.57500000e-01	1.96169553e-02	3.62000531e-04
1.58000000e-01	2.00000013e-02	3.64561769e-04
1.58500000e-01	1.97872410e-02	3.57713910e-04
1.59000000e-01	1.96603964e-02	3.53662154e-04
1.59500000e-01	1.99832113e-02	3.58432853e-04
1.60000000e-01	2.00137046e-02	3.59283847e-04
1.60500000e-01	1.98781803e-02	3.55141290e-04
1.61000000e-01	1.99007618e-02	3.56324462e-04
1.61500000e-01	2.01160866e-02	3.56311784e-04
1.62000000e-01	2.00351650e-02	3.54740405e-04
1.62500000e-01	1.99124491e-02	3.52774802e-04
1.63000000e-01	1.98712354e-02	3.50201902e-04
1.63500000e-01	2.03025758e-02	3.59440628e-04
1.64000000e-01	1.97981646e-02	3.48514555e-04
1.64500000e-01	1.99089077e-02	3.51561812e-04
1.65000000e-01	1.98521100e-02	3.48805236e-04
1.65500000e-01	1.96224647e-02	3.44102334e-04
1.66000000e-01	1.97908496e-02	3.46228090e-04
1.66500000e-01	1.95844986e-02	3.42625690e-04
1.67000000e-01	1.97376155e-02	3.43832684e-04
1.67500000e-01	1.98928914e-02	3.45757775e-04
1.68000000e-01	1.96040372e-02	3.42014117e-04
1.68500000e-01	1.93959171e-02	3.36284575e-04
1.69000000e-01	1.97305067e-02	3.40606196e-04
1.69500000e-01	1.97559502e-02	3.41378300e-04
1.70000000e-01	1.94785237e-02	3.35981758e-04
1.70500000e-01	1.97727911e-02	3.41995991e-04
1.71000000e-01	1.96639499e-02	3.39150295e-04
1.71500000e-01	1.95992363e-02	3.37283409e-04
1.72000000e-01	1.96505900e-02	3.36617788e-04
1.72500000e-01	1.95075142e-02	3.35932239e-04
1.73000000e-01	1.97296801e-02	3.36816720e-04
1.73500000e-01	1.93634572e-02	3.29673923e-04
1.74000000e-01	1.95360881e-02	3.33026361e-04
1.74500000e-01	1.94916904e-02	3.29722990e-04
1.75000000e-01	1.95652268e-02	3.30033907e-04
1.75500000e-01	1.95091212e-02	3.29026734e-04
1.76000000e-01	1.96301037e-02	3.31023667e-04
1.76500000e-01	1.94227103e-02	3.27781989e-04
1.77000000e-01	1.97398265e-02	3.31616770e-04
1.77500000e-01	1.94654473e-02	3.27710305e-04
1.78000000e-01	1.93964524e-02	3.25404992e-04
1.78500000e-01	1.93494823e-02	3.26376326e-04
1.79000000e-01	1.94115609e-02	3.26325210e-04
1.79500000e-01	1.96039475e-02	3.29908674e-04
1.80000000e-01	1.93313855e-02	3.25618571e-04
1.80500000e-01	1.94472643e-02	3.26934124e-04
1.81000000e-01	1.94389557e-02	3.26694639e-04
1.81500000e-01	1.93806916e-02	3.23999600e-04
1.82000000e-01	1.94136887e-02	3.24157712e-04
1.82500000e-01	1.95895238e-02	3.25894585e-04
1.83000000e-01	1.93223573e-02	3.23071635e-04
1.83500000e-01	1.92705867e-02	3.19799975e-04
1.84000000e-01	1.92275639e-02	3.20226723e-04
1.84500000e-01	1.92952953e-02	3.20500920e-04
1.85000000e-01	1.91460652e-02	3.17990996e-04
1.85500000e-01	1.93439105e-02	3.20772160e-04
1.86000000e-01	1.91801900e-02	3.17040718e-04
1.86500000e-01	1.92036816e-02	3.17150348e-04
1.87000000e-01	1.91686188e-02	3.17776503e-04
1.87500000e-01	1.91159192e-02	3.15479814e-04
1.88000000e-01	1.91356770e-02	3.14890263e-04
1.88500000e-01	1.91637644e-02	3.15183069e-04
1.89000000e-01	1.91729734e-02	3.14616598e-04
1.89500000e-01	1.92433323e-02	3.13790598e-04
1.90000000e-01	1.92611865e-02	3.13446650e-04
1.90500000e-01	1.92038262e-02	3.13545333e-04
1.91000000e-01	1.90565498e-02	3.10618951e-04
1.91500000e-01	1.90404590e-02	3.11973174e-04
1.92000000e-01	1.90306169e-02	3.09245418e-04
1.92500000e-01	1.90425472e-02	3.09277752e-04
1.93000000e-01	1.90784589e-02	3.09467933e-04
1.93500000e-01	1.91996497e-02	3.10453793e-04
1.94000000e-01	1.89240521e-02	3.07387840e-04
1.94500000e-01	1.89945617e-02	3.07222044e-04
1.95000000e-01	1.89784927e-02	3.06500818e-04
1.95500000e-01	1.88619687e-02	3.04409938e-04
1.96000000e-01	1.89428738e-02	3.04261510e-04
1.96500000e-01	1.87454466e-02	3.03448074e-04
1.97000000e-01	1.87809607e-02	3.03109472e-04
1.97500000e-01	1.93157841e-02	3.09846082e-04
1.98000000e-01	1.87075662e-02	2.99728903e-04
1.98500000e-01	1.91783335e-02	3.06402365e-04
1.99000000e-01	1.93217651e-02	3.08772377e-04
1.99500000e-01	1.90119441e-02	3.02650426e-04
2.00000000e-01	1.91335554e-02	3.06070139e-04
2.00500000e-01	1.90035435e-02	3.02999387e-04
2.01000000e-01	1.90735878e-02	3.03829277e-04
2.01500000e-01	1.88985709e-02	3.00506660e-04
2.02000000e-01	1.89387236e-02	3.01559058e-04
2.02500000e-01	1.89243894e-02	2.99263576e-04
2.03000000e-01	1.86099148e-02	2.96241782e-04
2.03500000e-01	1.90474585e-02	3.00969923e-04
2.04000000e-01	1.89611962e-02	3.00250679e-04
2.04500000e-01	1.92955666e-02	3.05465303e-04
2.05000000e-01	1.86845402e-02	2.95113220e-04
2.05500000e-01	1.86398958e-02	2.95037802e-04
2.06000000e-01	1.86510882e-02	2.93224157e-04
2.06500000e-01	1.85379195e-02	2.91667535e-04
2.07000000e-01	1.88998962e-02	2.97218700e-04
2.07500000e-01	1.86371700e-02	2.92288464e-04
2.08000000e-01	1.87724294e-02	2.94925564e-04
2.08500000e-01	1.85595916e-02	2.89820000e-04
2.09000000e-01	1.90775731e-02	2.97782657e-04
2.09500000e-01	1.87636254e-02	2.91661764e-04
2.10000000e-01	1.89803511e-02	2.95981474e-04
2.10500000e-01	1.88226033e-02	2.94398571e-04
2.11000000e-01	1.86745015e-02	2.91196043e-04
2.11500000e-01	1.86150791e-02	2.91174484e-04
2.12000000e-01	1.84907942e-02	2.86289782e-04
2.12500000e-01	1.87192081e-02	2.90170236e-04
2.13000000e-01	1.87983717e-02	2.91679556e-04
2.13500000e-01	1.84410181e-02	2.85593385e-04
2.14000000e-01	1.86097081e-02	2.88726309e-04
2.14500000e-01	1.87356016e-02	2.88497444e-04
2.15000000e-01	1.87412757e-02	2.90285597e-04
2.15500000e-01	1.85762504e-02	2.86056838e-04
2.16000000e-01	1.86213435e-02	2.86767464e-04
2.16500000e-01	1.87233040e-02	2.87888649e-04
2.17000000e-01	1.86895700e-02	2.90815716e-04
2.17500000e-01	1.86488963e-02	2.94892781e-04
2.18000000e-01	1.86999476e-02	2.96994988e-04
2.18500000e-01	1.83461740e-02	2.93992780e-04
2.19000000e-01	1.85153008e-02	2.97659083e-04
2.19500000e-01	1.84654358e-02	2.96041105e-04
2.20000000e-01	1.86439796e-02	3.02755175e-04
2.20500000e-01	1.85538913e-02	3.01074917e-04
2.21000000e-01	1.85033266e-02	3.01164006e-04
2.21500000e-01	1.85967934e-02	3.03621826e-04
2.22000000e-01	1.87205721e-02	3.04737100e-04
2.22500000e-01	1.85554973e-02	3.02602821e-04
2.23000000e-01	1.85194049e-02	3.05780934e-04
2.23500000e-01	1.83347783e-02	3.01725146e-04
2.24000000e-01	1.84176775e-02	3.04033903e-04
2.24500000e-01	1.86741996e-02	3.07833644e-04
2.25000000e-01	1.83857509e-02	3.04862405e-04
2.25500000e-01	1.87619776e-02	3.10409830e-04
2.26000000e-01	1.86112332e-02	3.10450267e-04
2.26500000e-01	1.85084161e-02	3.02450774e-04
2.27000000e-01	1.89211576e-02	3.06605461e-04
2.27500000e-01	1.87001996e-02	3.01328357e-04
2.28000000e-01	1.85463347e-02	2.96206277e-04
2.28500000e-01	1.84594692e-02	2.94926495e-04
2.29000000e-01	1.82748759e-02	2.90055418e-04
2.29500000e-01	1.86214602e-02	2.94272212e-04
2.30000000e-01	1.87508806e-02	2.94043740e-04
2.30500000e-01	1.81272245e-02	2.84090853e-04
2.31000000e-01	1.83423318e-02	2.87334197e-04
2.31500000e-01	1.83703959e-02	2.87788262e-04
2.32000000e-01	1.83740338e-02	2.87815820e-04
2.32500000e-01	1.83437468e-02	2.84175340e-04
2.33000000e-01	1.84074095e-02	2.86305518e-04
2.33500000e-01	1.83822137e-02	2.84805453e-04
2.34000000e-01	1.83832010e-02	2.83960973e-04
2.34500000e-01	1.81972363e-02	2.80913832e-04
2.35000000e-01	1.81659482e-02	2.80472070e-04
2.35500000e-01	1.83928891e-02	2.82705582e-04
2.36000000e-01	1.81569792e-02	2.78085450e-04
2.36500000e-01	1.84376202e-02	2.82892433e-04
2.37000000e-01	1.80647209e-02	2.75541071e-04
2.37500000e-01	1.84072603e-02	2.81955042e-04
2.38000000e-01	1.81912001e-02	2.76590153e-04
2.38500000e-01	1.81343990e-02	2.76101731e-04
2.39000000e-01	1.81549253e-02	2.75674764e-04
2.39500000e-01	1.81897304e-02	2.76345862e-04
2.40000000e-01	1.81844772e-02	2.75616822e-04
2.40500000e-01	1.83169608e-02	2.76188798e-04
2.41000000e-01	1.83059418e-02	2.76269272e-04
2.41500000e-01	1.80779016e-02	2.72145254e-04
2.42000000e-01	1.82083371e-02	2.74618152e-04
2.42500000e-01	1.80879417e-02	2.72097236e-04
2.43000000e-01	1.78737619e-02	2.68132929e-04
2.43500000e-01	1.80203737e-02	2.69858434e-04
2.44000000e-01	1.80396238e-02	2.69379082e-04
2.44500000e-01	1.80673633e-02	2.70669789e-04
2.45000000e-01	1.79317602e-02	2.67078457e-04
2.45500000e-01	1.81584618e-02	2.69595326e-04
2.46000000e-01	1.80340387e-02	2.68178846e-04
2.46500000e-01	1.83397692e-02	2.71556169e-04
2.47000000e-01	1.81356684e-02	2.69466987e-04
2.47500000e-01	1.79735196e-02	2.65565030e-04
2.48000000e-01	1.80179919e-02	2.66443547e-04
2.48500000e-01	1.79054474e-02	2.65463003e-04
2.49000000e-01	1.81198072e-02	2.66634260e-04
2.49500000e-01	1.82303171e-02	2.68062410e-04
2.50000000e-01	1.77918650e-02	2.61738072e-04
2.50500000e-01	1.80465509e-02	2.66499217e-04
2.51000000e-01	1.80136258e-02	2.63746897e-04
2.51500000e-01	1.78876310e-02	2.62841337e-04
2.52000000e-01	1.77664151e-02	2.61304030e-04
2.52500000e-01	1.80667552e-02	2.63212458e-04
2.53000000e-01	1.80563628e-02	2.64968112e-04
2.53500000e-01	1.78340911e-02	2.60778479e-04
2.54000000e-01	1.76452051e-02	2.58857340e-04
2.54500000e-01	1.80267877e-02	2.62650653e-04
2.55000000e-01	1.78992561e-02	2.61327141e-04
2.55500000e-01	1.78528827e-02	2.60531028e-04
2.56000000e-01	1.78953066e-02	2.59750353e-04
2.56500000e-01	1.78621707e-02	2.60134075e-04
2.57000000e-01	1.79722877e-02	2.60237260e-04
2.57500000e-01	1.79423238e-02	2.59947846e-04
2.58000000e-01	1.79960609e-02	2.60821377e-04
2.58500000e-01	1.77453843e-02	2.57252566e-04
2.59000000e-01	1.77406238e-02	2.56347837e-04
2.59500000e-01	1.78507330e-02	2.58137644e-04
2.60000000e-01	1.77645965e-02	2.56203185e-04
2.60500000e-01	1.79155356e-02	2.58780681e-04
2.61000000e-01	1.79089440e-02	2.56624820e-04
2.61500000e-01	1.79639977e-02	2.59055530e-04
2.62000000e-01	1.76270050e-02	2.53073984e-04
2.62500000e-01	1.77430584e-02	2.55027857e-04
2.63000000e-01	1.77615651e-02	2.55967398e-04
2.63500000e-01	1.80407306e-02	2.58665104e-04
2.64000000e-01	1.77306687e-02	2.55117149e-04
2.64500000e-01	1.77408614e-02	2.53763960e-04
2.65000000e-01	1.76939975e-02	2.53367667e-04
2.65500000e-01	1.76115057e-02	2.51287933e-04
2.66000000e-01	1.78818199e-02	2.53997902e-04
2.66500000e-01	1.77066673e-02	2.51502879e-04
2.67000000e-01	1.76856944e-02	2.51779041e-04
2.67500000e-01	1.77154412e-02	2.51407803e-04
2.68000000e-01	1.77282574e-02	2.52151002e-04
2.68500000e-01	1.76076067e-02	2.50018058e-04
2.69000000e-01	1.77629259e-02	2.51135064e-04
2.69500000e-01	1.78517619e-02	2.51168291e-04
2.70000000e-01	1.76267901e-02	2.47769264e-04
2.70500000e-01	1.76226467e-02	2.47994005e-04
2.71000000e-01	1.76832618e-02	2.49208117e-04
2.71500000e-01	1.76865628e-02	2.49623055e-04
2.72000000e-01	1.74703405e-02	2.45762472e-04
2.72500000e-01	1.76264869e-02	2.47910037e-04
2.73000000e-01	1.75736248e-02	2.47262640e-04
2.73500000e-01	1.78645938e-02	2.50216559e-04
2.74000000e-01	1.77789775e-02	2.48611035e-04
2.74500000e-01	1.77290975e-02	2.48508010e-04
2.75000000e-01	1.76085703e-02	2.45612514e-04
2.75500000e-01	1.76244978e-02	2.46664934e-04
2.76000000e-01	1.74277005e-02	2.43498038e-04
2.76500000e-01	1.74352199e-02	2.43350330e-04
2.77000000e-01	1.76086886e-02	2.45129376e-04
2.77500000e-01	1.75535517e-02	2.45931823e-04
2.78000000e-01	1.75498944e-02	2.43937838e-04
2.78500000e-01	1.73898686e-02	2.42610865e-04
2.79000000e-01	1.75103604e-02	2.42719354e-04
2.79500000e-01	1.76197712e-02	2.44289039e-04
2.80000000e-01	1.76688075e-02	2.44869469e-04
2.80500000e-01	1.74383701e-02	2.41968003e-04
2.81000000e-01	1.76033589e-02	2.43808356e-04
2.81500000e-01	1.75629113e-02	2.43069719e-04
2.82000000e-01	1.73828703e-02	2.41069308e-04
2.82500000e-01	1.75163421e-02	2.42933751e-04
2.83000000e-01	1.74397111e-02	2.41268648e-04
2.83500000e-01	1.75163072e-02	2.41823185e-04
2.84000000e-01	1.74842720e-02	2.40927502e-04
2.84500000e-01	1.74494847e-02	2.39860472e-04
2.85000000e-01	1.73872122e-02	2.39184374e-04
2.85500000e-01	1.74624246e-02	2.39444835e-04
2.86000000e-01	1.73655288e-02	2.39575069e-04
2.86500000e-01	1.73937105e-02	2.37490121e-04
2.87000000e-01	1.74261200e-02	2.38361079e-04
2.87500000e-01	1.75520412e-02	2.39614126e-04
2.88000000e-01	1.73187258e-02	2.35614428e-04
2.88500000e-01	1.74953296e-02	2.39515622e-04
2.89000000e-01	1.73842507e-02	2.36871599e-04
2.89500000e-01	1.72710090e-02	2.35399884e-04
2.90000000e-01	1.73983628e-02	2.37394585e-04
2.90500000e-01	1.73970628e-02	2.36337176e-04
2.91000000e-01	1.72054100e-02	2.33974654e-04
2.91500000e-01	1.74786243e-02	2.37275280e-04
2.92000000e-01	1.73531875e-02	2.34701918e-04
2.92500000e-01	1.72188528e-02	2.32770313e-04
2.93000000e-01	1.72559836e-02	2.34130831e-04
2.93500000e-01	1.72085601e-02	2.32945937e-04
2.94000000e-01	1.73300918e-02	2.34206899e-04
2.94500000e-01	1.73757571e-02	2.35067931e-04
2.95000000e-01	1.72415535e-02	2.32023613e-04
2.95500000e-01	1.71802437e-02	2.32840874e-04
2.96000000e-01	1.72359860e-02	2.32038795e-04
2.96500000e-01	1.72666551e-02	2.32518388e-04
2.97000000e-01	1.69429823e-02	2.29275504e-04
2.97500000e-01	1.70776574e-02	2.29218085e-04
2.98000000e-01	1.72438859e-02	2.31620702e-04
2.98500000e-01	1.71463420e-02	2.31154171e-04
2.99000000e-01	1.71657972e-02	2.30456675e-04
2.99500000e-01	1.73315188e-02	2.33296256e-04
3.00000000e-01	1.72781685e-02	2.30970019e-04
3.00500000e-01	1.74051899e-02	2.33374146e-04
3.01000000e-01	1.71144142e-02	2.29037631e-04
3.01500000e-01	1.70432669e-02	2.28232423e-04
3.02000000e-01	1.72548244e-02	2.29022374e-04
3.02500000e-01	1.71058184e-02	2.28263489e-04
3.03000000e-01	1.71846451e-02	2.28813814e-04
3.03500000e-01	1.71089155e-02	2.26766181e-04
3.04000000e-01	1.71591010e-02	2.28599790e-04
3.04500000e-01	1.71376956e-02	2.27461651e-04
3.05000000e-01	1.70650877e-02	2.26421695e-04
3.05500000e-01	1.70634070e-02	2.27640119e-04
3.06000000e-01	1.72186108e-02	2.26208757e-04
3.06500000e-01	1.73075465e-02	2.29325560e-04
3.07000000e-01	1.71180997e-02	2.25937550e-04
3.07500000e-01	1.70881301e-02	2.25250421e-04
3.08000000e-01	1.71602156e-02	2.26524148e-04
3.08500000e-01	1.70309400e-02	2.24623729e-04
3.09000000e-01	1.69575024e-02	2.24789504e-04
3.09500000e-01	1.70471681e-02	2.25410366e-04
3.10000000e-01	1.72205714e-02	2.26358424e-04
3.10500000e-01	1.70714012e-02	2.24635893e-04
3.11000000e-01	1.70893663e-02	2.24390569e-04
3.11500000e-01	1.70940353e-02	2.24432478e-04
3.12000000e-01	1.69913297e-02	2.23167730e-04
3.12500000e-01	1.70201417e-02	2.23588677e-04
3.13000000e-01	1.68622926e-02	2.21284999e-04
3.13500000e-01	1.68884248e-02	2.20960299e-04
3.14000000e-01	1.69292371e-02	2.21944114e-04
3.14500000e-01	1.70041408e-02	2.22364376e-04
3.15000000e-01	1.68636105e-02	2.19940662e-04
3.15500000e-01	1.70104293e-02	2.22198434e-04
3.16000000e-01	1.69157581e-02	2.21578153e-04
3.16500000e-01	1.69269537e-02	2.20499126e-04
3.17000000e-01	1.68494348e-02	2.19519365e-04
3.17500000e-01	1.68155358e-02	2.19844564e-04
3.18000000e-01	1.68204695e-02	2.18588098e-04
3.18500000e-01	1.66932277e-02	2.17055360e-04
3.19000000e-01	1.69310568e-02	2.19810083e-04
3.19500000e-01	1.68514063e-02	2.18913301e-04
3.20000000e-01	1.69534528e-02	2.19940861e-04
3.20500000e-01	1.68935789e-02	2.19344679e-04
3.21000000e-01	1.67264852e-02	2.17547849e-04
3.21500000e-01	1.68206872e-02	2.18834004e-04
3.22000000e-01	1.68790830e-02	2.18010615e-04
3.22500000e-01	1.67523874e-02	2.16391166e-04
3.23000000e-01	1.68100026e-02	2.17246888e-04
3.23500000e-01	1.67796997e-02	2.16490059e-04
3.24000000e-01	1.68973902e-02	2.18071869e-04
3.24500000e-01	1.68675730e-02	2.18062169e-04
3.25000000e-01	1.64908239e-02	2.12430985e-04
3.25500000e-01	1.67760472e-02	2.16290754e-04
3.26000000e-01	1.65760437e-02	2.13596201e-04
3.26500000e-01	1.67080264e-02	2.14405794e-04
3.27000000e-01	1.67391089e-02	2.14880703e-04
3.27500000e-01	1.67351978e-02	2.15252019e-04
3.28000000e-01	1.65577360e-02	2.13186767e-04
3.28500000e-01	1.66277139e-02	2.13610282e-04
3.29000000e-01	1.68524782e-02	2.15601445e-04
3.29500000e-01	1.66132230e-02	2.12912368e-04
3.30000000e-01	1.67558507e-02	2.14610063e-04
3.30500000e-01	1.66584560e-02	2.12684134e-04
3.31000000e-01	1.67099992e-02	2.12899123e-04
3.31500000e-01	1.65169005e-02	2.11017440e-04
3.32000000e-01	1.67809700e-02	2.13972653e-04
3.32500000e-01	1.64958773e-02	2.09640849e-04
3.33000000e-01	1.67102713e-02	2.13172298e-04
3.33500000e-01	1.67710825e-02	2.12812370e-04
3.34000000e-01	1.65770858e-02	2.11316940e-04
3.34500000e-01	1.64119894e-02	2.08804286e-04
3.35000000e-01	1.66966677e-02	2.11769421e-04
3.35500000e-01	1.65323619e-02	2.09754654e-04
3.36000000e-01	1.62452951e-02	2.06672997e-04
3.36500000e-01	1.63802141e-02	2.08484021e-04
3.37000000e-01	1.63693619e-02	2.07029106e-04
3.37500000e-01	1.66079287e-02	2.10480408e-04
3.38000000e-01	1.65265383e-02	2.10249415e-04
3.38500000e-01	1.64745381e-02	2.07552877e-04
3.39000000e-01	1.64838204e-02	2.08168891e-04
3.39500000e-01	1.64165452e-02	2.07876618e-04
3.40000000e-01	1.62536623e-02	2.04539935e-04
3.40500000e-01	1.65187532e-02	2.08221798e-04
3.41000000e-01	1.63816524e-02	2.05238974e-04
3.41500000e-01	1.64855060e-02	2.07573822e-04
3.42000000e-01	1.65883577e-02	2.07672649e-04
3.42500000e-01	1.62480715e-02	2.03869117e-04
3.43000000e-01	1.62864085e-02	2.04895249e-04
3.43500000e-01	1.64708482e-02	2.06500145e-04
3.44000000e-01	1.64100576e-02	2.06040521e-04
3.44500000e-01	1.64845268e-02	2.06786575e-04
3.45000000e-01	1.63210455e-02	2.04490220e-04
3.45500000e-01	1.63258664e-02	2.04692061e-04
3.46000000e-01	1.64460285e-02	2.05796132e-04
3.46500000e-01	1.62406284e-02	2.02766855e-04
3.47000000e-01	1.64984964e-02	2.05265608e-04
3.47500000e-01	1.64261506e-02	2.05134523e-04
3.48000000e-01	1.62868359e-02	2.02369760e-04
3.48500000e-01	1.61585627e-02	2.02083912e-04
3.49000000e-01	1.64012130e-02	2.04125945e-04
3.49500000e-01	1.63974439e-02	2.05094592e-04
3.50000000e-01	1.63638655e-02	1.66070003e-04
3.51000000e-01	1.62709780e-02	1.43010972e-04
3.52000000e-01	1.62253300e-02	1.42354629e-04
3.53000000e-01	1.62958060e-02	1.42553689e-04
3.54000000e-01	1.62666248e-02	1.42106155e-04
3.55000000e-01	1.63033527e-02	1.42088139e-04
3.56000000e-01	1.60578982e-02	1.41143439e-04
3.57000000e-01	1.62498527e-02	1.45270889e-04
3.58000000e-01	1.60984740e-02	1.45127975e-04
3.59000000e-01	1.60970601e-02	1.46334764e-04
3.60000000e-01	1.58945110e-02	1.45011452e-04
3.61000000e-01	1.61007789e-02	1.47806995e-04
3.62000000e-01	1.61255321e-02	1.48679561e-04
3.63000000e-01	1.59117010e-02	1.47079305e-04
3.64000000e-01	1.59449501e-02	1.48358423e-04
3.65000000e-01	1.59759220e-02	1.48277835e-04
3.66000000e-01	1.58582427e-02	1.45894147e-04
3.67000000e-01	1.59683638e-02	1.44968786e-04
3.68000000e-01	1.58186826e-02	1.42733554e-04
3.69000000e-01	1.58287597e-02	1.42129140e-04
3.70000000e-01	1.59450196e-02	1.42032409e-04
3.71000000e-01	1.59855317e-02	1.44257618e-04
3.72000000e-01	1.59343500e-02	1.44990582e-04
3.73000000e-01	1.58830549e-02	1.44934823e-04
3.74000000e-01	1.58228313e-02	1.44159237e-04
3.75000000e-01	1.59807775e-02	1.46061537e-04
3.76000000e-01	1.58572164e-02	1.44802889e-04
3.77000000e-01	1.58335104e-02	1.44972973e-04
3.78000000e-01	1.58258858e-02	1.44781656e-04
3.79000000e-01	1.58197851e-02	1.44560097e-04
3.80000000e-01	1.57805211e-02	1.43776753e-04
3.81000000e-01	1.57910001e-02	1.43995485e-04
3.82000000e-01	1.58296788e-02	1.44093357e-04
3.83000000e-01	1.57538714e-02	1.43510299e-04
3.84000000e-01	1.58441969e-02	1.43773768e-04
3.85000000e-01	1.56249046e-02	1.42662617e-04
3.86000000e-01	1.57971919e-02	1.43951701e-04
3.87000000e-01	1.56266267e-02	1.42347327e-04
3.88000000e-01	1.57886621e-02	1.43838545e-04
3.89000000e-01	1.56878144e-02	1.42531140e-04
3.90000000e-01	1.56720466e-02	1.42873280e-04
3.91000000e-01	1.56425513e-02	1.42204462e-04
3.92000000e-01	1.56329312e-02	1.42254762e-04
3.93000000e-01	1.56827412e-02	1.42281360e-04
3.94000000e-01	1.56076119e-02	1.41716315e-04
3.95000000e-01	1.57551024e-02	1.42759209e-04
3.96000000e-01	1.54696079e-02	1.40646410e-04
3.97000000e-01	1.56737374e-02	1.42224530e-04
3.98000000e-01	1.54513473e-02	1.40588651e-04
3.99000000e-01	1.55096149e-02	1.40629892e-04
4.00000000e-01	1.55196844e-02	1.41128423e-04
4.01000000e-01	1.55046678e-02	1.40688260e-04
4.02000000e-01	1.52871440e-02	1.39222264e-04
4.03000000e-01	1.55312563e-02	1.40840909e-04
4.04000000e-01	1.53848583e-02	1.40123207e-04
4.05000000e-01	1.54030080e-02	1.40316997e-04
4.06000000e-01	1.54035161e-02	1.39710700e-04
4.07000000e-01	1.53663368e-02	1.39745605e-04
4.08000000e-01	1.54657183e-02	1.40609657e-04
4.09000000e-01	1.53954144e-02	1.38993615e-04
4.10000000e-01	1.53883644e-02	1.39355966e-04
4.11000000e-01	1.53923354e-02	1.39531809e-04
4.12000000e-01	1.53368957e-02	1.39512572e-04
4.13000000e-01	1.54096201e-02	1.39590649e-04
4.14000000e-01	1.55733525e-02	1.40490275e-04
4.15000000e-01	1.54716176e-02	1.39978636e-04
4.16000000e-01	1.54984376e-02	1.40504351e-04
4.17000000e-01	1.53923623e-02	1.39429175e-04
4.18000000e-01	1.54497017e-02	1.41239807e-04
4.19000000e-01	1.54445510e-02	1.42733898e-04
4.20000000e-01	1.54000677e-02	1.43135514e-04
4.21000000e-01	1.54988695e-02	1.44025613e-04
4.22000000e-01	1.54617504e-02	1.44491771e-04
4.23000000e-01	1.53605831e-02	1.44548487e-04
4.24000000e-01	1.53760734e-02	1.44751688e-04
4.25000000e-01	1.53435197e-02	1.44533873e-04
4.26000000e-01	1.53738312e-02	1.45100700e-04
4.27000000e-01	1.53943623e-02	1.45567683e-04
4.28000000e-01	1.53756710e-02	1.45130790e-04
4.29000000e-01	1.53645716e-02	1.45424932e-04
4.30000000e-01	1.55434391e-02	1.46923813e-04
4.31000000e-01	1.54089860e-02	1.45787123e-04
4.32000000e-01	1.52178515e-02	1.44550113e-04
4.33000000e-01	1.52954000e-02	1.44718139e-04
4.34000000e-01	1.52256202e-02	1.44505521e-04
4.35000000e-01	1.53441092e-02	1.45778210e-04
4.36000000e-01	1.53234924e-02	1.45556497e-04
4.37000000e-01	1.52093766e-02	1.44922489e-04
4.38000000e-01	1.51454614e-02	1.44750491e-04
4.39000000e-01	1.53368613e-02	1.46416864e-04
4.40000000e-01	1.51723429e-02	1.45128889e-04
4.41000000e-01	1.52282234e-02	1.45434885e-04
4.42000000e-01	1.52367333e-02	1.46137859e-04
4.43000000e-01	1.50756424e-02	1.45121322e-04
4.44000000e-01	1.52012463e-02	1.46330825e-04
4.45000000e-01	1.52909887e-02	1.46901536e-04
4.46000000e-01	1.50453446e-02	1.44892306e-04
4.47000000e-01	1.51073085e-02	1.46019140e-04
4.48000000e-01	1.52453029e-02	1.46968589e-04
4.49000000e-01	1.51208337e-02	1.46217707e-04
4.50000000e-01	1.49826661e-02	1.45229936e-04
4.51000000e-01	1.51762210e-02	1.46121255e-04
4.52000000e-01	1.51046623e-02	1.46328168e-04
4.53000000e-01	1.51585768e-02	1.47206745e-04
4.54000000e-01	1.51759796e-02	1.47260232e-04
4.55000000e-01	1.52406903e-02	1.48208800e-04
4.56000000e-01	1.50710699e-02	1.46700731e-04
4.57000000e-01	1.51154096e-02	1.47379989e-04
4.58000000e-01	1.51196887e-02	1.47401013e-04
4.59000000e-01	1.50551737e-02	1.46865120e-04
4.60000000e-01	1.50483671e-02	1.46789927e-04
4.61000000e-01	1.50648966e-02	1.46875961e-04
4.62000000e-01	1.50976475e-02	1.47472482e-04
4.63000000e-01	1.49825628e-02	1.46497556e-04
4.64000000e-01	1.50649342e-02	1.47438475e-04
4.65000000e-01	1.49814197e-02	1.46583718e-04
4.66000000e-01	1.50432585e-02	1.47505525e-04
4.67000000e-01	1.48912298e-02	1.46281535e-04
4.68000000e-01	1.48103188e-02	1.45567294e-04
4.69000000e-01	1.49771510e-02	1.47283831e-04
4.70000000e-01	1.49367318e-02	1.47112135e-04
4.71000000e-01	1.49876459e-02	1.46704669e-04
4.72000000e-01	1.48654203e-02	1.46270558e-04
4.73000000e-01	1.49266884e-02	1.46647699e-04
4.74000000e-01	1.49221955e-02	1.46404660e-04
4.75000000e-01	1.48858067e-02	1.46485093e-04
4.76000000e-01	1.48296270e-02	1.45699963e-04
4.77000000e-01	1.49194664e-02	1.46457637e-04
4.78000000e-01	1.48438025e-02	1.46009287e-04
4.79000000e-01	1.49488421e-02	1.46848972e-04
4.80000000e-01	1.49684154e-02	1.47680206e-04
4.81000000e-01	1.47967557e-02	1.45790275e-04
4.82000000e-01	1.47978109e-02	1.45476444e-04
4.83000000e-01	1.48858996e-02	1.46969443e-04
4.84000000e-01	1.47923713e-02	1.46086198e-04
4.85000000e-01	1.47120706e-02	1.45578843e-04
4.86000000e-01	1.47398522e-02	1.45499842e-04
4.87000000e-01	1.48045595e-02	1.46462434e-04
4.88000000e-01	1.46273254e-02	1.44928719e-04
4.89000000e-01	1.47010169e-02	1.45896760e-04
4.90000000e-01	1.46466380e-02	1.45317722e-04
4.91000000e-01	1.47906735e-02	1.46335712e-04
4.92000000e-01	1.47463664e-02	1.46073369e-04
4.93000000e-01	1.48379133e-02	1.47255530e-04
4.94000000e-01	1.47768155e-02	1.46437957e-04
4.95000000e-01	1.46996211e-02	1.46858451e-04
4.96000000e-01	1.46753319e-02	1.51141057e-04
4.97000000e-01	1.47362329e-02	1.54448814e-04
4.98000000e-01	1.47256601e-02	1.56117239e-04
4.99000000e-01	1.47452008e-02	1.58293724e-04
5.00000000e-01	1.46692478e-02	1.59656667e-04
5.01000000e-01	1.47383809e-02	1.61150245e-04
5.02000000e-01	1.46991344e-02	1.62639108e-04
5.03000000e-01	1.46472701e-02	1.63413762e-04
5.04000000e-01	1.47462429e-02	1.66054523e-04
5.05000000e-01	1.46796492e-02	1.62569046e-04
5.06000000e-01	1.48399561e-02	1.60914653e-04
5.07000000e-01	1.46958468e-02	1.57648781e-04
5.08000000e-01	1.47069923e-02	1.56905304e-04
5.09000000e-01	1.45683166e-02	1.54998262e-04
5.10000000e-01	1.46679483e-02	1.55413813e-04
5.11000000e-01	1.47152920e-02	1.55305685e-04
5.12000000e-01	1.46956536e-02	1.54620358e-04
5.13000000e-01	1.46156151e-02	1.53988654e-04
5.14000000e-01	1.45770633e-02	1.53115088e-04
5.15000000e-01	1.45158695e-02	1.51937633e-04
5.16000000e-01	1.46463859e-02	1.52570685e-04
5.17000000e-01	1.45653506e-02	1.52309802e-04
5.18000000e-01	1.45189327e-02	1.51595409e-04
5.19000000e-01	1.45077827e-02	1.50464348e-04
5.20000000e-01	1.45571851e-02	1.50761874e-04
5.21000000e-01	1.44539091e-02	1.50107582e-04
5.22000000e-01	1.45855755e-02	1.51196329e-04
5.23000000e-01	1.43974904e-02	1.49239258e-04
5.24000000e-01	1.44949191e-02	1.49926724e-04
5.25000000e-01	1.46422605e-02	1.51343803e-04
5.26000000e-01	1.44231041e-02	1.49183464e-04
5.27000000e-01	1.45670828e-02	1.50518599e-04
5.28000000e-01	1.43910420e-02	1.48855759e-04
5.29000000e-01	1.43834173e-02	1.49555296e-04
5.30000000e-01	1.43943149e-02	1.49020656e-04
5.31000000e-01	1.44591612e-02	1.50186861e-04
5.32000000e-01	1.43327243e-02	1.48561698e-04
5.33000000e-01	1.44113847e-02	1.49099014e-04
5.34000000e-01	1.44395944e-02	1.49309757e-04
5.35000000e-01	1.43710153e-02	1.48831273e-04
5.36000000e-01	1.42782816e-02	1.47784184e-04
5.37000000e-01	1.45040234e-02	1.49789743e-04
5.38000000e-01	1.43757721e-02	1.48692604e-04
5.39000000e-01	1.42675239e-02	1.47676238e-04
5.40000000e-01	1.43006589e-02	1.47616032e-04
5.41000000e-01	1.42623713e-02	1.47824284e-04
5.42000000e-01	1.42670036e-02	1.47819125e-04
5.43000000e-01	1.41842304e-02	1.46909649e-04
5.44000000e-01	1.43561487e-02	1.48948417e-04
5.45000000e-01	1.42878982e-02	1.48202979e-04
5.46000000e-01	1.42571108e-02	1.47897591e-04
5.47000000e-01	1.41658942e-02	1.46897519e-04
5.48000000e-01	1.41557245e-02	1.46425211e-04
5.49000000e-01	1.42852450e-02	1.47343870e-04
5.50000000e-01	1.43358381e-02	1.48193966e-04
5.51000000e-01	1.42200465e-02	1.47253893e-04
5.52000000e-01	1.41925603e-02	1.46332351e-04
5.53000000e-01	1.41744109e-02	1.46173175e-04
5.54000000e-01	1.41120250e-02	1.45764124e-04
5.55000000e-01	1.41679584e-02	1.46000899e-04
5.56000000e-01	1.40399342e-02	1.44159282e-04
5.57000000e-01	1.42659945e-02	1.46667119e-04
5.58000000e-01	1.41849176e-02	1.45907470e-04
5.59000000e-01	1.40616903e-02	1.44577744e-04
5.60000000e-01	1.42876291e-02	1.47453213e-04
5.61000000e-01	1.41382636e-02	1.45674869e-04
5.62000000e-01	1.41819408e-02	1.45563030e-04
5.63000000e-01	1.40061284e-02	1.44778851e-04
5.64000000e-01	1.40160335e-02	1.44450645e-04
5.65000000e-01	1.40090741e-02	1.44687516e-04
5.66000000e-01	1.40721748e-02	1.45025648e-04
5.67000000e-01	1.41294599e-02	1.45892991e-04
5.68000000e-01	1.41245152e-02	1.45161208e-04
5.69000000e-01	1.40056342e-02	1.43619030e-04
5.70000000e-01	1.40317723e-02	1.44297185e-04
5.71000000e-01	1.41349865e-02	1.45609472e-04
5.72000000e-01	1.40946381e-02	1.44647447e-04
5.73000000e-01	1.39779147e-02	1.44165553e-04
5.74000000e-01	1.38981896e-02	1.43262744e-04
5.75000000e-01	1.39902789e-02	1.44552698e-04
5.76000000e-01	1.39732187e-02	1.43956508e-04
5.77000000e-01	1.38462652e-02	1.43017694e-04
5.78000000e-01	1.39021894e-02	1.43521136e-04
5.79000000e-01	1.38762873e-02	1.43298863e-04
5.80000000e-01	1.39421763e-02	1.44150122e-04
5.81000000e-01	1.39480473e-02	1.43748163e-04
5.82000000e-01	1.39599032e-02	1.43576363e-04
5.83000000e-01	1.38393305e-02	1.43007770e-04
5.84000000e-01	1.38147780e-02	1.42903500e-04
5.85000000e-01	1.38104383e-02	1.42856592e-04
5.86000000e-01	1.38105353e-02	1.43073220e-04
5.87000000e-01	1.38578651e-02	1.42830256e-04
5.88000000e-01	1.38658167e-02	1.43577324e-04
5.89000000e-01	1.38042294e-02	1.42834428e-04
5.90000000e-01	1.39203627e-02	1.43863236e-04
5.91000000e-01	1.38548809e-02	1.43277623e-04
5.92000000e-01	1.37927451e-02	1.42447966e-04
5.93000000e-01	1.38551936e-02	1.43170927e-04
5.94000000e-01	1.38684464e-02	1.43662253e-04
5.95000000e-01	1.36727870e-02	1.41920861e-04
5.96000000e-01	1.36925674e-02	1.42248005e-04
5.97000000e-01	1.37296066e-02	1.42862794e-04
5.98000000e-01	1.36694603e-02	1.41570940e-04
5.99000000e-01	1.38397188e-02	1.43671882e-04
6.00000000e-01	1.38340653e-02	1.43376643e-04
6.01000000e-01	1.37816500e-02	1.42881527e-04
6.02000000e-01	1.36367131e-02	1.41508662e-04
6.03000000e-01	1.37072253e-02	1.41804186e-04
6.04000000e-01	1.37535936e-02	1.42419396e-04
6.05000000e-01	1.37182637e-02	1.42016642e-04
6.06000000e-01	1.37731542e-02	1.43148025e-04
6.07000000e-01	1.36655894e-02	1.42310685e-04
6.08000000e-01	1.36320423e-02	1.41591946e-04
6.09000000e-01	1.36765610e-02	1.41960519e-04
6.10000000e-01	1.36513044e-02	1.42009876e-04
6.11000000e-01	1.36715581e-02	1.42078728e-04
6.12000000e-01	1.34572324e-02	1.40252663e-04
6.13000000e-01	1.36015174e-02	1.41473402e-04
6.14000000e-01	1.36962696e-02	1.42343730e-04
6.15000000e-01	1.37087630e-02	1.42301346e-04
6.16000000e-01	1.35835894e-02	1.41504816e-04
6.17000000e-01	1.34867689e-02	1.40312906e-04
6.18000000e-01	1.34894228e-02	1.40755703e-04
6.19000000e-01	1.36173194e-02	1.41166596e-04
6.20000000e-01	1.37115263e-02	1.42128815e-04
6.21000000e-01	1.36568659e-02	1.41529947e-04
6.22000000e-01	1.34750445e-02	1.39676069e-04
6.23000000e-01	1.35058260e-02	1.39789856e-04
6.24000000e-01	1.34262608e-02	1.38795376e-04
6.25000000e-01	1.37278276e-02	1.41823081e-04
6.26000000e-01	1.35862149e-02	1.40360328e-04
6.27000000e-01	1.34378146e-02	1.39116071e-04
6.28000000e-01	1.35310054e-02	1.39894063e-04
6.29000000e-01	1.34349542e-02	1.38705837e-04
6.30000000e-01	1.34782031e-02	1.39663802e-04
6.31000000e-01	1.34770607e-02	1.39094847e-04
6.32000000e-01	1.34506948e-02	1.38801947e-04
6.33000000e-01	1.35787432e-02	1.39765381e-04
6.34000000e-01	1.35262185e-02	1.43261776e-04
6.35000000e-01	1.35491836e-02	1.47370046e-04
6.36000000e-01	1.35484801e-02	1.50067704e-04
6.37000000e-01	1.35848624e-02	1.53042153e-04
6.38000000e-01	1.35603704e-02	1.54598383e-04
6.39000000e-01	1.36124163e-02	1.57455995e-04
6.40000000e-01	1.34095595e-02	1.57180391e-04
6.41000000e-01	1.34033560e-02	1.58662794e-04
6.42000000e-01	1.35771138e-02	1.62002175e-04
6.43000000e-01	1.33967753e-02	1.60528639e-04
6.44000000e-01	1.37096680e-02	1.57857989e-04
6.45000000e-01	1.35307332e-02	1.53498799e-04
6.46000000e-01	1.37215660e-02	1.54359378e-04
6.47000000e-01	1.35870201e-02	1.51075582e-04
6.48000000e-01	1.35376703e-02	1.49782809e-04
6.49000000e-01	1.36532110e-02	1.50574177e-04
6.50000000e-01	1.35046711e-02	1.48936342e-04
6.51000000e-01	1.36629575e-02	1.49753533e-04
6.52000000e-01	1.34264916e-02	1.46577519e-04
6.53000000e-01	1.33952246e-02	1.45997703e-04
6.54000000e-01	1.34508351e-02	1.45792841e-04
6.55000000e-01	1.34208579e-02	1.45304142e-04
6.56000000e-01	1.36040230e-02	1.46712227e-04
6.57000000e-01	1.33766693e-02	1.44591161e-04
6.58000000e-01	1.33946082e-02	1.44111155e-04
6.59000000e-01	1.34732036e-02	1.44890059e-04
6.60000000e-01	1.33592039e-02	1.44299766e-04
6.61000000e-01	1.36512836e-02	1.46761314e-04
6.62000000e-01	1.34610653e-02	1.44604415e-04
6.63000000e-01	1.35564883e-02	1.46150746e-04
6.64000000e-01	1.34707756e-02	1.44707537e-04
6.65000000e-01	1.33989305e-02	1.43843967e-04
6.66000000e-01	1.34844973e-02	1.44511740e-04
6.67000000e-01	1.34131399e-02	1.43600276e-04
6.68000000e-01	1.33687810e-02	1.43654962e-04
6.69000000e-01	1.33834326e-02	1.43612343e-04
6.70000000e-01	1.33758486e-02	1.42944703e-04
6.71000000e-01	1.33708844e-02	1.43113363e-04
6.72000000e-01	1.32778220e-02	1.42102046e-04
6.73000000e-01	1.32825955e-02	1.42171285e-04
6.74000000e-01	1.33468504e-02	1.42375664e-04
6.75000000e-01	1.33706968e-02	1.43012546e-04
6.76000000e-01	1.33676475e-02	1.42739589e-04
6.77000000e-01	1.33720907e-02	1.43064701e-04
6.78000000e-01	1.33453380e-02	1.42415447e-04
6.79000000e-01	1.33204159e-02	1.42459380e-04
6.80000000e-01	1.32928048e-02	1.41371873e-04
6.81000000e-01	1.33745966e-02	1.42774472e-04
6.82000000e-01	1.33331425e-02	1.42872426e-04
6.83000000e-01	1.31952725e-02	1.40503833e-04
6.84000000e-01	1.33837589e-02	1.42550247e-04
6.85000000e-01	1.32635470e-02	1.41448895e-04
6.86000000e-01	1.32309367e-02	1.41291483e-04
6.87000000e-01	1.32494381e-02	1.41153406e-04
6.88000000e-01	1.31937445e-02	1.41128382e-04
6.89000000e-01	1.32022130e-02	1.40892904e-04
6.90000000e-01	1.32215049e-02	1.40844512e-04
6.91000000e-01	1.31489644e-02	1.40650617e-04
6.92000000e-01	1.32093932e-02	1.40543309e-04
6.93000000e-01	1.32162408e-02	1.40961230e-04
6.94000000e-01	1.30766220e-02	1.39625208e-04
6.95000000e-01	1.30649705e-02	1.39505261e-04
6.96000000e-01	1.31406542e-02	1.40055336e-04
6.97000000e-01	1.32785930e-02	1.41131858e-04
6.98000000e-01	1.30960031e-02	1.39625156e-04
6.99000000e-01	1.30563386e-02	1.39248726e-04
7.00000000e-01	1.31654103e-02	1.39779355e-04
7.01000000e-01	1.30372340e-02	1.38810785e-04
7.02000000e-01	1.29431071e-02	1.38400315e-04
7.03000000e-01	1.29414239e-02	1.38157481e-04
7.04000000e-01	1.29637728e-02	1.38336351e-04
7.05000000e-01	1.31294790e-02	1.39654754e-04
7.06000000e-01	1.31346794e-02	1.39961482e-04
7.07000000e-01	1.29739516e-02	1.37887469e-04
7.08000000e-01	1.31243711e-02	1.39012805e-04
7.09000000e-01	1.30025288e-02	1.38115379e-04
7.10000000e-01	1.29807559e-02	1.38285480e-04
7.11000000e-01	1.30211575e-02	1.38939751e-04
7.12000000e-01	1.30427068e-02	1.38454143e-04
7.13000000e-01	1.29752860e-02	1.37947964e-04
7.14000000e-01	1.28745283e-02	1.37411100e-04
7.15000000e-01	1.29560312e-02	1.38344747e-04
7.16000000e-01	1.29978882e-02	1.38789211e-04
7.17000000e-01	1.26654975e-02	1.35405062e-04
7.18000000e-01	1.30248536e-02	1.38499087e-04
7.19000000e-01	1.28267707e-02	1.37586468e-04
7.20000000e-01	1.28742848e-02	1.36831220e-04
7.21000000e-01	1.28889246e-02	1.37452477e-04
7.22000000e-01	1.28380844e-02	1.36893267e-04
7.23000000e-01	1.28562457e-02	1.37132646e-04
7.24000000e-01	1.28393840e-02	1.37260791e-04
7.25000000e-01	1.27844895e-02	1.36470600e-04
7.26000000e-01	1.29379941e-02	1.37797243e-04
7.27000000e-01	1.27406120e-02	1.36062647e-04
7.28000000e-01	1.28841345e-02	1.37086972e-04
7.29000000e-01	1.27104063e-02	1.35539198e-04
7.30000000e-01	1.26590101e-02	1.35074938e-04
7.31000000e-01	1.27204678e-02	1.35803984e-04
7.32000000e-01	1.27504649e-02	1.36072773e-04
7.33000000e-01	1.27015252e-02	1.35844085e-04
7.34000000e-01	1.27203031e-02	1.35773013e-04
7.35000000e-01	1.26558073e-02	1.34621260e-04
7.36000000e-01	1.26456074e-02	1.34387670e-04
7.37000000e-01	1.26558013e-02	1.34417363e-04
7.38000000e-01	1.27095824e-02	1.34178508e-04
7.39000000e-01	1.25850027e-02	1.32719294e-04
7.40000000e-01	1.26273842e-02	1.33180213e-04
7.41000000e-01	1.26699955e-02	1.34027868e-04
7.42000000e-01	1.26161631e-02	1.33383369e-04
7.43000000e-01	1.26647558e-02	1.33770835e-04
7.44000000e-01	1.25898910e-02	1.32948732e-04
7.45000000e-01	1.26471470e-02	1.33538674e-04
7.46000000e-01	1.26237611e-02	1.33115041e-04
7.47000000e-01	1.25961669e-02	1.32955298e-04
7.48000000e-01	1.26487696e-02	1.33684967e-04
7.49000000e-01	1.26907988e-02	1.33771162e-04
7.50000000e-01	1.25531517e-02	1.33067483e-04
7.51000000e-01	1.27073367e-02	1.33988418e-04
7.52000000e-01	1.25344276e-02	1.32874672e-04
7.53000000e-01	1.26316789e-02	1.33498088e-04
7.54000000e-01	1.26544618e-02	1.34001376e-04
7.55000000e-01	1.26220240e-02	1.33008090e-04
7.56000000e-01	1.26191941e-02	1.33210910e-04
7.57000000e-01	1.25726674e-02	1.32739945e-04
7.58000000e-01	1.25696119e-02	1.32773836e-04
7.59000000e-01	1.23896598e-02	1.30881688e-04
7.60000000e-01	1.25335083e-02	1.32303642e-04
7.61000000e-01	1.25021445e-02	1.31676844e-04
7.62000000e-01	1.24584154e-02	1.31196567e-04
7.63000000e-01	1.26299896e-02	1.32266293e-04
7.64000000e-01	1.23909047e-02	1.30371052e-04
7.65000000e-01	1.23541518e-02	1.29673126e-04
7.66000000e-01	1.25086127e-02	1.30725122e-04
7.67000000e-01	1.23451755e-02	1.29839178e-04
7.68000000e-01	1.25605054e-02	1.30955884e-04
7.69000000e-01	1.23338401e-02	1.29418270e-04
7.70000000e-01	1.23696512e-02	1.29819436e-04
7.71000000e-01	1.23648222e-02	1.29837949e-04
7.72000000e-01	1.23200170e-02	1.33394237e-04
7.73000000e-01	1.23953260e-02	1.38058742e-04
7.74000000e-01	1.23424136e-02	1.40814920e-04
7.75000000e-01	1.23326710e-02	1.42813752e-04
7.76000000e-01	1.21064307e-02	1.42492606e-04
7.77000000e-01	1.22328225e-02	1.46445515e-04
7.78000000e-01	1.23156845e-02	1.48764473e-04
7.79000000e-01	1.23253273e-02	1.50754489e-04
7.80000000e-01	1.22244577e-02	1.51778195e-04
7.81000000e-01	1.22675339e-02	1.53525922e-04
7.82000000e-01	1.22613486e-02	1.55332340e-04
7.83000000e-01	1.22662900e-02	1.56855416e-04
7.84000000e-01	1.21412723e-02	1.56680675e-04
7.85000000e-01	1.21979249e-02	1.59363873e-04
7.86000000e-01	1.21579735e-02	1.60882465e-04
7.87000000e-01	1.20363690e-02	1.61111817e-04
7.88000000e-01	1.21416775e-02	1.63908486e-04
7.89000000e-01	1.22496087e-02	1.66007601e-04
7.90000000e-01	1.19605727e-02	1.65376236e-04
7.91000000e-01	1.21364285e-02	1.68989559e-04
7.92000000e-01	1.21105468e-02	1.69302496e-04
7.93000000e-01	1.21320348e-02	1.71901976e-04
7.94000000e-01	1.17513912e-02	1.68601852e-04
7.95000000e-01	1.20155749e-02	1.74624363e-04
7.96000000e-01	1.21174773e-02	1.76943437e-04
7.97000000e-01	1.21305712e-02	1.79004992e-04
7.98000000e-01	1.20586836e-02	1.80446151e-04
7.99000000e-01	1.21210396e-02	1.81889203e-04
8.00000000e-01	1.19089813e-02	1.81052142e-04
8.01000000e-01	1.18451136e-02	1.82240795e-04
8.02000000e-01	1.18853328e-02	1.84341303e-04
8.03000000e-01	1.20518054e-02	1.89289866e-04
8.04000000e-01	1.19228890e-02	1.88788515e-04
8.05000000e-01	1.18881092e-02	1.90460712e-04
8.06000000e-01	1.19724484e-02	1.94210958e-04
8.07000000e-01	1.18733447e-02	1.94733254e-04
8.08000000e-01	1.20715160e-02	1.99608073e-04
8.09000000e-01	1.16065384e-02	1.94841741e-04
8.10000000e-01	1.18201980e-02	2.01013737e-04
8.11000000e-01	1.18702666e-02	2.03227852e-04
8.12000000e-01	1.20668550e-02	2.08201497e-04
8.13000000e-01	1.20024355e-02	2.11184067e-04
8.14000000e-01	1.18768379e-02	2.09845009e-04
8.15000000e-01	1.18203902e-02	2.13081115e-04
8.16000000e-01	1.16369934e-02	2.12090313e-04
8.17000000e-01	1.17746194e-02	2.16640048e-04
8.18000000e-01	1.19158666e-02	2.22510431e-04
8.19000000e-01	1.16893235e-02	2.20595102e-04
8.20000000e-01	1.17845070e-02	2.24590902e-04
8.21000000e-01	1.18114640e-02	2.29229410e-04
8.22000000e-01	1.17705139e-02	2.30152006e-04
8.23000000e-01	1.17150547e-02	2.33973598e-04
8.24000000e-01	1.20121412e-02	2.42400909e-04
8.25000000e-01	1.16387540e-02	2.36747228e-04
8.26000000e-01	1.14772728e-02	2.38999073e-04
8.27000000e-01	1.14644555e-02	2.41547173e-04
8.28000000e-01	1.17513485e-02	2.50619802e-04
8.29000000e-01	1.15305731e-02	2.50967663e-04
8.30000000e-01	1.17752611e-02	2.58886505e-04
8.31000000e-01	1.17136812e-02	2.62182269e-04
8.32000000e-01	1.14518621e-02	2.62313246e-04
8.33000000e-01	1.17337157e-02	2.72758891e-04
8.34000000e-01	1.17120696e-02	2.75203458e-04
8.35000000e-01	1.13660092e-02	2.71069857e-04
8.36000000e-01	1.17422737e-02	2.86149559e-04
8.37000000e-01	1.14563150e-02	2.84393348e-04
8.38000000e-01	1.11805964e-02	2.84326521e-04
8.39000000e-01	1.15414674e-02	2.99915906e-04
8.40000000e-01	1.15604452e-02	3.05260439e-04
8.41000000e-01	1.15121501e-02	3.13801895e-04
8.42000000e-01	1.14235703e-02	3.17817692e-04
8.43000000e-01	1.14733217e-02	3.30369160e-04
8.44000000e-01	1.12899268e-02	3.28684737e-04
8.45000000e-01	1.14836998e-02	3.44097061e-04
8.46000000e-01	1.15387974e-02	3.52779587e-04
8.47000000e-01	1.13726170e-02	3.61723306e-04
8.48000000e-01	1.14060009e-02	3.72800882e-04
8.49000000e-01	1.13370712e-02	3.82261197e-04
8.50000000e-01	1.11197755e-02	3.87646995e-04
8.51000000e-01	1.13892246e-02	4.11990690e-04
8.52000000e-01	1.13165362e-02	4.24002217e-04
8.53000000e-01	1.09606693e-02	4.30893918e-04
8.54000000e-01	1.12517027e-02	4.66642748e-04
8.55000000e-01	1.12395355e-02	4.79795747e-04
8.56000000e-01	1.11728102e-02	4.84536263e-04
8.57000000e-01	1.10343554e-02	5.01921025e-04
8.58000000e-01	1.12498361e-02	5.16812088e-04
8.59000000e-01	1.13522637e-02	5.42894746e-04
8.60000000e-01	1.05477949e-02	5.25270749e-04
8.61000000e-01	1.10452716e-02	5.68542966e-04
8.62000000e-01	1.10453282e-02	5.96577318e-04
8.63000000e-01	1.11954959e-02	6.17427477e-04
8.64000000e-01	1.13867041e-02	6.63425470e-04
8.65000000e-01	1.10088439e-02	6.53870508e-04
8.66000000e-01	1.13922781e-02	7.25080258e-04
8.67000000e-01	1.12861821e-02	7.37918548e-04
8.68000000e-01	1.16269171e-02	8.10592426e-04
8.69000000e-01	1.05784037e-02	8.22971257e-04
8.70000000e-01	1.05841593e-02	8.95946675e-04
8.71000000e-01	1.00888893e-02	9.50710891e-04
8.72000000e-01	1.16509087e-02	1.20124459e-03
8.73000000e-01	1.10810401e-02	1.35815307e-03
8.74000000e-01	1.24692256e-02	1.96932180e-03
8.75000000e-01	9.79768794e-03	3.27264015e-03
