% Filename : SEC3_00043_00007.h5
% Date & Time : 30-Oct-2025 18:02:28
% X-ray Energy (keV) : 13.30001
% Exposure Time (s) : 0.500
% Beam Center : 1461.24000, 208.98300
% Sample to Detector Distance (SDD) (mm) : 1990.750
% Detector Pixel Size (mm) : 0.075
% Photodiode Value : 141499.000
% I0 of Sample : 0
% I0 of Standard : 1
% 
% q(A^-1)   I(q)    I(q)_SE
0.00000000e+00	6.38403505e-03	3.37810964e-03
2.50000000e-04	0.00000000e+00	0.00000000e+00
5.00000000e-04	0.00000000e+00	0.00000000e+00
7.50000000e-04	0.00000000e+00	0.00000000e+00
1.00000000e-03	0.00000000e+00	0.00000000e+00
1.25000000e-03	0.00000000e+00	0.00000000e+00
1.50000000e-03	0.00000000e+00	0.00000000e+00
1.75000000e-03	0.00000000e+00	0.00000000e+00
2.00000000e-03	0.00000000e+00	0.00000000e+00
2.25000000e-03	0.00000000e+00	0.00000000e+00
2.50000000e-03	0.00000000e+00	0.00000000e+00
2.75000000e-03	0.00000000e+00	0.00000000e+00
3.00000000e-03	0.00000000e+00	0.00000000e+00
3.25000000e-03	3.22534600e+02	1.90134568e+02
3.50000000e-03	2.55684456e+02	6.90318176e+01
3.75000000e-03	1.77443975e+02	3.91826984e+01
4.00000000e-03	1.27094662e+02	2.51883668e+01
4.25000000e-03	8.28027793e+01	1.38258417e+01
4.50000000e-03	7.48038435e+01	1.04442046e+01
4.75000000e-03	6.75881436e+01	8.61039480e+00
5.00000000e-03	5.52724393e+01	6.80559130e+00
5.25000000e-03	4.50759955e+01	5.42094250e+00
5.50000000e-03	3.80635214e+01	4.40249399e+00
5.75000000e-03	3.34872495e+01	3.82128966e+00
6.00000000e-03	2.71405963e+01	3.00569952e+00
6.25000000e-03	2.35382468e+01	2.58218577e+00
6.50000000e-03	1.99229330e+01	2.14232855e+00
6.75000000e-03	1.75107413e+01	1.83569458e+00
7.00000000e-03	1.52532803e+01	1.53673134e+00
7.25000000e-03	1.30122714e+01	1.30809792e+00
7.50000000e-03	1.15292132e+01	1.13518473e+00
7.75000000e-03	1.03016151e+01	9.82676487e-01
8.00000000e-03	9.16468077e+00	8.62919959e-01
8.25000000e-03	8.16421748e+00	7.33900211e-01
8.50000000e-03	7.13842808e+00	6.34131533e-01
8.75000000e-03	6.62040686e+00	5.78618286e-01
9.00000000e-03	5.89117862e+00	5.12802153e-01
9.25000000e-03	5.20002988e+00	4.38668970e-01
9.50000000e-03	4.73806634e+00	3.90611360e-01
9.75000000e-03	4.22197048e+00	3.42554363e-01
1.00000000e-02	3.79320210e+00	3.01370018e-01
1.02500000e-02	3.41625828e+00	2.74092813e-01
1.05000000e-02	3.18625448e+00	2.44111384e-01
1.07500000e-02	2.88638270e+00	2.20026538e-01
1.10000000e-02	2.63467850e+00	1.93589642e-01
1.12500000e-02	2.41757321e+00	1.82438579e-01
1.15000000e-02	2.25239258e+00	1.66422230e-01
1.17500000e-02	2.03572092e+00	1.46371400e-01
1.20000000e-02	1.92081386e+00	1.37331900e-01
1.22500000e-02	1.76890547e+00	1.23789968e-01
1.25000000e-02	1.64195383e+00	1.14931026e-01
1.27500000e-02	1.53079603e+00	1.05887376e-01
1.30000000e-02	1.44247725e+00	9.79331997e-02
1.32500000e-02	1.33394682e+00	8.76955012e-02
1.35000000e-02	1.25704091e+00	8.23501553e-02
1.37500000e-02	1.16348559e+00	7.62934744e-02
1.40000000e-02	1.08411385e+00	6.99136208e-02
1.42500000e-02	1.02666501e+00	6.52336758e-02
1.45000000e-02	9.62061167e-01	6.06692503e-02
1.47500000e-02	8.95844568e-01	5.60454787e-02
1.50000000e-02	8.38881058e-01	5.21185997e-02
1.52500000e-02	7.96020001e-01	4.88442596e-02
1.55000000e-02	7.61654126e-01	4.55315537e-02
1.57500000e-02	6.89910490e-01	4.09720902e-02
1.60000000e-02	6.51534117e-01	3.83584870e-02
1.62500000e-02	6.23096358e-01	3.68629087e-02
1.65000000e-02	5.80072814e-01	3.34553943e-02
1.67500000e-02	5.54264802e-01	3.16039873e-02
1.70000000e-02	5.17700673e-01	2.92533088e-02
1.72500000e-02	5.00156366e-01	2.80103408e-02
1.75000000e-02	4.70158251e-01	2.63302490e-02
1.77500000e-02	4.37993441e-01	2.40531914e-02
1.80000000e-02	4.22861720e-01	2.33474767e-02
1.82500000e-02	4.04667486e-01	2.15801817e-02
1.85000000e-02	3.79259571e-01	2.08245502e-02
1.87500000e-02	3.70176405e-01	1.97347498e-02
1.90000000e-02	3.48467319e-01	1.85197743e-02
1.92500000e-02	3.36526282e-01	1.75399184e-02
1.95000000e-02	3.14453100e-01	1.63418276e-02
1.97500000e-02	3.03524858e-01	1.58432792e-02
2.00000000e-02	2.95167360e-01	1.51240070e-02
2.02500000e-02	2.77245168e-01	1.42120960e-02
2.05000000e-02	2.66180915e-01	1.32946852e-02
2.07500000e-02	2.58819051e-01	1.29882780e-02
2.10000000e-02	2.51049205e-01	1.25796531e-02
2.12500000e-02	2.43546708e-01	1.22191293e-02
2.15000000e-02	2.33851069e-01	1.15961307e-02
2.17500000e-02	2.24658979e-01	1.12062784e-02
2.20000000e-02	2.21997101e-01	1.10570724e-02
2.22500000e-02	2.08112247e-01	1.03248865e-02
2.25000000e-02	2.02458195e-01	1.01834341e-02
2.27500000e-02	1.92982259e-01	9.50307737e-03
2.30000000e-02	1.91796200e-01	9.49825789e-03
2.32500000e-02	1.83852186e-01	9.03732648e-03
2.35000000e-02	1.80920424e-01	9.02472380e-03
2.37500000e-02	1.72780654e-01	8.56562919e-03
2.40000000e-02	1.66146575e-01	8.28134413e-03
2.42500000e-02	1.60584148e-01	7.88578011e-03
2.45000000e-02	1.55560866e-01	7.67064748e-03
2.47500000e-02	1.52704605e-01	7.48805692e-03
2.50000000e-02	1.48024106e-01	7.19553726e-03
2.52500000e-02	1.39067920e-01	6.81108676e-03
2.55000000e-02	1.42468890e-01	6.80926362e-03
2.57500000e-02	1.35973577e-01	6.52569415e-03
2.60000000e-02	1.29431850e-01	6.18811814e-03
2.62500000e-02	1.26463808e-01	6.14816782e-03
2.65000000e-02	1.21370250e-01	5.78615205e-03
2.67500000e-02	1.21709579e-01	5.76877711e-03
2.70000000e-02	1.15167272e-01	5.50306395e-03
2.72500000e-02	1.12231665e-01	5.28847773e-03
2.75000000e-02	1.09614616e-01	5.23921700e-03
2.77500000e-02	1.06533240e-01	5.10499618e-03
2.80000000e-02	1.03817577e-01	4.83278801e-03
2.82500000e-02	1.03057449e-01	4.80689558e-03
2.85000000e-02	9.89757170e-02	4.63508520e-03
2.87500000e-02	9.95766230e-02	4.66049911e-03
2.90000000e-02	9.34994013e-02	4.39909435e-03
2.92500000e-02	9.30923762e-02	4.23744861e-03
2.95000000e-02	9.10599058e-02	4.22838114e-03
2.97500000e-02	8.88860040e-02	4.05901735e-03
3.00000000e-02	8.54940675e-02	3.93135824e-03
3.02500000e-02	8.84579362e-02	4.07288376e-03
3.05000000e-02	8.49883092e-02	3.82425790e-03
3.07500000e-02	7.97793582e-02	3.65389034e-03
3.10000000e-02	8.08753622e-02	3.66443451e-03
3.12500000e-02	7.88317531e-02	3.61885090e-03
3.15000000e-02	7.58238289e-02	3.44866127e-03
3.17500000e-02	7.49001638e-02	3.33713137e-03
3.20000000e-02	7.40328689e-02	3.35900428e-03
3.22500000e-02	7.23216629e-02	3.27244405e-03
3.25000000e-02	7.05573064e-02	3.20831943e-03
3.27500000e-02	6.96053749e-02	3.11136122e-03
3.30000000e-02	6.68954302e-02	2.96186690e-03
3.32500000e-02	6.60543043e-02	2.93491739e-03
3.35000000e-02	6.60985813e-02	2.96909359e-03
3.37500000e-02	6.42649183e-02	2.86066100e-03
3.40000000e-02	6.46018729e-02	2.86657957e-03
3.42500000e-02	6.30804849e-02	2.76283915e-03
3.45000000e-02	6.07862503e-02	2.70305349e-03
3.47500000e-02	6.01440454e-02	2.66103586e-03
3.50000000e-02	5.75423048e-02	2.53389935e-03
3.52500000e-02	5.84439992e-02	2.56458957e-03
3.55000000e-02	5.70246293e-02	2.46315102e-03
3.57500000e-02	5.53293306e-02	2.43507442e-03
3.60000000e-02	5.46980971e-02	2.39584228e-03
3.62500000e-02	5.32392665e-02	2.32518533e-03
3.65000000e-02	5.43266975e-02	2.37059579e-03
3.67500000e-02	5.24431268e-02	2.27787376e-03
3.70000000e-02	5.22796452e-02	2.27686004e-03
3.72500000e-02	5.11646024e-02	2.19658299e-03
3.75000000e-02	4.90349245e-02	2.14390888e-03
3.77500000e-02	4.85150698e-02	2.08278582e-03
3.80000000e-02	5.02417302e-02	2.15549493e-03
3.82500000e-02	4.79062433e-02	2.04459261e-03
3.85000000e-02	4.73044952e-02	2.03666508e-03
3.87500000e-02	4.67095001e-02	1.98073114e-03
3.90000000e-02	4.65755677e-02	1.99052751e-03
3.92500000e-02	4.55714359e-02	1.92198157e-03
3.95000000e-02	4.59387849e-02	1.94837688e-03
3.97500000e-02	4.52746897e-02	1.93481232e-03
4.00000000e-02	4.52170258e-02	1.91951148e-03
4.02500000e-02	4.31628943e-02	1.82548162e-03
4.05000000e-02	4.34487068e-02	1.82894558e-03
4.07500000e-02	4.36584343e-02	1.81512994e-03
4.10000000e-02	4.25815913e-02	1.80276362e-03
4.12500000e-02	4.18940296e-02	1.75763068e-03
4.15000000e-02	4.14954999e-02	1.72531577e-03
4.17500000e-02	4.16450619e-02	1.73600527e-03
4.20000000e-02	3.98872975e-02	1.65175924e-03
4.22500000e-02	3.93870957e-02	1.62529950e-03
4.25000000e-02	4.00648169e-02	1.65890177e-03
4.27500000e-02	3.98139147e-02	1.63947618e-03
4.30000000e-02	3.86839318e-02	1.58640541e-03
4.32500000e-02	3.90770280e-02	1.60869548e-03
4.35000000e-02	3.76105574e-02	1.55726785e-03
4.37500000e-02	3.87988340e-02	1.57285637e-03
4.40000000e-02	3.71691487e-02	1.52046596e-03
4.42500000e-02	3.76937307e-02	1.54378256e-03
4.45000000e-02	3.74026928e-02	1.52430624e-03
4.47500000e-02	3.75681546e-02	1.51789247e-03
4.50000000e-02	3.62397655e-02	1.46824845e-03
4.52500000e-02	3.58986552e-02	1.44681691e-03
4.55000000e-02	3.55451290e-02	1.43111747e-03
4.57500000e-02	3.42221371e-02	1.37467083e-03
4.60000000e-02	3.49121554e-02	1.41618850e-03
4.62500000e-02	3.60894620e-02	1.45677149e-03
4.65000000e-02	3.44878722e-02	1.37346714e-03
4.67500000e-02	3.40673147e-02	1.34958587e-03
4.70000000e-02	3.48702935e-02	1.38003051e-03
4.72500000e-02	3.36695868e-02	1.34310153e-03
4.75000000e-02	3.44395926e-02	1.37763533e-03
4.77500000e-02	3.31106991e-02	1.30130589e-03
4.80000000e-02	3.29089463e-02	1.30644888e-03
4.82500000e-02	3.18996825e-02	1.25703127e-03
4.85000000e-02	3.27122149e-02	1.31109992e-03
4.87500000e-02	3.31131297e-02	1.30620795e-03
4.90000000e-02	3.17911476e-02	1.24926621e-03
4.92500000e-02	3.12769427e-02	1.22209313e-03
4.95000000e-02	3.21978063e-02	1.26528790e-03
4.97500000e-02	3.13575643e-02	1.23571081e-03
5.00000000e-02	3.14702153e-02	1.23840900e-03
5.02500000e-02	3.08136136e-02	1.19803702e-03
5.05000000e-02	3.11927013e-02	1.20339818e-03
5.07500000e-02	3.12140626e-02	1.21853738e-03
5.10000000e-02	3.09054687e-02	1.20477107e-03
5.12500000e-02	3.17105585e-02	1.23374926e-03
5.15000000e-02	3.03394462e-02	1.17672118e-03
5.17500000e-02	3.01377850e-02	1.16866118e-03
5.20000000e-02	3.03775652e-02	1.16911940e-03
5.22500000e-02	2.98840816e-02	1.16118539e-03
5.25000000e-02	2.96117874e-02	1.12995143e-03
5.27500000e-02	2.95888645e-02	1.13622676e-03
5.30000000e-02	2.95658247e-02	1.13728315e-03
5.32500000e-02	2.91207554e-02	1.11787891e-03
5.35000000e-02	3.04510369e-02	1.16554350e-03
5.37500000e-02	2.85540522e-02	1.08530693e-03
5.40000000e-02	2.90510352e-02	1.10307693e-03
5.42500000e-02	2.87941204e-02	1.08648342e-03
5.45000000e-02	2.96722699e-02	1.12739904e-03
5.47500000e-02	2.84774862e-02	1.07683351e-03
5.50000000e-02	2.85789998e-02	1.08023001e-03
5.52500000e-02	2.85691963e-02	1.06851623e-03
5.55000000e-02	2.85844453e-02	1.07332142e-03
5.57500000e-02	2.87409390e-02	1.08002631e-03
5.60000000e-02	2.79226857e-02	1.04998906e-03
5.62500000e-02	2.74565894e-02	1.04231298e-03
5.65000000e-02	2.79750649e-02	1.04028782e-03
5.67500000e-02	2.79181409e-02	1.03975627e-03
5.70000000e-02	2.84422564e-02	1.05594353e-03
5.72500000e-02	2.65836631e-02	9.89191576e-04
5.75000000e-02	2.79970946e-02	1.05289851e-03
5.77500000e-02	2.69744565e-02	9.96923849e-04
5.80000000e-02	2.66968852e-02	9.95247965e-04
5.82500000e-02	2.72745882e-02	1.00341518e-03
5.85000000e-02	2.68311337e-02	9.94656579e-04
5.87500000e-02	2.61577725e-02	9.72074465e-04
5.90000000e-02	2.69438987e-02	9.96664332e-04
5.92500000e-02	2.78012876e-02	1.01561882e-03
5.95000000e-02	2.72855099e-02	9.95218390e-04
5.97500000e-02	2.65549723e-02	9.83874767e-04
6.00000000e-02	2.59416396e-02	9.52544946e-04
6.02500000e-02	2.60647015e-02	9.48671866e-04
6.05000000e-02	2.63027374e-02	9.54946925e-04
6.07500000e-02	2.62187270e-02	9.60398176e-04
6.10000000e-02	2.58949008e-02	9.52398574e-04
6.12500000e-02	2.59660668e-02	9.41347063e-04
6.15000000e-02	2.50844407e-02	9.07141328e-04
6.17500000e-02	2.60828765e-02	9.41928437e-04
6.20000000e-02	2.57081954e-02	9.34779470e-04
6.22500000e-02	2.58354913e-02	9.31842275e-04
6.25000000e-02	2.54932170e-02	9.16279648e-04
6.27500000e-02	2.60908741e-02	9.35500155e-04
6.30000000e-02	2.49311719e-02	8.99940134e-04
6.32500000e-02	2.50165970e-02	8.96420391e-04
6.35000000e-02	2.56821260e-02	9.24461691e-04
6.37500000e-02	2.57051809e-02	9.23240782e-04
6.40000000e-02	2.51429462e-02	9.02758903e-04
6.42500000e-02	2.54768786e-02	9.07907069e-04
6.45000000e-02	2.55674617e-02	9.09265953e-04
6.47500000e-02	2.52355248e-02	8.94866082e-04
6.50000000e-02	2.48575100e-02	8.85964230e-04
6.52500000e-02	2.52665406e-02	8.93677561e-04
6.55000000e-02	2.52820818e-02	8.97306811e-04
6.57500000e-02	2.52864764e-02	8.89135762e-04
6.60000000e-02	2.42371909e-02	8.56624899e-04
6.62500000e-02	2.50493028e-02	8.80458828e-04
6.65000000e-02	2.49858180e-02	8.75284859e-04
6.67500000e-02	2.54264148e-02	8.85541821e-04
6.70000000e-02	2.43365835e-02	8.57782588e-04
6.72500000e-02	2.42688462e-02	8.50794666e-04
6.75000000e-02	2.43485316e-02	8.50252330e-04
6.77500000e-02	2.44700954e-02	8.50852891e-04
6.80000000e-02	2.45818174e-02	8.65922141e-04
6.82500000e-02	2.47545699e-02	8.60272258e-04
6.85000000e-02	2.40369547e-02	8.42680789e-04
6.87500000e-02	2.43591176e-02	8.49975918e-04
6.90000000e-02	2.42242989e-02	8.38689460e-04
6.92500000e-02	2.42151434e-02	8.44365795e-04
6.95000000e-02	2.41742308e-02	8.38831695e-04
6.97500000e-02	2.45149101e-02	8.50592757e-04
7.00000000e-02	2.46316469e-02	8.44845266e-04
7.02500000e-02	2.40893585e-02	8.21954576e-04
7.05000000e-02	2.43686423e-02	8.33089665e-04
7.07500000e-02	2.38304032e-02	8.22711898e-04
7.10000000e-02	2.37730252e-02	8.09302506e-04
7.12500000e-02	2.42878006e-02	8.33029500e-04
7.15000000e-02	2.36204663e-02	8.08364776e-04
7.17500000e-02	2.41907390e-02	8.26791133e-04
7.20000000e-02	2.33941086e-02	8.00379823e-04
7.22500000e-02	2.30827492e-02	7.86901044e-04
7.25000000e-02	2.37571676e-02	8.10896579e-04
7.27500000e-02	2.34495054e-02	7.98977391e-04
7.30000000e-02	2.33887172e-02	7.95683598e-04
7.32500000e-02	2.41761779e-02	8.15466994e-04
7.35000000e-02	2.40042911e-02	8.12872498e-04
7.37500000e-02	2.35831967e-02	7.95090815e-04
7.40000000e-02	2.38866182e-02	8.09533541e-04
7.42500000e-02	2.32263603e-02	7.88188791e-04
7.45000000e-02	2.28397203e-02	7.74898561e-04
7.47500000e-02	2.30698316e-02	7.72744059e-04
7.50000000e-02	2.33065078e-02	7.82949370e-04
7.52500000e-02	2.37994794e-02	7.93893108e-04
7.55000000e-02	2.32116228e-02	7.73488452e-04
7.57500000e-02	2.33305823e-02	7.76836834e-04
7.60000000e-02	2.31308358e-02	7.76164867e-04
7.62500000e-02	2.35162787e-02	7.86267454e-04
7.65000000e-02	2.27839087e-02	7.59404127e-04
7.67500000e-02	2.32844434e-02	7.77409612e-04
7.70000000e-02	2.25632276e-02	7.49668934e-04
7.72500000e-02	2.27097075e-02	7.72123056e-04
7.75000000e-02	2.24369011e-02	7.75880702e-04
7.77500000e-02	2.29520913e-02	7.87454345e-04
7.80000000e-02	2.32359870e-02	7.98688005e-04
7.82500000e-02	2.29019688e-02	7.95423232e-04
7.85000000e-02	2.33505611e-02	8.11864536e-04
7.87500000e-02	2.22652788e-02	7.79930459e-04
7.90000000e-02	2.27243706e-02	7.95729195e-04
7.92500000e-02	2.33969237e-02	8.19881295e-04
7.95000000e-02	2.29980709e-02	8.07986165e-04
7.97500000e-02	2.30104728e-02	8.19357296e-04
8.00000000e-02	2.26323182e-02	7.95258551e-04
8.02500000e-02	2.34276451e-02	8.26680226e-04
8.05000000e-02	2.28886835e-02	8.09491816e-04
8.07500000e-02	2.23510235e-02	8.03169685e-04
8.10000000e-02	2.27958467e-02	8.15815377e-04
8.12500000e-02	2.33873954e-02	8.34709268e-04
8.15000000e-02	2.28283925e-02	8.11386263e-04
8.17500000e-02	2.38620628e-02	8.59747463e-04
8.20000000e-02	2.24586524e-02	8.11939282e-04
8.22500000e-02	2.27020828e-02	8.17408133e-04
8.25000000e-02	2.33474578e-02	8.36224043e-04
8.27500000e-02	2.22822440e-02	8.00787171e-04
8.30000000e-02	2.27907948e-02	8.25438566e-04
8.32500000e-02	2.31431929e-02	8.40301171e-04
8.35000000e-02	2.19950670e-02	8.12426883e-04
8.37500000e-02	2.28630426e-02	8.24011910e-04
8.40000000e-02	2.26447190e-02	8.23427571e-04
8.42500000e-02	2.18702067e-02	7.97115396e-04
8.45000000e-02	2.23789571e-02	8.18526532e-04
8.47500000e-02	2.18252047e-02	7.99720617e-04
8.50000000e-02	2.20697466e-02	8.06639030e-04
8.52500000e-02	2.27054440e-02	8.29764770e-04
8.55000000e-02	2.33898966e-02	8.48296416e-04
8.57500000e-02	2.25159517e-02	8.25907939e-04
8.60000000e-02	2.21753920e-02	8.14205304e-04
8.62500000e-02	2.28858642e-02	8.37625488e-04
8.65000000e-02	2.20218006e-02	8.10851045e-04
8.67500000e-02	2.20530377e-02	8.06664292e-04
8.70000000e-02	2.19973012e-02	7.93925561e-04
8.72500000e-02	2.22897092e-02	7.88049339e-04
8.75000000e-02	2.27063955e-02	8.01393161e-04
8.77500000e-02	2.19267576e-02	7.58851053e-04
8.80000000e-02	2.22341527e-02	7.73629235e-04
8.82500000e-02	2.23413272e-02	7.78315415e-04
8.85000000e-02	2.22291652e-02	7.72162423e-04
8.87500000e-02	2.20033495e-02	7.51402202e-04
8.90000000e-02	2.20987839e-02	7.57480740e-04
8.92500000e-02	2.28733460e-02	7.76639474e-04
8.95000000e-02	2.24665124e-02	7.63683691e-04
8.97500000e-02	2.19021485e-02	7.41727717e-04
9.00000000e-02	2.20755208e-02	7.40906493e-04
9.02500000e-02	2.18691612e-02	7.38515825e-04
9.05000000e-02	2.20651456e-02	7.44014861e-04
9.07500000e-02	2.23941790e-02	7.51507989e-04
9.10000000e-02	2.22662016e-02	7.44698006e-04
9.12500000e-02	2.18705094e-02	7.28218716e-04
9.15000000e-02	2.17316960e-02	7.18806566e-04
9.17500000e-02	2.22033143e-02	7.40230125e-04
9.20000000e-02	2.20751942e-02	7.39051764e-04
9.22500000e-02	2.22230663e-02	7.28679991e-04
9.25000000e-02	2.22725753e-02	7.29740066e-04
9.27500000e-02	2.14393418e-02	7.05317611e-04
9.30000000e-02	2.13978058e-02	7.01196031e-04
9.32500000e-02	2.20951451e-02	7.25839189e-04
9.35000000e-02	2.18009589e-02	7.06119298e-04
9.37500000e-02	2.14483932e-02	6.99749125e-04
9.40000000e-02	2.20219000e-02	7.14021348e-04
9.42500000e-02	2.17870964e-02	7.03235591e-04
9.45000000e-02	2.15488280e-02	7.00447881e-04
9.47500000e-02	2.22491856e-02	7.18989450e-04
9.50000000e-02	2.19975678e-02	7.10240630e-04
9.52500000e-02	2.20782985e-02	7.10988302e-04
9.55000000e-02	2.16289330e-02	6.98144087e-04
9.57500000e-02	2.12109183e-02	6.91835715e-04
9.60000000e-02	2.15954831e-02	6.94222974e-04
9.62500000e-02	2.13921075e-02	6.83650370e-04
9.65000000e-02	2.13210713e-02	6.76869612e-04
9.67500000e-02	2.17392645e-02	6.90053761e-04
9.70000000e-02	2.20657181e-02	7.02704639e-04
9.72500000e-02	2.17646125e-02	6.98917883e-04
9.75000000e-02	2.12153271e-02	6.78071974e-04
9.77500000e-02	2.20231142e-02	6.93232694e-04
9.80000000e-02	2.22084089e-02	7.04366831e-04
9.82500000e-02	2.14384121e-02	6.81708506e-04
9.85000000e-02	2.15283627e-02	6.81948251e-04
9.87500000e-02	2.13198277e-02	6.74295551e-04
9.90000000e-02	2.15166866e-02	6.77017667e-04
9.92500000e-02	2.12337113e-02	6.69763687e-04
9.95000000e-02	2.17467276e-02	6.78321856e-04
9.97500000e-02	2.18377278e-02	6.83358455e-04
1.00000000e-01	2.14493778e-02	5.47298051e-04
1.00500000e-01	2.14289090e-02	4.76012014e-04
1.01000000e-01	2.13231252e-02	4.69709148e-04
1.01500000e-01	2.13677799e-02	4.70384356e-04
1.02000000e-01	2.09270613e-02	4.57544414e-04
1.02500000e-01	2.15431291e-02	4.69132074e-04
1.03000000e-01	2.18133313e-02	4.72962081e-04
1.03500000e-01	2.13096713e-02	4.64017772e-04
1.04000000e-01	2.13264293e-02	4.63067037e-04
1.04500000e-01	2.11347661e-02	4.58545963e-04
1.05000000e-01	2.09696510e-02	4.52465961e-04
1.05500000e-01	2.11269824e-02	4.54672504e-04
1.06000000e-01	2.11439411e-02	4.52990119e-04
1.06500000e-01	2.15434666e-02	4.59038633e-04
1.07000000e-01	2.11392228e-02	4.56684940e-04
1.07500000e-01	2.09459184e-02	4.59796252e-04
1.08000000e-01	2.13723029e-02	4.75943934e-04
1.08500000e-01	2.10829432e-02	4.73672506e-04
1.09000000e-01	2.11039958e-02	4.73826110e-04
1.09500000e-01	2.10120283e-02	4.76601457e-04
1.10000000e-01	2.10566595e-02	4.73251780e-04
1.10500000e-01	2.10979218e-02	4.62249032e-04
1.11000000e-01	2.13747750e-02	4.60848508e-04
1.11500000e-01	2.11262277e-02	4.52119083e-04
1.12000000e-01	2.11680007e-02	4.49944028e-04
1.12500000e-01	2.07573310e-02	4.38946080e-04
1.13000000e-01	2.10753196e-02	4.43996324e-04
1.13500000e-01	2.12653450e-02	4.46404487e-04
1.14000000e-01	2.10341640e-02	4.39309631e-04
1.14500000e-01	2.11435349e-02	4.41177908e-04
1.15000000e-01	2.09728393e-02	4.33668627e-04
1.15500000e-01	2.12322703e-02	4.40216755e-04
1.16000000e-01	2.10974487e-02	4.36864006e-04
1.16500000e-01	2.11543030e-02	4.37427605e-04
1.17000000e-01	2.10713384e-02	4.33005988e-04
1.17500000e-01	2.10489411e-02	4.32976005e-04
1.18000000e-01	2.08181960e-02	4.28138117e-04
1.18500000e-01	2.05834672e-02	4.20441596e-04
1.19000000e-01	2.09543766e-02	4.26845778e-04
1.19500000e-01	2.07314977e-02	4.21501048e-04
1.20000000e-01	2.08203884e-02	4.19667047e-04
1.20500000e-01	2.08016878e-02	4.20452339e-04
1.21000000e-01	2.07165214e-02	4.18573318e-04
1.21500000e-01	2.10514029e-02	4.24437419e-04
1.22000000e-01	2.08716799e-02	4.19097164e-04
1.22500000e-01	2.07458333e-02	4.17232607e-04
1.23000000e-01	2.04993025e-02	4.11561362e-04
1.23500000e-01	2.05592347e-02	4.10919834e-04
1.24000000e-01	2.09734133e-02	4.18726156e-04
1.24500000e-01	2.08675984e-02	4.12634529e-04
1.25000000e-01	2.05724466e-02	4.08587359e-04
1.25500000e-01	2.08000972e-02	4.10734018e-04
1.26000000e-01	2.06345781e-02	4.06738574e-04
1.26500000e-01	2.11063982e-02	4.15429886e-04
1.27000000e-01	2.09748994e-02	4.12412976e-04
1.27500000e-01	2.10459978e-02	4.11454011e-04
1.28000000e-01	2.08136320e-02	4.10943259e-04
1.28500000e-01	2.07174943e-02	4.05283491e-04
1.29000000e-01	2.06555223e-02	4.03656240e-04
1.29500000e-01	2.07956196e-02	4.05856882e-04
1.30000000e-01	2.09900760e-02	4.09061573e-04
1.30500000e-01	2.06202291e-02	3.99419845e-04
1.31000000e-01	2.04968962e-02	3.97824689e-04
1.31500000e-01	2.08003867e-02	4.00884247e-04
1.32000000e-01	2.05842907e-02	3.99180535e-04
1.32500000e-01	2.05872996e-02	3.95586261e-04
1.33000000e-01	2.05352314e-02	3.94956911e-04
1.33500000e-01	2.04333363e-02	3.90255929e-04
1.34000000e-01	2.07350116e-02	3.96395838e-04
1.34500000e-01	2.07623384e-02	3.93063430e-04
1.35000000e-01	2.03665638e-02	3.86314930e-04
1.35500000e-01	2.08904893e-02	3.96096674e-04
1.36000000e-01	2.03686092e-02	3.83549674e-04
1.36500000e-01	2.05849389e-02	3.89884998e-04
1.37000000e-01	2.04465096e-02	3.84244120e-04
1.37500000e-01	2.06091284e-02	3.88435623e-04
1.38000000e-01	2.06456377e-02	3.87639105e-04
1.38500000e-01	2.05189688e-02	3.86846067e-04
1.39000000e-01	2.02514989e-02	3.80105767e-04
1.39500000e-01	2.02660634e-02	3.80791397e-04
1.40000000e-01	2.05040075e-02	3.85227956e-04
1.40500000e-01	2.04749094e-02	3.84077529e-04
1.41000000e-01	2.03017996e-02	3.79026738e-04
1.41500000e-01	2.02637216e-02	3.78925601e-04
1.42000000e-01	2.02044803e-02	3.74135332e-04
1.42500000e-01	1.99688746e-02	3.73278246e-04
1.43000000e-01	2.01111180e-02	3.75090110e-04
1.43500000e-01	2.02892850e-02	3.76537489e-04
1.44000000e-01	2.05500953e-02	3.80857965e-04
1.44500000e-01	2.00415312e-02	3.69877111e-04
1.45000000e-01	1.99795365e-02	3.69642229e-04
1.45500000e-01	2.06024707e-02	3.80066440e-04
1.46000000e-01	2.02727864e-02	3.73487030e-04
1.46500000e-01	2.02095906e-02	3.70884401e-04
1.47000000e-01	2.04121732e-02	3.75081179e-04
1.47500000e-01	2.03963632e-02	3.73794475e-04
1.48000000e-01	2.03530045e-02	3.70496311e-04
1.48500000e-01	2.00677859e-02	3.65999312e-04
1.49000000e-01	2.01804555e-02	3.66753490e-04
1.49500000e-01	2.01552725e-02	3.65545521e-04
1.50000000e-01	2.02850001e-02	3.66809660e-04
1.50500000e-01	2.01186501e-02	3.65593567e-04
1.51000000e-01	2.04077019e-02	3.66189261e-04
1.51500000e-01	2.00773339e-02	3.61813054e-04
1.52000000e-01	1.99319090e-02	3.58408743e-04
1.52500000e-01	2.00588823e-02	3.61331926e-04
1.53000000e-01	2.02635379e-02	3.63784750e-04
1.53500000e-01	1.96427808e-02	3.51806727e-04
1.54000000e-01	1.99463558e-02	3.57121769e-04
1.54500000e-01	1.99761134e-02	3.65654870e-04
1.55000000e-01	2.01688370e-02	3.70260388e-04
1.55500000e-01	1.99655823e-02	3.70582455e-04
1.56000000e-01	1.98186122e-02	3.70427169e-04
1.56500000e-01	1.98565636e-02	3.71769754e-04
1.57000000e-01	2.00291604e-02	3.74310289e-04
1.57500000e-01	2.01616815e-02	3.70124322e-04
1.58000000e-01	1.99695935e-02	3.60929634e-04
1.58500000e-01	1.98015545e-02	3.56679525e-04
1.59000000e-01	1.99664965e-02	3.57232204e-04
1.59500000e-01	1.98266337e-02	3.53131371e-04
1.60000000e-01	1.96359224e-02	3.50446080e-04
1.60500000e-01	1.96604903e-02	3.48584604e-04
1.61000000e-01	1.98808552e-02	3.52932170e-04
1.61500000e-01	1.95533003e-02	3.45033876e-04
1.62000000e-01	1.98732016e-02	3.51296199e-04
1.62500000e-01	1.98955474e-02	3.51419001e-04
1.63000000e-01	1.97097277e-02	3.45807456e-04
1.63500000e-01	1.96600517e-02	3.47945309e-04
1.64000000e-01	1.98698570e-02	3.49130741e-04
1.64500000e-01	1.95387544e-02	3.43589272e-04
1.65000000e-01	1.98117940e-02	3.45666711e-04
1.65500000e-01	1.96069999e-02	3.42289706e-04
1.66000000e-01	1.93948168e-02	3.39157588e-04
1.66500000e-01	1.96013404e-02	3.41463719e-04
1.67000000e-01	1.95561342e-02	3.39788497e-04
1.67500000e-01	1.96408788e-02	3.41019392e-04
1.68000000e-01	1.93957142e-02	3.36906714e-04
1.68500000e-01	1.96684619e-02	3.38521002e-04
1.69000000e-01	1.94196824e-02	3.34878082e-04
1.69500000e-01	1.94005309e-02	3.34127837e-04
1.70000000e-01	1.97804182e-02	3.40672078e-04
1.70500000e-01	1.98760298e-02	3.41468143e-04
1.71000000e-01	1.94228237e-02	3.32605832e-04
1.71500000e-01	1.93504641e-02	3.31706923e-04
1.72000000e-01	1.94189852e-02	3.32100878e-04
1.72500000e-01	1.94306921e-02	3.32159465e-04
1.73000000e-01	1.95234638e-02	3.32928604e-04
1.73500000e-01	1.95296492e-02	3.31681416e-04
1.74000000e-01	1.93070412e-02	3.28138166e-04
1.74500000e-01	1.93390512e-02	3.25956418e-04
1.75000000e-01	1.93532056e-02	3.26346002e-04
1.75500000e-01	1.93668021e-02	3.25550941e-04
1.76000000e-01	1.94189975e-02	3.27129054e-04
1.76500000e-01	1.92497183e-02	3.24447788e-04
1.77000000e-01	1.93003388e-02	3.23464911e-04
1.77500000e-01	1.95876417e-02	3.29007999e-04
1.78000000e-01	1.92456837e-02	3.23898815e-04
1.78500000e-01	1.90779852e-02	3.19419200e-04
1.79000000e-01	1.93295815e-02	3.22349409e-04
1.79500000e-01	1.92699808e-02	3.22669674e-04
1.80000000e-01	1.94162143e-02	3.25444615e-04
1.80500000e-01	1.95194466e-02	3.27609699e-04
1.81000000e-01	1.93060783e-02	3.23160822e-04
1.81500000e-01	1.93168190e-02	3.21710053e-04
1.82000000e-01	1.91493193e-02	3.20064786e-04
1.82500000e-01	1.93600795e-02	3.20753230e-04
1.83000000e-01	1.90336323e-02	3.16744604e-04
1.83500000e-01	1.90952165e-02	3.16464421e-04
1.84000000e-01	1.93145400e-02	3.18905885e-04
1.84500000e-01	1.92965070e-02	3.18549907e-04
1.85000000e-01	1.94753521e-02	3.20957679e-04
1.85500000e-01	1.91830328e-02	3.16900314e-04
1.86000000e-01	1.92164713e-02	3.16777443e-04
1.86500000e-01	1.90772183e-02	3.14670983e-04
1.87000000e-01	1.92512244e-02	3.17075471e-04
1.87500000e-01	1.90029741e-02	3.11015993e-04
1.88000000e-01	1.90931998e-02	3.12259444e-04
1.88500000e-01	1.89202602e-02	3.10239418e-04
1.89000000e-01	1.91866628e-02	3.11417668e-04
1.89500000e-01	1.90253379e-02	3.10990965e-04
1.90000000e-01	1.88043386e-02	3.05736551e-04
1.90500000e-01	1.89255263e-02	3.07848650e-04
1.91000000e-01	1.91594039e-02	3.11057771e-04
1.91500000e-01	1.90333010e-02	3.09155889e-04
1.92000000e-01	1.90176237e-02	3.07097086e-04
1.92500000e-01	1.89751350e-02	3.06372641e-04
1.93000000e-01	1.87928418e-02	3.04192983e-04
1.93500000e-01	1.89797379e-02	3.07254684e-04
1.94000000e-01	1.90968662e-02	3.08681048e-04
1.94500000e-01	1.90349830e-02	3.07858658e-04
1.95000000e-01	1.89637357e-02	3.05963373e-04
1.95500000e-01	1.86766665e-02	2.99269141e-04
1.96000000e-01	1.86282534e-02	2.98725435e-04
1.96500000e-01	1.89407368e-02	3.03920143e-04
1.97000000e-01	1.86507858e-02	2.99892696e-04
1.97500000e-01	1.89335474e-02	3.02681816e-04
1.98000000e-01	1.91127491e-02	3.04816538e-04
1.98500000e-01	1.86927150e-02	2.97805761e-04
1.99000000e-01	1.90129133e-02	3.03783587e-04
1.99500000e-01	1.87343940e-02	2.98041140e-04
2.00000000e-01	1.87659817e-02	2.98666833e-04
2.00500000e-01	1.88009640e-02	2.98966129e-04
2.01000000e-01	1.88195795e-02	2.97531184e-04
2.01500000e-01	1.87736155e-02	2.97721029e-04
2.02000000e-01	1.87059953e-02	2.96965487e-04
2.02500000e-01	1.89049232e-02	2.97397759e-04
2.03000000e-01	1.87258734e-02	2.95906639e-04
2.03500000e-01	1.88745582e-02	2.96920992e-04
2.04000000e-01	1.89298774e-02	2.97504515e-04
2.04500000e-01	1.88647381e-02	2.96545684e-04
2.05000000e-01	1.87632997e-02	2.95225631e-04
2.05500000e-01	1.86889702e-02	2.94189017e-04
2.06000000e-01	1.88489405e-02	2.95175837e-04
2.06500000e-01	1.85561180e-02	2.91616182e-04
2.07000000e-01	1.85349870e-02	2.89751491e-04
2.07500000e-01	1.84803651e-02	2.87837056e-04
2.08000000e-01	1.84075278e-02	2.89106661e-04
2.08500000e-01	1.82997390e-02	2.85102872e-04
2.09000000e-01	1.87966038e-02	2.93123009e-04
2.09500000e-01	1.87510688e-02	2.89865392e-04
2.10000000e-01	1.86739203e-02	2.89905539e-04
2.10500000e-01	1.88378769e-02	2.91659745e-04
2.11000000e-01	1.83585859e-02	2.84785215e-04
2.11500000e-01	1.86516627e-02	2.89348687e-04
2.12000000e-01	1.87708256e-02	2.91387319e-04
2.12500000e-01	1.86219969e-02	2.87768291e-04
2.13000000e-01	1.87284693e-02	2.88063422e-04
2.13500000e-01	1.85750734e-02	2.85327238e-04
2.14000000e-01	1.83435476e-02	2.83164495e-04
2.14500000e-01	1.82974114e-02	2.81162229e-04
2.15000000e-01	1.85842944e-02	2.87972665e-04
2.15500000e-01	1.82567684e-02	2.79937364e-04
2.16000000e-01	1.86238118e-02	2.84924126e-04
2.16500000e-01	1.86848952e-02	2.85641886e-04
2.17000000e-01	1.84802928e-02	2.87191818e-04
2.17500000e-01	1.85189512e-02	2.92230628e-04
2.18000000e-01	1.83598826e-02	2.90397099e-04
2.18500000e-01	1.83243124e-02	2.92899707e-04
2.19000000e-01	1.86346774e-02	2.98317790e-04
2.19500000e-01	1.85816936e-02	2.98756628e-04
2.20000000e-01	1.86082370e-02	2.99559197e-04
2.20500000e-01	1.84500036e-02	2.97566096e-04
2.21000000e-01	1.85503838e-02	3.00338667e-04
2.21500000e-01	1.84067930e-02	3.00360042e-04
2.22000000e-01	1.85854816e-02	3.03052856e-04
2.22500000e-01	1.86086543e-02	3.01890041e-04
2.23000000e-01	1.85862902e-02	3.03564733e-04
2.23500000e-01	1.84675388e-02	3.03009961e-04
2.24000000e-01	1.85680503e-02	3.05588703e-04
2.24500000e-01	1.86122811e-02	3.06297553e-04
2.25000000e-01	1.82832577e-02	3.00552146e-04
2.25500000e-01	1.85250197e-02	3.05910056e-04
2.26000000e-01	1.84016435e-02	3.04124145e-04
2.26500000e-01	1.86132836e-02	3.03576592e-04
2.27000000e-01	1.86431691e-02	3.00505326e-04
2.27500000e-01	1.82042326e-02	2.90648742e-04
2.28000000e-01	1.86437411e-02	2.97255752e-04
2.28500000e-01	1.85422478e-02	2.93590952e-04
2.29000000e-01	1.82990838e-02	2.89331318e-04
2.29500000e-01	1.84547390e-02	2.90676961e-04
2.30000000e-01	1.84042388e-02	2.88863927e-04
2.30500000e-01	1.83216299e-02	2.86084176e-04
2.31000000e-01	1.81055108e-02	2.82947807e-04
2.31500000e-01	1.83971070e-02	2.85159092e-04
2.32000000e-01	1.81619805e-02	2.82149170e-04
2.32500000e-01	1.82993607e-02	2.83781870e-04
2.33000000e-01	1.81393580e-02	2.79813988e-04
2.33500000e-01	1.81779206e-02	2.80453146e-04
2.34000000e-01	1.79769722e-02	2.77529112e-04
2.34500000e-01	1.84179329e-02	2.82813094e-04
2.35000000e-01	1.83522046e-02	2.81523540e-04
2.35500000e-01	1.83705817e-02	2.81224862e-04
2.36000000e-01	1.81726787e-02	2.79105294e-04
2.36500000e-01	1.81469704e-02	2.77372745e-04
2.37000000e-01	1.82276277e-02	2.77435475e-04
2.37500000e-01	1.82719766e-02	2.78016920e-04
2.38000000e-01	1.81314214e-02	2.75497624e-04
2.38500000e-01	1.82287474e-02	2.75988008e-04
2.39000000e-01	1.81116660e-02	2.73667656e-04
2.39500000e-01	1.82582213e-02	2.76908044e-04
2.40000000e-01	1.81537942e-02	2.74384941e-04
2.40500000e-01	1.82202502e-02	2.72648271e-04
2.41000000e-01	1.81934898e-02	2.72687853e-04
2.41500000e-01	1.81980409e-02	2.71994762e-04
2.42000000e-01	1.79917651e-02	2.69796223e-04
2.42500000e-01	1.81711326e-02	2.71294583e-04
2.43000000e-01	1.80838816e-02	2.69317361e-04
2.43500000e-01	1.80846815e-02	2.69909026e-04
2.44000000e-01	1.81500801e-02	2.70550292e-04
2.44500000e-01	1.81014256e-02	2.69274663e-04
2.45000000e-01	1.82823246e-02	2.70046647e-04
2.45500000e-01	1.77661860e-02	2.61975161e-04
2.46000000e-01	1.82258427e-02	2.70722842e-04
2.46500000e-01	1.81387448e-02	2.67867231e-04
2.47000000e-01	1.79190309e-02	2.65153954e-04
2.47500000e-01	1.81254474e-02	2.65330530e-04
2.48000000e-01	1.78967430e-02	2.64350569e-04
2.48500000e-01	1.81167918e-02	2.65752653e-04
2.49000000e-01	1.79928399e-02	2.63726082e-04
2.49500000e-01	1.79815236e-02	2.63037869e-04
2.50000000e-01	1.80184494e-02	2.64270318e-04
2.50500000e-01	1.78510116e-02	2.62842815e-04
2.51000000e-01	1.80539149e-02	2.62970711e-04
2.51500000e-01	1.79620223e-02	2.63398867e-04
2.52000000e-01	1.81454831e-02	2.64800836e-04
2.52500000e-01	1.77479841e-02	2.59223776e-04
2.53000000e-01	1.78442080e-02	2.60594696e-04
2.53500000e-01	1.77248084e-02	2.57850056e-04
2.54000000e-01	1.81640287e-02	2.63588442e-04
2.54500000e-01	1.78539373e-02	2.59668824e-04
2.55000000e-01	1.78741084e-02	2.59107526e-04
2.55500000e-01	1.78759665e-02	2.58845263e-04
2.56000000e-01	1.77311244e-02	2.57090894e-04
2.56500000e-01	1.78324500e-02	2.58894177e-04
2.57000000e-01	1.77235954e-02	2.56009033e-04
2.57500000e-01	1.78842176e-02	2.58460014e-04
2.58000000e-01	1.76892694e-02	2.55807304e-04
2.58500000e-01	1.78855921e-02	2.57361684e-04
2.59000000e-01	1.78103062e-02	2.56849347e-04
2.59500000e-01	1.76950257e-02	2.54834893e-04
2.60000000e-01	1.78493263e-02	2.56713463e-04
2.60500000e-01	1.78984232e-02	2.57036276e-04
2.61000000e-01	1.76607139e-02	2.53000662e-04
2.61500000e-01	1.77956150e-02	2.55710922e-04
2.62000000e-01	1.75574147e-02	2.51474768e-04
2.62500000e-01	1.78771186e-02	2.55178448e-04
2.63000000e-01	1.76057183e-02	2.51833254e-04
2.63500000e-01	1.78075818e-02	2.53636488e-04
2.64000000e-01	1.77574027e-02	2.52788552e-04
2.64500000e-01	1.75403555e-02	2.50003931e-04
2.65000000e-01	1.77170877e-02	2.51833802e-04
2.65500000e-01	1.76747440e-02	2.50402643e-04
2.66000000e-01	1.75196237e-02	2.49356019e-04
2.66500000e-01	1.75871039e-02	2.48821911e-04
2.67000000e-01	1.76564451e-02	2.48545517e-04
2.67500000e-01	1.77342642e-02	2.49534002e-04
2.68000000e-01	1.76836099e-02	2.49070870e-04
2.68500000e-01	1.77481821e-02	2.50203696e-04
2.69000000e-01	1.76647559e-02	2.48108496e-04
2.69500000e-01	1.74259119e-02	2.44813018e-04
2.70000000e-01	1.77079435e-02	2.48213435e-04
2.70500000e-01	1.75002703e-02	2.45410685e-04
2.71000000e-01	1.76596560e-02	2.47345366e-04
2.71500000e-01	1.72987415e-02	2.42453510e-04
2.72000000e-01	1.75552159e-02	2.45295750e-04
2.72500000e-01	1.76593147e-02	2.47905715e-04
2.73000000e-01	1.74529933e-02	2.43860433e-04
2.73500000e-01	1.76173080e-02	2.44759398e-04
2.74000000e-01	1.76526016e-02	2.45833868e-04
2.74500000e-01	1.73041123e-02	2.41453520e-04
2.75000000e-01	1.75291181e-02	2.43528862e-04
2.75500000e-01	1.74380412e-02	2.43033775e-04
2.76000000e-01	1.74928077e-02	2.43157260e-04
2.76500000e-01	1.74302079e-02	2.42424461e-04
2.77000000e-01	1.75005069e-02	2.42849572e-04
2.77500000e-01	1.75314321e-02	2.42847035e-04
2.78000000e-01	1.75652134e-02	2.42576276e-04
2.78500000e-01	1.74513038e-02	2.41542964e-04
2.79000000e-01	1.75522163e-02	2.42385364e-04
2.79500000e-01	1.73262386e-02	2.39718528e-04
2.80000000e-01	1.74218856e-02	2.41090335e-04
2.80500000e-01	1.74606713e-02	2.40209140e-04
2.81000000e-01	1.76822128e-02	2.43396450e-04
2.81500000e-01	1.74448250e-02	2.39626148e-04
2.82000000e-01	1.74299543e-02	2.39625622e-04
2.82500000e-01	1.72859834e-02	2.38213378e-04
2.83000000e-01	1.74100679e-02	2.38444287e-04
2.83500000e-01	1.76560807e-02	2.42229658e-04
2.84000000e-01	1.73805922e-02	2.37843801e-04
2.84500000e-01	1.75014325e-02	2.39797998e-04
2.85000000e-01	1.74655757e-02	2.39524268e-04
2.85500000e-01	1.74835013e-02	2.38731016e-04
2.86000000e-01	1.72904616e-02	2.36186222e-04
2.86500000e-01	1.75047473e-02	2.38560794e-04
2.87000000e-01	1.75649979e-02	2.39597498e-04
2.87500000e-01	1.70191795e-02	2.31521121e-04
2.88000000e-01	1.72269023e-02	2.33828633e-04
2.88500000e-01	1.72401709e-02	2.34468387e-04
2.89000000e-01	1.72839462e-02	2.33940635e-04
2.89500000e-01	1.73260595e-02	2.35043710e-04
2.90000000e-01	1.73373023e-02	2.35054558e-04
2.90500000e-01	1.71913357e-02	2.33479873e-04
2.91000000e-01	1.72916646e-02	2.34277057e-04
2.91500000e-01	1.73303318e-02	2.33544825e-04
2.92000000e-01	1.71777002e-02	2.31872564e-04
2.92500000e-01	1.72722971e-02	2.33154693e-04
2.93000000e-01	1.71636490e-02	2.31043456e-04
2.93500000e-01	1.71094560e-02	2.30096100e-04
2.94000000e-01	1.73013932e-02	2.32742085e-04
2.94500000e-01	1.73087468e-02	2.33253945e-04
2.95000000e-01	1.71665484e-02	2.30443047e-04
2.95500000e-01	1.70083527e-02	2.28840769e-04
2.96000000e-01	1.72964519e-02	2.32263568e-04
2.96500000e-01	1.72716764e-02	2.31027878e-04
2.97000000e-01	1.69875278e-02	2.27495249e-04
2.97500000e-01	1.71992567e-02	2.28513302e-04
2.98000000e-01	1.70619958e-02	2.28739101e-04
2.98500000e-01	1.72162951e-02	2.30204732e-04
2.99000000e-01	1.70449951e-02	2.28186076e-04
2.99500000e-01	1.69772302e-02	2.26844182e-04
3.00000000e-01	1.71675721e-02	2.29521153e-04
3.00500000e-01	1.70932788e-02	2.27457377e-04
3.01000000e-01	1.70590815e-02	2.27578126e-04
3.01500000e-01	1.70201575e-02	2.26748749e-04
3.02000000e-01	1.71452815e-02	2.26945956e-04
3.02500000e-01	1.71081564e-02	2.26956367e-04
3.03000000e-01	1.70206011e-02	2.25840434e-04
3.03500000e-01	1.70926386e-02	2.26288697e-04
3.04000000e-01	1.72715392e-02	2.28741429e-04
3.04500000e-01	1.71491028e-02	2.26526775e-04
3.05000000e-01	1.71692349e-02	2.26529152e-04
3.05500000e-01	1.72431942e-02	2.28108823e-04
3.06000000e-01	1.71075034e-02	2.24943781e-04
3.06500000e-01	1.70241921e-02	2.25392497e-04
3.07000000e-01	1.69120573e-02	2.22322945e-04
3.07500000e-01	1.71085090e-02	2.25478937e-04
3.08000000e-01	1.70128663e-02	2.23595047e-04
3.08500000e-01	1.71657792e-02	2.24910347e-04
3.09000000e-01	1.68271998e-02	2.21476632e-04
3.09500000e-01	1.71656422e-02	2.25077249e-04
3.10000000e-01	1.68531680e-02	2.21023058e-04
3.10500000e-01	1.69871902e-02	2.22901891e-04
3.11000000e-01	1.70105256e-02	2.22735812e-04
3.11500000e-01	1.69133673e-02	2.21432719e-04
3.12000000e-01	1.69525979e-02	2.21890372e-04
3.12500000e-01	1.71144764e-02	2.23155321e-04
3.13000000e-01	1.70350470e-02	2.22268469e-04
3.13500000e-01	1.68405763e-02	2.19340195e-04
3.14000000e-01	1.67126005e-02	2.18175932e-04
3.14500000e-01	1.68194677e-02	2.18486683e-04
3.15000000e-01	1.69794216e-02	2.21474044e-04
3.15500000e-01	1.70888654e-02	2.21969698e-04
3.16000000e-01	1.70510121e-02	2.21395510e-04
3.16500000e-01	1.67182944e-02	2.16572937e-04
3.17000000e-01	1.68391103e-02	2.18381955e-04
3.17500000e-01	1.69886653e-02	2.20327751e-04
3.18000000e-01	1.68871261e-02	2.18086131e-04
3.18500000e-01	1.67126946e-02	2.17587785e-04
3.19000000e-01	1.68478683e-02	2.17236084e-04
3.19500000e-01	1.68655964e-02	2.17550520e-04
3.20000000e-01	1.67416035e-02	2.16821572e-04
3.20500000e-01	1.69581424e-02	2.18180713e-04
3.21000000e-01	1.68185711e-02	2.17292220e-04
3.21500000e-01	1.67994969e-02	2.16267312e-04
3.22000000e-01	1.67100260e-02	2.14977978e-04
3.22500000e-01	1.68147682e-02	2.16383410e-04
3.23000000e-01	1.67700713e-02	2.14947923e-04
3.23500000e-01	1.67008497e-02	2.14750686e-04
3.24000000e-01	1.66865328e-02	2.13625573e-04
3.24500000e-01	1.64823051e-02	2.12193690e-04
3.25000000e-01	1.65843615e-02	2.12981052e-04
3.25500000e-01	1.66868560e-02	2.13411660e-04
3.26000000e-01	1.68055010e-02	2.15505080e-04
3.26500000e-01	1.66972644e-02	2.12958961e-04
3.27000000e-01	1.64691090e-02	2.11399487e-04
3.27500000e-01	1.65083655e-02	2.11448015e-04
3.28000000e-01	1.65602233e-02	2.11512920e-04
3.28500000e-01	1.67017666e-02	2.12141419e-04
3.29000000e-01	1.65229714e-02	2.10109271e-04
3.29500000e-01	1.66234918e-02	2.11587887e-04
3.30000000e-01	1.65041822e-02	2.10256392e-04
3.30500000e-01	1.65441227e-02	2.10899664e-04
3.31000000e-01	1.65179261e-02	2.09453389e-04
3.31500000e-01	1.65505362e-02	2.09717362e-04
3.32000000e-01	1.64697563e-02	2.09835694e-04
3.32500000e-01	1.65773641e-02	2.09260766e-04
3.33000000e-01	1.65261857e-02	2.08925895e-04
3.33500000e-01	1.65933246e-02	2.10134035e-04
3.34000000e-01	1.65406213e-02	2.09190208e-04
3.34500000e-01	1.64581071e-02	2.08768399e-04
3.35000000e-01	1.64585713e-02	2.07909389e-04
3.35500000e-01	1.64852741e-02	2.07709986e-04
3.36000000e-01	1.64363825e-02	2.06994414e-04
3.36500000e-01	1.64108983e-02	2.07053425e-04
3.37000000e-01	1.64733503e-02	2.07581951e-04
3.37500000e-01	1.64544548e-02	2.06936847e-04
3.38000000e-01	1.63990431e-02	2.06967700e-04
3.38500000e-01	1.65295402e-02	2.07594285e-04
3.39000000e-01	1.62323320e-02	2.03989336e-04
3.39500000e-01	1.62801132e-02	2.03999637e-04
3.40000000e-01	1.64614853e-02	2.07771415e-04
3.40500000e-01	1.65330271e-02	2.07632197e-04
3.41000000e-01	1.64619872e-02	2.06048257e-04
3.41500000e-01	1.62662338e-02	2.04119713e-04
3.42000000e-01	1.62876289e-02	2.03714966e-04
3.42500000e-01	1.63366464e-02	2.04130709e-04
3.43000000e-01	1.64084897e-02	2.05086948e-04
3.43500000e-01	1.65476687e-02	2.06100753e-04
3.44000000e-01	1.64196256e-02	2.05356935e-04
3.44500000e-01	1.64537627e-02	2.05052748e-04
3.45000000e-01	1.62942056e-02	2.03154973e-04
3.45500000e-01	1.62191618e-02	2.02001584e-04
3.46000000e-01	1.63350888e-02	2.03438900e-04
3.46500000e-01	1.64276330e-02	2.03783591e-04
3.47000000e-01	1.63065834e-02	2.02236096e-04
3.47500000e-01	1.62133378e-02	2.01512677e-04
3.48000000e-01	1.64353445e-02	2.03442690e-04
3.48500000e-01	1.62686563e-02	2.01951364e-04
3.49000000e-01	1.63283981e-02	2.02330941e-04
3.49500000e-01	1.62774628e-02	2.01602941e-04
3.50000000e-01	1.61256022e-02	1.62744496e-04
3.51000000e-01	1.62273586e-02	1.41833097e-04
3.52000000e-01	1.62356623e-02	1.41645399e-04
3.53000000e-01	1.61666994e-02	1.40651486e-04
3.54000000e-01	1.61648370e-02	1.40496651e-04
3.55000000e-01	1.60751794e-02	1.39791230e-04
3.56000000e-01	1.61668092e-02	1.40789530e-04
3.57000000e-01	1.61729477e-02	1.43531478e-04
3.58000000e-01	1.60612865e-02	1.43988926e-04
3.59000000e-01	1.60720423e-02	1.44743123e-04
3.60000000e-01	1.59679670e-02	1.45347990e-04
3.61000000e-01	1.59562083e-02	1.45815090e-04
3.62000000e-01	1.59474667e-02	1.46184130e-04
3.63000000e-01	1.60254978e-02	1.46921271e-04
3.64000000e-01	1.60554549e-02	1.48211713e-04
3.65000000e-01	1.59389400e-02	1.48000544e-04
3.66000000e-01	1.59479512e-02	1.46145171e-04
3.67000000e-01	1.59000507e-02	1.43804109e-04
3.68000000e-01	1.59557489e-02	1.42819025e-04
3.69000000e-01	1.59660067e-02	1.42510251e-04
3.70000000e-01	1.58523938e-02	1.40870797e-04
3.71000000e-01	1.59664429e-02	1.43532044e-04
3.72000000e-01	1.60163267e-02	1.45236411e-04
3.73000000e-01	1.59587590e-02	1.44483287e-04
3.74000000e-01	1.58700330e-02	1.43845968e-04
3.75000000e-01	1.58205233e-02	1.43607425e-04
3.76000000e-01	1.58209242e-02	1.43716458e-04
3.77000000e-01	1.57808235e-02	1.43412936e-04
3.78000000e-01	1.58046311e-02	1.43503339e-04
3.79000000e-01	1.58474811e-02	1.43720358e-04
3.80000000e-01	1.57989905e-02	1.43007884e-04
3.81000000e-01	1.57259158e-02	1.42407235e-04
3.82000000e-01	1.57591905e-02	1.42839744e-04
3.83000000e-01	1.56799338e-02	1.42186249e-04
3.84000000e-01	1.58570589e-02	1.43594528e-04
3.85000000e-01	1.57225095e-02	1.42465817e-04
3.86000000e-01	1.57184161e-02	1.42707554e-04
3.87000000e-01	1.57209621e-02	1.42588774e-04
3.88000000e-01	1.57429794e-02	1.42292532e-04
3.89000000e-01	1.57226263e-02	1.42309361e-04
3.90000000e-01	1.56085988e-02	1.41152579e-04
3.91000000e-01	1.55398526e-02	1.40252859e-04
3.92000000e-01	1.57732202e-02	1.42437773e-04
3.93000000e-01	1.55450075e-02	1.40393800e-04
3.94000000e-01	1.55963237e-02	1.40798205e-04
3.95000000e-01	1.56345654e-02	1.41006672e-04
3.96000000e-01	1.56250700e-02	1.41125252e-04
3.97000000e-01	1.55516069e-02	1.40674919e-04
3.98000000e-01	1.56098402e-02	1.40975015e-04
3.99000000e-01	1.56995916e-02	1.41734172e-04
4.00000000e-01	1.55137818e-02	1.40380978e-04
4.01000000e-01	1.56320971e-02	1.41161877e-04
4.02000000e-01	1.55348232e-02	1.40178327e-04
4.03000000e-01	1.56084380e-02	1.40973552e-04
4.04000000e-01	1.55305035e-02	1.40053639e-04
4.05000000e-01	1.54883685e-02	1.39845946e-04
4.06000000e-01	1.55114653e-02	1.40083002e-04
4.07000000e-01	1.54923948e-02	1.39834922e-04
4.08000000e-01	1.54035938e-02	1.39232943e-04
4.09000000e-01	1.54009677e-02	1.38738922e-04
4.10000000e-01	1.54834593e-02	1.38956283e-04
4.11000000e-01	1.52941067e-02	1.37922300e-04
4.12000000e-01	1.54642601e-02	1.39314927e-04
4.13000000e-01	1.54799704e-02	1.39251759e-04
4.14000000e-01	1.52736764e-02	1.37404501e-04
4.15000000e-01	1.53619692e-02	1.37962047e-04
4.16000000e-01	1.53827402e-02	1.38415907e-04
4.17000000e-01	1.53584820e-02	1.38079124e-04
4.18000000e-01	1.54656182e-02	1.40396388e-04
4.19000000e-01	1.53869196e-02	1.41798856e-04
4.20000000e-01	1.54855242e-02	1.43260955e-04
4.21000000e-01	1.55746909e-02	1.44711178e-04
4.22000000e-01	1.54860732e-02	1.43838317e-04
4.23000000e-01	1.54672602e-02	1.44943573e-04
4.24000000e-01	1.55584671e-02	1.45947928e-04
4.25000000e-01	1.54858429e-02	1.45319662e-04
4.26000000e-01	1.54271431e-02	1.44708542e-04
4.27000000e-01	1.53604872e-02	1.44159659e-04
4.28000000e-01	1.55099979e-02	1.45686175e-04
4.29000000e-01	1.54015670e-02	1.45114219e-04
4.30000000e-01	1.54422112e-02	1.45244150e-04
4.31000000e-01	1.54876831e-02	1.45140514e-04
4.32000000e-01	1.54324089e-02	1.45025002e-04
4.33000000e-01	1.52268758e-02	1.43871150e-04
4.34000000e-01	1.52733161e-02	1.43908868e-04
4.35000000e-01	1.53913058e-02	1.45296402e-04
4.36000000e-01	1.53070035e-02	1.44695884e-04
4.37000000e-01	1.52228143e-02	1.44320203e-04
4.38000000e-01	1.53406246e-02	1.45790155e-04
4.39000000e-01	1.52999054e-02	1.44831760e-04
4.40000000e-01	1.54886736e-02	1.47051783e-04
4.41000000e-01	1.54643907e-02	1.46992482e-04
4.42000000e-01	1.52768877e-02	1.45594425e-04
4.43000000e-01	1.52987653e-02	1.45910268e-04
4.44000000e-01	1.53151847e-02	1.46220016e-04
4.45000000e-01	1.53074558e-02	1.45883557e-04
4.46000000e-01	1.51595402e-02	1.44782181e-04
4.47000000e-01	1.52699535e-02	1.46556528e-04
4.48000000e-01	1.52568657e-02	1.46165555e-04
4.49000000e-01	1.52706020e-02	1.46484567e-04
4.50000000e-01	1.50975786e-02	1.44832891e-04
4.51000000e-01	1.53098018e-02	1.46948538e-04
4.52000000e-01	1.51459828e-02	1.46060844e-04
4.53000000e-01	1.52497616e-02	1.46949303e-04
4.54000000e-01	1.51871324e-02	1.46268449e-04
4.55000000e-01	1.53445546e-02	1.47993453e-04
4.56000000e-01	1.51254682e-02	1.46214679e-04
4.57000000e-01	1.52411365e-02	1.47578327e-04
4.58000000e-01	1.51799664e-02	1.46495058e-04
4.59000000e-01	1.52489253e-02	1.47437676e-04
4.60000000e-01	1.52438719e-02	1.47594277e-04
4.61000000e-01	1.53270582e-02	1.48552144e-04
4.62000000e-01	1.52414502e-02	1.47566845e-04
4.63000000e-01	1.51944887e-02	1.47242769e-04
4.64000000e-01	1.51123725e-02	1.47340003e-04
4.65000000e-01	1.52581102e-02	1.48148788e-04
4.66000000e-01	1.51723488e-02	1.47710230e-04
4.67000000e-01	1.51588146e-02	1.47977593e-04
4.68000000e-01	1.51037808e-02	1.47333756e-04
4.69000000e-01	1.51916531e-02	1.48562045e-04
4.70000000e-01	1.49355222e-02	1.46053980e-04
4.71000000e-01	1.51059909e-02	1.47409900e-04
4.72000000e-01	1.50554842e-02	1.47059002e-04
4.73000000e-01	1.51104036e-02	1.47191063e-04
4.74000000e-01	1.50717876e-02	1.46681110e-04
4.75000000e-01	1.50006917e-02	1.46515640e-04
4.76000000e-01	1.50845340e-02	1.46844574e-04
4.77000000e-01	1.50671650e-02	1.47290233e-04
4.78000000e-01	1.50719711e-02	1.46980885e-04
4.79000000e-01	1.49909989e-02	1.46645422e-04
4.80000000e-01	1.49813242e-02	1.46507602e-04
4.81000000e-01	1.49759367e-02	1.47155472e-04
4.82000000e-01	1.49566432e-02	1.46706482e-04
4.83000000e-01	1.49825346e-02	1.46335330e-04
4.84000000e-01	1.51540470e-02	1.48160034e-04
4.85000000e-01	1.48586053e-02	1.45854193e-04
4.86000000e-01	1.48612654e-02	1.45833590e-04
4.87000000e-01	1.50840617e-02	1.47549557e-04
4.88000000e-01	1.48976905e-02	1.46191124e-04
4.89000000e-01	1.47685222e-02	1.45214355e-04
4.90000000e-01	1.49567479e-02	1.47084080e-04
4.91000000e-01	1.50018635e-02	1.47107449e-04
4.92000000e-01	1.48855136e-02	1.46364585e-04
4.93000000e-01	1.48775024e-02	1.46485008e-04
4.94000000e-01	1.48225932e-02	1.46084626e-04
4.95000000e-01	1.48691931e-02	1.47819768e-04
4.96000000e-01	1.48024922e-02	1.50946248e-04
4.97000000e-01	1.48771237e-02	1.54699891e-04
4.98000000e-01	1.49654231e-02	1.57683450e-04
4.99000000e-01	1.47927591e-02	1.57714912e-04
5.00000000e-01	1.48897221e-02	1.60693673e-04
5.01000000e-01	1.47127697e-02	1.60091498e-04
5.02000000e-01	1.49397355e-02	1.63883036e-04
5.03000000e-01	1.48898308e-02	1.65163401e-04
5.04000000e-01	1.47740175e-02	1.65929825e-04
5.05000000e-01	1.48203080e-02	1.63426586e-04
5.06000000e-01	1.49373398e-02	1.60902708e-04
5.07000000e-01	1.48237657e-02	1.58181012e-04
5.08000000e-01	1.46739154e-02	1.55971603e-04
5.09000000e-01	1.48300515e-02	1.56703592e-04
5.10000000e-01	1.47732382e-02	1.55462788e-04
5.11000000e-01	1.46902009e-02	1.53925613e-04
5.12000000e-01	1.47086173e-02	1.53931778e-04
5.13000000e-01	1.46391655e-02	1.53370546e-04
5.14000000e-01	1.47082487e-02	1.53147597e-04
5.15000000e-01	1.47111345e-02	1.53086928e-04
5.16000000e-01	1.44733105e-02	1.50403929e-04
5.17000000e-01	1.45749880e-02	1.51691039e-04
5.18000000e-01	1.44657256e-02	1.49897697e-04
5.19000000e-01	1.44369786e-02	1.48730200e-04
5.20000000e-01	1.45741493e-02	1.50205133e-04
5.21000000e-01	1.44418751e-02	1.48669345e-04
5.22000000e-01	1.45515798e-02	1.49806343e-04
5.23000000e-01	1.46072858e-02	1.50322637e-04
5.24000000e-01	1.43298803e-02	1.47884029e-04
5.25000000e-01	1.44133571e-02	1.48436290e-04
5.26000000e-01	1.44949355e-02	1.48774502e-04
5.27000000e-01	1.44880442e-02	1.48821005e-04
5.28000000e-01	1.45148780e-02	1.49193153e-04
5.29000000e-01	1.44373926e-02	1.48755942e-04
5.30000000e-01	1.44932661e-02	1.48916049e-04
5.31000000e-01	1.43255935e-02	1.47991390e-04
5.32000000e-01	1.42775060e-02	1.46886132e-04
5.33000000e-01	1.43231420e-02	1.47331282e-04
5.34000000e-01	1.44349016e-02	1.48524087e-04
5.35000000e-01	1.41872000e-02	1.46293213e-04
5.36000000e-01	1.44009630e-02	1.48106323e-04
5.37000000e-01	1.42369884e-02	1.46875470e-04
5.38000000e-01	1.43444229e-02	1.47497252e-04
5.39000000e-01	1.42125915e-02	1.46548070e-04
5.40000000e-01	1.41991482e-02	1.46243770e-04
5.41000000e-01	1.42497517e-02	1.46492977e-04
5.42000000e-01	1.42600673e-02	1.46749200e-04
5.43000000e-01	1.42971745e-02	1.47122293e-04
5.44000000e-01	1.42100908e-02	1.46229621e-04
5.45000000e-01	1.42294422e-02	1.46530294e-04
5.46000000e-01	1.42346364e-02	1.46599668e-04
5.47000000e-01	1.41306088e-02	1.45683869e-04
5.48000000e-01	1.41755840e-02	1.46035030e-04
5.49000000e-01	1.42093645e-02	1.46246543e-04
5.50000000e-01	1.41484805e-02	1.45462689e-04
5.51000000e-01	1.39442310e-02	1.43099191e-04
5.52000000e-01	1.40661235e-02	1.44420162e-04
5.53000000e-01	1.41110317e-02	1.44691233e-04
5.54000000e-01	1.39651628e-02	1.42929612e-04
5.55000000e-01	1.40444195e-02	1.43540298e-04
5.56000000e-01	1.41117040e-02	1.43829830e-04
5.57000000e-01	1.41561050e-02	1.44817022e-04
5.58000000e-01	1.40515097e-02	1.43720456e-04
5.59000000e-01	1.39559555e-02	1.43034267e-04
5.60000000e-01	1.39772491e-02	1.43644241e-04
5.61000000e-01	1.40153719e-02	1.43354210e-04
5.62000000e-01	1.39642210e-02	1.43285103e-04
5.63000000e-01	1.39045447e-02	1.43020674e-04
5.64000000e-01	1.40427376e-02	1.43907167e-04
5.65000000e-01	1.39471244e-02	1.43346899e-04
5.66000000e-01	1.41345049e-02	1.44935520e-04
5.67000000e-01	1.40453624e-02	1.43826742e-04
5.68000000e-01	1.39076319e-02	1.42982430e-04
5.69000000e-01	1.39455646e-02	1.42890225e-04
5.70000000e-01	1.40074840e-02	1.43428581e-04
5.71000000e-01	1.40218544e-02	1.43545644e-04
5.72000000e-01	1.39770076e-02	1.42928453e-04
5.73000000e-01	1.39244592e-02	1.42990303e-04
5.74000000e-01	1.39429976e-02	1.43091675e-04
5.75000000e-01	1.39441757e-02	1.43167406e-04
5.76000000e-01	1.36341342e-02	1.40226652e-04
5.77000000e-01	1.36876815e-02	1.40908977e-04
5.78000000e-01	1.36601824e-02	1.40759651e-04
5.79000000e-01	1.38232109e-02	1.41899180e-04
5.80000000e-01	1.38071099e-02	1.42091519e-04
5.81000000e-01	1.36837925e-02	1.41293100e-04
5.82000000e-01	1.38051634e-02	1.41853074e-04
5.83000000e-01	1.38271460e-02	1.42065856e-04
5.84000000e-01	1.37994764e-02	1.42122547e-04
5.85000000e-01	1.37248019e-02	1.40869072e-04
5.86000000e-01	1.37052152e-02	1.41128462e-04
5.87000000e-01	1.36878620e-02	1.40966588e-04
5.88000000e-01	1.37698574e-02	1.41436842e-04
5.89000000e-01	1.36281501e-02	1.40408970e-04
5.90000000e-01	1.37324875e-02	1.41752179e-04
5.91000000e-01	1.37057301e-02	1.41192836e-04
5.92000000e-01	1.38152409e-02	1.42255449e-04
5.93000000e-01	1.36366207e-02	1.40716400e-04
5.94000000e-01	1.36477337e-02	1.40651557e-04
5.95000000e-01	1.35437918e-02	1.39890201e-04
5.96000000e-01	1.36708004e-02	1.40819065e-04
5.97000000e-01	1.35691769e-02	1.39754696e-04
5.98000000e-01	1.36716072e-02	1.41286317e-04
5.99000000e-01	1.35041992e-02	1.39017026e-04
6.00000000e-01	1.36057176e-02	1.40426548e-04
6.01000000e-01	1.36316654e-02	1.40671794e-04
6.02000000e-01	1.36549715e-02	1.40553129e-04
6.03000000e-01	1.36468427e-02	1.40712610e-04
6.04000000e-01	1.36099695e-02	1.40540243e-04
6.05000000e-01	1.36808597e-02	1.41332424e-04
6.06000000e-01	1.35333341e-02	1.39947946e-04
6.07000000e-01	1.34986821e-02	1.39120325e-04
6.08000000e-01	1.35285336e-02	1.39757918e-04
6.09000000e-01	1.36632456e-02	1.41107604e-04
6.10000000e-01	1.34339028e-02	1.39034144e-04
6.11000000e-01	1.36435021e-02	1.40907804e-04
6.12000000e-01	1.35352319e-02	1.39798087e-04
6.13000000e-01	1.34012739e-02	1.38380204e-04
6.14000000e-01	1.34410601e-02	1.39125201e-04
6.15000000e-01	1.36339221e-02	1.41130315e-04
6.16000000e-01	1.35238227e-02	1.39935076e-04
6.17000000e-01	1.35646488e-02	1.40363535e-04
6.18000000e-01	1.33779153e-02	1.38374008e-04
6.19000000e-01	1.34042504e-02	1.38757756e-04
6.20000000e-01	1.32892933e-02	1.37162702e-04
6.21000000e-01	1.33739942e-02	1.38246452e-04
6.22000000e-01	1.35029676e-02	1.38978670e-04
6.23000000e-01	1.34219711e-02	1.37858765e-04
6.24000000e-01	1.34480500e-02	1.38248140e-04
6.25000000e-01	1.34076961e-02	1.37473442e-04
6.26000000e-01	1.34498158e-02	1.37721460e-04
6.27000000e-01	1.33641371e-02	1.37922417e-04
6.28000000e-01	1.32980540e-02	1.36653215e-04
6.29000000e-01	1.32646904e-02	1.36484432e-04
6.30000000e-01	1.34340966e-02	1.37689314e-04
6.31000000e-01	1.34010856e-02	1.37711644e-04
6.32000000e-01	1.33271387e-02	1.36941355e-04
6.33000000e-01	1.32458192e-02	1.36370919e-04
6.34000000e-01	1.34305668e-02	1.41852896e-04
6.35000000e-01	1.32526076e-02	1.43631756e-04
6.36000000e-01	1.33260535e-02	1.47232111e-04
6.37000000e-01	1.32872358e-02	1.48653060e-04
6.38000000e-01	1.34908755e-02	1.52951595e-04
6.39000000e-01	1.34205042e-02	1.54042033e-04
6.40000000e-01	1.32917050e-02	1.54994960e-04
6.41000000e-01	1.34468715e-02	1.58033481e-04
6.42000000e-01	1.34315152e-02	1.59565782e-04
6.43000000e-01	1.33565783e-02	1.58977496e-04
6.44000000e-01	1.34928263e-02	1.55201596e-04
6.45000000e-01	1.34912014e-02	1.52346927e-04
6.46000000e-01	1.34616836e-02	1.51071281e-04
6.47000000e-01	1.34047059e-02	1.48547954e-04
6.48000000e-01	1.33135975e-02	1.47182210e-04
6.49000000e-01	1.33593618e-02	1.46720188e-04
6.50000000e-01	1.33610704e-02	1.46172323e-04
6.51000000e-01	1.34445428e-02	1.46433409e-04
6.52000000e-01	1.32838131e-02	1.44526233e-04
6.53000000e-01	1.34523590e-02	1.44814088e-04
6.54000000e-01	1.32757414e-02	1.42731156e-04
6.55000000e-01	1.32360590e-02	1.42444017e-04
6.56000000e-01	1.33998169e-02	1.43846621e-04
6.57000000e-01	1.31937783e-02	1.41283342e-04
6.58000000e-01	1.33584572e-02	1.43427859e-04
6.59000000e-01	1.33134076e-02	1.42540605e-04
6.60000000e-01	1.33415867e-02	1.42530395e-04
6.61000000e-01	1.30997473e-02	1.40416599e-04
6.62000000e-01	1.33392734e-02	1.42832994e-04
6.63000000e-01	1.33575718e-02	1.43324460e-04
6.64000000e-01	1.32611689e-02	1.41670709e-04
6.65000000e-01	1.32709193e-02	1.42040586e-04
6.66000000e-01	1.31451777e-02	1.41284489e-04
6.67000000e-01	1.31933351e-02	1.40540612e-04
6.68000000e-01	1.32334527e-02	1.41105102e-04
6.69000000e-01	1.32154741e-02	1.41083598e-04
6.70000000e-01	1.32114898e-02	1.40437218e-04
6.71000000e-01	1.32170373e-02	1.40986584e-04
6.72000000e-01	1.32555984e-02	1.41278564e-04
6.73000000e-01	1.31492031e-02	1.40082434e-04
6.74000000e-01	1.31434960e-02	1.39855405e-04
6.75000000e-01	1.32022532e-02	1.40755611e-04
6.76000000e-01	1.32007038e-02	1.40032557e-04
6.77000000e-01	1.31855529e-02	1.40448331e-04
6.78000000e-01	1.31299733e-02	1.39930391e-04
6.79000000e-01	1.31322170e-02	1.39279114e-04
6.80000000e-01	1.29302421e-02	1.37586798e-04
6.81000000e-01	1.31041135e-02	1.38976602e-04
6.82000000e-01	1.31084826e-02	1.39567597e-04
6.83000000e-01	1.30267032e-02	1.38635727e-04
6.84000000e-01	1.32011121e-02	1.39808950e-04
6.85000000e-01	1.31092022e-02	1.39467984e-04
6.86000000e-01	1.31246561e-02	1.39175567e-04
6.87000000e-01	1.29938573e-02	1.38080003e-04
6.88000000e-01	1.30203596e-02	1.38392133e-04
6.89000000e-01	1.32872863e-02	1.41301472e-04
6.90000000e-01	1.31962431e-02	1.40209588e-04
6.91000000e-01	1.30279241e-02	1.38258309e-04
6.92000000e-01	1.30362730e-02	1.38410867e-04
6.93000000e-01	1.31896906e-02	1.39219857e-04
6.94000000e-01	1.29326928e-02	1.37461851e-04
6.95000000e-01	1.28142648e-02	1.36061913e-04
6.96000000e-01	1.29297316e-02	1.36850424e-04
6.97000000e-01	1.31073789e-02	1.38875127e-04
6.98000000e-01	1.28903662e-02	1.36801878e-04
6.99000000e-01	1.29671406e-02	1.38158069e-04
7.00000000e-01	1.29366415e-02	1.36896198e-04
7.01000000e-01	1.29261675e-02	1.36970804e-04
7.02000000e-01	1.29758449e-02	1.37539836e-04
7.03000000e-01	1.29105668e-02	1.36833307e-04
7.04000000e-01	1.27726449e-02	1.36002942e-04
7.05000000e-01	1.29427549e-02	1.37273699e-04
7.06000000e-01	1.29847443e-02	1.37887039e-04
7.07000000e-01	1.28473784e-02	1.36248384e-04
7.08000000e-01	1.28809783e-02	1.36167262e-04
7.09000000e-01	1.27628903e-02	1.35370223e-04
7.10000000e-01	1.27421809e-02	1.35181512e-04
7.11000000e-01	1.27351655e-02	1.35211542e-04
7.12000000e-01	1.27660410e-02	1.35305325e-04
7.13000000e-01	1.26873146e-02	1.35011723e-04
7.14000000e-01	1.26985440e-02	1.35112076e-04
7.15000000e-01	1.27413510e-02	1.35165332e-04
7.16000000e-01	1.27817490e-02	1.36071934e-04
7.17000000e-01	1.27108194e-02	1.34918214e-04
7.18000000e-01	1.26229811e-02	1.34100195e-04
7.19000000e-01	1.27505183e-02	1.34928456e-04
7.20000000e-01	1.27145871e-02	1.34684104e-04
7.21000000e-01	1.27631894e-02	1.35029491e-04
7.22000000e-01	1.27669799e-02	1.34808258e-04
7.23000000e-01	1.26806411e-02	1.34481461e-04
7.24000000e-01	1.26163877e-02	1.34054667e-04
7.25000000e-01	1.25617855e-02	1.33309839e-04
7.26000000e-01	1.25921160e-02	1.33707441e-04
7.27000000e-01	1.26179869e-02	1.34195032e-04
7.28000000e-01	1.26521801e-02	1.34527369e-04
7.29000000e-01	1.26462397e-02	1.34235958e-04
7.30000000e-01	1.26153243e-02	1.33975352e-04
7.31000000e-01	1.24505948e-02	1.32470249e-04
7.32000000e-01	1.25606719e-02	1.33251260e-04
7.33000000e-01	1.24490867e-02	1.32733462e-04
7.34000000e-01	1.25852152e-02	1.33595054e-04
7.35000000e-01	1.23829082e-02	1.31584854e-04
7.36000000e-01	1.26499670e-02	1.33914441e-04
7.37000000e-01	1.24212002e-02	1.31265203e-04
7.38000000e-01	1.24982654e-02	1.31761086e-04
7.39000000e-01	1.25185497e-02	1.31679872e-04
7.40000000e-01	1.24043631e-02	1.30372854e-04
7.41000000e-01	1.23860673e-02	1.30276410e-04
7.42000000e-01	1.24028494e-02	1.30533986e-04
7.43000000e-01	1.25204584e-02	1.31538931e-04
7.44000000e-01	1.24573024e-02	1.31360454e-04
7.45000000e-01	1.24630380e-02	1.30877636e-04
7.46000000e-01	1.24180708e-02	1.30785241e-04
7.47000000e-01	1.22379874e-02	1.29199541e-04
7.48000000e-01	1.24570794e-02	1.31214767e-04
7.49000000e-01	1.24942094e-02	1.31695871e-04
7.50000000e-01	1.22414649e-02	1.29084212e-04
7.51000000e-01	1.23721912e-02	1.30214629e-04
7.52000000e-01	1.23827360e-02	1.30096920e-04
7.53000000e-01	1.23976236e-02	1.30555519e-04
7.54000000e-01	1.22681421e-02	1.29139923e-04
7.55000000e-01	1.23947671e-02	1.30589638e-04
7.56000000e-01	1.23345273e-02	1.30261971e-04
7.57000000e-01	1.22250404e-02	1.29199051e-04
7.58000000e-01	1.24214700e-02	1.30755583e-04
7.59000000e-01	1.22651957e-02	1.28918005e-04
7.60000000e-01	1.22931067e-02	1.28816243e-04
7.61000000e-01	1.23689910e-02	1.29808813e-04
7.62000000e-01	1.22017768e-02	1.27864255e-04
7.63000000e-01	1.22894721e-02	1.28877593e-04
7.64000000e-01	1.21470119e-02	1.27044448e-04
7.65000000e-01	1.21991015e-02	1.27485787e-04
7.66000000e-01	1.22710770e-02	1.28138534e-04
7.67000000e-01	1.22777846e-02	1.28069905e-04
7.68000000e-01	1.21430046e-02	1.26882254e-04
7.69000000e-01	1.22301502e-02	1.27795018e-04
7.70000000e-01	1.22812381e-02	1.28120827e-04
7.71000000e-01	1.21423262e-02	1.27328462e-04
7.72000000e-01	1.21207633e-02	1.30891412e-04
7.73000000e-01	1.22976707e-02	1.36414029e-04
7.74000000e-01	1.21303238e-02	1.37463836e-04
7.75000000e-01	1.21427510e-02	1.40177965e-04
7.76000000e-01	1.20278368e-02	1.40852425e-04
7.77000000e-01	1.21760073e-02	1.44788926e-04
7.78000000e-01	1.20913169e-02	1.45432430e-04
7.79000000e-01	1.19633731e-02	1.46066167e-04
7.80000000e-01	1.20294522e-02	1.48053941e-04
7.81000000e-01	1.20007336e-02	1.49869674e-04
7.82000000e-01	1.20780411e-02	1.52101372e-04
7.83000000e-01	1.21321327e-02	1.54113785e-04
7.84000000e-01	1.19783413e-02	1.54636710e-04
7.85000000e-01	1.20168505e-02	1.56172085e-04
7.86000000e-01	1.19812922e-02	1.57417810e-04
7.87000000e-01	1.20081403e-02	1.59522504e-04
7.88000000e-01	1.20924158e-02	1.62249553e-04
7.89000000e-01	1.20183460e-02	1.62426748e-04
7.90000000e-01	1.18157856e-02	1.62359979e-04
7.91000000e-01	1.19130242e-02	1.65275297e-04
7.92000000e-01	1.18595093e-02	1.66722266e-04
7.93000000e-01	1.18323191e-02	1.67545831e-04
7.94000000e-01	1.18747158e-02	1.69527570e-04
7.95000000e-01	1.18463717e-02	1.70479478e-04
7.96000000e-01	1.18395928e-02	1.72202100e-04
7.97000000e-01	1.20147244e-02	1.76972805e-04
7.98000000e-01	1.17432080e-02	1.74020681e-04
7.99000000e-01	1.18111781e-02	1.76824167e-04
8.00000000e-01	1.18460263e-02	1.79702104e-04
8.01000000e-01	1.19743151e-02	1.83921978e-04
8.02000000e-01	1.18239848e-02	1.82090144e-04
8.03000000e-01	1.18666621e-02	1.85365566e-04
8.04000000e-01	1.18577324e-02	1.87045688e-04
8.05000000e-01	1.18214019e-02	1.88692288e-04
8.06000000e-01	1.18208534e-02	1.91214350e-04
8.07000000e-01	1.19791686e-02	1.94874258e-04
8.08000000e-01	1.16830008e-02	1.94192008e-04
8.09000000e-01	1.17409682e-02	1.96137408e-04
8.10000000e-01	1.15724419e-02	1.95854943e-04
8.11000000e-01	1.18125392e-02	2.01371169e-04
8.12000000e-01	1.16897000e-02	2.01639613e-04
8.13000000e-01	1.15460725e-02	2.02002932e-04
8.14000000e-01	1.16198412e-02	2.05364440e-04
8.15000000e-01	1.15525204e-02	2.06961379e-04
8.16000000e-01	1.18256483e-02	2.12308414e-04
8.17000000e-01	1.15427979e-02	2.13564467e-04
8.18000000e-01	1.15306237e-02	2.14141685e-04
8.19000000e-01	1.14973721e-02	2.16816416e-04
8.20000000e-01	1.15266563e-02	2.18779542e-04
8.21000000e-01	1.14803296e-02	2.21704287e-04
8.22000000e-01	1.16077147e-02	2.26755119e-04
8.23000000e-01	1.15179668e-02	2.28326352e-04
8.24000000e-01	1.13386536e-02	2.29253396e-04
8.25000000e-01	1.16511108e-02	2.36506641e-04
8.26000000e-01	1.12475405e-02	2.35622317e-04
8.27000000e-01	1.13155797e-02	2.36472026e-04
8.28000000e-01	1.13521692e-02	2.43001663e-04
8.29000000e-01	1.11551310e-02	2.41379444e-04
8.30000000e-01	1.10021211e-02	2.42908674e-04
8.31000000e-01	1.18130031e-02	2.62829126e-04
8.32000000e-01	1.13720531e-02	2.57865081e-04
8.33000000e-01	1.10093237e-02	2.54110247e-04
8.34000000e-01	1.12841270e-02	2.68110299e-04
8.35000000e-01	1.14088463e-02	2.72362441e-04
8.36000000e-01	1.12381260e-02	2.75450665e-04
8.37000000e-01	1.13565754e-02	2.82528585e-04
8.38000000e-01	1.11967521e-02	2.86720784e-04
8.39000000e-01	1.10294757e-02	2.88542286e-04
8.40000000e-01	1.10623721e-02	2.92464591e-04
8.41000000e-01	1.09109469e-02	2.96235215e-04
8.42000000e-01	1.08113980e-02	3.00515003e-04
8.43000000e-01	1.11169511e-02	3.11742871e-04
8.44000000e-01	1.12010988e-02	3.23406097e-04
8.45000000e-01	1.13114679e-02	3.34038498e-04
8.46000000e-01	1.14153418e-02	3.49160287e-04
8.47000000e-01	1.14684053e-02	3.60949206e-04
8.48000000e-01	1.09000192e-02	3.58460041e-04
8.49000000e-01	1.12127747e-02	3.79874480e-04
8.50000000e-01	1.11631067e-02	3.87527063e-04
8.51000000e-01	1.15722248e-02	4.11540903e-04
8.52000000e-01	1.09814318e-02	4.14657834e-04
8.53000000e-01	1.15342031e-02	4.50198127e-04
8.54000000e-01	1.11508112e-02	4.59652592e-04
8.55000000e-01	1.05406465e-02	4.50495099e-04
8.56000000e-01	1.15131854e-02	4.96853760e-04
8.57000000e-01	1.09972721e-02	4.89106058e-04
8.58000000e-01	1.04702014e-02	4.91673119e-04
8.59000000e-01	1.05111187e-02	4.97777542e-04
8.60000000e-01	1.08591269e-02	5.33233770e-04
8.61000000e-01	1.01345244e-02	5.24482199e-04
8.62000000e-01	1.09620535e-02	5.71261124e-04
8.63000000e-01	1.03328248e-02	5.77959169e-04
8.64000000e-01	1.06075424e-02	6.03872785e-04
8.65000000e-01	1.10321371e-02	6.52061175e-04
8.66000000e-01	1.04995807e-02	6.62129376e-04
8.67000000e-01	1.08944622e-02	7.17611717e-04
8.68000000e-01	1.10404874e-02	7.67351495e-04
8.69000000e-01	1.09837714e-02	8.35192853e-04
8.70000000e-01	1.06227828e-02	9.03127693e-04
8.71000000e-01	1.03621899e-02	9.52172003e-04
8.72000000e-01	1.05581599e-02	1.10008774e-03
8.73000000e-01	1.04282234e-02	1.36199956e-03
8.74000000e-01	1.07812116e-02	1.69175634e-03
8.75000000e-01	1.36189832e-02	4.38175409e-03
