% Filename : SEC3_00043_00003.h5
% Date & Time : 30-Oct-2025 18:02:16
% X-ray Energy (keV) : 13.30001
% Exposure Time (s) : 0.500
% Beam Center : 1461.24000, 208.98300
% Sample to Detector Distance (SDD) (mm) : 1990.750
% Detector Pixel Size (mm) : 0.075
% Photodiode Value : 141677.000
% I0 of Sample : 0
% I0 of Standard : 1
% 
% q(A^-1)   I(q)    I(q)_SE
0.00000000e+00	1.27520386e-02	6.50228761e-03
2.50000000e-04	0.00000000e+00	0.00000000e+00
5.00000000e-04	0.00000000e+00	0.00000000e+00
7.50000000e-04	0.00000000e+00	0.00000000e+00
1.00000000e-03	0.00000000e+00	0.00000000e+00
1.25000000e-03	0.00000000e+00	0.00000000e+00
1.50000000e-03	0.00000000e+00	0.00000000e+00
1.75000000e-03	0.00000000e+00	0.00000000e+00
2.00000000e-03	0.00000000e+00	0.00000000e+00
2.25000000e-03	0.00000000e+00	0.00000000e+00
2.50000000e-03	0.00000000e+00	0.00000000e+00
2.75000000e-03	0.00000000e+00	0.00000000e+00
3.00000000e-03	0.00000000e+00	0.00000000e+00
3.25000000e-03	4.95531883e+02	3.01213494e+02
3.50000000e-03	1.82188691e+02	5.44524373e+01
3.75000000e-03	1.25819797e+02	3.42276392e+01
4.00000000e-03	9.31518125e+01	2.24722638e+01
4.25000000e-03	5.37549732e+01	1.11243595e+01
4.50000000e-03	5.31622397e+01	9.12433982e+00
4.75000000e-03	5.04094945e+01	7.74576883e+00
5.00000000e-03	3.84328909e+01	5.63422037e+00
5.25000000e-03	3.16010332e+01	4.58267450e+00
5.50000000e-03	2.57916667e+01	3.60865182e+00
5.75000000e-03	2.21649351e+01	3.00442342e+00
6.00000000e-03	1.78487257e+01	2.33663096e+00
6.25000000e-03	1.56407346e+01	1.99967737e+00
6.50000000e-03	1.30171782e+01	1.62166441e+00
6.75000000e-03	1.12538389e+01	1.35683453e+00
7.00000000e-03	9.75498178e+00	1.14241290e+00
7.25000000e-03	8.57072162e+00	9.79229615e-01
7.50000000e-03	7.39367302e+00	8.44410285e-01
7.75000000e-03	6.27800355e+00	6.96545742e-01
8.00000000e-03	5.79069304e+00	6.21229506e-01
8.25000000e-03	4.98989874e+00	5.20221198e-01
8.50000000e-03	4.51135202e+00	4.60999667e-01
8.75000000e-03	4.06727320e+00	4.13197030e-01
9.00000000e-03	3.60731689e+00	3.61794043e-01
9.25000000e-03	3.25859865e+00	3.17237712e-01
9.50000000e-03	2.91788158e+00	2.80239457e-01
9.75000000e-03	2.64119452e+00	2.51987332e-01
1.00000000e-02	2.33769689e+00	2.19781917e-01
1.02500000e-02	2.16375864e+00	2.03753767e-01
1.05000000e-02	2.03014616e+00	1.83208668e-01
1.07500000e-02	1.84620402e+00	1.68077514e-01
1.10000000e-02	1.66215190e+00	1.48334033e-01
1.12500000e-02	1.53032646e+00	1.37463268e-01
1.15000000e-02	1.43700700e+00	1.27206555e-01
1.17500000e-02	1.27813829e+00	1.10495690e-01
1.20000000e-02	1.20741629e+00	1.02900307e-01
1.22500000e-02	1.11321682e+00	9.34770848e-02
1.25000000e-02	1.05003241e+00	8.81485695e-02
1.27500000e-02	9.75229351e-01	8.04365545e-02
1.30000000e-02	9.04457159e-01	7.24542661e-02
1.32500000e-02	8.35951281e-01	6.57286992e-02
1.35000000e-02	7.76309738e-01	6.07876119e-02
1.37500000e-02	7.29520887e-01	5.65481675e-02
1.40000000e-02	6.81232438e-01	5.19308027e-02
1.42500000e-02	6.31790576e-01	4.68269009e-02
1.45000000e-02	6.00119610e-01	4.42950112e-02
1.47500000e-02	5.64659327e-01	4.15969092e-02
1.50000000e-02	5.25577687e-01	3.81273566e-02
1.52500000e-02	4.98290522e-01	3.57042450e-02
1.55000000e-02	4.71008434e-01	3.31093699e-02
1.57500000e-02	4.44750386e-01	3.10626411e-02
1.60000000e-02	4.18856110e-01	2.88898951e-02
1.62500000e-02	4.06981434e-01	2.82763468e-02
1.65000000e-02	3.75543316e-01	2.57357136e-02
1.67500000e-02	3.60774218e-01	2.41606009e-02
1.70000000e-02	3.39420843e-01	2.26645175e-02
1.72500000e-02	3.30945545e-01	2.17753651e-02
1.75000000e-02	3.07952185e-01	2.04253089e-02
1.77500000e-02	2.92191898e-01	1.90923086e-02
1.80000000e-02	2.85429508e-01	1.87086435e-02
1.82500000e-02	2.67385243e-01	1.68204806e-02
1.85000000e-02	2.60089107e-01	1.69287822e-02
1.87500000e-02	2.48340984e-01	1.56728601e-02
1.90000000e-02	2.34170866e-01	1.47162260e-02
1.92500000e-02	2.24123754e-01	1.38960816e-02
1.95000000e-02	2.15977328e-01	1.31832066e-02
1.97500000e-02	2.08360394e-01	1.27557816e-02
2.00000000e-02	1.94727190e-01	1.18697963e-02
2.02500000e-02	1.87584515e-01	1.12583053e-02
2.05000000e-02	1.83644693e-01	1.07876745e-02
2.07500000e-02	1.77725980e-01	1.04534701e-02
2.10000000e-02	1.73569853e-01	1.02412220e-02
2.12500000e-02	1.69735906e-01	9.99978703e-03
2.15000000e-02	1.60095784e-01	9.25764043e-03
2.17500000e-02	1.58305398e-01	9.23128882e-03
2.20000000e-02	1.52431911e-01	8.81131980e-03
2.22500000e-02	1.46444560e-01	8.43052534e-03
2.25000000e-02	1.46159868e-01	8.46212411e-03
2.27500000e-02	1.39366961e-01	7.94656695e-03
2.30000000e-02	1.40073058e-01	8.12520393e-03
2.32500000e-02	1.33634229e-01	7.64203049e-03
2.35000000e-02	1.30457272e-01	7.45782103e-03
2.37500000e-02	1.26532118e-01	7.10511302e-03
2.40000000e-02	1.22309023e-01	6.93572387e-03
2.42500000e-02	1.20361442e-01	6.70186931e-03
2.45000000e-02	1.15280812e-01	6.48952637e-03
2.47500000e-02	1.13164096e-01	6.24482624e-03
2.50000000e-02	1.11328611e-01	6.14975935e-03
2.52500000e-02	1.10564528e-01	6.12043757e-03
2.55000000e-02	1.06173651e-01	5.72197749e-03
2.57500000e-02	1.02412399e-01	5.55581703e-03
2.60000000e-02	9.85923358e-02	5.33201156e-03
2.62500000e-02	9.82630979e-02	5.37757909e-03
2.65000000e-02	9.59776296e-02	5.17701263e-03
2.67500000e-02	9.54335866e-02	5.08875292e-03
2.70000000e-02	9.23225757e-02	4.85559770e-03
2.72500000e-02	8.91877277e-02	4.70495890e-03
2.75000000e-02	8.68884881e-02	4.65281710e-03
2.77500000e-02	8.65369822e-02	4.58067859e-03
2.80000000e-02	8.17716872e-02	4.19841156e-03
2.82500000e-02	8.40587892e-02	4.37435809e-03
2.85000000e-02	8.26746485e-02	4.25837524e-03
2.87500000e-02	7.91649079e-02	4.10124278e-03
2.90000000e-02	7.94823745e-02	4.09816404e-03
2.92500000e-02	7.53205953e-02	3.76405673e-03
2.95000000e-02	7.52306177e-02	3.82653943e-03
2.97500000e-02	7.30679593e-02	3.66024325e-03
3.00000000e-02	7.28789173e-02	3.65650367e-03
3.02500000e-02	7.26236678e-02	3.62925287e-03
3.05000000e-02	6.95873209e-02	3.40495712e-03
3.07500000e-02	6.86889006e-02	3.42438032e-03
3.10000000e-02	6.77159982e-02	3.31520878e-03
3.12500000e-02	6.63418367e-02	3.30839420e-03
3.15000000e-02	6.39888261e-02	3.14036692e-03
3.17500000e-02	6.46064262e-02	3.11893565e-03
3.20000000e-02	6.33102145e-02	3.05256600e-03
3.22500000e-02	6.08778134e-02	2.95439290e-03
3.25000000e-02	6.06393788e-02	2.94895690e-03
3.27500000e-02	5.81922664e-02	2.78079206e-03
3.30000000e-02	5.68478263e-02	2.69140356e-03
3.32500000e-02	5.73719919e-02	2.72426637e-03
3.35000000e-02	5.75142744e-02	2.75437425e-03
3.37500000e-02	5.68712908e-02	2.71892838e-03
3.40000000e-02	5.44274557e-02	2.57008822e-03
3.42500000e-02	5.39176875e-02	2.51787459e-03
3.45000000e-02	5.21747044e-02	2.45197625e-03
3.47500000e-02	5.17884506e-02	2.42829887e-03
3.50000000e-02	5.08983844e-02	2.35761836e-03
3.52500000e-02	5.03083379e-02	2.33311002e-03
3.55000000e-02	5.03631800e-02	2.29536637e-03
3.57500000e-02	4.91170318e-02	2.26876084e-03
3.60000000e-02	4.89553301e-02	2.25513837e-03
3.62500000e-02	4.83164529e-02	2.24622318e-03
3.65000000e-02	4.55761002e-02	2.07160860e-03
3.67500000e-02	4.62526781e-02	2.11181210e-03
3.70000000e-02	4.48315670e-02	2.03981393e-03
3.72500000e-02	4.45801492e-02	2.00673804e-03
3.75000000e-02	4.35110034e-02	1.97125333e-03
3.77500000e-02	4.31033554e-02	1.94962492e-03
3.80000000e-02	4.42315721e-02	1.97754249e-03
3.82500000e-02	4.26450551e-02	1.90107699e-03
3.85000000e-02	4.24162805e-02	1.89093658e-03
3.87500000e-02	4.15368974e-02	1.83961505e-03
3.90000000e-02	4.27294841e-02	1.91353967e-03
3.92500000e-02	4.13891450e-02	1.80075820e-03
3.95000000e-02	3.97386488e-02	1.76114098e-03
3.97500000e-02	4.03068889e-02	1.79902892e-03
4.00000000e-02	3.96541911e-02	1.75245973e-03
4.02500000e-02	3.89296461e-02	1.70228085e-03
4.05000000e-02	3.98461719e-02	1.73280407e-03
4.07500000e-02	3.78427793e-02	1.61833231e-03
4.10000000e-02	3.83799422e-02	1.68242034e-03
4.12500000e-02	3.74652809e-02	1.62793217e-03
4.15000000e-02	3.73027462e-02	1.58884930e-03
4.17500000e-02	3.76724189e-02	1.60031631e-03
4.20000000e-02	3.74903582e-02	1.59390236e-03
4.22500000e-02	3.67297950e-02	1.55713540e-03
4.25000000e-02	3.58086436e-02	1.52624183e-03
4.27500000e-02	3.53959176e-02	1.48894881e-03
4.30000000e-02	3.52421785e-02	1.50382489e-03
4.32500000e-02	3.53683872e-02	1.49069528e-03
4.35000000e-02	3.48199579e-02	1.47389069e-03
4.37500000e-02	3.47204195e-02	1.44278216e-03
4.40000000e-02	3.45961315e-02	1.45204925e-03
4.42500000e-02	3.43547305e-02	1.43830469e-03
4.45000000e-02	3.41012536e-02	1.39865337e-03
4.47500000e-02	3.35958156e-02	1.39176069e-03
4.50000000e-02	3.31762772e-02	1.37512333e-03
4.52500000e-02	3.27871766e-02	1.34901056e-03
4.55000000e-02	3.25276277e-02	1.33947769e-03
4.57500000e-02	3.22573393e-02	1.32630975e-03
4.60000000e-02	3.17998271e-02	1.30838625e-03
4.62500000e-02	3.14236110e-02	1.30212922e-03
4.65000000e-02	3.11222027e-02	1.26846152e-03
4.67500000e-02	3.14772234e-02	1.27681425e-03
4.70000000e-02	3.14592260e-02	1.28066506e-03
4.72500000e-02	3.17436689e-02	1.29739843e-03
4.75000000e-02	3.04545797e-02	1.23933776e-03
4.77500000e-02	3.03039475e-02	1.21888925e-03
4.80000000e-02	3.03245114e-02	1.21310799e-03
4.82500000e-02	3.02106665e-02	1.21181595e-03
4.85000000e-02	3.01304045e-02	1.22028948e-03
4.87500000e-02	3.05484490e-02	1.23211267e-03
4.90000000e-02	3.01194380e-02	1.19949508e-03
4.92500000e-02	2.92678223e-02	1.16664796e-03
4.95000000e-02	2.95079522e-02	1.17358642e-03
4.97500000e-02	3.00830474e-02	1.19611599e-03
5.00000000e-02	2.89894592e-02	1.16503733e-03
5.02500000e-02	2.92867152e-02	1.15473078e-03
5.05000000e-02	2.88262437e-02	1.13395620e-03
5.07500000e-02	2.84731971e-02	1.12407610e-03
5.10000000e-02	2.80547853e-02	1.10462842e-03
5.12500000e-02	2.83295469e-02	1.11059253e-03
5.15000000e-02	2.73908553e-02	1.06371286e-03
5.17500000e-02	2.75213757e-02	1.08056820e-03
5.20000000e-02	2.80180797e-02	1.09630704e-03
5.22500000e-02	2.79191183e-02	1.09148349e-03
5.25000000e-02	2.78323584e-02	1.08395358e-03
5.27500000e-02	2.70158806e-02	1.04050350e-03
5.30000000e-02	2.81014802e-02	1.09679781e-03
5.32500000e-02	2.79345724e-02	1.07654519e-03
5.35000000e-02	2.75937033e-02	1.06804466e-03
5.37500000e-02	2.73415451e-02	1.05703689e-03
5.40000000e-02	2.65065821e-02	1.02442295e-03
5.42500000e-02	2.66050072e-02	1.03122033e-03
5.45000000e-02	2.67705967e-02	1.02830893e-03
5.47500000e-02	2.60745541e-02	1.00481606e-03
5.50000000e-02	2.57200185e-02	9.88035307e-04
5.52500000e-02	2.68457852e-02	1.01550202e-03
5.55000000e-02	2.65426428e-02	1.00518086e-03
5.57500000e-02	2.65289531e-02	1.01792747e-03
5.60000000e-02	2.59111326e-02	9.83696188e-04
5.62500000e-02	2.59875614e-02	9.88542801e-04
5.65000000e-02	2.60041805e-02	9.80119485e-04
5.67500000e-02	2.56256126e-02	9.70604610e-04
5.70000000e-02	2.66426807e-02	9.96588793e-04
5.72500000e-02	2.58944870e-02	9.73370208e-04
5.75000000e-02	2.55013637e-02	9.67113823e-04
5.77500000e-02	2.49693053e-02	9.30089666e-04
5.80000000e-02	2.55351024e-02	9.61049406e-04
5.82500000e-02	2.54478203e-02	9.39428916e-04
5.85000000e-02	2.51186590e-02	9.38349399e-04
5.87500000e-02	2.51042720e-02	9.27076340e-04
5.90000000e-02	2.49862841e-02	9.25030050e-04
5.92500000e-02	2.51534500e-02	9.24542592e-04
5.95000000e-02	2.50902896e-02	9.23871180e-04
5.97500000e-02	2.46981781e-02	9.14207147e-04
6.00000000e-02	2.46949085e-02	9.05030136e-04
6.02500000e-02	2.45515431e-02	8.97062748e-04
6.05000000e-02	2.35372902e-02	8.64228613e-04
6.07500000e-02	2.45796364e-02	8.99345885e-04
6.10000000e-02	2.45708974e-02	9.04809341e-04
6.12500000e-02	2.39932175e-02	8.76787793e-04
6.15000000e-02	2.39961154e-02	8.81161269e-04
6.17500000e-02	2.43850255e-02	8.88198642e-04
6.20000000e-02	2.46779313e-02	8.93779221e-04
6.22500000e-02	2.42514985e-02	8.79109315e-04
6.25000000e-02	2.37781602e-02	8.68736690e-04
6.27500000e-02	2.34650373e-02	8.46421428e-04
6.30000000e-02	2.38870095e-02	8.64088442e-04
6.32500000e-02	2.37431047e-02	8.54216374e-04
6.35000000e-02	2.36870229e-02	8.55752761e-04
6.37500000e-02	2.41109762e-02	8.75331006e-04
6.40000000e-02	2.38362124e-02	8.58668647e-04
6.42500000e-02	2.35687267e-02	8.41845639e-04
6.45000000e-02	2.37002153e-02	8.55223661e-04
6.47500000e-02	2.34147889e-02	8.37080014e-04
6.50000000e-02	2.32485152e-02	8.31022214e-04
6.52500000e-02	2.37163701e-02	8.48492057e-04
6.55000000e-02	2.31947588e-02	8.26209969e-04
6.57500000e-02	2.33889511e-02	8.28275527e-04
6.60000000e-02	2.32017579e-02	8.30474477e-04
6.62500000e-02	2.33100768e-02	8.28076399e-04
6.65000000e-02	2.40621103e-02	8.45820460e-04
6.67500000e-02	2.28140391e-02	8.07789757e-04
6.70000000e-02	2.35290334e-02	8.32606745e-04
6.72500000e-02	2.29936695e-02	8.13744768e-04
6.75000000e-02	2.31570843e-02	8.12202557e-04
6.77500000e-02	2.26733726e-02	7.95261952e-04
6.80000000e-02	2.33163319e-02	8.16519835e-04
6.82500000e-02	2.34538041e-02	8.22157420e-04
6.85000000e-02	2.26008178e-02	7.99106751e-04
6.87500000e-02	2.33327829e-02	8.13432805e-04
6.90000000e-02	2.26771308e-02	7.93235324e-04
6.92500000e-02	2.27875556e-02	7.95880106e-04
6.95000000e-02	2.26745778e-02	7.91844562e-04
6.97500000e-02	2.24334982e-02	7.82215920e-04
7.00000000e-02	2.24913730e-02	7.78712314e-04
7.02500000e-02	2.18679366e-02	7.54264040e-04
7.05000000e-02	2.26736814e-02	7.83837701e-04
7.07500000e-02	2.24038952e-02	7.78104969e-04
7.10000000e-02	2.23770600e-02	7.70863960e-04
7.12500000e-02	2.21050418e-02	7.65199941e-04
7.15000000e-02	2.26561235e-02	7.75043147e-04
7.17500000e-02	2.28247534e-02	7.80923701e-04
7.20000000e-02	2.24660734e-02	7.73011113e-04
7.22500000e-02	2.25820972e-02	7.76338115e-04
7.25000000e-02	2.25288743e-02	7.67296133e-04
7.27500000e-02	2.24176850e-02	7.67425243e-04
7.30000000e-02	2.21998839e-02	7.54449765e-04
7.32500000e-02	2.23541149e-02	7.55796622e-04
7.35000000e-02	2.23397468e-02	7.63739393e-04
7.37500000e-02	2.18894315e-02	7.45213653e-04
7.40000000e-02	2.30774067e-02	7.74984472e-04
7.42500000e-02	2.22818084e-02	7.58065280e-04
7.45000000e-02	2.26997744e-02	7.67288686e-04
7.47500000e-02	2.13644791e-02	7.25946999e-04
7.50000000e-02	2.23385908e-02	7.55500117e-04
7.52500000e-02	2.16852541e-02	7.34645032e-04
7.55000000e-02	2.18831480e-02	7.36724746e-04
7.57500000e-02	2.20029458e-02	7.44239115e-04
7.60000000e-02	2.16630524e-02	7.23795419e-04
7.62500000e-02	2.20721446e-02	7.40882588e-04
7.65000000e-02	2.15913768e-02	7.22094031e-04
7.67500000e-02	2.13651115e-02	7.13070571e-04
7.70000000e-02	2.21674390e-02	7.34047916e-04
7.72500000e-02	2.17293222e-02	7.43117308e-04
7.75000000e-02	2.14633368e-02	7.37036605e-04
7.77500000e-02	2.17458548e-02	7.53639501e-04
7.80000000e-02	2.20321947e-02	7.61832045e-04
7.82500000e-02	2.19019551e-02	7.64196875e-04
7.85000000e-02	2.19370861e-02	7.73480021e-04
7.87500000e-02	2.20401224e-02	7.70134421e-04
7.90000000e-02	2.15788110e-02	7.61567072e-04
7.92500000e-02	2.19507055e-02	7.75794841e-04
7.95000000e-02	2.13667934e-02	7.57669216e-04
7.97500000e-02	2.22702656e-02	7.87125316e-04
8.00000000e-02	2.23803342e-02	7.94161913e-04
8.02500000e-02	2.17470556e-02	7.75724764e-04
8.05000000e-02	2.15284287e-02	7.63321557e-04
8.07500000e-02	2.20358805e-02	7.90443843e-04
8.10000000e-02	2.16664887e-02	7.80797568e-04
8.12500000e-02	2.17573623e-02	7.78156074e-04
8.15000000e-02	2.19819237e-02	7.89299103e-04
8.17500000e-02	2.13029210e-02	7.78453073e-04
8.20000000e-02	2.14103927e-02	7.74295251e-04
8.22500000e-02	2.15805407e-02	7.80822441e-04
8.25000000e-02	2.13793621e-02	7.80033556e-04
8.27500000e-02	2.12225949e-02	7.68080230e-04
8.30000000e-02	2.15453325e-02	7.85948685e-04
8.32500000e-02	2.21342965e-02	8.05661567e-04
8.35000000e-02	2.16684452e-02	7.96278215e-04
8.37500000e-02	2.08351943e-02	7.55852824e-04
8.40000000e-02	2.17756544e-02	7.92516505e-04
8.42500000e-02	2.13939799e-02	7.93226310e-04
8.45000000e-02	2.08032240e-02	7.64583802e-04
8.47500000e-02	2.16397896e-02	7.90629439e-04
8.50000000e-02	2.07890812e-02	7.65710472e-04
8.52500000e-02	2.15910576e-02	7.98144876e-04
8.55000000e-02	2.18828876e-02	7.98913217e-04
8.57500000e-02	2.21808885e-02	8.21041364e-04
8.60000000e-02	2.07255653e-02	7.71819703e-04
8.62500000e-02	2.09360253e-02	7.70504319e-04
8.65000000e-02	2.06484426e-02	7.57937611e-04
8.67500000e-02	2.10013978e-02	7.72901916e-04
8.70000000e-02	2.14474563e-02	7.77245703e-04
8.72500000e-02	2.11783735e-02	7.50431579e-04
8.75000000e-02	2.14916407e-02	7.49115759e-04
8.77500000e-02	2.07971148e-02	7.27221556e-04
8.80000000e-02	2.11946017e-02	7.40651272e-04
8.82500000e-02	2.14119585e-02	7.46226688e-04
8.85000000e-02	2.14217332e-02	7.48228929e-04
8.87500000e-02	2.12530360e-02	7.26937599e-04
8.90000000e-02	2.18321038e-02	7.48885003e-04
8.92500000e-02	2.12195990e-02	7.26124193e-04
8.95000000e-02	2.15660267e-02	7.37760108e-04
8.97500000e-02	2.08371725e-02	7.01440926e-04
9.00000000e-02	2.08534163e-02	7.02417058e-04
9.02500000e-02	2.10785365e-02	7.12578661e-04
9.05000000e-02	2.07973011e-02	6.99893026e-04
9.07500000e-02	2.14703110e-02	7.16301312e-04
9.10000000e-02	2.10429614e-02	7.03699446e-04
9.12500000e-02	2.09975816e-02	6.94353533e-04
9.15000000e-02	2.09618269e-02	6.99093465e-04
9.17500000e-02	2.10340698e-02	7.00106793e-04
9.20000000e-02	2.09036336e-02	6.97064725e-04
9.22500000e-02	2.16008685e-02	7.10832550e-04
9.25000000e-02	2.10775055e-02	6.96284088e-04
9.27500000e-02	2.09044632e-02	6.91631039e-04
9.30000000e-02	2.01720229e-02	6.70547865e-04
9.32500000e-02	2.11573898e-02	6.97585966e-04
9.35000000e-02	2.11238041e-02	6.91859276e-04
9.37500000e-02	2.07065416e-02	6.78770184e-04
9.40000000e-02	2.05532601e-02	6.76559326e-04
9.42500000e-02	2.08201185e-02	6.76860612e-04
9.45000000e-02	2.04191619e-02	6.62763993e-04
9.47500000e-02	2.09425872e-02	6.79040782e-04
9.50000000e-02	2.14981834e-02	6.91721974e-04
9.52500000e-02	2.09236432e-02	6.81221739e-04
9.55000000e-02	2.01482763e-02	6.54526285e-04
9.57500000e-02	2.05724188e-02	6.65406997e-04
9.60000000e-02	2.08120041e-02	6.71150663e-04
9.62500000e-02	2.08636415e-02	6.67764762e-04
9.65000000e-02	2.04803580e-02	6.62101524e-04
9.67500000e-02	2.11619702e-02	6.75809000e-04
9.70000000e-02	2.04031172e-02	6.53620466e-04
9.72500000e-02	2.09647326e-02	6.69612595e-04
9.75000000e-02	2.07256443e-02	6.64897426e-04
9.77500000e-02	2.10672484e-02	6.62948808e-04
9.80000000e-02	2.09642476e-02	6.67367950e-04
9.82500000e-02	2.05472278e-02	6.53498391e-04
9.85000000e-02	2.11316419e-02	6.64946101e-04
9.87500000e-02	2.03390237e-02	6.43008050e-04
9.90000000e-02	2.03739828e-02	6.43138892e-04
9.92500000e-02	2.06088043e-02	6.53748892e-04
9.95000000e-02	2.09439967e-02	6.55295435e-04
9.97500000e-02	2.06003714e-02	6.44955810e-04
1.00000000e-01	2.07969953e-02	5.33529632e-04
1.00500000e-01	2.08116140e-02	4.66017061e-04
1.01000000e-01	2.04727521e-02	4.52581179e-04
1.01500000e-01	2.03117036e-02	4.48762501e-04
1.02000000e-01	2.06097314e-02	4.53612002e-04
1.02500000e-01	2.07216469e-02	4.53867162e-04
1.03000000e-01	2.07963523e-02	4.54699009e-04
1.03500000e-01	2.01512533e-02	4.40886452e-04
1.04000000e-01	2.02707126e-02	4.39928382e-04
1.04500000e-01	2.03615353e-02	4.40773698e-04
1.05000000e-01	2.08318060e-02	4.49430068e-04
1.05500000e-01	2.04672215e-02	4.40889959e-04
1.06000000e-01	2.04343847e-02	4.42136502e-04
1.06500000e-01	2.02717859e-02	4.35265479e-04
1.07000000e-01	2.04208797e-02	4.44986301e-04
1.07500000e-01	2.05820950e-02	4.55252162e-04
1.08000000e-01	2.02613708e-02	4.52440609e-04
1.08500000e-01	2.03509450e-02	4.59111826e-04
1.09000000e-01	2.05537031e-02	4.62268398e-04
1.09500000e-01	2.02643322e-02	4.61036467e-04
1.10000000e-01	2.05172232e-02	4.60764777e-04
1.10500000e-01	2.02438717e-02	4.45975375e-04
1.11000000e-01	2.04573326e-02	4.42581515e-04
1.11500000e-01	2.03453991e-02	4.38253107e-04
1.12000000e-01	2.01246612e-02	4.30248352e-04
1.12500000e-01	2.02593150e-02	4.27612113e-04
1.13000000e-01	2.04940791e-02	4.32095878e-04
1.13500000e-01	2.04065041e-02	4.29040030e-04
1.14000000e-01	2.05573713e-02	4.30879503e-04
1.14500000e-01	2.01380386e-02	4.22373574e-04
1.15000000e-01	2.01834802e-02	4.20025285e-04
1.15500000e-01	2.02617410e-02	4.21160917e-04
1.16000000e-01	2.06178774e-02	4.27098353e-04
1.16500000e-01	2.03381276e-02	4.20039047e-04
1.17000000e-01	2.01714007e-02	4.16755125e-04
1.17500000e-01	2.02200460e-02	4.16109559e-04
1.18000000e-01	2.06871924e-02	4.26790189e-04
1.18500000e-01	2.03159292e-02	4.13946601e-04
1.19000000e-01	2.02994748e-02	4.14268162e-04
1.19500000e-01	2.01874012e-02	4.11311162e-04
1.20000000e-01	2.07728490e-02	4.21678195e-04
1.20500000e-01	2.02801548e-02	4.13830714e-04
1.21000000e-01	2.06708863e-02	4.16229799e-04
1.21500000e-01	2.02911270e-02	4.10765028e-04
1.22000000e-01	1.98642858e-02	4.00394837e-04
1.22500000e-01	2.03557553e-02	4.07975681e-04
1.23000000e-01	2.02261427e-02	4.05659352e-04
1.23500000e-01	2.02191508e-02	4.05190043e-04
1.24000000e-01	2.01399309e-02	4.04162731e-04
1.24500000e-01	2.04545232e-02	4.06103999e-04
1.25000000e-01	2.07219819e-02	4.11312703e-04
1.25500000e-01	2.06042915e-02	4.08378752e-04
1.26000000e-01	2.02389354e-02	4.00618531e-04
1.26500000e-01	2.00829011e-02	3.97151448e-04
1.27000000e-01	2.03796885e-02	4.00511987e-04
1.27500000e-01	1.99811714e-02	3.94163042e-04
1.28000000e-01	2.02570792e-02	3.98477027e-04
1.28500000e-01	2.03835525e-02	3.98390040e-04
1.29000000e-01	2.03348192e-02	3.99017400e-04
1.29500000e-01	2.02783117e-02	3.95976698e-04
1.30000000e-01	2.01149712e-02	3.91176102e-04
1.30500000e-01	1.99254701e-02	3.86576103e-04
1.31000000e-01	1.97365521e-02	3.83262632e-04
1.31500000e-01	2.03087116e-02	3.93798050e-04
1.32000000e-01	1.99910021e-02	3.86018579e-04
1.32500000e-01	2.00629666e-02	3.85773221e-04
1.33000000e-01	2.01672878e-02	3.86979442e-04
1.33500000e-01	1.98452655e-02	3.79873607e-04
1.34000000e-01	2.00829640e-02	3.85181708e-04
1.34500000e-01	2.00334517e-02	3.80596507e-04
1.35000000e-01	1.98432401e-02	3.78650766e-04
1.35500000e-01	2.00528397e-02	3.80683531e-04
1.36000000e-01	2.05590554e-02	3.89131702e-04
1.36500000e-01	1.98379822e-02	3.76654453e-04
1.37000000e-01	2.00692250e-02	3.78843484e-04
1.37500000e-01	2.00371033e-02	3.77385834e-04
1.38000000e-01	1.98364578e-02	3.74668895e-04
1.38500000e-01	2.02170543e-02	3.81083929e-04
1.39000000e-01	1.99664578e-02	3.75447229e-04
1.39500000e-01	1.99857031e-02	3.76096449e-04
1.40000000e-01	1.99945535e-02	3.76195882e-04
1.40500000e-01	1.98278628e-02	3.71284314e-04
1.41000000e-01	1.99896329e-02	3.75283067e-04
1.41500000e-01	2.01336323e-02	3.76926821e-04
1.42000000e-01	2.00468370e-02	3.72948371e-04
1.42500000e-01	1.98925705e-02	3.70802043e-04
1.43000000e-01	2.02458870e-02	3.77745725e-04
1.43500000e-01	1.99722778e-02	3.68961891e-04
1.44000000e-01	2.00077875e-02	3.73014590e-04
1.44500000e-01	1.98174596e-02	3.65423999e-04
1.45000000e-01	1.97777265e-02	3.65475688e-04
1.45500000e-01	1.97246847e-02	3.64416870e-04
1.46000000e-01	1.96488000e-02	3.61449214e-04
1.46500000e-01	1.99797623e-02	3.68268288e-04
1.47000000e-01	1.98068092e-02	3.65167414e-04
1.47500000e-01	1.97075602e-02	3.61327776e-04
1.48000000e-01	1.98143633e-02	3.62578965e-04
1.48500000e-01	1.96995916e-02	3.59948502e-04
1.49000000e-01	1.97588187e-02	3.59715266e-04
1.49500000e-01	1.97577576e-02	3.58741854e-04
1.50000000e-01	1.96096512e-02	3.56962252e-04
1.50500000e-01	1.99605055e-02	3.63183415e-04
1.51000000e-01	1.98311250e-02	3.58919310e-04
1.51500000e-01	1.94395936e-02	3.51541065e-04
1.52000000e-01	1.97871477e-02	3.54667987e-04
1.52500000e-01	1.98992088e-02	3.57096376e-04
1.53000000e-01	1.97228856e-02	3.56589935e-04
1.53500000e-01	1.95669400e-02	3.50530306e-04
1.54000000e-01	1.99187454e-02	3.56239760e-04
1.54500000e-01	1.97605647e-02	3.59440714e-04
1.55000000e-01	1.95954858e-02	3.61430972e-04
1.55500000e-01	1.96716257e-02	3.65913611e-04
1.56000000e-01	1.95171395e-02	3.65108307e-04
1.56500000e-01	1.94300262e-02	3.63277866e-04
1.57000000e-01	1.94106034e-02	3.61152815e-04
1.57500000e-01	1.95869329e-02	3.60222424e-04
1.58000000e-01	1.95114367e-02	3.52455323e-04
1.58500000e-01	1.93408627e-02	3.47834544e-04
1.59000000e-01	1.92434999e-02	3.44826952e-04
1.59500000e-01	1.94105661e-02	3.46961401e-04
1.60000000e-01	1.96125227e-02	3.51852060e-04
1.60500000e-01	2.00074805e-02	3.55384099e-04
1.61000000e-01	1.97086753e-02	3.50748818e-04
1.61500000e-01	1.95312180e-02	3.45682191e-04
1.62000000e-01	1.93329204e-02	3.41668331e-04
1.62500000e-01	1.95564460e-02	3.45825575e-04
1.63000000e-01	1.92745809e-02	3.39348067e-04
1.63500000e-01	1.95411591e-02	3.46090823e-04
1.64000000e-01	1.93449696e-02	3.37723052e-04
1.64500000e-01	1.93226753e-02	3.37514340e-04
1.65000000e-01	1.93958044e-02	3.39049342e-04
1.65500000e-01	1.90630040e-02	3.34352073e-04
1.66000000e-01	1.94381697e-02	3.40527009e-04
1.66500000e-01	1.94916176e-02	3.38767370e-04
1.67000000e-01	1.93153075e-02	3.36739901e-04
1.67500000e-01	1.93664892e-02	3.36210017e-04
1.68000000e-01	1.95203740e-02	3.38292889e-04
1.68500000e-01	1.91674386e-02	3.30863884e-04
1.69000000e-01	1.91063149e-02	3.31576556e-04
1.69500000e-01	1.95441142e-02	3.37602202e-04
1.70000000e-01	1.95910546e-02	3.37779849e-04
1.70500000e-01	1.88883124e-02	3.23552321e-04
1.71000000e-01	1.93283779e-02	3.30926102e-04
1.71500000e-01	1.94417239e-02	3.33326318e-04
1.72000000e-01	1.93239402e-02	3.29319580e-04
1.72500000e-01	1.92256058e-02	3.29746821e-04
1.73000000e-01	1.92328206e-02	3.28294791e-04
1.73500000e-01	1.95199517e-02	3.32209283e-04
1.74000000e-01	1.90556864e-02	3.24019211e-04
1.74500000e-01	1.92593557e-02	3.24770516e-04
1.75000000e-01	1.92826625e-02	3.24753968e-04
1.75500000e-01	1.90953684e-02	3.20979191e-04
1.76000000e-01	1.91588883e-02	3.22053561e-04
1.76500000e-01	1.90841685e-02	3.20662408e-04
1.77000000e-01	1.91412762e-02	3.22433482e-04
1.77500000e-01	1.92125562e-02	3.23231579e-04
1.78000000e-01	1.92714957e-02	3.22668643e-04
1.78500000e-01	1.90973921e-02	3.19693802e-04
1.79000000e-01	1.91179633e-02	3.20806978e-04
1.79500000e-01	1.89494081e-02	3.17835415e-04
1.80000000e-01	1.90540106e-02	3.20193973e-04
1.80500000e-01	1.87437569e-02	3.13269640e-04
1.81000000e-01	1.88071726e-02	3.13334164e-04
1.81500000e-01	1.89969377e-02	3.15686685e-04
1.82000000e-01	1.89122943e-02	3.14436367e-04
1.82500000e-01	1.87383483e-02	3.11415418e-04
1.83000000e-01	1.91396381e-02	3.18967621e-04
1.83500000e-01	1.90006474e-02	3.14565572e-04
1.84000000e-01	1.88301052e-02	3.12483606e-04
1.84500000e-01	1.88079625e-02	3.11532917e-04
1.85000000e-01	1.92305750e-02	3.18429889e-04
1.85500000e-01	1.89550676e-02	3.13303226e-04
1.86000000e-01	1.86973599e-02	3.08644423e-04
1.86500000e-01	1.91109551e-02	3.14380996e-04
1.87000000e-01	1.88293839e-02	3.09318463e-04
1.87500000e-01	1.89568206e-02	3.11159195e-04
1.88000000e-01	1.89620399e-02	3.12002504e-04
1.88500000e-01	1.89439869e-02	3.09344068e-04
1.89000000e-01	1.89972985e-02	3.10967608e-04
1.89500000e-01	1.88961520e-02	3.07609523e-04
1.90000000e-01	1.87052762e-02	3.05600388e-04
1.90500000e-01	1.87006660e-02	3.05705238e-04
1.91000000e-01	1.91269974e-02	3.10436275e-04
1.91500000e-01	1.89738838e-02	3.09511746e-04
1.92000000e-01	1.87125250e-02	3.04567567e-04
1.92500000e-01	1.85858921e-02	3.02325703e-04
1.93000000e-01	1.87785468e-02	3.04917995e-04
1.93500000e-01	1.88622197e-02	3.06649329e-04
1.94000000e-01	1.86546946e-02	3.00023945e-04
1.94500000e-01	1.87406519e-02	3.02303102e-04
1.95000000e-01	1.84592121e-02	2.96844257e-04
1.95500000e-01	1.87324938e-02	3.01872492e-04
1.96000000e-01	1.86911708e-02	3.00288281e-04
1.96500000e-01	1.85343893e-02	2.98496984e-04
1.97000000e-01	1.87072728e-02	2.99838631e-04
1.97500000e-01	1.85325531e-02	2.96659756e-04
1.98000000e-01	1.86849497e-02	2.98369773e-04
1.98500000e-01	1.83426138e-02	2.93856421e-04
1.99000000e-01	1.88526306e-02	3.00446995e-04
1.99500000e-01	1.84915847e-02	2.93526396e-04
2.00000000e-01	1.84652115e-02	2.94534986e-04
2.00500000e-01	1.86229157e-02	2.96631025e-04
2.01000000e-01	1.86849921e-02	2.96330725e-04
2.01500000e-01	1.84279660e-02	2.92638223e-04
2.02000000e-01	1.85530628e-02	2.95297715e-04
2.02500000e-01	1.85480834e-02	2.92340677e-04
2.03000000e-01	1.85952458e-02	2.94000385e-04
2.03500000e-01	1.86107755e-02	2.94476645e-04
2.04000000e-01	1.83346627e-02	2.90349953e-04
2.04500000e-01	1.85582942e-02	2.93055815e-04
2.05000000e-01	1.85034215e-02	2.90221851e-04
2.05500000e-01	1.84827433e-02	2.90696245e-04
2.06000000e-01	1.83451062e-02	2.87535280e-04
2.06500000e-01	1.83267988e-02	2.88093270e-04
2.07000000e-01	1.85616828e-02	2.90563156e-04
2.07500000e-01	1.83363618e-02	2.85818021e-04
2.08000000e-01	1.83526078e-02	2.88146505e-04
2.08500000e-01	1.84795683e-02	2.87490604e-04
2.09000000e-01	1.83059840e-02	2.86739937e-04
2.09500000e-01	1.84700979e-02	2.88012369e-04
2.10000000e-01	1.85830054e-02	2.89277781e-04
2.10500000e-01	1.84076621e-02	2.87012150e-04
2.11000000e-01	1.83270527e-02	2.82746318e-04
2.11500000e-01	1.83140045e-02	2.84757142e-04
2.12000000e-01	1.84572647e-02	2.85073098e-04
2.12500000e-01	1.84840671e-02	2.85341677e-04
2.13000000e-01	1.85020207e-02	2.84407744e-04
2.13500000e-01	1.82867114e-02	2.82584359e-04
2.14000000e-01	1.83718850e-02	2.83013910e-04
2.14500000e-01	1.84678668e-02	2.83790512e-04
2.15000000e-01	1.83570098e-02	2.84176373e-04
2.15500000e-01	1.84720077e-02	2.83208476e-04
2.16000000e-01	1.83771680e-02	2.82997777e-04
2.16500000e-01	1.83844622e-02	2.82403465e-04
2.17000000e-01	1.82892834e-02	2.83929223e-04
2.17500000e-01	1.84820092e-02	2.90142114e-04
2.18000000e-01	1.82143554e-02	2.89215392e-04
2.18500000e-01	1.81550307e-02	2.90451571e-04
2.19000000e-01	1.83081203e-02	2.92609432e-04
2.19500000e-01	1.80397831e-02	2.88304991e-04
2.20000000e-01	1.84235261e-02	2.96645532e-04
2.20500000e-01	1.82449560e-02	2.94808144e-04
2.21000000e-01	1.83391373e-02	2.97151032e-04
2.21500000e-01	1.82009941e-02	2.96736701e-04
2.22000000e-01	1.84737601e-02	3.00188886e-04
2.22500000e-01	1.82021166e-02	2.96877017e-04
2.23000000e-01	1.81602879e-02	2.96874832e-04
2.23500000e-01	1.80505336e-02	2.96611806e-04
2.24000000e-01	1.81447045e-02	2.98631995e-04
2.24500000e-01	1.81858800e-02	2.99494906e-04
2.25000000e-01	1.85688780e-02	3.05738854e-04
2.25500000e-01	1.82814480e-02	3.02255424e-04
2.26000000e-01	1.82457610e-02	3.02521774e-04
2.26500000e-01	1.80018948e-02	2.93719145e-04
2.27000000e-01	1.80836832e-02	2.93199194e-04
2.27500000e-01	1.82820170e-02	2.92937974e-04
2.28000000e-01	1.79490629e-02	2.86980731e-04
2.28500000e-01	1.79966097e-02	2.85702434e-04
2.29000000e-01	1.81527776e-02	2.87008804e-04
2.29500000e-01	1.81829110e-02	2.86534122e-04
2.30000000e-01	1.79911580e-02	2.82842454e-04
2.30500000e-01	1.79502301e-02	2.81255959e-04
2.31000000e-01	1.83178030e-02	2.85289724e-04
2.31500000e-01	1.81678853e-02	2.83573907e-04
2.32000000e-01	1.79699201e-02	2.79579621e-04
2.32500000e-01	1.78605908e-02	2.77480979e-04
2.33000000e-01	1.80109292e-02	2.78461475e-04
2.33500000e-01	1.80330046e-02	2.78909263e-04
2.34000000e-01	1.81564441e-02	2.79003081e-04
2.34500000e-01	1.80820941e-02	2.77769357e-04
2.35000000e-01	1.81049571e-02	2.78326472e-04
2.35500000e-01	1.78306958e-02	2.73037603e-04
2.36000000e-01	1.80601458e-02	2.76018186e-04
2.36500000e-01	1.80110038e-02	2.75175021e-04
2.37000000e-01	1.80986276e-02	2.75245194e-04
2.37500000e-01	1.80732522e-02	2.74919443e-04
2.38000000e-01	1.79793259e-02	2.72237387e-04
2.38500000e-01	1.79228431e-02	2.72985030e-04
2.39000000e-01	1.77824855e-02	2.68327286e-04
2.39500000e-01	1.79012795e-02	2.71443061e-04
2.40000000e-01	1.80169602e-02	2.71643574e-04
2.40500000e-01	1.80084219e-02	2.70212935e-04
2.41000000e-01	1.80589052e-02	2.71755653e-04
2.41500000e-01	1.77806183e-02	2.67275685e-04
2.42000000e-01	1.81097368e-02	2.71031160e-04
2.42500000e-01	1.78843595e-02	2.67640760e-04
2.43000000e-01	1.77789290e-02	2.66188649e-04
2.43500000e-01	1.80176118e-02	2.68956311e-04
2.44000000e-01	1.79647311e-02	2.67298147e-04
2.44500000e-01	1.78650870e-02	2.67356475e-04
2.45000000e-01	1.77853757e-02	2.63979619e-04
2.45500000e-01	1.79631262e-02	2.66221831e-04
2.46000000e-01	1.78386788e-02	2.65445902e-04
2.46500000e-01	1.79922363e-02	2.65875140e-04
2.47000000e-01	1.79264748e-02	2.64874782e-04
2.47500000e-01	1.77297119e-02	2.62102818e-04
2.48000000e-01	1.77876997e-02	2.62404221e-04
2.48500000e-01	1.76298212e-02	2.59136502e-04
2.49000000e-01	1.77915430e-02	2.62308194e-04
2.49500000e-01	1.76417912e-02	2.60512832e-04
2.50000000e-01	1.78575757e-02	2.61720413e-04
2.50500000e-01	1.79069607e-02	2.62941059e-04
2.51000000e-01	1.78327021e-02	2.60685780e-04
2.51500000e-01	1.76926324e-02	2.58419192e-04
2.52000000e-01	1.76979477e-02	2.58916350e-04
2.52500000e-01	1.77580461e-02	2.58177789e-04
2.53000000e-01	1.78633793e-02	2.61180212e-04
2.53500000e-01	1.77793990e-02	2.59174489e-04
2.54000000e-01	1.76109568e-02	2.57558194e-04
2.54500000e-01	1.75341768e-02	2.56401075e-04
2.55000000e-01	1.76200468e-02	2.55909280e-04
2.55500000e-01	1.77178365e-02	2.56976381e-04
2.56000000e-01	1.76696961e-02	2.56186850e-04
2.56500000e-01	1.75967369e-02	2.54264321e-04
2.57000000e-01	1.75785827e-02	2.54388046e-04
2.57500000e-01	1.78357780e-02	2.56940959e-04
2.58000000e-01	1.76784235e-02	2.54610475e-04
2.58500000e-01	1.76058773e-02	2.54060227e-04
2.59000000e-01	1.76318528e-02	2.54022431e-04
2.59500000e-01	1.75610016e-02	2.53147559e-04
2.60000000e-01	1.75977219e-02	2.54249583e-04
2.60500000e-01	1.74707593e-02	2.51562468e-04
2.61000000e-01	1.75434759e-02	2.51535187e-04
2.61500000e-01	1.76411473e-02	2.52563907e-04
2.62000000e-01	1.75830512e-02	2.51997740e-04
2.62500000e-01	1.76505689e-02	2.52452453e-04
2.63000000e-01	1.76240958e-02	2.52396501e-04
2.63500000e-01	1.77268296e-02	2.52207330e-04
2.64000000e-01	1.75973412e-02	2.51211686e-04
2.64500000e-01	1.75505973e-02	2.49323387e-04
2.65000000e-01	1.72397627e-02	2.45682858e-04
2.65500000e-01	1.75168028e-02	2.48640187e-04
2.66000000e-01	1.73410624e-02	2.47341839e-04
2.66500000e-01	1.76694876e-02	2.50444131e-04
2.67000000e-01	1.75182680e-02	2.48768575e-04
2.67500000e-01	1.73078194e-02	2.44710424e-04
2.68000000e-01	1.75297872e-02	2.47385733e-04
2.68500000e-01	1.74200788e-02	2.45929893e-04
2.69000000e-01	1.75495246e-02	2.46453461e-04
2.69500000e-01	1.73371954e-02	2.43190528e-04
2.70000000e-01	1.73996381e-02	2.44318093e-04
2.70500000e-01	1.74790473e-02	2.45693396e-04
2.71000000e-01	1.73284813e-02	2.43140909e-04
2.71500000e-01	1.72739535e-02	2.42197036e-04
2.72000000e-01	1.74838480e-02	2.44334777e-04
2.72500000e-01	1.74019149e-02	2.43651104e-04
2.73000000e-01	1.68897093e-02	2.36585772e-04
2.73500000e-01	1.73006369e-02	2.40812969e-04
2.74000000e-01	1.72596621e-02	2.41253015e-04
2.74500000e-01	1.74087344e-02	2.41410429e-04
2.75000000e-01	1.73031036e-02	2.41777744e-04
2.75500000e-01	1.73091148e-02	2.41099009e-04
2.76000000e-01	1.73102994e-02	2.41709056e-04
2.76500000e-01	1.74285841e-02	2.43407919e-04
2.77000000e-01	1.72298396e-02	2.38742607e-04
2.77500000e-01	1.73089048e-02	2.40735197e-04
2.78000000e-01	1.71217815e-02	2.37201785e-04
2.78500000e-01	1.71051487e-02	2.37688743e-04
2.79000000e-01	1.73684248e-02	2.40623473e-04
2.79500000e-01	1.73814026e-02	2.40284295e-04
2.80000000e-01	1.72526148e-02	2.38722701e-04
2.80500000e-01	1.71926820e-02	2.37739472e-04
2.81000000e-01	1.72731153e-02	2.38206838e-04
2.81500000e-01	1.70509090e-02	2.35293831e-04
2.82000000e-01	1.73713449e-02	2.39322298e-04
2.82500000e-01	1.73856799e-02	2.39134257e-04
2.83000000e-01	1.74188510e-02	2.38395153e-04
2.83500000e-01	1.72617977e-02	2.35798904e-04
2.84000000e-01	1.72334270e-02	2.36734500e-04
2.84500000e-01	1.71559930e-02	2.35527294e-04
2.85000000e-01	1.71530136e-02	2.35518449e-04
2.85500000e-01	1.70977389e-02	2.33208035e-04
2.86000000e-01	1.70786287e-02	2.33240835e-04
2.86500000e-01	1.73746369e-02	2.36824139e-04
2.87000000e-01	1.70366257e-02	2.32596286e-04
2.87500000e-01	1.69016248e-02	2.30330752e-04
2.88000000e-01	1.73868489e-02	2.35081450e-04
2.88500000e-01	1.71042471e-02	2.33249022e-04
2.89000000e-01	1.69507883e-02	2.31017857e-04
2.89500000e-01	1.71658108e-02	2.32344146e-04
2.90000000e-01	1.70649007e-02	2.31755817e-04
2.90500000e-01	1.71576478e-02	2.32290342e-04
2.91000000e-01	1.70155526e-02	2.30526049e-04
2.91500000e-01	1.70209208e-02	2.29640609e-04
2.92000000e-01	1.68469549e-02	2.28043226e-04
2.92500000e-01	1.72498922e-02	2.31758979e-04
2.93000000e-01	1.69893186e-02	2.30470547e-04
2.93500000e-01	1.72629583e-02	2.32462227e-04
2.94000000e-01	1.70213744e-02	2.29551459e-04
2.94500000e-01	1.72870001e-02	2.32929003e-04
2.95000000e-01	1.69847533e-02	2.27342429e-04
2.95500000e-01	1.71163510e-02	2.30238344e-04
2.96000000e-01	1.69858936e-02	2.27287893e-04
2.96500000e-01	1.72631681e-02	2.30857710e-04
2.97000000e-01	1.70385984e-02	2.29274034e-04
2.97500000e-01	1.69022151e-02	2.26679008e-04
2.98000000e-01	1.71001078e-02	2.28579701e-04
2.98500000e-01	1.70410728e-02	2.27319272e-04
2.99000000e-01	1.71088987e-02	2.28772263e-04
2.99500000e-01	1.71498053e-02	2.29149502e-04
3.00000000e-01	1.71164775e-02	2.28124612e-04
3.00500000e-01	1.70230248e-02	2.26777536e-04
3.01000000e-01	1.70069364e-02	2.25977784e-04
3.01500000e-01	1.71220323e-02	2.27420516e-04
3.02000000e-01	1.69480560e-02	2.25026514e-04
3.02500000e-01	1.70539945e-02	2.26789714e-04
3.03000000e-01	1.68465983e-02	2.23711272e-04
3.03500000e-01	1.70163941e-02	2.25529503e-04
3.04000000e-01	1.69850850e-02	2.25982165e-04
3.04500000e-01	1.70088870e-02	2.24355447e-04
3.05000000e-01	1.67625510e-02	2.22355372e-04
3.05500000e-01	1.69218548e-02	2.23692225e-04
3.06000000e-01	1.69809290e-02	2.23853147e-04
3.06500000e-01	1.71126373e-02	2.25579787e-04
3.07000000e-01	1.67549922e-02	2.20635046e-04
3.07500000e-01	1.68160469e-02	2.20857319e-04
3.08000000e-01	1.68811698e-02	2.21661466e-04
3.08500000e-01	1.67595029e-02	2.20350811e-04
3.09000000e-01	1.69713463e-02	2.23362613e-04
3.09500000e-01	1.68393780e-02	2.20386597e-04
3.10000000e-01	1.68399681e-02	2.21284740e-04
3.10500000e-01	1.68279510e-02	2.20497234e-04
3.11000000e-01	1.66836742e-02	2.18417900e-04
3.11500000e-01	1.67898057e-02	2.20423384e-04
3.12000000e-01	1.67817561e-02	2.19704783e-04
3.12500000e-01	1.67452265e-02	2.18465899e-04
3.13000000e-01	1.67827549e-02	2.19437484e-04
3.13500000e-01	1.67177614e-02	2.18304401e-04
3.14000000e-01	1.68219146e-02	2.19289673e-04
3.14500000e-01	1.68374821e-02	2.19406662e-04
3.15000000e-01	1.66874814e-02	2.18046210e-04
3.15500000e-01	1.67210613e-02	2.17226016e-04
3.16000000e-01	1.66205401e-02	2.16404663e-04
3.16500000e-01	1.69074248e-02	2.19691072e-04
3.17000000e-01	1.65477103e-02	2.15310022e-04
3.17500000e-01	1.65687320e-02	2.15399800e-04
3.18000000e-01	1.66232715e-02	2.15219492e-04
3.18500000e-01	1.68112050e-02	2.17727835e-04
3.19000000e-01	1.67167058e-02	2.15577053e-04
3.19500000e-01	1.66688436e-02	2.15385558e-04
3.20000000e-01	1.64192519e-02	2.12483389e-04
3.20500000e-01	1.65293992e-02	2.13951395e-04
3.21000000e-01	1.66382776e-02	2.14220698e-04
3.21500000e-01	1.66767770e-02	2.14849529e-04
3.22000000e-01	1.64387996e-02	2.12623402e-04
3.22500000e-01	1.65479588e-02	2.12752478e-04
3.23000000e-01	1.65381707e-02	2.13725241e-04
3.23500000e-01	1.65264322e-02	2.12091090e-04
3.24000000e-01	1.63984399e-02	2.11112641e-04
3.24500000e-01	1.63496567e-02	2.11334534e-04
3.25000000e-01	1.64916493e-02	2.11594863e-04
3.25500000e-01	1.63943673e-02	2.10434367e-04
3.26000000e-01	1.65091711e-02	2.11223005e-04
3.26500000e-01	1.65840797e-02	2.12205257e-04
3.27000000e-01	1.64955519e-02	2.11613170e-04
3.27500000e-01	1.63523209e-02	2.09407907e-04
3.28000000e-01	1.66950414e-02	2.12616552e-04
3.28500000e-01	1.64771834e-02	2.10730414e-04
3.29000000e-01	1.65333737e-02	2.10818475e-04
3.29500000e-01	1.65882179e-02	2.11484024e-04
3.30000000e-01	1.64418554e-02	2.09460307e-04
3.30500000e-01	1.64766870e-02	2.10236655e-04
3.31000000e-01	1.66053893e-02	2.10728291e-04
3.31500000e-01	1.63065601e-02	2.07726883e-04
3.32000000e-01	1.64850155e-02	2.10167048e-04
3.32500000e-01	1.63574833e-02	2.08095500e-04
3.33000000e-01	1.65381214e-02	2.09138062e-04
3.33500000e-01	1.63302915e-02	2.06792286e-04
3.34000000e-01	1.64221400e-02	2.07515731e-04
3.34500000e-01	1.64257521e-02	2.08780420e-04
3.35000000e-01	1.63890417e-02	2.07202356e-04
3.35500000e-01	1.61518312e-02	2.04317274e-04
3.36000000e-01	1.63150975e-02	2.05623876e-04
3.36500000e-01	1.64519876e-02	2.07163910e-04
3.37000000e-01	1.62503885e-02	2.05092745e-04
3.37500000e-01	1.63729749e-02	2.06153802e-04
3.38000000e-01	1.63267149e-02	2.06199166e-04
3.38500000e-01	1.63311423e-02	2.04850174e-04
3.39000000e-01	1.63212486e-02	2.06714289e-04
3.39500000e-01	1.63946242e-02	2.05718703e-04
3.40000000e-01	1.63592154e-02	2.05860741e-04
3.40500000e-01	1.64339070e-02	2.06049953e-04
3.41000000e-01	1.62050154e-02	2.02546264e-04
3.41500000e-01	1.63302260e-02	2.05312041e-04
3.42000000e-01	1.61392369e-02	2.01687858e-04
3.42500000e-01	1.64817486e-02	2.06213628e-04
3.43000000e-01	1.63801080e-02	2.05124370e-04
3.43500000e-01	1.61525119e-02	2.02315576e-04
3.44000000e-01	1.62327817e-02	2.02961387e-04
3.44500000e-01	1.59635061e-02	1.99568174e-04
3.45000000e-01	1.61957720e-02	2.02062746e-04
3.45500000e-01	1.60851422e-02	2.00154360e-04
3.46000000e-01	1.60864400e-02	2.00803583e-04
3.46500000e-01	1.62361362e-02	2.01698124e-04
3.47000000e-01	1.62784350e-02	2.02204628e-04
3.47500000e-01	1.60991309e-02	2.01334755e-04
3.48000000e-01	1.62004550e-02	2.01194500e-04
3.48500000e-01	1.60795045e-02	1.99360143e-04
3.49000000e-01	1.60787725e-02	1.99983638e-04
3.49500000e-01	1.60943357e-02	1.99294793e-04
3.50000000e-01	1.60823549e-02	1.62239481e-04
3.51000000e-01	1.60137007e-02	1.40110330e-04
3.52000000e-01	1.61185837e-02	1.40723376e-04
3.53000000e-01	1.61982967e-02	1.41035491e-04
3.54000000e-01	1.59851500e-02	1.39105896e-04
3.55000000e-01	1.59618079e-02	1.38818529e-04
3.56000000e-01	1.60486997e-02	1.39979809e-04
3.57000000e-01	1.59203756e-02	1.41409522e-04
3.58000000e-01	1.59216322e-02	1.42915113e-04
3.59000000e-01	1.58918404e-02	1.43680810e-04
3.60000000e-01	1.58122789e-02	1.44003485e-04
3.61000000e-01	1.58768551e-02	1.44684348e-04
3.62000000e-01	1.58803938e-02	1.45717934e-04
3.63000000e-01	1.58450581e-02	1.45825266e-04
3.64000000e-01	1.58072011e-02	1.45763999e-04
3.65000000e-01	1.57422988e-02	1.46045080e-04
3.66000000e-01	1.57991815e-02	1.44841857e-04
3.67000000e-01	1.58561686e-02	1.42860019e-04
3.68000000e-01	1.58641053e-02	1.42207067e-04
3.69000000e-01	1.56974068e-02	1.40379522e-04
3.70000000e-01	1.57607974e-02	1.39599165e-04
3.71000000e-01	1.57420923e-02	1.41272454e-04
3.72000000e-01	1.57160125e-02	1.42509389e-04
3.73000000e-01	1.57148418e-02	1.42379637e-04
3.74000000e-01	1.56940676e-02	1.42735039e-04
3.75000000e-01	1.57460688e-02	1.43029958e-04
3.76000000e-01	1.57979116e-02	1.43657085e-04
3.77000000e-01	1.57443497e-02	1.42528188e-04
3.78000000e-01	1.55764314e-02	1.42229411e-04
3.79000000e-01	1.57746579e-02	1.42655760e-04
3.80000000e-01	1.56366171e-02	1.42241017e-04
3.81000000e-01	1.56575324e-02	1.41841143e-04
3.82000000e-01	1.58182976e-02	1.43347630e-04
3.83000000e-01	1.55182167e-02	1.40639738e-04
3.84000000e-01	1.56200693e-02	1.41986113e-04
3.85000000e-01	1.55100832e-02	1.40923673e-04
3.86000000e-01	1.55971056e-02	1.41500364e-04
3.87000000e-01	1.57099270e-02	1.42109992e-04
3.88000000e-01	1.54341706e-02	1.40165451e-04
3.89000000e-01	1.54326849e-02	1.40147474e-04
3.90000000e-01	1.55951836e-02	1.41222082e-04
3.91000000e-01	1.55426457e-02	1.40770413e-04
3.92000000e-01	1.54051930e-02	1.39760287e-04
3.93000000e-01	1.54778797e-02	1.40199015e-04
3.94000000e-01	1.54038129e-02	1.39121423e-04
3.95000000e-01	1.53461791e-02	1.39056035e-04
3.96000000e-01	1.54419449e-02	1.39846114e-04
3.97000000e-01	1.55360819e-02	1.40299551e-04
3.98000000e-01	1.53609463e-02	1.39425431e-04
3.99000000e-01	1.54785776e-02	1.40082506e-04
4.00000000e-01	1.54584113e-02	1.40308288e-04
4.01000000e-01	1.52553552e-02	1.38011570e-04
4.02000000e-01	1.53038924e-02	1.38234669e-04
4.03000000e-01	1.53387986e-02	1.38818441e-04
4.04000000e-01	1.53331858e-02	1.38399078e-04
4.05000000e-01	1.52799934e-02	1.38138291e-04
4.06000000e-01	1.53403949e-02	1.38964151e-04
4.07000000e-01	1.52935597e-02	1.38126131e-04
4.08000000e-01	1.53615025e-02	1.38656827e-04
4.09000000e-01	1.51611929e-02	1.36971994e-04
4.10000000e-01	1.51892430e-02	1.37083433e-04
4.11000000e-01	1.52209216e-02	1.37299108e-04
4.12000000e-01	1.52596363e-02	1.37467017e-04
4.13000000e-01	1.52423679e-02	1.37366325e-04
4.14000000e-01	1.52352282e-02	1.37330914e-04
4.15000000e-01	1.52862635e-02	1.37581787e-04
4.16000000e-01	1.51394859e-02	1.36433236e-04
4.17000000e-01	1.51545750e-02	1.36581675e-04
4.18000000e-01	1.52046084e-02	1.38427202e-04
4.19000000e-01	1.52261139e-02	1.40184699e-04
4.20000000e-01	1.52273092e-02	1.40880904e-04
4.21000000e-01	1.52422258e-02	1.41680996e-04
4.22000000e-01	1.52711097e-02	1.42369657e-04
4.23000000e-01	1.53276997e-02	1.43703546e-04
4.24000000e-01	1.52047746e-02	1.42728454e-04
4.25000000e-01	1.52488648e-02	1.43162013e-04
4.26000000e-01	1.51287556e-02	1.42042856e-04
4.27000000e-01	1.51561258e-02	1.42697417e-04
4.28000000e-01	1.52250629e-02	1.43275143e-04
4.29000000e-01	1.52382791e-02	1.43850930e-04
4.30000000e-01	1.51449544e-02	1.42896109e-04
4.31000000e-01	1.51933398e-02	1.43285641e-04
4.32000000e-01	1.52266538e-02	1.43449215e-04
4.33000000e-01	1.51113037e-02	1.42564992e-04
4.34000000e-01	1.51777684e-02	1.43425040e-04
4.35000000e-01	1.50892060e-02	1.42955887e-04
4.36000000e-01	1.50252965e-02	1.42603580e-04
4.37000000e-01	1.50932093e-02	1.42795613e-04
4.38000000e-01	1.50051669e-02	1.43005363e-04
4.39000000e-01	1.49125144e-02	1.42127653e-04
4.40000000e-01	1.50159018e-02	1.43069769e-04
4.41000000e-01	1.49804560e-02	1.42675641e-04
4.42000000e-01	1.50353180e-02	1.43847278e-04
4.43000000e-01	1.50237627e-02	1.43623294e-04
4.44000000e-01	1.49694569e-02	1.43222612e-04
4.45000000e-01	1.49922128e-02	1.43890464e-04
4.46000000e-01	1.50095802e-02	1.43738332e-04
4.47000000e-01	1.48049167e-02	1.42406468e-04
4.48000000e-01	1.49625544e-02	1.43717580e-04
4.49000000e-01	1.50063303e-02	1.44535303e-04
4.50000000e-01	1.50311693e-02	1.45168155e-04
4.51000000e-01	1.49332105e-02	1.44080638e-04
4.52000000e-01	1.49302591e-02	1.44051314e-04
4.53000000e-01	1.48433078e-02	1.43262228e-04
4.54000000e-01	1.49278219e-02	1.44080227e-04
4.55000000e-01	1.49582872e-02	1.45077841e-04
4.56000000e-01	1.49094129e-02	1.44471856e-04
4.57000000e-01	1.49449173e-02	1.44930837e-04
4.58000000e-01	1.48316705e-02	1.44045477e-04
4.59000000e-01	1.48445595e-02	1.44078371e-04
4.60000000e-01	1.49494387e-02	1.44887685e-04
4.61000000e-01	1.47649203e-02	1.43277576e-04
4.62000000e-01	1.50141168e-02	1.45546629e-04
4.63000000e-01	1.49547536e-02	1.45518449e-04
4.64000000e-01	1.49166389e-02	1.45286908e-04
4.65000000e-01	1.48294113e-02	1.44646803e-04
4.66000000e-01	1.47750242e-02	1.44204548e-04
4.67000000e-01	1.48224196e-02	1.44447414e-04
4.68000000e-01	1.48653870e-02	1.45264157e-04
4.69000000e-01	1.47564478e-02	1.44325453e-04
4.70000000e-01	1.48862260e-02	1.45733759e-04
4.71000000e-01	1.47618625e-02	1.44325583e-04
4.72000000e-01	1.46379569e-02	1.43527606e-04
4.73000000e-01	1.46169513e-02	1.42863901e-04
4.74000000e-01	1.47356404e-02	1.43953931e-04
4.75000000e-01	1.46297478e-02	1.43153077e-04
4.76000000e-01	1.46697886e-02	1.43319313e-04
4.77000000e-01	1.46554336e-02	1.43466230e-04
4.78000000e-01	1.46020213e-02	1.43400810e-04
4.79000000e-01	1.45690802e-02	1.43214033e-04
4.80000000e-01	1.45936056e-02	1.42691355e-04
4.81000000e-01	1.45262002e-02	1.42413743e-04
4.82000000e-01	1.46187643e-02	1.43716788e-04
4.83000000e-01	1.46519363e-02	1.43689283e-04
4.84000000e-01	1.46265293e-02	1.43726911e-04
4.85000000e-01	1.44464494e-02	1.42604127e-04
4.86000000e-01	1.44455118e-02	1.42160496e-04
4.87000000e-01	1.46618906e-02	1.44049225e-04
4.88000000e-01	1.45960950e-02	1.44027735e-04
4.89000000e-01	1.46433513e-02	1.44315629e-04
4.90000000e-01	1.45492799e-02	1.43407104e-04
4.91000000e-01	1.46072179e-02	1.43598265e-04
4.92000000e-01	1.44621197e-02	1.43047826e-04
4.93000000e-01	1.45047086e-02	1.43219456e-04
4.94000000e-01	1.45777856e-02	1.44040256e-04
4.95000000e-01	1.44905612e-02	1.44021027e-04
4.96000000e-01	1.45185598e-02	1.48862265e-04
4.97000000e-01	1.43607561e-02	1.50571179e-04
4.98000000e-01	1.46421056e-02	1.54748127e-04
4.99000000e-01	1.44682191e-02	1.54572687e-04
5.00000000e-01	1.45186867e-02	1.57068636e-04
5.01000000e-01	1.44312372e-02	1.57858534e-04
5.02000000e-01	1.45707974e-02	1.60769761e-04
5.03000000e-01	1.45168611e-02	1.61398417e-04
5.04000000e-01	1.45202963e-02	1.62834584e-04
5.05000000e-01	1.44625512e-02	1.59990234e-04
5.06000000e-01	1.45174091e-02	1.57029611e-04
5.07000000e-01	1.45026565e-02	1.55096301e-04
5.08000000e-01	1.44706697e-02	1.53869080e-04
5.09000000e-01	1.46179300e-02	1.54772509e-04
5.10000000e-01	1.44712847e-02	1.52989946e-04
5.11000000e-01	1.44703438e-02	1.51985033e-04
5.12000000e-01	1.44568826e-02	1.51785489e-04
5.13000000e-01	1.43555429e-02	1.50381648e-04
5.14000000e-01	1.43596257e-02	1.49747959e-04
5.15000000e-01	1.44922251e-02	1.51090555e-04
5.16000000e-01	1.44837942e-02	1.50811245e-04
5.17000000e-01	1.44240750e-02	1.50499438e-04
5.18000000e-01	1.42673048e-02	1.48233294e-04
5.19000000e-01	1.43586872e-02	1.48323633e-04
5.20000000e-01	1.43028186e-02	1.47986600e-04
5.21000000e-01	1.42465195e-02	1.47170041e-04
5.22000000e-01	1.43517538e-02	1.47969061e-04
5.23000000e-01	1.43625612e-02	1.48131178e-04
5.24000000e-01	1.43253349e-02	1.47786263e-04
5.25000000e-01	1.44405698e-02	1.48787851e-04
5.26000000e-01	1.42245722e-02	1.46744835e-04
5.27000000e-01	1.42197499e-02	1.46352081e-04
5.28000000e-01	1.42080049e-02	1.47072635e-04
5.29000000e-01	1.42050679e-02	1.46620091e-04
5.30000000e-01	1.43170817e-02	1.47472510e-04
5.31000000e-01	1.41335121e-02	1.45987534e-04
5.32000000e-01	1.43286931e-02	1.47470125e-04
5.33000000e-01	1.41278643e-02	1.45506369e-04
5.34000000e-01	1.42615540e-02	1.47077145e-04
5.35000000e-01	1.40775684e-02	1.45184701e-04
5.36000000e-01	1.41087080e-02	1.45472649e-04
5.37000000e-01	1.41235449e-02	1.45686263e-04
5.38000000e-01	1.41497154e-02	1.45745262e-04
5.39000000e-01	1.41166114e-02	1.45486989e-04
5.40000000e-01	1.40741578e-02	1.45142355e-04
5.41000000e-01	1.41814237e-02	1.46320602e-04
5.42000000e-01	1.40959094e-02	1.45253389e-04
5.43000000e-01	1.41854745e-02	1.46039478e-04
5.44000000e-01	1.42280649e-02	1.46330594e-04
5.45000000e-01	1.42411249e-02	1.46423134e-04
5.46000000e-01	1.41210582e-02	1.45970482e-04
5.47000000e-01	1.40706263e-02	1.44973726e-04
5.48000000e-01	1.39885456e-02	1.43858475e-04
5.49000000e-01	1.39999169e-02	1.44373992e-04
5.50000000e-01	1.40015188e-02	1.43688304e-04
5.51000000e-01	1.40736922e-02	1.44334406e-04
5.52000000e-01	1.40262282e-02	1.44114827e-04
5.53000000e-01	1.39180517e-02	1.42670493e-04
5.54000000e-01	1.40190900e-02	1.43747522e-04
5.55000000e-01	1.39553369e-02	1.42769924e-04
5.56000000e-01	1.39930963e-02	1.43232461e-04
5.57000000e-01	1.39635720e-02	1.42855863e-04
5.58000000e-01	1.38925835e-02	1.42707396e-04
5.59000000e-01	1.40327414e-02	1.43992721e-04
5.60000000e-01	1.38082952e-02	1.41509411e-04
5.61000000e-01	1.38182490e-02	1.41628094e-04
5.62000000e-01	1.38318921e-02	1.42239689e-04
5.63000000e-01	1.38746421e-02	1.41962157e-04
5.64000000e-01	1.38581350e-02	1.42172874e-04
5.65000000e-01	1.38689799e-02	1.42295013e-04
5.66000000e-01	1.38792327e-02	1.42136140e-04
5.67000000e-01	1.38852035e-02	1.42348262e-04
5.68000000e-01	1.38586824e-02	1.42450776e-04
5.69000000e-01	1.37423685e-02	1.40956440e-04
5.70000000e-01	1.36502819e-02	1.39861420e-04
5.71000000e-01	1.38494819e-02	1.41828962e-04
5.72000000e-01	1.37751617e-02	1.40972657e-04
5.73000000e-01	1.37653900e-02	1.41368128e-04
5.74000000e-01	1.37317122e-02	1.40341264e-04
5.75000000e-01	1.37827206e-02	1.42228400e-04
5.76000000e-01	1.36719204e-02	1.40619573e-04
5.77000000e-01	1.38725234e-02	1.42325767e-04
5.78000000e-01	1.37811641e-02	1.41395058e-04
5.79000000e-01	1.36765923e-02	1.40308595e-04
5.80000000e-01	1.35861857e-02	1.40218076e-04
5.81000000e-01	1.35952442e-02	1.40105119e-04
5.82000000e-01	1.36728052e-02	1.40893225e-04
5.83000000e-01	1.37024572e-02	1.40600522e-04
5.84000000e-01	1.36335284e-02	1.40516087e-04
5.85000000e-01	1.36946742e-02	1.40855092e-04
5.86000000e-01	1.36719673e-02	1.41118603e-04
5.87000000e-01	1.36457050e-02	1.40533204e-04
5.88000000e-01	1.36263543e-02	1.40652090e-04
5.89000000e-01	1.37353001e-02	1.41455666e-04
5.90000000e-01	1.35118113e-02	1.39474340e-04
5.91000000e-01	1.36681641e-02	1.40778544e-04
5.92000000e-01	1.34566783e-02	1.39340386e-04
5.93000000e-01	1.35533640e-02	1.39911315e-04
5.94000000e-01	1.34873835e-02	1.39065197e-04
5.95000000e-01	1.35522070e-02	1.39792754e-04
5.96000000e-01	1.36618562e-02	1.40868680e-04
5.97000000e-01	1.35771505e-02	1.39962980e-04
5.98000000e-01	1.34766414e-02	1.38822167e-04
5.99000000e-01	1.35502898e-02	1.39370017e-04
6.00000000e-01	1.35905816e-02	1.40154464e-04
6.01000000e-01	1.34211990e-02	1.39042018e-04
6.02000000e-01	1.35039386e-02	1.38845408e-04
6.03000000e-01	1.34418789e-02	1.38791552e-04
6.04000000e-01	1.34098767e-02	1.38945909e-04
6.05000000e-01	1.35444891e-02	1.39906923e-04
6.06000000e-01	1.33707973e-02	1.38510820e-04
6.07000000e-01	1.35857210e-02	1.39954464e-04
6.08000000e-01	1.35287965e-02	1.39751995e-04
6.09000000e-01	1.34235454e-02	1.38739859e-04
6.10000000e-01	1.34429234e-02	1.38923761e-04
6.11000000e-01	1.34327467e-02	1.39181892e-04
6.12000000e-01	1.34004420e-02	1.38798632e-04
6.13000000e-01	1.34174624e-02	1.39173854e-04
6.14000000e-01	1.33526885e-02	1.38810437e-04
6.15000000e-01	1.33842633e-02	1.38463887e-04
6.16000000e-01	1.33730674e-02	1.38774559e-04
6.17000000e-01	1.32734704e-02	1.37444162e-04
6.18000000e-01	1.34200742e-02	1.38643363e-04
6.19000000e-01	1.34144096e-02	1.38733066e-04
6.20000000e-01	1.34407825e-02	1.38826270e-04
6.21000000e-01	1.33731825e-02	1.37810845e-04
6.22000000e-01	1.33589979e-02	1.37755847e-04
6.23000000e-01	1.33387410e-02	1.37604018e-04
6.24000000e-01	1.33990256e-02	1.37749046e-04
6.25000000e-01	1.33162177e-02	1.36987265e-04
6.26000000e-01	1.33097322e-02	1.36600338e-04
6.27000000e-01	1.32884681e-02	1.36702722e-04
6.28000000e-01	1.32875312e-02	1.36670793e-04
6.29000000e-01	1.33864045e-02	1.37738082e-04
6.30000000e-01	1.31760856e-02	1.35688738e-04
6.31000000e-01	1.32724201e-02	1.36323237e-04
6.32000000e-01	1.32623669e-02	1.36434350e-04
6.33000000e-01	1.32775760e-02	1.36322260e-04
6.34000000e-01	1.33570423e-02	1.40970054e-04
6.35000000e-01	1.32217228e-02	1.43892214e-04
6.36000000e-01	1.33196019e-02	1.47276376e-04
6.37000000e-01	1.32206937e-02	1.48517930e-04
6.38000000e-01	1.34933249e-02	1.52870013e-04
6.39000000e-01	1.32812357e-02	1.53035059e-04
6.40000000e-01	1.32272137e-02	1.55000171e-04
6.41000000e-01	1.32106065e-02	1.55303558e-04
6.42000000e-01	1.31639564e-02	1.56691668e-04
6.43000000e-01	1.32050892e-02	1.57469880e-04
6.44000000e-01	1.32758542e-02	1.52516297e-04
6.45000000e-01	1.33591522e-02	1.51238209e-04
6.46000000e-01	1.33640239e-02	1.49791729e-04
6.47000000e-01	1.32666639e-02	1.47318066e-04
6.48000000e-01	1.32793908e-02	1.46669672e-04
6.49000000e-01	1.32795838e-02	1.46245515e-04
6.50000000e-01	1.33718932e-02	1.45758919e-04
6.51000000e-01	1.32353588e-02	1.44523850e-04
6.52000000e-01	1.33712494e-02	1.45103743e-04
6.53000000e-01	1.31928990e-02	1.43142616e-04
6.54000000e-01	1.32927630e-02	1.43195741e-04
6.55000000e-01	1.32071180e-02	1.42141480e-04
6.56000000e-01	1.31799912e-02	1.41944877e-04
6.57000000e-01	1.32869816e-02	1.42233377e-04
6.58000000e-01	1.32052849e-02	1.41716690e-04
6.59000000e-01	1.31402484e-02	1.41047475e-04
6.60000000e-01	1.33462331e-02	1.42893139e-04
6.61000000e-01	1.30673875e-02	1.39812542e-04
6.62000000e-01	1.30773736e-02	1.40204187e-04
6.63000000e-01	1.33248454e-02	1.42168272e-04
6.64000000e-01	1.32386642e-02	1.41390447e-04
6.65000000e-01	1.32621963e-02	1.41825697e-04
6.66000000e-01	1.31161517e-02	1.40230554e-04
6.67000000e-01	1.31650873e-02	1.40712690e-04
6.68000000e-01	1.31527108e-02	1.39929247e-04
6.69000000e-01	1.30461788e-02	1.39365391e-04
6.70000000e-01	1.30192694e-02	1.38808602e-04
6.71000000e-01	1.32299300e-02	1.41283686e-04
6.72000000e-01	1.31949541e-02	1.40359424e-04
6.73000000e-01	1.30482539e-02	1.38876677e-04
6.74000000e-01	1.31244975e-02	1.39309264e-04
6.75000000e-01	1.31674589e-02	1.40148118e-04
6.76000000e-01	1.30963670e-02	1.39289516e-04
6.77000000e-01	1.29876031e-02	1.38236255e-04
6.78000000e-01	1.29867099e-02	1.37738596e-04
6.79000000e-01	1.29059479e-02	1.37507569e-04
6.80000000e-01	1.29300801e-02	1.37515991e-04
6.81000000e-01	1.30093133e-02	1.38419373e-04
6.82000000e-01	1.30359061e-02	1.38558234e-04
6.83000000e-01	1.29448742e-02	1.37055665e-04
6.84000000e-01	1.30325791e-02	1.38327238e-04
6.85000000e-01	1.30083386e-02	1.38333752e-04
6.86000000e-01	1.30427596e-02	1.38074225e-04
6.87000000e-01	1.30997772e-02	1.39025424e-04
6.88000000e-01	1.30159446e-02	1.38294945e-04
6.89000000e-01	1.28851589e-02	1.37162486e-04
6.90000000e-01	1.29522364e-02	1.37413934e-04
6.91000000e-01	1.29458374e-02	1.37214401e-04
6.92000000e-01	1.30363218e-02	1.38344311e-04
6.93000000e-01	1.30424992e-02	1.38146526e-04
6.94000000e-01	1.28749774e-02	1.37170609e-04
6.95000000e-01	1.28281009e-02	1.36187021e-04
6.96000000e-01	1.29446875e-02	1.37565917e-04
6.97000000e-01	1.28009650e-02	1.35912067e-04
6.98000000e-01	1.28101941e-02	1.35943858e-04
6.99000000e-01	1.28942877e-02	1.37259410e-04
7.00000000e-01	1.28765506e-02	1.36395412e-04
7.01000000e-01	1.29009115e-02	1.37087989e-04
7.02000000e-01	1.27265050e-02	1.35350254e-04
7.03000000e-01	1.27829694e-02	1.35760343e-04
7.04000000e-01	1.27754443e-02	1.35777720e-04
7.05000000e-01	1.27139394e-02	1.35166237e-04
7.06000000e-01	1.27298267e-02	1.35428274e-04
7.07000000e-01	1.28111904e-02	1.35663920e-04
7.08000000e-01	1.27980965e-02	1.35392190e-04
7.09000000e-01	1.28636057e-02	1.36012549e-04
7.10000000e-01	1.27077758e-02	1.34799238e-04
7.11000000e-01	1.27339128e-02	1.35186991e-04
7.12000000e-01	1.27312082e-02	1.34862067e-04
7.13000000e-01	1.26726025e-02	1.35036313e-04
7.14000000e-01	1.26097955e-02	1.34064468e-04
7.15000000e-01	1.26578415e-02	1.34586400e-04
7.16000000e-01	1.26999008e-02	1.34811072e-04
7.17000000e-01	1.26126040e-02	1.34357354e-04
7.18000000e-01	1.25989509e-02	1.33854416e-04
7.19000000e-01	1.26252704e-02	1.34229449e-04
7.20000000e-01	1.26977971e-02	1.34739199e-04
7.21000000e-01	1.25442603e-02	1.33826045e-04
7.22000000e-01	1.24946951e-02	1.32525204e-04
7.23000000e-01	1.25600220e-02	1.33247466e-04
7.24000000e-01	1.26446713e-02	1.34278575e-04
7.25000000e-01	1.25876772e-02	1.33811410e-04
7.26000000e-01	1.25554811e-02	1.33172796e-04
7.27000000e-01	1.24950079e-02	1.33238281e-04
7.28000000e-01	1.25999150e-02	1.33552454e-04
7.29000000e-01	1.25751753e-02	1.33657364e-04
7.30000000e-01	1.25884339e-02	1.33868838e-04
7.31000000e-01	1.25783027e-02	1.34041630e-04
7.32000000e-01	1.24160913e-02	1.31943916e-04
7.33000000e-01	1.24914084e-02	1.32693606e-04
7.34000000e-01	1.25111896e-02	1.32931323e-04
7.35000000e-01	1.25292876e-02	1.32486229e-04
7.36000000e-01	1.23936580e-02	1.31120128e-04
7.37000000e-01	1.23809846e-02	1.31068651e-04
7.38000000e-01	1.23731294e-02	1.30666062e-04
7.39000000e-01	1.24891901e-02	1.31464342e-04
7.40000000e-01	1.23959847e-02	1.30927258e-04
7.41000000e-01	1.23481561e-02	1.29813700e-04
7.42000000e-01	1.23177633e-02	1.29432828e-04
7.43000000e-01	1.23321786e-02	1.29763254e-04
7.44000000e-01	1.22315623e-02	1.28855718e-04
7.45000000e-01	1.22357954e-02	1.28654751e-04
7.46000000e-01	1.22995412e-02	1.29594595e-04
7.47000000e-01	1.24604729e-02	1.30758759e-04
7.48000000e-01	1.23751443e-02	1.30569672e-04
7.49000000e-01	1.23570701e-02	1.30305349e-04
7.50000000e-01	1.22296795e-02	1.29200823e-04
7.51000000e-01	1.23578444e-02	1.29702141e-04
7.52000000e-01	1.23979379e-02	1.30372995e-04
7.53000000e-01	1.22183067e-02	1.28823728e-04
7.54000000e-01	1.22742829e-02	1.28784871e-04
7.55000000e-01	1.23823942e-02	1.30737733e-04
7.56000000e-01	1.22695053e-02	1.29330965e-04
7.57000000e-01	1.22272691e-02	1.29222335e-04
7.58000000e-01	1.22510652e-02	1.29207885e-04
7.59000000e-01	1.21705919e-02	1.28799695e-04
7.60000000e-01	1.22014431e-02	1.27966615e-04
7.61000000e-01	1.22687922e-02	1.28942466e-04
7.62000000e-01	1.21963150e-02	1.27912685e-04
7.63000000e-01	1.21349360e-02	1.27061483e-04
7.64000000e-01	1.21741469e-02	1.27794824e-04
7.65000000e-01	1.21155487e-02	1.27151600e-04
7.66000000e-01	1.20490494e-02	1.26233165e-04
7.67000000e-01	1.21561636e-02	1.27224669e-04
7.68000000e-01	1.21594011e-02	1.26993071e-04
7.69000000e-01	1.19682538e-02	1.25536829e-04
7.70000000e-01	1.20451510e-02	1.25876310e-04
7.71000000e-01	1.21639056e-02	1.26824011e-04
7.72000000e-01	1.19846433e-02	1.29238951e-04
7.73000000e-01	1.21713065e-02	1.34636791e-04
7.74000000e-01	1.20527885e-02	1.36936268e-04
7.75000000e-01	1.20195729e-02	1.38934168e-04
7.76000000e-01	1.21367956e-02	1.41859411e-04
7.77000000e-01	1.19807140e-02	1.42176822e-04
7.78000000e-01	1.20563506e-02	1.45258951e-04
7.79000000e-01	1.20419578e-02	1.46928129e-04
7.80000000e-01	1.19751357e-02	1.48108350e-04
7.81000000e-01	1.19784089e-02	1.49333201e-04
7.82000000e-01	1.19172096e-02	1.50525175e-04
7.83000000e-01	1.19730244e-02	1.53579283e-04
7.84000000e-01	1.18537133e-02	1.53322309e-04
7.85000000e-01	1.18207470e-02	1.54810142e-04
7.86000000e-01	1.19525732e-02	1.58003714e-04
7.87000000e-01	1.19261300e-02	1.58564685e-04
7.88000000e-01	1.18779857e-02	1.59827952e-04
7.89000000e-01	1.17741965e-02	1.59929629e-04
7.90000000e-01	1.18016148e-02	1.62861762e-04
7.91000000e-01	1.17995810e-02	1.63459042e-04
7.92000000e-01	1.18536688e-02	1.65856164e-04
7.93000000e-01	1.17669759e-02	1.67058708e-04
7.94000000e-01	1.19360980e-02	1.69602892e-04
7.95000000e-01	1.18381637e-02	1.70608915e-04
7.96000000e-01	1.18027921e-02	1.71910931e-04
7.97000000e-01	1.18428243e-02	1.73975817e-04
7.98000000e-01	1.16330546e-02	1.73205501e-04
7.99000000e-01	1.19225756e-02	1.78931385e-04
8.00000000e-01	1.17827825e-02	1.78494699e-04
8.01000000e-01	1.17295879e-02	1.80495755e-04
8.02000000e-01	1.16310139e-02	1.80202377e-04
8.03000000e-01	1.16554145e-02	1.83320211e-04
8.04000000e-01	1.16174892e-02	1.84389228e-04
8.05000000e-01	1.15419583e-02	1.85512739e-04
8.06000000e-01	1.17817892e-02	1.89940438e-04
8.07000000e-01	1.17535376e-02	1.92943964e-04
8.08000000e-01	1.15302675e-02	1.91382277e-04
8.09000000e-01	1.14668171e-02	1.91252379e-04
8.10000000e-01	1.14461807e-02	1.94466457e-04
8.11000000e-01	1.16537006e-02	1.98153370e-04
8.12000000e-01	1.13580669e-02	1.96114337e-04
8.13000000e-01	1.14067405e-02	2.00027826e-04
8.14000000e-01	1.15154010e-02	2.03845995e-04
8.15000000e-01	1.16529999e-02	2.08036014e-04
8.16000000e-01	1.17642474e-02	2.12252327e-04
8.17000000e-01	1.13265102e-02	2.08506797e-04
8.18000000e-01	1.15687563e-02	2.14993497e-04
8.19000000e-01	1.15029998e-02	2.16965221e-04
8.20000000e-01	1.13952940e-02	2.17949063e-04
8.21000000e-01	1.14777818e-02	2.22488226e-04
8.22000000e-01	1.12965339e-02	2.21743686e-04
8.23000000e-01	1.14229491e-02	2.26230878e-04
8.24000000e-01	1.13688319e-02	2.29775629e-04
8.25000000e-01	1.11862106e-02	2.29151128e-04
8.26000000e-01	1.15609888e-02	2.37882809e-04
8.27000000e-01	1.13106864e-02	2.36767811e-04
8.28000000e-01	1.09880628e-02	2.35107324e-04
8.29000000e-01	1.14145448e-02	2.46889583e-04
8.30000000e-01	1.13921182e-02	2.49999970e-04
8.31000000e-01	1.11782270e-02	2.53885366e-04
8.32000000e-01	1.10028934e-02	2.52088818e-04
8.33000000e-01	1.15083107e-02	2.66418455e-04
8.34000000e-01	1.11531430e-02	2.61471717e-04
8.35000000e-01	1.11172897e-02	2.65183166e-04
8.36000000e-01	1.09773677e-02	2.69489162e-04
8.37000000e-01	1.11197845e-02	2.78250199e-04
8.38000000e-01	1.10514184e-02	2.81216527e-04
8.39000000e-01	1.12261364e-02	2.95947900e-04
8.40000000e-01	1.11369215e-02	2.93293252e-04
8.41000000e-01	1.09463090e-02	2.98276757e-04
8.42000000e-01	1.11109567e-02	3.08778067e-04
8.43000000e-01	1.14416686e-02	3.24652348e-04
8.44000000e-01	1.09413261e-02	3.16656907e-04
8.45000000e-01	1.09012476e-02	3.26057793e-04
8.46000000e-01	1.10821158e-02	3.39057664e-04
8.47000000e-01	1.10845154e-02	3.49300989e-04
8.48000000e-01	1.10494201e-02	3.58431910e-04
8.49000000e-01	1.10174891e-02	3.67345669e-04
8.50000000e-01	1.09001080e-02	3.77230655e-04
8.51000000e-01	1.09249389e-02	3.94482446e-04
8.52000000e-01	1.09333116e-02	4.08085149e-04
8.53000000e-01	1.09637673e-02	4.30608803e-04
8.54000000e-01	1.07039682e-02	4.41292097e-04
8.55000000e-01	1.07962087e-02	4.56182346e-04
8.56000000e-01	1.06506201e-02	4.68773217e-04
8.57000000e-01	1.07610103e-02	4.85913074e-04
8.58000000e-01	1.04201761e-02	4.79002342e-04
8.59000000e-01	1.05527976e-02	5.03967751e-04
8.60000000e-01	1.10044674e-02	5.45617878e-04
8.61000000e-01	1.06135711e-02	5.36117958e-04
8.62000000e-01	1.09579587e-02	5.71281811e-04
8.63000000e-01	1.02571587e-02	5.69620954e-04
8.64000000e-01	1.14608887e-02	6.48818530e-04
8.65000000e-01	1.07191560e-02	6.53625346e-04
8.66000000e-01	1.06383572e-02	6.66328932e-04
8.67000000e-01	1.05077062e-02	7.06864618e-04
8.68000000e-01	1.03562065e-02	7.30199077e-04
8.69000000e-01	1.06043044e-02	8.16643435e-04
8.70000000e-01	1.04160936e-02	8.64972017e-04
8.71000000e-01	1.07391435e-02	9.75729287e-04
8.72000000e-01	1.10816859e-02	1.16873260e-03
8.73000000e-01	9.98562929e-03	1.24524240e-03
8.74000000e-01	1.32234225e-02	2.07366296e-03
8.75000000e-01	1.19016375e-02	4.07701963e-03
