% Filename : SEC3_00043_00021.h5
% Date & Time : 30-Oct-2025 18:03:08
% X-ray Energy (keV) : 13.30001
% Exposure Time (s) : 0.500
% Beam Center : 1461.24000, 208.98300
% Sample to Detector Distance (SDD) (mm) : 1990.750
% Detector Pixel Size (mm) : 0.075
% Photodiode Value : 141321.000
% I0 of Sample : 0
% I0 of Standard : 1
% 
% q(A^-1)   I(q)    I(q)_SE
0.00000000e+00	1.15057424e-02	5.85843323e-03
2.50000000e-04	0.00000000e+00	0.00000000e+00
5.00000000e-04	0.00000000e+00	0.00000000e+00
7.50000000e-04	0.00000000e+00	0.00000000e+00
1.00000000e-03	0.00000000e+00	0.00000000e+00
1.25000000e-03	0.00000000e+00	0.00000000e+00
1.50000000e-03	0.00000000e+00	0.00000000e+00
1.75000000e-03	0.00000000e+00	0.00000000e+00
2.00000000e-03	0.00000000e+00	0.00000000e+00
2.25000000e-03	0.00000000e+00	0.00000000e+00
2.50000000e-03	0.00000000e+00	0.00000000e+00
2.75000000e-03	0.00000000e+00	0.00000000e+00
3.00000000e-03	0.00000000e+00	0.00000000e+00
3.25000000e-03	1.86263067e+02	1.08863291e+02
3.50000000e-03	6.21384272e+01	1.78346575e+01
3.75000000e-03	6.14308617e+01	1.48472235e+01
4.00000000e-03	5.41360151e+01	1.09286450e+01
4.25000000e-03	3.85546856e+01	6.37334478e+00
4.50000000e-03	3.47966508e+01	4.92802311e+00
4.75000000e-03	2.86831005e+01	3.70228768e+00
5.00000000e-03	2.42546341e+01	3.00144841e+00
5.25000000e-03	1.92616979e+01	2.34478083e+00
5.50000000e-03	1.63105753e+01	1.94339442e+00
5.75000000e-03	1.35918346e+01	1.57116543e+00
6.00000000e-03	1.14370414e+01	1.26782143e+00
6.25000000e-03	9.75297919e+00	1.07686817e+00
6.50000000e-03	8.66852140e+00	9.42489216e-01
6.75000000e-03	7.28266572e+00	7.83405225e-01
7.00000000e-03	6.19313466e+00	6.50848613e-01
7.25000000e-03	5.37983126e+00	5.40143404e-01
7.50000000e-03	4.71350395e+00	4.73723112e-01
7.75000000e-03	4.22488255e+00	4.17675997e-01
8.00000000e-03	3.81344621e+00	3.80888520e-01
8.25000000e-03	3.39955016e+00	3.21736104e-01
8.50000000e-03	2.98249343e+00	2.79222942e-01
8.75000000e-03	2.71776648e+00	2.56095053e-01
9.00000000e-03	2.46867596e+00	2.27561405e-01
9.25000000e-03	2.17411266e+00	1.96287357e-01
9.50000000e-03	1.99290460e+00	1.75112201e-01
9.75000000e-03	1.75254921e+00	1.51660957e-01
1.00000000e-02	1.57821806e+00	1.33731164e-01
1.02500000e-02	1.44487656e+00	1.23290206e-01
1.05000000e-02	1.31140336e+00	1.08760840e-01
1.07500000e-02	1.19743161e+00	9.99685003e-02
1.10000000e-02	1.09606008e+00	8.93092543e-02
1.12500000e-02	1.00236418e+00	8.18659562e-02
1.15000000e-02	9.45345606e-01	7.56051318e-02
1.17500000e-02	8.53656132e-01	6.69290824e-02
1.20000000e-02	7.97050036e-01	6.27735689e-02
1.22500000e-02	7.40961504e-01	5.59595834e-02
1.25000000e-02	6.77246591e-01	5.15000962e-02
1.27500000e-02	6.28376153e-01	4.71924889e-02
1.30000000e-02	5.73967626e-01	4.22233321e-02
1.32500000e-02	5.30592637e-01	3.79199108e-02
1.35000000e-02	4.96264163e-01	3.50727930e-02
1.37500000e-02	4.58295408e-01	3.22543346e-02
1.40000000e-02	4.31540084e-01	2.97167527e-02
1.42500000e-02	3.96895559e-01	2.70016299e-02
1.45000000e-02	3.76926394e-01	2.51975879e-02
1.47500000e-02	3.54457568e-01	2.33790420e-02
1.50000000e-02	3.28079925e-01	2.12030896e-02
1.52500000e-02	3.06450741e-01	1.95720937e-02
1.55000000e-02	2.88909024e-01	1.84069425e-02
1.57500000e-02	2.67247010e-01	1.69514262e-02
1.60000000e-02	2.63446612e-01	1.62637755e-02
1.62500000e-02	2.44547909e-01	1.52094184e-02
1.65000000e-02	2.29918448e-01	1.39577497e-02
1.67500000e-02	2.14465066e-01	1.28616231e-02
1.70000000e-02	2.05528648e-01	1.22169425e-02
1.72500000e-02	1.97932992e-01	1.16503821e-02
1.75000000e-02	1.85209415e-01	1.09128283e-02
1.77500000e-02	1.72894285e-01	9.96953092e-03
1.80000000e-02	1.65220008e-01	9.53165634e-03
1.82500000e-02	1.57991619e-01	8.87210841e-03
1.85000000e-02	1.51830191e-01	8.71518719e-03
1.87500000e-02	1.45254325e-01	8.06783047e-03
1.90000000e-02	1.38268526e-01	7.62148540e-03
1.92500000e-02	1.31171607e-01	7.15273755e-03
1.95000000e-02	1.24496264e-01	6.66325795e-03
1.97500000e-02	1.19245097e-01	6.42834154e-03
2.00000000e-02	1.13133647e-01	5.94557262e-03
2.02500000e-02	1.06577360e-01	5.60035680e-03
2.05000000e-02	1.05073095e-01	5.37507747e-03
2.07500000e-02	1.00475035e-01	5.12533436e-03
2.10000000e-02	9.62660648e-02	5.04400867e-03
2.12500000e-02	9.29139059e-02	4.85674489e-03
2.15000000e-02	9.08041102e-02	4.71983424e-03
2.17500000e-02	8.96145737e-02	4.63254796e-03
2.20000000e-02	8.37442493e-02	4.42656274e-03
2.22500000e-02	8.20431254e-02	4.21645403e-03
2.25000000e-02	8.07317412e-02	4.21448909e-03
2.27500000e-02	7.70603459e-02	3.96097906e-03
2.30000000e-02	7.36470865e-02	3.83051902e-03
2.32500000e-02	7.13941306e-02	3.63888795e-03
2.35000000e-02	6.91426693e-02	3.57421331e-03
2.37500000e-02	6.92886357e-02	3.53705669e-03
2.40000000e-02	6.73781489e-02	3.42759986e-03
2.42500000e-02	6.38108484e-02	3.24929538e-03
2.45000000e-02	6.35761119e-02	3.25268406e-03
2.47500000e-02	6.16136704e-02	3.06798070e-03
2.50000000e-02	6.04587291e-02	3.07742402e-03
2.52500000e-02	5.79713082e-02	2.97489240e-03
2.55000000e-02	5.68036136e-02	2.79938498e-03
2.57500000e-02	5.44699741e-02	2.71516809e-03
2.60000000e-02	5.39113095e-02	2.66489370e-03
2.62500000e-02	5.31928916e-02	2.66003455e-03
2.65000000e-02	5.13196539e-02	2.52635352e-03
2.67500000e-02	5.00120711e-02	2.42040872e-03
2.70000000e-02	5.03314434e-02	2.46068977e-03
2.72500000e-02	4.79174087e-02	2.31396286e-03
2.75000000e-02	4.82639489e-02	2.38003286e-03
2.77500000e-02	4.61837401e-02	2.27078223e-03
2.80000000e-02	4.62919386e-02	2.20308432e-03
2.82500000e-02	4.46802901e-02	2.14581613e-03
2.85000000e-02	4.49466454e-02	2.15897349e-03
2.87500000e-02	4.41470121e-02	2.11230024e-03
2.90000000e-02	4.23148056e-02	2.03361652e-03
2.92500000e-02	4.23275611e-02	1.94946084e-03
2.95000000e-02	4.19264514e-02	1.97572324e-03
2.97500000e-02	4.09895674e-02	1.93407131e-03
3.00000000e-02	4.10982474e-02	1.95645317e-03
3.02500000e-02	4.10281057e-02	1.93219636e-03
3.05000000e-02	3.97147464e-02	1.82238590e-03
3.07500000e-02	3.89942180e-02	1.80639495e-03
3.10000000e-02	3.94457534e-02	1.82302792e-03
3.12500000e-02	3.84311252e-02	1.79726684e-03
3.15000000e-02	3.76872284e-02	1.73601768e-03
3.17500000e-02	3.68094300e-02	1.68553050e-03
3.20000000e-02	3.71712454e-02	1.73467392e-03
3.22500000e-02	3.71001961e-02	1.71353631e-03
3.25000000e-02	3.65672400e-02	1.69818908e-03
3.27500000e-02	3.58506948e-02	1.63098104e-03
3.30000000e-02	3.57172797e-02	1.63227511e-03
3.32500000e-02	3.38867062e-02	1.54295775e-03
3.35000000e-02	3.39751790e-02	1.55096151e-03
3.37500000e-02	3.40858230e-02	1.54463375e-03
3.40000000e-02	3.28965444e-02	1.48645836e-03
3.42500000e-02	3.33817525e-02	1.50250338e-03
3.45000000e-02	3.25360734e-02	1.47562207e-03
3.47500000e-02	3.20189339e-02	1.44638709e-03
3.50000000e-02	3.26526162e-02	1.45974246e-03
3.52500000e-02	3.20238865e-02	1.43484335e-03
3.55000000e-02	3.15429117e-02	1.40412253e-03
3.57500000e-02	3.09768850e-02	1.39196076e-03
3.60000000e-02	3.08508733e-02	1.37571373e-03
3.62500000e-02	3.06777851e-02	1.37213069e-03
3.65000000e-02	2.91852039e-02	1.29715929e-03
3.67500000e-02	3.12157014e-02	1.36285002e-03
3.70000000e-02	2.94326105e-02	1.30703006e-03
3.72500000e-02	3.03525402e-02	1.32706651e-03
3.75000000e-02	2.96116688e-02	1.29341450e-03
3.77500000e-02	2.91489282e-02	1.27415145e-03
3.80000000e-02	2.82655585e-02	1.24225098e-03
3.82500000e-02	2.88823416e-02	1.24915516e-03
3.85000000e-02	2.88124768e-02	1.27092905e-03
3.87500000e-02	2.78838349e-02	1.19872276e-03
3.90000000e-02	2.82709061e-02	1.23054640e-03
3.92500000e-02	2.83759873e-02	1.22074099e-03
3.95000000e-02	2.81950223e-02	1.22472272e-03
3.97500000e-02	2.77451943e-02	1.18780530e-03
4.00000000e-02	2.79633394e-02	1.21128684e-03
4.02500000e-02	2.70310780e-02	1.16607165e-03
4.05000000e-02	2.71934452e-02	1.15632691e-03
4.07500000e-02	2.73725895e-02	1.16808692e-03
4.10000000e-02	2.69658033e-02	1.16003859e-03
4.12500000e-02	2.77776296e-02	1.18571245e-03
4.15000000e-02	2.59496536e-02	1.10709347e-03
4.17500000e-02	2.68975178e-02	1.12338737e-03
4.20000000e-02	2.66471509e-02	1.11826018e-03
4.22500000e-02	2.63279592e-02	1.09210310e-03
4.25000000e-02	2.63563976e-02	1.10253755e-03
4.27500000e-02	2.53600643e-02	1.06494940e-03
4.30000000e-02	2.61478277e-02	1.10146949e-03
4.32500000e-02	2.58477815e-02	1.07350016e-03
4.35000000e-02	2.58627099e-02	1.08846116e-03
4.37500000e-02	2.52559857e-02	1.04653229e-03
4.40000000e-02	2.54064267e-02	1.05790215e-03
4.42500000e-02	2.58542695e-02	1.07573077e-03
4.45000000e-02	2.49641815e-02	1.03107666e-03
4.47500000e-02	2.52955949e-02	1.04334149e-03
4.50000000e-02	2.50709532e-02	1.03522494e-03
4.52500000e-02	2.49779445e-02	1.01849781e-03
4.55000000e-02	2.52492616e-02	1.02629163e-03
4.57500000e-02	2.42729390e-02	9.99967521e-04
4.60000000e-02	2.36512863e-02	9.70522734e-04
4.62500000e-02	2.50191488e-02	1.02012807e-03
4.65000000e-02	2.42998115e-02	9.87387923e-04
4.67500000e-02	2.43547945e-02	9.77077246e-04
4.70000000e-02	2.42931491e-02	9.86555507e-04
4.72500000e-02	2.41750937e-02	9.80381795e-04
4.75000000e-02	2.38264657e-02	9.72147014e-04
4.77500000e-02	2.39784880e-02	9.67541019e-04
4.80000000e-02	2.37975085e-02	9.64203121e-04
4.82500000e-02	2.39134030e-02	9.64999010e-04
4.85000000e-02	2.37640099e-02	9.76570972e-04
4.87500000e-02	2.34221598e-02	9.40153722e-04
4.90000000e-02	2.35931422e-02	9.42891730e-04
4.92500000e-02	2.39711736e-02	9.48596584e-04
4.95000000e-02	2.43680243e-02	9.68927335e-04
4.97500000e-02	2.43694407e-02	9.76422822e-04
5.00000000e-02	2.37641965e-02	9.44247335e-04
5.02500000e-02	2.34373865e-02	9.27057588e-04
5.05000000e-02	2.37212268e-02	9.39687870e-04
5.07500000e-02	2.33853500e-02	9.33018103e-04
5.10000000e-02	2.34975414e-02	9.33516473e-04
5.12500000e-02	2.34791991e-02	9.27382516e-04
5.15000000e-02	2.28363529e-02	8.83354240e-04
5.17500000e-02	2.36337502e-02	9.27377136e-04
5.20000000e-02	2.31340455e-02	9.08625117e-04
5.22500000e-02	2.29655393e-02	8.99860961e-04
5.25000000e-02	2.26378536e-02	8.77513911e-04
5.27500000e-02	2.33660505e-02	9.01262377e-04
5.30000000e-02	2.31738635e-02	9.09530652e-04
5.32500000e-02	2.28772768e-02	8.92005727e-04
5.35000000e-02	2.38127021e-02	9.18728858e-04
5.37500000e-02	2.29656522e-02	8.84504190e-04
5.40000000e-02	2.27197614e-02	8.79221825e-04
5.42500000e-02	2.27351302e-02	8.71781293e-04
5.45000000e-02	2.31606785e-02	8.85064072e-04
5.47500000e-02	2.28022940e-02	8.74957426e-04
5.50000000e-02	2.28040805e-02	8.77037785e-04
5.52500000e-02	2.20406430e-02	8.42184431e-04
5.55000000e-02	2.25462184e-02	8.64656080e-04
5.57500000e-02	2.26345805e-02	8.66712703e-04
5.60000000e-02	2.25015169e-02	8.49384145e-04
5.62500000e-02	2.20951530e-02	8.39296735e-04
5.65000000e-02	2.17968304e-02	8.28352628e-04
5.67500000e-02	2.22659890e-02	8.52108179e-04
5.70000000e-02	2.26630326e-02	8.53043682e-04
5.72500000e-02	2.25329418e-02	8.55635154e-04
5.75000000e-02	2.27664502e-02	8.56943245e-04
5.77500000e-02	2.18577491e-02	8.19856113e-04
5.80000000e-02	2.23273636e-02	8.41652212e-04
5.82500000e-02	2.21004470e-02	8.26036489e-04
5.85000000e-02	2.25773021e-02	8.42761467e-04
5.87500000e-02	2.21148487e-02	8.27128858e-04
5.90000000e-02	2.21563135e-02	8.24741322e-04
5.92500000e-02	2.14505932e-02	7.98688791e-04
5.95000000e-02	2.14237419e-02	7.99020456e-04
5.97500000e-02	2.18514021e-02	8.17893487e-04
6.00000000e-02	2.14572849e-02	7.91259024e-04
6.02500000e-02	2.17896320e-02	8.06434774e-04
6.05000000e-02	2.13553500e-02	7.92470272e-04
6.07500000e-02	2.08215028e-02	7.71404128e-04
6.10000000e-02	2.17513461e-02	8.03512686e-04
6.12500000e-02	2.17195223e-02	7.99774556e-04
6.15000000e-02	2.15280303e-02	7.93848127e-04
6.17500000e-02	2.14885197e-02	7.91432807e-04
6.20000000e-02	2.18582838e-02	8.11100249e-04
6.22500000e-02	2.13968136e-02	7.84559984e-04
6.25000000e-02	2.16316330e-02	7.88294224e-04
6.27500000e-02	2.11056779e-02	7.63643655e-04
6.30000000e-02	2.15369668e-02	7.78378394e-04
6.32500000e-02	2.13339111e-02	7.75475146e-04
6.35000000e-02	2.16562584e-02	7.84275515e-04
6.37500000e-02	2.16065086e-02	7.83118014e-04
6.40000000e-02	2.18699827e-02	7.91669590e-04
6.42500000e-02	2.15648730e-02	7.82236485e-04
6.45000000e-02	2.08225945e-02	7.49568879e-04
6.47500000e-02	2.14856289e-02	7.75346562e-04
6.50000000e-02	2.15944027e-02	7.78599594e-04
6.52500000e-02	2.21813743e-02	7.93730219e-04
6.55000000e-02	2.11872740e-02	7.58745155e-04
6.57500000e-02	2.12415587e-02	7.58424158e-04
6.60000000e-02	2.06643149e-02	7.40142866e-04
6.62500000e-02	2.18843249e-02	7.79520213e-04
6.65000000e-02	2.08748485e-02	7.42585914e-04
6.67500000e-02	2.13903654e-02	7.59558908e-04
6.70000000e-02	2.07339304e-02	7.40457616e-04
6.72500000e-02	2.12588039e-02	7.53786044e-04
6.75000000e-02	2.13192591e-02	7.53179805e-04
6.77500000e-02	2.08600372e-02	7.37283858e-04
6.80000000e-02	2.12886399e-02	7.48804446e-04
6.82500000e-02	2.15334341e-02	7.64231242e-04
6.85000000e-02	2.12533243e-02	7.45886322e-04
6.87500000e-02	2.10325388e-02	7.38820269e-04
6.90000000e-02	2.17123256e-02	7.55291707e-04
6.92500000e-02	2.08770970e-02	7.26510176e-04
6.95000000e-02	2.07859673e-02	7.26521434e-04
6.97500000e-02	2.06170781e-02	7.22716390e-04
7.00000000e-02	2.09510616e-02	7.26046660e-04
7.02500000e-02	2.07080480e-02	7.26307632e-04
7.05000000e-02	2.10525884e-02	7.26820019e-04
7.07500000e-02	2.12174488e-02	7.40139055e-04
7.10000000e-02	2.07745517e-02	7.16856862e-04
7.12500000e-02	2.08719192e-02	7.25174424e-04
7.15000000e-02	2.08343738e-02	7.21017399e-04
7.17500000e-02	2.11929573e-02	7.29309850e-04
7.20000000e-02	2.10821803e-02	7.31717055e-04
7.22500000e-02	2.09004622e-02	7.21468482e-04
7.25000000e-02	2.11562166e-02	7.27817608e-04
7.27500000e-02	2.07691883e-02	7.15593779e-04
7.30000000e-02	2.11361375e-02	7.23806971e-04
7.32500000e-02	2.07732633e-02	7.10611847e-04
7.35000000e-02	2.11399942e-02	7.24301702e-04
7.37500000e-02	2.07935198e-02	7.05944997e-04
7.40000000e-02	2.07593065e-02	7.09551383e-04
7.42500000e-02	2.15279481e-02	7.31115763e-04
7.45000000e-02	2.09817567e-02	7.14463871e-04
7.47500000e-02	2.05503006e-02	7.01678822e-04
7.50000000e-02	2.08495951e-02	7.09013149e-04
7.52500000e-02	2.09787777e-02	7.08653803e-04
7.55000000e-02	2.07133869e-02	6.92302318e-04
7.57500000e-02	2.08896869e-02	7.08645827e-04
7.60000000e-02	2.11498424e-02	7.15903023e-04
7.62500000e-02	2.02932981e-02	6.88820420e-04
7.65000000e-02	2.11808550e-02	7.18757695e-04
7.67500000e-02	2.02675229e-02	6.77680590e-04
7.70000000e-02	2.07857529e-02	6.94968036e-04
7.72500000e-02	2.06707671e-02	7.05961240e-04
7.75000000e-02	2.08030158e-02	7.13118126e-04
7.77500000e-02	2.06732649e-02	7.23651932e-04
7.80000000e-02	2.08907538e-02	7.21325961e-04
7.82500000e-02	2.08064073e-02	7.25093195e-04
7.85000000e-02	2.03451679e-02	7.22365379e-04
7.87500000e-02	2.04450182e-02	7.17576459e-04
7.90000000e-02	2.06740391e-02	7.34583560e-04
7.92500000e-02	2.04647250e-02	7.23187246e-04
7.95000000e-02	2.03310908e-02	7.24361230e-04
7.97500000e-02	2.00383243e-02	7.19391155e-04
8.00000000e-02	2.10716636e-02	7.51920305e-04
8.02500000e-02	2.05629220e-02	7.33522973e-04
8.05000000e-02	2.03449823e-02	7.25340222e-04
8.07500000e-02	2.07518842e-02	7.48623992e-04
8.10000000e-02	2.00554222e-02	7.30001814e-04
8.12500000e-02	2.01761278e-02	7.34013369e-04
8.15000000e-02	2.05947814e-02	7.45633823e-04
8.17500000e-02	2.01627714e-02	7.33107196e-04
8.20000000e-02	2.08159695e-02	7.55475348e-04
8.22500000e-02	2.01579922e-02	7.34455863e-04
8.25000000e-02	2.01215225e-02	7.35098138e-04
8.27500000e-02	2.04845365e-02	7.39618355e-04
8.30000000e-02	2.07328409e-02	7.52964560e-04
8.32500000e-02	2.06012166e-02	7.53544969e-04
8.35000000e-02	1.99845336e-02	7.37863769e-04
8.37500000e-02	2.08189357e-02	7.57590794e-04
8.40000000e-02	2.05046830e-02	7.54426995e-04
8.42500000e-02	2.06944605e-02	7.59336163e-04
8.45000000e-02	2.01098132e-02	7.44802058e-04
8.47500000e-02	1.99465234e-02	7.33836153e-04
8.50000000e-02	2.00759345e-02	7.35663588e-04
8.52500000e-02	2.02269752e-02	7.51854092e-04
8.55000000e-02	2.06140265e-02	7.57471034e-04
8.57500000e-02	2.01113932e-02	7.44716650e-04
8.60000000e-02	2.04475321e-02	7.59817599e-04
8.62500000e-02	2.04268094e-02	7.54412090e-04
8.65000000e-02	2.09517036e-02	7.66569987e-04
8.67500000e-02	2.05356436e-02	7.56589524e-04
8.70000000e-02	2.04174205e-02	7.44648778e-04
8.72500000e-02	2.04413976e-02	7.25027311e-04
8.75000000e-02	2.04365123e-02	7.26019295e-04
8.77500000e-02	2.02872042e-02	7.17075062e-04
8.80000000e-02	1.95709103e-02	6.92529794e-04
8.82500000e-02	2.04451069e-02	7.08590916e-04
8.85000000e-02	2.00641713e-02	7.01112393e-04
8.87500000e-02	2.00551834e-02	6.84772070e-04
8.90000000e-02	2.05170611e-02	7.09440693e-04
8.92500000e-02	2.05532171e-02	7.02938035e-04
8.95000000e-02	2.05899122e-02	7.01033024e-04
8.97500000e-02	2.04439177e-02	6.93918418e-04
9.00000000e-02	2.01122831e-02	6.82435966e-04
9.02500000e-02	2.04910031e-02	6.97325630e-04
9.05000000e-02	2.08496915e-02	7.07344226e-04
9.07500000e-02	2.05170073e-02	6.90476710e-04
9.10000000e-02	2.00013044e-02	6.71018398e-04
9.12500000e-02	2.00728445e-02	6.74235310e-04
9.15000000e-02	2.03105564e-02	6.73057089e-04
9.17500000e-02	2.07491949e-02	6.90898801e-04
9.20000000e-02	2.00362592e-02	6.67164001e-04
9.22500000e-02	2.03622330e-02	6.76377761e-04
9.25000000e-02	2.02235019e-02	6.72181241e-04
9.27500000e-02	2.04435113e-02	6.79349001e-04
9.30000000e-02	2.02709149e-02	6.71768016e-04
9.32500000e-02	2.08685795e-02	6.88420108e-04
9.35000000e-02	2.01977579e-02	6.60015158e-04
9.37500000e-02	2.02308303e-02	6.64859305e-04
9.40000000e-02	2.06482874e-02	6.75970588e-04
9.42500000e-02	2.03696127e-02	6.65372111e-04
9.45000000e-02	2.06534106e-02	6.69136622e-04
9.47500000e-02	1.99945514e-02	6.57812598e-04
9.50000000e-02	1.98252806e-02	6.49833511e-04
9.52500000e-02	1.99772770e-02	6.50186093e-04
9.55000000e-02	2.00399182e-02	6.44556173e-04
9.57500000e-02	2.01200850e-02	6.49384822e-04
9.60000000e-02	1.95729032e-02	6.36682440e-04
9.62500000e-02	2.04091898e-02	6.59020496e-04
9.65000000e-02	2.06065062e-02	6.67352451e-04
9.67500000e-02	2.05404720e-02	6.56313694e-04
9.70000000e-02	2.02568465e-02	6.49626651e-04
9.72500000e-02	1.97595241e-02	6.34694004e-04
9.75000000e-02	1.98700036e-02	6.39002582e-04
9.77500000e-02	2.02502082e-02	6.41459945e-04
9.80000000e-02	2.05293298e-02	6.55000674e-04
9.82500000e-02	2.00376414e-02	6.40147609e-04
9.85000000e-02	2.01052877e-02	6.35643599e-04
9.87500000e-02	2.00205503e-02	6.31262028e-04
9.90000000e-02	2.00284266e-02	6.32643365e-04
9.92500000e-02	1.96705509e-02	6.24535792e-04
9.95000000e-02	2.01914886e-02	6.37349735e-04
9.97500000e-02	1.99841390e-02	6.30806358e-04
1.00000000e-01	2.01169954e-02	5.18145409e-04
1.00500000e-01	1.99087234e-02	4.43946821e-04
1.01000000e-01	2.01788367e-02	4.46735676e-04
1.01500000e-01	2.02788395e-02	4.46830916e-04
1.02000000e-01	2.00897001e-02	4.39379795e-04
1.02500000e-01	2.00712389e-02	4.39818644e-04
1.03000000e-01	2.00715897e-02	4.40651691e-04
1.03500000e-01	2.04361486e-02	4.46746746e-04
1.04000000e-01	1.97880387e-02	4.29789921e-04
1.04500000e-01	1.98547089e-02	4.34361690e-04
1.05000000e-01	2.02918477e-02	4.35648436e-04
1.05500000e-01	1.96829125e-02	4.25065464e-04
1.06000000e-01	2.00639294e-02	4.31171959e-04
1.06500000e-01	2.01572221e-02	4.30446369e-04
1.07000000e-01	1.98602748e-02	4.33911802e-04
1.07500000e-01	2.03953325e-02	4.48920188e-04
1.08000000e-01	2.00970424e-02	4.49936068e-04
1.08500000e-01	2.00465465e-02	4.51751865e-04
1.09000000e-01	2.00293030e-02	4.53986357e-04
1.09500000e-01	2.01191059e-02	4.55513979e-04
1.10000000e-01	2.04156342e-02	4.59453432e-04
1.10500000e-01	1.99905419e-02	4.40209262e-04
1.11000000e-01	1.97867229e-02	4.26847714e-04
1.11500000e-01	2.00500655e-02	4.32751697e-04
1.12000000e-01	2.02244143e-02	4.30516283e-04
1.12500000e-01	2.03264791e-02	4.30270959e-04
1.13000000e-01	2.02828262e-02	4.29332018e-04
1.13500000e-01	2.00106255e-02	4.21516403e-04
1.14000000e-01	2.00135980e-02	4.20505990e-04
1.14500000e-01	1.99837253e-02	4.17782233e-04
1.15000000e-01	1.99418508e-02	4.15696645e-04
1.15500000e-01	1.99488468e-02	4.16924812e-04
1.16000000e-01	2.00607670e-02	4.14674328e-04
1.16500000e-01	2.00141277e-02	4.14304322e-04
1.17000000e-01	1.98757039e-02	4.11208014e-04
1.17500000e-01	2.04098588e-02	4.20076714e-04
1.18000000e-01	2.03815849e-02	4.19305415e-04
1.18500000e-01	1.96151831e-02	4.00806608e-04
1.19000000e-01	2.00380391e-02	4.09747976e-04
1.19500000e-01	1.98300717e-02	4.04098893e-04
1.20000000e-01	1.93873658e-02	3.94874988e-04
1.20500000e-01	1.97655265e-02	4.00572274e-04
1.21000000e-01	1.99399711e-02	4.03628714e-04
1.21500000e-01	2.00365285e-02	4.07077009e-04
1.22000000e-01	2.00893395e-02	4.05374497e-04
1.22500000e-01	2.01309134e-02	4.04229403e-04
1.23000000e-01	2.02078397e-02	4.03906778e-04
1.23500000e-01	1.98910699e-02	3.98548672e-04
1.24000000e-01	2.02467457e-02	4.06114385e-04
1.24500000e-01	1.98301138e-02	3.93738307e-04
1.25000000e-01	1.96463734e-02	3.93148467e-04
1.25500000e-01	2.01852690e-02	4.01264885e-04
1.26000000e-01	2.01108761e-02	3.97572232e-04
1.26500000e-01	1.98929897e-02	3.94879658e-04
1.27000000e-01	1.97115588e-02	3.88801624e-04
1.27500000e-01	1.97154880e-02	3.88375126e-04
1.28000000e-01	2.00592421e-02	3.93615110e-04
1.28500000e-01	1.99925992e-02	3.91575101e-04
1.29000000e-01	2.00201215e-02	3.93889925e-04
1.29500000e-01	1.96921479e-02	3.85068834e-04
1.30000000e-01	1.98526437e-02	3.87798595e-04
1.30500000e-01	1.96630489e-02	3.84035310e-04
1.31000000e-01	1.99696297e-02	3.89175694e-04
1.31500000e-01	2.00132117e-02	3.87771057e-04
1.32000000e-01	2.00129929e-02	3.87701748e-04
1.32500000e-01	2.00467779e-02	3.86514668e-04
1.33000000e-01	1.97760288e-02	3.81932322e-04
1.33500000e-01	1.99316798e-02	3.81262233e-04
1.34000000e-01	1.97839276e-02	3.79322225e-04
1.34500000e-01	1.99508160e-02	3.81231476e-04
1.35000000e-01	1.96711337e-02	3.76020903e-04
1.35500000e-01	1.99208318e-02	3.78771383e-04
1.36000000e-01	1.99297545e-02	3.76580195e-04
1.36500000e-01	1.96321346e-02	3.74251629e-04
1.37000000e-01	1.97786238e-02	3.72604160e-04
1.37500000e-01	1.95485812e-02	3.68973075e-04
1.38000000e-01	1.97958806e-02	3.72369317e-04
1.38500000e-01	1.98371999e-02	3.73096348e-04
1.39000000e-01	1.98399536e-02	3.75996826e-04
1.39500000e-01	2.00978277e-02	3.75807894e-04
1.40000000e-01	1.98151514e-02	3.73280234e-04
1.40500000e-01	1.96846466e-02	3.70526106e-04
1.41000000e-01	1.97916684e-02	3.70736134e-04
1.41500000e-01	1.97591815e-02	3.72306906e-04
1.42000000e-01	2.01139109e-02	3.74249940e-04
1.42500000e-01	1.99732109e-02	3.71570314e-04
1.43000000e-01	1.95832122e-02	3.65353876e-04
1.43500000e-01	1.97358276e-02	3.65598874e-04
1.44000000e-01	1.95965619e-02	3.64283022e-04
1.44500000e-01	1.98768762e-02	3.67114624e-04
1.45000000e-01	1.98030197e-02	3.66467314e-04
1.45500000e-01	1.95172114e-02	3.59751362e-04
1.46000000e-01	1.94731199e-02	3.57604689e-04
1.46500000e-01	1.97900823e-02	3.65841918e-04
1.47000000e-01	1.97278526e-02	3.62571570e-04
1.47500000e-01	1.95636251e-02	3.57934224e-04
1.48000000e-01	1.97816591e-02	3.62832238e-04
1.48500000e-01	1.98766649e-02	3.62278619e-04
1.49000000e-01	1.96594480e-02	3.58788355e-04
1.49500000e-01	1.95688840e-02	3.55965248e-04
1.50000000e-01	1.94781501e-02	3.54445516e-04
1.50500000e-01	1.97865844e-02	3.59961693e-04
1.51000000e-01	1.97374508e-02	3.57689657e-04
1.51500000e-01	1.93974953e-02	3.53261260e-04
1.52000000e-01	1.96214719e-02	3.53034703e-04
1.52500000e-01	1.94437982e-02	3.50458549e-04
1.53000000e-01	1.94704218e-02	3.50474954e-04
1.53500000e-01	1.98572986e-02	3.56836436e-04
1.54000000e-01	1.95624105e-02	3.51096479e-04
1.54500000e-01	1.96074801e-02	3.56039381e-04
1.55000000e-01	1.94163886e-02	3.58028683e-04
1.55500000e-01	1.91366955e-02	3.56552342e-04
1.56000000e-01	1.93322284e-02	3.62312477e-04
1.56500000e-01	1.93762397e-02	3.62059358e-04
1.57000000e-01	1.97094651e-02	3.68667530e-04
1.57500000e-01	1.93561601e-02	3.55256538e-04
1.58000000e-01	1.94901839e-02	3.51839052e-04
1.58500000e-01	1.97179136e-02	3.55830401e-04
1.59000000e-01	1.93800730e-02	3.47902498e-04
1.59500000e-01	1.93983499e-02	3.47322420e-04
1.60000000e-01	1.93843003e-02	3.46718953e-04
1.60500000e-01	1.93427381e-02	3.43131166e-04
1.61000000e-01	1.96195797e-02	3.49167048e-04
1.61500000e-01	1.95306083e-02	3.46722973e-04
1.62000000e-01	1.93220126e-02	3.41658952e-04
1.62500000e-01	1.93455786e-02	3.43141832e-04
1.63000000e-01	1.91978678e-02	3.37116549e-04
1.63500000e-01	1.89318640e-02	3.35171523e-04
1.64000000e-01	1.94619889e-02	3.41255443e-04
1.64500000e-01	1.93187613e-02	3.39073339e-04
1.65000000e-01	1.93752583e-02	3.40210834e-04
1.65500000e-01	1.92962875e-02	3.35939318e-04
1.66000000e-01	1.94107588e-02	3.38064357e-04
1.66500000e-01	1.92463409e-02	3.34810776e-04
1.67000000e-01	1.91869105e-02	3.34186968e-04
1.67500000e-01	1.94200667e-02	3.37614135e-04
1.68000000e-01	1.90412548e-02	3.31187359e-04
1.68500000e-01	1.91159441e-02	3.31773909e-04
1.69000000e-01	1.90998305e-02	3.31035008e-04
1.69500000e-01	1.91376605e-02	3.30877413e-04
1.70000000e-01	1.90443139e-02	3.28985418e-04
1.70500000e-01	1.92012571e-02	3.31809426e-04
1.71000000e-01	1.90224589e-02	3.27506971e-04
1.71500000e-01	1.94263316e-02	3.34159861e-04
1.72000000e-01	1.91578187e-02	3.27910021e-04
1.72500000e-01	1.91602496e-02	3.29368130e-04
1.73000000e-01	1.87858118e-02	3.21252651e-04
1.73500000e-01	1.89237240e-02	3.21612703e-04
1.74000000e-01	1.89744096e-02	3.22974570e-04
1.74500000e-01	1.88159658e-02	3.17567016e-04
1.75000000e-01	1.90113484e-02	3.19481246e-04
1.75500000e-01	1.87831447e-02	3.17371973e-04
1.76000000e-01	1.87806749e-02	3.16293589e-04
1.76500000e-01	1.90501353e-02	3.22112973e-04
1.77000000e-01	1.87717491e-02	3.16403484e-04
1.77500000e-01	1.87607710e-02	3.16371860e-04
1.78000000e-01	1.90850435e-02	3.20304261e-04
1.78500000e-01	1.91611096e-02	3.21479004e-04
1.79000000e-01	1.90027660e-02	3.19934663e-04
1.79500000e-01	1.88369050e-02	3.16284075e-04
1.80000000e-01	1.89427050e-02	3.17515665e-04
1.80500000e-01	1.88686088e-02	3.15960410e-04
1.81000000e-01	1.89629980e-02	3.18409848e-04
1.81500000e-01	1.88241711e-02	3.13619632e-04
1.82000000e-01	1.90413752e-02	3.17223924e-04
1.82500000e-01	1.86677328e-02	3.10656040e-04
1.83000000e-01	1.87445761e-02	3.10887046e-04
1.83500000e-01	1.87546040e-02	3.11615942e-04
1.84000000e-01	1.89774037e-02	3.13856967e-04
1.84500000e-01	1.86763147e-02	3.09875001e-04
1.85000000e-01	1.89866990e-02	3.13230961e-04
1.85500000e-01	1.91846062e-02	3.15634071e-04
1.86000000e-01	1.86510176e-02	3.08217231e-04
1.86500000e-01	1.88452065e-02	3.11633624e-04
1.87000000e-01	1.87539074e-02	3.08696567e-04
1.87500000e-01	1.85908536e-02	3.04840216e-04
1.88000000e-01	1.87172659e-02	3.07223467e-04
1.88500000e-01	1.89197544e-02	3.09230273e-04
1.89000000e-01	1.85175300e-02	3.02928497e-04
1.89500000e-01	1.88434830e-02	3.08201945e-04
1.90000000e-01	1.87135322e-02	3.04725465e-04
1.90500000e-01	1.85388366e-02	3.02246732e-04
1.91000000e-01	1.84524161e-02	3.00130034e-04
1.91500000e-01	1.85924626e-02	3.02323404e-04
1.92000000e-01	1.84850056e-02	3.00098848e-04
1.92500000e-01	1.84988428e-02	3.00777836e-04
1.93000000e-01	1.83204663e-02	2.98280924e-04
1.93500000e-01	1.84143916e-02	2.99230834e-04
1.94000000e-01	1.86800561e-02	3.01813286e-04
1.94500000e-01	1.82436131e-02	2.95382120e-04
1.95000000e-01	1.87142999e-02	3.01026042e-04
1.95500000e-01	1.87154770e-02	3.00440505e-04
1.96000000e-01	1.84216236e-02	2.97123249e-04
1.96500000e-01	1.85657787e-02	2.99455690e-04
1.97000000e-01	1.85627162e-02	2.97849092e-04
1.97500000e-01	1.82384920e-02	2.93282602e-04
1.98000000e-01	1.85048848e-02	2.96116807e-04
1.98500000e-01	1.86248580e-02	2.96087695e-04
1.99000000e-01	1.86387094e-02	2.97203559e-04
1.99500000e-01	1.84512366e-02	2.94545598e-04
2.00000000e-01	1.84757414e-02	2.93651550e-04
2.00500000e-01	1.84830504e-02	2.94433312e-04
2.01000000e-01	1.86665192e-02	2.95612987e-04
2.01500000e-01	1.84724000e-02	2.94707926e-04
2.02000000e-01	1.83917926e-02	2.93006906e-04
2.02500000e-01	1.84199874e-02	2.92117784e-04
2.03000000e-01	1.82638291e-02	2.89864518e-04
2.03500000e-01	1.84444883e-02	2.92448233e-04
2.04000000e-01	1.80949026e-02	2.86127109e-04
2.04500000e-01	1.82441051e-02	2.88647487e-04
2.05000000e-01	1.84043983e-02	2.89647599e-04
2.05500000e-01	1.83285536e-02	2.88684841e-04
2.06000000e-01	1.83381563e-02	2.87862289e-04
2.06500000e-01	1.83080023e-02	2.88116678e-04
2.07000000e-01	1.85814596e-02	2.90196455e-04
2.07500000e-01	1.83489158e-02	2.86523493e-04
2.08000000e-01	1.84094640e-02	2.88508814e-04
2.08500000e-01	1.84268407e-02	2.87366211e-04
2.09000000e-01	1.83741649e-02	2.88129098e-04
2.09500000e-01	1.82728481e-02	2.84664149e-04
2.10000000e-01	1.82383626e-02	2.84436714e-04
2.10500000e-01	1.84207028e-02	2.86827645e-04
2.11000000e-01	1.85015066e-02	2.86884518e-04
2.11500000e-01	1.83933484e-02	2.87148902e-04
2.12000000e-01	1.79675003e-02	2.79762660e-04
2.12500000e-01	1.82115748e-02	2.80918938e-04
2.13000000e-01	1.81783315e-02	2.80921342e-04
2.13500000e-01	1.82111578e-02	2.82042224e-04
2.14000000e-01	1.80819270e-02	2.80003118e-04
2.14500000e-01	1.81682821e-02	2.79518234e-04
2.15000000e-01	1.84651511e-02	2.83967664e-04
2.15500000e-01	1.82585595e-02	2.80170156e-04
2.16000000e-01	1.80859002e-02	2.78242055e-04
2.16500000e-01	1.83502543e-02	2.81097184e-04
2.17000000e-01	1.82251134e-02	2.83824634e-04
2.17500000e-01	1.81084644e-02	2.85812913e-04
2.18000000e-01	1.82592565e-02	2.88089887e-04
2.18500000e-01	1.80980260e-02	2.88679871e-04
2.19000000e-01	1.83160003e-02	2.92762544e-04
2.19500000e-01	1.82642488e-02	2.93469126e-04
2.20000000e-01	1.81730743e-02	2.92665352e-04
2.20500000e-01	1.79221690e-02	2.89616048e-04
2.21000000e-01	1.83441510e-02	2.96490656e-04
2.21500000e-01	1.78254258e-02	2.90656240e-04
2.22000000e-01	1.82399231e-02	2.95659033e-04
2.22500000e-01	1.81041848e-02	2.95353066e-04
2.23000000e-01	1.81016938e-02	2.96236635e-04
2.23500000e-01	1.81256409e-02	2.97829561e-04
2.24000000e-01	1.80779565e-02	2.98137301e-04
2.24500000e-01	1.82519999e-02	3.01951113e-04
2.25000000e-01	1.81018240e-02	3.00421898e-04
2.25500000e-01	1.81699023e-02	2.99554762e-04
2.26000000e-01	1.81056031e-02	3.00724905e-04
2.26500000e-01	1.82531451e-02	2.97711380e-04
2.27000000e-01	1.79206422e-02	2.91062541e-04
2.27500000e-01	1.82150528e-02	2.92282208e-04
2.28000000e-01	1.81204552e-02	2.88511178e-04
2.28500000e-01	1.79370147e-02	2.86695693e-04
2.29000000e-01	1.80689929e-02	2.86615508e-04
2.29500000e-01	1.80145004e-02	2.85481354e-04
2.30000000e-01	1.79648719e-02	2.80997337e-04
2.30500000e-01	1.81710362e-02	2.84320164e-04
2.31000000e-01	1.80564770e-02	2.82559993e-04
2.31500000e-01	1.80203553e-02	2.80291053e-04
2.32000000e-01	1.81611601e-02	2.83426943e-04
2.32500000e-01	1.79821436e-02	2.77876335e-04
2.33000000e-01	1.80225612e-02	2.78504574e-04
2.33500000e-01	1.80522730e-02	2.78191108e-04
2.34000000e-01	1.78351461e-02	2.74739790e-04
2.34500000e-01	1.80120527e-02	2.77295088e-04
2.35000000e-01	1.79665070e-02	2.76645974e-04
2.35500000e-01	1.82807284e-02	2.79208987e-04
2.36000000e-01	1.78771525e-02	2.73655133e-04
2.36500000e-01	1.78871109e-02	2.73566046e-04
2.37000000e-01	1.78060267e-02	2.71298874e-04
2.37500000e-01	1.76346560e-02	2.68637482e-04
2.38000000e-01	1.77608337e-02	2.69370500e-04
2.38500000e-01	1.80547340e-02	2.73720454e-04
2.39000000e-01	1.80028230e-02	2.72107348e-04
2.39500000e-01	1.79481647e-02	2.69902678e-04
2.40000000e-01	1.78569403e-02	2.69614052e-04
2.40500000e-01	1.78430318e-02	2.69134954e-04
2.41000000e-01	1.78092654e-02	2.67806306e-04
2.41500000e-01	1.80896983e-02	2.71736810e-04
2.42000000e-01	1.76524117e-02	2.64814924e-04
2.42500000e-01	1.78225172e-02	2.67015706e-04
2.43000000e-01	1.78586465e-02	2.66836321e-04
2.43500000e-01	1.77962397e-02	2.65718640e-04
2.44000000e-01	1.77204809e-02	2.63829270e-04
2.44500000e-01	1.77609779e-02	2.64282750e-04
2.45000000e-01	1.81504040e-02	2.68624327e-04
2.45500000e-01	1.78411461e-02	2.65348370e-04
2.46000000e-01	1.78646679e-02	2.65274215e-04
2.46500000e-01	1.76842848e-02	2.61812910e-04
2.47000000e-01	1.78017407e-02	2.64536436e-04
2.47500000e-01	1.79032484e-02	2.63487063e-04
2.48000000e-01	1.78188962e-02	2.62166772e-04
2.48500000e-01	1.78366912e-02	2.62268796e-04
2.49000000e-01	1.74789248e-02	2.57349407e-04
2.49500000e-01	1.75653143e-02	2.58476341e-04
2.50000000e-01	1.76043947e-02	2.58352176e-04
2.50500000e-01	1.74747110e-02	2.57550711e-04
2.51000000e-01	1.75857688e-02	2.57738562e-04
2.51500000e-01	1.73119307e-02	2.54788628e-04
2.52000000e-01	1.76496725e-02	2.57325157e-04
2.52500000e-01	1.75648768e-02	2.57557860e-04
2.53000000e-01	1.74530601e-02	2.54738259e-04
2.53500000e-01	1.76883078e-02	2.57475917e-04
2.54000000e-01	1.76038239e-02	2.56537034e-04
2.54500000e-01	1.77712697e-02	2.57956179e-04
2.55000000e-01	1.74618856e-02	2.54004524e-04
2.55500000e-01	1.76239830e-02	2.56418156e-04
2.56000000e-01	1.75727419e-02	2.54978319e-04
2.56500000e-01	1.75714218e-02	2.54887733e-04
2.57000000e-01	1.77076172e-02	2.55541354e-04
2.57500000e-01	1.74470539e-02	2.52560078e-04
2.58000000e-01	1.78655485e-02	2.57864219e-04
2.58500000e-01	1.76291421e-02	2.54007239e-04
2.59000000e-01	1.75222302e-02	2.52380830e-04
2.59500000e-01	1.77979423e-02	2.56175519e-04
2.60000000e-01	1.73502217e-02	2.50336392e-04
2.60500000e-01	1.75010953e-02	2.51236164e-04
2.61000000e-01	1.73962900e-02	2.50091748e-04
2.61500000e-01	1.74760854e-02	2.50882800e-04
2.62000000e-01	1.76926930e-02	2.53047010e-04
2.62500000e-01	1.75351861e-02	2.51668513e-04
2.63000000e-01	1.73866884e-02	2.49097272e-04
2.63500000e-01	1.73254183e-02	2.47860519e-04
2.64000000e-01	1.75353197e-02	2.50064899e-04
2.64500000e-01	1.73611790e-02	2.47992220e-04
2.65000000e-01	1.73423883e-02	2.46833612e-04
2.65500000e-01	1.74169874e-02	2.46956220e-04
2.66000000e-01	1.72325096e-02	2.44906402e-04
2.66500000e-01	1.72442199e-02	2.44514953e-04
2.67000000e-01	1.73306049e-02	2.44806685e-04
2.67500000e-01	1.72186868e-02	2.43679542e-04
2.68000000e-01	1.72813581e-02	2.44295655e-04
2.68500000e-01	1.74500263e-02	2.46782683e-04
2.69000000e-01	1.74256899e-02	2.45813304e-04
2.69500000e-01	1.73415977e-02	2.43984251e-04
2.70000000e-01	1.72228119e-02	2.42628791e-04
2.70500000e-01	1.73147536e-02	2.42597673e-04
2.71000000e-01	1.73315961e-02	2.43168309e-04
2.71500000e-01	1.71812193e-02	2.41415673e-04
2.72000000e-01	1.74351022e-02	2.43322495e-04
2.72500000e-01	1.73694401e-02	2.43402703e-04
2.73000000e-01	1.72750673e-02	2.41989181e-04
2.73500000e-01	1.72912200e-02	2.42029059e-04
2.74000000e-01	1.73758150e-02	2.41929472e-04
2.74500000e-01	1.73854783e-02	2.41977453e-04
2.75000000e-01	1.74191364e-02	2.42699076e-04
2.75500000e-01	1.72922737e-02	2.41956571e-04
2.76000000e-01	1.73787224e-02	2.41631964e-04
2.76500000e-01	1.72338409e-02	2.40114620e-04
2.77000000e-01	1.70673602e-02	2.37121867e-04
2.77500000e-01	1.72070029e-02	2.39253462e-04
2.78000000e-01	1.70731136e-02	2.36880498e-04
2.78500000e-01	1.70608116e-02	2.36647465e-04
2.79000000e-01	1.74263089e-02	2.41212413e-04
2.79500000e-01	1.71745294e-02	2.36358528e-04
2.80000000e-01	1.72403895e-02	2.38817913e-04
2.80500000e-01	1.69435307e-02	2.34559831e-04
2.81000000e-01	1.72810990e-02	2.38620997e-04
2.81500000e-01	1.71019694e-02	2.36777241e-04
2.82000000e-01	1.71206819e-02	2.35103042e-04
2.82500000e-01	1.72553799e-02	2.37588724e-04
2.83000000e-01	1.72629595e-02	2.37407475e-04
2.83500000e-01	1.70770707e-02	2.34472675e-04
2.84000000e-01	1.72140179e-02	2.36242387e-04
2.84500000e-01	1.70979229e-02	2.33889385e-04
2.85000000e-01	1.72239020e-02	2.35970143e-04
2.85500000e-01	1.70257509e-02	2.33525448e-04
2.86000000e-01	1.70336318e-02	2.33829528e-04
2.86500000e-01	1.71438150e-02	2.33640829e-04
2.87000000e-01	1.70737497e-02	2.33386728e-04
2.87500000e-01	1.71298327e-02	2.33807290e-04
2.88000000e-01	1.72815704e-02	2.33973926e-04
2.88500000e-01	1.71228399e-02	2.33205379e-04
2.89000000e-01	1.71231061e-02	2.32197992e-04
2.89500000e-01	1.71632539e-02	2.32883272e-04
2.90000000e-01	1.68994649e-02	2.30204969e-04
2.90500000e-01	1.69028898e-02	2.29326372e-04
2.91000000e-01	1.70790750e-02	2.31485235e-04
2.91500000e-01	1.69821189e-02	2.29660748e-04
2.92000000e-01	1.69780503e-02	2.29405150e-04
2.92500000e-01	1.68075822e-02	2.27503468e-04
2.93000000e-01	1.68888477e-02	2.28729555e-04
2.93500000e-01	1.69428855e-02	2.27960927e-04
2.94000000e-01	1.70607441e-02	2.28910081e-04
2.94500000e-01	1.70625026e-02	2.29882279e-04
2.95000000e-01	1.67607533e-02	2.25490377e-04
2.95500000e-01	1.71994286e-02	2.30974790e-04
2.96000000e-01	1.68744847e-02	2.27166090e-04
2.96500000e-01	1.68437612e-02	2.27363867e-04
2.97000000e-01	1.69872859e-02	2.28037284e-04
2.97500000e-01	1.69800884e-02	2.27107749e-04
2.98000000e-01	1.71015348e-02	2.28793557e-04
2.98500000e-01	1.69896714e-02	2.26753357e-04
2.99000000e-01	1.70568074e-02	2.27935572e-04
2.99500000e-01	1.68616402e-02	2.25442226e-04
3.00000000e-01	1.69406951e-02	2.26320777e-04
3.00500000e-01	1.69350445e-02	2.25174640e-04
3.01000000e-01	1.67110814e-02	2.22799281e-04
3.01500000e-01	1.69804969e-02	2.26482552e-04
3.02000000e-01	1.70781303e-02	2.25956663e-04
3.02500000e-01	1.67244211e-02	2.23163746e-04
3.03000000e-01	1.68364422e-02	2.24712303e-04
3.03500000e-01	1.66938882e-02	2.21377015e-04
3.04000000e-01	1.68804920e-02	2.23934743e-04
3.04500000e-01	1.68861245e-02	2.23768881e-04
3.05000000e-01	1.70181392e-02	2.25622996e-04
3.05500000e-01	1.67759502e-02	2.21397049e-04
3.06000000e-01	1.66633840e-02	2.19859827e-04
3.06500000e-01	1.68105500e-02	2.21938920e-04
3.07000000e-01	1.67529311e-02	2.22085993e-04
3.07500000e-01	1.68979818e-02	2.22070028e-04
3.08000000e-01	1.66830587e-02	2.20640230e-04
3.08500000e-01	1.68404226e-02	2.21429298e-04
3.09000000e-01	1.65530661e-02	2.17812883e-04
3.09500000e-01	1.68152475e-02	2.20478223e-04
3.10000000e-01	1.65832973e-02	2.18406224e-04
3.10500000e-01	1.66915565e-02	2.19278049e-04
3.11000000e-01	1.68112122e-02	2.20151863e-04
3.11500000e-01	1.67983518e-02	2.20215378e-04
3.12000000e-01	1.68841311e-02	2.20423543e-04
3.12500000e-01	1.66527135e-02	2.17652445e-04
3.13000000e-01	1.66422231e-02	2.17888800e-04
3.13500000e-01	1.66592762e-02	2.17692702e-04
3.14000000e-01	1.66515915e-02	2.17619598e-04
3.14500000e-01	1.65620131e-02	2.16127383e-04
3.15000000e-01	1.65525898e-02	2.16118106e-04
3.15500000e-01	1.65367148e-02	2.15113559e-04
3.16000000e-01	1.66075572e-02	2.16093145e-04
3.16500000e-01	1.66593777e-02	2.17378284e-04
3.17000000e-01	1.66680090e-02	2.16865928e-04
3.17500000e-01	1.63690219e-02	2.12915376e-04
3.18000000e-01	1.65959249e-02	2.14414152e-04
3.18500000e-01	1.63749660e-02	2.13140393e-04
3.19000000e-01	1.64866825e-02	2.12800410e-04
3.19500000e-01	1.66573229e-02	2.15574611e-04
3.20000000e-01	1.65490415e-02	2.14733822e-04
3.20500000e-01	1.66404004e-02	2.15062670e-04
3.21000000e-01	1.65971928e-02	2.14982872e-04
3.21500000e-01	1.66156355e-02	2.14589777e-04
3.22000000e-01	1.65282064e-02	2.13848596e-04
3.22500000e-01	1.64818081e-02	2.12353858e-04
3.23000000e-01	1.65104394e-02	2.12631596e-04
3.23500000e-01	1.64659412e-02	2.12799639e-04
3.24000000e-01	1.64707707e-02	2.11505202e-04
3.24500000e-01	1.65241070e-02	2.12781249e-04
3.25000000e-01	1.66494959e-02	2.13061894e-04
3.25500000e-01	1.64768135e-02	2.11293783e-04
3.26000000e-01	1.63001048e-02	2.08995244e-04
3.26500000e-01	1.65900125e-02	2.12467334e-04
3.27000000e-01	1.65308045e-02	2.11434022e-04
3.27500000e-01	1.62980603e-02	2.08591757e-04
3.28000000e-01	1.65477394e-02	2.11813894e-04
3.28500000e-01	1.63220923e-02	2.08651026e-04
3.29000000e-01	1.63882105e-02	2.09884408e-04
3.29500000e-01	1.63822830e-02	2.09274836e-04
3.30000000e-01	1.63712569e-02	2.08585306e-04
3.30500000e-01	1.64078223e-02	2.08631098e-04
3.31000000e-01	1.63112130e-02	2.07064241e-04
3.31500000e-01	1.63389602e-02	2.08569034e-04
3.32000000e-01	1.62121066e-02	2.07285590e-04
3.32500000e-01	1.63795376e-02	2.08193908e-04
3.33000000e-01	1.62439313e-02	2.06444377e-04
3.33500000e-01	1.62463345e-02	2.06388898e-04
3.34000000e-01	1.62528336e-02	2.06175108e-04
3.34500000e-01	1.63100069e-02	2.06930237e-04
3.35000000e-01	1.63446213e-02	2.07234801e-04
3.35500000e-01	1.63244293e-02	2.06005673e-04
3.36000000e-01	1.64142842e-02	2.06742206e-04
3.36500000e-01	1.61694183e-02	2.04623979e-04
3.37000000e-01	1.62219069e-02	2.04364892e-04
3.37500000e-01	1.60807659e-02	2.03455556e-04
3.38000000e-01	1.62080083e-02	2.04779507e-04
3.38500000e-01	1.61693694e-02	2.03664679e-04
3.39000000e-01	1.60384764e-02	2.02359320e-04
3.39500000e-01	1.62764573e-02	2.04331596e-04
3.40000000e-01	1.61647413e-02	2.03689326e-04
3.40500000e-01	1.63302978e-02	2.05191265e-04
3.41000000e-01	1.62692855e-02	2.03784178e-04
3.41500000e-01	1.62861178e-02	2.04536827e-04
3.42000000e-01	1.62266390e-02	2.03650828e-04
3.42500000e-01	1.61237978e-02	2.01918528e-04
3.43000000e-01	1.60961777e-02	2.02043803e-04
3.43500000e-01	1.61108608e-02	2.01426690e-04
3.44000000e-01	1.61861616e-02	2.02990053e-04
3.44500000e-01	1.60799965e-02	2.00166744e-04
3.45000000e-01	1.59621233e-02	2.00270804e-04
3.45500000e-01	1.60829386e-02	2.00280949e-04
3.46000000e-01	1.59852167e-02	1.99520087e-04
3.46500000e-01	1.61241230e-02	2.01663485e-04
3.47000000e-01	1.60523642e-02	2.00133035e-04
3.47500000e-01	1.61095119e-02	2.00569290e-04
3.48000000e-01	1.59627593e-02	1.97997543e-04
3.48500000e-01	1.58615747e-02	1.97492068e-04
3.49000000e-01	1.59042744e-02	1.96590578e-04
3.49500000e-01	1.59511869e-02	1.98353360e-04
3.50000000e-01	1.61146648e-02	1.62628009e-04
3.51000000e-01	1.60095521e-02	1.39959838e-04
3.52000000e-01	1.59504499e-02	1.39838484e-04
3.53000000e-01	1.59070924e-02	1.38864679e-04
3.54000000e-01	1.59333729e-02	1.38639269e-04
3.55000000e-01	1.59936296e-02	1.38951398e-04
3.56000000e-01	1.58714469e-02	1.38721373e-04
3.57000000e-01	1.59236357e-02	1.41974655e-04
3.58000000e-01	1.58699135e-02	1.42628861e-04
3.59000000e-01	1.58596104e-02	1.43559699e-04
3.60000000e-01	1.59123658e-02	1.44296938e-04
3.61000000e-01	1.56764852e-02	1.43665096e-04
3.62000000e-01	1.57221547e-02	1.44388137e-04
3.63000000e-01	1.57278216e-02	1.45181373e-04
3.64000000e-01	1.57037040e-02	1.45447141e-04
3.65000000e-01	1.56408959e-02	1.45384776e-04
3.66000000e-01	1.57038422e-02	1.44194003e-04
3.67000000e-01	1.56975339e-02	1.42012806e-04
3.68000000e-01	1.56973266e-02	1.41013180e-04
3.69000000e-01	1.57506236e-02	1.40379400e-04
3.70000000e-01	1.57057873e-02	1.39437292e-04
3.71000000e-01	1.56950756e-02	1.41204844e-04
3.72000000e-01	1.55300709e-02	1.40699029e-04
3.73000000e-01	1.56988703e-02	1.42665466e-04
3.74000000e-01	1.54773018e-02	1.41055192e-04
3.75000000e-01	1.58036584e-02	1.43394737e-04
3.76000000e-01	1.56446987e-02	1.42357211e-04
3.77000000e-01	1.56259474e-02	1.42041002e-04
3.78000000e-01	1.56798405e-02	1.42929419e-04
3.79000000e-01	1.56364285e-02	1.42234245e-04
3.80000000e-01	1.56522477e-02	1.42014126e-04
3.81000000e-01	1.55888563e-02	1.41238666e-04
3.82000000e-01	1.54207251e-02	1.40444821e-04
3.83000000e-01	1.55907155e-02	1.41211983e-04
3.84000000e-01	1.55349784e-02	1.40925406e-04
3.85000000e-01	1.55338142e-02	1.41075605e-04
3.86000000e-01	1.53275027e-02	1.39542179e-04
3.87000000e-01	1.54948721e-02	1.40721248e-04
3.88000000e-01	1.53786459e-02	1.39720094e-04
3.89000000e-01	1.53716201e-02	1.39546917e-04
3.90000000e-01	1.53925590e-02	1.39378720e-04
3.91000000e-01	1.54155533e-02	1.39623054e-04
3.92000000e-01	1.54039360e-02	1.39591278e-04
3.93000000e-01	1.54781374e-02	1.40113978e-04
3.94000000e-01	1.52962438e-02	1.38674578e-04
3.95000000e-01	1.53950571e-02	1.39091256e-04
3.96000000e-01	1.53643448e-02	1.38978346e-04
3.97000000e-01	1.53083934e-02	1.38591473e-04
3.98000000e-01	1.53298465e-02	1.38834823e-04
3.99000000e-01	1.53920280e-02	1.39296696e-04
4.00000000e-01	1.53385910e-02	1.38892497e-04
4.01000000e-01	1.54676803e-02	1.39612967e-04
4.02000000e-01	1.52619961e-02	1.38074186e-04
4.03000000e-01	1.52281541e-02	1.37765906e-04
4.04000000e-01	1.52513290e-02	1.37908761e-04
4.05000000e-01	1.52523679e-02	1.37999480e-04
4.06000000e-01	1.52771116e-02	1.37915010e-04
4.07000000e-01	1.52512749e-02	1.38152887e-04
4.08000000e-01	1.51586852e-02	1.36895621e-04
4.09000000e-01	1.51210130e-02	1.36708630e-04
4.10000000e-01	1.50242958e-02	1.36109907e-04
4.11000000e-01	1.51854859e-02	1.36929776e-04
4.12000000e-01	1.51327017e-02	1.36823142e-04
4.13000000e-01	1.50126767e-02	1.35625723e-04
4.14000000e-01	1.50560177e-02	1.35877109e-04
4.15000000e-01	1.50609766e-02	1.35683093e-04
4.16000000e-01	1.51424505e-02	1.36425963e-04
4.17000000e-01	1.51753138e-02	1.36693497e-04
4.18000000e-01	1.51768863e-02	1.38130611e-04
4.19000000e-01	1.51598616e-02	1.40115188e-04
4.20000000e-01	1.52724702e-02	1.42019136e-04
4.21000000e-01	1.50911717e-02	1.40697241e-04
4.22000000e-01	1.51670946e-02	1.41265589e-04
4.23000000e-01	1.50960085e-02	1.41670896e-04
4.24000000e-01	1.50015671e-02	1.41213434e-04
4.25000000e-01	1.51634262e-02	1.42352438e-04
4.26000000e-01	1.51598723e-02	1.42429848e-04
4.27000000e-01	1.52446009e-02	1.43429034e-04
4.28000000e-01	1.51060885e-02	1.42421786e-04
4.29000000e-01	1.50667741e-02	1.42329088e-04
4.30000000e-01	1.50833092e-02	1.42136875e-04
4.31000000e-01	1.51785150e-02	1.43010687e-04
4.32000000e-01	1.50249857e-02	1.41834403e-04
4.33000000e-01	1.51082718e-02	1.42267546e-04
4.34000000e-01	1.51077517e-02	1.42563512e-04
4.35000000e-01	1.49687542e-02	1.41651500e-04
4.36000000e-01	1.50245393e-02	1.42525722e-04
4.37000000e-01	1.49351973e-02	1.41817456e-04
4.38000000e-01	1.49788887e-02	1.42504083e-04
4.39000000e-01	1.49992930e-02	1.42614317e-04
4.40000000e-01	1.49767911e-02	1.42681086e-04
4.41000000e-01	1.50120244e-02	1.42909394e-04
4.42000000e-01	1.50119567e-02	1.43386576e-04
4.43000000e-01	1.50564390e-02	1.43892252e-04
4.44000000e-01	1.48835623e-02	1.42800029e-04
4.45000000e-01	1.49316388e-02	1.43390895e-04
4.46000000e-01	1.48392755e-02	1.42238135e-04
4.47000000e-01	1.49707131e-02	1.43289753e-04
4.48000000e-01	1.48301524e-02	1.43130493e-04
4.49000000e-01	1.48312352e-02	1.43111240e-04
4.50000000e-01	1.49246075e-02	1.43736700e-04
4.51000000e-01	1.50306547e-02	1.45295687e-04
4.52000000e-01	1.48275221e-02	1.43286232e-04
4.53000000e-01	1.47647462e-02	1.42801536e-04
4.54000000e-01	1.47435792e-02	1.43186164e-04
4.55000000e-01	1.47799445e-02	1.43063317e-04
4.56000000e-01	1.48464350e-02	1.43789403e-04
4.57000000e-01	1.48132886e-02	1.43685249e-04
4.58000000e-01	1.48616042e-02	1.44149434e-04
4.59000000e-01	1.48390862e-02	1.44013584e-04
4.60000000e-01	1.48311753e-02	1.44131027e-04
4.61000000e-01	1.47533832e-02	1.43665403e-04
4.62000000e-01	1.47635855e-02	1.43638157e-04
4.63000000e-01	1.48611328e-02	1.45105527e-04
4.64000000e-01	1.47173608e-02	1.43617664e-04
4.65000000e-01	1.46770579e-02	1.43238567e-04
4.66000000e-01	1.48251237e-02	1.44678444e-04
4.67000000e-01	1.47069624e-02	1.43938942e-04
4.68000000e-01	1.45712616e-02	1.42608295e-04
4.69000000e-01	1.46932855e-02	1.43854897e-04
4.70000000e-01	1.45002464e-02	1.42674675e-04
4.71000000e-01	1.45967102e-02	1.42890333e-04
4.72000000e-01	1.46400044e-02	1.43144985e-04
4.73000000e-01	1.46691965e-02	1.43793615e-04
4.74000000e-01	1.45586058e-02	1.42424645e-04
4.75000000e-01	1.45497767e-02	1.42401578e-04
4.76000000e-01	1.46344032e-02	1.42828964e-04
4.77000000e-01	1.45929175e-02	1.42699275e-04
4.78000000e-01	1.46610883e-02	1.43899440e-04
4.79000000e-01	1.47724494e-02	1.44359869e-04
4.80000000e-01	1.46314486e-02	1.43269158e-04
4.81000000e-01	1.45764857e-02	1.43041413e-04
4.82000000e-01	1.45943497e-02	1.43084614e-04
4.83000000e-01	1.46758530e-02	1.43929126e-04
4.84000000e-01	1.46040844e-02	1.43257481e-04
4.85000000e-01	1.46612609e-02	1.44170779e-04
4.86000000e-01	1.45325660e-02	1.43139372e-04
4.87000000e-01	1.44988799e-02	1.42861085e-04
4.88000000e-01	1.43873510e-02	1.42575261e-04
4.89000000e-01	1.45122773e-02	1.43142648e-04
4.90000000e-01	1.45452215e-02	1.43365288e-04
4.91000000e-01	1.46225583e-02	1.44447418e-04
4.92000000e-01	1.44268045e-02	1.42828485e-04
4.93000000e-01	1.45598366e-02	1.43646406e-04
4.94000000e-01	1.44713734e-02	1.43116756e-04
4.95000000e-01	1.44821423e-02	1.44298368e-04
4.96000000e-01	1.44506178e-02	1.48160630e-04
4.97000000e-01	1.44620462e-02	1.50804508e-04
4.98000000e-01	1.45361629e-02	1.53404830e-04
4.99000000e-01	1.44669700e-02	1.55247241e-04
5.00000000e-01	1.44550317e-02	1.56402929e-04
5.01000000e-01	1.44720458e-02	1.58064230e-04
5.02000000e-01	1.44326601e-02	1.58989993e-04
5.03000000e-01	1.44120187e-02	1.60622912e-04
5.04000000e-01	1.45093463e-02	1.62753664e-04
5.05000000e-01	1.43705726e-02	1.58802819e-04
5.06000000e-01	1.43159134e-02	1.54864228e-04
5.07000000e-01	1.44595239e-02	1.55023814e-04
5.08000000e-01	1.44047580e-02	1.52723790e-04
5.09000000e-01	1.45642582e-02	1.54013327e-04
5.10000000e-01	1.43394412e-02	1.51590825e-04
5.11000000e-01	1.42883379e-02	1.50325161e-04
5.12000000e-01	1.44105494e-02	1.50733671e-04
5.13000000e-01	1.44932161e-02	1.51822710e-04
5.14000000e-01	1.43533040e-02	1.50308594e-04
5.15000000e-01	1.43302377e-02	1.49438027e-04
5.16000000e-01	1.43611973e-02	1.49493668e-04
5.17000000e-01	1.42781802e-02	1.48623426e-04
5.18000000e-01	1.42477047e-02	1.48481273e-04
5.19000000e-01	1.41752051e-02	1.46910276e-04
5.20000000e-01	1.42203688e-02	1.46776174e-04
5.21000000e-01	1.42402787e-02	1.47130148e-04
5.22000000e-01	1.42590401e-02	1.47048962e-04
5.23000000e-01	1.42347733e-02	1.46932722e-04
5.24000000e-01	1.42511043e-02	1.46845423e-04
5.25000000e-01	1.42904637e-02	1.47409950e-04
5.26000000e-01	1.42896325e-02	1.47161120e-04
5.27000000e-01	1.42682247e-02	1.46848610e-04
5.28000000e-01	1.42909030e-02	1.47239476e-04
5.29000000e-01	1.42566975e-02	1.47129232e-04
5.30000000e-01	1.41979407e-02	1.46717877e-04
5.31000000e-01	1.42083847e-02	1.46995118e-04
5.32000000e-01	1.41838195e-02	1.45962354e-04
5.33000000e-01	1.41512105e-02	1.45573729e-04
5.34000000e-01	1.42222545e-02	1.46765656e-04
5.35000000e-01	1.40857758e-02	1.45510235e-04
5.36000000e-01	1.40597394e-02	1.45083273e-04
5.37000000e-01	1.41072681e-02	1.45264192e-04
5.38000000e-01	1.40867346e-02	1.45352036e-04
5.39000000e-01	1.41699692e-02	1.46239666e-04
5.40000000e-01	1.40168028e-02	1.44397002e-04
5.41000000e-01	1.41563268e-02	1.45938690e-04
5.42000000e-01	1.40685851e-02	1.45131064e-04
5.43000000e-01	1.40486607e-02	1.44700552e-04
5.44000000e-01	1.40669487e-02	1.44954086e-04
5.45000000e-01	1.40312318e-02	1.45131945e-04
5.46000000e-01	1.39454151e-02	1.43776047e-04
5.47000000e-01	1.40257547e-02	1.44952290e-04
5.48000000e-01	1.40703413e-02	1.44969097e-04
5.49000000e-01	1.38470395e-02	1.43308073e-04
5.50000000e-01	1.39529421e-02	1.44251824e-04
5.51000000e-01	1.38575520e-02	1.43021941e-04
5.52000000e-01	1.38829493e-02	1.42593675e-04
5.53000000e-01	1.39507689e-02	1.43434283e-04
5.54000000e-01	1.38125780e-02	1.41385279e-04
5.55000000e-01	1.38534855e-02	1.41921031e-04
5.56000000e-01	1.40131776e-02	1.43260483e-04
5.57000000e-01	1.38329014e-02	1.41729598e-04
5.58000000e-01	1.39980056e-02	1.43638750e-04
5.59000000e-01	1.36739065e-02	1.40457980e-04
5.60000000e-01	1.39382809e-02	1.43090334e-04
5.61000000e-01	1.39350743e-02	1.42902903e-04
5.62000000e-01	1.37161673e-02	1.40864205e-04
5.63000000e-01	1.38499983e-02	1.42452448e-04
5.64000000e-01	1.38327096e-02	1.42104614e-04
5.65000000e-01	1.37543201e-02	1.41451523e-04
5.66000000e-01	1.37290839e-02	1.41112055e-04
5.67000000e-01	1.37562299e-02	1.41751162e-04
5.68000000e-01	1.37977626e-02	1.41394612e-04
5.69000000e-01	1.38272209e-02	1.41725672e-04
5.70000000e-01	1.36995061e-02	1.40535201e-04
5.71000000e-01	1.38336951e-02	1.41782778e-04
5.72000000e-01	1.37151484e-02	1.40887969e-04
5.73000000e-01	1.37922482e-02	1.41389499e-04
5.74000000e-01	1.36958443e-02	1.40540167e-04
5.75000000e-01	1.37396205e-02	1.41267319e-04
5.76000000e-01	1.36473997e-02	1.40095579e-04
5.77000000e-01	1.36580883e-02	1.40737316e-04
5.78000000e-01	1.36214443e-02	1.40284410e-04
5.79000000e-01	1.36443056e-02	1.40523921e-04
5.80000000e-01	1.37897029e-02	1.42233395e-04
5.81000000e-01	1.36658475e-02	1.40792218e-04
5.82000000e-01	1.36114895e-02	1.40178232e-04
5.83000000e-01	1.36098239e-02	1.40343653e-04
5.84000000e-01	1.35302285e-02	1.39209277e-04
5.85000000e-01	1.35017407e-02	1.39069545e-04
5.86000000e-01	1.36664293e-02	1.40520734e-04
5.87000000e-01	1.36491945e-02	1.40315969e-04
5.88000000e-01	1.35224079e-02	1.39500556e-04
5.89000000e-01	1.35164171e-02	1.39277712e-04
5.90000000e-01	1.35305809e-02	1.39665021e-04
5.91000000e-01	1.34793788e-02	1.38797220e-04
5.92000000e-01	1.36594544e-02	1.41023162e-04
5.93000000e-01	1.36345761e-02	1.40604505e-04
5.94000000e-01	1.36841454e-02	1.41032352e-04
5.95000000e-01	1.35267245e-02	1.39576154e-04
5.96000000e-01	1.35213802e-02	1.40191123e-04
5.97000000e-01	1.35270814e-02	1.39280865e-04
5.98000000e-01	1.33963471e-02	1.38527525e-04
5.99000000e-01	1.34293323e-02	1.38473682e-04
6.00000000e-01	1.34666388e-02	1.39473602e-04
6.01000000e-01	1.33060026e-02	1.37686902e-04
6.02000000e-01	1.35791623e-02	1.40324125e-04
6.03000000e-01	1.33401198e-02	1.37765581e-04
6.04000000e-01	1.34507294e-02	1.38818747e-04
6.05000000e-01	1.33856280e-02	1.38307911e-04
6.06000000e-01	1.33498145e-02	1.38334706e-04
6.07000000e-01	1.34503745e-02	1.39249998e-04
6.08000000e-01	1.35156820e-02	1.39933931e-04
6.09000000e-01	1.33345981e-02	1.38450082e-04
6.10000000e-01	1.34614456e-02	1.39369826e-04
6.11000000e-01	1.32587047e-02	1.37358145e-04
6.12000000e-01	1.33968050e-02	1.38861266e-04
6.13000000e-01	1.32711246e-02	1.37925639e-04
6.14000000e-01	1.33804179e-02	1.38948803e-04
6.15000000e-01	1.34274280e-02	1.39544632e-04
6.16000000e-01	1.34174072e-02	1.38897590e-04
6.17000000e-01	1.35482179e-02	1.40201947e-04
6.18000000e-01	1.34274759e-02	1.39190832e-04
6.19000000e-01	1.33124720e-02	1.37267209e-04
6.20000000e-01	1.32844641e-02	1.37332641e-04
6.21000000e-01	1.33302342e-02	1.37592494e-04
6.22000000e-01	1.31583084e-02	1.35991361e-04
6.23000000e-01	1.33190387e-02	1.37068278e-04
6.24000000e-01	1.30711172e-02	1.35094228e-04
6.25000000e-01	1.31834470e-02	1.35495143e-04
6.26000000e-01	1.32267341e-02	1.36086492e-04
6.27000000e-01	1.33732033e-02	1.37980345e-04
6.28000000e-01	1.32396245e-02	1.36014034e-04
6.29000000e-01	1.32767487e-02	1.36185248e-04
6.30000000e-01	1.32116033e-02	1.35751300e-04
6.31000000e-01	1.32499925e-02	1.36756884e-04
6.32000000e-01	1.32076323e-02	1.36367920e-04
6.33000000e-01	1.31375107e-02	1.35232036e-04
6.34000000e-01	1.32472750e-02	1.39812706e-04
6.35000000e-01	1.32701632e-02	1.44128243e-04
6.36000000e-01	1.31638466e-02	1.45761232e-04
6.37000000e-01	1.33608846e-02	1.50264037e-04
6.38000000e-01	1.31667934e-02	1.49817391e-04
6.39000000e-01	1.31715218e-02	1.51988746e-04
6.40000000e-01	1.32775017e-02	1.55106637e-04
6.41000000e-01	1.33477373e-02	1.57078545e-04
6.42000000e-01	1.34578169e-02	1.60244192e-04
6.43000000e-01	1.33447244e-02	1.58730492e-04
6.44000000e-01	1.31981107e-02	1.51833734e-04
6.45000000e-01	1.33645460e-02	1.51405444e-04
6.46000000e-01	1.32473459e-02	1.48612705e-04
6.47000000e-01	1.32932596e-02	1.48047050e-04
6.48000000e-01	1.32364674e-02	1.46084762e-04
6.49000000e-01	1.32836840e-02	1.46568055e-04
6.50000000e-01	1.33515372e-02	1.45823932e-04
6.51000000e-01	1.32612716e-02	1.44673511e-04
6.52000000e-01	1.32303741e-02	1.43805657e-04
6.53000000e-01	1.32076596e-02	1.42826986e-04
6.54000000e-01	1.30777661e-02	1.41631725e-04
6.55000000e-01	1.32889005e-02	1.42728132e-04
6.56000000e-01	1.30657691e-02	1.40503261e-04
6.57000000e-01	1.32967495e-02	1.42785097e-04
6.58000000e-01	1.32115419e-02	1.41754947e-04
6.59000000e-01	1.33120501e-02	1.42581258e-04
6.60000000e-01	1.31437534e-02	1.41172559e-04
6.61000000e-01	1.31871391e-02	1.41032707e-04
6.62000000e-01	1.31578680e-02	1.40980680e-04
6.63000000e-01	1.31434697e-02	1.41184992e-04
6.64000000e-01	1.31116899e-02	1.39944547e-04
6.65000000e-01	1.31151998e-02	1.40145497e-04
6.66000000e-01	1.31278713e-02	1.40396590e-04
6.67000000e-01	1.31004647e-02	1.39988497e-04
6.68000000e-01	1.30810780e-02	1.39480275e-04
6.69000000e-01	1.31149142e-02	1.40466550e-04
6.70000000e-01	1.30424951e-02	1.39318198e-04
6.71000000e-01	1.29966815e-02	1.38736259e-04
6.72000000e-01	1.29935349e-02	1.38414659e-04
6.73000000e-01	1.30151522e-02	1.38322796e-04
6.74000000e-01	1.31509135e-02	1.40474441e-04
6.75000000e-01	1.31765693e-02	1.39930458e-04
6.76000000e-01	1.30741654e-02	1.39345950e-04
6.77000000e-01	1.30170073e-02	1.38695889e-04
6.78000000e-01	1.30678573e-02	1.39095138e-04
6.79000000e-01	1.29798561e-02	1.38240029e-04
6.80000000e-01	1.30606417e-02	1.38927776e-04
6.81000000e-01	1.30520050e-02	1.38929257e-04
6.82000000e-01	1.30360714e-02	1.38658916e-04
6.83000000e-01	1.28833699e-02	1.37248274e-04
6.84000000e-01	1.30245397e-02	1.38858062e-04
6.85000000e-01	1.29342183e-02	1.37423186e-04
6.86000000e-01	1.29766444e-02	1.37763221e-04
6.87000000e-01	1.30052705e-02	1.38218177e-04
6.88000000e-01	1.29285982e-02	1.37082572e-04
6.89000000e-01	1.29447784e-02	1.37789752e-04
6.90000000e-01	1.28908602e-02	1.36784269e-04
6.91000000e-01	1.29170936e-02	1.37503951e-04
6.92000000e-01	1.29794064e-02	1.37928036e-04
6.93000000e-01	1.28752288e-02	1.37186892e-04
6.94000000e-01	1.28588412e-02	1.36719235e-04
6.95000000e-01	1.29056345e-02	1.37369173e-04
6.96000000e-01	1.29217340e-02	1.37346931e-04
6.97000000e-01	1.29649997e-02	1.37607872e-04
6.98000000e-01	1.28515086e-02	1.36665327e-04
6.99000000e-01	1.29625182e-02	1.37399530e-04
7.00000000e-01	1.28539452e-02	1.36457351e-04
7.01000000e-01	1.27374728e-02	1.35623384e-04
7.02000000e-01	1.28328790e-02	1.36358577e-04
7.03000000e-01	1.27104913e-02	1.35083845e-04
7.04000000e-01	1.28158402e-02	1.36567630e-04
7.05000000e-01	1.27660858e-02	1.35953243e-04
7.06000000e-01	1.27742040e-02	1.35593257e-04
7.07000000e-01	1.27023718e-02	1.34956461e-04
7.08000000e-01	1.28812024e-02	1.36134345e-04
7.09000000e-01	1.27715711e-02	1.35536955e-04
7.10000000e-01	1.26729883e-02	1.34676319e-04
7.11000000e-01	1.25651621e-02	1.33840027e-04
7.12000000e-01	1.26858609e-02	1.34976348e-04
7.13000000e-01	1.26594013e-02	1.34609796e-04
7.14000000e-01	1.26637001e-02	1.34520958e-04
7.15000000e-01	1.27405838e-02	1.35093621e-04
7.16000000e-01	1.26524193e-02	1.34394832e-04
7.17000000e-01	1.26152492e-02	1.34265955e-04
7.18000000e-01	1.28064205e-02	1.36153596e-04
7.19000000e-01	1.26021179e-02	1.33888402e-04
7.20000000e-01	1.26798266e-02	1.34445306e-04
7.21000000e-01	1.26513180e-02	1.34180738e-04
7.22000000e-01	1.26224528e-02	1.34203524e-04
7.23000000e-01	1.26162604e-02	1.34352186e-04
7.24000000e-01	1.26097449e-02	1.33670269e-04
7.25000000e-01	1.25915348e-02	1.33692520e-04
7.26000000e-01	1.24639287e-02	1.32846157e-04
7.27000000e-01	1.25100864e-02	1.33125318e-04
7.28000000e-01	1.24825370e-02	1.32320377e-04
7.29000000e-01	1.24392641e-02	1.32680078e-04
7.30000000e-01	1.24352784e-02	1.32524786e-04
7.31000000e-01	1.24949378e-02	1.33498800e-04
7.32000000e-01	1.23666158e-02	1.32041732e-04
7.33000000e-01	1.24762240e-02	1.32556224e-04
7.34000000e-01	1.23941581e-02	1.31947447e-04
7.35000000e-01	1.23610716e-02	1.31199070e-04
7.36000000e-01	1.24439486e-02	1.31914894e-04
7.37000000e-01	1.25545510e-02	1.32667690e-04
7.38000000e-01	1.24510854e-02	1.31588748e-04
7.39000000e-01	1.22722150e-02	1.29620724e-04
7.40000000e-01	1.22799045e-02	1.29393510e-04
7.41000000e-01	1.23992703e-02	1.30490847e-04
7.42000000e-01	1.23515948e-02	1.30155559e-04
7.43000000e-01	1.24309187e-02	1.30452629e-04
7.44000000e-01	1.24201384e-02	1.30831655e-04
7.45000000e-01	1.24319091e-02	1.30419453e-04
7.46000000e-01	1.23445228e-02	1.29669013e-04
7.47000000e-01	1.23690303e-02	1.30582215e-04
7.48000000e-01	1.23915081e-02	1.30757133e-04
7.49000000e-01	1.22648501e-02	1.29266093e-04
7.50000000e-01	1.23217593e-02	1.29507103e-04
7.51000000e-01	1.22521460e-02	1.29263379e-04
7.52000000e-01	1.22806018e-02	1.29181601e-04
7.53000000e-01	1.23519826e-02	1.29813670e-04
7.54000000e-01	1.23384126e-02	1.29754381e-04
7.55000000e-01	1.21542546e-02	1.28281327e-04
7.56000000e-01	1.23500640e-02	1.30043227e-04
7.57000000e-01	1.22312254e-02	1.29140094e-04
7.58000000e-01	1.23043240e-02	1.30078084e-04
7.59000000e-01	1.22854314e-02	1.29109991e-04
7.60000000e-01	1.21784549e-02	1.27782444e-04
7.61000000e-01	1.22179985e-02	1.28309766e-04
7.62000000e-01	1.22120007e-02	1.27789619e-04
7.63000000e-01	1.20627954e-02	1.26542065e-04
7.64000000e-01	1.20918710e-02	1.26432117e-04
7.65000000e-01	1.21645431e-02	1.26769920e-04
7.66000000e-01	1.20393884e-02	1.25974646e-04
7.67000000e-01	1.22233207e-02	1.27901012e-04
7.68000000e-01	1.20732800e-02	1.26398230e-04
7.69000000e-01	1.20722736e-02	1.26087169e-04
7.70000000e-01	1.19843355e-02	1.25922708e-04
7.71000000e-01	1.21269823e-02	1.26633932e-04
7.72000000e-01	1.21970489e-02	1.31456852e-04
7.73000000e-01	1.21864009e-02	1.35453640e-04
7.74000000e-01	1.20641828e-02	1.37030772e-04
7.75000000e-01	1.22068758e-02	1.40623678e-04
7.76000000e-01	1.20824744e-02	1.41416283e-04
7.77000000e-01	1.20505415e-02	1.43252805e-04
7.78000000e-01	1.20679423e-02	1.45132627e-04
7.79000000e-01	1.19955044e-02	1.46516271e-04
7.80000000e-01	1.20347809e-02	1.48754171e-04
7.81000000e-01	1.20119381e-02	1.49688532e-04
7.82000000e-01	1.19209878e-02	1.50139089e-04
7.83000000e-01	1.19085890e-02	1.52096780e-04
7.84000000e-01	1.20101455e-02	1.54621822e-04
7.85000000e-01	1.19473472e-02	1.55483022e-04
7.86000000e-01	1.17572146e-02	1.55225363e-04
7.87000000e-01	1.18365490e-02	1.57423194e-04
7.88000000e-01	1.19324726e-02	1.60144551e-04
7.89000000e-01	1.17953012e-02	1.60654813e-04
7.90000000e-01	1.17135755e-02	1.60684396e-04
7.91000000e-01	1.17367477e-02	1.63185230e-04
7.92000000e-01	1.18758443e-02	1.65492230e-04
7.93000000e-01	1.16889920e-02	1.65374884e-04
7.94000000e-01	1.17767568e-02	1.68187956e-04
7.95000000e-01	1.18159448e-02	1.70692613e-04
7.96000000e-01	1.18689068e-02	1.72999468e-04
7.97000000e-01	1.18261965e-02	1.73310398e-04
7.98000000e-01	1.17184806e-02	1.74844796e-04
7.99000000e-01	1.18494324e-02	1.78215660e-04
8.00000000e-01	1.19110739e-02	1.79870288e-04
8.01000000e-01	1.18952745e-02	1.82601591e-04
8.02000000e-01	1.16081992e-02	1.79690157e-04
8.03000000e-01	1.17005255e-02	1.83386087e-04
8.04000000e-01	1.18244474e-02	1.87200386e-04
8.05000000e-01	1.17861576e-02	1.88434522e-04
8.06000000e-01	1.18086680e-02	1.91006251e-04
8.07000000e-01	1.17641280e-02	1.91876347e-04
8.08000000e-01	1.16255944e-02	1.93560231e-04
8.09000000e-01	1.16445881e-02	1.94210232e-04
8.10000000e-01	1.17091968e-02	1.98638532e-04
8.11000000e-01	1.14628758e-02	1.96105856e-04
8.12000000e-01	1.17777489e-02	2.03617419e-04
8.13000000e-01	1.16237259e-02	2.03267566e-04
8.14000000e-01	1.14965935e-02	2.03185315e-04
8.15000000e-01	1.15419621e-02	2.07523662e-04
8.16000000e-01	1.13890863e-02	2.07925366e-04
8.17000000e-01	1.14855180e-02	2.10830534e-04
8.18000000e-01	1.15181601e-02	2.13863321e-04
8.19000000e-01	1.14766406e-02	2.17096910e-04
8.20000000e-01	1.12681942e-02	2.15013793e-04
8.21000000e-01	1.15886865e-02	2.23307238e-04
8.22000000e-01	1.16128300e-02	2.26548930e-04
8.23000000e-01	1.11440255e-02	2.21205999e-04
8.24000000e-01	1.15181579e-02	2.31418473e-04
8.25000000e-01	1.15084610e-02	2.34100544e-04
8.26000000e-01	1.10898942e-02	2.32220363e-04
8.27000000e-01	1.10211262e-02	2.32114206e-04
8.28000000e-01	1.15353958e-02	2.44459238e-04
8.29000000e-01	1.13818318e-02	2.46925480e-04
8.30000000e-01	1.12277924e-02	2.46207528e-04
8.31000000e-01	1.12487609e-02	2.52853726e-04
8.32000000e-01	1.12185304e-02	2.57622246e-04
8.33000000e-01	1.12575670e-02	2.62189332e-04
8.34000000e-01	1.11402544e-02	2.61686798e-04
8.35000000e-01	1.12244073e-02	2.69426089e-04
8.36000000e-01	1.16839238e-02	2.83227353e-04
8.37000000e-01	1.10953050e-02	2.77179188e-04
8.38000000e-01	1.11427834e-02	2.82453855e-04
8.39000000e-01	1.11477122e-02	2.92099822e-04
8.40000000e-01	1.11206438e-02	2.94650533e-04
8.41000000e-01	1.12069377e-02	3.03546169e-04
8.42000000e-01	1.10361100e-02	3.08702915e-04
8.43000000e-01	1.12695953e-02	3.18294397e-04
8.44000000e-01	1.13903100e-02	3.30423784e-04
8.45000000e-01	1.12194310e-02	3.32437247e-04
8.46000000e-01	1.10737761e-02	3.38390369e-04
8.47000000e-01	1.10600244e-02	3.51416764e-04
8.48000000e-01	1.11590079e-02	3.59257884e-04
8.49000000e-01	1.08280546e-02	3.64204922e-04
8.50000000e-01	1.09994775e-02	3.87737876e-04
8.51000000e-01	1.11258799e-02	3.99145587e-04
8.52000000e-01	1.12852642e-02	4.19608336e-04
8.53000000e-01	1.08788501e-02	4.20471148e-04
8.54000000e-01	1.10123991e-02	4.52394950e-04
8.55000000e-01	1.10239563e-02	4.66178063e-04
8.56000000e-01	1.08817731e-02	4.72213420e-04
8.57000000e-01	1.09484190e-02	4.84489067e-04
8.58000000e-01	1.06608239e-02	4.90624613e-04
8.59000000e-01	1.13653694e-02	5.47601991e-04
8.60000000e-01	1.07133889e-02	5.36862247e-04
8.61000000e-01	1.13036390e-02	5.67289167e-04
8.62000000e-01	1.05395528e-02	5.50968358e-04
8.63000000e-01	1.12882535e-02	6.15772485e-04
8.64000000e-01	1.05294479e-02	6.18102983e-04
8.65000000e-01	1.08711150e-02	6.42761597e-04
8.66000000e-01	1.04435361e-02	6.61078433e-04
8.67000000e-01	1.05809238e-02	7.23062646e-04
8.68000000e-01	1.05591678e-02	7.40536473e-04
8.69000000e-01	1.05699045e-02	8.16923412e-04
8.70000000e-01	1.01758443e-02	8.33675523e-04
8.71000000e-01	1.11872058e-02	1.00553975e-03
8.72000000e-01	1.06867611e-02	1.10615446e-03
8.73000000e-01	1.12486600e-02	1.39416934e-03
8.74000000e-01	1.06053892e-02	1.67257404e-03
8.75000000e-01	8.52259458e-03	2.76164277e-03
