% Filename : SEC3_00043_00012.h5
% Date & Time : 30-Oct-2025 18:02:42
% X-ray Energy (keV) : 13.30001
% Exposure Time (s) : 0.500
% Beam Center : 1461.24000, 208.98300
% Sample to Detector Distance (SDD) (mm) : 1990.750
% Detector Pixel Size (mm) : 0.075
% Photodiode Value : 140943.000
% I0 of Sample : 0
% I0 of Standard : 1
% 
% q(A^-1)   I(q)    I(q)_SE
0.00000000e+00	1.02547883e-02	6.01241768e-03
2.50000000e-04	0.00000000e+00	0.00000000e+00
5.00000000e-04	0.00000000e+00	0.00000000e+00
7.50000000e-04	0.00000000e+00	0.00000000e+00
1.00000000e-03	0.00000000e+00	0.00000000e+00
1.25000000e-03	0.00000000e+00	0.00000000e+00
1.50000000e-03	0.00000000e+00	0.00000000e+00
1.75000000e-03	0.00000000e+00	0.00000000e+00
2.00000000e-03	0.00000000e+00	0.00000000e+00
2.25000000e-03	0.00000000e+00	0.00000000e+00
2.50000000e-03	0.00000000e+00	0.00000000e+00
2.75000000e-03	0.00000000e+00	0.00000000e+00
3.00000000e-03	0.00000000e+00	0.00000000e+00
3.25000000e-03	4.49855553e+02	3.12094682e+02
3.50000000e-03	1.66359173e+02	4.47056725e+01
3.75000000e-03	1.28373063e+02	3.25176352e+01
4.00000000e-03	8.73794013e+01	2.05080959e+01
4.25000000e-03	5.98461991e+01	1.16696100e+01
4.50000000e-03	5.50784697e+01	9.01267746e+00
4.75000000e-03	4.66040740e+01	6.75407009e+00
5.00000000e-03	3.68988582e+01	5.03710540e+00
5.25000000e-03	3.02152995e+01	4.14246504e+00
5.50000000e-03	2.50719349e+01	3.34381553e+00
5.75000000e-03	2.10320297e+01	2.73725969e+00
6.00000000e-03	1.75256937e+01	2.18687854e+00
6.25000000e-03	1.51674288e+01	1.91571614e+00
6.50000000e-03	1.30046380e+01	1.58611348e+00
6.75000000e-03	1.11830550e+01	1.32985707e+00
7.00000000e-03	9.82165649e+00	1.14215161e+00
7.25000000e-03	8.41941436e+00	9.57082846e-01
7.50000000e-03	7.28684135e+00	8.30340018e-01
7.75000000e-03	6.43249302e+00	7.17149639e-01
8.00000000e-03	5.73767952e+00	6.36237669e-01
8.25000000e-03	5.08469246e+00	5.40770272e-01
8.50000000e-03	4.41938093e+00	4.58077522e-01
8.75000000e-03	4.02877630e+00	4.13523932e-01
9.00000000e-03	3.56906633e+00	3.61739731e-01
9.25000000e-03	3.10644153e+00	3.03024952e-01
9.50000000e-03	2.86249739e+00	2.72438820e-01
9.75000000e-03	2.57539964e+00	2.46087398e-01
1.00000000e-02	2.31507744e+00	2.18156852e-01
1.02500000e-02	2.06834074e+00	1.88616060e-01
1.05000000e-02	1.93584598e+00	1.72503242e-01
1.07500000e-02	1.72416890e+00	1.52711308e-01
1.10000000e-02	1.58122098e+00	1.34057275e-01
1.12500000e-02	1.44827613e+00	1.26210090e-01
1.15000000e-02	1.33341172e+00	1.12060549e-01
1.17500000e-02	1.18935541e+00	9.72156738e-02
1.20000000e-02	1.13209953e+00	9.20950117e-02
1.22500000e-02	1.03155217e+00	8.16378867e-02
1.25000000e-02	9.57509210e-01	7.50762185e-02
1.27500000e-02	8.87622637e-01	6.85114867e-02
1.30000000e-02	8.09409242e-01	6.16902510e-02
1.32500000e-02	7.37080933e-01	5.47647613e-02
1.35000000e-02	6.93098485e-01	5.08624940e-02
1.37500000e-02	6.50525610e-01	4.74806536e-02
1.40000000e-02	5.99643460e-01	4.31072474e-02
1.42500000e-02	5.60581287e-01	3.92322097e-02
1.45000000e-02	5.24116340e-01	3.65525285e-02
1.47500000e-02	4.95168470e-01	3.43943337e-02
1.50000000e-02	4.70418671e-01	3.22258774e-02
1.52500000e-02	4.38499769e-01	2.96465952e-02
1.55000000e-02	4.10545152e-01	2.73745591e-02
1.57500000e-02	3.81169974e-01	2.56047222e-02
1.60000000e-02	3.61930884e-01	2.38032258e-02
1.62500000e-02	3.44921517e-01	2.30603486e-02
1.65000000e-02	3.26675104e-01	2.13391510e-02
1.67500000e-02	3.07551054e-01	1.96457286e-02
1.70000000e-02	2.89225569e-01	1.84599220e-02
1.72500000e-02	2.80099485e-01	1.75951636e-02
1.75000000e-02	2.58794344e-01	1.63008880e-02
1.77500000e-02	2.45614384e-01	1.52769841e-02
1.80000000e-02	2.36492551e-01	1.45632343e-02
1.82500000e-02	2.24960716e-01	1.33520600e-02
1.85000000e-02	2.13774027e-01	1.31417198e-02
1.87500000e-02	2.01388245e-01	1.20395354e-02
1.90000000e-02	1.95001709e-01	1.15201653e-02
1.92500000e-02	1.87424974e-01	1.08984171e-02
1.95000000e-02	1.77154694e-01	1.01764656e-02
1.97500000e-02	1.68869564e-01	9.71833224e-03
2.00000000e-02	1.65694225e-01	9.47320194e-03
2.02500000e-02	1.54038187e-01	8.76136186e-03
2.05000000e-02	1.50845800e-01	8.28924723e-03
2.07500000e-02	1.43761535e-01	7.87766696e-03
2.10000000e-02	1.38454782e-01	7.63385289e-03
2.12500000e-02	1.36754698e-01	7.53959166e-03
2.15000000e-02	1.28493164e-01	7.00689998e-03
2.17500000e-02	1.27581455e-01	6.95479683e-03
2.20000000e-02	1.21355125e-01	6.66090021e-03
2.22500000e-02	1.15589164e-01	6.19363028e-03
2.25000000e-02	1.16428792e-01	6.33313891e-03
2.27500000e-02	1.08937031e-01	5.88520129e-03
2.30000000e-02	1.06674973e-01	5.78998776e-03
2.32500000e-02	1.02260724e-01	5.44480924e-03
2.35000000e-02	1.01153794e-01	5.51564860e-03
2.37500000e-02	9.93950356e-02	5.25232803e-03
2.40000000e-02	9.41077079e-02	5.01579675e-03
2.42500000e-02	9.28887607e-02	4.92932637e-03
2.45000000e-02	8.95118760e-02	4.76919833e-03
2.47500000e-02	8.66106173e-02	4.54981271e-03
2.50000000e-02	8.48487809e-02	4.48376622e-03
2.52500000e-02	8.25498024e-02	4.33837004e-03
2.55000000e-02	8.01716471e-02	4.15074033e-03
2.57500000e-02	7.75789439e-02	3.99470367e-03
2.60000000e-02	7.54302923e-02	3.86349960e-03
2.62500000e-02	7.46167226e-02	3.86473101e-03
2.65000000e-02	7.22663488e-02	3.75743135e-03
2.67500000e-02	7.11123310e-02	3.64990474e-03
2.70000000e-02	6.96174355e-02	3.60736543e-03
2.72500000e-02	6.79643335e-02	3.44542825e-03
2.75000000e-02	6.69135733e-02	3.42289798e-03
2.77500000e-02	6.49364089e-02	3.32167879e-03
2.80000000e-02	6.16315206e-02	3.03084727e-03
2.82500000e-02	6.10538508e-02	3.03553176e-03
2.85000000e-02	6.08397479e-02	3.01487615e-03
2.87500000e-02	5.96490439e-02	2.98514055e-03
2.90000000e-02	5.85467876e-02	2.91516874e-03
2.92500000e-02	5.70282104e-02	2.74355947e-03
2.95000000e-02	5.57217701e-02	2.73980729e-03
2.97500000e-02	5.57985040e-02	2.70273924e-03
3.00000000e-02	5.41869216e-02	2.63642934e-03
3.02500000e-02	5.43684971e-02	2.64192107e-03
3.05000000e-02	5.13179981e-02	2.42223617e-03
3.07500000e-02	5.19506750e-02	2.48883021e-03
3.10000000e-02	5.06318471e-02	2.42204422e-03
3.12500000e-02	4.95506392e-02	2.38569430e-03
3.15000000e-02	4.86968300e-02	2.30729892e-03
3.17500000e-02	4.85929493e-02	2.27067292e-03
3.20000000e-02	4.68350038e-02	2.22992793e-03
3.22500000e-02	4.78461955e-02	2.25730327e-03
3.25000000e-02	4.56146839e-02	2.16086453e-03
3.27500000e-02	4.50262926e-02	2.10405430e-03
3.30000000e-02	4.35427623e-02	2.02013161e-03
3.32500000e-02	4.34722196e-02	2.00266522e-03
3.35000000e-02	4.27365852e-02	1.98782561e-03
3.37500000e-02	4.39148879e-02	2.02192564e-03
3.40000000e-02	4.22438063e-02	1.97103110e-03
3.42500000e-02	4.19389955e-02	1.91847159e-03
3.45000000e-02	4.09780889e-02	1.89027580e-03
3.47500000e-02	3.98725119e-02	1.84527700e-03
3.50000000e-02	4.00176750e-02	1.83328279e-03
3.52500000e-02	3.92073629e-02	1.77656999e-03
3.55000000e-02	3.84578614e-02	1.72130199e-03
3.57500000e-02	3.88334124e-02	1.77051560e-03
3.60000000e-02	3.73585448e-02	1.70522994e-03
3.62500000e-02	3.73833626e-02	1.70021713e-03
3.65000000e-02	3.71523253e-02	1.67194189e-03
3.67500000e-02	3.71439482e-02	1.64993007e-03
3.70000000e-02	3.59423967e-02	1.61267528e-03
3.72500000e-02	3.56283942e-02	1.58461557e-03
3.75000000e-02	3.52637980e-02	1.57336509e-03
3.77500000e-02	3.58978931e-02	1.57978525e-03
3.80000000e-02	3.49613044e-02	1.53664407e-03
3.82500000e-02	3.46538348e-02	1.51073964e-03
3.85000000e-02	3.41548931e-02	1.50642329e-03
3.87500000e-02	3.36729595e-02	1.46139948e-03
3.90000000e-02	3.34497775e-02	1.47537319e-03
3.92500000e-02	3.29086281e-02	1.42297176e-03
3.95000000e-02	3.20395359e-02	1.39694791e-03
3.97500000e-02	3.36166603e-02	1.44705418e-03
4.00000000e-02	3.27113914e-02	1.40427107e-03
4.02500000e-02	3.20639075e-02	1.39507234e-03
4.05000000e-02	3.10537966e-02	1.33968121e-03
4.07500000e-02	3.19172866e-02	1.36217470e-03
4.10000000e-02	3.22368769e-02	1.38551971e-03
4.12500000e-02	3.09974577e-02	1.32068356e-03
4.15000000e-02	3.08016494e-02	1.30779443e-03
4.17500000e-02	3.09178985e-02	1.32319467e-03
4.20000000e-02	3.00242414e-02	1.27183395e-03
4.22500000e-02	3.09029403e-02	1.29670266e-03
4.25000000e-02	3.03655572e-02	1.27120315e-03
4.27500000e-02	2.97821514e-02	1.25481617e-03
4.30000000e-02	2.90212701e-02	1.22430414e-03
4.32500000e-02	2.88919112e-02	1.20452168e-03
4.35000000e-02	2.88150519e-02	1.21930331e-03
4.37500000e-02	2.89108318e-02	1.19131234e-03
4.40000000e-02	2.89862968e-02	1.21702475e-03
4.42500000e-02	2.85562510e-02	1.18708644e-03
4.45000000e-02	2.86919814e-02	1.18190252e-03
4.47500000e-02	2.86443488e-02	1.17940530e-03
4.50000000e-02	2.85777805e-02	1.17725680e-03
4.52500000e-02	2.85345137e-02	1.17135621e-03
4.55000000e-02	2.73557423e-02	1.12435142e-03
4.57500000e-02	2.77792907e-02	1.12957561e-03
4.60000000e-02	2.74049114e-02	1.12351047e-03
4.62500000e-02	2.77422759e-02	1.13117488e-03
4.65000000e-02	2.78623479e-02	1.13771780e-03
4.67500000e-02	2.75225844e-02	1.11255917e-03
4.70000000e-02	2.71461775e-02	1.08788744e-03
4.72500000e-02	2.65964950e-02	1.07906816e-03
4.75000000e-02	2.63693615e-02	1.07217932e-03
4.77500000e-02	2.63690889e-02	1.06574486e-03
4.80000000e-02	2.65244568e-02	1.06896214e-03
4.82500000e-02	2.71661102e-02	1.09553254e-03
4.85000000e-02	2.68435698e-02	1.08669931e-03
4.87500000e-02	2.62009262e-02	1.05710195e-03
4.90000000e-02	2.59371055e-02	1.03253836e-03
4.92500000e-02	2.59044518e-02	1.03185653e-03
4.95000000e-02	2.59449229e-02	1.02352759e-03
4.97500000e-02	2.58150338e-02	1.03493332e-03
5.00000000e-02	2.60469107e-02	1.04040508e-03
5.02500000e-02	2.54820383e-02	1.00687426e-03
5.05000000e-02	2.46244617e-02	9.77242131e-04
5.07500000e-02	2.55058212e-02	1.00580314e-03
5.10000000e-02	2.55987155e-02	1.01140997e-03
5.12500000e-02	2.56074972e-02	1.01233511e-03
5.15000000e-02	2.52844618e-02	9.82385221e-04
5.17500000e-02	2.48689358e-02	9.77619566e-04
5.20000000e-02	2.48896925e-02	9.63043895e-04
5.22500000e-02	2.46914373e-02	9.73770293e-04
5.25000000e-02	2.46610145e-02	9.55959312e-04
5.27500000e-02	2.49161562e-02	9.72449199e-04
5.30000000e-02	2.53660346e-02	9.92110194e-04
5.32500000e-02	2.52621575e-02	9.78601779e-04
5.35000000e-02	2.44396052e-02	9.40867717e-04
5.37500000e-02	2.47343209e-02	9.50284034e-04
5.40000000e-02	2.45936274e-02	9.54377823e-04
5.42500000e-02	2.38539984e-02	9.19333625e-04
5.45000000e-02	2.41582660e-02	9.28484105e-04
5.47500000e-02	2.40712151e-02	9.19560936e-04
5.50000000e-02	2.40788421e-02	9.24004085e-04
5.52500000e-02	2.47576980e-02	9.46493701e-04
5.55000000e-02	2.33539166e-02	8.89757716e-04
5.57500000e-02	2.36927478e-02	9.09992946e-04
5.60000000e-02	2.47313881e-02	9.33437043e-04
5.62500000e-02	2.38347617e-02	9.04033691e-04
5.65000000e-02	2.38714371e-02	8.96410874e-04
5.67500000e-02	2.37675982e-02	8.93824509e-04
5.70000000e-02	2.33225735e-02	8.83224441e-04
5.72500000e-02	2.36609147e-02	8.98784648e-04
5.75000000e-02	2.31198690e-02	8.71175449e-04
5.77500000e-02	2.25882671e-02	8.42929882e-04
5.80000000e-02	2.40421296e-02	9.02868775e-04
5.82500000e-02	2.32179399e-02	8.69927505e-04
5.85000000e-02	2.35791833e-02	8.84193242e-04
5.87500000e-02	2.35515419e-02	8.77992067e-04
5.90000000e-02	2.32622521e-02	8.62265992e-04
5.92500000e-02	2.31370130e-02	8.54508492e-04
5.95000000e-02	2.33062892e-02	8.65877361e-04
5.97500000e-02	2.24718012e-02	8.39893542e-04
6.00000000e-02	2.28136717e-02	8.42170950e-04
6.02500000e-02	2.27008141e-02	8.48653829e-04
6.05000000e-02	2.34323683e-02	8.65231338e-04
6.07500000e-02	2.26922818e-02	8.40273855e-04
6.10000000e-02	2.30194897e-02	8.48631200e-04
6.12500000e-02	2.26073497e-02	8.25565237e-04
6.15000000e-02	2.27083147e-02	8.29133544e-04
6.17500000e-02	2.27019663e-02	8.36658465e-04
6.20000000e-02	2.26420176e-02	8.28860318e-04
6.22500000e-02	2.22421565e-02	8.15400780e-04
6.25000000e-02	2.28446213e-02	8.36441090e-04
6.27500000e-02	2.24281730e-02	8.06467499e-04
6.30000000e-02	2.16911805e-02	7.93780785e-04
6.32500000e-02	2.23770912e-02	8.12479905e-04
6.35000000e-02	2.29708941e-02	8.31838957e-04
6.37500000e-02	2.27200824e-02	8.25523639e-04
6.40000000e-02	2.22903020e-02	8.06133829e-04
6.42500000e-02	2.24220020e-02	7.99822246e-04
6.45000000e-02	2.26707148e-02	8.14533945e-04
6.47500000e-02	2.19598779e-02	7.85558040e-04
6.50000000e-02	2.22877602e-02	8.02824112e-04
6.52500000e-02	2.24329530e-02	7.98141667e-04
6.55000000e-02	2.22149294e-02	8.03527491e-04
6.57500000e-02	2.28424245e-02	8.10585700e-04
6.60000000e-02	2.21268218e-02	7.90437577e-04
6.62500000e-02	2.16629599e-02	7.76327871e-04
6.65000000e-02	2.18277965e-02	7.79746174e-04
6.67500000e-02	2.20021087e-02	7.76813104e-04
6.70000000e-02	2.18685792e-02	7.84831305e-04
6.72500000e-02	2.24035689e-02	7.91884715e-04
6.75000000e-02	2.24729212e-02	7.91989934e-04
6.77500000e-02	2.21596086e-02	7.77557323e-04
6.80000000e-02	2.19181287e-02	7.77886269e-04
6.82500000e-02	2.26614490e-02	7.92822416e-04
6.85000000e-02	2.14876149e-02	7.55991054e-04
6.87500000e-02	2.18159801e-02	7.67501074e-04
6.90000000e-02	2.23002181e-02	7.82664498e-04
6.92500000e-02	2.20556514e-02	7.80968028e-04
6.95000000e-02	2.20442165e-02	7.72314586e-04
6.97500000e-02	2.19061733e-02	7.63797720e-04
7.00000000e-02	2.15850730e-02	7.40987212e-04
7.02500000e-02	2.26932688e-02	7.82057097e-04
7.05000000e-02	2.15842825e-02	7.46400146e-04
7.07500000e-02	2.19245529e-02	7.63715051e-04
7.10000000e-02	2.13959925e-02	7.39382690e-04
7.12500000e-02	2.15619280e-02	7.45680513e-04
7.15000000e-02	2.19592096e-02	7.50200590e-04
7.17500000e-02	2.15433275e-02	7.37084805e-04
7.20000000e-02	2.11338908e-02	7.33790790e-04
7.22500000e-02	2.15455587e-02	7.38417580e-04
7.25000000e-02	2.16795935e-02	7.41481635e-04
7.27500000e-02	2.11639329e-02	7.27721382e-04
7.30000000e-02	2.19444432e-02	7.49101524e-04
7.32500000e-02	2.12323295e-02	7.28153101e-04
7.35000000e-02	2.10593878e-02	7.19063272e-04
7.37500000e-02	2.11857160e-02	7.21706207e-04
7.40000000e-02	2.10588705e-02	7.19815284e-04
7.42500000e-02	2.15762956e-02	7.38945592e-04
7.45000000e-02	2.15459232e-02	7.31124455e-04
7.47500000e-02	2.18275743e-02	7.39703524e-04
7.50000000e-02	2.09841393e-02	7.11441064e-04
7.52500000e-02	2.13634249e-02	7.21889077e-04
7.55000000e-02	2.13646939e-02	7.19094669e-04
7.57500000e-02	2.12030527e-02	7.14222149e-04
7.60000000e-02	2.13672554e-02	7.19597399e-04
7.62500000e-02	2.15357444e-02	7.23009154e-04
7.65000000e-02	2.06618172e-02	6.96185218e-04
7.67500000e-02	2.12400227e-02	7.13577638e-04
7.70000000e-02	2.17783981e-02	7.21324704e-04
7.72500000e-02	2.08106292e-02	7.08196343e-04
7.75000000e-02	2.16228670e-02	7.36707920e-04
7.77500000e-02	2.09750771e-02	7.31310997e-04
7.80000000e-02	2.16221707e-02	7.46946543e-04
7.82500000e-02	2.15475899e-02	7.48994638e-04
7.85000000e-02	2.10603712e-02	7.37938317e-04
7.87500000e-02	2.16544228e-02	7.53946747e-04
7.90000000e-02	2.13336969e-02	7.51714540e-04
7.92500000e-02	2.11357539e-02	7.51044643e-04
7.95000000e-02	2.06904871e-02	7.33097238e-04
7.97500000e-02	2.10436870e-02	7.48803874e-04
8.00000000e-02	2.05612852e-02	7.34787319e-04
8.02500000e-02	2.11902219e-02	7.55853373e-04
8.05000000e-02	2.13687551e-02	7.64257607e-04
8.07500000e-02	2.11433141e-02	7.66560811e-04
8.10000000e-02	2.06206816e-02	7.41461907e-04
8.12500000e-02	2.16033791e-02	7.79200337e-04
8.15000000e-02	2.14408446e-02	7.64921541e-04
8.17500000e-02	2.14933100e-02	7.77309452e-04
8.20000000e-02	2.10462129e-02	7.61088566e-04
8.22500000e-02	2.09710681e-02	7.69189778e-04
8.25000000e-02	2.10966694e-02	7.67171012e-04
8.27500000e-02	2.11214797e-02	7.59910372e-04
8.30000000e-02	2.08903752e-02	7.59828811e-04
8.32500000e-02	2.11623844e-02	7.69958958e-04
8.35000000e-02	2.13933141e-02	7.81759913e-04
8.37500000e-02	2.10444413e-02	7.62098226e-04
8.40000000e-02	2.09633340e-02	7.69529388e-04
8.42500000e-02	2.08586570e-02	7.62148122e-04
8.45000000e-02	2.11844882e-02	7.87521715e-04
8.47500000e-02	2.06188582e-02	7.59847212e-04
8.50000000e-02	2.06703188e-02	7.59187081e-04
8.52500000e-02	2.11742802e-02	7.89587226e-04
8.55000000e-02	2.07400414e-02	7.63215541e-04
8.57500000e-02	2.18228306e-02	8.02025279e-04
8.60000000e-02	2.08555745e-02	7.70125842e-04
8.62500000e-02	2.12912287e-02	7.83448990e-04
8.65000000e-02	2.10133710e-02	7.73817572e-04
8.67500000e-02	2.09265841e-02	7.67617165e-04
8.70000000e-02	2.07478980e-02	7.55628836e-04
8.72500000e-02	2.05626834e-02	7.32363016e-04
8.75000000e-02	2.06115641e-02	7.27793997e-04
8.77500000e-02	2.08905843e-02	7.31627518e-04
8.80000000e-02	2.09428685e-02	7.34777831e-04
8.82500000e-02	2.10337407e-02	7.31858091e-04
8.85000000e-02	2.07154488e-02	7.18681555e-04
8.87500000e-02	2.06467188e-02	7.01103582e-04
8.90000000e-02	2.08698851e-02	7.17768455e-04
8.92500000e-02	2.04563886e-02	7.02227232e-04
8.95000000e-02	2.12849617e-02	7.25169956e-04
8.97500000e-02	2.04289129e-02	6.94391838e-04
9.00000000e-02	2.10402154e-02	7.09229645e-04
9.02500000e-02	2.12853544e-02	7.18091108e-04
9.05000000e-02	2.09102260e-02	7.06697057e-04
9.07500000e-02	2.11616330e-02	7.11039644e-04
9.10000000e-02	2.10622106e-02	7.02211391e-04
9.12500000e-02	2.05988189e-02	6.88152573e-04
9.15000000e-02	2.06842853e-02	6.90836840e-04
9.17500000e-02	2.09448668e-02	6.97462648e-04
9.20000000e-02	2.04866257e-02	6.80185368e-04
9.22500000e-02	1.99831958e-02	6.64277333e-04
9.25000000e-02	2.06468260e-02	6.80597157e-04
9.27500000e-02	2.06479946e-02	6.81540633e-04
9.30000000e-02	2.07065436e-02	6.82815397e-04
9.32500000e-02	2.10212985e-02	6.94623564e-04
9.35000000e-02	2.02605775e-02	6.65478542e-04
9.37500000e-02	2.05604905e-02	6.70934014e-04
9.40000000e-02	2.05345312e-02	6.75880044e-04
9.42500000e-02	2.01763654e-02	6.61906892e-04
9.45000000e-02	2.00608524e-02	6.56558014e-04
9.47500000e-02	2.10174907e-02	6.84098039e-04
9.50000000e-02	2.09030694e-02	6.76838223e-04
9.52500000e-02	2.02971437e-02	6.58650459e-04
9.55000000e-02	2.03287758e-02	6.57774161e-04
9.57500000e-02	2.04815642e-02	6.62032115e-04
9.60000000e-02	2.03397306e-02	6.54625734e-04
9.62500000e-02	2.08431187e-02	6.69130770e-04
9.65000000e-02	2.04208904e-02	6.55627549e-04
9.67500000e-02	2.11937886e-02	6.75748493e-04
9.70000000e-02	2.03689820e-02	6.55049226e-04
9.72500000e-02	2.04534870e-02	6.52351493e-04
9.75000000e-02	2.03269495e-02	6.50231174e-04
9.77500000e-02	2.02277753e-02	6.40396816e-04
9.80000000e-02	2.02298359e-02	6.47371594e-04
9.82500000e-02	2.06216040e-02	6.56699044e-04
9.85000000e-02	2.04661811e-02	6.49418388e-04
9.87500000e-02	2.03764459e-02	6.41401865e-04
9.90000000e-02	2.07413632e-02	6.58412297e-04
9.92500000e-02	2.00623192e-02	6.34505291e-04
9.95000000e-02	2.04974623e-02	6.46923596e-04
9.97500000e-02	2.03766819e-02	6.41744927e-04
1.00000000e-01	2.06094466e-02	5.25783143e-04
1.00500000e-01	2.05695039e-02	4.58959251e-04
1.01000000e-01	2.03993125e-02	4.49730243e-04
1.01500000e-01	2.04076852e-02	4.50175138e-04
1.02000000e-01	2.05446295e-02	4.51444647e-04
1.02500000e-01	2.05416212e-02	4.50181610e-04
1.03000000e-01	2.04486583e-02	4.45454929e-04
1.03500000e-01	2.05558503e-02	4.47505538e-04
1.04000000e-01	2.03629933e-02	4.43800631e-04
1.04500000e-01	2.01669691e-02	4.39232697e-04
1.05000000e-01	2.04620851e-02	4.39556204e-04
1.05500000e-01	2.03143504e-02	4.38232890e-04
1.06000000e-01	2.07671780e-02	4.44810748e-04
1.06500000e-01	2.04253340e-02	4.36495961e-04
1.07000000e-01	2.02403321e-02	4.41188997e-04
1.07500000e-01	2.00499733e-02	4.44561929e-04
1.08000000e-01	2.03288967e-02	4.51997130e-04
1.08500000e-01	2.03920886e-02	4.57715224e-04
1.09000000e-01	2.03206646e-02	4.58749047e-04
1.09500000e-01	2.01482050e-02	4.56162131e-04
1.10000000e-01	2.03996122e-02	4.58117718e-04
1.10500000e-01	2.04309278e-02	4.48264209e-04
1.11000000e-01	2.01124951e-02	4.35817659e-04
1.11500000e-01	2.03788770e-02	4.39660468e-04
1.12000000e-01	2.04280438e-02	4.35162853e-04
1.12500000e-01	2.04115417e-02	4.31256484e-04
1.13000000e-01	2.02188792e-02	4.27402774e-04
1.13500000e-01	2.02671784e-02	4.27853144e-04
1.14000000e-01	2.05569766e-02	4.31094801e-04
1.14500000e-01	2.03255010e-02	4.25274412e-04
1.15000000e-01	2.03597367e-02	4.23895981e-04
1.15500000e-01	1.99206777e-02	4.14040358e-04
1.16000000e-01	2.02525757e-02	4.21325156e-04
1.16500000e-01	2.02207058e-02	4.19491456e-04
1.17000000e-01	2.05725433e-02	4.24720636e-04
1.17500000e-01	2.03100639e-02	4.18369629e-04
1.18000000e-01	2.02696563e-02	4.18003609e-04
1.18500000e-01	2.03279061e-02	4.16136054e-04
1.19000000e-01	2.01906632e-02	4.11642628e-04
1.19500000e-01	2.02492752e-02	4.11015748e-04
1.20000000e-01	2.02213668e-02	4.12179675e-04
1.20500000e-01	1.99273660e-02	4.04459649e-04
1.21000000e-01	2.02611667e-02	4.09129680e-04
1.21500000e-01	2.04492540e-02	4.11358999e-04
1.22000000e-01	2.03414492e-02	4.11458406e-04
1.22500000e-01	2.04212875e-02	4.11226998e-04
1.23000000e-01	2.02394273e-02	4.07275994e-04
1.23500000e-01	2.01817353e-02	4.03459621e-04
1.24000000e-01	2.01291400e-02	4.03468749e-04
1.24500000e-01	2.03277223e-02	4.05814194e-04
1.25000000e-01	2.02041269e-02	4.02360467e-04
1.25500000e-01	2.03846935e-02	4.03585051e-04
1.26000000e-01	1.99411962e-02	3.97211371e-04
1.26500000e-01	2.04114110e-02	4.04385529e-04
1.27000000e-01	2.03845456e-02	4.02081886e-04
1.27500000e-01	2.02514278e-02	3.99360501e-04
1.28000000e-01	1.99286016e-02	3.91851746e-04
1.28500000e-01	2.02648822e-02	3.96513576e-04
1.29000000e-01	2.03332567e-02	3.98247293e-04
1.29500000e-01	2.02188279e-02	3.94258029e-04
1.30000000e-01	2.03537929e-02	3.95220964e-04
1.30500000e-01	1.97521264e-02	3.83603549e-04
1.31000000e-01	2.00201728e-02	3.88124520e-04
1.31500000e-01	2.02369183e-02	3.92984325e-04
1.32000000e-01	2.02612851e-02	3.90851671e-04
1.32500000e-01	2.01942130e-02	3.89636273e-04
1.33000000e-01	1.97979354e-02	3.80038934e-04
1.33500000e-01	2.02130194e-02	3.86072934e-04
1.34000000e-01	2.00672741e-02	3.84651025e-04
1.34500000e-01	1.96982374e-02	3.76046007e-04
1.35000000e-01	2.00434636e-02	3.81519855e-04
1.35500000e-01	1.99901095e-02	3.79330388e-04
1.36000000e-01	2.00460675e-02	3.79880677e-04
1.36500000e-01	2.01574520e-02	3.83688368e-04
1.37000000e-01	2.03355511e-02	3.82205249e-04
1.37500000e-01	2.03846511e-02	3.82761647e-04
1.38000000e-01	2.00745285e-02	3.78456401e-04
1.38500000e-01	1.99838710e-02	3.75493637e-04
1.39000000e-01	2.03753526e-02	3.82381859e-04
1.39500000e-01	2.01404659e-02	3.78212314e-04
1.40000000e-01	2.03827758e-02	3.82658224e-04
1.40500000e-01	2.00770863e-02	3.74755878e-04
1.41000000e-01	2.02350133e-02	3.76679475e-04
1.41500000e-01	1.98261979e-02	3.71451776e-04
1.42000000e-01	1.98299467e-02	3.69640847e-04
1.42500000e-01	1.98278039e-02	3.69611257e-04
1.43000000e-01	1.97064600e-02	3.67557545e-04
1.43500000e-01	1.96374253e-02	3.65167130e-04
1.44000000e-01	1.97287805e-02	3.65765783e-04
1.44500000e-01	1.96840155e-02	3.65018483e-04
1.45000000e-01	1.97550181e-02	3.66300055e-04
1.45500000e-01	1.99142616e-02	3.66776939e-04
1.46000000e-01	1.97741107e-02	3.63515152e-04
1.46500000e-01	1.96917345e-02	3.62875220e-04
1.47000000e-01	1.95681226e-02	3.60311149e-04
1.47500000e-01	1.98650758e-02	3.62831875e-04
1.48000000e-01	1.94392205e-02	3.56253484e-04
1.48500000e-01	1.97955269e-02	3.62305103e-04
1.49000000e-01	1.98630421e-02	3.61372993e-04
1.49500000e-01	1.96649932e-02	3.58324969e-04
1.50000000e-01	1.95146165e-02	3.54860994e-04
1.50500000e-01	2.00406522e-02	3.65208878e-04
1.51000000e-01	1.97916950e-02	3.58106107e-04
1.51500000e-01	1.98734681e-02	3.59981686e-04
1.52000000e-01	1.97646760e-02	3.54444789e-04
1.52500000e-01	1.95934251e-02	3.53882289e-04
1.53000000e-01	1.98450182e-02	3.56244661e-04
1.53500000e-01	1.97896969e-02	3.56321191e-04
1.54000000e-01	1.94123566e-02	3.46932825e-04
1.54500000e-01	1.95324380e-02	3.57395064e-04
1.55000000e-01	1.96784455e-02	3.63604799e-04
1.55500000e-01	1.95617134e-02	3.62282205e-04
1.56000000e-01	1.93910618e-02	3.62915987e-04
1.56500000e-01	1.92750844e-02	3.59506513e-04
1.57000000e-01	1.94892866e-02	3.64773796e-04
1.57500000e-01	1.94985430e-02	3.58136420e-04
1.58000000e-01	1.94653263e-02	3.51353141e-04
1.58500000e-01	1.95193516e-02	3.52087765e-04
1.59000000e-01	1.95178220e-02	3.48884876e-04
1.59500000e-01	1.93495234e-02	3.45889673e-04
1.60000000e-01	1.95435504e-02	3.50181731e-04
1.60500000e-01	1.93757440e-02	3.43238595e-04
1.61000000e-01	1.94900838e-02	3.46927743e-04
1.61500000e-01	1.92571048e-02	3.42477544e-04
1.62000000e-01	1.94983512e-02	3.45549477e-04
1.62500000e-01	1.96033806e-02	3.46459734e-04
1.63000000e-01	1.94907110e-02	3.41266420e-04
1.63500000e-01	1.92916030e-02	3.41676504e-04
1.64000000e-01	1.94444909e-02	3.41131419e-04
1.64500000e-01	1.95017864e-02	3.42641689e-04
1.65000000e-01	1.96128002e-02	3.44086199e-04
1.65500000e-01	1.95022308e-02	3.38239926e-04
1.66000000e-01	1.92233462e-02	3.36865510e-04
1.66500000e-01	1.93365111e-02	3.35522757e-04
1.67000000e-01	1.95064737e-02	3.39304815e-04
1.67500000e-01	1.94217072e-02	3.36575229e-04
1.68000000e-01	1.92601036e-02	3.34269802e-04
1.68500000e-01	1.92434376e-02	3.33893789e-04
1.69000000e-01	1.92212924e-02	3.33250176e-04
1.69500000e-01	1.90827286e-02	3.28721553e-04
1.70000000e-01	1.92489462e-02	3.31129998e-04
1.70500000e-01	1.92186107e-02	3.31436635e-04
1.71000000e-01	1.94431175e-02	3.35444365e-04
1.71500000e-01	1.94150642e-02	3.33164290e-04
1.72000000e-01	1.91405109e-02	3.27850297e-04
1.72500000e-01	1.90556336e-02	3.27448852e-04
1.73000000e-01	1.90608484e-02	3.23435391e-04
1.73500000e-01	1.92464084e-02	3.29108484e-04
1.74000000e-01	1.90769188e-02	3.25338770e-04
1.74500000e-01	1.89334805e-02	3.19550395e-04
1.75000000e-01	1.90204005e-02	3.21696583e-04
1.75500000e-01	1.92557810e-02	3.23944057e-04
1.76000000e-01	1.89686943e-02	3.20070646e-04
1.76500000e-01	1.91880661e-02	3.22911886e-04
1.77000000e-01	1.90080075e-02	3.19199204e-04
1.77500000e-01	1.90141652e-02	3.19854339e-04
1.78000000e-01	1.91563291e-02	3.21551352e-04
1.78500000e-01	1.89821946e-02	3.19744436e-04
1.79000000e-01	1.91417563e-02	3.20829481e-04
1.79500000e-01	1.92366540e-02	3.22953394e-04
1.80000000e-01	1.90057954e-02	3.20630273e-04
1.80500000e-01	1.88235774e-02	3.16784376e-04
1.81000000e-01	1.89395129e-02	3.17463601e-04
1.81500000e-01	1.89627013e-02	3.15667881e-04
1.82000000e-01	1.88331246e-02	3.14333530e-04
1.82500000e-01	1.88906255e-02	3.13976046e-04
1.83000000e-01	1.92393139e-02	3.20200245e-04
1.83500000e-01	1.89566164e-02	3.14335203e-04
1.84000000e-01	1.91251665e-02	3.17898953e-04
1.84500000e-01	1.90451646e-02	3.15853607e-04
1.85000000e-01	1.92438781e-02	3.18304987e-04
1.85500000e-01	1.91422235e-02	3.17018613e-04
1.86000000e-01	1.89799657e-02	3.14425495e-04
1.86500000e-01	1.89934979e-02	3.12526648e-04
1.87000000e-01	1.87131141e-02	3.07236031e-04
1.87500000e-01	1.91803128e-02	3.14044179e-04
1.88000000e-01	1.88389296e-02	3.08134216e-04
1.88500000e-01	1.88177127e-02	3.07079069e-04
1.89000000e-01	1.89163592e-02	3.09245577e-04
1.89500000e-01	1.91458973e-02	3.14125770e-04
1.90000000e-01	1.86278591e-02	3.03636309e-04
1.90500000e-01	1.88549042e-02	3.07823408e-04
1.91000000e-01	1.91847168e-02	3.11232984e-04
1.91500000e-01	1.87063570e-02	3.04307801e-04
1.92000000e-01	1.84815813e-02	3.00532006e-04
1.92500000e-01	1.89792338e-02	3.08558278e-04
1.93000000e-01	1.86786397e-02	3.03449271e-04
1.93500000e-01	1.85765642e-02	3.01171345e-04
1.94000000e-01	1.86175781e-02	3.01041220e-04
1.94500000e-01	1.89659247e-02	3.06493217e-04
1.95000000e-01	1.87583090e-02	3.03960554e-04
1.95500000e-01	1.87329713e-02	3.01145747e-04
1.96000000e-01	1.86935723e-02	3.00975658e-04
1.96500000e-01	1.86094351e-02	3.00210051e-04
1.97000000e-01	1.87782564e-02	3.01883510e-04
1.97500000e-01	1.88389284e-02	3.01210633e-04
1.98000000e-01	1.85626110e-02	2.97004114e-04
1.98500000e-01	1.86063254e-02	2.97976435e-04
1.99000000e-01	1.87713635e-02	2.99368510e-04
1.99500000e-01	1.86439906e-02	2.96663168e-04
2.00000000e-01	1.85222849e-02	2.95118972e-04
2.00500000e-01	1.86257596e-02	2.96793476e-04
2.01000000e-01	1.87016462e-02	2.96898788e-04
2.01500000e-01	1.85647759e-02	2.95590666e-04
2.02000000e-01	1.86059839e-02	2.96150236e-04
2.02500000e-01	1.83807594e-02	2.90944560e-04
2.03000000e-01	1.86041812e-02	2.94474939e-04
2.03500000e-01	1.86692820e-02	2.96453975e-04
2.04000000e-01	1.87374778e-02	2.94094789e-04
2.04500000e-01	1.84700545e-02	2.92082757e-04
2.05000000e-01	1.83895067e-02	2.90231831e-04
2.05500000e-01	1.83679385e-02	2.88930849e-04
2.06000000e-01	1.84658423e-02	2.90769411e-04
2.06500000e-01	1.84893227e-02	2.90501145e-04
2.07000000e-01	1.84042356e-02	2.87652771e-04
2.07500000e-01	1.87710427e-02	2.93591599e-04
2.08000000e-01	1.84811117e-02	2.89873688e-04
2.08500000e-01	1.83317278e-02	2.86333172e-04
2.09000000e-01	1.84465301e-02	2.88792920e-04
2.09500000e-01	1.84899015e-02	2.88082264e-04
2.10000000e-01	1.82872766e-02	2.85215539e-04
2.10500000e-01	1.86429297e-02	2.88813219e-04
2.11000000e-01	1.83354806e-02	2.85020245e-04
2.11500000e-01	1.85283034e-02	2.87736633e-04
2.12000000e-01	1.82694435e-02	2.83647133e-04
2.12500000e-01	1.82509796e-02	2.83251893e-04
2.13000000e-01	1.85889753e-02	2.85953772e-04
2.13500000e-01	1.83500508e-02	2.82671024e-04
2.14000000e-01	1.84168491e-02	2.83584212e-04
2.14500000e-01	1.84068072e-02	2.81525181e-04
2.15000000e-01	1.84215777e-02	2.84870506e-04
2.15500000e-01	1.82770230e-02	2.79767879e-04
2.16000000e-01	1.82456828e-02	2.80972345e-04
2.16500000e-01	1.81535484e-02	2.78999648e-04
2.17000000e-01	1.84054944e-02	2.85433323e-04
2.17500000e-01	1.83534075e-02	2.90677964e-04
2.18000000e-01	1.83840556e-02	2.90314292e-04
2.18500000e-01	1.81545650e-02	2.89416079e-04
2.19000000e-01	1.83116446e-02	2.92614998e-04
2.19500000e-01	1.82736813e-02	2.93473995e-04
2.20000000e-01	1.81304623e-02	2.93516651e-04
2.20500000e-01	1.82927281e-02	2.95505787e-04
2.21000000e-01	1.83169549e-02	2.96478119e-04
2.21500000e-01	1.84971427e-02	3.01167479e-04
2.22000000e-01	1.83400506e-02	2.97461576e-04
2.22500000e-01	1.82211406e-02	2.97143787e-04
2.23000000e-01	1.81090268e-02	2.94980572e-04
2.23500000e-01	1.83695261e-02	3.01447447e-04
2.24000000e-01	1.81615439e-02	2.99040952e-04
2.24500000e-01	1.81509080e-02	2.98612443e-04
2.25000000e-01	1.81975996e-02	3.01735857e-04
2.25500000e-01	1.81003855e-02	3.00623486e-04
2.26000000e-01	1.80532566e-02	2.99460991e-04
2.26500000e-01	1.81679556e-02	2.96408941e-04
2.27000000e-01	1.83179818e-02	2.96278006e-04
2.27500000e-01	1.83003292e-02	2.94063445e-04
2.28000000e-01	1.79863080e-02	2.87747384e-04
2.28500000e-01	1.81836325e-02	2.89326346e-04
2.29000000e-01	1.82335397e-02	2.87858648e-04
2.29500000e-01	1.82375750e-02	2.87279096e-04
2.30000000e-01	1.82265110e-02	2.85663194e-04
2.30500000e-01	1.82871153e-02	2.84995031e-04
2.31000000e-01	1.81452407e-02	2.82965954e-04
2.31500000e-01	1.82806398e-02	2.84460073e-04
2.32000000e-01	1.81357348e-02	2.82302341e-04
2.32500000e-01	1.81933788e-02	2.82755852e-04
2.33000000e-01	1.81413755e-02	2.80370302e-04
2.33500000e-01	1.81587659e-02	2.80658941e-04
2.34000000e-01	1.81503754e-02	2.80316744e-04
2.34500000e-01	1.81985152e-02	2.78324646e-04
2.35000000e-01	1.80694084e-02	2.77411174e-04
2.35500000e-01	1.79622395e-02	2.74753014e-04
2.36000000e-01	1.79269377e-02	2.73826957e-04
2.36500000e-01	1.80479219e-02	2.76547194e-04
2.37000000e-01	1.78282573e-02	2.72718990e-04
2.37500000e-01	1.81482482e-02	2.76160502e-04
2.38000000e-01	1.78319367e-02	2.70710688e-04
2.38500000e-01	1.79346441e-02	2.73663880e-04
2.39000000e-01	1.80062040e-02	2.71613641e-04
2.39500000e-01	1.79379497e-02	2.71620797e-04
2.40000000e-01	1.80991476e-02	2.72727671e-04
2.40500000e-01	1.80192827e-02	2.71012112e-04
2.41000000e-01	1.77937440e-02	2.67696323e-04
2.41500000e-01	1.81320306e-02	2.72028523e-04
2.42000000e-01	1.80839365e-02	2.71015985e-04
2.42500000e-01	1.79405992e-02	2.68546436e-04
2.43000000e-01	1.78977860e-02	2.66630489e-04
2.43500000e-01	1.79680907e-02	2.69187268e-04
2.44000000e-01	1.78862041e-02	2.67221513e-04
2.44500000e-01	1.78903220e-02	2.66614752e-04
2.45000000e-01	1.78538308e-02	2.63785946e-04
2.45500000e-01	1.76876064e-02	2.62715876e-04
2.46000000e-01	1.77035912e-02	2.62724409e-04
2.46500000e-01	1.76485181e-02	2.61393211e-04
2.47000000e-01	1.79148701e-02	2.65700393e-04
2.47500000e-01	1.78067423e-02	2.62136782e-04
2.48000000e-01	1.79596656e-02	2.64711168e-04
2.48500000e-01	1.75578898e-02	2.60114094e-04
2.49000000e-01	1.75537620e-02	2.58613442e-04
2.49500000e-01	1.78235382e-02	2.63413209e-04
2.50000000e-01	1.78933072e-02	2.62013676e-04
2.50500000e-01	1.77079499e-02	2.61239297e-04
2.51000000e-01	1.76798889e-02	2.58476044e-04
2.51500000e-01	1.78932661e-02	2.62113892e-04
2.52000000e-01	1.77901155e-02	2.61025977e-04
2.52500000e-01	1.77462691e-02	2.60040495e-04
2.53000000e-01	1.77749627e-02	2.59242815e-04
2.53500000e-01	1.77822689e-02	2.59502309e-04
2.54000000e-01	1.77343190e-02	2.58666332e-04
2.54500000e-01	1.76894177e-02	2.58226617e-04
2.55000000e-01	1.77687718e-02	2.58620008e-04
2.55500000e-01	1.76538926e-02	2.56087509e-04
2.56000000e-01	1.77846731e-02	2.56901576e-04
2.56500000e-01	1.77894252e-02	2.58094028e-04
2.57000000e-01	1.77379483e-02	2.56798037e-04
2.57500000e-01	1.75901096e-02	2.53644455e-04
2.58000000e-01	1.77786588e-02	2.57900552e-04
2.58500000e-01	1.77040696e-02	2.55334114e-04
2.59000000e-01	1.76179981e-02	2.54282061e-04
2.59500000e-01	1.76387125e-02	2.53319080e-04
2.60000000e-01	1.78688148e-02	2.56303784e-04
2.60500000e-01	1.77222378e-02	2.54795712e-04
2.61000000e-01	1.75866643e-02	2.51879545e-04
2.61500000e-01	1.75446860e-02	2.52256375e-04
2.62000000e-01	1.75379790e-02	2.51746227e-04
2.62500000e-01	1.76791796e-02	2.52158860e-04
2.63000000e-01	1.74788147e-02	2.50008806e-04
2.63500000e-01	1.75114549e-02	2.50033881e-04
2.64000000e-01	1.74271673e-02	2.48562826e-04
2.64500000e-01	1.77551675e-02	2.51747604e-04
2.65000000e-01	1.76571881e-02	2.51782153e-04
2.65500000e-01	1.75646496e-02	2.50339145e-04
2.66000000e-01	1.77154156e-02	2.51594090e-04
2.66500000e-01	1.74119507e-02	2.46623390e-04
2.67000000e-01	1.73598691e-02	2.46426829e-04
2.67500000e-01	1.74859020e-02	2.47412623e-04
2.68000000e-01	1.76490929e-02	2.48630226e-04
2.68500000e-01	1.76466437e-02	2.48907412e-04
2.69000000e-01	1.74793803e-02	2.46592498e-04
2.69500000e-01	1.74213068e-02	2.45966672e-04
2.70000000e-01	1.75704257e-02	2.46628796e-04
2.70500000e-01	1.73688701e-02	2.43529380e-04
2.71000000e-01	1.75851422e-02	2.46576499e-04
2.71500000e-01	1.74767356e-02	2.44849249e-04
2.72000000e-01	1.73789112e-02	2.44162118e-04
2.72500000e-01	1.74007214e-02	2.44264143e-04
2.73000000e-01	1.72672847e-02	2.42251234e-04
2.73500000e-01	1.73709969e-02	2.42604541e-04
2.74000000e-01	1.74231743e-02	2.43227030e-04
2.74500000e-01	1.74714207e-02	2.42435501e-04
2.75000000e-01	1.74824996e-02	2.45192215e-04
2.75500000e-01	1.72984990e-02	2.40632781e-04
2.76000000e-01	1.73220260e-02	2.39944198e-04
2.76500000e-01	1.73880044e-02	2.42043815e-04
2.77000000e-01	1.72985499e-02	2.40579269e-04
2.77500000e-01	1.73193305e-02	2.41521018e-04
2.78000000e-01	1.74347004e-02	2.41856849e-04
2.78500000e-01	1.73658032e-02	2.40443045e-04
2.79000000e-01	1.72798870e-02	2.39412764e-04
2.79500000e-01	1.73685630e-02	2.39238993e-04
2.80000000e-01	1.72285588e-02	2.38363449e-04
2.80500000e-01	1.73681176e-02	2.40350409e-04
2.81000000e-01	1.74075999e-02	2.39831209e-04
2.81500000e-01	1.71411848e-02	2.36777672e-04
2.82000000e-01	1.71946444e-02	2.37058476e-04
2.82500000e-01	1.72254714e-02	2.37663736e-04
2.83000000e-01	1.73129261e-02	2.37379492e-04
2.83500000e-01	1.73905637e-02	2.39336011e-04
2.84000000e-01	1.72821574e-02	2.37247097e-04
2.84500000e-01	1.72197645e-02	2.35851331e-04
2.85000000e-01	1.71379061e-02	2.35397249e-04
2.85500000e-01	1.71875057e-02	2.35237454e-04
2.86000000e-01	1.72222744e-02	2.35829959e-04
2.86500000e-01	1.70361902e-02	2.33117283e-04
2.87000000e-01	1.70033780e-02	2.31772003e-04
2.87500000e-01	1.71115667e-02	2.32954439e-04
2.88000000e-01	1.71087315e-02	2.32714942e-04
2.88500000e-01	1.72279964e-02	2.35017263e-04
2.89000000e-01	1.71237927e-02	2.32542653e-04
2.89500000e-01	1.71016550e-02	2.32593246e-04
2.90000000e-01	1.70686034e-02	2.31293449e-04
2.90500000e-01	1.70132674e-02	2.31064076e-04
2.91000000e-01	1.70605951e-02	2.31174396e-04
2.91500000e-01	1.72932982e-02	2.33182074e-04
2.92000000e-01	1.71032334e-02	2.31436382e-04
2.92500000e-01	1.70261060e-02	2.29699905e-04
2.93000000e-01	1.71004409e-02	2.30926032e-04
2.93500000e-01	1.70038674e-02	2.29961161e-04
2.94000000e-01	1.73267255e-02	2.32098856e-04
2.94500000e-01	1.70594613e-02	2.30417409e-04
2.95000000e-01	1.70886121e-02	2.29850797e-04
2.95500000e-01	1.70417078e-02	2.29093088e-04
2.96000000e-01	1.70246806e-02	2.28110303e-04
2.96500000e-01	1.71611354e-02	2.30212698e-04
2.97000000e-01	1.69334580e-02	2.28091141e-04
2.97500000e-01	1.71664898e-02	2.29378032e-04
2.98000000e-01	1.70165459e-02	2.28223617e-04
2.98500000e-01	1.68210361e-02	2.25312208e-04
2.99000000e-01	1.70285487e-02	2.27101284e-04
2.99500000e-01	1.69914860e-02	2.27652413e-04
3.00000000e-01	1.70109772e-02	2.26940362e-04
3.00500000e-01	1.72069793e-02	2.28791790e-04
3.01000000e-01	1.69157534e-02	2.25304954e-04
3.01500000e-01	1.67920020e-02	2.24242894e-04
3.02000000e-01	1.71478900e-02	2.27519162e-04
3.02500000e-01	1.68712092e-02	2.24137378e-04
3.03000000e-01	1.68384488e-02	2.24437866e-04
3.03500000e-01	1.70601522e-02	2.25611154e-04
3.04000000e-01	1.70461744e-02	2.26461527e-04
3.04500000e-01	1.70215560e-02	2.24850674e-04
3.05000000e-01	1.70338980e-02	2.26040443e-04
3.05500000e-01	1.69168213e-02	2.23362361e-04
3.06000000e-01	1.68991465e-02	2.22572618e-04
3.06500000e-01	1.69491081e-02	2.23437388e-04
3.07000000e-01	1.68711673e-02	2.22204793e-04
3.07500000e-01	1.70024847e-02	2.23965932e-04
3.08000000e-01	1.68635647e-02	2.21354438e-04
3.08500000e-01	1.69451332e-02	2.21895097e-04
3.09000000e-01	1.67776780e-02	2.20594250e-04
3.09500000e-01	1.68276477e-02	2.20358389e-04
3.10000000e-01	1.69984653e-02	2.22785821e-04
3.10500000e-01	1.67976331e-02	2.21167164e-04
3.11000000e-01	1.68456652e-02	2.20820355e-04
3.11500000e-01	1.67770524e-02	2.19604409e-04
3.12000000e-01	1.70625176e-02	2.22555963e-04
3.12500000e-01	1.68569275e-02	2.20632077e-04
3.13000000e-01	1.68826838e-02	2.19726207e-04
3.13500000e-01	1.67369185e-02	2.18914778e-04
3.14000000e-01	1.69213677e-02	2.20246851e-04
3.14500000e-01	1.65769187e-02	2.15507850e-04
3.15000000e-01	1.67940969e-02	2.19372705e-04
3.15500000e-01	1.67603699e-02	2.17674713e-04
3.16000000e-01	1.68544140e-02	2.19476911e-04
3.16500000e-01	1.66955820e-02	2.16176533e-04
3.17000000e-01	1.67967475e-02	2.18223890e-04
3.17500000e-01	1.67966219e-02	2.19064257e-04
3.18000000e-01	1.67727634e-02	2.16830864e-04
3.18500000e-01	1.67779743e-02	2.17056754e-04
3.19000000e-01	1.67054804e-02	2.16174317e-04
3.19500000e-01	1.68429202e-02	2.17724604e-04
3.20000000e-01	1.67481048e-02	2.16383822e-04
3.20500000e-01	1.65472207e-02	2.13290132e-04
3.21000000e-01	1.65191307e-02	2.13532277e-04
3.21500000e-01	1.66589136e-02	2.14415990e-04
3.22000000e-01	1.65943511e-02	2.14264614e-04
3.22500000e-01	1.66910792e-02	2.14804867e-04
3.23000000e-01	1.66587687e-02	2.14080173e-04
3.23500000e-01	1.65561803e-02	2.13078394e-04
3.24000000e-01	1.64793958e-02	2.11549264e-04
3.24500000e-01	1.65530796e-02	2.13487899e-04
3.25000000e-01	1.66231660e-02	2.12936503e-04
3.25500000e-01	1.66511253e-02	2.13452856e-04
3.26000000e-01	1.65875504e-02	2.13148148e-04
3.26500000e-01	1.64957905e-02	2.10861300e-04
3.27000000e-01	1.65391317e-02	2.11755294e-04
3.27500000e-01	1.65816743e-02	2.11273990e-04
3.28000000e-01	1.63524224e-02	2.10201325e-04
3.28500000e-01	1.65083753e-02	2.11111253e-04
3.29000000e-01	1.64703773e-02	2.10852532e-04
3.29500000e-01	1.65607880e-02	2.11758834e-04
3.30000000e-01	1.63677412e-02	2.08473448e-04
3.30500000e-01	1.63868027e-02	2.09162602e-04
3.31000000e-01	1.64009574e-02	2.08698041e-04
3.31500000e-01	1.65891031e-02	2.10968888e-04
3.32000000e-01	1.64636956e-02	2.09971237e-04
3.32500000e-01	1.65188652e-02	2.09846854e-04
3.33000000e-01	1.65219195e-02	2.09092582e-04
3.33500000e-01	1.63893859e-02	2.07195935e-04
3.34000000e-01	1.63717779e-02	2.07402404e-04
3.34500000e-01	1.64087351e-02	2.07929012e-04
3.35000000e-01	1.62558705e-02	2.05234488e-04
3.35500000e-01	1.63030012e-02	2.06477543e-04
3.36000000e-01	1.63436586e-02	2.06594665e-04
3.36500000e-01	1.62084851e-02	2.05469450e-04
3.37000000e-01	1.63087625e-02	2.05411756e-04
3.37500000e-01	1.62522538e-02	2.04823695e-04
3.38000000e-01	1.63046947e-02	2.06177070e-04
3.38500000e-01	1.64149766e-02	2.06439378e-04
3.39000000e-01	1.62579086e-02	2.05238452e-04
3.39500000e-01	1.64097470e-02	2.05975988e-04
3.40000000e-01	1.63405287e-02	2.05751486e-04
3.40500000e-01	1.62377852e-02	2.03577954e-04
3.41000000e-01	1.62725273e-02	2.03401055e-04
3.41500000e-01	1.62631140e-02	2.04744643e-04
3.42000000e-01	1.62773689e-02	2.03586023e-04
3.42500000e-01	1.63763594e-02	2.05123195e-04
3.43000000e-01	1.64690151e-02	2.05281231e-04
3.43500000e-01	1.63467140e-02	2.03903544e-04
3.44000000e-01	1.63635959e-02	2.05034738e-04
3.44500000e-01	1.61882499e-02	2.01857374e-04
3.45000000e-01	1.62280713e-02	2.01729866e-04
3.45500000e-01	1.61593901e-02	2.01736136e-04
3.46000000e-01	1.62669567e-02	2.02809914e-04
3.46500000e-01	1.60330600e-02	1.99989760e-04
3.47000000e-01	1.63821676e-02	2.03357792e-04
3.47500000e-01	1.62096673e-02	2.01741444e-04
3.48000000e-01	1.63475370e-02	2.02480978e-04
3.48500000e-01	1.60820064e-02	2.00155221e-04
3.49000000e-01	1.61212765e-02	1.99624028e-04
3.49500000e-01	1.61019986e-02	2.00208268e-04
3.50000000e-01	1.60913007e-02	1.62866484e-04
3.51000000e-01	1.61223353e-02	1.41124065e-04
3.52000000e-01	1.60667013e-02	1.40538563e-04
3.53000000e-01	1.61672176e-02	1.40612016e-04
3.54000000e-01	1.60585299e-02	1.39773698e-04
3.55000000e-01	1.59646115e-02	1.38793181e-04
3.56000000e-01	1.61916715e-02	1.41395479e-04
3.57000000e-01	1.60726272e-02	1.42550778e-04
3.58000000e-01	1.60042413e-02	1.43536233e-04
3.59000000e-01	1.59324394e-02	1.44020925e-04
3.60000000e-01	1.58152302e-02	1.44062284e-04
3.61000000e-01	1.59582627e-02	1.46043117e-04
3.62000000e-01	1.59431540e-02	1.46526942e-04
3.63000000e-01	1.58215538e-02	1.45788286e-04
3.64000000e-01	1.57918702e-02	1.46113789e-04
3.65000000e-01	1.58810540e-02	1.47321551e-04
3.66000000e-01	1.57083897e-02	1.44261228e-04
3.67000000e-01	1.59790018e-02	1.44272183e-04
3.68000000e-01	1.59162735e-02	1.42650551e-04
3.69000000e-01	1.58410037e-02	1.41297601e-04
3.70000000e-01	1.58374495e-02	1.41144435e-04
3.71000000e-01	1.56969631e-02	1.41290039e-04
3.72000000e-01	1.57533212e-02	1.42895399e-04
3.73000000e-01	1.56585134e-02	1.42360887e-04
3.74000000e-01	1.56901368e-02	1.42457171e-04
3.75000000e-01	1.57312729e-02	1.43087591e-04
3.76000000e-01	1.58042226e-02	1.43390701e-04
3.77000000e-01	1.55762991e-02	1.42458345e-04
3.78000000e-01	1.57411315e-02	1.43142221e-04
3.79000000e-01	1.58322613e-02	1.43671266e-04
3.80000000e-01	1.57371739e-02	1.42655991e-04
3.81000000e-01	1.55438743e-02	1.41318719e-04
3.82000000e-01	1.56893719e-02	1.42000582e-04
3.83000000e-01	1.56694709e-02	1.42048897e-04
3.84000000e-01	1.55920043e-02	1.41503198e-04
3.85000000e-01	1.56282094e-02	1.41944878e-04
3.86000000e-01	1.57249928e-02	1.42442921e-04
3.87000000e-01	1.55974407e-02	1.41435107e-04
3.88000000e-01	1.54983031e-02	1.40572929e-04
3.89000000e-01	1.55748670e-02	1.41326963e-04
3.90000000e-01	1.54624860e-02	1.39749727e-04
3.91000000e-01	1.55316738e-02	1.40865751e-04
3.92000000e-01	1.54695388e-02	1.40118695e-04
3.93000000e-01	1.53730055e-02	1.39213585e-04
3.94000000e-01	1.55085969e-02	1.40088745e-04
3.95000000e-01	1.53720693e-02	1.39308979e-04
3.96000000e-01	1.54574324e-02	1.39699357e-04
3.97000000e-01	1.55657802e-02	1.40574919e-04
3.98000000e-01	1.52680073e-02	1.38182157e-04
3.99000000e-01	1.53689700e-02	1.39139807e-04
4.00000000e-01	1.54465744e-02	1.39831296e-04
4.01000000e-01	1.54253956e-02	1.39571469e-04
4.02000000e-01	1.53246464e-02	1.38667502e-04
4.03000000e-01	1.53312863e-02	1.38476003e-04
4.04000000e-01	1.54387474e-02	1.39357226e-04
4.05000000e-01	1.53939542e-02	1.39038983e-04
4.06000000e-01	1.53812611e-02	1.38971218e-04
4.07000000e-01	1.55139232e-02	1.39910180e-04
4.08000000e-01	1.53321588e-02	1.38371797e-04
4.09000000e-01	1.53535561e-02	1.38617472e-04
4.10000000e-01	1.52680373e-02	1.37798371e-04
4.11000000e-01	1.53448835e-02	1.38729952e-04
4.12000000e-01	1.52099634e-02	1.37528618e-04
4.13000000e-01	1.52239423e-02	1.37162032e-04
4.14000000e-01	1.53035086e-02	1.37929098e-04
4.15000000e-01	1.52193671e-02	1.37251681e-04
4.16000000e-01	1.53244361e-02	1.37838021e-04
4.17000000e-01	1.52721442e-02	1.37950611e-04
4.18000000e-01	1.52273152e-02	1.38218967e-04
4.19000000e-01	1.52223970e-02	1.40322112e-04
4.20000000e-01	1.53949463e-02	1.42406308e-04
4.21000000e-01	1.53121221e-02	1.42531752e-04
4.22000000e-01	1.52278527e-02	1.42001670e-04
4.23000000e-01	1.51656868e-02	1.42307033e-04
4.24000000e-01	1.52062404e-02	1.43152301e-04
4.25000000e-01	1.52605107e-02	1.43571473e-04
4.26000000e-01	1.51861742e-02	1.42986987e-04
4.27000000e-01	1.52510864e-02	1.43520621e-04
4.28000000e-01	1.52117155e-02	1.43104774e-04
4.29000000e-01	1.51702517e-02	1.43305374e-04
4.30000000e-01	1.50944502e-02	1.42595711e-04
4.31000000e-01	1.53125644e-02	1.43847671e-04
4.32000000e-01	1.51587824e-02	1.42888185e-04
4.33000000e-01	1.51170395e-02	1.43100287e-04
4.34000000e-01	1.51421842e-02	1.43185623e-04
4.35000000e-01	1.51583018e-02	1.42985372e-04
4.36000000e-01	1.51690806e-02	1.43768295e-04
4.37000000e-01	1.50137472e-02	1.42954353e-04
4.38000000e-01	1.50026553e-02	1.42575291e-04
4.39000000e-01	1.50127919e-02	1.42924515e-04
4.40000000e-01	1.49106676e-02	1.42274336e-04
4.41000000e-01	1.51027913e-02	1.44027675e-04
4.42000000e-01	1.50822288e-02	1.43808777e-04
4.43000000e-01	1.51237746e-02	1.44400606e-04
4.44000000e-01	1.50595327e-02	1.44348854e-04
4.45000000e-01	1.47824597e-02	1.41732306e-04
4.46000000e-01	1.50880952e-02	1.44708260e-04
4.47000000e-01	1.50122563e-02	1.44030629e-04
4.48000000e-01	1.49940906e-02	1.44200157e-04
4.49000000e-01	1.50680324e-02	1.44908628e-04
4.50000000e-01	1.48401568e-02	1.43543913e-04
4.51000000e-01	1.49611659e-02	1.44083034e-04
4.52000000e-01	1.49401133e-02	1.44263279e-04
4.53000000e-01	1.49135623e-02	1.44079834e-04
4.54000000e-01	1.50672558e-02	1.45401357e-04
4.55000000e-01	1.48877783e-02	1.44392163e-04
4.56000000e-01	1.50114648e-02	1.45085042e-04
4.57000000e-01	1.48303381e-02	1.43911884e-04
4.58000000e-01	1.47226911e-02	1.42782709e-04
4.59000000e-01	1.50177823e-02	1.45528459e-04
4.60000000e-01	1.49414650e-02	1.45193495e-04
4.61000000e-01	1.47968735e-02	1.43974281e-04
4.62000000e-01	1.47489907e-02	1.43556673e-04
4.63000000e-01	1.49678859e-02	1.45864094e-04
4.64000000e-01	1.48256082e-02	1.44580864e-04
4.65000000e-01	1.48750562e-02	1.44862236e-04
4.66000000e-01	1.47791518e-02	1.44536405e-04
4.67000000e-01	1.47082816e-02	1.44305229e-04
4.68000000e-01	1.47963606e-02	1.44728930e-04
4.69000000e-01	1.48311326e-02	1.45275906e-04
4.70000000e-01	1.47308630e-02	1.44728496e-04
4.71000000e-01	1.48109905e-02	1.44950464e-04
4.72000000e-01	1.47667490e-02	1.44779936e-04
4.73000000e-01	1.47923457e-02	1.44568626e-04
4.74000000e-01	1.46723399e-02	1.43608836e-04
4.75000000e-01	1.47515697e-02	1.44081950e-04
4.76000000e-01	1.47817325e-02	1.44237836e-04
4.77000000e-01	1.47591112e-02	1.44482627e-04
4.78000000e-01	1.48016763e-02	1.45261868e-04
4.79000000e-01	1.48243135e-02	1.45504111e-04
4.80000000e-01	1.46656398e-02	1.43607209e-04
4.81000000e-01	1.46025722e-02	1.43337637e-04
4.82000000e-01	1.47013968e-02	1.44315231e-04
4.83000000e-01	1.45208771e-02	1.43240746e-04
4.84000000e-01	1.45667625e-02	1.43404995e-04
4.85000000e-01	1.46621164e-02	1.44391555e-04
4.86000000e-01	1.45494068e-02	1.42920635e-04
4.87000000e-01	1.45577399e-02	1.42999523e-04
4.88000000e-01	1.46891984e-02	1.45136718e-04
4.89000000e-01	1.46310315e-02	1.44306315e-04
4.90000000e-01	1.43877868e-02	1.42265036e-04
4.91000000e-01	1.46763604e-02	1.44451507e-04
4.92000000e-01	1.44326329e-02	1.42630292e-04
4.93000000e-01	1.46822063e-02	1.44888636e-04
4.94000000e-01	1.47382783e-02	1.45297302e-04
4.95000000e-01	1.46985452e-02	1.46411897e-04
4.96000000e-01	1.45106494e-02	1.48910736e-04
4.97000000e-01	1.46554826e-02	1.52996016e-04
4.98000000e-01	1.45738930e-02	1.53759832e-04
4.99000000e-01	1.44675408e-02	1.55151331e-04
5.00000000e-01	1.46768048e-02	1.58741901e-04
5.01000000e-01	1.44845040e-02	1.58277139e-04
5.02000000e-01	1.46407416e-02	1.60999008e-04
5.03000000e-01	1.46129170e-02	1.63057465e-04
5.04000000e-01	1.45586397e-02	1.63001793e-04
5.05000000e-01	1.46084312e-02	1.61245828e-04
5.06000000e-01	1.45197322e-02	1.57409462e-04
5.07000000e-01	1.46297183e-02	1.56775817e-04
5.08000000e-01	1.46096503e-02	1.54727392e-04
5.09000000e-01	1.46125607e-02	1.54809861e-04
5.10000000e-01	1.45128137e-02	1.53065132e-04
5.11000000e-01	1.45008975e-02	1.52763014e-04
5.12000000e-01	1.44009005e-02	1.51372833e-04
5.13000000e-01	1.45452726e-02	1.52310171e-04
5.14000000e-01	1.44618580e-02	1.51489900e-04
5.15000000e-01	1.42689532e-02	1.48740818e-04
5.16000000e-01	1.44443589e-02	1.50475923e-04
5.17000000e-01	1.44185698e-02	1.50010067e-04
5.18000000e-01	1.45042297e-02	1.50784169e-04
5.19000000e-01	1.44190475e-02	1.49264815e-04
5.20000000e-01	1.44514544e-02	1.49393727e-04
5.21000000e-01	1.42501782e-02	1.47655508e-04
5.22000000e-01	1.44193400e-02	1.48757750e-04
5.23000000e-01	1.44536435e-02	1.48588318e-04
5.24000000e-01	1.42467495e-02	1.47112831e-04
5.25000000e-01	1.45054720e-02	1.49008673e-04
5.26000000e-01	1.44447896e-02	1.48171596e-04
5.27000000e-01	1.43691396e-02	1.47871080e-04
5.28000000e-01	1.42923166e-02	1.47358263e-04
5.29000000e-01	1.43159879e-02	1.47528660e-04
5.30000000e-01	1.41046107e-02	1.45818422e-04
5.31000000e-01	1.42445014e-02	1.46732733e-04
5.32000000e-01	1.42921380e-02	1.46852252e-04
5.33000000e-01	1.44085546e-02	1.47916211e-04
5.34000000e-01	1.41246253e-02	1.45554770e-04
5.35000000e-01	1.42340566e-02	1.46716966e-04
5.36000000e-01	1.41200163e-02	1.45735653e-04
5.37000000e-01	1.41502638e-02	1.46254471e-04
5.38000000e-01	1.41834506e-02	1.45955853e-04
5.39000000e-01	1.43103036e-02	1.47241079e-04
5.40000000e-01	1.41712125e-02	1.46271768e-04
5.41000000e-01	1.41598410e-02	1.46057092e-04
5.42000000e-01	1.40758065e-02	1.45428030e-04
5.43000000e-01	1.39996364e-02	1.44324489e-04
5.44000000e-01	1.42720842e-02	1.47252309e-04
5.45000000e-01	1.41389875e-02	1.45542212e-04
5.46000000e-01	1.40437758e-02	1.44994026e-04
5.47000000e-01	1.40621814e-02	1.44977308e-04
5.48000000e-01	1.40408245e-02	1.44825059e-04
5.49000000e-01	1.39729756e-02	1.44139932e-04
5.50000000e-01	1.40420701e-02	1.44912582e-04
5.51000000e-01	1.40656456e-02	1.44450931e-04
5.52000000e-01	1.41443425e-02	1.45297799e-04
5.53000000e-01	1.40590421e-02	1.43760899e-04
5.54000000e-01	1.40561763e-02	1.43918886e-04
5.55000000e-01	1.40697718e-02	1.44275013e-04
5.56000000e-01	1.39006068e-02	1.42994640e-04
5.57000000e-01	1.39305052e-02	1.42557741e-04
5.58000000e-01	1.39239702e-02	1.42725705e-04
5.59000000e-01	1.39887704e-02	1.43075456e-04
5.60000000e-01	1.39623589e-02	1.42968604e-04
5.61000000e-01	1.39093069e-02	1.42689083e-04
5.62000000e-01	1.39618111e-02	1.43613493e-04
5.63000000e-01	1.39054990e-02	1.43031379e-04
5.64000000e-01	1.38456090e-02	1.42008091e-04
5.65000000e-01	1.38830061e-02	1.42828458e-04
5.66000000e-01	1.39268963e-02	1.42811716e-04
5.67000000e-01	1.38369624e-02	1.42284332e-04
5.68000000e-01	1.37765681e-02	1.41543885e-04
5.69000000e-01	1.39361497e-02	1.42640121e-04
5.70000000e-01	1.39609560e-02	1.42651320e-04
5.71000000e-01	1.38289744e-02	1.41896810e-04
5.72000000e-01	1.37867137e-02	1.41176604e-04
5.73000000e-01	1.38488386e-02	1.42004793e-04
5.74000000e-01	1.38161080e-02	1.42007063e-04
5.75000000e-01	1.38611643e-02	1.42562567e-04
5.76000000e-01	1.37697451e-02	1.41468989e-04
5.77000000e-01	1.37252423e-02	1.41036640e-04
5.78000000e-01	1.38168456e-02	1.42130347e-04
5.79000000e-01	1.37658181e-02	1.41428562e-04
5.80000000e-01	1.38117908e-02	1.42031793e-04
5.81000000e-01	1.37601158e-02	1.41258497e-04
5.82000000e-01	1.37154015e-02	1.41084246e-04
5.83000000e-01	1.37185051e-02	1.40985533e-04
5.84000000e-01	1.36657107e-02	1.40391390e-04
5.85000000e-01	1.37094732e-02	1.41579922e-04
5.86000000e-01	1.37026866e-02	1.41397085e-04
5.87000000e-01	1.34847013e-02	1.38936477e-04
5.88000000e-01	1.35971651e-02	1.39945260e-04
5.89000000e-01	1.36524469e-02	1.41011526e-04
5.90000000e-01	1.36273144e-02	1.40441675e-04
5.91000000e-01	1.36032462e-02	1.40175864e-04
5.92000000e-01	1.37613059e-02	1.41789444e-04
5.93000000e-01	1.38131206e-02	1.42500082e-04
5.94000000e-01	1.36103267e-02	1.40346050e-04
5.95000000e-01	1.36412677e-02	1.41068407e-04
5.96000000e-01	1.36238460e-02	1.40515149e-04
5.97000000e-01	1.35503912e-02	1.39843989e-04
5.98000000e-01	1.34862052e-02	1.39360701e-04
5.99000000e-01	1.35023565e-02	1.39847236e-04
6.00000000e-01	1.35547039e-02	1.40229223e-04
6.01000000e-01	1.34788726e-02	1.39757760e-04
6.02000000e-01	1.36092853e-02	1.40754384e-04
6.03000000e-01	1.34499989e-02	1.39681823e-04
6.04000000e-01	1.36542047e-02	1.41191366e-04
6.05000000e-01	1.35566985e-02	1.39885859e-04
6.06000000e-01	1.34980013e-02	1.39236633e-04
6.07000000e-01	1.34801352e-02	1.39137759e-04
6.08000000e-01	1.36087145e-02	1.40524036e-04
6.09000000e-01	1.34216490e-02	1.39100306e-04
6.10000000e-01	1.35369944e-02	1.40206034e-04
6.11000000e-01	1.34213791e-02	1.38772629e-04
6.12000000e-01	1.35302173e-02	1.40661098e-04
6.13000000e-01	1.34715281e-02	1.39676254e-04
6.14000000e-01	1.34830284e-02	1.39371255e-04
6.15000000e-01	1.34433037e-02	1.39185512e-04
6.16000000e-01	1.35732164e-02	1.40287681e-04
6.17000000e-01	1.33971529e-02	1.38736834e-04
6.18000000e-01	1.35413332e-02	1.39874261e-04
6.19000000e-01	1.35818166e-02	1.39994807e-04
6.20000000e-01	1.32611168e-02	1.37270325e-04
6.21000000e-01	1.33636328e-02	1.38075102e-04
6.22000000e-01	1.33467199e-02	1.37945606e-04
6.23000000e-01	1.34281044e-02	1.38486156e-04
6.24000000e-01	1.34287303e-02	1.38221875e-04
6.25000000e-01	1.33074338e-02	1.36708956e-04
6.26000000e-01	1.34384355e-02	1.37841239e-04
6.27000000e-01	1.33565036e-02	1.37108124e-04
6.28000000e-01	1.33629460e-02	1.37286892e-04
6.29000000e-01	1.33492682e-02	1.37186388e-04
6.30000000e-01	1.33890471e-02	1.37760807e-04
6.31000000e-01	1.32540227e-02	1.36685507e-04
6.32000000e-01	1.32321527e-02	1.36302826e-04
6.33000000e-01	1.34187236e-02	1.37857101e-04
6.34000000e-01	1.33098419e-02	1.40696778e-04
6.35000000e-01	1.33621183e-02	1.45216836e-04
6.36000000e-01	1.32729179e-02	1.47069821e-04
6.37000000e-01	1.33823357e-02	1.50291548e-04
6.38000000e-01	1.33723867e-02	1.52171899e-04
6.39000000e-01	1.33474700e-02	1.53645906e-04
6.40000000e-01	1.32905954e-02	1.54821530e-04
6.41000000e-01	1.31808874e-02	1.55603284e-04
6.42000000e-01	1.33611198e-02	1.59238643e-04
6.43000000e-01	1.34678258e-02	1.60230273e-04
6.44000000e-01	1.34759489e-02	1.53922304e-04
6.45000000e-01	1.33630810e-02	1.51666713e-04
6.46000000e-01	1.33858440e-02	1.50240616e-04
6.47000000e-01	1.34169752e-02	1.49474905e-04
6.48000000e-01	1.32480903e-02	1.46592167e-04
6.49000000e-01	1.32162987e-02	1.45770271e-04
6.50000000e-01	1.32172990e-02	1.44895042e-04
6.51000000e-01	1.33143703e-02	1.45591613e-04
6.52000000e-01	1.34235083e-02	1.45705383e-04
6.53000000e-01	1.32366207e-02	1.43174418e-04
6.54000000e-01	1.33902926e-02	1.44417244e-04
6.55000000e-01	1.33791557e-02	1.44490917e-04
6.56000000e-01	1.33380875e-02	1.43575401e-04
6.57000000e-01	1.32534659e-02	1.42276917e-04
6.58000000e-01	1.33231416e-02	1.42581661e-04
6.59000000e-01	1.32632090e-02	1.42234358e-04
6.60000000e-01	1.31368049e-02	1.40818367e-04
6.61000000e-01	1.33019998e-02	1.42838031e-04
6.62000000e-01	1.32188948e-02	1.41433680e-04
6.63000000e-01	1.33773673e-02	1.43266670e-04
6.64000000e-01	1.32941776e-02	1.41843877e-04
6.65000000e-01	1.31419583e-02	1.40838324e-04
6.66000000e-01	1.32406259e-02	1.41888884e-04
6.67000000e-01	1.31536183e-02	1.40966195e-04
6.68000000e-01	1.33350430e-02	1.42189988e-04
6.69000000e-01	1.31952560e-02	1.40810985e-04
6.70000000e-01	1.31559342e-02	1.40626341e-04
6.71000000e-01	1.31108913e-02	1.39587781e-04
6.72000000e-01	1.31552035e-02	1.40643132e-04
6.73000000e-01	1.31848523e-02	1.40121544e-04
6.74000000e-01	1.30824762e-02	1.39328753e-04
6.75000000e-01	1.32297936e-02	1.40736061e-04
6.76000000e-01	1.30505606e-02	1.39074459e-04
6.77000000e-01	1.32060040e-02	1.40311976e-04
6.78000000e-01	1.30099300e-02	1.38877721e-04
6.79000000e-01	1.29951572e-02	1.38235482e-04
6.80000000e-01	1.31678028e-02	1.39548123e-04
6.81000000e-01	1.30940552e-02	1.39053172e-04
6.82000000e-01	1.31767823e-02	1.39790067e-04
6.83000000e-01	1.31149284e-02	1.39050287e-04
6.84000000e-01	1.30838925e-02	1.38555081e-04
6.85000000e-01	1.31042228e-02	1.39134205e-04
6.86000000e-01	1.31685719e-02	1.39637019e-04
6.87000000e-01	1.31080046e-02	1.39385758e-04
6.88000000e-01	1.30092178e-02	1.38716517e-04
6.89000000e-01	1.29914593e-02	1.37865059e-04
6.90000000e-01	1.29010431e-02	1.37464164e-04
6.91000000e-01	1.29860071e-02	1.38319004e-04
6.92000000e-01	1.29002722e-02	1.37417677e-04
6.93000000e-01	1.30509687e-02	1.39045128e-04
6.94000000e-01	1.30423160e-02	1.38306198e-04
6.95000000e-01	1.30012511e-02	1.37873222e-04
6.96000000e-01	1.29547385e-02	1.37665787e-04
6.97000000e-01	1.30211777e-02	1.38282418e-04
6.98000000e-01	1.30459266e-02	1.38340198e-04
6.99000000e-01	1.30430141e-02	1.38325638e-04
7.00000000e-01	1.27562146e-02	1.35288009e-04
7.01000000e-01	1.28601882e-02	1.36780098e-04
7.02000000e-01	1.29331669e-02	1.37445104e-04
7.03000000e-01	1.28289612e-02	1.35729183e-04
7.04000000e-01	1.29465783e-02	1.37307417e-04
7.05000000e-01	1.29283545e-02	1.37279838e-04
7.06000000e-01	1.28570092e-02	1.36655971e-04
7.07000000e-01	1.28334926e-02	1.35961775e-04
7.08000000e-01	1.28639265e-02	1.35639133e-04
7.09000000e-01	1.28239437e-02	1.36156026e-04
7.10000000e-01	1.27686131e-02	1.35455729e-04
7.11000000e-01	1.27392828e-02	1.35413501e-04
7.12000000e-01	1.28049002e-02	1.35536981e-04
7.13000000e-01	1.27217339e-02	1.35234412e-04
7.14000000e-01	1.26158588e-02	1.34207911e-04
7.15000000e-01	1.27932586e-02	1.35772050e-04
7.16000000e-01	1.26399390e-02	1.34515329e-04
7.17000000e-01	1.26651254e-02	1.34882815e-04
7.18000000e-01	1.27635510e-02	1.35465564e-04
7.19000000e-01	1.26046644e-02	1.34113923e-04
7.20000000e-01	1.25611016e-02	1.33415726e-04
7.21000000e-01	1.26157570e-02	1.34337489e-04
7.22000000e-01	1.27318947e-02	1.35224025e-04
7.23000000e-01	1.26176202e-02	1.34020188e-04
7.24000000e-01	1.25671571e-02	1.33983434e-04
7.25000000e-01	1.24684288e-02	1.32239762e-04
7.26000000e-01	1.27185234e-02	1.34894938e-04
7.27000000e-01	1.25613120e-02	1.33947903e-04
7.28000000e-01	1.26622469e-02	1.33865336e-04
7.29000000e-01	1.25671213e-02	1.34052185e-04
7.30000000e-01	1.25282250e-02	1.33683125e-04
7.31000000e-01	1.24212999e-02	1.31973250e-04
7.32000000e-01	1.24823959e-02	1.32796550e-04
7.33000000e-01	1.24235215e-02	1.32296009e-04
7.34000000e-01	1.24977780e-02	1.32809098e-04
7.35000000e-01	1.23334373e-02	1.30822078e-04
7.36000000e-01	1.25375361e-02	1.32997505e-04
7.37000000e-01	1.24134188e-02	1.31370467e-04
7.38000000e-01	1.24808369e-02	1.32529787e-04
7.39000000e-01	1.24744196e-02	1.31247126e-04
7.40000000e-01	1.24082222e-02	1.30872324e-04
7.41000000e-01	1.24405481e-02	1.31048550e-04
7.42000000e-01	1.24128286e-02	1.30782305e-04
7.43000000e-01	1.24975810e-02	1.31551499e-04
7.44000000e-01	1.24626836e-02	1.31162285e-04
7.45000000e-01	1.23099523e-02	1.29633233e-04
7.46000000e-01	1.25179885e-02	1.31447456e-04
7.47000000e-01	1.23849535e-02	1.30588435e-04
7.48000000e-01	1.23324217e-02	1.30096246e-04
7.49000000e-01	1.23170182e-02	1.29645117e-04
7.50000000e-01	1.23190692e-02	1.29763159e-04
7.51000000e-01	1.23820857e-02	1.30375142e-04
7.52000000e-01	1.22589297e-02	1.29046727e-04
7.53000000e-01	1.24216392e-02	1.30900734e-04
7.54000000e-01	1.24048051e-02	1.30432938e-04
7.55000000e-01	1.23878038e-02	1.30486793e-04
7.56000000e-01	1.22992759e-02	1.29707193e-04
7.57000000e-01	1.21350542e-02	1.28761921e-04
7.58000000e-01	1.22843859e-02	1.29283744e-04
7.59000000e-01	1.22739794e-02	1.29122725e-04
7.60000000e-01	1.23104781e-02	1.28982909e-04
7.61000000e-01	1.23036533e-02	1.28911104e-04
7.62000000e-01	1.22157872e-02	1.28171052e-04
7.63000000e-01	1.22753690e-02	1.28762446e-04
7.64000000e-01	1.22923925e-02	1.28344516e-04
7.65000000e-01	1.21739130e-02	1.27498582e-04
7.66000000e-01	1.21479863e-02	1.26786894e-04
7.67000000e-01	1.22498022e-02	1.28141192e-04
7.68000000e-01	1.21551583e-02	1.26852861e-04
7.69000000e-01	1.21665063e-02	1.27520065e-04
7.70000000e-01	1.21811586e-02	1.27620143e-04
7.71000000e-01	1.20460711e-02	1.26031734e-04
7.72000000e-01	1.22184467e-02	1.32122774e-04
7.73000000e-01	1.22445020e-02	1.36107257e-04
7.74000000e-01	1.21410682e-02	1.37667371e-04
7.75000000e-01	1.20461672e-02	1.39433959e-04
7.76000000e-01	1.19342364e-02	1.39913162e-04
7.77000000e-01	1.21338290e-02	1.43935111e-04
7.78000000e-01	1.20715428e-02	1.45564192e-04
7.79000000e-01	1.21827355e-02	1.48504101e-04
7.80000000e-01	1.19761978e-02	1.47594381e-04
7.81000000e-01	1.20531201e-02	1.50263582e-04
7.82000000e-01	1.20038654e-02	1.51491655e-04
7.83000000e-01	1.19902930e-02	1.52900900e-04
7.84000000e-01	1.19549570e-02	1.54002171e-04
7.85000000e-01	1.19916004e-02	1.56494322e-04
7.86000000e-01	1.19842174e-02	1.58101739e-04
7.87000000e-01	1.19304868e-02	1.58494706e-04
7.88000000e-01	1.20642898e-02	1.61630161e-04
7.89000000e-01	1.19245771e-02	1.61611756e-04
7.90000000e-01	1.19453940e-02	1.63219625e-04
7.91000000e-01	1.19380214e-02	1.65067793e-04
7.92000000e-01	1.18137886e-02	1.64700246e-04
7.93000000e-01	1.19225910e-02	1.68660154e-04
7.94000000e-01	1.18930735e-02	1.69349379e-04
7.95000000e-01	1.20183369e-02	1.72519870e-04
7.96000000e-01	1.19828154e-02	1.74492531e-04
7.97000000e-01	1.18819831e-02	1.74914594e-04
7.98000000e-01	1.16341994e-02	1.73041888e-04
7.99000000e-01	1.18028098e-02	1.77212311e-04
8.00000000e-01	1.19133539e-02	1.80394021e-04
8.01000000e-01	1.17948886e-02	1.80618039e-04
8.02000000e-01	1.18800506e-02	1.84225989e-04
8.03000000e-01	1.15626101e-02	1.81296793e-04
8.04000000e-01	1.17424507e-02	1.86444677e-04
8.05000000e-01	1.15865310e-02	1.85375882e-04
8.06000000e-01	1.15370248e-02	1.87565288e-04
8.07000000e-01	1.18557516e-02	1.92879487e-04
8.08000000e-01	1.17183384e-02	1.93623526e-04
8.09000000e-01	1.15056364e-02	1.92410658e-04
8.10000000e-01	1.18375920e-02	1.99795811e-04
8.11000000e-01	1.16696113e-02	1.98621029e-04
8.12000000e-01	1.15227047e-02	1.99844063e-04
8.13000000e-01	1.14803297e-02	2.01232298e-04
8.14000000e-01	1.16757153e-02	2.05942316e-04
8.15000000e-01	1.16953758e-02	2.09763607e-04
8.16000000e-01	1.17681973e-02	2.12596466e-04
8.17000000e-01	1.14803149e-02	2.10309687e-04
8.18000000e-01	1.15564330e-02	2.14923209e-04
8.19000000e-01	1.15553392e-02	2.18109724e-04
8.20000000e-01	1.14869166e-02	2.19513616e-04
8.21000000e-01	1.16078318e-02	2.22839497e-04
8.22000000e-01	1.16317205e-02	2.27950524e-04
8.23000000e-01	1.14698743e-02	2.27404749e-04
8.24000000e-01	1.15821809e-02	2.32847050e-04
8.25000000e-01	1.13343969e-02	2.31704009e-04
8.26000000e-01	1.16654098e-02	2.41023993e-04
8.27000000e-01	1.12867378e-02	2.37440589e-04
8.28000000e-01	1.13888861e-02	2.42692953e-04
8.29000000e-01	1.15039764e-02	2.49524755e-04
8.30000000e-01	1.14531587e-02	2.51471131e-04
8.31000000e-01	1.09992128e-02	2.46346581e-04
8.32000000e-01	1.13089817e-02	2.57150787e-04
8.33000000e-01	1.12308992e-02	2.60917514e-04
8.34000000e-01	1.11818752e-02	2.64018276e-04
8.35000000e-01	1.12951955e-02	2.70989886e-04
8.36000000e-01	1.14547369e-02	2.78873721e-04
8.37000000e-01	1.08684812e-02	2.71612809e-04
8.38000000e-01	1.14775280e-02	2.91745491e-04
8.39000000e-01	1.11490728e-02	2.89641479e-04
8.40000000e-01	1.13875511e-02	2.97497861e-04
8.41000000e-01	1.13771894e-02	3.06918425e-04
8.42000000e-01	1.13424800e-02	3.14533353e-04
8.43000000e-01	1.07834879e-02	3.08895899e-04
8.44000000e-01	1.10399636e-02	3.22369396e-04
8.45000000e-01	1.09109994e-02	3.26208043e-04
8.46000000e-01	1.12455674e-02	3.43662805e-04
8.47000000e-01	1.08829596e-02	3.42769156e-04
8.48000000e-01	1.11069618e-02	3.60952825e-04
8.49000000e-01	1.09164851e-02	3.63266026e-04
8.50000000e-01	1.11562341e-02	3.91084986e-04
8.51000000e-01	1.10275938e-02	4.04896837e-04
8.52000000e-01	1.11775285e-02	4.18591745e-04
8.53000000e-01	1.14829767e-02	4.45539578e-04
8.54000000e-01	1.07773540e-02	4.41520503e-04
8.55000000e-01	1.07644529e-02	4.57437022e-04
8.56000000e-01	1.07920047e-02	4.73203374e-04
8.57000000e-01	1.11175296e-02	4.93367679e-04
8.58000000e-01	1.12453817e-02	5.18532695e-04
8.59000000e-01	1.10884957e-02	5.23771840e-04
8.60000000e-01	1.03972369e-02	5.24385938e-04
8.61000000e-01	1.11092564e-02	5.52894075e-04
8.62000000e-01	1.14428031e-02	5.96855059e-04
8.63000000e-01	1.04470741e-02	5.73261212e-04
8.64000000e-01	1.04544909e-02	5.97850319e-04
8.65000000e-01	1.04367011e-02	6.20536632e-04
8.66000000e-01	1.07770877e-02	6.74390739e-04
8.67000000e-01	1.09530510e-02	7.30369543e-04
8.68000000e-01	1.03569246e-02	7.46111787e-04
8.69000000e-01	1.05574294e-02	8.09386594e-04
8.70000000e-01	1.05189608e-02	8.89610971e-04
8.71000000e-01	1.15790591e-02	1.05925171e-03
8.72000000e-01	1.05612489e-02	1.10375334e-03
8.73000000e-01	1.04693644e-02	1.28161859e-03
8.74000000e-01	1.21529581e-02	1.94579169e-03
8.75000000e-01	1.15363560e-02	3.60026657e-03
