% Filename : SEC6_00037_00014.h5
% Date & Time : 30-Oct-2025 17:40:42
% X-ray Energy (keV) : 13.30001
% Exposure Time (s) : 0.500
% Beam Center : 1461.24000, 208.98300
% Sample to Detector Distance (SDD) (mm) : 1990.750
% Detector Pixel Size (mm) : 0.075
% Photodiode Value : 141340.000
% I0 of Sample : 0
% I0 of Standard : 1
% 
% q(A^-1)   I(q)    I(q)_SE
0.00000000e+00	7.66945456e-03	4.42795366e-03
2.50000000e-04	0.00000000e+00	0.00000000e+00
5.00000000e-04	0.00000000e+00	0.00000000e+00
7.50000000e-04	0.00000000e+00	0.00000000e+00
1.00000000e-03	0.00000000e+00	0.00000000e+00
1.25000000e-03	0.00000000e+00	0.00000000e+00
1.50000000e-03	0.00000000e+00	0.00000000e+00
1.75000000e-03	0.00000000e+00	0.00000000e+00
2.00000000e-03	0.00000000e+00	0.00000000e+00
2.25000000e-03	0.00000000e+00	0.00000000e+00
2.50000000e-03	0.00000000e+00	0.00000000e+00
2.75000000e-03	0.00000000e+00	0.00000000e+00
3.00000000e-03	0.00000000e+00	0.00000000e+00
3.25000000e-03	2.66438154e+02	1.67567982e+02
3.50000000e-03	1.82663192e+02	4.32056255e+01
3.75000000e-03	1.56970876e+02	2.88108886e+01
4.00000000e-03	1.28945312e+02	2.16771742e+01
4.25000000e-03	9.15370463e+01	1.27297067e+01
4.50000000e-03	7.62996480e+01	9.36167821e+00
4.75000000e-03	6.40230428e+01	7.10648851e+00
5.00000000e-03	5.14696896e+01	5.46720185e+00
5.25000000e-03	4.22754525e+01	4.39398804e+00
5.50000000e-03	3.52813812e+01	3.55423897e+00
5.75000000e-03	3.03928688e+01	3.00314015e+00
6.00000000e-03	2.51680260e+01	2.36707698e+00
6.25000000e-03	2.19211034e+01	2.03688556e+00
6.50000000e-03	1.89252770e+01	1.71677524e+00
6.75000000e-03	1.60180492e+01	1.43297573e+00
7.00000000e-03	1.40744792e+01	1.22796189e+00
7.25000000e-03	1.22796838e+01	1.03798644e+00
7.50000000e-03	1.11209069e+01	9.48559295e-01
7.75000000e-03	9.63213522e+00	7.90633950e-01
8.00000000e-03	8.52149621e+00	6.89065232e-01
8.25000000e-03	7.78456156e+00	6.06617189e-01
8.50000000e-03	6.86025916e+00	5.26653138e-01
8.75000000e-03	6.13218732e+00	4.65162797e-01
9.00000000e-03	5.62862714e+00	4.25653065e-01
9.25000000e-03	4.98631140e+00	3.65480217e-01
9.50000000e-03	4.53696194e+00	3.28194083e-01
9.75000000e-03	4.10373150e+00	2.96206596e-01
1.00000000e-02	3.77015169e+00	2.65768184e-01
1.02500000e-02	3.46060008e+00	2.43985419e-01
1.05000000e-02	3.15110923e+00	2.12154394e-01
1.07500000e-02	2.90250030e+00	1.95103943e-01
1.10000000e-02	2.68189956e+00	1.76033368e-01
1.12500000e-02	2.50999889e+00	1.67301501e-01
1.15000000e-02	2.31565208e+00	1.49704224e-01
1.17500000e-02	2.14510144e+00	1.35673382e-01
1.20000000e-02	2.02101524e+00	1.27667453e-01
1.22500000e-02	1.88292972e+00	1.16322087e-01
1.25000000e-02	1.77055990e+00	1.08918479e-01
1.27500000e-02	1.65767108e+00	1.00238048e-01
1.30000000e-02	1.53097321e+00	9.16746281e-02
1.32500000e-02	1.43067168e+00	8.39132006e-02
1.35000000e-02	1.35290909e+00	7.94106167e-02
1.37500000e-02	1.27051729e+00	7.44850259e-02
1.40000000e-02	1.20660451e+00	6.96510725e-02
1.42500000e-02	1.13822374e+00	6.42773398e-02
1.45000000e-02	1.07379434e+00	6.04199424e-02
1.47500000e-02	1.02088103e+00	5.71373355e-02
1.50000000e-02	9.76557362e-01	5.42098288e-02
1.52500000e-02	9.27745550e-01	5.10057246e-02
1.55000000e-02	8.73201594e-01	4.72718158e-02
1.57500000e-02	8.23582980e-01	4.43703119e-02
1.60000000e-02	7.87933928e-01	4.17239484e-02
1.62500000e-02	7.60171677e-01	4.07972722e-02
1.65000000e-02	7.06582385e-01	3.69680607e-02
1.67500000e-02	6.77948794e-01	3.50027262e-02
1.70000000e-02	6.59094921e-01	3.39954007e-02
1.72500000e-02	6.27813368e-01	3.22494768e-02
1.75000000e-02	5.99994354e-01	3.06024411e-02
1.77500000e-02	5.74078307e-01	2.87252981e-02
1.80000000e-02	5.51606523e-01	2.77078540e-02
1.82500000e-02	5.29573215e-01	2.58517394e-02
1.85000000e-02	5.03719925e-01	2.53406744e-02
1.87500000e-02	4.85061132e-01	2.37007740e-02
1.90000000e-02	4.67113269e-01	2.28076635e-02
1.92500000e-02	4.46516419e-01	2.13853645e-02
1.95000000e-02	4.33757334e-01	2.07207338e-02
1.97500000e-02	4.19298971e-01	2.01470374e-02
2.00000000e-02	4.02625313e-01	1.90714309e-02
2.02500000e-02	3.86415880e-01	1.82224984e-02
2.05000000e-02	3.71488355e-01	1.71614370e-02
2.07500000e-02	3.59765422e-01	1.66485211e-02
2.10000000e-02	3.41513985e-01	1.59177135e-02
2.12500000e-02	3.32288808e-01	1.55024360e-02
2.15000000e-02	3.24558024e-01	1.50456059e-02
2.17500000e-02	3.10299483e-01	1.44837687e-02
2.20000000e-02	2.99627815e-01	1.40823808e-02
2.22500000e-02	2.90378459e-01	1.35699005e-02
2.25000000e-02	2.83999518e-01	1.33537563e-02
2.27500000e-02	2.74187998e-01	1.26830544e-02
2.30000000e-02	2.61305794e-01	1.22868335e-02
2.32500000e-02	2.53548469e-01	1.17694059e-02
2.35000000e-02	2.45958931e-01	1.15582222e-02
2.37500000e-02	2.34434329e-01	1.09670506e-02
2.40000000e-02	2.29188959e-01	1.07830204e-02
2.42500000e-02	2.25599132e-01	1.04989239e-02
2.45000000e-02	2.18358380e-01	1.02026576e-02
2.47500000e-02	2.10319251e-01	9.70838368e-03
2.50000000e-02	2.07550465e-01	9.59076813e-03
2.52500000e-02	1.98991143e-01	9.30178125e-03
2.55000000e-02	1.95124064e-01	8.90516630e-03
2.57500000e-02	1.87820924e-01	8.61971727e-03
2.60000000e-02	1.87071823e-01	8.53358809e-03
2.62500000e-02	1.80127531e-01	8.33411959e-03
2.65000000e-02	1.74154779e-01	7.96125192e-03
2.67500000e-02	1.69769917e-01	7.72266034e-03
2.70000000e-02	1.66553078e-01	7.59382558e-03
2.72500000e-02	1.60249602e-01	7.22912720e-03
2.75000000e-02	1.57875270e-01	7.23558763e-03
2.77500000e-02	1.54253453e-01	7.06433092e-03
2.80000000e-02	1.49063887e-01	6.65390702e-03
2.82500000e-02	1.47192508e-01	6.57770285e-03
2.85000000e-02	1.45288216e-01	6.51274211e-03
2.87500000e-02	1.42277357e-01	6.39948503e-03
2.90000000e-02	1.37610693e-01	6.22601805e-03
2.92500000e-02	1.34610971e-01	5.90147488e-03
2.95000000e-02	1.28743903e-01	5.78663904e-03
2.97500000e-02	1.28549768e-01	5.70271590e-03
3.00000000e-02	1.27839846e-01	5.69966830e-03
3.02500000e-02	1.23311395e-01	5.48442195e-03
3.05000000e-02	1.21992097e-01	5.29235163e-03
3.07500000e-02	1.17940046e-01	5.20390217e-03
3.10000000e-02	1.14187056e-01	5.02666023e-03
3.12500000e-02	1.12948466e-01	5.03106122e-03
3.15000000e-02	1.10631196e-01	4.84838377e-03
3.17500000e-02	1.09440987e-01	4.72480676e-03
3.20000000e-02	1.07956098e-01	4.73946748e-03
3.22500000e-02	1.04926448e-01	4.59047555e-03
3.25000000e-02	1.03728468e-01	4.55536666e-03
3.27500000e-02	1.01698360e-01	4.39897339e-03
3.30000000e-02	9.96643490e-02	4.27879197e-03
3.32500000e-02	9.72673037e-02	4.19501384e-03
3.35000000e-02	9.65625520e-02	4.21789775e-03
3.37500000e-02	9.30526918e-02	4.00728333e-03
3.40000000e-02	9.12379266e-02	3.91990354e-03
3.42500000e-02	8.89919103e-02	3.78581936e-03
3.45000000e-02	8.63055980e-02	3.70915641e-03
3.47500000e-02	8.65170441e-02	3.69309876e-03
3.50000000e-02	8.53720182e-02	3.63115624e-03
3.52500000e-02	8.55273311e-02	3.64519949e-03
3.55000000e-02	8.35026220e-02	3.50741398e-03
3.57500000e-02	8.09069550e-02	3.43151722e-03
3.60000000e-02	7.92245627e-02	3.36161091e-03
3.62500000e-02	7.74856124e-02	3.30020227e-03
3.65000000e-02	7.64145454e-02	3.22941970e-03
3.67500000e-02	7.47177073e-02	3.13864373e-03
3.70000000e-02	7.47016231e-02	3.13347441e-03
3.72500000e-02	7.23313081e-02	3.02843793e-03
3.75000000e-02	7.17105887e-02	3.01476910e-03
3.77500000e-02	6.98868177e-02	2.91201191e-03
3.80000000e-02	6.87420078e-02	2.87055638e-03
3.82500000e-02	6.76167027e-02	2.78814194e-03
3.85000000e-02	6.81500769e-02	2.83989735e-03
3.87500000e-02	6.73291941e-02	2.77623337e-03
3.90000000e-02	6.64803403e-02	2.76158990e-03
3.92500000e-02	6.63357013e-02	2.71353326e-03
3.95000000e-02	6.42194399e-02	2.64521322e-03
3.97500000e-02	6.35182805e-02	2.61161074e-03
4.00000000e-02	6.19956478e-02	2.54788210e-03
4.02500000e-02	6.02919911e-02	2.48422563e-03
4.05000000e-02	6.14923919e-02	2.50772235e-03
4.07500000e-02	5.94672278e-02	2.41631594e-03
4.10000000e-02	5.78909595e-02	2.37931311e-03
4.12500000e-02	5.77297012e-02	2.35058678e-03
4.15000000e-02	5.74139007e-02	2.31727649e-03
4.17500000e-02	5.79794501e-02	2.34878983e-03
4.20000000e-02	5.61262667e-02	2.26388099e-03
4.22500000e-02	5.48799726e-02	2.19724143e-03
4.25000000e-02	5.44142436e-02	2.19755899e-03
4.27500000e-02	5.49893680e-02	2.21214742e-03
4.30000000e-02	5.28798283e-02	2.12462879e-03
4.32500000e-02	5.18839653e-02	2.07285759e-03
4.35000000e-02	5.19905143e-02	2.08611631e-03
4.37500000e-02	5.13372150e-02	2.04305285e-03
4.40000000e-02	5.13920793e-02	2.04870428e-03
4.42500000e-02	5.14935769e-02	2.04419948e-03
4.45000000e-02	5.01617271e-02	1.98069799e-03
4.47500000e-02	5.00344052e-02	1.97862671e-03
4.50000000e-02	4.92830107e-02	1.94326612e-03
4.52500000e-02	4.74496141e-02	1.87203864e-03
4.55000000e-02	4.81593118e-02	1.89275120e-03
4.57500000e-02	4.79524610e-02	1.87282795e-03
4.60000000e-02	4.68657434e-02	1.84500330e-03
4.62500000e-02	4.63083239e-02	1.82504467e-03
4.65000000e-02	4.64800494e-02	1.80470721e-03
4.67500000e-02	4.50216048e-02	1.76000592e-03
4.70000000e-02	4.66452343e-02	1.80972230e-03
4.72500000e-02	4.44316387e-02	1.73249580e-03
4.75000000e-02	4.44417864e-02	1.74578246e-03
4.77500000e-02	4.36101225e-02	1.68336526e-03
4.80000000e-02	4.35086440e-02	1.68208882e-03
4.82500000e-02	4.23904671e-02	1.62911946e-03
4.85000000e-02	4.27125719e-02	1.66472230e-03
4.87500000e-02	4.21382888e-02	1.63079812e-03
4.90000000e-02	4.15496279e-02	1.59092331e-03
4.92500000e-02	4.25010816e-02	1.62164468e-03
4.95000000e-02	4.11734233e-02	1.57778105e-03
4.97500000e-02	4.05795425e-02	1.56905168e-03
5.00000000e-02	4.13132953e-02	1.58203929e-03
5.02500000e-02	4.01556723e-02	1.52528732e-03
5.05000000e-02	4.06357550e-02	1.54235228e-03
5.07500000e-02	3.98430221e-02	1.51728381e-03
5.10000000e-02	3.97666074e-02	1.51026606e-03
5.12500000e-02	3.94646459e-02	1.49627023e-03
5.15000000e-02	3.88259519e-02	1.45724413e-03
5.17500000e-02	3.83830109e-02	1.45460569e-03
5.20000000e-02	3.78426609e-02	1.42934283e-03
5.22500000e-02	3.78674589e-02	1.43243073e-03
5.25000000e-02	3.80921257e-02	1.42654470e-03
5.27500000e-02	3.74754361e-02	1.39910197e-03
5.30000000e-02	3.75142473e-02	1.41339341e-03
5.32500000e-02	3.76142579e-02	1.41213273e-03
5.35000000e-02	3.74695776e-02	1.40072196e-03
5.37500000e-02	3.68543996e-02	1.36994348e-03
5.40000000e-02	3.65402985e-02	1.36499673e-03
5.42500000e-02	3.59336764e-02	1.33336161e-03
5.45000000e-02	3.57085653e-02	1.32823627e-03
5.47500000e-02	3.55140679e-02	1.31042190e-03
5.50000000e-02	3.56676032e-02	1.32193294e-03
5.52500000e-02	3.45395966e-02	1.27596093e-03
5.55000000e-02	3.53819231e-02	1.30307816e-03
5.57500000e-02	3.41660122e-02	1.26924398e-03
5.60000000e-02	3.40328642e-02	1.25120846e-03
5.62500000e-02	3.36789921e-02	1.24857395e-03
5.65000000e-02	3.44120368e-02	1.25452686e-03
5.67500000e-02	3.36950266e-02	1.24325498e-03
5.70000000e-02	3.28392995e-02	1.20342073e-03
5.72500000e-02	3.34836502e-02	1.23718574e-03
5.75000000e-02	3.29439427e-02	1.20695868e-03
5.77500000e-02	3.30405676e-02	1.19623707e-03
5.80000000e-02	3.34951984e-02	1.21999593e-03
5.82500000e-02	3.27697468e-02	1.18982361e-03
5.85000000e-02	3.23904100e-02	1.17137416e-03
5.87500000e-02	3.21164826e-02	1.16503628e-03
5.90000000e-02	3.18291130e-02	1.16128343e-03
5.92500000e-02	3.20198115e-02	1.15501661e-03
5.95000000e-02	3.20838399e-02	1.15616043e-03
5.97500000e-02	3.17626084e-02	1.15106703e-03
6.00000000e-02	3.11292572e-02	1.12130744e-03
6.02500000e-02	3.18297061e-02	1.13729331e-03
6.05000000e-02	3.08086563e-02	1.10911990e-03
6.07500000e-02	3.05340990e-02	1.09537953e-03
6.10000000e-02	3.10636659e-02	1.11821566e-03
6.12500000e-02	3.03725644e-02	1.08981364e-03
6.15000000e-02	3.08243013e-02	1.09798720e-03
6.17500000e-02	3.04560993e-02	1.08768282e-03
6.20000000e-02	3.00375083e-02	1.06991621e-03
6.22500000e-02	2.98095364e-02	1.06087934e-03
6.25000000e-02	2.95880956e-02	1.04773815e-03
6.27500000e-02	2.97154844e-02	1.04608786e-03
6.30000000e-02	2.94370226e-02	1.04429781e-03
6.32500000e-02	2.89507995e-02	1.02348994e-03
6.35000000e-02	2.95287459e-02	1.04368826e-03
6.37500000e-02	2.94317714e-02	1.04458812e-03
6.40000000e-02	2.92444513e-02	1.03710875e-03
6.42500000e-02	2.93501237e-02	1.03139506e-03
6.45000000e-02	2.94581288e-02	1.03050042e-03
6.47500000e-02	2.87926573e-02	1.01189029e-03
6.50000000e-02	2.82632366e-02	9.97656212e-04
6.52500000e-02	2.85461385e-02	9.98938590e-04
6.55000000e-02	2.80647051e-02	9.83295942e-04
6.57500000e-02	2.82648858e-02	9.87630521e-04
6.60000000e-02	2.71426810e-02	9.52063514e-04
6.62500000e-02	2.77719279e-02	9.72110993e-04
6.65000000e-02	2.78903747e-02	9.66020289e-04
6.67500000e-02	2.79858121e-02	9.72873835e-04
6.70000000e-02	2.78891776e-02	9.71549519e-04
6.72500000e-02	2.72039449e-02	9.51214560e-04
6.75000000e-02	2.74906239e-02	9.52057008e-04
6.77500000e-02	2.74829425e-02	9.50654248e-04
6.80000000e-02	2.73977364e-02	9.48900847e-04
6.82500000e-02	2.76484794e-02	9.50588472e-04
6.85000000e-02	2.67461907e-02	9.23654658e-04
6.87500000e-02	2.68495041e-02	9.26005286e-04
6.90000000e-02	2.62260299e-02	9.06340602e-04
6.92500000e-02	2.74625381e-02	9.33141323e-04
6.95000000e-02	2.68882614e-02	9.24448608e-04
6.97500000e-02	2.62570532e-02	9.07013201e-04
7.00000000e-02	2.67883621e-02	9.15098011e-04
7.02500000e-02	2.67355933e-02	9.06455272e-04
7.05000000e-02	2.61465753e-02	8.94027387e-04
7.07500000e-02	2.66619195e-02	9.12798701e-04
7.10000000e-02	2.55837872e-02	8.69693693e-04
7.12500000e-02	2.63035771e-02	8.94554834e-04
7.15000000e-02	2.65294242e-02	9.00000941e-04
7.17500000e-02	2.61085555e-02	8.81942698e-04
7.20000000e-02	2.64214385e-02	8.98025097e-04
7.22500000e-02	2.57973307e-02	8.76277676e-04
7.25000000e-02	2.60393031e-02	8.78846266e-04
7.27500000e-02	2.57139508e-02	8.69685101e-04
7.30000000e-02	2.64415251e-02	8.92350097e-04
7.32500000e-02	2.63547860e-02	8.80453257e-04
7.35000000e-02	2.50369264e-02	8.49554218e-04
7.37500000e-02	2.52405545e-02	8.45967002e-04
7.40000000e-02	2.57375185e-02	8.62256253e-04
7.42500000e-02	2.56587256e-02	8.60523921e-04
7.45000000e-02	2.51050256e-02	8.35323418e-04
7.47500000e-02	2.56070985e-02	8.51307321e-04
7.50000000e-02	2.52559809e-02	8.39380885e-04
7.52500000e-02	2.51868302e-02	8.47992096e-04
7.55000000e-02	2.51753547e-02	8.35259772e-04
7.57500000e-02	2.52906284e-02	8.36786353e-04
7.60000000e-02	2.43060008e-02	8.10585391e-04
7.62500000e-02	2.51162130e-02	8.34501258e-04
7.65000000e-02	2.53981145e-02	8.39109595e-04
7.67500000e-02	2.48471540e-02	8.17610382e-04
7.70000000e-02	2.42909533e-02	8.02313417e-04
7.72500000e-02	2.47370425e-02	8.33871214e-04
7.75000000e-02	2.44431146e-02	8.34076485e-04
7.77500000e-02	2.47169106e-02	8.41848225e-04
7.80000000e-02	2.42021081e-02	8.29418551e-04
7.82500000e-02	2.44077338e-02	8.37932326e-04
7.85000000e-02	2.44548382e-02	8.46758127e-04
7.87500000e-02	2.48894641e-02	8.58213329e-04
7.90000000e-02	2.43616597e-02	8.47604532e-04
7.92500000e-02	2.43952255e-02	8.51217648e-04
7.95000000e-02	2.41994608e-02	8.42750188e-04
7.97500000e-02	2.47855009e-02	8.74597495e-04
8.00000000e-02	2.45268288e-02	8.50601007e-04
8.02500000e-02	2.42250061e-02	8.58817391e-04
8.05000000e-02	2.36865988e-02	8.37646308e-04
8.07500000e-02	2.46519755e-02	8.73058710e-04
8.10000000e-02	2.40653530e-02	8.55874081e-04
8.12500000e-02	2.34868729e-02	8.36562985e-04
8.15000000e-02	2.45246774e-02	8.65934161e-04
8.17500000e-02	2.37463018e-02	8.48917539e-04
8.20000000e-02	2.33851714e-02	8.41283399e-04
8.22500000e-02	2.34051099e-02	8.41784071e-04
8.25000000e-02	2.34321307e-02	8.40072858e-04
8.27500000e-02	2.41433896e-02	8.65310998e-04
8.30000000e-02	2.34476966e-02	8.42045469e-04
8.32500000e-02	2.36629893e-02	8.51253540e-04
8.35000000e-02	2.38888513e-02	8.70969955e-04
8.37500000e-02	2.31108295e-02	8.29062937e-04
8.40000000e-02	2.35933164e-02	8.50461506e-04
8.42500000e-02	2.33309787e-02	8.49377019e-04
8.45000000e-02	2.35199844e-02	8.53156750e-04
8.47500000e-02	2.39904978e-02	8.69889250e-04
8.50000000e-02	2.35768884e-02	8.60515209e-04
8.52500000e-02	2.24506286e-02	8.22380525e-04
8.55000000e-02	2.37580123e-02	8.64383835e-04
8.57500000e-02	2.35022370e-02	8.59855886e-04
8.60000000e-02	2.26736225e-02	8.33601069e-04
8.62500000e-02	2.34407594e-02	8.55901709e-04
8.65000000e-02	2.29094318e-02	8.36800914e-04
8.67500000e-02	2.30934160e-02	8.42759048e-04
8.70000000e-02	2.34919464e-02	8.47223349e-04
8.72500000e-02	2.37116887e-02	8.37268345e-04
8.75000000e-02	2.33114785e-02	8.13079988e-04
8.77500000e-02	2.28786018e-02	7.92393994e-04
8.80000000e-02	2.37134305e-02	8.17232938e-04
8.82500000e-02	2.35775698e-02	8.17779605e-04
8.85000000e-02	2.33187777e-02	8.04001971e-04
8.87500000e-02	2.29923900e-02	7.75178666e-04
8.90000000e-02	2.30193184e-02	7.86241285e-04
8.92500000e-02	2.34672927e-02	7.90411816e-04
8.95000000e-02	2.34370177e-02	7.91698479e-04
8.97500000e-02	2.34077623e-02	7.83313365e-04
9.00000000e-02	2.27792368e-02	7.58125339e-04
9.02500000e-02	2.25849994e-02	7.56496129e-04
9.05000000e-02	2.34297299e-02	7.81174615e-04
9.07500000e-02	2.26335838e-02	7.59074116e-04
9.10000000e-02	2.28812991e-02	7.56757999e-04
9.12500000e-02	2.31775211e-02	7.60594223e-04
9.15000000e-02	2.25946422e-02	7.49276566e-04
9.17500000e-02	2.32822776e-02	7.71878101e-04
9.20000000e-02	2.28066239e-02	7.48521050e-04
9.22500000e-02	2.29099483e-02	7.50029294e-04
9.25000000e-02	2.25386154e-02	7.36984064e-04
9.27500000e-02	2.28504645e-02	7.48184626e-04
9.30000000e-02	2.28639866e-02	7.49201765e-04
9.32500000e-02	2.26374793e-02	7.43116517e-04
9.35000000e-02	2.27399115e-02	7.39381925e-04
9.37500000e-02	2.22835341e-02	7.27396744e-04
9.40000000e-02	2.25915695e-02	7.35406327e-04
9.42500000e-02	2.26852634e-02	7.30028171e-04
9.45000000e-02	2.29971043e-02	7.44323909e-04
9.47500000e-02	2.23764097e-02	7.18613385e-04
9.50000000e-02	2.17056583e-02	7.00545500e-04
9.52500000e-02	2.21832190e-02	7.14391590e-04
9.55000000e-02	2.24277916e-02	7.22251794e-04
9.57500000e-02	2.24824015e-02	7.17110817e-04
9.60000000e-02	2.26028726e-02	7.19225094e-04
9.62500000e-02	2.26211960e-02	7.15114055e-04
9.65000000e-02	2.25750687e-02	7.25464171e-04
9.67500000e-02	2.24014092e-02	7.11481937e-04
9.70000000e-02	2.24817062e-02	7.15763386e-04
9.72500000e-02	2.22029175e-02	7.03806747e-04
9.75000000e-02	2.25330136e-02	7.16826683e-04
9.77500000e-02	2.19915007e-02	6.93357738e-04
9.80000000e-02	2.21033486e-02	6.96321248e-04
9.82500000e-02	2.19221209e-02	6.97186963e-04
9.85000000e-02	2.16734138e-02	6.80120368e-04
9.87500000e-02	2.23483204e-02	6.97473777e-04
9.90000000e-02	2.20178859e-02	6.90984814e-04
9.92500000e-02	2.18693278e-02	6.93225568e-04
9.95000000e-02	2.20581791e-02	6.90384658e-04
9.97500000e-02	2.17787895e-02	6.79058358e-04
1.00000000e-01	2.16236529e-02	5.50497380e-04
1.00500000e-01	2.17965650e-02	4.82203162e-04
1.01000000e-01	2.16652307e-02	4.74274259e-04
1.01500000e-01	2.17220352e-02	4.76558971e-04
1.02000000e-01	2.19262632e-02	4.79077467e-04
1.02500000e-01	2.15539644e-02	4.68155568e-04
1.03000000e-01	2.15577500e-02	4.71827481e-04
1.03500000e-01	2.15410986e-02	4.65999555e-04
1.04000000e-01	2.16683486e-02	4.67419262e-04
1.04500000e-01	2.16072386e-02	4.67166345e-04
1.05000000e-01	2.11571631e-02	4.54481503e-04
1.05500000e-01	2.14467068e-02	4.60304456e-04
1.06000000e-01	2.11936318e-02	4.53318498e-04
1.06500000e-01	2.15143391e-02	4.57624275e-04
1.07000000e-01	2.11516362e-02	4.57802866e-04
1.07500000e-01	2.13977493e-02	4.70782803e-04
1.08000000e-01	2.16994158e-02	4.82193839e-04
1.08500000e-01	2.10157359e-02	4.69328904e-04
1.09000000e-01	2.15833046e-02	4.86344714e-04
1.09500000e-01	2.13021491e-02	4.82858586e-04
1.10000000e-01	2.13525723e-02	4.76791326e-04
1.10500000e-01	2.10499454e-02	4.62805572e-04
1.11000000e-01	2.13500592e-02	4.62159128e-04
1.11500000e-01	2.11147842e-02	4.52214021e-04
1.12000000e-01	2.14625022e-02	4.54719863e-04
1.12500000e-01	2.13487146e-02	4.47753128e-04
1.13000000e-01	2.12259796e-02	4.46387043e-04
1.13500000e-01	2.15341753e-02	4.51331697e-04
1.14000000e-01	2.14108979e-02	4.47899178e-04
1.14500000e-01	2.13478032e-02	4.45505404e-04
1.15000000e-01	2.10777600e-02	4.36663051e-04
1.15500000e-01	2.12007064e-02	4.39456610e-04
1.16000000e-01	2.12708437e-02	4.40883349e-04
1.16500000e-01	2.10359083e-02	4.33565230e-04
1.17000000e-01	2.08646358e-02	4.30421459e-04
1.17500000e-01	2.07000728e-02	4.24910820e-04
1.18000000e-01	2.12043728e-02	4.35628442e-04
1.18500000e-01	2.10660696e-02	4.27171306e-04
1.19000000e-01	2.11183365e-02	4.30666075e-04
1.19500000e-01	2.10053372e-02	4.27190597e-04
1.20000000e-01	2.12889441e-02	4.30719178e-04
1.20500000e-01	2.10026734e-02	4.24774560e-04
1.21000000e-01	2.09265390e-02	4.22029430e-04
1.21500000e-01	2.09524885e-02	4.22844161e-04
1.22000000e-01	2.09324260e-02	4.19653087e-04
1.22500000e-01	2.07497972e-02	4.17164951e-04
1.23000000e-01	2.05513497e-02	4.11558341e-04
1.23500000e-01	2.07262732e-02	4.12815308e-04
1.24000000e-01	2.08496148e-02	4.14957085e-04
1.24500000e-01	2.06314979e-02	4.08371793e-04
1.25000000e-01	2.11182397e-02	4.17940226e-04
1.25500000e-01	2.09069608e-02	4.14035993e-04
1.26000000e-01	2.10126871e-02	4.14143597e-04
1.26500000e-01	2.09818000e-02	4.12556751e-04
1.27000000e-01	2.08633212e-02	4.09091235e-04
1.27500000e-01	2.04578583e-02	4.03463670e-04
1.28000000e-01	2.08324092e-02	4.07868860e-04
1.28500000e-01	2.06793782e-02	4.04860937e-04
1.29000000e-01	2.07935720e-02	4.06460843e-04
1.29500000e-01	2.10004066e-02	4.08580241e-04
1.30000000e-01	2.04576582e-02	3.97748328e-04
1.30500000e-01	2.07038264e-02	4.01167170e-04
1.31000000e-01	2.06461850e-02	3.99042626e-04
1.31500000e-01	2.07262548e-02	4.00394469e-04
1.32000000e-01	2.06910469e-02	3.98501492e-04
1.32500000e-01	2.03539592e-02	3.92185345e-04
1.33000000e-01	2.08406830e-02	3.98865163e-04
1.33500000e-01	2.08467163e-02	3.95912115e-04
1.34000000e-01	2.05945174e-02	3.94240100e-04
1.34500000e-01	2.06815426e-02	3.93053351e-04
1.35000000e-01	2.08451382e-02	3.95541977e-04
1.35500000e-01	2.05604902e-02	3.89204882e-04
1.36000000e-01	2.06322943e-02	3.90530158e-04
1.36500000e-01	2.03422500e-02	3.84398309e-04
1.37000000e-01	2.05968969e-02	3.86608864e-04
1.37500000e-01	2.06862047e-02	3.87572163e-04
1.38000000e-01	2.09277368e-02	3.94115458e-04
1.38500000e-01	2.04318995e-02	3.83113403e-04
1.39000000e-01	2.06235932e-02	3.86056585e-04
1.39500000e-01	2.05499826e-02	3.84375846e-04
1.40000000e-01	2.02902879e-02	3.79147027e-04
1.40500000e-01	2.05245346e-02	3.83966698e-04
1.41000000e-01	2.01488842e-02	3.75836345e-04
1.41500000e-01	2.03256723e-02	3.79362182e-04
1.42000000e-01	2.03694501e-02	3.78413626e-04
1.42500000e-01	2.02299914e-02	3.78697985e-04
1.43000000e-01	2.02858624e-02	3.77325855e-04
1.43500000e-01	2.03669846e-02	3.78182315e-04
1.44000000e-01	2.01664327e-02	3.75238637e-04
1.44500000e-01	2.04153406e-02	3.75391821e-04
1.45000000e-01	2.06505791e-02	3.81568163e-04
1.45500000e-01	2.03658133e-02	3.73939617e-04
1.46000000e-01	1.98048527e-02	3.64414453e-04
1.46500000e-01	2.00988540e-02	3.69778508e-04
1.47000000e-01	2.03962165e-02	3.72418366e-04
1.47500000e-01	2.01483317e-02	3.68739595e-04
1.48000000e-01	2.02013609e-02	3.68056820e-04
1.48500000e-01	2.01567319e-02	3.67553774e-04
1.49000000e-01	2.02401092e-02	3.67801138e-04
1.49500000e-01	2.03163681e-02	3.68132439e-04
1.50000000e-01	1.99604868e-02	3.61909288e-04
1.50500000e-01	2.00212841e-02	3.63815233e-04
1.51000000e-01	1.98314090e-02	3.59992958e-04
1.51500000e-01	2.00426851e-02	3.61106588e-04
1.52000000e-01	2.02988609e-02	3.63140917e-04
1.52500000e-01	2.01021848e-02	3.61636229e-04
1.53000000e-01	2.02243621e-02	3.63933001e-04
1.53500000e-01	2.01123316e-02	3.59649561e-04
1.54000000e-01	1.98588718e-02	3.54766594e-04
1.54500000e-01	2.01364609e-02	3.66248608e-04
1.55000000e-01	2.01738502e-02	3.71108098e-04
1.55500000e-01	2.03455615e-02	3.76332793e-04
1.56000000e-01	1.98827012e-02	3.72342870e-04
1.56500000e-01	1.99802321e-02	3.73043774e-04
1.57000000e-01	1.97333447e-02	3.68260805e-04
1.57500000e-01	1.98760088e-02	3.63408754e-04
1.58000000e-01	1.95670835e-02	3.53432758e-04
1.58500000e-01	1.97798865e-02	3.56050098e-04
1.59000000e-01	1.97566170e-02	3.53661180e-04
1.59500000e-01	1.97330927e-02	3.50871360e-04
1.60000000e-01	1.97713405e-02	3.52828887e-04
1.60500000e-01	1.95671965e-02	3.48530032e-04
1.61000000e-01	1.96812607e-02	3.50577171e-04
1.61500000e-01	1.96026888e-02	3.46645079e-04
1.62000000e-01	1.99266004e-02	3.52473063e-04
1.62500000e-01	1.98084147e-02	3.50230402e-04
1.63000000e-01	1.97024294e-02	3.46161627e-04
1.63500000e-01	1.97480118e-02	3.48507280e-04
1.64000000e-01	1.95459402e-02	3.43249011e-04
1.64500000e-01	1.96096489e-02	3.44032310e-04
1.65000000e-01	1.95966709e-02	3.42319587e-04
1.65500000e-01	1.94183956e-02	3.39386717e-04
1.66000000e-01	1.99063543e-02	3.45489303e-04
1.66500000e-01	1.95933561e-02	3.40156924e-04
1.67000000e-01	1.97371000e-02	3.42507627e-04
1.67500000e-01	1.95408139e-02	3.37995513e-04
1.68000000e-01	1.97652988e-02	3.42231199e-04
1.68500000e-01	1.98247960e-02	3.41048979e-04
1.69000000e-01	1.96967606e-02	3.40276193e-04
1.69500000e-01	1.95718761e-02	3.37369279e-04
1.70000000e-01	1.95541352e-02	3.37470847e-04
1.70500000e-01	1.95097901e-02	3.35554924e-04
1.71000000e-01	1.94446727e-02	3.33267717e-04
1.71500000e-01	1.96331811e-02	3.36835385e-04
1.72000000e-01	1.91970363e-02	3.27623312e-04
1.72500000e-01	1.95129185e-02	3.34307642e-04
1.73000000e-01	1.95789145e-02	3.33764887e-04
1.73500000e-01	1.95573392e-02	3.32107740e-04
1.74000000e-01	1.93951075e-02	3.29402320e-04
1.74500000e-01	1.92667449e-02	3.25935199e-04
1.75000000e-01	1.92495249e-02	3.24415925e-04
1.75500000e-01	1.93683234e-02	3.24303026e-04
1.76000000e-01	1.92979535e-02	3.24551969e-04
1.76500000e-01	1.93950801e-02	3.27024687e-04
1.77000000e-01	1.94180962e-02	3.25825477e-04
1.77500000e-01	1.95973692e-02	3.28862742e-04
1.78000000e-01	1.95379362e-02	3.26957684e-04
1.78500000e-01	1.93068073e-02	3.24964042e-04
1.79000000e-01	1.91657693e-02	3.21222333e-04
1.79500000e-01	1.92927703e-02	3.22892731e-04
1.80000000e-01	1.92219665e-02	3.21675617e-04
1.80500000e-01	1.93673049e-02	3.25072766e-04
1.81000000e-01	1.94937662e-02	3.26102442e-04
1.81500000e-01	1.93078203e-02	3.20756649e-04
1.82000000e-01	1.93799342e-02	3.22646673e-04
1.82500000e-01	1.89161003e-02	3.14912888e-04
1.83000000e-01	1.88843240e-02	3.15066264e-04
1.83500000e-01	1.93213165e-02	3.21239107e-04
1.84000000e-01	1.90562524e-02	3.16194928e-04
1.84500000e-01	1.91706730e-02	3.17436050e-04
1.85000000e-01	1.91530198e-02	3.15786022e-04
1.85500000e-01	1.90067156e-02	3.13630054e-04
1.86000000e-01	1.91188843e-02	3.15187701e-04
1.86500000e-01	1.92282891e-02	3.15055936e-04
1.87000000e-01	1.92963912e-02	3.18527543e-04
1.87500000e-01	1.90520000e-02	3.12102258e-04
1.88000000e-01	1.91593518e-02	3.13427552e-04
1.88500000e-01	1.88812385e-02	3.08496431e-04
1.89000000e-01	1.90447048e-02	3.10158772e-04
1.89500000e-01	1.89623135e-02	3.10484679e-04
1.90000000e-01	1.91521167e-02	3.10657114e-04
1.90500000e-01	1.89688620e-02	3.08557690e-04
1.91000000e-01	1.91266524e-02	3.11757697e-04
1.91500000e-01	1.88694408e-02	3.07630641e-04
1.92000000e-01	1.88276109e-02	3.04473041e-04
1.92500000e-01	1.89892178e-02	3.07959138e-04
1.93000000e-01	1.91377172e-02	3.08361134e-04
1.93500000e-01	1.89670390e-02	3.06857011e-04
1.94000000e-01	1.89916699e-02	3.06666332e-04
1.94500000e-01	1.87606937e-02	3.01974908e-04
1.95000000e-01	1.87939748e-02	3.03284319e-04
1.95500000e-01	1.87628928e-02	3.01691861e-04
1.96000000e-01	1.86156161e-02	2.98067091e-04
1.96500000e-01	1.88478206e-02	3.03474771e-04
1.97000000e-01	1.87528909e-02	3.01180712e-04
1.97500000e-01	1.87445632e-02	3.00345879e-04
1.98000000e-01	1.88052023e-02	3.01153618e-04
1.98500000e-01	1.86715639e-02	2.98617396e-04
1.99000000e-01	1.88684277e-02	3.00943475e-04
1.99500000e-01	1.86295872e-02	2.97277174e-04
2.00000000e-01	1.87201275e-02	2.97990460e-04
2.00500000e-01	1.88410890e-02	3.00468148e-04
2.01000000e-01	1.89122413e-02	3.00137740e-04
2.01500000e-01	1.86745429e-02	2.97029614e-04
2.02000000e-01	1.86270108e-02	2.95192166e-04
2.02500000e-01	1.85991826e-02	2.94241337e-04
2.03000000e-01	1.87961850e-02	2.96903529e-04
2.03500000e-01	1.85863946e-02	2.93950588e-04
2.04000000e-01	1.86819105e-02	2.94164723e-04
2.04500000e-01	1.89438204e-02	2.98792527e-04
2.05000000e-01	1.87669336e-02	2.94375621e-04
2.05500000e-01	1.88200996e-02	2.95252436e-04
2.06000000e-01	1.86101667e-02	2.91284902e-04
2.06500000e-01	1.85236720e-02	2.90984907e-04
2.07000000e-01	1.85760712e-02	2.90855664e-04
2.07500000e-01	1.86058928e-02	2.91193705e-04
2.08000000e-01	1.82833745e-02	2.86631004e-04
2.08500000e-01	1.88767881e-02	2.93522964e-04
2.09000000e-01	1.85203793e-02	2.89045384e-04
2.09500000e-01	1.85046152e-02	2.87137352e-04
2.10000000e-01	1.86339792e-02	2.89878350e-04
2.10500000e-01	1.87019652e-02	2.91084496e-04
2.11000000e-01	1.88225200e-02	2.90489830e-04
2.11500000e-01	1.84411579e-02	2.87731919e-04
2.12000000e-01	1.84768145e-02	2.85458447e-04
2.12500000e-01	1.87012902e-02	2.88420733e-04
2.13000000e-01	1.85498845e-02	2.85430814e-04
2.13500000e-01	1.87568601e-02	2.89763074e-04
2.14000000e-01	1.85009082e-02	2.86553810e-04
2.14500000e-01	1.84200505e-02	2.82979072e-04
2.15000000e-01	1.83360766e-02	2.82568206e-04
2.15500000e-01	1.84220279e-02	2.82039960e-04
2.16000000e-01	1.82471414e-02	2.80102247e-04
2.16500000e-01	1.84764175e-02	2.82507516e-04
2.17000000e-01	1.83015328e-02	2.84468146e-04
2.17500000e-01	1.82920644e-02	2.88385940e-04
2.18000000e-01	1.84640092e-02	2.92062494e-04
2.18500000e-01	1.81793695e-02	2.89909885e-04
2.19000000e-01	1.84201934e-02	2.96359774e-04
2.19500000e-01	1.83346061e-02	2.93906775e-04
2.20000000e-01	1.84971353e-02	2.98202422e-04
2.20500000e-01	1.86776397e-02	3.02020108e-04
2.21000000e-01	1.85516929e-02	2.99127011e-04
2.21500000e-01	1.84659946e-02	2.99719029e-04
2.22000000e-01	1.82749885e-02	2.96785282e-04
2.22500000e-01	1.82087881e-02	2.96132601e-04
2.23000000e-01	1.83500674e-02	2.99955954e-04
2.23500000e-01	1.82279748e-02	2.98227353e-04
2.24000000e-01	1.82622216e-02	2.98896385e-04
2.24500000e-01	1.83553505e-02	3.01859461e-04
2.25000000e-01	1.82246201e-02	3.00787418e-04
2.25500000e-01	1.81824669e-02	3.00651767e-04
2.26000000e-01	1.81962176e-02	3.01892849e-04
2.26500000e-01	1.81137899e-02	2.94975345e-04
2.27000000e-01	1.82593370e-02	2.94284105e-04
2.27500000e-01	1.83356961e-02	2.94197501e-04
2.28000000e-01	1.82371711e-02	2.91567982e-04
2.28500000e-01	1.84096932e-02	2.91859204e-04
2.29000000e-01	1.84236576e-02	2.91184477e-04
2.29500000e-01	1.83430939e-02	2.88004955e-04
2.30000000e-01	1.82846483e-02	2.86670755e-04
2.30500000e-01	1.83220939e-02	2.85222557e-04
2.31000000e-01	1.83423243e-02	2.87747762e-04
2.31500000e-01	1.79950832e-02	2.79929754e-04
2.32000000e-01	1.79881257e-02	2.79668748e-04
2.32500000e-01	1.80449353e-02	2.80320803e-04
2.33000000e-01	1.81803797e-02	2.81261246e-04
2.33500000e-01	1.80647915e-02	2.78993147e-04
2.34000000e-01	1.79581741e-02	2.76848487e-04
2.34500000e-01	1.83110550e-02	2.81593151e-04
2.35000000e-01	1.81009611e-02	2.78258028e-04
2.35500000e-01	1.82874561e-02	2.80431798e-04
2.36000000e-01	1.81600916e-02	2.76563686e-04
2.36500000e-01	1.82222746e-02	2.78749645e-04
2.37000000e-01	1.80099755e-02	2.75021072e-04
2.37500000e-01	1.82216938e-02	2.76602618e-04
2.38000000e-01	1.82922443e-02	2.77325213e-04
2.38500000e-01	1.80071353e-02	2.72850346e-04
2.39000000e-01	1.80711468e-02	2.73436427e-04
2.39500000e-01	1.83485854e-02	2.77101011e-04
2.40000000e-01	1.82563675e-02	2.75128673e-04
2.40500000e-01	1.79962333e-02	2.71233480e-04
2.41000000e-01	1.77819835e-02	2.67622730e-04
2.41500000e-01	1.79877307e-02	2.70559895e-04
2.42000000e-01	1.78939917e-02	2.68119664e-04
2.42500000e-01	1.79270017e-02	2.67886683e-04
2.43000000e-01	1.81042252e-02	2.70109089e-04
2.43500000e-01	1.80562132e-02	2.69649719e-04
2.44000000e-01	1.79347649e-02	2.66499127e-04
2.44500000e-01	1.79761625e-02	2.68040214e-04
2.45000000e-01	1.79852908e-02	2.66751892e-04
2.45500000e-01	1.78939092e-02	2.65486236e-04
2.46000000e-01	1.80878916e-02	2.67773589e-04
2.46500000e-01	1.82421115e-02	2.70061757e-04
2.47000000e-01	1.78225117e-02	2.64365887e-04
2.47500000e-01	1.77796154e-02	2.61602480e-04
2.48000000e-01	1.77714172e-02	2.61469590e-04
2.48500000e-01	1.79882711e-02	2.64667869e-04
2.49000000e-01	1.77934097e-02	2.61231308e-04
2.49500000e-01	1.78453404e-02	2.61548381e-04
2.50000000e-01	1.79916911e-02	2.63038439e-04
2.50500000e-01	1.78229412e-02	2.61311031e-04
2.51000000e-01	1.79103392e-02	2.62015403e-04
2.51500000e-01	1.77801055e-02	2.61352089e-04
2.52000000e-01	1.79074341e-02	2.61748237e-04
2.52500000e-01	1.75550311e-02	2.56830641e-04
2.53000000e-01	1.77708949e-02	2.59768862e-04
2.53500000e-01	1.77853406e-02	2.58181329e-04
2.54000000e-01	1.80100587e-02	2.62206854e-04
2.54500000e-01	1.76248287e-02	2.56265956e-04
2.55000000e-01	1.77328582e-02	2.58459324e-04
2.55500000e-01	1.77567844e-02	2.58985673e-04
2.56000000e-01	1.77723290e-02	2.56584125e-04
2.56500000e-01	1.78074535e-02	2.57292160e-04
2.57000000e-01	1.77802001e-02	2.57048451e-04
2.57500000e-01	1.78433239e-02	2.56553403e-04
2.58000000e-01	1.77898239e-02	2.56539169e-04
2.58500000e-01	1.77094815e-02	2.55966508e-04
2.59000000e-01	1.79746319e-02	2.58389964e-04
2.59500000e-01	1.78753603e-02	2.56459300e-04
2.60000000e-01	1.76598321e-02	2.53304882e-04
2.60500000e-01	1.79467067e-02	2.57590481e-04
2.61000000e-01	1.75772983e-02	2.51340438e-04
2.61500000e-01	1.77722951e-02	2.54760162e-04
2.62000000e-01	1.78727875e-02	2.56228532e-04
2.62500000e-01	1.73426363e-02	2.48776075e-04
2.63000000e-01	1.76995474e-02	2.52333831e-04
2.63500000e-01	1.76069831e-02	2.50581251e-04
2.64000000e-01	1.75877174e-02	2.49901521e-04
2.64500000e-01	1.75537732e-02	2.49500076e-04
2.65000000e-01	1.76951923e-02	2.51940427e-04
2.65500000e-01	1.76199141e-02	2.51822918e-04
2.66000000e-01	1.73926093e-02	2.47206720e-04
2.66500000e-01	1.73747670e-02	2.46596649e-04
2.67000000e-01	1.77012789e-02	2.49865464e-04
2.67500000e-01	1.77829305e-02	2.51260839e-04
2.68000000e-01	1.73038663e-02	2.45018462e-04
2.68500000e-01	1.75165734e-02	2.47148649e-04
2.69000000e-01	1.74472407e-02	2.45237061e-04
2.69500000e-01	1.73207891e-02	2.44145780e-04
2.70000000e-01	1.76256213e-02	2.47717344e-04
2.70500000e-01	1.73576079e-02	2.43128931e-04
2.71000000e-01	1.75097473e-02	2.45412510e-04
2.71500000e-01	1.75294363e-02	2.45669424e-04
2.72000000e-01	1.77065236e-02	2.47171350e-04
2.72500000e-01	1.75288658e-02	2.45582332e-04
2.73000000e-01	1.74817478e-02	2.44819948e-04
2.73500000e-01	1.74107764e-02	2.42619731e-04
2.74000000e-01	1.73235221e-02	2.41529549e-04
2.74500000e-01	1.74283782e-02	2.43443952e-04
2.75000000e-01	1.73828413e-02	2.42289622e-04
2.75500000e-01	1.73435858e-02	2.42864634e-04
2.76000000e-01	1.73192395e-02	2.40849439e-04
2.76500000e-01	1.74731508e-02	2.42936361e-04
2.77000000e-01	1.73577555e-02	2.40936051e-04
2.77500000e-01	1.75834007e-02	2.43685141e-04
2.78000000e-01	1.73043892e-02	2.40128116e-04
2.78500000e-01	1.76367984e-02	2.44897513e-04
2.79000000e-01	1.74975914e-02	2.42696757e-04
2.79500000e-01	1.76215653e-02	2.42508808e-04
2.80000000e-01	1.74429684e-02	2.41516753e-04
2.80500000e-01	1.71590925e-02	2.37018018e-04
2.81000000e-01	1.73971899e-02	2.39921301e-04
2.81500000e-01	1.74077059e-02	2.40520824e-04
2.82000000e-01	1.72309830e-02	2.38019540e-04
2.82500000e-01	1.73600116e-02	2.38504180e-04
2.83000000e-01	1.69716328e-02	2.32847926e-04
2.83500000e-01	1.75347933e-02	2.40365430e-04
2.84000000e-01	1.71313604e-02	2.34969721e-04
2.84500000e-01	1.73003582e-02	2.36879012e-04
2.85000000e-01	1.69521236e-02	2.32849683e-04
2.85500000e-01	1.70603626e-02	2.34204830e-04
2.86000000e-01	1.72509982e-02	2.36461988e-04
2.86500000e-01	1.72852893e-02	2.36137565e-04
2.87000000e-01	1.73081963e-02	2.36205147e-04
2.87500000e-01	1.71649392e-02	2.33374818e-04
2.88000000e-01	1.72641975e-02	2.34612135e-04
2.88500000e-01	1.72271493e-02	2.34148923e-04
2.89000000e-01	1.72489721e-02	2.34324179e-04
2.89500000e-01	1.72045936e-02	2.33776875e-04
2.90000000e-01	1.70906018e-02	2.32318275e-04
2.90500000e-01	1.71066093e-02	2.32032197e-04
2.91000000e-01	1.72406022e-02	2.33529353e-04
2.91500000e-01	1.71950141e-02	2.32010356e-04
2.92000000e-01	1.69516568e-02	2.29027641e-04
2.92500000e-01	1.71173560e-02	2.30876224e-04
2.93000000e-01	1.71921304e-02	2.31908596e-04
2.93500000e-01	1.72097187e-02	2.31660092e-04
2.94000000e-01	1.72899845e-02	2.32549220e-04
2.94500000e-01	1.72062029e-02	2.31568682e-04
2.95000000e-01	1.70957786e-02	2.29408258e-04
2.95500000e-01	1.69468769e-02	2.27750629e-04
2.96000000e-01	1.70124395e-02	2.27934442e-04
2.96500000e-01	1.68568090e-02	2.26012651e-04
2.97000000e-01	1.71259851e-02	2.30177559e-04
2.97500000e-01	1.71535613e-02	2.28542123e-04
2.98000000e-01	1.70562028e-02	2.28193500e-04
2.98500000e-01	1.69485512e-02	2.27081089e-04
2.99000000e-01	1.72200388e-02	2.29520900e-04
2.99500000e-01	1.69313100e-02	2.26597426e-04
3.00000000e-01	1.70691897e-02	2.28212323e-04
3.00500000e-01	1.71855059e-02	2.29247184e-04
3.01000000e-01	1.71261628e-02	2.27856750e-04
3.01500000e-01	1.71223581e-02	2.28129058e-04
3.02000000e-01	1.69324955e-02	2.26008773e-04
3.02500000e-01	1.68797622e-02	2.24085951e-04
3.03000000e-01	1.71428747e-02	2.28073512e-04
3.03500000e-01	1.70529002e-02	2.25739841e-04
3.04000000e-01	1.69089235e-02	2.25541874e-04
3.04500000e-01	1.70521456e-02	2.24965536e-04
3.05000000e-01	1.68892069e-02	2.23265933e-04
3.05500000e-01	1.70171267e-02	2.25049436e-04
3.06000000e-01	1.69456052e-02	2.22617693e-04
3.06500000e-01	1.69886327e-02	2.24373762e-04
3.07000000e-01	1.70149134e-02	2.23706834e-04
3.07500000e-01	1.69158297e-02	2.22976073e-04
3.08000000e-01	1.68631125e-02	2.21735680e-04
3.08500000e-01	1.70089558e-02	2.23351172e-04
3.09000000e-01	1.70037943e-02	2.24247738e-04
3.09500000e-01	1.68728747e-02	2.21342583e-04
3.10000000e-01	1.69533843e-02	2.22361653e-04
3.10500000e-01	1.71372142e-02	2.24524806e-04
3.11000000e-01	1.69355454e-02	2.21410700e-04
3.11500000e-01	1.69079126e-02	2.20923169e-04
3.12000000e-01	1.67445080e-02	2.18661787e-04
3.12500000e-01	1.68458888e-02	2.19761612e-04
3.13000000e-01	1.69516408e-02	2.20970561e-04
3.13500000e-01	1.67563066e-02	2.18176107e-04
3.14000000e-01	1.66447577e-02	2.16638794e-04
3.14500000e-01	1.67350575e-02	2.18033275e-04
3.15000000e-01	1.67580636e-02	2.18179807e-04
3.15500000e-01	1.67048090e-02	2.16675482e-04
3.16000000e-01	1.66908552e-02	2.17422157e-04
3.16500000e-01	1.67130479e-02	2.17683266e-04
3.17000000e-01	1.69217155e-02	2.19242491e-04
3.17500000e-01	1.68750309e-02	2.19082823e-04
3.18000000e-01	1.69009482e-02	2.18722065e-04
3.18500000e-01	1.66622096e-02	2.15558026e-04
3.19000000e-01	1.67230350e-02	2.16657865e-04
3.19500000e-01	1.67840077e-02	2.16833431e-04
3.20000000e-01	1.69921264e-02	2.18750376e-04
3.20500000e-01	1.67280644e-02	2.15978990e-04
3.21000000e-01	1.65190505e-02	2.13998822e-04
3.21500000e-01	1.67677875e-02	2.16105551e-04
3.22000000e-01	1.67582583e-02	2.15571478e-04
3.22500000e-01	1.65733791e-02	2.13479148e-04
3.23000000e-01	1.66488973e-02	2.14450360e-04
3.23500000e-01	1.67228282e-02	2.15280967e-04
3.24000000e-01	1.67027730e-02	2.14202899e-04
3.24500000e-01	1.64778950e-02	2.12459177e-04
3.25000000e-01	1.67035045e-02	2.13289015e-04
3.25500000e-01	1.66043543e-02	2.12608460e-04
3.26000000e-01	1.65264391e-02	2.11814133e-04
3.26500000e-01	1.64349958e-02	2.10271861e-04
3.27000000e-01	1.66098461e-02	2.12144849e-04
3.27500000e-01	1.63059160e-02	2.08960312e-04
3.28000000e-01	1.65618698e-02	2.12462501e-04
3.28500000e-01	1.68207192e-02	2.14916984e-04
3.29000000e-01	1.66158990e-02	2.11440210e-04
3.29500000e-01	1.64020276e-02	2.08814990e-04
3.30000000e-01	1.66895060e-02	2.12371700e-04
3.30500000e-01	1.64860449e-02	2.09945084e-04
3.31000000e-01	1.64503476e-02	2.08541575e-04
3.31500000e-01	1.65313529e-02	2.10067586e-04
3.32000000e-01	1.65355053e-02	2.10255443e-04
3.32500000e-01	1.64162531e-02	2.08278631e-04
3.33000000e-01	1.63672883e-02	2.07859551e-04
3.33500000e-01	1.65922744e-02	2.10887716e-04
3.34000000e-01	1.65401353e-02	2.09779390e-04
3.34500000e-01	1.63928342e-02	2.07740919e-04
3.35000000e-01	1.63344675e-02	2.06401667e-04
3.35500000e-01	1.63940098e-02	2.07242981e-04
3.36000000e-01	1.64139119e-02	2.07421094e-04
3.36500000e-01	1.64783534e-02	2.08376349e-04
3.37000000e-01	1.61923275e-02	2.03513033e-04
3.37500000e-01	1.65174609e-02	2.07868755e-04
3.38000000e-01	1.66102431e-02	2.08632130e-04
3.38500000e-01	1.64070242e-02	2.06838037e-04
3.39000000e-01	1.63352055e-02	2.06074749e-04
3.39500000e-01	1.61981702e-02	2.03088214e-04
3.40000000e-01	1.62576776e-02	2.05447939e-04
3.40500000e-01	1.64459052e-02	2.06406013e-04
3.41000000e-01	1.63380337e-02	2.05355606e-04
3.41500000e-01	1.62343597e-02	2.04028117e-04
3.42000000e-01	1.63041538e-02	2.03696614e-04
3.42500000e-01	1.64368321e-02	2.05669913e-04
3.43000000e-01	1.62796427e-02	2.04040566e-04
3.43500000e-01	1.64141519e-02	2.04090849e-04
3.44000000e-01	1.65178062e-02	2.06323040e-04
3.44500000e-01	1.63757489e-02	2.03919625e-04
3.45000000e-01	1.62528812e-02	2.03479722e-04
3.45500000e-01	1.62237615e-02	2.01964940e-04
3.46000000e-01	1.61789852e-02	2.01860278e-04
3.46500000e-01	1.63566287e-02	2.03320503e-04
3.47000000e-01	1.60939260e-02	1.99999715e-04
3.47500000e-01	1.61665029e-02	2.00674899e-04
3.48000000e-01	1.63004393e-02	2.01636228e-04
3.48500000e-01	1.63088361e-02	2.03035378e-04
3.49000000e-01	1.60848046e-02	1.99477952e-04
3.49500000e-01	1.61821593e-02	2.01555694e-04
3.50000000e-01	1.61339793e-02	1.63266615e-04
3.51000000e-01	1.61601607e-02	1.41210630e-04
3.52000000e-01	1.61555553e-02	1.41321110e-04
3.53000000e-01	1.61906996e-02	1.40948262e-04
3.54000000e-01	1.60446804e-02	1.39668042e-04
3.55000000e-01	1.60530715e-02	1.39574898e-04
3.56000000e-01	1.60887159e-02	1.40221323e-04
3.57000000e-01	1.60123841e-02	1.42380457e-04
3.58000000e-01	1.59264309e-02	1.42822104e-04
3.59000000e-01	1.58714926e-02	1.43580583e-04
3.60000000e-01	1.59029721e-02	1.44529375e-04
3.61000000e-01	1.58501765e-02	1.44771606e-04
3.62000000e-01	1.58621282e-02	1.45448154e-04
3.63000000e-01	1.59161396e-02	1.46229813e-04
3.64000000e-01	1.59243567e-02	1.47297982e-04
3.65000000e-01	1.58600091e-02	1.47108086e-04
3.66000000e-01	1.59508433e-02	1.46160603e-04
3.67000000e-01	1.58354680e-02	1.43120135e-04
3.68000000e-01	1.58445781e-02	1.41985789e-04
3.69000000e-01	1.59004165e-02	1.41941801e-04
3.70000000e-01	1.58624109e-02	1.40492489e-04
3.71000000e-01	1.58212609e-02	1.42718203e-04
3.72000000e-01	1.58695183e-02	1.43647099e-04
3.73000000e-01	1.58665515e-02	1.43999158e-04
3.74000000e-01	1.56900330e-02	1.42748249e-04
3.75000000e-01	1.58090797e-02	1.43846991e-04
3.76000000e-01	1.57532316e-02	1.43191962e-04
3.77000000e-01	1.56244768e-02	1.42600682e-04
3.78000000e-01	1.57585637e-02	1.43665122e-04
3.79000000e-01	1.58414567e-02	1.43255681e-04
3.80000000e-01	1.57758116e-02	1.43005876e-04
3.81000000e-01	1.56854920e-02	1.42004156e-04
3.82000000e-01	1.56678136e-02	1.42095769e-04
3.83000000e-01	1.56326387e-02	1.41831087e-04
3.84000000e-01	1.56460585e-02	1.42220242e-04
3.85000000e-01	1.55354815e-02	1.41409063e-04
3.86000000e-01	1.56018157e-02	1.41204454e-04
3.87000000e-01	1.56066714e-02	1.41549057e-04
3.88000000e-01	1.56270449e-02	1.41403331e-04
3.89000000e-01	1.56612422e-02	1.41841587e-04
3.90000000e-01	1.56112539e-02	1.41181687e-04
3.91000000e-01	1.55787717e-02	1.41169308e-04
3.92000000e-01	1.55322897e-02	1.40738729e-04
3.93000000e-01	1.55321330e-02	1.40553100e-04
3.94000000e-01	1.55955748e-02	1.41213165e-04
3.95000000e-01	1.54731829e-02	1.40205762e-04
3.96000000e-01	1.56386194e-02	1.40956536e-04
3.97000000e-01	1.54703714e-02	1.39706042e-04
3.98000000e-01	1.54037740e-02	1.39586356e-04
3.99000000e-01	1.55216819e-02	1.40071970e-04
4.00000000e-01	1.54834886e-02	1.39871136e-04
4.01000000e-01	1.53390644e-02	1.38500727e-04
4.02000000e-01	1.53558490e-02	1.39273865e-04
4.03000000e-01	1.52971868e-02	1.38428640e-04
4.04000000e-01	1.54139156e-02	1.39294960e-04
4.05000000e-01	1.53890211e-02	1.39087561e-04
4.06000000e-01	1.53433094e-02	1.38927675e-04
4.07000000e-01	1.52350371e-02	1.37898615e-04
4.08000000e-01	1.52453559e-02	1.37502383e-04
4.09000000e-01	1.53042845e-02	1.38031904e-04
4.10000000e-01	1.53185975e-02	1.37969222e-04
4.11000000e-01	1.52864142e-02	1.37981275e-04
4.12000000e-01	1.53455027e-02	1.38586689e-04
4.13000000e-01	1.53394363e-02	1.38133767e-04
4.14000000e-01	1.53475475e-02	1.38538854e-04
4.15000000e-01	1.53150696e-02	1.38170681e-04
4.16000000e-01	1.51829220e-02	1.36787247e-04
4.17000000e-01	1.51619553e-02	1.36457598e-04
4.18000000e-01	1.52777785e-02	1.39018719e-04
4.19000000e-01	1.53439102e-02	1.41358862e-04
4.20000000e-01	1.53895956e-02	1.42194165e-04
4.21000000e-01	1.52782420e-02	1.42245038e-04
4.22000000e-01	1.53886021e-02	1.42937348e-04
4.23000000e-01	1.53073468e-02	1.42807085e-04
4.24000000e-01	1.52742888e-02	1.43278943e-04
4.25000000e-01	1.52253031e-02	1.43070265e-04
4.26000000e-01	1.52031154e-02	1.43210980e-04
4.27000000e-01	1.51193274e-02	1.42310400e-04
4.28000000e-01	1.53831929e-02	1.45029392e-04
4.29000000e-01	1.52732666e-02	1.44382061e-04
4.30000000e-01	1.51420918e-02	1.42498096e-04
4.31000000e-01	1.51882357e-02	1.42837009e-04
4.32000000e-01	1.51777991e-02	1.43412919e-04
4.33000000e-01	1.52739830e-02	1.44188486e-04
4.34000000e-01	1.51957496e-02	1.43584219e-04
4.35000000e-01	1.51680879e-02	1.43379139e-04
4.36000000e-01	1.51803123e-02	1.43586242e-04
4.37000000e-01	1.50364587e-02	1.42869385e-04
4.38000000e-01	1.51946421e-02	1.44219104e-04
4.39000000e-01	1.50293964e-02	1.43012956e-04
4.40000000e-01	1.51966735e-02	1.44735106e-04
4.41000000e-01	1.51501360e-02	1.44188421e-04
4.42000000e-01	1.49865472e-02	1.43494346e-04
4.43000000e-01	1.50726790e-02	1.43845243e-04
4.44000000e-01	1.51484143e-02	1.45014882e-04
4.45000000e-01	1.49375942e-02	1.43100048e-04
4.46000000e-01	1.51018049e-02	1.44974799e-04
4.47000000e-01	1.51166315e-02	1.45377678e-04
4.48000000e-01	1.50357912e-02	1.44563999e-04
4.49000000e-01	1.50180311e-02	1.44232515e-04
4.50000000e-01	1.50712053e-02	1.45033759e-04
4.51000000e-01	1.49995993e-02	1.44819314e-04
4.52000000e-01	1.50247970e-02	1.44938443e-04
4.53000000e-01	1.51133861e-02	1.45956822e-04
4.54000000e-01	1.48104971e-02	1.43014897e-04
4.55000000e-01	1.49932473e-02	1.45095528e-04
4.56000000e-01	1.48793566e-02	1.43945172e-04
4.57000000e-01	1.48402713e-02	1.43893440e-04
4.58000000e-01	1.50845646e-02	1.46106032e-04
4.59000000e-01	1.49741837e-02	1.45641055e-04
4.60000000e-01	1.49087307e-02	1.44877105e-04
4.61000000e-01	1.50266884e-02	1.46426670e-04
4.62000000e-01	1.48664755e-02	1.44632120e-04
4.63000000e-01	1.47956371e-02	1.44128570e-04
4.64000000e-01	1.47886084e-02	1.44569347e-04
4.65000000e-01	1.49860961e-02	1.46200916e-04
4.66000000e-01	1.49111266e-02	1.45341130e-04
4.67000000e-01	1.48272784e-02	1.44947651e-04
4.68000000e-01	1.48409122e-02	1.44885957e-04
4.69000000e-01	1.48653454e-02	1.45696850e-04
4.70000000e-01	1.47769790e-02	1.44458882e-04
4.71000000e-01	1.48865353e-02	1.45637116e-04
4.72000000e-01	1.48584589e-02	1.45216619e-04
4.73000000e-01	1.48924730e-02	1.45379539e-04
4.74000000e-01	1.48248427e-02	1.44935938e-04
4.75000000e-01	1.47577916e-02	1.44391690e-04
4.76000000e-01	1.47180143e-02	1.44289282e-04
4.77000000e-01	1.45977746e-02	1.43007007e-04
4.78000000e-01	1.48380858e-02	1.45172263e-04
4.79000000e-01	1.48907788e-02	1.45696459e-04
4.80000000e-01	1.46999834e-02	1.43848384e-04
4.81000000e-01	1.47953640e-02	1.45135885e-04
4.82000000e-01	1.47335818e-02	1.44453364e-04
4.83000000e-01	1.46922844e-02	1.44092907e-04
4.84000000e-01	1.47470755e-02	1.44474916e-04
4.85000000e-01	1.47787033e-02	1.44927763e-04
4.86000000e-01	1.46525541e-02	1.44020699e-04
4.87000000e-01	1.46693230e-02	1.44270888e-04
4.88000000e-01	1.46925390e-02	1.44639551e-04
4.89000000e-01	1.46339180e-02	1.44365295e-04
4.90000000e-01	1.45687065e-02	1.43812433e-04
4.91000000e-01	1.45955023e-02	1.43810128e-04
4.92000000e-01	1.46113073e-02	1.44446161e-04
4.93000000e-01	1.46205594e-02	1.44386050e-04
4.94000000e-01	1.46267829e-02	1.44558544e-04
4.95000000e-01	1.46639402e-02	1.45419067e-04
4.96000000e-01	1.45610344e-02	1.49026772e-04
4.97000000e-01	1.45882750e-02	1.52370781e-04
4.98000000e-01	1.45463196e-02	1.53779884e-04
4.99000000e-01	1.46821871e-02	1.56946572e-04
5.00000000e-01	1.45086679e-02	1.56529429e-04
5.01000000e-01	1.46478143e-02	1.60170711e-04
5.02000000e-01	1.46474243e-02	1.61353615e-04
5.03000000e-01	1.45236596e-02	1.62006264e-04
5.04000000e-01	1.45840874e-02	1.63614303e-04
5.05000000e-01	1.46144608e-02	1.60866252e-04
5.06000000e-01	1.45542122e-02	1.56869764e-04
5.07000000e-01	1.46751353e-02	1.56411726e-04
5.08000000e-01	1.45825701e-02	1.54889258e-04
5.09000000e-01	1.46016753e-02	1.54337479e-04
5.10000000e-01	1.45878421e-02	1.53698783e-04
5.11000000e-01	1.45528333e-02	1.53276953e-04
5.12000000e-01	1.45386899e-02	1.52472781e-04
5.13000000e-01	1.44156593e-02	1.51313190e-04
5.14000000e-01	1.45013139e-02	1.51011337e-04
5.15000000e-01	1.45698022e-02	1.51675810e-04
5.16000000e-01	1.44406189e-02	1.50337394e-04
5.17000000e-01	1.44281662e-02	1.50132172e-04
5.18000000e-01	1.44284809e-02	1.49667117e-04
5.19000000e-01	1.45195050e-02	1.49989019e-04
5.20000000e-01	1.43488473e-02	1.48379924e-04
5.21000000e-01	1.43249959e-02	1.47787259e-04
5.22000000e-01	1.44208620e-02	1.48782142e-04
5.23000000e-01	1.42890930e-02	1.47198771e-04
5.24000000e-01	1.44313064e-02	1.48947788e-04
5.25000000e-01	1.44129798e-02	1.48292113e-04
5.26000000e-01	1.42343967e-02	1.46486417e-04
5.27000000e-01	1.43564603e-02	1.47875064e-04
5.28000000e-01	1.43883245e-02	1.48232907e-04
5.29000000e-01	1.43399485e-02	1.47862192e-04
5.30000000e-01	1.42712473e-02	1.46960687e-04
5.31000000e-01	1.44733762e-02	1.49322095e-04
5.32000000e-01	1.42476382e-02	1.47076964e-04
5.33000000e-01	1.42203900e-02	1.46278754e-04
5.34000000e-01	1.43197070e-02	1.47282653e-04
5.35000000e-01	1.43903706e-02	1.47559221e-04
5.36000000e-01	1.42019693e-02	1.45976031e-04
5.37000000e-01	1.40839991e-02	1.45321223e-04
5.38000000e-01	1.41483455e-02	1.45799036e-04
5.39000000e-01	1.41384023e-02	1.46038576e-04
5.40000000e-01	1.41902445e-02	1.46256450e-04
5.41000000e-01	1.42578844e-02	1.46833108e-04
5.42000000e-01	1.43207565e-02	1.47464221e-04
5.43000000e-01	1.42769387e-02	1.47088756e-04
5.44000000e-01	1.42375225e-02	1.46495716e-04
5.45000000e-01	1.40925583e-02	1.45158704e-04
5.46000000e-01	1.41898606e-02	1.46192290e-04
5.47000000e-01	1.40440444e-02	1.45401205e-04
5.48000000e-01	1.41690451e-02	1.45918568e-04
5.49000000e-01	1.40679269e-02	1.44826231e-04
5.50000000e-01	1.40124686e-02	1.44091674e-04
5.51000000e-01	1.40578770e-02	1.44457645e-04
5.52000000e-01	1.41151637e-02	1.44762595e-04
5.53000000e-01	1.39730983e-02	1.43520186e-04
5.54000000e-01	1.40844436e-02	1.44353052e-04
5.55000000e-01	1.41158693e-02	1.44655045e-04
5.56000000e-01	1.41205775e-02	1.44797109e-04
5.57000000e-01	1.42132904e-02	1.45518195e-04
5.58000000e-01	1.40801522e-02	1.44535383e-04
5.59000000e-01	1.40187337e-02	1.43685396e-04
5.60000000e-01	1.40136484e-02	1.43784121e-04
5.61000000e-01	1.39370868e-02	1.42711245e-04
5.62000000e-01	1.40395998e-02	1.43868183e-04
5.63000000e-01	1.40845390e-02	1.44061286e-04
5.64000000e-01	1.40445252e-02	1.43703764e-04
5.65000000e-01	1.39990393e-02	1.43576331e-04
5.66000000e-01	1.39162228e-02	1.42967621e-04
5.67000000e-01	1.38542987e-02	1.42555191e-04
5.68000000e-01	1.39478145e-02	1.43267735e-04
5.69000000e-01	1.39686522e-02	1.42865944e-04
5.70000000e-01	1.39404806e-02	1.42051238e-04
5.71000000e-01	1.38778263e-02	1.41948967e-04
5.72000000e-01	1.38052787e-02	1.41336197e-04
5.73000000e-01	1.37544271e-02	1.41615676e-04
5.74000000e-01	1.38399655e-02	1.41682484e-04
5.75000000e-01	1.38785334e-02	1.42924695e-04
5.76000000e-01	1.38923057e-02	1.42812785e-04
5.77000000e-01	1.37362477e-02	1.40847677e-04
5.78000000e-01	1.39333299e-02	1.43012755e-04
5.79000000e-01	1.38317375e-02	1.41750799e-04
5.80000000e-01	1.38828435e-02	1.42308263e-04
5.81000000e-01	1.37855624e-02	1.41522752e-04
5.82000000e-01	1.37222099e-02	1.41132338e-04
5.83000000e-01	1.37578148e-02	1.41134271e-04
5.84000000e-01	1.38228183e-02	1.42205033e-04
5.85000000e-01	1.38529612e-02	1.42415389e-04
5.86000000e-01	1.38237010e-02	1.41804239e-04
5.87000000e-01	1.37255417e-02	1.41577583e-04
5.88000000e-01	1.37837803e-02	1.42246582e-04
5.89000000e-01	1.37719685e-02	1.41519997e-04
5.90000000e-01	1.36340452e-02	1.40613148e-04
5.91000000e-01	1.36364237e-02	1.40486967e-04
5.92000000e-01	1.36658457e-02	1.40999308e-04
5.93000000e-01	1.36892197e-02	1.41475575e-04
5.94000000e-01	1.36258314e-02	1.40429726e-04
5.95000000e-01	1.37335477e-02	1.41099543e-04
5.96000000e-01	1.36213405e-02	1.40504040e-04
5.97000000e-01	1.36240260e-02	1.40531369e-04
5.98000000e-01	1.37745231e-02	1.41852657e-04
5.99000000e-01	1.36332403e-02	1.40601280e-04
6.00000000e-01	1.35955148e-02	1.40203302e-04
6.01000000e-01	1.36308812e-02	1.41000530e-04
6.02000000e-01	1.35055306e-02	1.39151018e-04
6.03000000e-01	1.36150281e-02	1.39899201e-04
6.04000000e-01	1.35408295e-02	1.40171549e-04
6.05000000e-01	1.36054706e-02	1.40536957e-04
6.06000000e-01	1.36099014e-02	1.40635223e-04
6.07000000e-01	1.34804303e-02	1.39030510e-04
6.08000000e-01	1.35795368e-02	1.39615827e-04
6.09000000e-01	1.35240067e-02	1.40053257e-04
6.10000000e-01	1.35032958e-02	1.39576815e-04
6.11000000e-01	1.35159506e-02	1.40324476e-04
6.12000000e-01	1.35315668e-02	1.40133404e-04
6.13000000e-01	1.36071037e-02	1.40286266e-04
6.14000000e-01	1.36160253e-02	1.41039005e-04
6.15000000e-01	1.34354671e-02	1.39226139e-04
6.16000000e-01	1.34984166e-02	1.39752947e-04
6.17000000e-01	1.35061854e-02	1.39765619e-04
6.18000000e-01	1.34895074e-02	1.39968700e-04
6.19000000e-01	1.35154253e-02	1.39658845e-04
6.20000000e-01	1.33971621e-02	1.38426881e-04
6.21000000e-01	1.34418198e-02	1.38747784e-04
6.22000000e-01	1.34064687e-02	1.38095322e-04
6.23000000e-01	1.34277342e-02	1.38017141e-04
6.24000000e-01	1.33300955e-02	1.37265045e-04
6.25000000e-01	1.33615357e-02	1.37610665e-04
6.26000000e-01	1.33147599e-02	1.36744838e-04
6.27000000e-01	1.35154604e-02	1.38437995e-04
6.28000000e-01	1.34393283e-02	1.37819375e-04
6.29000000e-01	1.34342080e-02	1.37988730e-04
6.30000000e-01	1.32490131e-02	1.36577135e-04
6.31000000e-01	1.33288910e-02	1.37498896e-04
6.32000000e-01	1.35133482e-02	1.39140064e-04
6.33000000e-01	1.33771535e-02	1.37441424e-04
6.34000000e-01	1.33741824e-02	1.40539906e-04
6.35000000e-01	1.33016718e-02	1.44421808e-04
6.36000000e-01	1.34536299e-02	1.48326406e-04
6.37000000e-01	1.33651047e-02	1.50404058e-04
6.38000000e-01	1.33139553e-02	1.51686621e-04
6.39000000e-01	1.33528276e-02	1.54030732e-04
6.40000000e-01	1.33825031e-02	1.56119549e-04
6.41000000e-01	1.33179465e-02	1.56993882e-04
6.42000000e-01	1.34356755e-02	1.59582696e-04
6.43000000e-01	1.33121711e-02	1.58463208e-04
6.44000000e-01	1.35109171e-02	1.54416118e-04
6.45000000e-01	1.35294544e-02	1.52796526e-04
6.46000000e-01	1.33958883e-02	1.49692248e-04
6.47000000e-01	1.33820197e-02	1.48266806e-04
6.48000000e-01	1.35167917e-02	1.48811975e-04
6.49000000e-01	1.33997408e-02	1.47305431e-04
6.50000000e-01	1.34314527e-02	1.46843616e-04
6.51000000e-01	1.33154316e-02	1.45107592e-04
6.52000000e-01	1.33442291e-02	1.44883766e-04
6.53000000e-01	1.33265920e-02	1.44321270e-04
6.54000000e-01	1.34446210e-02	1.44713979e-04
6.55000000e-01	1.34819869e-02	1.45094250e-04
6.56000000e-01	1.33566954e-02	1.43548482e-04
6.57000000e-01	1.33190881e-02	1.43147481e-04
6.58000000e-01	1.33211631e-02	1.42895657e-04
6.59000000e-01	1.34232279e-02	1.43519780e-04
6.60000000e-01	1.34807297e-02	1.43849401e-04
6.61000000e-01	1.33984322e-02	1.42949059e-04
6.62000000e-01	1.34880836e-02	1.44437463e-04
6.63000000e-01	1.32922686e-02	1.42342698e-04
6.64000000e-01	1.33610511e-02	1.42606687e-04
6.65000000e-01	1.32699070e-02	1.41634930e-04
6.66000000e-01	1.32577739e-02	1.41721068e-04
6.67000000e-01	1.31129103e-02	1.40206460e-04
6.68000000e-01	1.32629457e-02	1.41318702e-04
6.69000000e-01	1.31377568e-02	1.39998032e-04
6.70000000e-01	1.33012637e-02	1.41805872e-04
6.71000000e-01	1.30482445e-02	1.39210659e-04
6.72000000e-01	1.33021283e-02	1.41634395e-04
6.73000000e-01	1.32739342e-02	1.41095876e-04
6.74000000e-01	1.32546381e-02	1.40991237e-04
6.75000000e-01	1.31553012e-02	1.40183727e-04
6.76000000e-01	1.32313239e-02	1.40388959e-04
6.77000000e-01	1.32148804e-02	1.40274729e-04
6.78000000e-01	1.33210656e-02	1.41059083e-04
6.79000000e-01	1.31167744e-02	1.39481890e-04
6.80000000e-01	1.31957174e-02	1.39955159e-04
6.81000000e-01	1.30605818e-02	1.39083221e-04
6.82000000e-01	1.31004855e-02	1.39577033e-04
6.83000000e-01	1.33364486e-02	1.41354474e-04
6.84000000e-01	1.30570481e-02	1.38716007e-04
6.85000000e-01	1.32081291e-02	1.40337701e-04
6.86000000e-01	1.30351008e-02	1.38940497e-04
6.87000000e-01	1.32028018e-02	1.39926219e-04
6.88000000e-01	1.30539951e-02	1.38487552e-04
6.89000000e-01	1.31397125e-02	1.39448180e-04
6.90000000e-01	1.30144488e-02	1.38189939e-04
6.91000000e-01	1.31520981e-02	1.39334207e-04
6.92000000e-01	1.30706999e-02	1.39313120e-04
6.93000000e-01	1.30200742e-02	1.37751773e-04
6.94000000e-01	1.32163928e-02	1.39896630e-04
6.95000000e-01	1.30489945e-02	1.38447846e-04
6.96000000e-01	1.30759621e-02	1.38749712e-04
6.97000000e-01	1.30925652e-02	1.38610088e-04
6.98000000e-01	1.29476217e-02	1.37703987e-04
6.99000000e-01	1.30741656e-02	1.38711334e-04
7.00000000e-01	1.30086902e-02	1.37975007e-04
7.01000000e-01	1.29456349e-02	1.37127292e-04
7.02000000e-01	1.28611242e-02	1.36608872e-04
7.03000000e-01	1.29768096e-02	1.37654683e-04
7.04000000e-01	1.29886510e-02	1.37504950e-04
7.05000000e-01	1.29187270e-02	1.37447767e-04
7.06000000e-01	1.29776115e-02	1.37466173e-04
7.07000000e-01	1.29631254e-02	1.37010017e-04
7.08000000e-01	1.27478135e-02	1.34507936e-04
7.09000000e-01	1.30618133e-02	1.37499407e-04
7.10000000e-01	1.28495279e-02	1.36516296e-04
7.11000000e-01	1.29199073e-02	1.36700568e-04
7.12000000e-01	1.27173285e-02	1.34982424e-04
7.13000000e-01	1.27130731e-02	1.35268155e-04
7.14000000e-01	1.28472877e-02	1.36072934e-04
7.15000000e-01	1.27880818e-02	1.35375167e-04
7.16000000e-01	1.27838410e-02	1.35955049e-04
7.17000000e-01	1.27493177e-02	1.35029500e-04
7.18000000e-01	1.27752118e-02	1.35940488e-04
7.19000000e-01	1.27365668e-02	1.35562988e-04
7.20000000e-01	1.27845708e-02	1.35429768e-04
7.21000000e-01	1.27262926e-02	1.34923074e-04
7.22000000e-01	1.26817961e-02	1.34429782e-04
7.23000000e-01	1.26604745e-02	1.34763737e-04
7.24000000e-01	1.27317594e-02	1.35289487e-04
7.25000000e-01	1.25886124e-02	1.34132295e-04
7.26000000e-01	1.26594767e-02	1.34333595e-04
7.27000000e-01	1.27485807e-02	1.34995867e-04
7.28000000e-01	1.26238128e-02	1.34333171e-04
7.29000000e-01	1.26223646e-02	1.34079974e-04
7.30000000e-01	1.25586114e-02	1.33228239e-04
7.31000000e-01	1.25964182e-02	1.33499637e-04
7.32000000e-01	1.25846364e-02	1.33564726e-04
7.33000000e-01	1.26202051e-02	1.33729200e-04
7.34000000e-01	1.24896045e-02	1.32562966e-04
7.35000000e-01	1.26942286e-02	1.34251125e-04
7.36000000e-01	1.25639874e-02	1.32731857e-04
7.37000000e-01	1.25075673e-02	1.32527739e-04
7.38000000e-01	1.26066973e-02	1.32790473e-04
7.39000000e-01	1.25422824e-02	1.32019111e-04
7.40000000e-01	1.25170430e-02	1.32042057e-04
7.41000000e-01	1.24244053e-02	1.30771641e-04
7.42000000e-01	1.24636458e-02	1.31100282e-04
7.43000000e-01	1.24997134e-02	1.31424359e-04
7.44000000e-01	1.24709170e-02	1.31388128e-04
7.45000000e-01	1.26287193e-02	1.32485127e-04
7.46000000e-01	1.23164694e-02	1.29734202e-04
7.47000000e-01	1.24157727e-02	1.30846886e-04
7.48000000e-01	1.25095172e-02	1.31308714e-04
7.49000000e-01	1.26568250e-02	1.33211805e-04
7.50000000e-01	1.25295253e-02	1.31849931e-04
7.51000000e-01	1.24781150e-02	1.31205353e-04
7.52000000e-01	1.23522234e-02	1.29919774e-04
7.53000000e-01	1.25364698e-02	1.32090343e-04
7.54000000e-01	1.25231979e-02	1.31309190e-04
7.55000000e-01	1.24059083e-02	1.30964280e-04
7.56000000e-01	1.23596123e-02	1.29843145e-04
7.57000000e-01	1.24892051e-02	1.31276611e-04
7.58000000e-01	1.24566387e-02	1.31082766e-04
7.59000000e-01	1.24944013e-02	1.31075498e-04
7.60000000e-01	1.23184759e-02	1.29176462e-04
7.61000000e-01	1.23539550e-02	1.29612495e-04
7.62000000e-01	1.23868264e-02	1.29976046e-04
7.63000000e-01	1.22270643e-02	1.27929065e-04
7.64000000e-01	1.22555046e-02	1.28370541e-04
7.65000000e-01	1.23275934e-02	1.28719957e-04
7.66000000e-01	1.23076306e-02	1.28515123e-04
7.67000000e-01	1.24176848e-02	1.29570839e-04
7.68000000e-01	1.22318768e-02	1.27577064e-04
7.69000000e-01	1.23602003e-02	1.28628218e-04
7.70000000e-01	1.22871956e-02	1.28227632e-04
7.71000000e-01	1.23480493e-02	1.28639659e-04
7.72000000e-01	1.22927702e-02	1.31779456e-04
7.73000000e-01	1.22932700e-02	1.36884967e-04
7.74000000e-01	1.22970696e-02	1.38593631e-04
7.75000000e-01	1.23004905e-02	1.41814433e-04
7.76000000e-01	1.22817123e-02	1.43772498e-04
7.77000000e-01	1.21210919e-02	1.44309749e-04
7.78000000e-01	1.22358281e-02	1.47440498e-04
7.79000000e-01	1.21698418e-02	1.47921735e-04
7.80000000e-01	1.21554184e-02	1.49527146e-04
7.81000000e-01	1.21522535e-02	1.51799925e-04
7.82000000e-01	1.23745131e-02	1.55257352e-04
7.83000000e-01	1.21597935e-02	1.54853964e-04
7.84000000e-01	1.21016591e-02	1.56258758e-04
7.85000000e-01	1.22252048e-02	1.58701134e-04
7.86000000e-01	1.20389849e-02	1.58303238e-04
7.87000000e-01	1.19381124e-02	1.58804150e-04
7.88000000e-01	1.19573683e-02	1.60486577e-04
7.89000000e-01	1.21377856e-02	1.64315947e-04
7.90000000e-01	1.20639112e-02	1.65245774e-04
7.91000000e-01	1.19744122e-02	1.65381700e-04
7.92000000e-01	1.19294524e-02	1.67381610e-04
7.93000000e-01	1.19332869e-02	1.68026269e-04
7.94000000e-01	1.19900503e-02	1.71094453e-04
7.95000000e-01	1.19124751e-02	1.71470646e-04
7.96000000e-01	1.18453323e-02	1.72142411e-04
7.97000000e-01	1.18640952e-02	1.74433634e-04
7.98000000e-01	1.16813417e-02	1.74640760e-04
7.99000000e-01	1.17680466e-02	1.76681489e-04
8.00000000e-01	1.19727361e-02	1.81376629e-04
8.01000000e-01	1.19272891e-02	1.82809005e-04
8.02000000e-01	1.18509562e-02	1.83424376e-04
8.03000000e-01	1.19517352e-02	1.86400924e-04
8.04000000e-01	1.19246407e-02	1.88224215e-04
8.05000000e-01	1.17207747e-02	1.86930832e-04
8.06000000e-01	1.20563264e-02	1.94186537e-04
8.07000000e-01	1.19070718e-02	1.95121309e-04
8.08000000e-01	1.17838495e-02	1.96523945e-04
8.09000000e-01	1.17531791e-02	1.96766266e-04
8.10000000e-01	1.15691708e-02	1.96487117e-04
8.11000000e-01	1.18279064e-02	2.01758162e-04
8.12000000e-01	1.17209138e-02	2.02087226e-04
8.13000000e-01	1.15840862e-02	2.02554797e-04
8.14000000e-01	1.16873904e-02	2.07459855e-04
8.15000000e-01	1.16556814e-02	2.08344764e-04
8.16000000e-01	1.17386394e-02	2.12066612e-04
8.17000000e-01	1.16658983e-02	2.14166261e-04
8.18000000e-01	1.18490192e-02	2.19120106e-04
8.19000000e-01	1.17115134e-02	2.19559516e-04
8.20000000e-01	1.15499190e-02	2.19675370e-04
8.21000000e-01	1.18000171e-02	2.26677341e-04
8.22000000e-01	1.16723604e-02	2.28587832e-04
8.23000000e-01	1.14376546e-02	2.27678553e-04
8.24000000e-01	1.14447844e-02	2.32676936e-04
8.25000000e-01	1.14642804e-02	2.33611593e-04
8.26000000e-01	1.12693090e-02	2.35730435e-04
8.27000000e-01	1.16696972e-02	2.42763524e-04
8.28000000e-01	1.15676284e-02	2.46329954e-04
8.29000000e-01	1.14301342e-02	2.46970482e-04
8.30000000e-01	1.15405479e-02	2.52122301e-04
8.31000000e-01	1.14502666e-02	2.55742821e-04
8.32000000e-01	1.16840172e-02	2.64396123e-04
8.33000000e-01	1.15376415e-02	2.64642168e-04
8.34000000e-01	1.12870588e-02	2.65351059e-04
8.35000000e-01	1.14480514e-02	2.73610344e-04
8.36000000e-01	1.16299826e-02	2.85005004e-04
8.37000000e-01	1.12425174e-02	2.79974584e-04
8.38000000e-01	1.14498295e-02	2.90022483e-04
8.39000000e-01	1.13501184e-02	2.92675756e-04
8.40000000e-01	1.11388465e-02	2.94795906e-04
8.41000000e-01	1.09594638e-02	2.98797380e-04
8.42000000e-01	1.12348602e-02	3.10388311e-04
8.43000000e-01	1.12567686e-02	3.17773612e-04
8.44000000e-01	1.11929313e-02	3.22448404e-04
8.45000000e-01	1.06771849e-02	3.18845852e-04
8.46000000e-01	1.13425100e-02	3.44767396e-04
8.47000000e-01	1.13275762e-02	3.55874661e-04
8.48000000e-01	1.08342541e-02	3.52008229e-04
8.49000000e-01	1.10950886e-02	3.76697472e-04
8.50000000e-01	1.14040876e-02	3.90354040e-04
8.51000000e-01	1.13707807e-02	4.06432391e-04
8.52000000e-01	1.14754164e-02	4.30098390e-04
8.53000000e-01	1.09524051e-02	4.27861081e-04
8.54000000e-01	1.06239493e-02	4.40396902e-04
8.55000000e-01	1.09222125e-02	4.72142231e-04
8.56000000e-01	1.09593829e-02	4.69751745e-04
8.57000000e-01	1.11141788e-02	4.94541387e-04
8.58000000e-01	1.06815740e-02	4.90614597e-04
8.59000000e-01	1.11359312e-02	5.22182236e-04
8.60000000e-01	1.08126079e-02	5.31520316e-04
8.61000000e-01	1.10332368e-02	5.53594876e-04
8.62000000e-01	1.07417219e-02	5.62459674e-04
8.63000000e-01	1.14437980e-02	6.24090460e-04
8.64000000e-01	1.05051512e-02	6.06923496e-04
8.65000000e-01	1.12194688e-02	6.74435343e-04
8.66000000e-01	9.79123452e-03	6.20737164e-04
8.67000000e-01	1.07820717e-02	7.16728282e-04
8.68000000e-01	1.05046872e-02	7.38109419e-04
8.69000000e-01	1.06703055e-02	8.11977600e-04
8.70000000e-01	1.07316455e-02	8.62964539e-04
8.71000000e-01	1.08248933e-02	9.93648238e-04
8.72000000e-01	1.10312426e-02	1.12389263e-03
8.73000000e-01	1.05475514e-02	1.34857313e-03
8.74000000e-01	1.23081653e-02	1.99947893e-03
8.75000000e-01	1.27821474e-02	3.99690692e-03
