% Filename : SEC7_00039_00022.h5
% Date & Time : 30-Oct-2025 17:48:48
% X-ray Energy (keV) : 13.30001
% Exposure Time (s) : 0.500
% Beam Center : 1461.24000, 208.98300
% Sample to Detector Distance (SDD) (mm) : 1990.750
% Detector Pixel Size (mm) : 0.075
% Photodiode Value : 141937.000
% I0 of Sample : 0
% I0 of Standard : 1
% 
% q(A^-1)   I(q)    I(q)_SE
0.00000000e+00	7.63722244e-03	4.02517493e-03
2.50000000e-04	0.00000000e+00	0.00000000e+00
5.00000000e-04	0.00000000e+00	0.00000000e+00
7.50000000e-04	0.00000000e+00	0.00000000e+00
1.00000000e-03	0.00000000e+00	0.00000000e+00
1.25000000e-03	0.00000000e+00	0.00000000e+00
1.50000000e-03	0.00000000e+00	0.00000000e+00
1.75000000e-03	0.00000000e+00	0.00000000e+00
2.00000000e-03	0.00000000e+00	0.00000000e+00
2.25000000e-03	0.00000000e+00	0.00000000e+00
2.50000000e-03	0.00000000e+00	0.00000000e+00
2.75000000e-03	0.00000000e+00	0.00000000e+00
3.00000000e-03	0.00000000e+00	0.00000000e+00
3.25000000e-03	1.22076722e+01	7.10227733e+00
3.50000000e-03	1.20701900e+01	2.73242094e+00
3.75000000e-03	9.52569699e+00	1.73442549e+00
4.00000000e-03	7.84712861e+00	1.29999409e+00
4.25000000e-03	5.98771426e+00	8.49497837e-01
4.50000000e-03	1.13893242e+01	2.26110419e+00
4.75000000e-03	1.07477525e+01	1.91311574e+00
5.00000000e-03	8.26421187e+00	1.38636756e+00
5.25000000e-03	6.70141787e+00	1.08494460e+00
5.50000000e-03	5.41655814e+00	8.33080004e-01
5.75000000e-03	4.56775258e+00	6.69374076e-01
6.00000000e-03	3.61684498e+00	5.07488081e-01
6.25000000e-03	3.12611047e+00	4.28617227e-01
6.50000000e-03	2.57358378e+00	3.39300332e-01
6.75000000e-03	2.17833998e+00	2.80032127e-01
7.00000000e-03	1.96225597e+00	2.37287948e-01
7.25000000e-03	1.63793816e+00	1.93398145e-01
7.50000000e-03	1.39259690e+00	1.62167745e-01
7.75000000e-03	1.23669234e+00	1.39691300e-01
8.00000000e-03	1.13220790e+00	1.24625152e-01
8.25000000e-03	9.66060797e-01	1.02091576e-01
8.50000000e-03	8.66843053e-01	8.80440486e-02
8.75000000e-03	7.79905887e-01	7.87019711e-02
9.00000000e-03	6.81706907e-01	6.68161686e-02
9.25000000e-03	6.19556366e-01	5.96223069e-02
9.50000000e-03	5.54104214e-01	5.09305785e-02
9.75000000e-03	5.01955758e-01	4.57881428e-02
1.00000000e-02	4.45191969e-01	3.98923886e-02
1.02500000e-02	4.11203589e-01	3.65402349e-02
1.05000000e-02	3.84952150e-01	3.26158470e-02
1.07500000e-02	3.46044097e-01	2.92018442e-02
1.10000000e-02	3.20974976e-01	2.60473856e-02
1.12500000e-02	2.96634576e-01	2.43401791e-02
1.15000000e-02	2.72337448e-01	2.21345710e-02
1.17500000e-02	2.47056078e-01	1.93468218e-02
1.20000000e-02	2.36029452e-01	1.83438422e-02
1.22500000e-02	2.19218500e-01	1.65966034e-02
1.25000000e-02	2.05700009e-01	1.53617614e-02
1.27500000e-02	1.91124892e-01	1.41348990e-02
1.30000000e-02	1.82391849e-01	1.31534448e-02
1.32500000e-02	1.66440284e-01	1.17517768e-02
1.35000000e-02	1.60412145e-01	1.10534692e-02
1.37500000e-02	1.47303229e-01	1.02842640e-02
1.40000000e-02	1.38181003e-01	9.50052162e-03
1.42500000e-02	1.32104261e-01	8.78886356e-03
1.45000000e-02	1.22654558e-01	8.11317619e-03
1.47500000e-02	1.17953976e-01	7.73618037e-03
1.50000000e-02	1.13529894e-01	7.36247998e-03
1.52500000e-02	1.05049245e-01	6.63226808e-03
1.55000000e-02	9.96079454e-02	6.22634780e-03
1.57500000e-02	9.52593437e-02	5.96910423e-03
1.60000000e-02	9.14937510e-02	5.53851794e-03
1.62500000e-02	9.07598843e-02	5.62166221e-03
1.65000000e-02	8.40615461e-02	5.05175405e-03
1.67500000e-02	7.96995982e-02	4.69168176e-03
1.70000000e-02	7.62800626e-02	4.51444866e-03
1.72500000e-02	7.32138324e-02	4.27837121e-03
1.75000000e-02	7.06824230e-02	4.07757724e-03
1.77500000e-02	6.80096783e-02	3.83755044e-03
1.80000000e-02	6.55733739e-02	3.73717336e-03
1.82500000e-02	6.30716321e-02	3.47968332e-03
1.85000000e-02	6.12130819e-02	3.46930587e-03
1.87500000e-02	5.97372075e-02	3.26908753e-03
1.90000000e-02	5.56968879e-02	3.02031093e-03
1.92500000e-02	5.52367483e-02	2.94429745e-03
1.95000000e-02	5.45701005e-02	2.87636088e-03
1.97500000e-02	5.29041760e-02	2.80275156e-03
2.00000000e-02	4.99803729e-02	2.61679188e-03
2.02500000e-02	4.90990069e-02	2.53009864e-03
2.05000000e-02	4.91414027e-02	2.47313850e-03
2.07500000e-02	4.67762160e-02	2.37704596e-03
2.10000000e-02	4.59828672e-02	2.35584006e-03
2.12500000e-02	4.43640809e-02	2.25830592e-03
2.15000000e-02	4.43182398e-02	2.23424413e-03
2.17500000e-02	4.35039814e-02	2.21162602e-03
2.20000000e-02	4.13343418e-02	2.10551418e-03
2.22500000e-02	4.05694827e-02	2.03490073e-03
2.25000000e-02	4.00484073e-02	2.02843264e-03
2.27500000e-02	3.97213863e-02	1.98186794e-03
2.30000000e-02	3.92085143e-02	1.98941758e-03
2.32500000e-02	3.93727550e-02	1.95739049e-03
2.35000000e-02	3.83545584e-02	1.92295402e-03
2.37500000e-02	3.72189399e-02	1.85994096e-03
2.40000000e-02	3.61134600e-02	1.80434985e-03
2.42500000e-02	3.61964479e-02	1.80036639e-03
2.45000000e-02	3.62055192e-02	1.81418553e-03
2.47500000e-02	3.53843022e-02	1.74931690e-03
2.50000000e-02	3.47677014e-02	1.72399348e-03
2.52500000e-02	3.38908540e-02	1.68383567e-03
2.55000000e-02	3.37901713e-02	1.64240721e-03
2.57500000e-02	3.36987274e-02	1.65640431e-03
2.60000000e-02	3.11525535e-02	1.50883501e-03
2.62500000e-02	3.23465541e-02	1.58466408e-03
2.65000000e-02	3.11328823e-02	1.53136274e-03
2.67500000e-02	3.11170217e-02	1.52283280e-03
2.70000000e-02	3.19645592e-02	1.54295334e-03
2.72500000e-02	3.25488093e-02	1.55175086e-03
2.75000000e-02	3.15379368e-02	1.53004033e-03
2.77500000e-02	3.04474674e-02	1.48114722e-03
2.80000000e-02	2.97458924e-02	1.41198162e-03
2.82500000e-02	2.96985587e-02	1.40957543e-03
2.85000000e-02	3.00404248e-02	1.44070868e-03
2.87500000e-02	3.00141177e-02	1.44309434e-03
2.90000000e-02	2.97932984e-02	1.42906862e-03
2.92500000e-02	2.94129975e-02	1.36884116e-03
2.95000000e-02	2.87247493e-02	1.37571637e-03
2.97500000e-02	2.90534752e-02	1.36993366e-03
3.00000000e-02	2.99242447e-02	1.41059578e-03
3.02500000e-02	2.89999866e-02	1.37000143e-03
3.05000000e-02	2.95075143e-02	1.35388551e-03
3.07500000e-02	2.83485469e-02	1.32851270e-03
3.10000000e-02	2.82809626e-02	1.30946024e-03
3.12500000e-02	2.90415547e-02	1.36402712e-03
3.15000000e-02	2.79845183e-02	1.30168066e-03
3.17500000e-02	2.78820218e-02	1.26591757e-03
3.20000000e-02	2.78808689e-02	1.31068536e-03
3.22500000e-02	2.78787974e-02	1.28019585e-03
3.25000000e-02	2.75577459e-02	1.27762558e-03
3.27500000e-02	2.68283353e-02	1.23667393e-03
3.30000000e-02	2.69510882e-02	1.22426716e-03
3.32500000e-02	2.65177194e-02	1.21067407e-03
3.35000000e-02	2.54836143e-02	1.17388315e-03
3.37500000e-02	2.67245818e-02	1.22960619e-03
3.40000000e-02	2.60199993e-02	1.19890594e-03
3.42500000e-02	2.66097631e-02	1.19593299e-03
3.45000000e-02	2.58420355e-02	1.18028264e-03
3.47500000e-02	2.56176841e-02	1.15542918e-03
3.50000000e-02	2.59259905e-02	1.17297956e-03
3.52500000e-02	2.54808163e-02	1.16697278e-03
3.55000000e-02	2.49757293e-02	1.10972224e-03
3.57500000e-02	2.46185218e-02	1.11020976e-03
3.60000000e-02	2.55280772e-02	1.14881463e-03
3.62500000e-02	2.54970483e-02	1.14502387e-03
3.65000000e-02	2.45068062e-02	1.09089199e-03
3.67500000e-02	2.48609208e-02	1.10248251e-03
3.70000000e-02	2.44545804e-02	1.09170297e-03
3.72500000e-02	2.44563818e-02	1.08549682e-03
3.75000000e-02	2.48527620e-02	1.11187131e-03
3.77500000e-02	2.44433117e-02	1.07711816e-03
3.80000000e-02	2.39676685e-02	1.05086684e-03
3.82500000e-02	2.37380473e-02	1.03969257e-03
3.85000000e-02	2.42838353e-02	1.08023029e-03
3.87500000e-02	2.36651313e-02	1.03546651e-03
3.90000000e-02	2.42246178e-02	1.06263376e-03
3.92500000e-02	2.40737874e-02	1.04589384e-03
3.95000000e-02	2.33031068e-02	1.01516129e-03
3.97500000e-02	2.37249951e-02	1.03072492e-03
4.00000000e-02	2.36101840e-02	1.02455147e-03
4.02500000e-02	2.40045844e-02	1.04416787e-03
4.05000000e-02	2.33447994e-02	9.98611855e-04
4.07500000e-02	2.33603948e-02	9.94938735e-04
4.10000000e-02	2.36995133e-02	1.02219195e-03
4.12500000e-02	2.36737329e-02	1.02267890e-03
4.15000000e-02	2.32251333e-02	9.81932768e-04
4.17500000e-02	2.45223430e-02	1.04222542e-03
4.20000000e-02	2.38658693e-02	1.00975658e-03
4.22500000e-02	2.37719737e-02	1.01103486e-03
4.25000000e-02	2.26404562e-02	9.63005057e-04
4.27500000e-02	2.28698498e-02	9.60244143e-04
4.30000000e-02	2.30035480e-02	9.73519004e-04
4.32500000e-02	2.29473395e-02	9.65418488e-04
4.35000000e-02	2.23239050e-02	9.46258907e-04
4.37500000e-02	2.20305197e-02	9.15815093e-04
4.40000000e-02	2.24574604e-02	9.41299614e-04
4.42500000e-02	2.25635900e-02	9.42855127e-04
4.45000000e-02	2.20854845e-02	9.17989045e-04
4.47500000e-02	2.31285388e-02	9.54860718e-04
4.50000000e-02	2.22255035e-02	9.23275287e-04
4.52500000e-02	2.23456350e-02	9.14464316e-04
4.55000000e-02	2.26922712e-02	9.40844430e-04
4.57500000e-02	2.22699409e-02	9.17649116e-04
4.60000000e-02	2.32236888e-02	9.54890283e-04
4.62500000e-02	2.26390656e-02	9.34781610e-04
4.65000000e-02	2.25192009e-02	9.26575133e-04
4.67500000e-02	2.19553534e-02	8.89580365e-04
4.70000000e-02	2.22209085e-02	8.97662750e-04
4.72500000e-02	2.22982205e-02	9.09767778e-04
4.75000000e-02	2.26934015e-02	9.22951786e-04
4.77500000e-02	2.22130751e-02	9.00999278e-04
4.80000000e-02	2.18914788e-02	8.75190128e-04
4.82500000e-02	2.27718325e-02	9.23264756e-04
4.85000000e-02	2.24333158e-02	9.17198151e-04
4.87500000e-02	2.23950917e-02	9.00627541e-04
4.90000000e-02	2.16088935e-02	8.71095332e-04
4.92500000e-02	2.14012580e-02	8.58582663e-04
4.95000000e-02	2.19945841e-02	8.84422191e-04
4.97500000e-02	2.24602970e-02	9.00992981e-04
5.00000000e-02	2.20992104e-02	8.81709629e-04
5.02500000e-02	2.17613369e-02	8.57489075e-04
5.05000000e-02	2.26381607e-02	8.92310271e-04
5.07500000e-02	2.17529529e-02	8.63574271e-04
5.10000000e-02	2.19763002e-02	8.71505673e-04
5.12500000e-02	2.22656167e-02	8.78781760e-04
5.15000000e-02	2.22769005e-02	8.76699984e-04
5.17500000e-02	2.21462497e-02	8.73017023e-04
5.20000000e-02	2.16072780e-02	8.52964856e-04
5.22500000e-02	2.16232282e-02	8.58513450e-04
5.25000000e-02	2.14665853e-02	8.36480944e-04
5.27500000e-02	2.18918084e-02	8.44653150e-04
5.30000000e-02	2.16735893e-02	8.53691421e-04
5.32500000e-02	2.16182274e-02	8.42553854e-04
5.35000000e-02	2.17801678e-02	8.58016602e-04
5.37500000e-02	2.10437262e-02	8.17716779e-04
5.40000000e-02	2.13300798e-02	8.30058291e-04
5.42500000e-02	2.12498201e-02	8.15007843e-04
5.45000000e-02	2.13048632e-02	8.25695027e-04
5.47500000e-02	2.09192867e-02	8.03846777e-04
5.50000000e-02	2.17458256e-02	8.31955516e-04
5.52500000e-02	2.19271944e-02	8.46566561e-04
5.55000000e-02	2.11999286e-02	8.12663928e-04
5.57500000e-02	2.22081770e-02	8.52720965e-04
5.60000000e-02	2.10456971e-02	8.04834923e-04
5.62500000e-02	2.13661464e-02	8.23053328e-04
5.65000000e-02	2.14461595e-02	8.16917532e-04
5.67500000e-02	2.13947781e-02	8.14661240e-04
5.70000000e-02	2.14621301e-02	8.21561883e-04
5.72500000e-02	2.11144129e-02	8.03976662e-04
5.75000000e-02	2.14541362e-02	8.15877879e-04
5.77500000e-02	2.14519084e-02	8.07338973e-04
5.80000000e-02	2.12019673e-02	8.05722935e-04
5.82500000e-02	2.11468435e-02	7.97860673e-04
5.85000000e-02	2.08036280e-02	7.79953519e-04
5.87500000e-02	2.07017915e-02	7.74656408e-04
5.90000000e-02	2.06482156e-02	7.71286547e-04
5.92500000e-02	2.14022733e-02	8.07729244e-04
5.95000000e-02	2.14864224e-02	8.02437775e-04
5.97500000e-02	2.09789438e-02	7.90683019e-04
6.00000000e-02	2.07693226e-02	7.77300324e-04
6.02500000e-02	2.12301718e-02	7.86360265e-04
6.05000000e-02	2.08824861e-02	7.78046526e-04
6.07500000e-02	2.04602516e-02	7.66123958e-04
6.10000000e-02	2.07298886e-02	7.73423463e-04
6.12500000e-02	2.06814739e-02	7.54446456e-04
6.15000000e-02	2.07603508e-02	7.68593151e-04
6.17500000e-02	2.09838133e-02	7.75400047e-04
6.20000000e-02	2.03558354e-02	7.52964023e-04
6.22500000e-02	2.07697349e-02	7.61926267e-04
6.25000000e-02	2.09077733e-02	7.64836649e-04
6.27500000e-02	2.10193844e-02	7.62859712e-04
6.30000000e-02	2.11082764e-02	7.68856728e-04
6.32500000e-02	2.06134482e-02	7.53138528e-04
6.35000000e-02	2.07286645e-02	7.51490799e-04
6.37500000e-02	2.15020954e-02	7.78192738e-04
6.40000000e-02	2.02751602e-02	7.31750226e-04
6.42500000e-02	2.08228385e-02	7.48662961e-04
6.45000000e-02	2.12213891e-02	7.66613505e-04
6.47500000e-02	2.07220702e-02	7.51350408e-04
6.50000000e-02	2.06871728e-02	7.49574162e-04
6.52500000e-02	2.01673539e-02	7.22655565e-04
6.55000000e-02	2.09509750e-02	7.49057620e-04
6.57500000e-02	2.00227080e-02	7.21929676e-04
6.60000000e-02	2.04057364e-02	7.26639472e-04
6.62500000e-02	2.03988672e-02	7.28109570e-04
6.65000000e-02	2.03692761e-02	7.26574767e-04
6.67500000e-02	2.02217973e-02	7.17121083e-04
6.70000000e-02	2.07510946e-02	7.38672815e-04
6.72500000e-02	2.03501038e-02	7.27390113e-04
6.75000000e-02	2.07672382e-02	7.31932379e-04
6.77500000e-02	2.08392187e-02	7.33712442e-04
6.80000000e-02	2.06027129e-02	7.26894371e-04
6.82500000e-02	2.09260591e-02	7.40906355e-04
6.85000000e-02	2.05323397e-02	7.30195128e-04
6.87500000e-02	2.05654535e-02	7.22331251e-04
6.90000000e-02	2.02516034e-02	7.09084898e-04
6.92500000e-02	2.06146209e-02	7.20702062e-04
6.95000000e-02	2.06412557e-02	7.27986046e-04
6.97500000e-02	2.05522025e-02	7.24892808e-04
7.00000000e-02	2.07142596e-02	7.23189933e-04
7.02500000e-02	2.04439789e-02	7.14491126e-04
7.05000000e-02	2.04556091e-02	7.11304044e-04
7.07500000e-02	2.14139507e-02	7.47611633e-04
7.10000000e-02	1.98105382e-02	6.88359371e-04
7.12500000e-02	1.99402782e-02	6.94219762e-04
7.15000000e-02	2.05392746e-02	7.07540495e-04
7.17500000e-02	2.02265517e-02	6.97942918e-04
7.20000000e-02	2.09619040e-02	7.24297038e-04
7.22500000e-02	2.08715760e-02	7.18227163e-04
7.25000000e-02	1.99154322e-02	6.88899565e-04
7.27500000e-02	2.01574513e-02	6.97755957e-04
7.30000000e-02	2.03027755e-02	6.97136695e-04
7.32500000e-02	2.07902270e-02	7.06070157e-04
7.35000000e-02	2.02819164e-02	6.98568037e-04
7.37500000e-02	2.04852010e-02	6.94329574e-04
7.40000000e-02	2.08881063e-02	7.10284176e-04
7.42500000e-02	2.03390172e-02	6.97591039e-04
7.45000000e-02	1.99097824e-02	6.83647109e-04
7.47500000e-02	2.04795015e-02	6.92862671e-04
7.50000000e-02	2.03090219e-02	6.83591015e-04
7.52500000e-02	2.03963090e-02	6.93106552e-04
7.55000000e-02	2.03413519e-02	6.88877019e-04
7.57500000e-02	1.99913418e-02	6.78658721e-04
7.60000000e-02	2.06659783e-02	6.97080952e-04
7.62500000e-02	2.00458069e-02	6.72713076e-04
7.65000000e-02	2.08166404e-02	7.05639867e-04
7.67500000e-02	2.03510734e-02	6.88309766e-04
7.70000000e-02	2.10175838e-02	7.06571526e-04
7.72500000e-02	2.05251680e-02	6.99277458e-04
7.75000000e-02	2.06842800e-02	7.18053451e-04
7.77500000e-02	2.08137954e-02	7.17503028e-04
7.80000000e-02	2.03610242e-02	7.06050997e-04
7.82500000e-02	1.98886391e-02	6.93370963e-04
7.85000000e-02	2.09178530e-02	7.37691874e-04
7.87500000e-02	1.99380418e-02	7.01690885e-04
7.90000000e-02	2.03693219e-02	7.25234430e-04
7.92500000e-02	2.02204443e-02	7.15159544e-04
7.95000000e-02	2.05809082e-02	7.34040397e-04
7.97500000e-02	2.01301344e-02	7.18796132e-04
8.00000000e-02	2.01231538e-02	7.21845246e-04
8.02500000e-02	2.00027852e-02	7.15224788e-04
8.05000000e-02	1.99969848e-02	7.13250439e-04
8.07500000e-02	2.03440281e-02	7.36860346e-04
8.10000000e-02	2.04710904e-02	7.32484007e-04
8.12500000e-02	2.03331659e-02	7.35058932e-04
8.15000000e-02	2.03245772e-02	7.36242256e-04
8.17500000e-02	2.04749830e-02	7.40311106e-04
8.20000000e-02	1.99278840e-02	7.28874784e-04
8.22500000e-02	2.02444379e-02	7.43269053e-04
8.25000000e-02	2.07268535e-02	7.48880930e-04
8.27500000e-02	2.04691892e-02	7.43830336e-04
8.30000000e-02	2.00888334e-02	7.40671012e-04
8.32500000e-02	2.04102647e-02	7.43486567e-04
8.35000000e-02	2.04621242e-02	7.52049727e-04
8.37500000e-02	2.03547624e-02	7.39962528e-04
8.40000000e-02	2.01484724e-02	7.35824296e-04
8.42500000e-02	1.99516455e-02	7.31866626e-04
8.45000000e-02	2.00442184e-02	7.35762666e-04
8.47500000e-02	1.99252138e-02	7.39182204e-04
8.50000000e-02	2.03054920e-02	7.41986762e-04
8.52500000e-02	2.03253103e-02	7.50789476e-04
8.55000000e-02	2.01355739e-02	7.41931734e-04
8.57500000e-02	1.98710046e-02	7.40596963e-04
8.60000000e-02	2.02108264e-02	7.45543358e-04
8.62500000e-02	2.01860569e-02	7.46725071e-04
8.65000000e-02	2.01701278e-02	7.42841224e-04
8.67500000e-02	2.05433461e-02	7.45583878e-04
8.70000000e-02	1.97338459e-02	7.15791663e-04
8.72500000e-02	1.97383962e-02	7.07546420e-04
8.75000000e-02	1.98005668e-02	6.99127053e-04
8.77500000e-02	2.02630020e-02	7.11102736e-04
8.80000000e-02	2.00080949e-02	7.01420377e-04
8.82500000e-02	1.99138461e-02	6.96016004e-04
8.85000000e-02	1.98895601e-02	6.97256063e-04
8.87500000e-02	2.01227189e-02	6.90894782e-04
8.90000000e-02	2.03803225e-02	7.01157508e-04
8.92500000e-02	2.01245216e-02	6.91835739e-04
8.95000000e-02	2.00911068e-02	6.89128530e-04
8.97500000e-02	2.00084652e-02	6.75152045e-04
9.00000000e-02	1.99290743e-02	6.73103472e-04
9.02500000e-02	1.98881207e-02	6.75139724e-04
9.05000000e-02	1.96864013e-02	6.67343257e-04
9.07500000e-02	1.95520265e-02	6.61755740e-04
9.10000000e-02	2.03316281e-02	6.80679770e-04
9.12500000e-02	1.98919623e-02	6.66435723e-04
9.15000000e-02	1.96955285e-02	6.60064103e-04
9.17500000e-02	2.01343682e-02	6.71368367e-04
9.20000000e-02	1.97368880e-02	6.63501595e-04
9.22500000e-02	1.97773411e-02	6.60751231e-04
9.25000000e-02	1.96514285e-02	6.47153177e-04
9.27500000e-02	2.03023380e-02	6.71069907e-04
9.30000000e-02	1.96302809e-02	6.53573381e-04
9.32500000e-02	2.02583423e-02	6.70111893e-04
9.35000000e-02	1.95989722e-02	6.45580725e-04
9.37500000e-02	1.99464706e-02	6.53339467e-04
9.40000000e-02	1.98438150e-02	6.57030500e-04
9.42500000e-02	2.00732625e-02	6.55941181e-04
9.45000000e-02	2.02082062e-02	6.59311651e-04
9.47500000e-02	1.96448831e-02	6.44748673e-04
9.50000000e-02	2.01260363e-02	6.52074933e-04
9.52500000e-02	1.99073655e-02	6.48750683e-04
9.55000000e-02	1.99862981e-02	6.45943054e-04
9.57500000e-02	1.98403432e-02	6.45293298e-04
9.60000000e-02	2.01101787e-02	6.48729713e-04
9.62500000e-02	1.95592641e-02	6.31427775e-04
9.65000000e-02	1.97871205e-02	6.39345159e-04
9.67500000e-02	2.03980683e-02	6.50878897e-04
9.70000000e-02	2.02550369e-02	6.47936956e-04
9.72500000e-02	2.01062488e-02	6.40209351e-04
9.75000000e-02	2.02295886e-02	6.47294808e-04
9.77500000e-02	1.96810264e-02	6.26623502e-04
9.80000000e-02	1.97280017e-02	6.27118734e-04
9.82500000e-02	1.94606196e-02	6.23356706e-04
9.85000000e-02	1.95166781e-02	6.18604043e-04
9.87500000e-02	2.00576974e-02	6.41393544e-04
9.90000000e-02	2.01370871e-02	6.34471790e-04
9.92500000e-02	2.00500641e-02	6.34734809e-04
9.95000000e-02	1.99371532e-02	6.27443177e-04
9.97500000e-02	1.98340540e-02	6.23860649e-04
1.00000000e-01	1.99903427e-02	5.14246950e-04
1.00500000e-01	2.01169657e-02	4.48662778e-04
1.01000000e-01	1.99124656e-02	4.42703065e-04
1.01500000e-01	2.01538615e-02	4.44436202e-04
1.02000000e-01	1.97293222e-02	4.34484582e-04
1.02500000e-01	1.95857439e-02	4.27680214e-04
1.03000000e-01	1.98259032e-02	4.35939042e-04
1.03500000e-01	1.95135447e-02	4.27454571e-04
1.04000000e-01	1.95796684e-02	4.27239446e-04
1.04500000e-01	2.00951999e-02	4.37371165e-04
1.05000000e-01	2.00795021e-02	4.32673605e-04
1.05500000e-01	2.00516069e-02	4.32189173e-04
1.06000000e-01	2.02145408e-02	4.35452627e-04
1.06500000e-01	2.01650229e-02	4.33516591e-04
1.07000000e-01	1.99684072e-02	4.34505569e-04
1.07500000e-01	1.99309819e-02	4.42096702e-04
1.08000000e-01	1.99641561e-02	4.47855762e-04
1.08500000e-01	2.01989792e-02	4.55172882e-04
1.09000000e-01	1.98365921e-02	4.49822578e-04
1.09500000e-01	1.95524917e-02	4.47067143e-04
1.10000000e-01	1.94917013e-02	4.39532903e-04
1.10500000e-01	1.96007781e-02	4.32485625e-04
1.11000000e-01	1.99062804e-02	4.28778023e-04
1.11500000e-01	2.00276364e-02	4.31556665e-04
1.12000000e-01	1.99304082e-02	4.24944178e-04
1.12500000e-01	2.01080048e-02	4.26298856e-04
1.13000000e-01	1.99989413e-02	4.23347587e-04
1.13500000e-01	2.01906326e-02	4.26394075e-04
1.14000000e-01	2.01278963e-02	4.21532321e-04
1.14500000e-01	1.97940484e-02	4.15416099e-04
1.15000000e-01	1.97984420e-02	4.13759817e-04
1.15500000e-01	1.99813297e-02	4.17272260e-04
1.16000000e-01	1.94854959e-02	4.07167169e-04
1.16500000e-01	1.97123176e-02	4.09745554e-04
1.17000000e-01	2.02024325e-02	4.16893396e-04
1.17500000e-01	1.99351242e-02	4.08843929e-04
1.18000000e-01	1.98998262e-02	4.09669518e-04
1.18500000e-01	2.00308247e-02	4.09213580e-04
1.19000000e-01	1.96714804e-02	4.03154977e-04
1.19500000e-01	1.96415810e-02	3.99991083e-04
1.20000000e-01	1.99369257e-02	4.05000226e-04
1.20500000e-01	1.97648892e-02	4.02627251e-04
1.21000000e-01	1.98240752e-02	4.02280524e-04
1.21500000e-01	1.95735634e-02	3.96858029e-04
1.22000000e-01	1.97214097e-02	3.97951148e-04
1.22500000e-01	1.99872759e-02	4.00856625e-04
1.23000000e-01	2.01425887e-02	4.03411544e-04
1.23500000e-01	1.96232238e-02	3.93959102e-04
1.24000000e-01	1.95319026e-02	3.91771975e-04
1.24500000e-01	1.95407319e-02	3.89055816e-04
1.25000000e-01	1.99475052e-02	3.96433449e-04
1.25500000e-01	1.94954884e-02	3.87645769e-04
1.26000000e-01	1.97108492e-02	3.92708638e-04
1.26500000e-01	1.95065536e-02	3.87114263e-04
1.27000000e-01	1.96291058e-02	3.89260199e-04
1.27500000e-01	1.96175847e-02	3.88181673e-04
1.28000000e-01	1.96643772e-02	3.87836274e-04
1.28500000e-01	1.97406898e-02	3.89533711e-04
1.29000000e-01	1.99317105e-02	3.89466101e-04
1.29500000e-01	2.00332143e-02	3.91941071e-04
1.30000000e-01	1.96742025e-02	3.83960930e-04
1.30500000e-01	1.96559028e-02	3.81658375e-04
1.31000000e-01	2.01089218e-02	3.88678204e-04
1.31500000e-01	2.01026682e-02	3.89857304e-04
1.32000000e-01	2.01431786e-02	3.89586459e-04
1.32500000e-01	1.95345659e-02	3.77448023e-04
1.33000000e-01	1.95091388e-02	3.75806617e-04
1.33500000e-01	1.93853481e-02	3.71673091e-04
1.34000000e-01	1.97927403e-02	3.79835226e-04
1.34500000e-01	1.94695382e-02	3.70408079e-04
1.35000000e-01	1.95484284e-02	3.73396385e-04
1.35500000e-01	1.95195676e-02	3.70527228e-04
1.36000000e-01	1.98645404e-02	3.75865318e-04
1.36500000e-01	2.00806801e-02	3.81363930e-04
1.37000000e-01	1.96603684e-02	3.69121617e-04
1.37500000e-01	1.96318000e-02	3.72357053e-04
1.38000000e-01	1.97296889e-02	3.72824108e-04
1.38500000e-01	1.95795422e-02	3.70624372e-04
1.39000000e-01	1.99186171e-02	3.75320017e-04
1.39500000e-01	1.96569167e-02	3.68500833e-04
1.40000000e-01	1.96421373e-02	3.68968619e-04
1.40500000e-01	1.97859674e-02	3.73839472e-04
1.41000000e-01	1.96140997e-02	3.67860124e-04
1.41500000e-01	1.93447943e-02	3.63885854e-04
1.42000000e-01	1.96291926e-02	3.66513417e-04
1.42500000e-01	1.95825579e-02	3.65247449e-04
1.43000000e-01	1.97901647e-02	3.69832713e-04
1.43500000e-01	1.97485351e-02	3.66271284e-04
1.44000000e-01	1.93001144e-02	3.58951647e-04
1.44500000e-01	1.97203845e-02	3.63680453e-04
1.45000000e-01	1.93860152e-02	3.60092811e-04
1.45500000e-01	1.94742833e-02	3.62391311e-04
1.46000000e-01	1.96463708e-02	3.61593020e-04
1.46500000e-01	1.93323156e-02	3.57851983e-04
1.47000000e-01	1.92426543e-02	3.53814939e-04
1.47500000e-01	1.95225849e-02	3.56199799e-04
1.48000000e-01	1.94317819e-02	3.55126852e-04
1.48500000e-01	1.95841961e-02	3.57211495e-04
1.49000000e-01	1.94216861e-02	3.53777324e-04
1.49500000e-01	1.95338405e-02	3.57817497e-04
1.50000000e-01	1.93544609e-02	3.52511213e-04
1.50500000e-01	1.94288964e-02	3.53996786e-04
1.51000000e-01	1.91525660e-02	3.48965307e-04
1.51500000e-01	1.94415486e-02	3.51167167e-04
1.52000000e-01	1.92986001e-02	3.47878735e-04
1.52500000e-01	1.92948819e-02	3.48129890e-04
1.53000000e-01	1.93833507e-02	3.48863934e-04
1.53500000e-01	1.94902427e-02	3.50697865e-04
1.54000000e-01	1.93553233e-02	3.47392507e-04
1.54500000e-01	1.92108293e-02	3.51601449e-04
1.55000000e-01	1.93700341e-02	3.57999010e-04
1.55500000e-01	1.94603218e-02	3.60697609e-04
1.56000000e-01	1.92857836e-02	3.60513254e-04
1.56500000e-01	1.93985813e-02	3.61887202e-04
1.57000000e-01	1.91929071e-02	3.58946215e-04
1.57500000e-01	1.89583945e-02	3.49866370e-04
1.58000000e-01	1.93380949e-02	3.48281046e-04
1.58500000e-01	1.90647592e-02	3.43496901e-04
1.59000000e-01	1.89107826e-02	3.40878689e-04
1.59500000e-01	1.90758413e-02	3.42664044e-04
1.60000000e-01	1.90529140e-02	3.41470279e-04
1.60500000e-01	1.91688499e-02	3.41619161e-04
1.61000000e-01	1.92192182e-02	3.43087529e-04
1.61500000e-01	1.93144226e-02	3.42060011e-04
1.62000000e-01	1.90329027e-02	3.37042705e-04
1.62500000e-01	1.91376946e-02	3.39338822e-04
1.63000000e-01	1.88492061e-02	3.31753107e-04
1.63500000e-01	1.92183565e-02	3.40427492e-04
1.64000000e-01	1.89926452e-02	3.32802484e-04
1.64500000e-01	1.92824095e-02	3.39448037e-04
1.65000000e-01	1.91202265e-02	3.35080544e-04
1.65500000e-01	1.91884302e-02	3.35405660e-04
1.66000000e-01	1.91840819e-02	3.35339494e-04
1.66500000e-01	1.90467683e-02	3.31633777e-04
1.67000000e-01	1.88158261e-02	3.27824962e-04
1.67500000e-01	1.92153312e-02	3.34645586e-04
1.68000000e-01	1.88931641e-02	3.28193782e-04
1.68500000e-01	1.90743755e-02	3.30509697e-04
1.69000000e-01	1.89117281e-02	3.27546225e-04
1.69500000e-01	1.89174364e-02	3.26227843e-04
1.70000000e-01	1.89945047e-02	3.27318143e-04
1.70500000e-01	1.88864472e-02	3.25215849e-04
1.71000000e-01	1.89760253e-02	3.26229237e-04
1.71500000e-01	1.89738022e-02	3.27452468e-04
1.72000000e-01	1.91197605e-02	3.25980992e-04
1.72500000e-01	1.89557103e-02	3.24239886e-04
1.73000000e-01	1.87295805e-02	3.20197248e-04
1.73500000e-01	1.88814732e-02	3.20749557e-04
1.74000000e-01	1.90048326e-02	3.22195677e-04
1.74500000e-01	1.87331771e-02	3.17561292e-04
1.75000000e-01	1.88905753e-02	3.18027024e-04
1.75500000e-01	1.87375030e-02	3.15855344e-04
1.76000000e-01	1.89871063e-02	3.19917493e-04
1.76500000e-01	1.88106755e-02	3.17144474e-04
1.77000000e-01	1.86513562e-02	3.13505279e-04
1.77500000e-01	1.85645964e-02	3.13440440e-04
1.78000000e-01	1.88070478e-02	3.15604113e-04
1.78500000e-01	1.89358520e-02	3.17776828e-04
1.79000000e-01	1.86591727e-02	3.14274649e-04
1.79500000e-01	1.89302076e-02	3.16707167e-04
1.80000000e-01	1.87784157e-02	3.15132048e-04
1.80500000e-01	1.87789904e-02	3.15044278e-04
1.81000000e-01	1.89578266e-02	3.16939883e-04
1.81500000e-01	1.88419246e-02	3.14983297e-04
1.82000000e-01	1.87417773e-02	3.12145695e-04
1.82500000e-01	1.89560174e-02	3.14024454e-04
1.83000000e-01	1.86512387e-02	3.11078221e-04
1.83500000e-01	1.85301450e-02	3.07643881e-04
1.84000000e-01	1.85837816e-02	3.08355798e-04
1.84500000e-01	1.87054516e-02	3.09806054e-04
1.85000000e-01	1.90164063e-02	3.15465002e-04
1.85500000e-01	1.88614407e-02	3.10378555e-04
1.86000000e-01	1.87144410e-02	3.07774499e-04
1.86500000e-01	1.86748875e-02	3.07638976e-04
1.87000000e-01	1.88129827e-02	3.10684169e-04
1.87500000e-01	1.88034947e-02	3.07847672e-04
1.88000000e-01	1.86445073e-02	3.05963472e-04
1.88500000e-01	1.88039295e-02	3.08547266e-04
1.89000000e-01	1.86273359e-02	3.05293445e-04
1.89500000e-01	1.84895201e-02	3.02407083e-04
1.90000000e-01	1.84294280e-02	3.01239541e-04
1.90500000e-01	1.88566703e-02	3.06784687e-04
1.91000000e-01	1.85439213e-02	3.01835984e-04
1.91500000e-01	1.83731426e-02	3.01500013e-04
1.92000000e-01	1.87391334e-02	3.03699531e-04
1.92500000e-01	1.83937603e-02	3.00351690e-04
1.93000000e-01	1.84693042e-02	3.00845490e-04
1.93500000e-01	1.84300305e-02	2.98938623e-04
1.94000000e-01	1.86533420e-02	3.01284723e-04
1.94500000e-01	1.85314883e-02	2.99529224e-04
1.95000000e-01	1.85277052e-02	3.00467732e-04
1.95500000e-01	1.85804730e-02	2.98497430e-04
1.96000000e-01	1.83477574e-02	2.94817770e-04
1.96500000e-01	1.84760641e-02	2.97333394e-04
1.97000000e-01	1.82307174e-02	2.93120504e-04
1.97500000e-01	1.82791389e-02	2.93109690e-04
1.98000000e-01	1.85833802e-02	2.97577183e-04
1.98500000e-01	1.86050303e-02	2.96947409e-04
1.99000000e-01	1.81984346e-02	2.92752374e-04
1.99500000e-01	1.83114673e-02	2.92063340e-04
2.00000000e-01	1.83895859e-02	2.92427931e-04
2.00500000e-01	1.82268120e-02	2.90891495e-04
2.01000000e-01	1.84016004e-02	2.92584398e-04
2.01500000e-01	1.83625565e-02	2.91800543e-04
2.02000000e-01	1.82754826e-02	2.89323208e-04
2.02500000e-01	1.84505454e-02	2.91278740e-04
2.03000000e-01	1.83866051e-02	2.92266272e-04
2.03500000e-01	1.82901066e-02	2.89118367e-04
2.04000000e-01	1.82406264e-02	2.88196432e-04
2.04500000e-01	1.82391447e-02	2.87925213e-04
2.05000000e-01	1.81930544e-02	2.85949953e-04
2.05500000e-01	1.81781780e-02	2.86925469e-04
2.06000000e-01	1.81575186e-02	2.85247639e-04
2.06500000e-01	1.82777810e-02	2.86646871e-04
2.07000000e-01	1.83971978e-02	2.88264015e-04
2.07500000e-01	1.81544600e-02	2.84067490e-04
2.08000000e-01	1.80804934e-02	2.83825149e-04
2.08500000e-01	1.80968961e-02	2.82760409e-04
2.09000000e-01	1.81711974e-02	2.84228047e-04
2.09500000e-01	1.80759774e-02	2.82214542e-04
2.10000000e-01	1.82284355e-02	2.84679753e-04
2.10500000e-01	1.83255878e-02	2.85170169e-04
2.11000000e-01	1.80051507e-02	2.79213471e-04
2.11500000e-01	1.80848985e-02	2.81995707e-04
2.12000000e-01	1.81321339e-02	2.80333620e-04
2.12500000e-01	1.80988020e-02	2.80596218e-04
2.13000000e-01	1.80677028e-02	2.80184530e-04
2.13500000e-01	1.82038454e-02	2.80461061e-04
2.14000000e-01	1.83046597e-02	2.81388175e-04
2.14500000e-01	1.80256850e-02	2.76722688e-04
2.15000000e-01	1.80096374e-02	2.78778685e-04
2.15500000e-01	1.81526985e-02	2.79115769e-04
2.16000000e-01	1.80994890e-02	2.78124981e-04
2.16500000e-01	1.81397619e-02	2.77858371e-04
2.17000000e-01	1.83551361e-02	2.84970243e-04
2.17500000e-01	1.79703994e-02	2.83761257e-04
2.18000000e-01	1.81712108e-02	2.87753263e-04
2.18500000e-01	1.80909869e-02	2.88929528e-04
2.19000000e-01	1.81573555e-02	2.91514359e-04
2.19500000e-01	1.79040208e-02	2.86933425e-04
2.20000000e-01	1.81522996e-02	2.92872689e-04
2.20500000e-01	1.80422397e-02	2.92136146e-04
2.21000000e-01	1.80892436e-02	2.92918580e-04
2.21500000e-01	1.80837353e-02	2.93713149e-04
2.22000000e-01	1.82884072e-02	2.97637570e-04
2.22500000e-01	1.80580074e-02	2.94084248e-04
2.23000000e-01	1.77975159e-02	2.91184074e-04
2.23500000e-01	1.81038834e-02	2.97445660e-04
2.24000000e-01	1.78642916e-02	2.93927253e-04
2.24500000e-01	1.80631719e-02	2.97750492e-04
2.25000000e-01	1.80914760e-02	2.99102878e-04
2.25500000e-01	1.80899779e-02	2.97652381e-04
2.26000000e-01	1.77996949e-02	2.95947366e-04
2.26500000e-01	1.79845286e-02	2.92865122e-04
2.27000000e-01	1.80802272e-02	2.91445319e-04
2.27500000e-01	1.77853570e-02	2.85659079e-04
2.28000000e-01	1.80507873e-02	2.87250412e-04
2.28500000e-01	1.79261903e-02	2.84694967e-04
2.29000000e-01	1.80110897e-02	2.84525966e-04
2.29500000e-01	1.77094604e-02	2.78918423e-04
2.30000000e-01	1.80044491e-02	2.82570844e-04
2.30500000e-01	1.82765551e-02	2.86111910e-04
2.31000000e-01	1.78980023e-02	2.79930333e-04
2.31500000e-01	1.79118095e-02	2.79238809e-04
2.32000000e-01	1.77888339e-02	2.77876094e-04
2.32500000e-01	1.77356479e-02	2.76075929e-04
2.33000000e-01	1.77138576e-02	2.74390124e-04
2.33500000e-01	1.78985818e-02	2.77128984e-04
2.34000000e-01	1.80593478e-02	2.78281379e-04
2.34500000e-01	1.77230341e-02	2.73377784e-04
2.35000000e-01	1.79907538e-02	2.77566236e-04
2.35500000e-01	1.77138866e-02	2.71615031e-04
2.36000000e-01	1.77931711e-02	2.72208487e-04
2.36500000e-01	1.75917590e-02	2.69525787e-04
2.37000000e-01	1.78744827e-02	2.72189777e-04
2.37500000e-01	1.77426114e-02	2.69961262e-04
2.38000000e-01	1.77124368e-02	2.69409055e-04
2.38500000e-01	1.76093280e-02	2.67430358e-04
2.39000000e-01	1.79015060e-02	2.69687910e-04
2.39500000e-01	1.76830728e-02	2.68207429e-04
2.40000000e-01	1.76585116e-02	2.66887223e-04
2.40500000e-01	1.76203882e-02	2.66547232e-04
2.41000000e-01	1.77009952e-02	2.66486798e-04
2.41500000e-01	1.77559422e-02	2.67401083e-04
2.42000000e-01	1.76740238e-02	2.65636000e-04
2.42500000e-01	1.78350233e-02	2.67177547e-04
2.43000000e-01	1.78002696e-02	2.65510325e-04
2.43500000e-01	1.77728195e-02	2.66098726e-04
2.44000000e-01	1.76245875e-02	2.62675733e-04
2.44500000e-01	1.78349515e-02	2.65249499e-04
2.45000000e-01	1.77065140e-02	2.63666072e-04
2.45500000e-01	1.75422811e-02	2.60871809e-04
2.46000000e-01	1.73412140e-02	2.57836506e-04
2.46500000e-01	1.76441584e-02	2.60769870e-04
2.47000000e-01	1.77014158e-02	2.62323537e-04
2.47500000e-01	1.76516491e-02	2.60642987e-04
2.48000000e-01	1.75814696e-02	2.59613660e-04
2.48500000e-01	1.73919641e-02	2.55858770e-04
2.49000000e-01	1.76361174e-02	2.59901132e-04
2.49500000e-01	1.75042359e-02	2.57995502e-04
2.50000000e-01	1.73632496e-02	2.55833822e-04
2.50500000e-01	1.74897236e-02	2.56912687e-04
2.51000000e-01	1.75610702e-02	2.56857611e-04
2.51500000e-01	1.75157409e-02	2.56153598e-04
2.52000000e-01	1.75714082e-02	2.57348544e-04
2.52500000e-01	1.72940152e-02	2.53094730e-04
2.53000000e-01	1.72751872e-02	2.53351218e-04
2.53500000e-01	1.74845010e-02	2.54907635e-04
2.54000000e-01	1.75158458e-02	2.56942719e-04
2.54500000e-01	1.75548194e-02	2.55601897e-04
2.55000000e-01	1.75279252e-02	2.55720536e-04
2.55500000e-01	1.74900442e-02	2.53770391e-04
2.56000000e-01	1.74386712e-02	2.52805497e-04
2.56500000e-01	1.75041358e-02	2.53533588e-04
2.57000000e-01	1.76169734e-02	2.54425852e-04
2.57500000e-01	1.76022069e-02	2.53704800e-04
2.58000000e-01	1.73880543e-02	2.51564546e-04
2.58500000e-01	1.75631295e-02	2.51942718e-04
2.59000000e-01	1.73170320e-02	2.50555837e-04
2.59500000e-01	1.75095669e-02	2.51953355e-04
2.60000000e-01	1.74274283e-02	2.50086018e-04
2.60500000e-01	1.72513537e-02	2.48714821e-04
2.61000000e-01	1.73391279e-02	2.48887619e-04
2.61500000e-01	1.74713693e-02	2.50584128e-04
2.62000000e-01	1.72802686e-02	2.48046511e-04
2.62500000e-01	1.73150499e-02	2.48302894e-04
2.63000000e-01	1.75918123e-02	2.51861838e-04
2.63500000e-01	1.73297603e-02	2.47521191e-04
2.64000000e-01	1.73675509e-02	2.48027247e-04
2.64500000e-01	1.73164816e-02	2.47299597e-04
2.65000000e-01	1.70824441e-02	2.43108181e-04
2.65500000e-01	1.70453657e-02	2.42910603e-04
2.66000000e-01	1.71717855e-02	2.43868563e-04
2.66500000e-01	1.71141239e-02	2.42567695e-04
2.67000000e-01	1.71434949e-02	2.43687271e-04
2.67500000e-01	1.72915712e-02	2.44565162e-04
2.68000000e-01	1.72712670e-02	2.43867952e-04
2.68500000e-01	1.72918166e-02	2.43912028e-04
2.69000000e-01	1.72080756e-02	2.42530621e-04
2.69500000e-01	1.73008372e-02	2.43661061e-04
2.70000000e-01	1.71373484e-02	2.41014795e-04
2.70500000e-01	1.73852605e-02	2.44334661e-04
2.71000000e-01	1.71048321e-02	2.40879829e-04
2.71500000e-01	1.72865146e-02	2.41803837e-04
2.72000000e-01	1.72314579e-02	2.41288131e-04
2.72500000e-01	1.70927072e-02	2.40234868e-04
2.73000000e-01	1.72689640e-02	2.42000425e-04
2.73500000e-01	1.71505929e-02	2.39242681e-04
2.74000000e-01	1.72589490e-02	2.40732048e-04
2.74500000e-01	1.71936542e-02	2.39329873e-04
2.75000000e-01	1.73367762e-02	2.40905238e-04
2.75500000e-01	1.70998720e-02	2.38607508e-04
2.76000000e-01	1.69880684e-02	2.36549355e-04
2.76500000e-01	1.71830322e-02	2.39481088e-04
2.77000000e-01	1.71453537e-02	2.38825851e-04
2.77500000e-01	1.71196314e-02	2.37681965e-04
2.78000000e-01	1.71922211e-02	2.38031434e-04
2.78500000e-01	1.72107087e-02	2.39912087e-04
2.79000000e-01	1.71262888e-02	2.38539870e-04
2.79500000e-01	1.72786794e-02	2.38823608e-04
2.80000000e-01	1.69489650e-02	2.33957309e-04
2.80500000e-01	1.68376418e-02	2.33819521e-04
2.81000000e-01	1.71427201e-02	2.36329325e-04
2.81500000e-01	1.71143393e-02	2.36219716e-04
2.82000000e-01	1.71445833e-02	2.35940726e-04
2.82500000e-01	1.70673808e-02	2.34916773e-04
2.83000000e-01	1.70313940e-02	2.33976646e-04
2.83500000e-01	1.70175222e-02	2.33972483e-04
2.84000000e-01	1.69036575e-02	2.31321105e-04
2.84500000e-01	1.69896188e-02	2.33521013e-04
2.85000000e-01	1.67669637e-02	2.29987987e-04
2.85500000e-01	1.68913381e-02	2.31518549e-04
2.86000000e-01	1.69531878e-02	2.32554322e-04
2.86500000e-01	1.68773130e-02	2.31145708e-04
2.87000000e-01	1.68150917e-02	2.30029164e-04
2.87500000e-01	1.70254020e-02	2.31652244e-04
2.88000000e-01	1.68932943e-02	2.30403288e-04
2.88500000e-01	1.68849780e-02	2.30668055e-04
2.89000000e-01	1.70238371e-02	2.31378196e-04
2.89500000e-01	1.69655032e-02	2.30569499e-04
2.90000000e-01	1.66960674e-02	2.27424000e-04
2.90500000e-01	1.70438851e-02	2.31005022e-04
2.91000000e-01	1.69694888e-02	2.29410765e-04
2.91500000e-01	1.69982277e-02	2.29888754e-04
2.92000000e-01	1.68916548e-02	2.28516489e-04
2.92500000e-01	1.67332326e-02	2.26260725e-04
2.93000000e-01	1.68401448e-02	2.27277826e-04
2.93500000e-01	1.68918020e-02	2.27582186e-04
2.94000000e-01	1.69867014e-02	2.28391596e-04
2.94500000e-01	1.68290249e-02	2.26668176e-04
2.95000000e-01	1.67930120e-02	2.25527078e-04
2.95500000e-01	1.67304123e-02	2.25677149e-04
2.96000000e-01	1.69103175e-02	2.27468490e-04
2.96500000e-01	1.67062058e-02	2.24573818e-04
2.97000000e-01	1.67745609e-02	2.26325244e-04
2.97500000e-01	1.68099287e-02	2.23999865e-04
2.98000000e-01	1.66464879e-02	2.23747756e-04
2.98500000e-01	1.68151118e-02	2.25739693e-04
2.99000000e-01	1.68852592e-02	2.25863043e-04
2.99500000e-01	1.67939717e-02	2.24294667e-04
3.00000000e-01	1.67150190e-02	2.24375485e-04
3.00500000e-01	1.67374237e-02	2.23126114e-04
3.01000000e-01	1.66358305e-02	2.21367372e-04
3.01500000e-01	1.68487029e-02	2.24695356e-04
3.02000000e-01	1.66668821e-02	2.21843160e-04
3.02500000e-01	1.66661042e-02	2.21851224e-04
3.03000000e-01	1.66790423e-02	2.22272815e-04
3.03500000e-01	1.65640685e-02	2.19999419e-04
3.04000000e-01	1.64621196e-02	2.19327387e-04
3.04500000e-01	1.66930409e-02	2.20040086e-04
3.05000000e-01	1.68060300e-02	2.23365689e-04
3.05500000e-01	1.66720834e-02	2.21540007e-04
3.06000000e-01	1.66719026e-02	2.19460524e-04
3.06500000e-01	1.67275045e-02	2.21070899e-04
3.07000000e-01	1.67590272e-02	2.20825461e-04
3.07500000e-01	1.67117825e-02	2.19692790e-04
3.08000000e-01	1.65592658e-02	2.19064409e-04
3.08500000e-01	1.68351016e-02	2.20984234e-04
3.09000000e-01	1.66375636e-02	2.19297784e-04
3.09500000e-01	1.64699356e-02	2.16101605e-04
3.10000000e-01	1.67189194e-02	2.19849349e-04
3.10500000e-01	1.65463235e-02	2.17397759e-04
3.11000000e-01	1.65620331e-02	2.17273271e-04
3.11500000e-01	1.65910381e-02	2.18048580e-04
3.12000000e-01	1.65741278e-02	2.17256985e-04
3.12500000e-01	1.64206922e-02	2.15416676e-04
3.13000000e-01	1.63624466e-02	2.14053825e-04
3.13500000e-01	1.66596421e-02	2.17126238e-04
3.14000000e-01	1.66133130e-02	2.16647525e-04
3.14500000e-01	1.65155327e-02	2.15448400e-04
3.15000000e-01	1.65668756e-02	2.15883292e-04
3.15500000e-01	1.65052350e-02	2.15445887e-04
3.16000000e-01	1.65920450e-02	2.15942682e-04
3.16500000e-01	1.63242413e-02	2.12011541e-04
3.17000000e-01	1.65154579e-02	2.15041173e-04
3.17500000e-01	1.66576096e-02	2.16175724e-04
3.18000000e-01	1.64897605e-02	2.13562302e-04
3.18500000e-01	1.62955164e-02	2.11065130e-04
3.19000000e-01	1.64164157e-02	2.13228730e-04
3.19500000e-01	1.64540813e-02	2.13250415e-04
3.20000000e-01	1.63975288e-02	2.12670734e-04
3.20500000e-01	1.64326177e-02	2.12730732e-04
3.21000000e-01	1.63938359e-02	2.12517289e-04
3.21500000e-01	1.63413068e-02	2.11290333e-04
3.22000000e-01	1.62825252e-02	2.10476260e-04
3.22500000e-01	1.63505578e-02	2.10900875e-04
3.23000000e-01	1.62200991e-02	2.09423771e-04
3.23500000e-01	1.63569855e-02	2.11390438e-04
3.24000000e-01	1.63791178e-02	2.10492934e-04
3.24500000e-01	1.64028734e-02	2.11087786e-04
3.25000000e-01	1.62449496e-02	2.08483767e-04
3.25500000e-01	1.64960670e-02	2.11735794e-04
3.26000000e-01	1.61872449e-02	2.08184096e-04
3.26500000e-01	1.63239193e-02	2.09146724e-04
3.27000000e-01	1.62884372e-02	2.08576574e-04
3.27500000e-01	1.60603834e-02	2.06132389e-04
3.28000000e-01	1.62554432e-02	2.08179703e-04
3.28500000e-01	1.62618523e-02	2.08024953e-04
3.29000000e-01	1.63089992e-02	2.08022293e-04
3.29500000e-01	1.63436549e-02	2.08721832e-04
3.30000000e-01	1.63262308e-02	2.08112195e-04
3.30500000e-01	1.61286262e-02	2.06068454e-04
3.31000000e-01	1.63101725e-02	2.07740551e-04
3.31500000e-01	1.62081915e-02	2.05856109e-04
3.32000000e-01	1.61547400e-02	2.05634337e-04
3.32500000e-01	1.60654726e-02	2.04627301e-04
3.33000000e-01	1.60133193e-02	2.03251454e-04
3.33500000e-01	1.61310359e-02	2.04921716e-04
3.34000000e-01	1.63442177e-02	2.06406060e-04
3.34500000e-01	1.60907560e-02	2.04624382e-04
3.35000000e-01	1.62499154e-02	2.04945205e-04
3.35500000e-01	1.61619511e-02	2.04495763e-04
3.36000000e-01	1.61019648e-02	2.03798381e-04
3.36500000e-01	1.61096106e-02	2.03274462e-04
3.37000000e-01	1.61090641e-02	2.03241165e-04
3.37500000e-01	1.59472460e-02	2.01151815e-04
3.38000000e-01	1.62166297e-02	2.03975807e-04
3.38500000e-01	1.62590117e-02	2.04412670e-04
3.39000000e-01	1.60701005e-02	2.03396900e-04
3.39500000e-01	1.58852630e-02	1.99327327e-04
3.40000000e-01	1.59516179e-02	2.01724944e-04
3.40500000e-01	1.61956574e-02	2.03231567e-04
3.41000000e-01	1.59915547e-02	1.99989514e-04
3.41500000e-01	1.59090424e-02	2.00376558e-04
3.42000000e-01	1.61436857e-02	2.01660357e-04
3.42500000e-01	1.59675650e-02	2.01129634e-04
3.43000000e-01	1.60549428e-02	2.01119217e-04
3.43500000e-01	1.58912304e-02	1.99008468e-04
3.44000000e-01	1.59792475e-02	2.00379076e-04
3.44500000e-01	1.57960204e-02	1.97846979e-04
3.45000000e-01	1.58381968e-02	1.98690720e-04
3.45500000e-01	1.59729640e-02	1.98634787e-04
3.46000000e-01	1.59976739e-02	1.99660577e-04
3.46500000e-01	1.61426622e-02	2.00817747e-04
3.47000000e-01	1.59932872e-02	1.99247090e-04
3.47500000e-01	1.58552132e-02	1.97529661e-04
3.48000000e-01	1.60303679e-02	1.99711755e-04
3.48500000e-01	1.58486744e-02	1.97401353e-04
3.49000000e-01	1.57697429e-02	1.95990631e-04
3.49500000e-01	1.58133741e-02	1.96513099e-04
3.50000000e-01	1.57495403e-02	1.59334067e-04
3.51000000e-01	1.57314192e-02	1.37770567e-04
3.52000000e-01	1.58044886e-02	1.38240753e-04
3.53000000e-01	1.57926100e-02	1.37283751e-04
3.54000000e-01	1.58521167e-02	1.38267824e-04
3.55000000e-01	1.59409199e-02	1.38535229e-04
3.56000000e-01	1.57950118e-02	1.38146221e-04
3.57000000e-01	1.56461532e-02	1.39416469e-04
3.58000000e-01	1.57820798e-02	1.41574624e-04
3.59000000e-01	1.57464314e-02	1.42264534e-04
3.60000000e-01	1.56356862e-02	1.42541090e-04
3.61000000e-01	1.57059511e-02	1.43656774e-04
3.62000000e-01	1.56357159e-02	1.43539577e-04
3.63000000e-01	1.56241480e-02	1.44485301e-04
3.64000000e-01	1.57844086e-02	1.45791284e-04
3.65000000e-01	1.55159893e-02	1.44317790e-04
3.66000000e-01	1.56363256e-02	1.43464775e-04
3.67000000e-01	1.56514110e-02	1.41421278e-04
3.68000000e-01	1.57144100e-02	1.40688898e-04
3.69000000e-01	1.55887815e-02	1.39670922e-04
3.70000000e-01	1.56370258e-02	1.38945064e-04
3.71000000e-01	1.55765962e-02	1.40063111e-04
3.72000000e-01	1.55779068e-02	1.41292866e-04
3.73000000e-01	1.54663496e-02	1.40632416e-04
3.74000000e-01	1.54876880e-02	1.40924770e-04
3.75000000e-01	1.54717606e-02	1.41131986e-04
3.76000000e-01	1.56096650e-02	1.42132434e-04
3.77000000e-01	1.55596997e-02	1.41887683e-04
3.78000000e-01	1.53812796e-02	1.40165860e-04
3.79000000e-01	1.52779276e-02	1.39401015e-04
3.80000000e-01	1.55404248e-02	1.41345356e-04
3.81000000e-01	1.53815056e-02	1.39830816e-04
3.82000000e-01	1.54521731e-02	1.40095632e-04
3.83000000e-01	1.54080300e-02	1.39874851e-04
3.84000000e-01	1.52795277e-02	1.38928359e-04
3.85000000e-01	1.53389107e-02	1.39144637e-04
3.86000000e-01	1.53318837e-02	1.38926130e-04
3.87000000e-01	1.52772519e-02	1.38553139e-04
3.88000000e-01	1.54148945e-02	1.39761769e-04
3.89000000e-01	1.53238178e-02	1.39094396e-04
3.90000000e-01	1.53687323e-02	1.39124342e-04
3.91000000e-01	1.52886274e-02	1.39090055e-04
3.92000000e-01	1.51815421e-02	1.37809157e-04
3.93000000e-01	1.53865918e-02	1.39049073e-04
3.94000000e-01	1.52848195e-02	1.38643969e-04
3.95000000e-01	1.52551673e-02	1.38090579e-04
3.96000000e-01	1.51329278e-02	1.37151054e-04
3.97000000e-01	1.52160672e-02	1.37855696e-04
3.98000000e-01	1.51632472e-02	1.37598039e-04
3.99000000e-01	1.51499232e-02	1.37462117e-04
4.00000000e-01	1.51377215e-02	1.37190440e-04
4.01000000e-01	1.51297507e-02	1.37096807e-04
4.02000000e-01	1.52826355e-02	1.38140913e-04
4.03000000e-01	1.51239073e-02	1.37200479e-04
4.04000000e-01	1.50977824e-02	1.36632612e-04
4.05000000e-01	1.50037556e-02	1.36031130e-04
4.06000000e-01	1.51065564e-02	1.36640872e-04
4.07000000e-01	1.50272321e-02	1.35813767e-04
4.08000000e-01	1.50195923e-02	1.35851097e-04
4.09000000e-01	1.50214215e-02	1.35945631e-04
4.10000000e-01	1.49924555e-02	1.35661902e-04
4.11000000e-01	1.48636944e-02	1.34242068e-04
4.12000000e-01	1.50422355e-02	1.35737161e-04
4.13000000e-01	1.49343895e-02	1.34888176e-04
4.14000000e-01	1.49537537e-02	1.34813419e-04
4.15000000e-01	1.49621368e-02	1.35168976e-04
4.16000000e-01	1.49256924e-02	1.34607714e-04
4.17000000e-01	1.49711730e-02	1.35095230e-04
4.18000000e-01	1.50568093e-02	1.37028415e-04
4.19000000e-01	1.50851225e-02	1.39235373e-04
4.20000000e-01	1.51732934e-02	1.40467797e-04
4.21000000e-01	1.49867173e-02	1.39376034e-04
4.22000000e-01	1.50368739e-02	1.40450651e-04
4.23000000e-01	1.50449856e-02	1.40859734e-04
4.24000000e-01	1.50894816e-02	1.41622089e-04
4.25000000e-01	1.50538618e-02	1.41437401e-04
4.26000000e-01	1.50456753e-02	1.41948084e-04
4.27000000e-01	1.50401464e-02	1.40947998e-04
4.28000000e-01	1.49195469e-02	1.40980763e-04
4.29000000e-01	1.50469329e-02	1.42559698e-04
4.30000000e-01	1.50385916e-02	1.41929906e-04
4.31000000e-01	1.50453836e-02	1.41636699e-04
4.32000000e-01	1.48404541e-02	1.40485045e-04
4.33000000e-01	1.48749947e-02	1.40569798e-04
4.34000000e-01	1.48494573e-02	1.40779648e-04
4.35000000e-01	1.48015240e-02	1.40189271e-04
4.36000000e-01	1.47435336e-02	1.39919099e-04
4.37000000e-01	1.48260670e-02	1.40828327e-04
4.38000000e-01	1.48901255e-02	1.41633773e-04
4.39000000e-01	1.49794532e-02	1.42626327e-04
4.40000000e-01	1.47589214e-02	1.41064897e-04
4.41000000e-01	1.48414498e-02	1.41983296e-04
4.42000000e-01	1.48399321e-02	1.41802729e-04
4.43000000e-01	1.48377003e-02	1.42241975e-04
4.44000000e-01	1.47921546e-02	1.42062210e-04
4.45000000e-01	1.49792315e-02	1.43599584e-04
4.46000000e-01	1.47807344e-02	1.42274444e-04
4.47000000e-01	1.47214346e-02	1.41847124e-04
4.48000000e-01	1.47969600e-02	1.42478173e-04
4.49000000e-01	1.47470608e-02	1.42159660e-04
4.50000000e-01	1.47275246e-02	1.42307555e-04
4.51000000e-01	1.48131984e-02	1.42642535e-04
4.52000000e-01	1.47408118e-02	1.42506002e-04
4.53000000e-01	1.47300560e-02	1.42517127e-04
4.54000000e-01	1.47107478e-02	1.42297602e-04
4.55000000e-01	1.45238691e-02	1.41034833e-04
4.56000000e-01	1.47275599e-02	1.42825865e-04
4.57000000e-01	1.45874950e-02	1.41950044e-04
4.58000000e-01	1.47509641e-02	1.43532901e-04
4.59000000e-01	1.47062514e-02	1.42970546e-04
4.60000000e-01	1.46182813e-02	1.42740948e-04
4.61000000e-01	1.46103721e-02	1.42428904e-04
4.62000000e-01	1.46421636e-02	1.42179000e-04
4.63000000e-01	1.44858129e-02	1.41572673e-04
4.64000000e-01	1.46321481e-02	1.42734925e-04
4.65000000e-01	1.45192737e-02	1.41994825e-04
4.66000000e-01	1.44305900e-02	1.41221481e-04
4.67000000e-01	1.45317116e-02	1.42437665e-04
4.68000000e-01	1.44605032e-02	1.41709940e-04
4.69000000e-01	1.45217387e-02	1.42655179e-04
4.70000000e-01	1.45136854e-02	1.42397587e-04
4.71000000e-01	1.45537592e-02	1.42805178e-04
4.72000000e-01	1.45385734e-02	1.41964015e-04
4.73000000e-01	1.45644588e-02	1.42540452e-04
4.74000000e-01	1.43695533e-02	1.40934598e-04
4.75000000e-01	1.45187438e-02	1.41878700e-04
4.76000000e-01	1.45099172e-02	1.42191637e-04
4.77000000e-01	1.45613933e-02	1.42420733e-04
4.78000000e-01	1.43165400e-02	1.41221839e-04
4.79000000e-01	1.43871772e-02	1.41555329e-04
4.80000000e-01	1.44694459e-02	1.42061092e-04
4.81000000e-01	1.45200394e-02	1.42816283e-04
4.82000000e-01	1.44061911e-02	1.41640390e-04
4.83000000e-01	1.45708346e-02	1.43136320e-04
4.84000000e-01	1.44571906e-02	1.42378409e-04
4.85000000e-01	1.44351198e-02	1.42008638e-04
4.86000000e-01	1.44586865e-02	1.42574635e-04
4.87000000e-01	1.43461546e-02	1.41635819e-04
4.88000000e-01	1.42880809e-02	1.40538736e-04
4.89000000e-01	1.44225072e-02	1.41996400e-04
4.90000000e-01	1.42627797e-02	1.41020508e-04
4.91000000e-01	1.44385254e-02	1.42459044e-04
4.92000000e-01	1.42945717e-02	1.41176704e-04
4.93000000e-01	1.43707258e-02	1.42032059e-04
4.94000000e-01	1.43453062e-02	1.42045000e-04
4.95000000e-01	1.44281633e-02	1.43927734e-04
4.96000000e-01	1.43210066e-02	1.47031813e-04
4.97000000e-01	1.43470110e-02	1.48952834e-04
4.98000000e-01	1.43878365e-02	1.52047569e-04
4.99000000e-01	1.43478828e-02	1.54026407e-04
5.00000000e-01	1.45121408e-02	1.56943217e-04
5.01000000e-01	1.43098889e-02	1.56664168e-04
5.02000000e-01	1.43559700e-02	1.58068081e-04
5.03000000e-01	1.42280609e-02	1.58930639e-04
5.04000000e-01	1.44149852e-02	1.61844676e-04
5.05000000e-01	1.43773635e-02	1.59134210e-04
5.06000000e-01	1.42516048e-02	1.54794898e-04
5.07000000e-01	1.43925053e-02	1.53987681e-04
5.08000000e-01	1.43847789e-02	1.53390200e-04
5.09000000e-01	1.41101881e-02	1.49798086e-04
5.10000000e-01	1.42083559e-02	1.50484299e-04
5.11000000e-01	1.42502203e-02	1.50272484e-04
5.12000000e-01	1.41639619e-02	1.49001429e-04
5.13000000e-01	1.43267903e-02	1.50431520e-04
5.14000000e-01	1.41787229e-02	1.48797754e-04
5.15000000e-01	1.40829389e-02	1.47011313e-04
5.16000000e-01	1.40586606e-02	1.46490814e-04
5.17000000e-01	1.41623050e-02	1.47972938e-04
5.18000000e-01	1.42732274e-02	1.48109280e-04
5.19000000e-01	1.42492789e-02	1.47854767e-04
5.20000000e-01	1.40988772e-02	1.46205075e-04
5.21000000e-01	1.41333648e-02	1.46261605e-04
5.22000000e-01	1.41793910e-02	1.46115073e-04
5.23000000e-01	1.41075341e-02	1.45568288e-04
5.24000000e-01	1.41066791e-02	1.45638463e-04
5.25000000e-01	1.40191665e-02	1.44633297e-04
5.26000000e-01	1.40872209e-02	1.45583731e-04
5.27000000e-01	1.40535287e-02	1.44912961e-04
5.28000000e-01	1.41350767e-02	1.45643683e-04
5.29000000e-01	1.40851667e-02	1.45137659e-04
5.30000000e-01	1.40925630e-02	1.45392772e-04
5.31000000e-01	1.40400923e-02	1.44586052e-04
5.32000000e-01	1.40087113e-02	1.45052672e-04
5.33000000e-01	1.39678909e-02	1.44422509e-04
5.34000000e-01	1.38629003e-02	1.43585621e-04
5.35000000e-01	1.40332956e-02	1.45065430e-04
5.36000000e-01	1.39452467e-02	1.44243696e-04
5.37000000e-01	1.38663191e-02	1.43174307e-04
5.38000000e-01	1.39057992e-02	1.43598035e-04
5.39000000e-01	1.38855545e-02	1.43506093e-04
5.40000000e-01	1.39658031e-02	1.44553850e-04
5.41000000e-01	1.39784945e-02	1.44064546e-04
5.42000000e-01	1.37887664e-02	1.42443534e-04
5.43000000e-01	1.40560964e-02	1.45189267e-04
5.44000000e-01	1.38121530e-02	1.43060475e-04
5.45000000e-01	1.39207688e-02	1.44090229e-04
5.46000000e-01	1.39580066e-02	1.43854115e-04
5.47000000e-01	1.38380371e-02	1.42948947e-04
5.48000000e-01	1.39491722e-02	1.43758759e-04
5.49000000e-01	1.38465096e-02	1.42829156e-04
5.50000000e-01	1.37183659e-02	1.41751437e-04
5.51000000e-01	1.37533190e-02	1.41472858e-04
5.52000000e-01	1.38281464e-02	1.41911880e-04
5.53000000e-01	1.37086853e-02	1.40888387e-04
5.54000000e-01	1.37045536e-02	1.40763128e-04
5.55000000e-01	1.37177971e-02	1.40944944e-04
5.56000000e-01	1.37351003e-02	1.41033043e-04
5.57000000e-01	1.36395276e-02	1.40345831e-04
5.58000000e-01	1.37133419e-02	1.40771033e-04
5.59000000e-01	1.38481866e-02	1.41799563e-04
5.60000000e-01	1.35646788e-02	1.39845742e-04
5.61000000e-01	1.35313097e-02	1.38884450e-04
5.62000000e-01	1.37195574e-02	1.41003686e-04
5.63000000e-01	1.35416812e-02	1.38871097e-04
5.64000000e-01	1.36312136e-02	1.39722512e-04
5.65000000e-01	1.36938520e-02	1.40976442e-04
5.66000000e-01	1.35534831e-02	1.39370457e-04
5.67000000e-01	1.35807075e-02	1.39990388e-04
5.68000000e-01	1.36727207e-02	1.40866451e-04
5.69000000e-01	1.35842041e-02	1.39603589e-04
5.70000000e-01	1.34760028e-02	1.38354804e-04
5.71000000e-01	1.35632952e-02	1.39480965e-04
5.72000000e-01	1.36571778e-02	1.40374189e-04
5.73000000e-01	1.34711743e-02	1.38635059e-04
5.74000000e-01	1.36658620e-02	1.40106178e-04
5.75000000e-01	1.36457285e-02	1.39920487e-04
5.76000000e-01	1.35679579e-02	1.39892293e-04
5.77000000e-01	1.35440254e-02	1.39372950e-04
5.78000000e-01	1.35159746e-02	1.39231115e-04
5.79000000e-01	1.34992068e-02	1.39023439e-04
5.80000000e-01	1.35180888e-02	1.39633317e-04
5.81000000e-01	1.34897769e-02	1.38733278e-04
5.82000000e-01	1.35376272e-02	1.39117734e-04
5.83000000e-01	1.34903791e-02	1.38689812e-04
5.84000000e-01	1.34255649e-02	1.38546039e-04
5.85000000e-01	1.33507750e-02	1.37762668e-04
5.86000000e-01	1.35150186e-02	1.39637386e-04
5.87000000e-01	1.33708024e-02	1.37687517e-04
5.88000000e-01	1.34465627e-02	1.38761483e-04
5.89000000e-01	1.34452740e-02	1.38864058e-04
5.90000000e-01	1.33498744e-02	1.38209249e-04
5.91000000e-01	1.33943168e-02	1.37948413e-04
5.92000000e-01	1.33469824e-02	1.37554604e-04
5.93000000e-01	1.33973182e-02	1.38582845e-04
5.94000000e-01	1.33130967e-02	1.37837326e-04
5.95000000e-01	1.33016516e-02	1.37328758e-04
5.96000000e-01	1.32999100e-02	1.37251784e-04
5.97000000e-01	1.33770519e-02	1.38084251e-04
5.98000000e-01	1.33600975e-02	1.38451523e-04
5.99000000e-01	1.32006021e-02	1.36863618e-04
6.00000000e-01	1.32276494e-02	1.36829830e-04
6.01000000e-01	1.32748730e-02	1.37307120e-04
6.02000000e-01	1.33498698e-02	1.37655423e-04
6.03000000e-01	1.31354530e-02	1.36002962e-04
6.04000000e-01	1.32652346e-02	1.37368586e-04
6.05000000e-01	1.32700090e-02	1.37390920e-04
6.06000000e-01	1.32578125e-02	1.37517677e-04
6.07000000e-01	1.34264720e-02	1.38829256e-04
6.08000000e-01	1.32643611e-02	1.37484120e-04
6.09000000e-01	1.30322689e-02	1.35235890e-04
6.10000000e-01	1.31605726e-02	1.36567937e-04
6.11000000e-01	1.33128837e-02	1.37795769e-04
6.12000000e-01	1.31877833e-02	1.36680545e-04
6.13000000e-01	1.31236536e-02	1.36157248e-04
6.14000000e-01	1.31302424e-02	1.36361720e-04
6.15000000e-01	1.31895872e-02	1.36740995e-04
6.16000000e-01	1.31918859e-02	1.37144780e-04
6.17000000e-01	1.32581861e-02	1.37768083e-04
6.18000000e-01	1.30957011e-02	1.36249988e-04
6.19000000e-01	1.31426005e-02	1.36543626e-04
6.20000000e-01	1.30835296e-02	1.35352401e-04
6.21000000e-01	1.31692136e-02	1.36183647e-04
6.22000000e-01	1.31237563e-02	1.35416792e-04
6.23000000e-01	1.30171787e-02	1.34271763e-04
6.24000000e-01	1.31612085e-02	1.35590080e-04
6.25000000e-01	1.31493902e-02	1.34940211e-04
6.26000000e-01	1.31388802e-02	1.35045004e-04
6.27000000e-01	1.30955450e-02	1.35034868e-04
6.28000000e-01	1.32022296e-02	1.35735601e-04
6.29000000e-01	1.30200444e-02	1.34346851e-04
6.30000000e-01	1.29000524e-02	1.32540480e-04
6.31000000e-01	1.30291091e-02	1.34354010e-04
6.32000000e-01	1.30339401e-02	1.34156403e-04
6.33000000e-01	1.30321872e-02	1.34666814e-04
6.34000000e-01	1.31360826e-02	1.38362839e-04
6.35000000e-01	1.30584376e-02	1.41847520e-04
6.36000000e-01	1.30843817e-02	1.45426591e-04
6.37000000e-01	1.31080192e-02	1.47487936e-04
6.38000000e-01	1.31091772e-02	1.49848324e-04
6.39000000e-01	1.30658748e-02	1.50522329e-04
6.40000000e-01	1.32129232e-02	1.54279960e-04
6.41000000e-01	1.29512149e-02	1.53312496e-04
6.42000000e-01	1.31060991e-02	1.56307275e-04
6.43000000e-01	1.30531871e-02	1.55314999e-04
6.44000000e-01	1.31040928e-02	1.50823474e-04
6.45000000e-01	1.32530848e-02	1.50179814e-04
6.46000000e-01	1.31843239e-02	1.47822833e-04
6.47000000e-01	1.30724497e-02	1.45772901e-04
6.48000000e-01	1.30072489e-02	1.44087895e-04
6.49000000e-01	1.30794609e-02	1.44202450e-04
6.50000000e-01	1.29436341e-02	1.42300944e-04
6.51000000e-01	1.30374581e-02	1.42280512e-04
6.52000000e-01	1.30720375e-02	1.42146400e-04
6.53000000e-01	1.30006216e-02	1.40792403e-04
6.54000000e-01	1.30959528e-02	1.41370184e-04
6.55000000e-01	1.30219181e-02	1.40374985e-04
6.56000000e-01	1.28563603e-02	1.38640169e-04
6.57000000e-01	1.30181945e-02	1.40030256e-04
6.58000000e-01	1.31550464e-02	1.40865558e-04
6.59000000e-01	1.30070467e-02	1.40055150e-04
6.60000000e-01	1.30611517e-02	1.39934569e-04
6.61000000e-01	1.30442861e-02	1.39433896e-04
6.62000000e-01	1.28874948e-02	1.38919933e-04
6.63000000e-01	1.29800505e-02	1.39214386e-04
6.64000000e-01	1.29218350e-02	1.38240215e-04
6.65000000e-01	1.29534294e-02	1.38738995e-04
6.66000000e-01	1.29839063e-02	1.38928879e-04
6.67000000e-01	1.29283571e-02	1.38543167e-04
6.68000000e-01	1.30301246e-02	1.39118486e-04
6.69000000e-01	1.27755977e-02	1.36726649e-04
6.70000000e-01	1.27219027e-02	1.36365341e-04
6.71000000e-01	1.29800902e-02	1.38787526e-04
6.72000000e-01	1.28841178e-02	1.37343672e-04
6.73000000e-01	1.28847170e-02	1.37726768e-04
6.74000000e-01	1.28746417e-02	1.37803595e-04
6.75000000e-01	1.28364414e-02	1.37519284e-04
6.76000000e-01	1.27860469e-02	1.36589714e-04
6.77000000e-01	1.29852593e-02	1.38426106e-04
6.78000000e-01	1.28009418e-02	1.36437608e-04
6.79000000e-01	1.27833824e-02	1.36390197e-04
6.80000000e-01	1.26713355e-02	1.35219810e-04
6.81000000e-01	1.26648886e-02	1.34888881e-04
6.82000000e-01	1.28506004e-02	1.36913097e-04
6.83000000e-01	1.28644444e-02	1.37171991e-04
6.84000000e-01	1.28767639e-02	1.37124102e-04
6.85000000e-01	1.27613808e-02	1.35917884e-04
6.86000000e-01	1.29084191e-02	1.37281436e-04
6.87000000e-01	1.26222011e-02	1.34981046e-04
6.88000000e-01	1.27294467e-02	1.35658225e-04
6.89000000e-01	1.26796408e-02	1.34943895e-04
6.90000000e-01	1.27519927e-02	1.36225284e-04
6.91000000e-01	1.26187302e-02	1.34348526e-04
6.92000000e-01	1.26439035e-02	1.34687061e-04
6.93000000e-01	1.27467810e-02	1.35873984e-04
6.94000000e-01	1.26124708e-02	1.34231813e-04
6.95000000e-01	1.26875420e-02	1.34864842e-04
6.96000000e-01	1.26972323e-02	1.35527831e-04
6.97000000e-01	1.26663298e-02	1.34969112e-04
6.98000000e-01	1.26107056e-02	1.34062352e-04
6.99000000e-01	1.26706118e-02	1.35083218e-04
7.00000000e-01	1.27801674e-02	1.35585437e-04
7.01000000e-01	1.25439582e-02	1.33695345e-04
7.02000000e-01	1.25552047e-02	1.33827147e-04
7.03000000e-01	1.25032823e-02	1.33453915e-04
7.04000000e-01	1.26297692e-02	1.34480419e-04
7.05000000e-01	1.26420024e-02	1.34174017e-04
7.06000000e-01	1.25128733e-02	1.33170258e-04
7.07000000e-01	1.25635259e-02	1.33573429e-04
7.08000000e-01	1.24613948e-02	1.31868789e-04
7.09000000e-01	1.25783418e-02	1.33387822e-04
7.10000000e-01	1.25392374e-02	1.33200488e-04
7.11000000e-01	1.26177645e-02	1.33690114e-04
7.12000000e-01	1.25953193e-02	1.34015579e-04
7.13000000e-01	1.23536694e-02	1.31764645e-04
7.14000000e-01	1.25303653e-02	1.32842828e-04
7.15000000e-01	1.24423159e-02	1.32320563e-04
7.16000000e-01	1.23886714e-02	1.31890515e-04
7.17000000e-01	1.23489328e-02	1.31728552e-04
7.18000000e-01	1.22463243e-02	1.30108417e-04
7.19000000e-01	1.24437100e-02	1.32545978e-04
7.20000000e-01	1.24523415e-02	1.32498324e-04
7.21000000e-01	1.23163089e-02	1.31223719e-04
7.22000000e-01	1.22817110e-02	1.30901521e-04
7.23000000e-01	1.24443580e-02	1.32863669e-04
7.24000000e-01	1.23453549e-02	1.31371288e-04
7.25000000e-01	1.22608090e-02	1.30907097e-04
7.26000000e-01	1.24118732e-02	1.32047875e-04
7.27000000e-01	1.23692698e-02	1.31551029e-04
7.28000000e-01	1.22713265e-02	1.31096031e-04
7.29000000e-01	1.23342819e-02	1.31722588e-04
7.30000000e-01	1.22976448e-02	1.31588749e-04
7.31000000e-01	1.22152787e-02	1.30209419e-04
7.32000000e-01	1.23390652e-02	1.31478800e-04
7.33000000e-01	1.21829213e-02	1.30052000e-04
7.34000000e-01	1.23346778e-02	1.30960674e-04
7.35000000e-01	1.20967674e-02	1.28927541e-04
7.36000000e-01	1.22158171e-02	1.30079331e-04
7.37000000e-01	1.21223021e-02	1.28517056e-04
7.38000000e-01	1.21697430e-02	1.28856668e-04
7.39000000e-01	1.21961393e-02	1.28811531e-04
7.40000000e-01	1.22022331e-02	1.28763159e-04
7.41000000e-01	1.22351083e-02	1.29015616e-04
7.42000000e-01	1.21113983e-02	1.28242971e-04
7.43000000e-01	1.20647921e-02	1.26910963e-04
7.44000000e-01	1.21322109e-02	1.27958688e-04
7.45000000e-01	1.22556218e-02	1.28701941e-04
7.46000000e-01	1.21969680e-02	1.28870207e-04
7.47000000e-01	1.20866906e-02	1.27723846e-04
7.48000000e-01	1.21464155e-02	1.28246004e-04
7.49000000e-01	1.21107363e-02	1.27591475e-04
7.50000000e-01	1.21191576e-02	1.28236611e-04
7.51000000e-01	1.21439998e-02	1.28120358e-04
7.52000000e-01	1.20749988e-02	1.27347831e-04
7.53000000e-01	1.21672204e-02	1.28399692e-04
7.54000000e-01	1.19458230e-02	1.26374679e-04
7.55000000e-01	1.18792154e-02	1.25352634e-04
7.56000000e-01	1.20612517e-02	1.27140207e-04
7.57000000e-01	1.19774603e-02	1.27171152e-04
7.58000000e-01	1.20458342e-02	1.27374444e-04
7.59000000e-01	1.20124502e-02	1.26789143e-04
7.60000000e-01	1.20134630e-02	1.26652100e-04
7.61000000e-01	1.19292316e-02	1.25533602e-04
7.62000000e-01	1.18615269e-02	1.25283129e-04
7.63000000e-01	1.20277504e-02	1.26414576e-04
7.64000000e-01	1.19817967e-02	1.25526193e-04
7.65000000e-01	1.18824009e-02	1.24528831e-04
7.66000000e-01	1.19207393e-02	1.25244159e-04
7.67000000e-01	1.19723521e-02	1.25840074e-04
7.68000000e-01	1.18746001e-02	1.24066274e-04
7.69000000e-01	1.18481336e-02	1.23940578e-04
7.70000000e-01	1.17617575e-02	1.23570024e-04
7.71000000e-01	1.19179071e-02	1.25272500e-04
7.72000000e-01	1.17912534e-02	1.27286212e-04
7.73000000e-01	1.17615212e-02	1.31918017e-04
7.74000000e-01	1.18847008e-02	1.34958694e-04
7.75000000e-01	1.18030787e-02	1.36423335e-04
7.76000000e-01	1.17587592e-02	1.38460547e-04
7.77000000e-01	1.17325374e-02	1.39804253e-04
7.78000000e-01	1.18691090e-02	1.43540117e-04
7.79000000e-01	1.17878801e-02	1.43569329e-04
7.80000000e-01	1.18743923e-02	1.47223360e-04
7.81000000e-01	1.16548880e-02	1.45536923e-04
7.82000000e-01	1.17068241e-02	1.48237305e-04
7.83000000e-01	1.17778359e-02	1.50761076e-04
7.84000000e-01	1.16762500e-02	1.50442452e-04
7.85000000e-01	1.16632839e-02	1.52438106e-04
7.86000000e-01	1.14612406e-02	1.52211288e-04
7.87000000e-01	1.17429544e-02	1.55816208e-04
7.88000000e-01	1.17744920e-02	1.58267043e-04
7.89000000e-01	1.15862283e-02	1.57124718e-04
7.90000000e-01	1.16031032e-02	1.59569721e-04
7.91000000e-01	1.17745486e-02	1.63429156e-04
7.92000000e-01	1.16823421e-02	1.63839643e-04
7.93000000e-01	1.17397449e-02	1.65592010e-04
7.94000000e-01	1.16241016e-02	1.66560260e-04
7.95000000e-01	1.16647399e-02	1.68568038e-04
7.96000000e-01	1.15638240e-02	1.68579020e-04
7.97000000e-01	1.13778039e-02	1.67837906e-04
7.98000000e-01	1.14732409e-02	1.72177533e-04
7.99000000e-01	1.14954294e-02	1.72969697e-04
8.00000000e-01	1.16163829e-02	1.76902739e-04
8.01000000e-01	1.14378442e-02	1.75952241e-04
8.02000000e-01	1.14650984e-02	1.77540004e-04
8.03000000e-01	1.14703140e-02	1.81184464e-04
8.04000000e-01	1.14023873e-02	1.81739190e-04
8.05000000e-01	1.13692514e-02	1.82428048e-04
8.06000000e-01	1.14590190e-02	1.85966169e-04
8.07000000e-01	1.15312851e-02	1.89659035e-04
8.08000000e-01	1.13762007e-02	1.89146724e-04
8.09000000e-01	1.14379081e-02	1.90359070e-04
8.10000000e-01	1.15053042e-02	1.94747273e-04
8.11000000e-01	1.12745608e-02	1.94073724e-04
8.12000000e-01	1.14451879e-02	1.97525781e-04
8.13000000e-01	1.14411018e-02	2.00210376e-04
8.14000000e-01	1.13204869e-02	1.99103342e-04
8.15000000e-01	1.13918626e-02	2.04606744e-04
8.16000000e-01	1.12641603e-02	2.04778835e-04
8.17000000e-01	1.12652346e-02	2.07297190e-04
8.18000000e-01	1.11298307e-02	2.08241563e-04
8.19000000e-01	1.12853248e-02	2.12352363e-04
8.20000000e-01	1.11821100e-02	2.14268697e-04
8.21000000e-01	1.13040172e-02	2.19457687e-04
8.22000000e-01	1.11420043e-02	2.19375958e-04
8.23000000e-01	1.11483388e-02	2.23011985e-04
8.24000000e-01	1.11691984e-02	2.25508465e-04
8.25000000e-01	1.11144800e-02	2.28285855e-04
8.26000000e-01	1.12294803e-02	2.34382387e-04
8.27000000e-01	1.12030437e-02	2.36181278e-04
8.28000000e-01	1.09967647e-02	2.35887031e-04
8.29000000e-01	1.09701798e-02	2.39488973e-04
8.30000000e-01	1.10566122e-02	2.42505346e-04
8.31000000e-01	1.11384111e-02	2.50062738e-04
8.32000000e-01	1.13442253e-02	2.59216834e-04
8.33000000e-01	1.09527674e-02	2.54595200e-04
8.34000000e-01	1.10025205e-02	2.60086939e-04
8.35000000e-01	1.09353368e-02	2.63260016e-04
8.36000000e-01	1.11137284e-02	2.72236375e-04
8.37000000e-01	1.09556929e-02	2.75597996e-04
8.38000000e-01	1.10018084e-02	2.79836519e-04
8.39000000e-01	1.09482158e-02	2.83159339e-04
8.40000000e-01	1.09350454e-02	2.91231791e-04
8.41000000e-01	1.06271970e-02	2.90086590e-04
8.42000000e-01	1.11930003e-02	3.09997794e-04
8.43000000e-01	1.07924787e-02	3.06473609e-04
8.44000000e-01	1.10010627e-02	3.20234400e-04
8.45000000e-01	1.06478425e-02	3.17977580e-04
8.46000000e-01	1.12258850e-02	3.44928456e-04
8.47000000e-01	1.06014617e-02	3.34466542e-04
8.48000000e-01	1.06443910e-02	3.51755581e-04
8.49000000e-01	1.04547198e-02	3.55542119e-04
8.50000000e-01	1.05052518e-02	3.66583381e-04
8.51000000e-01	1.04732770e-02	3.75042751e-04
8.52000000e-01	1.05951872e-02	4.03468272e-04
8.53000000e-01	1.09436894e-02	4.23077480e-04
8.54000000e-01	1.07544328e-02	4.50129568e-04
8.55000000e-01	1.07140298e-02	4.55175524e-04
8.56000000e-01	1.08476643e-02	4.71535681e-04
8.57000000e-01	1.06164061e-02	4.76612242e-04
8.58000000e-01	1.07691329e-02	4.95815965e-04
8.59000000e-01	1.00795647e-02	4.76407148e-04
8.60000000e-01	1.12098490e-02	5.46856119e-04
8.61000000e-01	1.01835726e-02	5.22177147e-04
8.62000000e-01	1.08799731e-02	5.70072139e-04
8.63000000e-01	1.05303011e-02	5.70677004e-04
8.64000000e-01	1.05065065e-02	5.99636478e-04
8.65000000e-01	1.09359030e-02	6.51834079e-04
8.66000000e-01	1.00948246e-02	6.38855301e-04
8.67000000e-01	1.01936714e-02	6.89523242e-04
8.68000000e-01	1.01435058e-02	7.22234687e-04
8.69000000e-01	1.08484793e-02	8.35325868e-04
8.70000000e-01	1.06141239e-02	8.68427858e-04
8.71000000e-01	9.94096974e-03	9.37354494e-04
8.72000000e-01	9.95142353e-03	1.05516033e-03
8.73000000e-01	1.07711631e-02	1.35249724e-03
8.74000000e-01	1.12193532e-02	1.84027675e-03
8.75000000e-01	8.90986780e-03	2.84615216e-03
