% Filename : SEC7_00039_00011.h5
% Date & Time : 30-Oct-2025 17:48:17
% X-ray Energy (keV) : 13.30001
% Exposure Time (s) : 0.500
% Beam Center : 1461.24000, 208.98300
% Sample to Detector Distance (SDD) (mm) : 1990.750
% Detector Pixel Size (mm) : 0.075
% Photodiode Value : 142119.000
% I0 of Sample : 0
% I0 of Standard : 1
% 
% q(A^-1)   I(q)    I(q)_SE
0.00000000e+00	1.39835778e-02	8.33603046e-03
2.50000000e-04	0.00000000e+00	0.00000000e+00
5.00000000e-04	0.00000000e+00	0.00000000e+00
7.50000000e-04	0.00000000e+00	0.00000000e+00
1.00000000e-03	0.00000000e+00	0.00000000e+00
1.25000000e-03	0.00000000e+00	0.00000000e+00
1.50000000e-03	0.00000000e+00	0.00000000e+00
1.75000000e-03	0.00000000e+00	0.00000000e+00
2.00000000e-03	0.00000000e+00	0.00000000e+00
2.25000000e-03	0.00000000e+00	0.00000000e+00
2.50000000e-03	0.00000000e+00	0.00000000e+00
2.75000000e-03	0.00000000e+00	0.00000000e+00
3.00000000e-03	0.00000000e+00	0.00000000e+00
3.25000000e-03	3.85524893e+00	2.26543724e+00
3.50000000e-03	4.67848738e+00	1.01757443e+00
3.75000000e-03	3.89890244e+00	6.81323122e-01
4.00000000e-03	3.45457678e+00	5.49302031e-01
4.25000000e-03	2.79457913e+00	3.78094984e-01
4.50000000e-03	4.29357701e+00	7.06680218e-01
4.75000000e-03	4.15861379e+00	6.32158991e-01
5.00000000e-03	3.12554275e+00	4.37946045e-01
5.25000000e-03	2.59288411e+00	3.51644625e-01
5.50000000e-03	2.12513914e+00	2.76100087e-01
5.75000000e-03	1.78104761e+00	2.25760212e-01
6.00000000e-03	1.49574734e+00	1.77296873e-01
6.25000000e-03	1.25842970e+00	1.45878921e-01
6.50000000e-03	1.06380893e+00	1.19304720e-01
6.75000000e-03	9.02662858e-01	9.83543005e-02
7.00000000e-03	8.16500596e-01	8.54783833e-02
7.25000000e-03	6.98971766e-01	7.10002139e-02
7.50000000e-03	6.08176811e-01	6.14986505e-02
7.75000000e-03	5.30594542e-01	5.12365416e-02
8.00000000e-03	4.78765800e-01	4.55840906e-02
8.25000000e-03	4.26527658e-01	3.92873742e-02
8.50000000e-03	3.86708097e-01	3.46018295e-02
8.75000000e-03	3.44378743e-01	3.05569211e-02
9.00000000e-03	3.06297176e-01	2.64990823e-02
9.25000000e-03	2.77523835e-01	2.28543513e-02
9.50000000e-03	2.45531198e-01	1.98863505e-02
9.75000000e-03	2.29170344e-01	1.84853456e-02
1.00000000e-02	2.06051728e-01	1.61837905e-02
1.02500000e-02	1.93275315e-01	1.52630517e-02
1.05000000e-02	1.80896762e-01	1.35733413e-02
1.07500000e-02	1.61585205e-01	1.22328151e-02
1.10000000e-02	1.49424123e-01	1.07682162e-02
1.12500000e-02	1.38182047e-01	1.00882189e-02
1.15000000e-02	1.28145006e-01	9.21750606e-03
1.17500000e-02	1.20333164e-01	8.34542333e-03
1.20000000e-02	1.09777965e-01	7.58112395e-03
1.22500000e-02	1.06269375e-01	7.12594543e-03
1.25000000e-02	1.02964409e-01	6.95208391e-03
1.27500000e-02	9.33886956e-02	6.21565708e-03
1.30000000e-02	8.62301522e-02	5.65541322e-03
1.32500000e-02	8.35758425e-02	5.28216497e-03
1.35000000e-02	8.21982965e-02	5.26752442e-03
1.37500000e-02	7.61635618e-02	4.84841887e-03
1.40000000e-02	7.27356304e-02	4.46267960e-03
1.42500000e-02	6.93149711e-02	4.21227238e-03
1.45000000e-02	6.48629602e-02	3.95208424e-03
1.47500000e-02	6.19759877e-02	3.74856228e-03
1.50000000e-02	5.76054750e-02	3.42758641e-03
1.52500000e-02	5.70253342e-02	3.32736663e-03
1.55000000e-02	5.41330836e-02	3.11552382e-03
1.57500000e-02	5.02596927e-02	2.83940527e-03
1.60000000e-02	5.05400282e-02	2.83737488e-03
1.62500000e-02	4.83423800e-02	2.74036023e-03
1.65000000e-02	4.51870258e-02	2.50586636e-03
1.67500000e-02	4.46931952e-02	2.44295146e-03
1.70000000e-02	4.35758176e-02	2.38930672e-03
1.72500000e-02	4.23686406e-02	2.29990120e-03
1.75000000e-02	4.27507548e-02	2.31974087e-03
1.77500000e-02	3.93516908e-02	2.08183813e-03
1.80000000e-02	3.92409512e-02	2.09460679e-03
1.82500000e-02	3.77628972e-02	1.94431864e-03
1.85000000e-02	3.63471362e-02	1.92961266e-03
1.87500000e-02	3.61352635e-02	1.87070548e-03
1.90000000e-02	3.47702010e-02	1.79327139e-03
1.92500000e-02	3.48554846e-02	1.76985742e-03
1.95000000e-02	3.28191973e-02	1.67227144e-03
1.97500000e-02	3.27546443e-02	1.67875130e-03
2.00000000e-02	3.24637630e-02	1.63765175e-03
2.02500000e-02	3.11827083e-02	1.56827265e-03
2.05000000e-02	3.14686171e-02	1.55215379e-03
2.07500000e-02	2.98870860e-02	1.47313094e-03
2.10000000e-02	2.96834509e-02	1.46925441e-03
2.12500000e-02	2.94864297e-02	1.46977343e-03
2.15000000e-02	3.06002815e-02	1.50962406e-03
2.17500000e-02	2.92277069e-02	1.45132937e-03
2.20000000e-02	2.87620656e-02	1.44151266e-03
2.22500000e-02	2.85368167e-02	1.41985519e-03
2.25000000e-02	2.89137081e-02	1.44338372e-03
2.27500000e-02	2.82763377e-02	1.39663925e-03
2.30000000e-02	2.71828072e-02	1.35954262e-03
2.32500000e-02	2.88029179e-02	1.42062206e-03
2.35000000e-02	2.76446176e-02	1.40257060e-03
2.37500000e-02	2.74111055e-02	1.35979998e-03
2.40000000e-02	2.71832007e-02	1.36130320e-03
2.42500000e-02	2.69124210e-02	1.34565198e-03
2.45000000e-02	2.67811156e-02	1.33562101e-03
2.47500000e-02	2.61407546e-02	1.27544488e-03
2.50000000e-02	2.66126541e-02	1.30522580e-03
2.52500000e-02	2.59833826e-02	1.29689390e-03
2.55000000e-02	2.59409575e-02	1.26056493e-03
2.57500000e-02	2.56556406e-02	1.26056242e-03
2.60000000e-02	2.52796503e-02	1.22683711e-03
2.62500000e-02	2.49294837e-02	1.22793098e-03
2.65000000e-02	2.51813075e-02	1.22739010e-03
2.67500000e-02	2.56335641e-02	1.24277162e-03
2.70000000e-02	2.47878716e-02	1.21517081e-03
2.72500000e-02	2.51714477e-02	1.21555135e-03
2.75000000e-02	2.44494246e-02	1.20451113e-03
2.77500000e-02	2.49561263e-02	1.21515804e-03
2.80000000e-02	2.43732135e-02	1.17030293e-03
2.82500000e-02	2.49579023e-02	1.18790792e-03
2.85000000e-02	2.46264856e-02	1.17708999e-03
2.87500000e-02	2.41646566e-02	1.15794687e-03
2.90000000e-02	2.58140025e-02	1.23919179e-03
2.92500000e-02	2.53026980e-02	1.18182189e-03
2.95000000e-02	2.40986451e-02	1.16444626e-03
2.97500000e-02	2.47879993e-02	1.17224965e-03
3.00000000e-02	2.49750909e-02	1.19430778e-03
3.02500000e-02	2.51141820e-02	1.20508412e-03
3.05000000e-02	2.39157823e-02	1.11789654e-03
3.07500000e-02	2.47971791e-02	1.17149433e-03
3.10000000e-02	2.43696210e-02	1.14077239e-03
3.12500000e-02	2.38892170e-02	1.14200839e-03
3.15000000e-02	2.51944490e-02	1.16640871e-03
3.17500000e-02	2.49536444e-02	1.13955477e-03
3.20000000e-02	2.38557573e-02	1.12348507e-03
3.22500000e-02	2.45290792e-02	1.14894959e-03
3.25000000e-02	2.41695565e-02	1.12216204e-03
3.27500000e-02	2.37107877e-02	1.08630058e-03
3.30000000e-02	2.34384441e-02	1.08468741e-03
3.32500000e-02	2.35057359e-02	1.08738215e-03
3.35000000e-02	2.43993591e-02	1.13125820e-03
3.37500000e-02	2.22663514e-02	1.03230389e-03
3.40000000e-02	2.37104723e-02	1.09115021e-03
3.42500000e-02	2.30176468e-02	1.05503391e-03
3.45000000e-02	2.27640185e-02	1.03766988e-03
3.47500000e-02	2.28136770e-02	1.04303260e-03
3.50000000e-02	2.27225878e-02	1.03637489e-03
3.52500000e-02	2.35615677e-02	1.06876401e-03
3.55000000e-02	2.23667425e-02	1.00329384e-03
3.57500000e-02	2.27918338e-02	1.03832471e-03
3.60000000e-02	2.27170957e-02	1.01826187e-03
3.62500000e-02	2.17085857e-02	9.91448303e-04
3.65000000e-02	2.18565852e-02	9.80662359e-04
3.67500000e-02	2.24275820e-02	1.00757193e-03
3.70000000e-02	2.21107617e-02	9.88148953e-04
3.72500000e-02	2.16313198e-02	9.72722362e-04
3.75000000e-02	2.23989840e-02	1.00595485e-03
3.77500000e-02	2.22655466e-02	9.93978811e-04
3.80000000e-02	2.13825306e-02	9.53306414e-04
3.82500000e-02	2.24075260e-02	9.90159599e-04
3.85000000e-02	2.13420888e-02	9.49944037e-04
3.87500000e-02	2.15925020e-02	9.48574407e-04
3.90000000e-02	2.19487469e-02	9.71928487e-04
3.92500000e-02	2.19830117e-02	9.57253707e-04
3.95000000e-02	2.17657473e-02	9.64350551e-04
3.97500000e-02	2.21196268e-02	9.69756713e-04
4.00000000e-02	2.17708437e-02	9.46423608e-04
4.02500000e-02	2.24519388e-02	9.79132372e-04
4.05000000e-02	2.15086598e-02	9.24922542e-04
4.07500000e-02	2.09675202e-02	8.93704576e-04
4.10000000e-02	2.21384356e-02	9.62306812e-04
4.12500000e-02	2.19104695e-02	9.51264828e-04
4.15000000e-02	2.13575451e-02	9.18863066e-04
4.17500000e-02	2.16398664e-02	9.26687618e-04
4.20000000e-02	2.17231316e-02	9.19525232e-04
4.22500000e-02	2.11637953e-02	9.02853950e-04
4.25000000e-02	2.22289651e-02	9.51762201e-04
4.27500000e-02	2.18446499e-02	9.31707822e-04
4.30000000e-02	2.18054232e-02	9.17828753e-04
4.32500000e-02	2.14068790e-02	9.01863177e-04
4.35000000e-02	2.18712011e-02	9.37434808e-04
4.37500000e-02	2.14435857e-02	9.03610992e-04
4.40000000e-02	2.21696593e-02	9.37557247e-04
4.42500000e-02	2.18641465e-02	9.13003107e-04
4.45000000e-02	2.13268770e-02	8.81997099e-04
4.47500000e-02	2.08198827e-02	8.72447955e-04
4.50000000e-02	2.15331779e-02	9.07040887e-04
4.52500000e-02	2.13909146e-02	8.77693248e-04
4.55000000e-02	2.13752930e-02	8.88335817e-04
4.57500000e-02	2.16783477e-02	8.95289073e-04
4.60000000e-02	2.14884093e-02	8.94619351e-04
4.62500000e-02	2.11275590e-02	8.82290151e-04
4.65000000e-02	2.12798135e-02	8.72072879e-04
4.67500000e-02	2.08590902e-02	8.55709020e-04
4.70000000e-02	2.13583010e-02	8.76812801e-04
4.72500000e-02	2.14726313e-02	8.73477729e-04
4.75000000e-02	2.11933370e-02	8.69414566e-04
4.77500000e-02	2.14839223e-02	8.73028363e-04
4.80000000e-02	2.12809486e-02	8.64543377e-04
4.82500000e-02	2.15411709e-02	8.70942023e-04
4.85000000e-02	2.16164522e-02	8.88846078e-04
4.87500000e-02	2.14223752e-02	8.62495739e-04
4.90000000e-02	2.13997570e-02	8.57923160e-04
4.92500000e-02	2.09007490e-02	8.39689409e-04
4.95000000e-02	2.05192947e-02	8.24988916e-04
4.97500000e-02	2.18289933e-02	8.76904303e-04
5.00000000e-02	2.01356601e-02	8.10344401e-04
5.02500000e-02	2.05478919e-02	8.26608616e-04
5.05000000e-02	2.16239516e-02	8.57080426e-04
5.07500000e-02	2.11109585e-02	8.38944020e-04
5.10000000e-02	2.09311559e-02	8.35865992e-04
5.12500000e-02	2.05270476e-02	8.20646857e-04
5.15000000e-02	2.12232449e-02	8.36966950e-04
5.17500000e-02	2.09305207e-02	8.29895476e-04
5.20000000e-02	2.11379376e-02	8.31528637e-04
5.22500000e-02	2.12238519e-02	8.35209776e-04
5.25000000e-02	2.06877103e-02	8.11268615e-04
5.27500000e-02	2.13679823e-02	8.31335916e-04
5.30000000e-02	2.08630051e-02	8.19917925e-04
5.32500000e-02	2.10267251e-02	8.27023435e-04
5.35000000e-02	2.13779772e-02	8.39450289e-04
5.37500000e-02	2.10470087e-02	8.13417759e-04
5.40000000e-02	2.10121892e-02	8.20776437e-04
5.42500000e-02	2.03413294e-02	7.91782797e-04
5.45000000e-02	2.10064896e-02	8.20070076e-04
5.47500000e-02	2.07911929e-02	8.03325869e-04
5.50000000e-02	2.10892520e-02	8.14921485e-04
5.52500000e-02	2.01813043e-02	7.74935485e-04
5.55000000e-02	2.11433730e-02	8.10108856e-04
5.57500000e-02	2.08568188e-02	7.98829443e-04
5.60000000e-02	2.12292253e-02	8.05503522e-04
5.62500000e-02	2.04110114e-02	7.79814779e-04
5.65000000e-02	2.07967685e-02	7.91255361e-04
5.67500000e-02	2.06582590e-02	7.96402790e-04
5.70000000e-02	2.08062493e-02	7.86064696e-04
5.72500000e-02	2.12204349e-02	8.05714242e-04
5.75000000e-02	2.05220448e-02	7.82282884e-04
5.77500000e-02	2.08258624e-02	7.82094127e-04
5.80000000e-02	2.03829122e-02	7.69506472e-04
5.82500000e-02	2.00646254e-02	7.59538518e-04
5.85000000e-02	2.04240625e-02	7.73905040e-04
5.87500000e-02	2.07371153e-02	7.86083346e-04
5.90000000e-02	2.06330542e-02	7.76961084e-04
5.92500000e-02	2.02122156e-02	7.59124584e-04
5.95000000e-02	2.09481122e-02	7.84303136e-04
5.97500000e-02	2.01473110e-02	7.57427805e-04
6.00000000e-02	2.03485245e-02	7.60113594e-04
6.02500000e-02	2.05949737e-02	7.70309696e-04
6.05000000e-02	2.04870539e-02	7.61839603e-04
6.07500000e-02	2.06162504e-02	7.69176067e-04
6.10000000e-02	2.06211636e-02	7.60351206e-04
6.12500000e-02	2.00774557e-02	7.44881959e-04
6.15000000e-02	1.97454080e-02	7.27204577e-04
6.17500000e-02	2.05352069e-02	7.51843484e-04
6.20000000e-02	1.97512342e-02	7.28401649e-04
6.22500000e-02	2.06730769e-02	7.53644505e-04
6.25000000e-02	2.04884379e-02	7.46955978e-04
6.27500000e-02	2.06110741e-02	7.49143899e-04
6.30000000e-02	2.01087548e-02	7.38036173e-04
6.32500000e-02	2.05604793e-02	7.54479516e-04
6.35000000e-02	2.04422820e-02	7.49459872e-04
6.37500000e-02	2.02044731e-02	7.38879831e-04
6.40000000e-02	2.01437035e-02	7.39065613e-04
6.42500000e-02	2.03298905e-02	7.34338009e-04
6.45000000e-02	2.00092492e-02	7.19207902e-04
6.47500000e-02	2.05857008e-02	7.45505829e-04
6.50000000e-02	2.10825396e-02	7.56525638e-04
6.52500000e-02	2.03114325e-02	7.30727793e-04
6.55000000e-02	2.05225496e-02	7.39150739e-04
6.57500000e-02	1.99456867e-02	7.13311769e-04
6.60000000e-02	1.98428953e-02	7.12244964e-04
6.62500000e-02	1.97452577e-02	7.07409408e-04
6.65000000e-02	2.01713478e-02	7.23882004e-04
6.67500000e-02	2.01303294e-02	7.15616341e-04
6.70000000e-02	2.01537936e-02	7.26769133e-04
6.72500000e-02	2.06228515e-02	7.34656716e-04
6.75000000e-02	1.99375544e-02	7.06714302e-04
6.77500000e-02	2.02455952e-02	7.16596194e-04
6.80000000e-02	2.06366109e-02	7.31400717e-04
6.82500000e-02	2.02763693e-02	7.17034615e-04
6.85000000e-02	2.01895631e-02	7.12296736e-04
6.87500000e-02	1.96699453e-02	6.94887462e-04
6.90000000e-02	2.01569411e-02	7.03601968e-04
6.92500000e-02	2.03773367e-02	7.22464089e-04
6.95000000e-02	1.96647391e-02	6.95625943e-04
6.97500000e-02	1.98870597e-02	6.99502453e-04
7.00000000e-02	2.03477934e-02	7.13723787e-04
7.02500000e-02	1.97315666e-02	6.91942028e-04
7.05000000e-02	2.02418553e-02	6.99781714e-04
7.07500000e-02	1.99894175e-02	7.02829022e-04
7.10000000e-02	2.03174402e-02	6.99497448e-04
7.12500000e-02	1.98331443e-02	6.87742296e-04
7.15000000e-02	1.98046443e-02	6.88212724e-04
7.17500000e-02	2.00718003e-02	6.97228791e-04
7.20000000e-02	2.01110712e-02	6.99793049e-04
7.22500000e-02	1.99472223e-02	6.88047881e-04
7.25000000e-02	1.98002063e-02	6.87449927e-04
7.27500000e-02	1.99564150e-02	6.87319117e-04
7.30000000e-02	1.98002853e-02	6.87186259e-04
7.32500000e-02	2.01077628e-02	6.85359493e-04
7.35000000e-02	2.02230756e-02	6.92296471e-04
7.37500000e-02	2.00882497e-02	6.88124687e-04
7.40000000e-02	1.97171218e-02	6.79019141e-04
7.42500000e-02	2.01453642e-02	6.89473287e-04
7.45000000e-02	1.97456545e-02	6.75729615e-04
7.47500000e-02	1.99253005e-02	6.77118607e-04
7.50000000e-02	2.03564032e-02	6.92901604e-04
7.52500000e-02	1.98793966e-02	6.76649397e-04
7.55000000e-02	1.99698969e-02	6.74380035e-04
7.57500000e-02	2.01571492e-02	6.83526207e-04
7.60000000e-02	2.00521545e-02	6.81881651e-04
7.62500000e-02	1.99200581e-02	6.73942784e-04
7.65000000e-02	2.01101267e-02	6.81259122e-04
7.67500000e-02	2.03340265e-02	6.84436431e-04
7.70000000e-02	2.02089345e-02	6.77815049e-04
7.72500000e-02	1.96848816e-02	6.75115668e-04
7.75000000e-02	1.98148096e-02	6.83474025e-04
7.77500000e-02	2.01595506e-02	7.00239168e-04
7.80000000e-02	2.04361424e-02	7.15914783e-04
7.82500000e-02	1.98484995e-02	6.98448453e-04
7.85000000e-02	2.00770630e-02	7.07545210e-04
7.87500000e-02	2.03498763e-02	7.16114847e-04
7.90000000e-02	2.02783220e-02	7.19522002e-04
7.92500000e-02	2.01344468e-02	7.14208569e-04
7.95000000e-02	2.03328312e-02	7.23266696e-04
7.97500000e-02	2.00941525e-02	7.18745116e-04
8.00000000e-02	2.05228325e-02	7.31833544e-04
8.02500000e-02	2.01100780e-02	7.25812873e-04
8.05000000e-02	2.02561731e-02	7.23469383e-04
8.07500000e-02	2.02919598e-02	7.31877487e-04
8.10000000e-02	2.02481897e-02	7.27248657e-04
8.12500000e-02	1.92935897e-02	6.95433879e-04
8.15000000e-02	2.03449873e-02	7.30850558e-04
8.17500000e-02	2.03752247e-02	7.37532257e-04
8.20000000e-02	2.00753368e-02	7.30296471e-04
8.22500000e-02	1.95078905e-02	7.13210252e-04
8.25000000e-02	2.01352766e-02	7.32152209e-04
8.27500000e-02	2.00232021e-02	7.26349393e-04
8.30000000e-02	2.01056701e-02	7.36923762e-04
8.32500000e-02	1.99197593e-02	7.33520814e-04
8.35000000e-02	2.02191509e-02	7.48148345e-04
8.37500000e-02	2.01814626e-02	7.35151107e-04
8.40000000e-02	1.96209377e-02	7.25635866e-04
8.42500000e-02	2.02979910e-02	7.45976507e-04
8.45000000e-02	2.00456162e-02	7.38658796e-04
8.47500000e-02	1.97747808e-02	7.31471934e-04
8.50000000e-02	1.98345511e-02	7.26328915e-04
8.52500000e-02	1.97471059e-02	7.36089564e-04
8.55000000e-02	2.00450395e-02	7.37160567e-04
8.57500000e-02	2.00858448e-02	7.40051637e-04
8.60000000e-02	1.99058142e-02	7.36803528e-04
8.62500000e-02	2.00354256e-02	7.41394866e-04
8.65000000e-02	2.00465363e-02	7.38542510e-04
8.67500000e-02	1.97004396e-02	7.28762001e-04
8.70000000e-02	2.01134731e-02	7.27394246e-04
8.72500000e-02	1.96421355e-02	6.99363293e-04
8.75000000e-02	1.96857742e-02	6.94011492e-04
8.77500000e-02	2.00310531e-02	6.99509354e-04
8.80000000e-02	2.02087632e-02	7.15932824e-04
8.82500000e-02	1.96163669e-02	6.87824610e-04
8.85000000e-02	1.97863812e-02	6.94293809e-04
8.87500000e-02	1.99098269e-02	6.84724936e-04
8.90000000e-02	1.95206193e-02	6.80756875e-04
8.92500000e-02	1.94112106e-02	6.70160145e-04
8.95000000e-02	2.01593828e-02	6.87732223e-04
8.97500000e-02	2.11694388e-02	7.13593378e-04
9.00000000e-02	2.04692279e-02	6.93062980e-04
9.02500000e-02	2.00413881e-02	6.82125983e-04
9.05000000e-02	1.96657695e-02	6.63224975e-04
9.07500000e-02	2.03746076e-02	6.85551540e-04
9.10000000e-02	2.01264106e-02	6.73014701e-04
9.12500000e-02	1.97683822e-02	6.61927177e-04
9.15000000e-02	2.00761090e-02	6.71191576e-04
9.17500000e-02	1.99562796e-02	6.68530503e-04
9.20000000e-02	1.97381304e-02	6.60792219e-04
9.22500000e-02	1.98792764e-02	6.57170825e-04
9.25000000e-02	2.01186617e-02	6.69230251e-04
9.27500000e-02	1.96346543e-02	6.51424233e-04
9.30000000e-02	1.98485221e-02	6.55566115e-04
9.32500000e-02	1.93775705e-02	6.45055446e-04
9.35000000e-02	1.94194446e-02	6.35902827e-04
9.37500000e-02	1.99977427e-02	6.59968131e-04
9.40000000e-02	1.95904568e-02	6.49744396e-04
9.42500000e-02	2.05646391e-02	6.64953691e-04
9.45000000e-02	1.97130693e-02	6.41905945e-04
9.47500000e-02	1.93656387e-02	6.32599823e-04
9.50000000e-02	1.97727462e-02	6.46648352e-04
9.52500000e-02	2.03052467e-02	6.55000143e-04
9.55000000e-02	1.99440485e-02	6.49854973e-04
9.57500000e-02	1.99026675e-02	6.42826386e-04
9.60000000e-02	2.03827088e-02	6.57888238e-04
9.62500000e-02	2.03359163e-02	6.59165600e-04
9.65000000e-02	2.01489439e-02	6.52273307e-04
9.67500000e-02	1.98400418e-02	6.33877108e-04
9.70000000e-02	1.94551510e-02	6.24276494e-04
9.72500000e-02	2.01742204e-02	6.47299826e-04
9.75000000e-02	1.98564698e-02	6.40019665e-04
9.77500000e-02	1.99242024e-02	6.35476525e-04
9.80000000e-02	2.00866882e-02	6.38366090e-04
9.82500000e-02	1.96379426e-02	6.25573385e-04
9.85000000e-02	1.99763733e-02	6.32505847e-04
9.87500000e-02	1.94366050e-02	6.15359979e-04
9.90000000e-02	1.94495599e-02	6.20020250e-04
9.92500000e-02	1.93119470e-02	6.14076884e-04
9.95000000e-02	1.93328643e-02	6.11948079e-04
9.97500000e-02	2.00815224e-02	6.33182740e-04
1.00000000e-01	1.97682649e-02	5.08815835e-04
1.00500000e-01	1.97179375e-02	4.40188777e-04
1.01000000e-01	1.96909292e-02	4.35322490e-04
1.01500000e-01	1.96364132e-02	4.36069559e-04
1.02000000e-01	1.99192539e-02	4.39347866e-04
1.02500000e-01	1.96025439e-02	4.28995124e-04
1.03000000e-01	1.99951416e-02	4.37616203e-04
1.03500000e-01	2.01661875e-02	4.40341893e-04
1.04000000e-01	1.96016459e-02	4.26098351e-04
1.04500000e-01	1.98238473e-02	4.29167025e-04
1.05000000e-01	1.98648289e-02	4.31563237e-04
1.05500000e-01	1.98630257e-02	4.31699208e-04
1.06000000e-01	1.96936443e-02	4.26795656e-04
1.06500000e-01	1.98829984e-02	4.24320384e-04
1.07000000e-01	1.97223793e-02	4.28502887e-04
1.07500000e-01	1.99910310e-02	4.42839285e-04
1.08000000e-01	1.96332151e-02	4.40175320e-04
1.08500000e-01	1.98515968e-02	4.47255913e-04
1.09000000e-01	1.92057401e-02	4.34438943e-04
1.09500000e-01	1.94904726e-02	4.45387247e-04
1.10000000e-01	1.98317289e-02	4.47867607e-04
1.10500000e-01	1.95101423e-02	4.31475666e-04
1.11000000e-01	1.97931258e-02	4.30784367e-04
1.11500000e-01	1.93053377e-02	4.16829956e-04
1.12000000e-01	1.96682019e-02	4.20097808e-04
1.12500000e-01	1.96331696e-02	4.15683162e-04
1.13000000e-01	1.97777223e-02	4.20878926e-04
1.13500000e-01	1.97817782e-02	4.15649389e-04
1.14000000e-01	1.93020185e-02	4.06821183e-04
1.14500000e-01	1.96833097e-02	4.13105266e-04
1.15000000e-01	1.98488069e-02	4.15659467e-04
1.15500000e-01	1.94663258e-02	4.06105411e-04
1.16000000e-01	2.00541961e-02	4.13720675e-04
1.16500000e-01	1.98591543e-02	4.11502136e-04
1.17000000e-01	1.96588649e-02	4.07536954e-04
1.17500000e-01	1.97664455e-02	4.09087195e-04
1.18000000e-01	1.95995505e-02	4.05800459e-04
1.18500000e-01	1.97476311e-02	4.05239946e-04
1.19000000e-01	1.93188504e-02	3.95351142e-04
1.19500000e-01	1.96807762e-02	4.03678567e-04
1.20000000e-01	1.95719958e-02	3.98525846e-04
1.20500000e-01	1.95204491e-02	3.95067092e-04
1.21000000e-01	2.00446448e-02	4.05953415e-04
1.21500000e-01	1.98785049e-02	4.03463772e-04
1.22000000e-01	1.96010811e-02	3.95847453e-04
1.22500000e-01	1.96517856e-02	3.95461039e-04
1.23000000e-01	1.97884804e-02	3.96610257e-04
1.23500000e-01	1.96298988e-02	3.95927767e-04
1.24000000e-01	1.97156126e-02	3.93821515e-04
1.24500000e-01	1.97313595e-02	3.92166096e-04
1.25000000e-01	1.96746680e-02	3.94478752e-04
1.25500000e-01	1.97195422e-02	3.91618731e-04
1.26000000e-01	1.94388539e-02	3.88293323e-04
1.26500000e-01	1.96306554e-02	3.86381425e-04
1.27000000e-01	1.95931522e-02	3.88346928e-04
1.27500000e-01	1.95924616e-02	3.87476383e-04
1.28000000e-01	1.94839499e-02	3.84237755e-04
1.28500000e-01	1.96619599e-02	3.85920128e-04
1.29000000e-01	1.94859858e-02	3.83306722e-04
1.29500000e-01	1.96300868e-02	3.84284596e-04
1.30000000e-01	1.94964083e-02	3.81933262e-04
1.30500000e-01	1.94415120e-02	3.78920597e-04
1.31000000e-01	1.96796534e-02	3.83136042e-04
1.31500000e-01	1.96710283e-02	3.82060464e-04
1.32000000e-01	1.96704947e-02	3.82052894e-04
1.32500000e-01	1.96496299e-02	3.78159563e-04
1.33000000e-01	1.99325567e-02	3.84639700e-04
1.33500000e-01	1.98443912e-02	3.78985793e-04
1.34000000e-01	1.96670215e-02	3.76153036e-04
1.34500000e-01	1.96316280e-02	3.74543041e-04
1.35000000e-01	1.96409880e-02	3.72901669e-04
1.35500000e-01	1.98361298e-02	3.77784320e-04
1.36000000e-01	1.96294038e-02	3.71140452e-04
1.36500000e-01	1.96205095e-02	3.73380243e-04
1.37000000e-01	1.95085028e-02	3.68686524e-04
1.37500000e-01	1.96165324e-02	3.70779261e-04
1.38000000e-01	1.93301990e-02	3.64644438e-04
1.38500000e-01	1.97117692e-02	3.72545388e-04
1.39000000e-01	1.93220820e-02	3.65546878e-04
1.39500000e-01	1.95772921e-02	3.68121588e-04
1.40000000e-01	1.96071711e-02	3.69808094e-04
1.40500000e-01	1.96242246e-02	3.67893061e-04
1.41000000e-01	1.93795107e-02	3.63531940e-04
1.41500000e-01	1.94590940e-02	3.65970800e-04
1.42000000e-01	1.92455953e-02	3.59778395e-04
1.42500000e-01	1.94084498e-02	3.64105699e-04
1.43000000e-01	1.93948586e-02	3.63268562e-04
1.43500000e-01	1.95540639e-02	3.63264303e-04
1.44000000e-01	1.94742676e-02	3.60921378e-04
1.44500000e-01	1.99122862e-02	3.66577542e-04
1.45000000e-01	1.94208117e-02	3.59779694e-04
1.45500000e-01	1.95099088e-02	3.59756099e-04
1.46000000e-01	1.95809871e-02	3.59523431e-04
1.46500000e-01	1.92284505e-02	3.54857037e-04
1.47000000e-01	1.96077372e-02	3.60350388e-04
1.47500000e-01	1.94524473e-02	3.56654011e-04
1.48000000e-01	1.95235030e-02	3.56878073e-04
1.48500000e-01	1.93703372e-02	3.54900250e-04
1.49000000e-01	1.96015583e-02	3.57656205e-04
1.49500000e-01	1.92610317e-02	3.51043156e-04
1.50000000e-01	1.93192467e-02	3.52223822e-04
1.50500000e-01	1.95495842e-02	3.56336869e-04
1.51000000e-01	1.92280160e-02	3.48980062e-04
1.51500000e-01	1.92394189e-02	3.50681667e-04
1.52000000e-01	1.95433794e-02	3.51204834e-04
1.52500000e-01	1.94145375e-02	3.49466703e-04
1.53000000e-01	1.92224255e-02	3.46167063e-04
1.53500000e-01	1.93212000e-02	3.45380405e-04
1.54000000e-01	1.93343497e-02	3.45517202e-04
1.54500000e-01	1.95013397e-02	3.56879102e-04
1.55000000e-01	1.89273848e-02	3.50169014e-04
1.55500000e-01	1.90538585e-02	3.56459880e-04
1.56000000e-01	1.91641016e-02	3.59550072e-04
1.56500000e-01	1.92191248e-02	3.58628881e-04
1.57000000e-01	1.91572194e-02	3.59453420e-04
1.57500000e-01	1.94804854e-02	3.59107101e-04
1.58000000e-01	1.92666580e-02	3.48592863e-04
1.58500000e-01	1.90107812e-02	3.44203751e-04
1.59000000e-01	1.94261444e-02	3.48608573e-04
1.59500000e-01	1.95958101e-02	3.51139188e-04
1.60000000e-01	1.90779030e-02	3.41800970e-04
1.60500000e-01	1.88074518e-02	3.36051857e-04
1.61000000e-01	1.90992857e-02	3.39502739e-04
1.61500000e-01	1.93293124e-02	3.41334583e-04
1.62000000e-01	1.92999612e-02	3.42244881e-04
1.62500000e-01	1.94646824e-02	3.44458872e-04
1.63000000e-01	1.90167985e-02	3.34871994e-04
1.63500000e-01	1.90726644e-02	3.38023788e-04
1.64000000e-01	1.92544906e-02	3.38925232e-04
1.64500000e-01	1.89840826e-02	3.32398184e-04
1.65000000e-01	1.89129084e-02	3.32980346e-04
1.65500000e-01	1.88893310e-02	3.29270894e-04
1.66000000e-01	1.91763917e-02	3.34766819e-04
1.66500000e-01	1.89112605e-02	3.29530356e-04
1.67000000e-01	1.90192912e-02	3.31363818e-04
1.67500000e-01	1.90144431e-02	3.31450711e-04
1.68000000e-01	1.88749118e-02	3.29756386e-04
1.68500000e-01	1.89708107e-02	3.28440293e-04
1.69000000e-01	1.88249374e-02	3.26574531e-04
1.69500000e-01	1.88276411e-02	3.24857701e-04
1.70000000e-01	1.90428087e-02	3.29107945e-04
1.70500000e-01	1.89965325e-02	3.26592913e-04
1.71000000e-01	1.91344339e-02	3.28702152e-04
1.71500000e-01	1.90018736e-02	3.26997935e-04
1.72000000e-01	1.88701359e-02	3.22612370e-04
1.72500000e-01	1.87259220e-02	3.20539482e-04
1.73000000e-01	1.87377510e-02	3.19853172e-04
1.73500000e-01	1.86410921e-02	3.17125439e-04
1.74000000e-01	1.87450020e-02	3.20196473e-04
1.74500000e-01	1.90089844e-02	3.21083383e-04
1.75000000e-01	1.91046720e-02	3.22420289e-04
1.75500000e-01	1.86160939e-02	3.14461674e-04
1.76000000e-01	1.91228007e-02	3.22412050e-04
1.76500000e-01	1.85975680e-02	3.13911761e-04
1.77000000e-01	1.87463157e-02	3.14214905e-04
1.77500000e-01	1.88534893e-02	3.17580137e-04
1.78000000e-01	1.88372298e-02	3.15796686e-04
1.78500000e-01	1.86011577e-02	3.13327471e-04
1.79000000e-01	1.89966232e-02	3.19262769e-04
1.79500000e-01	1.87134308e-02	3.14648240e-04
1.80000000e-01	1.86801477e-02	3.13851937e-04
1.80500000e-01	1.87736896e-02	3.13911315e-04
1.81000000e-01	1.87057651e-02	3.13236489e-04
1.81500000e-01	1.87217469e-02	3.11298520e-04
1.82000000e-01	1.85492462e-02	3.10386908e-04
1.82500000e-01	1.85531508e-02	3.08437086e-04
1.83000000e-01	1.88189057e-02	3.13635903e-04
1.83500000e-01	1.86168233e-02	3.07935553e-04
1.84000000e-01	1.84056315e-02	3.06544649e-04
1.84500000e-01	1.87947830e-02	3.10492799e-04
1.85000000e-01	1.89242284e-02	3.13155160e-04
1.85500000e-01	1.84853778e-02	3.05738889e-04
1.86000000e-01	1.87374685e-02	3.09300369e-04
1.86500000e-01	1.85859903e-02	3.06596117e-04
1.87000000e-01	1.85657068e-02	3.05698509e-04
1.87500000e-01	1.84346442e-02	3.02905217e-04
1.88000000e-01	1.86417871e-02	3.05937621e-04
1.88500000e-01	1.88619212e-02	3.09167239e-04
1.89000000e-01	1.85289797e-02	3.03111462e-04
1.89500000e-01	1.83220530e-02	3.00463868e-04
1.90000000e-01	1.86303898e-02	3.04936291e-04
1.90500000e-01	1.84723264e-02	3.01718796e-04
1.91000000e-01	1.84225459e-02	2.99287561e-04
1.91500000e-01	1.84870246e-02	3.01678389e-04
1.92000000e-01	1.82802113e-02	2.97458351e-04
1.92500000e-01	1.82236728e-02	2.96769304e-04
1.93000000e-01	1.82206926e-02	2.95896169e-04
1.93500000e-01	1.82658432e-02	2.95558617e-04
1.94000000e-01	1.84368906e-02	2.97730250e-04
1.94500000e-01	1.84618059e-02	2.98061407e-04
1.95000000e-01	1.84273460e-02	2.98508039e-04
1.95500000e-01	1.80550373e-02	2.91374573e-04
1.96000000e-01	1.84781442e-02	2.97473915e-04
1.96500000e-01	1.82140532e-02	2.93494226e-04
1.97000000e-01	1.84473927e-02	2.96360324e-04
1.97500000e-01	1.86890734e-02	2.98704650e-04
1.98000000e-01	1.84070028e-02	2.95028462e-04
1.98500000e-01	1.87779632e-02	2.99074248e-04
1.99000000e-01	1.83360951e-02	2.91835095e-04
1.99500000e-01	1.83376966e-02	2.91479405e-04
2.00000000e-01	1.81960626e-02	2.89841014e-04
2.00500000e-01	1.82352531e-02	2.90379729e-04
2.01000000e-01	1.82131250e-02	2.89526058e-04
2.01500000e-01	1.81424523e-02	2.87911240e-04
2.02000000e-01	1.82402603e-02	2.91113509e-04
2.02500000e-01	1.82491719e-02	2.89011022e-04
2.03000000e-01	1.81407079e-02	2.88424942e-04
2.03500000e-01	1.82998957e-02	2.89576371e-04
2.04000000e-01	1.80780176e-02	2.85759246e-04
2.04500000e-01	1.83825650e-02	2.90438164e-04
2.05000000e-01	1.84362202e-02	2.89435202e-04
2.05500000e-01	1.81335803e-02	2.85217914e-04
2.06000000e-01	1.79824019e-02	2.84109490e-04
2.06500000e-01	1.80991453e-02	2.84061503e-04
2.07000000e-01	1.80171849e-02	2.83488713e-04
2.07500000e-01	1.81054091e-02	2.83502457e-04
2.08000000e-01	1.82427051e-02	2.85312189e-04
2.08500000e-01	1.82407891e-02	2.83268050e-04
2.09000000e-01	1.79933797e-02	2.82417612e-04
2.09500000e-01	1.79268902e-02	2.79439392e-04
2.10000000e-01	1.79702123e-02	2.80960665e-04
2.10500000e-01	1.81960644e-02	2.83517542e-04
2.11000000e-01	1.80590071e-02	2.80557599e-04
2.11500000e-01	1.80919310e-02	2.81251844e-04
2.12000000e-01	1.79311637e-02	2.77323708e-04
2.12500000e-01	1.81458158e-02	2.80454022e-04
2.13000000e-01	1.80669372e-02	2.79633099e-04
2.13500000e-01	1.81721610e-02	2.80720706e-04
2.14000000e-01	1.80595602e-02	2.80459333e-04
2.14500000e-01	1.78632757e-02	2.75901248e-04
2.15000000e-01	1.77692830e-02	2.75610214e-04
2.15500000e-01	1.80121098e-02	2.76135155e-04
2.16000000e-01	1.79769909e-02	2.76159605e-04
2.16500000e-01	1.80070134e-02	2.77186457e-04
2.17000000e-01	1.80462319e-02	2.80703180e-04
2.17500000e-01	1.77750300e-02	2.81283748e-04
2.18000000e-01	1.78617848e-02	2.83257837e-04
2.18500000e-01	1.76442930e-02	2.82368230e-04
2.19000000e-01	1.78839365e-02	2.87039981e-04
2.19500000e-01	1.82200279e-02	2.91734624e-04
2.20000000e-01	1.80822295e-02	2.92440953e-04
2.20500000e-01	1.78724635e-02	2.89108019e-04
2.21000000e-01	1.79237688e-02	2.89461976e-04
2.21500000e-01	1.77512034e-02	2.89706822e-04
2.22000000e-01	1.79468038e-02	2.93161045e-04
2.22500000e-01	1.79451309e-02	2.92332371e-04
2.23000000e-01	1.77914929e-02	2.91233896e-04
2.23500000e-01	1.79007240e-02	2.94075905e-04
2.24000000e-01	1.78435238e-02	2.94546247e-04
2.24500000e-01	1.81048746e-02	2.98641006e-04
2.25000000e-01	1.77330000e-02	2.93494569e-04
2.25500000e-01	1.78002926e-02	2.95622681e-04
2.26000000e-01	1.77865852e-02	2.96661244e-04
2.26500000e-01	1.79635759e-02	2.91983681e-04
2.27000000e-01	1.76504012e-02	2.85304573e-04
2.27500000e-01	1.78037210e-02	2.85136163e-04
2.28000000e-01	1.77707584e-02	2.84912535e-04
2.28500000e-01	1.79770596e-02	2.85495157e-04
2.29000000e-01	1.77470395e-02	2.81717451e-04
2.29500000e-01	1.78746192e-02	2.81780192e-04
2.30000000e-01	1.78389801e-02	2.80768246e-04
2.30500000e-01	1.78781832e-02	2.79908414e-04
2.31000000e-01	1.78141228e-02	2.78850506e-04
2.31500000e-01	1.77610468e-02	2.78016728e-04
2.32000000e-01	1.81977395e-02	2.82035596e-04
2.32500000e-01	1.78576767e-02	2.79104126e-04
2.33000000e-01	1.77545451e-02	2.74889969e-04
2.33500000e-01	1.77270220e-02	2.73868298e-04
2.34000000e-01	1.78421837e-02	2.74904295e-04
2.34500000e-01	1.79127534e-02	2.75047217e-04
2.35000000e-01	1.79723131e-02	2.76812273e-04
2.35500000e-01	1.75697100e-02	2.69670641e-04
2.36000000e-01	1.77229362e-02	2.72049705e-04
2.36500000e-01	1.76602118e-02	2.69672204e-04
2.37000000e-01	1.77611906e-02	2.69904245e-04
2.37500000e-01	1.77162777e-02	2.70979717e-04
2.38000000e-01	1.75930691e-02	2.67819085e-04
2.38500000e-01	1.74484124e-02	2.65590612e-04
2.39000000e-01	1.75971553e-02	2.67445340e-04
2.39500000e-01	1.76461830e-02	2.66496398e-04
2.40000000e-01	1.76430029e-02	2.67269366e-04
2.40500000e-01	1.74881741e-02	2.63373938e-04
2.41000000e-01	1.77782147e-02	2.67698519e-04
2.41500000e-01	1.78479619e-02	2.68358643e-04
2.42000000e-01	1.74289196e-02	2.62709637e-04
2.42500000e-01	1.77241856e-02	2.65410593e-04
2.43000000e-01	1.77922371e-02	2.65353671e-04
2.43500000e-01	1.75307403e-02	2.62117881e-04
2.44000000e-01	1.76597663e-02	2.63425946e-04
2.44500000e-01	1.74388353e-02	2.59835420e-04
2.45000000e-01	1.75819765e-02	2.61265464e-04
2.45500000e-01	1.74289554e-02	2.59174858e-04
2.46000000e-01	1.75057112e-02	2.60947049e-04
2.46500000e-01	1.75254467e-02	2.58983135e-04
2.47000000e-01	1.74424050e-02	2.58931261e-04
2.47500000e-01	1.75101683e-02	2.57833050e-04
2.48000000e-01	1.74261375e-02	2.56674903e-04
2.48500000e-01	1.74630863e-02	2.57426016e-04
2.49000000e-01	1.75942066e-02	2.58697788e-04
2.49500000e-01	1.74582764e-02	2.57681573e-04
2.50000000e-01	1.76007575e-02	2.57877148e-04
2.50500000e-01	1.74690054e-02	2.56943770e-04
2.51000000e-01	1.72841221e-02	2.54001214e-04
2.51500000e-01	1.73073077e-02	2.54646664e-04
2.52000000e-01	1.73858614e-02	2.55200578e-04
2.52500000e-01	1.72106591e-02	2.52461861e-04
2.53000000e-01	1.75092988e-02	2.55863033e-04
2.53500000e-01	1.73022776e-02	2.52568222e-04
2.54000000e-01	1.73133597e-02	2.52713428e-04
2.54500000e-01	1.73643753e-02	2.53654827e-04
2.55000000e-01	1.74637231e-02	2.54302787e-04
2.55500000e-01	1.74553507e-02	2.54834726e-04
2.56000000e-01	1.70886493e-02	2.47513638e-04
2.56500000e-01	1.72438175e-02	2.50925758e-04
2.57000000e-01	1.74517895e-02	2.52835721e-04
2.57500000e-01	1.72924558e-02	2.50413744e-04
2.58000000e-01	1.72718000e-02	2.50470398e-04
2.58500000e-01	1.72583874e-02	2.49465655e-04
2.59000000e-01	1.72126261e-02	2.48755380e-04
2.59500000e-01	1.74695046e-02	2.51502924e-04
2.60000000e-01	1.73041045e-02	2.49495455e-04
2.60500000e-01	1.74668128e-02	2.51046513e-04
2.61000000e-01	1.75836683e-02	2.51874288e-04
2.61500000e-01	1.73803514e-02	2.51175455e-04
2.62000000e-01	1.74768572e-02	2.50233426e-04
2.62500000e-01	1.71967122e-02	2.46168622e-04
2.63000000e-01	1.73231000e-02	2.47517642e-04
2.63500000e-01	1.73036350e-02	2.46847403e-04
2.64000000e-01	1.71653688e-02	2.45922926e-04
2.64500000e-01	1.73139274e-02	2.47233436e-04
2.65000000e-01	1.72198951e-02	2.44907453e-04
2.65500000e-01	1.69476693e-02	2.42015073e-04
2.66000000e-01	1.74260261e-02	2.48361357e-04
2.66500000e-01	1.73626979e-02	2.45876027e-04
2.67000000e-01	1.71432703e-02	2.42924383e-04
2.67500000e-01	1.71413008e-02	2.42428057e-04
2.68000000e-01	1.71611704e-02	2.42931276e-04
2.68500000e-01	1.70810625e-02	2.41906576e-04
2.69000000e-01	1.72887521e-02	2.43272918e-04
2.69500000e-01	1.71155881e-02	2.41424850e-04
2.70000000e-01	1.71345157e-02	2.40707374e-04
2.70500000e-01	1.73279629e-02	2.43672092e-04
2.71000000e-01	1.71323637e-02	2.40168265e-04
2.71500000e-01	1.69317550e-02	2.37813633e-04
2.72000000e-01	1.70392256e-02	2.39018918e-04
2.72500000e-01	1.71345608e-02	2.40291756e-04
2.73000000e-01	1.72589423e-02	2.41335681e-04
2.73500000e-01	1.71730492e-02	2.39811248e-04
2.74000000e-01	1.72089943e-02	2.40780567e-04
2.74500000e-01	1.71971303e-02	2.40428244e-04
2.75000000e-01	1.71209733e-02	2.39320181e-04
2.75500000e-01	1.70118577e-02	2.37642515e-04
2.76000000e-01	1.69835124e-02	2.36767786e-04
2.76500000e-01	1.69933397e-02	2.37672448e-04
2.77000000e-01	1.71010627e-02	2.37644712e-04
2.77500000e-01	1.71364895e-02	2.39207622e-04
2.78000000e-01	1.69987699e-02	2.36182053e-04
2.78500000e-01	1.71470591e-02	2.37863463e-04
2.79000000e-01	1.70274366e-02	2.36093910e-04
2.79500000e-01	1.68966878e-02	2.34080842e-04
2.80000000e-01	1.71074071e-02	2.36528201e-04
2.80500000e-01	1.72133854e-02	2.37046741e-04
2.81000000e-01	1.70449555e-02	2.35165526e-04
2.81500000e-01	1.68894117e-02	2.33738527e-04
2.82000000e-01	1.70047876e-02	2.34088664e-04
2.82500000e-01	1.69208203e-02	2.33028027e-04
2.83000000e-01	1.69812045e-02	2.34015505e-04
2.83500000e-01	1.69455431e-02	2.32818917e-04
2.84000000e-01	1.71660285e-02	2.35851747e-04
2.84500000e-01	1.71526336e-02	2.34829439e-04
2.85000000e-01	1.69823327e-02	2.33385341e-04
2.85500000e-01	1.70172200e-02	2.32600755e-04
2.86000000e-01	1.69582417e-02	2.32302704e-04
2.86500000e-01	1.69268359e-02	2.31277607e-04
2.87000000e-01	1.69591610e-02	2.31405161e-04
2.87500000e-01	1.68275965e-02	2.29076524e-04
2.88000000e-01	1.66685422e-02	2.27076295e-04
2.88500000e-01	1.70503357e-02	2.31879319e-04
2.89000000e-01	1.70098692e-02	2.30749211e-04
2.89500000e-01	1.68114199e-02	2.28893519e-04
2.90000000e-01	1.67577291e-02	2.27846932e-04
2.90500000e-01	1.69235249e-02	2.29885489e-04
2.91000000e-01	1.69151718e-02	2.29694426e-04
2.91500000e-01	1.68281439e-02	2.27325850e-04
2.92000000e-01	1.69969715e-02	2.29679440e-04
2.92500000e-01	1.71007604e-02	2.30206762e-04
2.93000000e-01	1.68396332e-02	2.27474457e-04
2.93500000e-01	1.70144977e-02	2.28658008e-04
2.94000000e-01	1.68581894e-02	2.25912481e-04
2.94500000e-01	1.70122889e-02	2.29559041e-04
2.95000000e-01	1.67458108e-02	2.25314257e-04
2.95500000e-01	1.67445402e-02	2.25348270e-04
2.96000000e-01	1.70600324e-02	2.28273208e-04
2.96500000e-01	1.69249955e-02	2.26874161e-04
2.97000000e-01	1.67482206e-02	2.24663907e-04
2.97500000e-01	1.67966586e-02	2.24494852e-04
2.98000000e-01	1.66472590e-02	2.23427104e-04
2.98500000e-01	1.67984058e-02	2.25322912e-04
2.99000000e-01	1.68533459e-02	2.25407900e-04
2.99500000e-01	1.66974836e-02	2.24029616e-04
3.00000000e-01	1.67456363e-02	2.23235553e-04
3.00500000e-01	1.66769513e-02	2.23095985e-04
3.01000000e-01	1.67056992e-02	2.22053348e-04
3.01500000e-01	1.67499874e-02	2.23759811e-04
3.02000000e-01	1.67711209e-02	2.22564449e-04
3.02500000e-01	1.68544066e-02	2.23958951e-04
3.03000000e-01	1.65381412e-02	2.19870806e-04
3.03500000e-01	1.66965429e-02	2.21683764e-04
3.04000000e-01	1.67090397e-02	2.22486052e-04
3.04500000e-01	1.65903319e-02	2.19244755e-04
3.05000000e-01	1.67070510e-02	2.21975721e-04
3.05500000e-01	1.67768388e-02	2.22499393e-04
3.06000000e-01	1.65584751e-02	2.18096225e-04
3.06500000e-01	1.66402527e-02	2.20268069e-04
3.07000000e-01	1.66348529e-02	2.19067314e-04
3.07500000e-01	1.66396906e-02	2.18417746e-04
3.08000000e-01	1.67466851e-02	2.20209797e-04
3.08500000e-01	1.66569521e-02	2.19410813e-04
3.09000000e-01	1.66601085e-02	2.19829732e-04
3.09500000e-01	1.65150208e-02	2.18264289e-04
3.10000000e-01	1.65047538e-02	2.16943363e-04
3.10500000e-01	1.67082033e-02	2.19706134e-04
3.11000000e-01	1.66535390e-02	2.18377207e-04
3.11500000e-01	1.66349358e-02	2.18423510e-04
3.12000000e-01	1.65601274e-02	2.16607752e-04
3.12500000e-01	1.64410264e-02	2.15796009e-04
3.13000000e-01	1.65173899e-02	2.15380774e-04
3.13500000e-01	1.64088179e-02	2.14488496e-04
3.14000000e-01	1.64216585e-02	2.14275234e-04
3.14500000e-01	1.64943832e-02	2.15370984e-04
3.15000000e-01	1.66362329e-02	2.16746984e-04
3.15500000e-01	1.64510000e-02	2.13595358e-04
3.16000000e-01	1.64883328e-02	2.14400495e-04
3.16500000e-01	1.65658349e-02	2.14447173e-04
3.17000000e-01	1.63741425e-02	2.13590685e-04
3.17500000e-01	1.64589585e-02	2.14310154e-04
3.18000000e-01	1.66552020e-02	2.15554677e-04
3.18500000e-01	1.66449370e-02	2.15213466e-04
3.19000000e-01	1.65800714e-02	2.13882414e-04
3.19500000e-01	1.64477545e-02	2.13018797e-04
3.20000000e-01	1.65562446e-02	2.14117623e-04
3.20500000e-01	1.64371194e-02	2.12366143e-04
3.21000000e-01	1.64630531e-02	2.12923893e-04
3.21500000e-01	1.65510078e-02	2.13919635e-04
3.22000000e-01	1.63183093e-02	2.10521449e-04
3.22500000e-01	1.63759373e-02	2.10444339e-04
3.23000000e-01	1.64196326e-02	2.11453793e-04
3.23500000e-01	1.61780028e-02	2.08727838e-04
3.24000000e-01	1.60477756e-02	2.06428936e-04
3.24500000e-01	1.61688282e-02	2.08624533e-04
3.25000000e-01	1.65252102e-02	2.11517499e-04
3.25500000e-01	1.63949977e-02	2.10543524e-04
3.26000000e-01	1.62010454e-02	2.07597802e-04
3.26500000e-01	1.62398588e-02	2.07627486e-04
3.27000000e-01	1.61754826e-02	2.08091721e-04
3.27500000e-01	1.62440137e-02	2.08292859e-04
3.28000000e-01	1.61620605e-02	2.07306140e-04
3.28500000e-01	1.62217269e-02	2.06985632e-04
3.29000000e-01	1.62819016e-02	2.08216166e-04
3.29500000e-01	1.62067304e-02	2.07530845e-04
3.30000000e-01	1.63300761e-02	2.07556215e-04
3.30500000e-01	1.61631570e-02	2.05719542e-04
3.31000000e-01	1.61277730e-02	2.05224025e-04
3.31500000e-01	1.63427461e-02	2.07169789e-04
3.32000000e-01	1.60722591e-02	2.04614746e-04
3.32500000e-01	1.61296785e-02	2.05433598e-04
3.33000000e-01	1.63446129e-02	2.07262050e-04
3.33500000e-01	1.61526597e-02	2.04669388e-04
3.34000000e-01	1.62552943e-02	2.06282764e-04
3.34500000e-01	1.62208762e-02	2.05693492e-04
3.35000000e-01	1.60915296e-02	2.02794800e-04
3.35500000e-01	1.62675436e-02	2.05700288e-04
3.36000000e-01	1.60801282e-02	2.03506514e-04
3.36500000e-01	1.61937395e-02	2.04314643e-04
3.37000000e-01	1.60708754e-02	2.03025156e-04
3.37500000e-01	1.60383608e-02	2.03155063e-04
3.38000000e-01	1.59689825e-02	2.02778517e-04
3.38500000e-01	1.60803855e-02	2.02992562e-04
3.39000000e-01	1.59702142e-02	2.01386929e-04
3.39500000e-01	1.60030685e-02	2.01005447e-04
3.40000000e-01	1.60613235e-02	2.02377967e-04
3.40500000e-01	1.60445421e-02	2.01444127e-04
3.41000000e-01	1.59973807e-02	2.01081727e-04
3.41500000e-01	1.60407681e-02	2.01633985e-04
3.42000000e-01	1.59656846e-02	2.00529125e-04
3.42500000e-01	1.60350566e-02	2.00527016e-04
3.43000000e-01	1.59772132e-02	2.00295878e-04
3.43500000e-01	1.61218566e-02	2.01517859e-04
3.44000000e-01	1.58997767e-02	1.99333613e-04
3.44500000e-01	1.59808183e-02	1.99568687e-04
3.45000000e-01	1.58950402e-02	1.98631295e-04
3.45500000e-01	1.56161825e-02	1.95493517e-04
3.46000000e-01	1.59777791e-02	1.99549940e-04
3.46500000e-01	1.59787753e-02	1.99352424e-04
3.47000000e-01	1.59498919e-02	1.98281989e-04
3.47500000e-01	1.59914054e-02	1.99070485e-04
3.48000000e-01	1.58344025e-02	1.97135650e-04
3.48500000e-01	1.58183809e-02	1.97321252e-04
3.49000000e-01	1.58628704e-02	1.97073875e-04
3.49500000e-01	1.59160680e-02	1.97646695e-04
3.50000000e-01	1.58058901e-02	1.60391208e-04
3.51000000e-01	1.58451523e-02	1.38994310e-04
3.52000000e-01	1.58063119e-02	1.38289385e-04
3.53000000e-01	1.57932009e-02	1.37945974e-04
3.54000000e-01	1.58798844e-02	1.38500212e-04
3.55000000e-01	1.59038265e-02	1.38680199e-04
3.56000000e-01	1.58766303e-02	1.38891028e-04
3.57000000e-01	1.57714617e-02	1.40598516e-04
3.58000000e-01	1.57411019e-02	1.41494848e-04
3.59000000e-01	1.56677274e-02	1.41631623e-04
3.60000000e-01	1.56730707e-02	1.42961104e-04
3.61000000e-01	1.57534960e-02	1.43527844e-04
3.62000000e-01	1.54526932e-02	1.42169445e-04
3.63000000e-01	1.55481913e-02	1.43720899e-04
3.64000000e-01	1.55633806e-02	1.44004935e-04
3.65000000e-01	1.55654393e-02	1.44285380e-04
3.66000000e-01	1.54382943e-02	1.42236544e-04
3.67000000e-01	1.55951559e-02	1.41193027e-04
3.68000000e-01	1.55118857e-02	1.39541999e-04
3.69000000e-01	1.56543268e-02	1.39881248e-04
3.70000000e-01	1.55936805e-02	1.38873391e-04
3.71000000e-01	1.54315102e-02	1.39035157e-04
3.72000000e-01	1.55781743e-02	1.41167087e-04
3.73000000e-01	1.55732658e-02	1.41706359e-04
3.74000000e-01	1.54944018e-02	1.40627453e-04
3.75000000e-01	1.55323091e-02	1.41338144e-04
3.76000000e-01	1.55015276e-02	1.40925260e-04
3.77000000e-01	1.54658826e-02	1.41151472e-04
3.78000000e-01	1.54300836e-02	1.40440964e-04
3.79000000e-01	1.54877676e-02	1.41098743e-04
3.80000000e-01	1.53563705e-02	1.39382448e-04
3.81000000e-01	1.54699415e-02	1.40622529e-04
3.82000000e-01	1.53406648e-02	1.38921603e-04
3.83000000e-01	1.53957502e-02	1.39587356e-04
3.84000000e-01	1.54915875e-02	1.40439710e-04
3.85000000e-01	1.53270506e-02	1.39404751e-04
3.86000000e-01	1.53824399e-02	1.39655954e-04
3.87000000e-01	1.51894244e-02	1.38429983e-04
3.88000000e-01	1.52743256e-02	1.38383160e-04
3.89000000e-01	1.52447520e-02	1.38185048e-04
3.90000000e-01	1.52879097e-02	1.38747712e-04
3.91000000e-01	1.52502005e-02	1.38068427e-04
3.92000000e-01	1.52572202e-02	1.38130718e-04
3.93000000e-01	1.53061883e-02	1.38376203e-04
3.94000000e-01	1.51107514e-02	1.37297081e-04
3.95000000e-01	1.52125362e-02	1.37420205e-04
3.96000000e-01	1.50913651e-02	1.36899856e-04
3.97000000e-01	1.53012355e-02	1.38227915e-04
3.98000000e-01	1.51648029e-02	1.37389952e-04
3.99000000e-01	1.51773738e-02	1.37610274e-04
4.00000000e-01	1.51306682e-02	1.37334937e-04
4.01000000e-01	1.51276052e-02	1.36928838e-04
4.02000000e-01	1.50938447e-02	1.37017328e-04
4.03000000e-01	1.49816031e-02	1.35904130e-04
4.04000000e-01	1.51570914e-02	1.36968460e-04
4.05000000e-01	1.51283222e-02	1.37068716e-04
4.06000000e-01	1.50887454e-02	1.36525653e-04
4.07000000e-01	1.49668892e-02	1.35346165e-04
4.08000000e-01	1.50898046e-02	1.36351148e-04
4.09000000e-01	1.50202176e-02	1.35696900e-04
4.10000000e-01	1.50050480e-02	1.35776170e-04
4.11000000e-01	1.50491679e-02	1.35869938e-04
4.12000000e-01	1.49829306e-02	1.35503711e-04
4.13000000e-01	1.50101233e-02	1.35801844e-04
4.14000000e-01	1.49888474e-02	1.35140599e-04
4.15000000e-01	1.49520928e-02	1.35165471e-04
4.16000000e-01	1.48925884e-02	1.34805667e-04
4.17000000e-01	1.49559546e-02	1.34869056e-04
4.18000000e-01	1.50204139e-02	1.36911282e-04
4.19000000e-01	1.49898622e-02	1.37909400e-04
4.20000000e-01	1.50211665e-02	1.38986381e-04
4.21000000e-01	1.49772526e-02	1.39393787e-04
4.22000000e-01	1.50146795e-02	1.40164759e-04
4.23000000e-01	1.48549718e-02	1.39190800e-04
4.24000000e-01	1.50192174e-02	1.41045644e-04
4.25000000e-01	1.49359269e-02	1.40458720e-04
4.26000000e-01	1.48568750e-02	1.39917470e-04
4.27000000e-01	1.47449847e-02	1.38512414e-04
4.28000000e-01	1.48971125e-02	1.40712851e-04
4.29000000e-01	1.50279973e-02	1.41920261e-04
4.30000000e-01	1.48536056e-02	1.40324093e-04
4.31000000e-01	1.50043960e-02	1.41111890e-04
4.32000000e-01	1.50447274e-02	1.42169231e-04
4.33000000e-01	1.47872720e-02	1.40035611e-04
4.34000000e-01	1.48371484e-02	1.40495369e-04
4.35000000e-01	1.48608506e-02	1.40723442e-04
4.36000000e-01	1.47896465e-02	1.40798613e-04
4.37000000e-01	1.46425527e-02	1.39239870e-04
4.38000000e-01	1.48361475e-02	1.41527492e-04
4.39000000e-01	1.49045368e-02	1.41972651e-04
4.40000000e-01	1.49103770e-02	1.42222577e-04
4.41000000e-01	1.48606059e-02	1.41853039e-04
4.42000000e-01	1.48058747e-02	1.41165878e-04
4.43000000e-01	1.48577690e-02	1.42238285e-04
4.44000000e-01	1.48144116e-02	1.41855374e-04
4.45000000e-01	1.48963483e-02	1.42970648e-04
4.46000000e-01	1.48248190e-02	1.42452670e-04
4.47000000e-01	1.48113666e-02	1.42259850e-04
4.48000000e-01	1.46777035e-02	1.41355995e-04
4.49000000e-01	1.45976847e-02	1.41023437e-04
4.50000000e-01	1.46905825e-02	1.41938873e-04
4.51000000e-01	1.46335004e-02	1.41164307e-04
4.52000000e-01	1.46943720e-02	1.42127091e-04
4.53000000e-01	1.46444566e-02	1.41772993e-04
4.54000000e-01	1.46055553e-02	1.41209866e-04
4.55000000e-01	1.46216117e-02	1.41523059e-04
4.56000000e-01	1.46873016e-02	1.42412885e-04
4.57000000e-01	1.44683092e-02	1.40336820e-04
4.58000000e-01	1.46634800e-02	1.42033138e-04
4.59000000e-01	1.46204805e-02	1.42118305e-04
4.60000000e-01	1.45465829e-02	1.41334005e-04
4.61000000e-01	1.46068709e-02	1.41994264e-04
4.62000000e-01	1.45456306e-02	1.41372288e-04
4.63000000e-01	1.44740026e-02	1.41276928e-04
4.64000000e-01	1.45917384e-02	1.42764835e-04
4.65000000e-01	1.46946643e-02	1.43780349e-04
4.66000000e-01	1.45938917e-02	1.42499651e-04
4.67000000e-01	1.45266548e-02	1.41936540e-04
4.68000000e-01	1.44701763e-02	1.41697982e-04
4.69000000e-01	1.45378306e-02	1.42391247e-04
4.70000000e-01	1.45960769e-02	1.43321682e-04
4.71000000e-01	1.45326183e-02	1.42703288e-04
4.72000000e-01	1.45610150e-02	1.42703018e-04
4.73000000e-01	1.44933723e-02	1.41765434e-04
4.74000000e-01	1.44138276e-02	1.41192218e-04
4.75000000e-01	1.43875447e-02	1.40807012e-04
4.76000000e-01	1.43677685e-02	1.40718270e-04
4.77000000e-01	1.44024635e-02	1.41294195e-04
4.78000000e-01	1.44293729e-02	1.41459246e-04
4.79000000e-01	1.44416177e-02	1.41794859e-04
4.80000000e-01	1.42545224e-02	1.39872062e-04
4.81000000e-01	1.44351637e-02	1.41653125e-04
4.82000000e-01	1.43791452e-02	1.41108437e-04
4.83000000e-01	1.42880266e-02	1.40783046e-04
4.84000000e-01	1.43200423e-02	1.41031587e-04
4.85000000e-01	1.44472234e-02	1.42357703e-04
4.86000000e-01	1.44200178e-02	1.42323819e-04
4.87000000e-01	1.44790614e-02	1.42446985e-04
4.88000000e-01	1.43318091e-02	1.41634300e-04
4.89000000e-01	1.43367982e-02	1.41403905e-04
4.90000000e-01	1.42593332e-02	1.40774495e-04
4.91000000e-01	1.42565855e-02	1.40763093e-04
4.92000000e-01	1.42918383e-02	1.40976833e-04
4.93000000e-01	1.42671515e-02	1.41388713e-04
4.94000000e-01	1.43214920e-02	1.42283970e-04
4.95000000e-01	1.43565244e-02	1.42811211e-04
4.96000000e-01	1.42979783e-02	1.46621928e-04
4.97000000e-01	1.43193302e-02	1.49836446e-04
4.98000000e-01	1.43229000e-02	1.51883514e-04
4.99000000e-01	1.43082104e-02	1.53035609e-04
5.00000000e-01	1.42876933e-02	1.54517892e-04
5.01000000e-01	1.42034152e-02	1.55759073e-04
5.02000000e-01	1.42388821e-02	1.57852642e-04
5.03000000e-01	1.43214122e-02	1.59372587e-04
5.04000000e-01	1.43483294e-02	1.61647579e-04
5.05000000e-01	1.43225987e-02	1.57738427e-04
5.06000000e-01	1.42355284e-02	1.54277222e-04
5.07000000e-01	1.43647040e-02	1.53704354e-04
5.08000000e-01	1.42578377e-02	1.51682650e-04
5.09000000e-01	1.41600265e-02	1.50180027e-04
5.10000000e-01	1.42514683e-02	1.50805649e-04
5.11000000e-01	1.42801064e-02	1.50098616e-04
5.12000000e-01	1.42649525e-02	1.50041542e-04
5.13000000e-01	1.42030093e-02	1.48236904e-04
5.14000000e-01	1.42194827e-02	1.48820924e-04
5.15000000e-01	1.41464413e-02	1.47440988e-04
5.16000000e-01	1.41755010e-02	1.47787962e-04
5.17000000e-01	1.41694828e-02	1.47741401e-04
5.18000000e-01	1.41729062e-02	1.47468999e-04
5.19000000e-01	1.40777405e-02	1.46556920e-04
5.20000000e-01	1.40104509e-02	1.44812951e-04
5.21000000e-01	1.41211933e-02	1.46177435e-04
5.22000000e-01	1.40358491e-02	1.45340837e-04
5.23000000e-01	1.39756504e-02	1.44472739e-04
5.24000000e-01	1.39915446e-02	1.44837289e-04
5.25000000e-01	1.41312546e-02	1.45432593e-04
5.26000000e-01	1.39969133e-02	1.44101407e-04
5.27000000e-01	1.39018296e-02	1.43345653e-04
5.28000000e-01	1.40937504e-02	1.45303142e-04
5.29000000e-01	1.40797355e-02	1.45504285e-04
5.30000000e-01	1.39725452e-02	1.44212004e-04
5.31000000e-01	1.39124643e-02	1.44199263e-04
5.32000000e-01	1.39183149e-02	1.44118916e-04
5.33000000e-01	1.37728778e-02	1.42137533e-04
5.34000000e-01	1.40782219e-02	1.45483611e-04
5.35000000e-01	1.40184677e-02	1.44488312e-04
5.36000000e-01	1.38358930e-02	1.43005596e-04
5.37000000e-01	1.37765282e-02	1.42821276e-04
5.38000000e-01	1.39185885e-02	1.43489228e-04
5.39000000e-01	1.39153683e-02	1.43812143e-04
5.40000000e-01	1.38807638e-02	1.43557228e-04
5.41000000e-01	1.39193545e-02	1.43376919e-04
5.42000000e-01	1.38080458e-02	1.42651335e-04
5.43000000e-01	1.39093135e-02	1.43771255e-04
5.44000000e-01	1.37909337e-02	1.42374504e-04
5.45000000e-01	1.37379198e-02	1.41789674e-04
5.46000000e-01	1.38773185e-02	1.43241228e-04
5.47000000e-01	1.37939562e-02	1.42183028e-04
5.48000000e-01	1.36829635e-02	1.41574708e-04
5.49000000e-01	1.37105781e-02	1.41860146e-04
5.50000000e-01	1.38084437e-02	1.42490680e-04
5.51000000e-01	1.37411632e-02	1.41539761e-04
5.52000000e-01	1.37144432e-02	1.41372154e-04
5.53000000e-01	1.38425435e-02	1.41917546e-04
5.54000000e-01	1.36688027e-02	1.39963394e-04
5.55000000e-01	1.37397039e-02	1.40894169e-04
5.56000000e-01	1.35836842e-02	1.39282386e-04
5.57000000e-01	1.36212860e-02	1.39947800e-04
5.58000000e-01	1.36690842e-02	1.40562550e-04
5.59000000e-01	1.36888315e-02	1.40343541e-04
5.60000000e-01	1.36768912e-02	1.40684638e-04
5.61000000e-01	1.36813467e-02	1.40527338e-04
5.62000000e-01	1.36166526e-02	1.39859317e-04
5.63000000e-01	1.36397632e-02	1.40482732e-04
5.64000000e-01	1.36830437e-02	1.40276595e-04
5.65000000e-01	1.36848377e-02	1.40330422e-04
5.66000000e-01	1.35194634e-02	1.38773295e-04
5.67000000e-01	1.36483235e-02	1.40470709e-04
5.68000000e-01	1.35812219e-02	1.40160813e-04
5.69000000e-01	1.35760979e-02	1.38951802e-04
5.70000000e-01	1.35938542e-02	1.39547511e-04
5.71000000e-01	1.35746100e-02	1.39659979e-04
5.72000000e-01	1.34579138e-02	1.38734415e-04
5.73000000e-01	1.35577299e-02	1.39468583e-04
5.74000000e-01	1.34304249e-02	1.38526005e-04
5.75000000e-01	1.35504823e-02	1.38981802e-04
5.76000000e-01	1.32912180e-02	1.36962612e-04
5.77000000e-01	1.35383209e-02	1.39354478e-04
5.78000000e-01	1.34025777e-02	1.38339770e-04
5.79000000e-01	1.35552724e-02	1.39593587e-04
5.80000000e-01	1.34257422e-02	1.38228131e-04
5.81000000e-01	1.33694941e-02	1.38440514e-04
5.82000000e-01	1.33749329e-02	1.37611187e-04
5.83000000e-01	1.33828468e-02	1.37819895e-04
5.84000000e-01	1.32155077e-02	1.36431899e-04
5.85000000e-01	1.33620912e-02	1.37638514e-04
5.86000000e-01	1.33188180e-02	1.37570683e-04
5.87000000e-01	1.33532909e-02	1.37691872e-04
5.88000000e-01	1.34394696e-02	1.38723832e-04
5.89000000e-01	1.33275452e-02	1.37525743e-04
5.90000000e-01	1.32479266e-02	1.36766458e-04
5.91000000e-01	1.32726173e-02	1.37168437e-04
5.92000000e-01	1.34713243e-02	1.38635204e-04
5.93000000e-01	1.32959158e-02	1.37890059e-04
5.94000000e-01	1.34212528e-02	1.38655715e-04
5.95000000e-01	1.33364915e-02	1.38118364e-04
5.96000000e-01	1.33215695e-02	1.38593562e-04
5.97000000e-01	1.32348086e-02	1.36905224e-04
5.98000000e-01	1.33156611e-02	1.37613543e-04
5.99000000e-01	1.31594929e-02	1.36282965e-04
6.00000000e-01	1.32622265e-02	1.37447051e-04
6.01000000e-01	1.32176070e-02	1.37290057e-04
6.02000000e-01	1.32441893e-02	1.37142517e-04
6.03000000e-01	1.31061226e-02	1.35810787e-04
6.04000000e-01	1.31509791e-02	1.36223230e-04
6.05000000e-01	1.31529635e-02	1.36193719e-04
6.06000000e-01	1.31317288e-02	1.36194906e-04
6.07000000e-01	1.33314250e-02	1.37804965e-04
6.08000000e-01	1.32082669e-02	1.36903135e-04
6.09000000e-01	1.31188726e-02	1.36038478e-04
6.10000000e-01	1.30549187e-02	1.35591269e-04
6.11000000e-01	1.32790025e-02	1.37448269e-04
6.12000000e-01	1.32730517e-02	1.37080612e-04
6.13000000e-01	1.31679933e-02	1.36652341e-04
6.14000000e-01	1.31619791e-02	1.36671413e-04
6.15000000e-01	1.31601654e-02	1.36247756e-04
6.16000000e-01	1.30690999e-02	1.35487763e-04
6.17000000e-01	1.31447519e-02	1.36138136e-04
6.18000000e-01	1.30381756e-02	1.35523652e-04
6.19000000e-01	1.30980748e-02	1.35224163e-04
6.20000000e-01	1.31045968e-02	1.36221574e-04
6.21000000e-01	1.30178207e-02	1.34423917e-04
6.22000000e-01	1.31050056e-02	1.35323048e-04
6.23000000e-01	1.31668741e-02	1.36070046e-04
6.24000000e-01	1.29255648e-02	1.33507910e-04
6.25000000e-01	1.30195993e-02	1.34535085e-04
6.26000000e-01	1.31728675e-02	1.35538454e-04
6.27000000e-01	1.31583242e-02	1.35586465e-04
6.28000000e-01	1.30489100e-02	1.33866486e-04
6.29000000e-01	1.30981626e-02	1.34975818e-04
6.30000000e-01	1.29348484e-02	1.33419856e-04
6.31000000e-01	1.31154173e-02	1.35043607e-04
6.32000000e-01	1.29743902e-02	1.34233071e-04
6.33000000e-01	1.30656755e-02	1.34380199e-04
6.34000000e-01	1.31444512e-02	1.38482789e-04
6.35000000e-01	1.30670824e-02	1.41726519e-04
6.36000000e-01	1.30319377e-02	1.44358066e-04
6.37000000e-01	1.29923093e-02	1.45917875e-04
6.38000000e-01	1.30772938e-02	1.48192172e-04
6.39000000e-01	1.29440615e-02	1.49371088e-04
6.40000000e-01	1.31175940e-02	1.53401597e-04
6.41000000e-01	1.30206882e-02	1.53745845e-04
6.42000000e-01	1.29856215e-02	1.55421952e-04
6.43000000e-01	1.30483960e-02	1.55896621e-04
6.44000000e-01	1.31428329e-02	1.50974249e-04
6.45000000e-01	1.30028824e-02	1.47704901e-04
6.46000000e-01	1.31081017e-02	1.46843868e-04
6.47000000e-01	1.30425844e-02	1.45574232e-04
6.48000000e-01	1.31956501e-02	1.46013400e-04
6.49000000e-01	1.28420314e-02	1.41758643e-04
6.50000000e-01	1.29860371e-02	1.42540466e-04
6.51000000e-01	1.31820260e-02	1.43625179e-04
6.52000000e-01	1.30143805e-02	1.41893148e-04
6.53000000e-01	1.30232757e-02	1.41161359e-04
6.54000000e-01	1.31089532e-02	1.42145408e-04
6.55000000e-01	1.28918399e-02	1.39024289e-04
6.56000000e-01	1.29649444e-02	1.39536014e-04
6.57000000e-01	1.28243160e-02	1.38653049e-04
6.58000000e-01	1.28603944e-02	1.38418754e-04
6.59000000e-01	1.29832606e-02	1.39739359e-04
6.60000000e-01	1.29192949e-02	1.38428832e-04
6.61000000e-01	1.29620949e-02	1.38696364e-04
6.62000000e-01	1.28994452e-02	1.39016885e-04
6.63000000e-01	1.28714083e-02	1.38332169e-04
6.64000000e-01	1.29048682e-02	1.37851503e-04
6.65000000e-01	1.29122269e-02	1.38374672e-04
6.66000000e-01	1.28163796e-02	1.37616070e-04
6.67000000e-01	1.28415743e-02	1.37219738e-04
6.68000000e-01	1.28025932e-02	1.37201069e-04
6.69000000e-01	1.29180877e-02	1.38151506e-04
6.70000000e-01	1.27581753e-02	1.36702331e-04
6.71000000e-01	1.27538916e-02	1.36282089e-04
6.72000000e-01	1.28638953e-02	1.37147205e-04
6.73000000e-01	1.27852879e-02	1.36747979e-04
6.74000000e-01	1.28569150e-02	1.37053828e-04
6.75000000e-01	1.27515230e-02	1.36129720e-04
6.76000000e-01	1.27556434e-02	1.36163685e-04
6.77000000e-01	1.26774270e-02	1.35674269e-04
6.78000000e-01	1.27693199e-02	1.36076885e-04
6.79000000e-01	1.27204933e-02	1.35676381e-04
6.80000000e-01	1.26139945e-02	1.34729589e-04
6.81000000e-01	1.28258193e-02	1.36833234e-04
6.82000000e-01	1.28197509e-02	1.36330845e-04
6.83000000e-01	1.26735285e-02	1.35408751e-04
6.84000000e-01	1.27174176e-02	1.35395418e-04
6.85000000e-01	1.26280792e-02	1.34630722e-04
6.86000000e-01	1.27319594e-02	1.35770835e-04
6.87000000e-01	1.27307761e-02	1.35388959e-04
6.88000000e-01	1.25661816e-02	1.34326516e-04
6.89000000e-01	1.26646319e-02	1.34836320e-04
6.90000000e-01	1.26015994e-02	1.34052661e-04
6.91000000e-01	1.26177216e-02	1.34575173e-04
6.92000000e-01	1.25892253e-02	1.34416071e-04
6.93000000e-01	1.26657631e-02	1.34578450e-04
6.94000000e-01	1.25967297e-02	1.34537048e-04
6.95000000e-01	1.25968964e-02	1.34181277e-04
6.96000000e-01	1.27026617e-02	1.35411804e-04
6.97000000e-01	1.26272436e-02	1.34549944e-04
6.98000000e-01	1.25847436e-02	1.34041614e-04
6.99000000e-01	1.25522398e-02	1.33669584e-04
7.00000000e-01	1.26151271e-02	1.34053489e-04
7.01000000e-01	1.27068004e-02	1.35231316e-04
7.02000000e-01	1.25403523e-02	1.33549105e-04
7.03000000e-01	1.25207432e-02	1.33189227e-04
7.04000000e-01	1.25290503e-02	1.33247690e-04
7.05000000e-01	1.25564061e-02	1.33412527e-04
7.06000000e-01	1.25604960e-02	1.33555503e-04
7.07000000e-01	1.24809578e-02	1.32754274e-04
7.08000000e-01	1.25151869e-02	1.32477723e-04
7.09000000e-01	1.25034277e-02	1.32917474e-04
7.10000000e-01	1.25920504e-02	1.33354726e-04
7.11000000e-01	1.24419260e-02	1.32292254e-04
7.12000000e-01	1.24402970e-02	1.31887936e-04
7.13000000e-01	1.22786987e-02	1.31038949e-04
7.14000000e-01	1.24613192e-02	1.32517271e-04
7.15000000e-01	1.23913083e-02	1.31568341e-04
7.16000000e-01	1.23785095e-02	1.32120379e-04
7.17000000e-01	1.24477421e-02	1.32254307e-04
7.18000000e-01	1.24086464e-02	1.31728014e-04
7.19000000e-01	1.22829976e-02	1.31054796e-04
7.20000000e-01	1.24184786e-02	1.32219594e-04
7.21000000e-01	1.22630210e-02	1.30595550e-04
7.22000000e-01	1.22162772e-02	1.30269613e-04
7.23000000e-01	1.24312759e-02	1.33056858e-04
7.24000000e-01	1.23010281e-02	1.31089145e-04
7.25000000e-01	1.22658799e-02	1.30939164e-04
7.26000000e-01	1.23740052e-02	1.31332727e-04
7.27000000e-01	1.23094056e-02	1.30904905e-04
7.28000000e-01	1.23150856e-02	1.31394994e-04
7.29000000e-01	1.21510219e-02	1.29517050e-04
7.30000000e-01	1.21579829e-02	1.29949295e-04
7.31000000e-01	1.20599904e-02	1.28592358e-04
7.32000000e-01	1.22943244e-02	1.30885256e-04
7.33000000e-01	1.21612127e-02	1.29852877e-04
7.34000000e-01	1.22377186e-02	1.29647159e-04
7.35000000e-01	1.22394708e-02	1.30192941e-04
7.36000000e-01	1.22659400e-02	1.30102439e-04
7.37000000e-01	1.22029088e-02	1.29428792e-04
7.38000000e-01	1.22327703e-02	1.29572409e-04
7.39000000e-01	1.20821844e-02	1.28120084e-04
7.40000000e-01	1.22939680e-02	1.29189568e-04
7.41000000e-01	1.21669227e-02	1.28546614e-04
7.42000000e-01	1.21241580e-02	1.27850092e-04
7.43000000e-01	1.20780090e-02	1.27788632e-04
7.44000000e-01	1.21015437e-02	1.28116943e-04
7.45000000e-01	1.21213326e-02	1.27954230e-04
7.46000000e-01	1.21562944e-02	1.28288533e-04
7.47000000e-01	1.21237280e-02	1.28101390e-04
7.48000000e-01	1.21217045e-02	1.27989544e-04
7.49000000e-01	1.21131496e-02	1.27341596e-04
7.50000000e-01	1.20395227e-02	1.27139689e-04
7.51000000e-01	1.21025902e-02	1.27637398e-04
7.52000000e-01	1.19659549e-02	1.26780736e-04
7.53000000e-01	1.21034681e-02	1.28086289e-04
7.54000000e-01	1.20399454e-02	1.27147021e-04
7.55000000e-01	1.19548756e-02	1.26161593e-04
7.56000000e-01	1.20442123e-02	1.27267927e-04
7.57000000e-01	1.19469788e-02	1.26434441e-04
7.58000000e-01	1.18804645e-02	1.25898263e-04
7.59000000e-01	1.20772018e-02	1.27062269e-04
7.60000000e-01	1.19727506e-02	1.26401966e-04
7.61000000e-01	1.20224062e-02	1.26161200e-04
7.62000000e-01	1.19565159e-02	1.25531612e-04
7.63000000e-01	1.19247466e-02	1.24986801e-04
7.64000000e-01	1.17093565e-02	1.23005963e-04
7.65000000e-01	1.18241870e-02	1.24248904e-04
7.66000000e-01	1.19596931e-02	1.24951665e-04
7.67000000e-01	1.17902116e-02	1.23558519e-04
7.68000000e-01	1.18332908e-02	1.23992494e-04
7.69000000e-01	1.18821929e-02	1.24727910e-04
7.70000000e-01	1.17728742e-02	1.23626232e-04
7.71000000e-01	1.18893663e-02	1.24732266e-04
7.72000000e-01	1.18738124e-02	1.28228989e-04
7.73000000e-01	1.18362415e-02	1.32371926e-04
7.74000000e-01	1.18520029e-02	1.34688522e-04
7.75000000e-01	1.18660356e-02	1.37206649e-04
7.76000000e-01	1.17103240e-02	1.37967542e-04
7.77000000e-01	1.17281297e-02	1.39869329e-04
7.78000000e-01	1.17257867e-02	1.42101741e-04
7.79000000e-01	1.18523260e-02	1.44300350e-04
7.80000000e-01	1.16963453e-02	1.45108546e-04
7.81000000e-01	1.16344059e-02	1.45182624e-04
7.82000000e-01	1.16197983e-02	1.47561024e-04
7.83000000e-01	1.16611399e-02	1.49916118e-04
7.84000000e-01	1.17598519e-02	1.52593870e-04
7.85000000e-01	1.16192827e-02	1.51847417e-04
7.86000000e-01	1.16075893e-02	1.53687646e-04
7.87000000e-01	1.15114100e-02	1.53445528e-04
7.88000000e-01	1.16732855e-02	1.57818526e-04
7.89000000e-01	1.13810022e-02	1.55629317e-04
7.90000000e-01	1.15996241e-02	1.58772853e-04
7.91000000e-01	1.16224416e-02	1.61653394e-04
7.92000000e-01	1.17125567e-02	1.63513237e-04
7.93000000e-01	1.14546810e-02	1.62578606e-04
7.94000000e-01	1.15541602e-02	1.64797127e-04
7.95000000e-01	1.16283635e-02	1.67797829e-04
7.96000000e-01	1.15972510e-02	1.69677236e-04
7.97000000e-01	1.14779658e-02	1.69005614e-04
7.98000000e-01	1.17713639e-02	1.74658932e-04
7.99000000e-01	1.14382269e-02	1.73039908e-04
8.00000000e-01	1.14380836e-02	1.74974981e-04
8.01000000e-01	1.14290469e-02	1.76038597e-04
8.02000000e-01	1.15005437e-02	1.79354575e-04
8.03000000e-01	1.14269181e-02	1.80019562e-04
8.04000000e-01	1.12981025e-02	1.80847129e-04
8.05000000e-01	1.14806851e-02	1.83942508e-04
8.06000000e-01	1.14378476e-02	1.85953018e-04
8.07000000e-01	1.16498464e-02	1.90101743e-04
8.08000000e-01	1.12240092e-02	1.85988076e-04
8.09000000e-01	1.13906927e-02	1.90726637e-04
8.10000000e-01	1.16161160e-02	1.96995807e-04
8.11000000e-01	1.12353367e-02	1.94319835e-04
8.12000000e-01	1.12730783e-02	1.95084194e-04
8.13000000e-01	1.12944409e-02	1.97710429e-04
8.14000000e-01	1.13535360e-02	2.01532527e-04
8.15000000e-01	1.12728533e-02	2.02247299e-04
8.16000000e-01	1.12392930e-02	2.04454063e-04
8.17000000e-01	1.11674908e-02	2.07967332e-04
8.18000000e-01	1.11485135e-02	2.07204272e-04
8.19000000e-01	1.11420568e-02	2.09419787e-04
8.20000000e-01	1.10640779e-02	2.12058726e-04
8.21000000e-01	1.09778788e-02	2.13351354e-04
8.22000000e-01	1.10291761e-02	2.16765525e-04
8.23000000e-01	1.12088234e-02	2.21881336e-04
8.24000000e-01	1.11406071e-02	2.25174304e-04
8.25000000e-01	1.10622324e-02	2.25276911e-04
8.26000000e-01	1.10276311e-02	2.29606298e-04
8.27000000e-01	1.11173769e-02	2.33893485e-04
8.28000000e-01	1.11266664e-02	2.38586054e-04
8.29000000e-01	1.09561331e-02	2.39695288e-04
8.30000000e-01	1.12921411e-02	2.49129821e-04
8.31000000e-01	1.10521647e-02	2.49439963e-04
8.32000000e-01	1.10884116e-02	2.54325180e-04
8.33000000e-01	1.08823559e-02	2.54283039e-04
8.34000000e-01	1.09787224e-02	2.60774043e-04
8.35000000e-01	1.10201771e-02	2.66527568e-04
8.36000000e-01	1.09661475e-02	2.69078980e-04
8.37000000e-01	1.08851181e-02	2.71263857e-04
8.38000000e-01	1.10147933e-02	2.79696686e-04
8.39000000e-01	1.07455558e-02	2.81001991e-04
8.40000000e-01	1.11390260e-02	2.94863463e-04
8.41000000e-01	1.06290301e-02	2.91312329e-04
8.42000000e-01	1.06162240e-02	2.97175952e-04
8.43000000e-01	1.06098510e-02	2.98646256e-04
8.44000000e-01	1.06180840e-02	3.13123409e-04
8.45000000e-01	1.05533803e-02	3.19057458e-04
8.46000000e-01	1.10148725e-02	3.39050012e-04
8.47000000e-01	1.09388446e-02	3.44764457e-04
8.48000000e-01	1.12256785e-02	3.61137081e-04
8.49000000e-01	1.10146386e-02	3.67799763e-04
8.50000000e-01	1.08325429e-02	3.78869976e-04
8.51000000e-01	1.10225728e-02	3.99000562e-04
8.52000000e-01	1.06451614e-02	4.01972472e-04
8.53000000e-01	1.08763854e-02	4.25215555e-04
8.54000000e-01	1.07931307e-02	4.40190018e-04
8.55000000e-01	1.10617753e-02	4.68395270e-04
8.56000000e-01	1.06305960e-02	4.65472811e-04
8.57000000e-01	1.04226251e-02	4.75900524e-04
8.58000000e-01	1.06891851e-02	4.93268117e-04
8.59000000e-01	1.01917203e-02	4.85079542e-04
8.60000000e-01	1.03612450e-02	5.19108051e-04
8.61000000e-01	1.10886507e-02	5.58797722e-04
8.62000000e-01	1.07985413e-02	5.71704546e-04
8.63000000e-01	1.02773249e-02	5.56957006e-04
8.64000000e-01	1.09591438e-02	6.26191139e-04
8.65000000e-01	1.09964386e-02	6.56194559e-04
8.66000000e-01	1.06879088e-02	6.67958638e-04
8.67000000e-01	1.01031430e-02	6.81455503e-04
8.68000000e-01	1.07285183e-02	7.44940236e-04
8.69000000e-01	9.57898711e-03	7.43262198e-04
8.70000000e-01	1.08414562e-02	8.71988410e-04
8.71000000e-01	1.07057469e-02	9.70855279e-04
8.72000000e-01	1.09707931e-02	1.10986482e-03
8.73000000e-01	1.03827071e-02	1.25284868e-03
8.74000000e-01	1.17699293e-02	1.84274054e-03
8.75000000e-01	1.01696570e-02	3.38988466e-03
