% Filename : SEC7_00039_00008.h5
% Date & Time : 30-Oct-2025 17:48:08
% X-ray Energy (keV) : 13.30001
% Exposure Time (s) : 0.500
% Beam Center : 1461.24000, 208.98300
% Sample to Detector Distance (SDD) (mm) : 1990.750
% Detector Pixel Size (mm) : 0.075
% Photodiode Value : 142222.000
% I0 of Sample : 0
% I0 of Standard : 1
% 
% q(A^-1)   I(q)    I(q)_SE
0.00000000e+00	8.89222266e-03	4.91991558e-03
2.50000000e-04	0.00000000e+00	0.00000000e+00
5.00000000e-04	0.00000000e+00	0.00000000e+00
7.50000000e-04	0.00000000e+00	0.00000000e+00
1.00000000e-03	0.00000000e+00	0.00000000e+00
1.25000000e-03	0.00000000e+00	0.00000000e+00
1.50000000e-03	0.00000000e+00	0.00000000e+00
1.75000000e-03	0.00000000e+00	0.00000000e+00
2.00000000e-03	0.00000000e+00	0.00000000e+00
2.25000000e-03	0.00000000e+00	0.00000000e+00
2.50000000e-03	0.00000000e+00	0.00000000e+00
2.75000000e-03	0.00000000e+00	0.00000000e+00
3.00000000e-03	0.00000000e+00	0.00000000e+00
3.25000000e-03	3.41651663e+00	2.00309778e+00
3.50000000e-03	4.37516502e+00	9.50063738e-01
3.75000000e-03	3.58536123e+00	6.24130097e-01
4.00000000e-03	3.22893071e+00	5.09502526e-01
4.25000000e-03	2.57938881e+00	3.47035816e-01
4.50000000e-03	4.11260575e+00	6.89356452e-01
4.75000000e-03	3.81591529e+00	5.62111396e-01
5.00000000e-03	2.90328236e+00	4.03114218e-01
5.25000000e-03	2.48056155e+00	3.30292083e-01
5.50000000e-03	1.99839102e+00	2.53586351e-01
5.75000000e-03	1.67320958e+00	2.05051297e-01
6.00000000e-03	1.42238934e+00	1.65831936e-01
6.25000000e-03	1.18776345e+00	1.36638036e-01
6.50000000e-03	1.02243753e+00	1.13331797e-01
6.75000000e-03	8.82193641e-01	9.45297893e-02
7.00000000e-03	7.76567801e-01	7.95367109e-02
7.25000000e-03	6.68314204e-01	6.65026595e-02
7.50000000e-03	5.81804968e-01	5.81791248e-02
7.75000000e-03	5.09695406e-01	4.80882486e-02
8.00000000e-03	4.64297677e-01	4.40019463e-02
8.25000000e-03	4.09529231e-01	3.71663325e-02
8.50000000e-03	3.67202888e-01	3.23128377e-02
8.75000000e-03	3.30588740e-01	2.89499951e-02
9.00000000e-03	2.92848495e-01	2.46484055e-02
9.25000000e-03	2.67768938e-01	2.19576089e-02
9.50000000e-03	2.40535845e-01	1.94185721e-02
9.75000000e-03	2.17678002e-01	1.70575675e-02
1.00000000e-02	1.99530108e-01	1.53973765e-02
1.02500000e-02	1.81862508e-01	1.40186461e-02
1.05000000e-02	1.71958851e-01	1.28452602e-02
1.07500000e-02	1.53915539e-01	1.15187762e-02
1.10000000e-02	1.43410099e-01	1.02174190e-02
1.12500000e-02	1.30924114e-01	9.42455303e-03
1.15000000e-02	1.24538398e-01	8.84318983e-03
1.17500000e-02	1.17650252e-01	8.05068647e-03
1.20000000e-02	1.09881262e-01	7.54717340e-03
1.22500000e-02	1.03838436e-01	6.97418068e-03
1.25000000e-02	9.57576437e-02	6.46061600e-03
1.27500000e-02	9.27573429e-02	6.13464519e-03
1.30000000e-02	8.80525168e-02	5.73034531e-03
1.32500000e-02	8.10144754e-02	5.18309453e-03
1.35000000e-02	7.79359467e-02	4.88393775e-03
1.37500000e-02	7.31456226e-02	4.61136180e-03
1.40000000e-02	6.92152260e-02	4.28038540e-03
1.42500000e-02	6.52387943e-02	3.97823566e-03
1.45000000e-02	6.28729887e-02	3.79592849e-03
1.47500000e-02	6.24456036e-02	3.78467215e-03
1.50000000e-02	5.68974418e-02	3.36291309e-03
1.52500000e-02	5.28652191e-02	3.06665450e-03
1.55000000e-02	5.11077761e-02	2.92391229e-03
1.57500000e-02	4.97032706e-02	2.85380204e-03
1.60000000e-02	4.80594989e-02	2.68421901e-03
1.62500000e-02	4.77388883e-02	2.69297404e-03
1.65000000e-02	4.40807379e-02	2.44143402e-03
1.67500000e-02	4.39549267e-02	2.40194332e-03
1.70000000e-02	4.25409353e-02	2.32381067e-03
1.72500000e-02	4.23503722e-02	2.28306020e-03
1.75000000e-02	3.92112856e-02	2.11450308e-03
1.77500000e-02	3.86832120e-02	2.03879806e-03
1.80000000e-02	3.72501108e-02	2.00418637e-03
1.82500000e-02	3.61557108e-02	1.87581738e-03
1.85000000e-02	3.55467627e-02	1.90159179e-03
1.87500000e-02	3.60750069e-02	1.86703568e-03
1.90000000e-02	3.45648771e-02	1.79310414e-03
1.92500000e-02	3.31934820e-02	1.68514701e-03
1.95000000e-02	3.22113415e-02	1.64053612e-03
1.97500000e-02	3.25122063e-02	1.65629913e-03
2.00000000e-02	3.09807071e-02	1.55929013e-03
2.02500000e-02	3.16882628e-02	1.57551544e-03
2.05000000e-02	3.03111837e-02	1.50365622e-03
2.07500000e-02	3.08481237e-02	1.51910538e-03
2.10000000e-02	3.00627909e-02	1.49015043e-03
2.12500000e-02	2.98477383e-02	1.49437484e-03
2.15000000e-02	2.96422629e-02	1.46467885e-03
2.17500000e-02	2.86997689e-02	1.43310277e-03
2.20000000e-02	2.85844651e-02	1.42403353e-03
2.22500000e-02	2.75253607e-02	1.37312130e-03
2.25000000e-02	2.82932458e-02	1.41340074e-03
2.27500000e-02	2.75321343e-02	1.34733062e-03
2.30000000e-02	2.84381884e-02	1.41549575e-03
2.32500000e-02	2.69908562e-02	1.34107706e-03
2.35000000e-02	2.74251790e-02	1.37829335e-03
2.37500000e-02	2.72364425e-02	1.35115051e-03
2.40000000e-02	2.60915439e-02	1.29701546e-03
2.42500000e-02	2.60518853e-02	1.29485862e-03
2.45000000e-02	2.62869652e-02	1.29791455e-03
2.47500000e-02	2.60209276e-02	1.27412175e-03
2.50000000e-02	2.60564477e-02	1.29103274e-03
2.52500000e-02	2.59851634e-02	1.28790823e-03
2.55000000e-02	2.54100304e-02	1.23224806e-03
2.57500000e-02	2.51785436e-02	1.22591203e-03
2.60000000e-02	2.49664628e-02	1.22736636e-03
2.62500000e-02	2.48709888e-02	1.23352215e-03
2.65000000e-02	2.51532415e-02	1.24102765e-03
2.67500000e-02	2.47796225e-02	1.20860318e-03
2.70000000e-02	2.41592894e-02	1.18174183e-03
2.72500000e-02	2.44058081e-02	1.18907845e-03
2.75000000e-02	2.52673304e-02	1.24303320e-03
2.77500000e-02	2.44831951e-02	1.19307655e-03
2.80000000e-02	2.44779988e-02	1.17305270e-03
2.82500000e-02	2.42038052e-02	1.16722932e-03
2.85000000e-02	2.46276314e-02	1.18744039e-03
2.87500000e-02	2.47699995e-02	1.19578085e-03
2.90000000e-02	2.49424908e-02	1.20091501e-03
2.92500000e-02	2.46797862e-02	1.15626509e-03
2.95000000e-02	2.44869492e-02	1.18163731e-03
2.97500000e-02	2.46685686e-02	1.16407606e-03
3.00000000e-02	2.41811865e-02	1.15470933e-03
3.02500000e-02	2.55522845e-02	1.23039022e-03
3.05000000e-02	2.43431673e-02	1.13841079e-03
3.07500000e-02	2.36479159e-02	1.12132786e-03
3.10000000e-02	2.44156017e-02	1.14735172e-03
3.12500000e-02	2.41682315e-02	1.14568069e-03
3.15000000e-02	2.44182096e-02	1.13906480e-03
3.17500000e-02	2.35338173e-02	1.08364258e-03
3.20000000e-02	2.33726402e-02	1.09560988e-03
3.22500000e-02	2.42167505e-02	1.13664423e-03
3.25000000e-02	2.41341354e-02	1.12606302e-03
3.27500000e-02	2.43850809e-02	1.13299571e-03
3.30000000e-02	2.32571993e-02	1.08283240e-03
3.32500000e-02	2.31704839e-02	1.07154731e-03
3.35000000e-02	2.32955070e-02	1.08786758e-03
3.37500000e-02	2.29296876e-02	1.05758161e-03
3.40000000e-02	2.30212726e-02	1.05126222e-03
3.42500000e-02	2.33211373e-02	1.06525491e-03
3.45000000e-02	2.23961198e-02	1.03368982e-03
3.47500000e-02	2.34492279e-02	1.06490956e-03
3.50000000e-02	2.28577867e-02	1.04775404e-03
3.52500000e-02	2.29273588e-02	1.03878113e-03
3.55000000e-02	2.25058698e-02	1.00924434e-03
3.57500000e-02	2.31190110e-02	1.05066214e-03
3.60000000e-02	2.23598429e-02	1.00745896e-03
3.62500000e-02	2.27103685e-02	1.02523434e-03
3.65000000e-02	2.21863898e-02	1.00216061e-03
3.67500000e-02	2.16059956e-02	9.64855755e-04
3.70000000e-02	2.21352895e-02	9.93506618e-04
3.72500000e-02	2.29227596e-02	1.01558055e-03
3.75000000e-02	2.19035957e-02	9.90985347e-04
3.77500000e-02	2.22174079e-02	9.95835165e-04
3.80000000e-02	2.18362134e-02	9.63932921e-04
3.82500000e-02	2.21878119e-02	9.74848892e-04
3.85000000e-02	2.26530545e-02	1.00499342e-03
3.87500000e-02	2.22078123e-02	9.88098136e-04
3.90000000e-02	2.21785752e-02	9.88123980e-04
3.92500000e-02	2.16521783e-02	9.43301197e-04
3.95000000e-02	2.14471461e-02	9.46129458e-04
3.97500000e-02	2.20105721e-02	9.55688343e-04
4.00000000e-02	2.12011994e-02	9.25945528e-04
4.02500000e-02	2.14218103e-02	9.41550891e-04
4.05000000e-02	2.17120919e-02	9.38490013e-04
4.07500000e-02	2.16397870e-02	9.29873890e-04
4.10000000e-02	2.14374983e-02	9.28768568e-04
4.12500000e-02	2.10438142e-02	9.03459759e-04
4.15000000e-02	2.17123426e-02	9.37699436e-04
4.17500000e-02	2.18919863e-02	9.37537216e-04
4.20000000e-02	2.17806855e-02	9.18450036e-04
4.22500000e-02	2.27217970e-02	9.58744694e-04
4.25000000e-02	2.14998791e-02	9.11596047e-04
4.27500000e-02	2.21121321e-02	9.41600020e-04
4.30000000e-02	2.20652658e-02	9.37476080e-04
4.32500000e-02	2.14417083e-02	9.05759383e-04
4.35000000e-02	2.17895981e-02	9.25084163e-04
4.37500000e-02	2.17743534e-02	9.03868799e-04
4.40000000e-02	2.10247118e-02	8.95023542e-04
4.42500000e-02	2.15346658e-02	9.01754074e-04
4.45000000e-02	2.10167067e-02	8.80240226e-04
4.47500000e-02	2.13794067e-02	8.94116230e-04
4.50000000e-02	2.10729757e-02	8.80377158e-04
4.52500000e-02	2.08257294e-02	8.75316994e-04
4.55000000e-02	2.20102245e-02	9.07797720e-04
4.57500000e-02	2.17518512e-02	9.06534741e-04
4.60000000e-02	2.11554461e-02	8.73226817e-04
4.62500000e-02	2.11329293e-02	8.80330842e-04
4.65000000e-02	2.03197709e-02	8.38076517e-04
4.67500000e-02	2.08976879e-02	8.49537568e-04
4.70000000e-02	2.08453935e-02	8.44988147e-04
4.72500000e-02	2.07686178e-02	8.56884332e-04
4.75000000e-02	2.14842256e-02	8.80407906e-04
4.77500000e-02	2.11711089e-02	8.71820702e-04
4.80000000e-02	2.15168865e-02	8.69520453e-04
4.82500000e-02	2.17366700e-02	8.90967605e-04
4.85000000e-02	2.11430675e-02	8.68861572e-04
4.87500000e-02	2.15651857e-02	8.77334826e-04
4.90000000e-02	2.05229306e-02	8.22777398e-04
4.92500000e-02	2.03351388e-02	8.14349617e-04
4.95000000e-02	2.11593829e-02	8.45816930e-04
4.97500000e-02	2.14205078e-02	8.66388681e-04
5.00000000e-02	2.06061563e-02	8.35112657e-04
5.02500000e-02	2.01972346e-02	8.02372024e-04
5.05000000e-02	2.10239401e-02	8.39330701e-04
5.07500000e-02	2.07760383e-02	8.31926195e-04
5.10000000e-02	2.10176236e-02	8.33132705e-04
5.12500000e-02	2.13665900e-02	8.50569457e-04
5.15000000e-02	2.10774985e-02	8.34861688e-04
5.17500000e-02	2.09910971e-02	8.36420382e-04
5.20000000e-02	2.09920890e-02	8.21643607e-04
5.22500000e-02	2.14665838e-02	8.42285518e-04
5.25000000e-02	2.12820164e-02	8.35326332e-04
5.27500000e-02	2.08020273e-02	8.09984458e-04
5.30000000e-02	2.09161882e-02	8.26793638e-04
5.32500000e-02	2.08461487e-02	8.09806986e-04
5.35000000e-02	2.09578092e-02	8.15756340e-04
5.37500000e-02	2.05846671e-02	8.03796440e-04
5.40000000e-02	2.08215434e-02	8.09335452e-04
5.42500000e-02	2.04344312e-02	7.92885911e-04
5.45000000e-02	2.08648590e-02	8.09353146e-04
5.47500000e-02	2.07582712e-02	8.01528418e-04
5.50000000e-02	2.13133197e-02	8.23990417e-04
5.52500000e-02	2.05277593e-02	7.94716336e-04
5.55000000e-02	2.10927982e-02	8.07214849e-04
5.57500000e-02	2.08238494e-02	8.07635269e-04
5.60000000e-02	2.07114019e-02	7.93387747e-04
5.62500000e-02	2.04907109e-02	7.90004935e-04
5.65000000e-02	2.05377631e-02	7.82749351e-04
5.67500000e-02	2.10239544e-02	8.05953426e-04
5.70000000e-02	2.05492220e-02	7.78322175e-04
5.72500000e-02	2.10431960e-02	7.98503340e-04
5.75000000e-02	2.10229041e-02	8.02424985e-04
5.77500000e-02	2.06527806e-02	7.75022550e-04
5.80000000e-02	2.10505292e-02	7.92430544e-04
5.82500000e-02	2.08040277e-02	7.84778504e-04
5.85000000e-02	2.06367990e-02	7.73260874e-04
5.87500000e-02	2.03513576e-02	7.64629487e-04
5.90000000e-02	2.07308403e-02	7.81211930e-04
5.92500000e-02	2.01417212e-02	7.54078469e-04
5.95000000e-02	2.07554023e-02	7.73018299e-04
5.97500000e-02	2.05151294e-02	7.71652077e-04
6.00000000e-02	2.05335192e-02	7.67304480e-04
6.02500000e-02	1.95140488e-02	7.29523415e-04
6.05000000e-02	2.04117295e-02	7.54485440e-04
6.07500000e-02	2.12082143e-02	7.87824234e-04
6.10000000e-02	2.08252118e-02	7.64205693e-04
6.12500000e-02	1.98941362e-02	7.44322576e-04
6.15000000e-02	2.00567038e-02	7.35499151e-04
6.17500000e-02	2.07148405e-02	7.64204554e-04
6.20000000e-02	2.03582678e-02	7.55059284e-04
6.22500000e-02	1.98880034e-02	7.30997045e-04
6.25000000e-02	1.99684767e-02	7.35346008e-04
6.27500000e-02	2.01938578e-02	7.33056977e-04
6.30000000e-02	1.98127457e-02	7.24832234e-04
6.32500000e-02	2.04181416e-02	7.42665397e-04
6.35000000e-02	2.05546523e-02	7.56823822e-04
6.37500000e-02	2.02694952e-02	7.40765985e-04
6.40000000e-02	2.05138821e-02	7.44543385e-04
6.42500000e-02	2.05533162e-02	7.39228509e-04
6.45000000e-02	1.99739846e-02	7.23549421e-04
6.47500000e-02	2.03303816e-02	7.32356331e-04
6.50000000e-02	1.99743545e-02	7.32504039e-04
6.52500000e-02	1.97770856e-02	7.12975762e-04
6.55000000e-02	1.96999330e-02	7.08675451e-04
6.57500000e-02	2.01263440e-02	7.24241714e-04
6.60000000e-02	2.00072982e-02	7.20056522e-04
6.62500000e-02	2.00239152e-02	7.23973668e-04
6.65000000e-02	2.01415876e-02	7.17000036e-04
6.67500000e-02	2.01056705e-02	7.16943064e-04
6.70000000e-02	2.03581573e-02	7.28114792e-04
6.72500000e-02	2.04611504e-02	7.34037439e-04
6.75000000e-02	2.09100497e-02	7.37658037e-04
6.77500000e-02	2.00470607e-02	7.05707437e-04
6.80000000e-02	2.00895583e-02	7.13635522e-04
6.82500000e-02	2.06202105e-02	7.26993511e-04
6.85000000e-02	2.03606775e-02	7.24674759e-04
6.87500000e-02	1.98185516e-02	6.92399825e-04
6.90000000e-02	2.00638537e-02	7.06949488e-04
6.92500000e-02	2.04360902e-02	7.20192205e-04
6.95000000e-02	2.01350848e-02	7.11805820e-04
6.97500000e-02	1.99364933e-02	7.06493078e-04
7.00000000e-02	2.02893826e-02	7.10378192e-04
7.02500000e-02	2.00987766e-02	7.02864369e-04
7.05000000e-02	2.01647218e-02	6.96876372e-04
7.07500000e-02	2.03068803e-02	7.11220748e-04
7.10000000e-02	1.99193844e-02	6.90929250e-04
7.12500000e-02	1.99051160e-02	6.92546301e-04
7.15000000e-02	2.01608352e-02	6.97683124e-04
7.17500000e-02	2.03243124e-02	7.05964822e-04
7.20000000e-02	2.02305468e-02	7.04672850e-04
7.22500000e-02	2.04453331e-02	7.08999831e-04
7.25000000e-02	1.99982119e-02	6.87842868e-04
7.27500000e-02	2.00082145e-02	6.90398728e-04
7.30000000e-02	2.00970899e-02	6.93387838e-04
7.32500000e-02	1.94285398e-02	6.71982254e-04
7.35000000e-02	2.03820335e-02	7.04612313e-04
7.37500000e-02	2.01894668e-02	6.84986269e-04
7.40000000e-02	2.02094737e-02	6.97105993e-04
7.42500000e-02	2.00377272e-02	6.81424279e-04
7.45000000e-02	2.04840365e-02	6.94803840e-04
7.47500000e-02	2.02641276e-02	6.82374081e-04
7.50000000e-02	1.98145560e-02	6.70683445e-04
7.52500000e-02	1.99200016e-02	6.81328374e-04
7.55000000e-02	2.01734273e-02	6.83374116e-04
7.57500000e-02	2.04112398e-02	6.92874008e-04
7.60000000e-02	2.04926196e-02	6.92507732e-04
7.62500000e-02	2.00010913e-02	6.75430829e-04
7.65000000e-02	2.02812552e-02	6.89969033e-04
7.67500000e-02	2.01571423e-02	6.79117919e-04
7.70000000e-02	2.04799831e-02	6.86876562e-04
7.72500000e-02	2.01679687e-02	6.88024034e-04
7.75000000e-02	1.98856429e-02	6.84976387e-04
7.77500000e-02	1.96614336e-02	6.77990276e-04
7.80000000e-02	2.02046573e-02	6.99351450e-04
7.82500000e-02	1.96533262e-02	6.89250173e-04
7.85000000e-02	2.00228442e-02	7.10676690e-04
7.87500000e-02	2.00797830e-02	7.08075544e-04
7.90000000e-02	2.01788091e-02	7.14885594e-04
7.92500000e-02	2.00497961e-02	7.10948397e-04
7.95000000e-02	1.97440627e-02	7.04191537e-04
7.97500000e-02	2.03089938e-02	7.26373314e-04
8.00000000e-02	1.95159748e-02	7.01811173e-04
8.02500000e-02	2.07084933e-02	7.45231803e-04
8.05000000e-02	1.98298633e-02	7.13940502e-04
8.07500000e-02	1.99029148e-02	7.20886075e-04
8.10000000e-02	2.05128228e-02	7.36593885e-04
8.12500000e-02	2.06507966e-02	7.49213515e-04
8.15000000e-02	2.01807279e-02	7.32411349e-04
8.17500000e-02	1.97463476e-02	7.22290847e-04
8.20000000e-02	1.94322611e-02	7.10336132e-04
8.22500000e-02	1.98041052e-02	7.26325714e-04
8.25000000e-02	2.01206941e-02	7.37346586e-04
8.27500000e-02	2.05382813e-02	7.44133813e-04
8.30000000e-02	1.98465493e-02	7.31885388e-04
8.32500000e-02	2.02680242e-02	7.45343899e-04
8.35000000e-02	1.97171304e-02	7.32749178e-04
8.37500000e-02	1.94995229e-02	7.15444882e-04
8.40000000e-02	1.98840809e-02	7.31827365e-04
8.42500000e-02	2.02563616e-02	7.44014559e-04
8.45000000e-02	2.00906026e-02	7.39964983e-04
8.47500000e-02	1.97604597e-02	7.28399087e-04
8.50000000e-02	1.99273229e-02	7.31552393e-04
8.52500000e-02	2.01753177e-02	7.52464801e-04
8.55000000e-02	1.99442536e-02	7.29368720e-04
8.57500000e-02	2.02131834e-02	7.52608290e-04
8.60000000e-02	2.00664113e-02	7.44913179e-04
8.62500000e-02	1.94299922e-02	7.24633312e-04
8.65000000e-02	2.03142359e-02	7.47328055e-04
8.67500000e-02	1.91761676e-02	7.07986746e-04
8.70000000e-02	1.99622867e-02	7.22447623e-04
8.72500000e-02	1.96532430e-02	7.03086503e-04
8.75000000e-02	2.02722880e-02	7.18526569e-04
8.77500000e-02	2.02272983e-02	7.11385092e-04
8.80000000e-02	1.94469252e-02	6.80017734e-04
8.82500000e-02	2.00535098e-02	7.01689176e-04
8.85000000e-02	2.05485683e-02	7.17227668e-04
8.87500000e-02	2.00309734e-02	6.89304253e-04
8.90000000e-02	2.00396021e-02	6.90314948e-04
8.92500000e-02	1.99336096e-02	6.82254415e-04
8.95000000e-02	1.95294958e-02	6.69066019e-04
8.97500000e-02	1.98853224e-02	6.77610993e-04
9.00000000e-02	1.97614978e-02	6.65694978e-04
9.02500000e-02	2.00406127e-02	6.78223446e-04
9.05000000e-02	1.91345020e-02	6.48487317e-04
9.07500000e-02	2.00971440e-02	6.74613542e-04
9.10000000e-02	2.03043137e-02	6.82391059e-04
9.12500000e-02	1.96560306e-02	6.61927966e-04
9.15000000e-02	1.96560604e-02	6.59072897e-04
9.17500000e-02	1.95031518e-02	6.55419719e-04
9.20000000e-02	1.96310905e-02	6.59648705e-04
9.22500000e-02	2.01148351e-02	6.68837472e-04
9.25000000e-02	1.98907280e-02	6.61691194e-04
9.27500000e-02	1.99519495e-02	6.59086071e-04
9.30000000e-02	1.94736846e-02	6.48130026e-04
9.32500000e-02	1.99780449e-02	6.61013093e-04
9.35000000e-02	1.97268747e-02	6.51871405e-04
9.37500000e-02	2.02178051e-02	6.66334678e-04
9.40000000e-02	2.00662129e-02	6.60890589e-04
9.42500000e-02	1.97365655e-02	6.46548189e-04
9.45000000e-02	1.93650580e-02	6.40173900e-04
9.47500000e-02	1.98255657e-02	6.45762418e-04
9.50000000e-02	1.96661170e-02	6.38616035e-04
9.52500000e-02	2.00392136e-02	6.59493090e-04
9.55000000e-02	1.91390774e-02	6.26812756e-04
9.57500000e-02	1.97254403e-02	6.37034586e-04
9.60000000e-02	2.00491805e-02	6.45374944e-04
9.62500000e-02	1.92186169e-02	6.20275388e-04
9.65000000e-02	1.99285631e-02	6.45270987e-04
9.67500000e-02	2.00464581e-02	6.41703500e-04
9.70000000e-02	1.98134325e-02	6.42169254e-04
9.72500000e-02	1.95244051e-02	6.26809957e-04
9.75000000e-02	1.99441371e-02	6.35597004e-04
9.77500000e-02	2.03180556e-02	6.43911063e-04
9.80000000e-02	1.95551926e-02	6.25405795e-04
9.82500000e-02	1.97934826e-02	6.30429300e-04
9.85000000e-02	1.98738448e-02	6.35082483e-04
9.87500000e-02	2.01093452e-02	6.36598788e-04
9.90000000e-02	1.97939888e-02	6.29707353e-04
9.92500000e-02	1.99058967e-02	6.37415199e-04
9.95000000e-02	1.99407745e-02	6.32481466e-04
9.97500000e-02	1.97468874e-02	6.26311627e-04
1.00000000e-01	1.96099691e-02	5.04801928e-04
1.00500000e-01	2.00944149e-02	4.49980634e-04
1.01000000e-01	1.98454092e-02	4.38130823e-04
1.01500000e-01	1.97833643e-02	4.38948095e-04
1.02000000e-01	1.98952277e-02	4.37401870e-04
1.02500000e-01	1.99421813e-02	4.36215900e-04
1.03000000e-01	1.94810964e-02	4.27248731e-04
1.03500000e-01	1.97014158e-02	4.30920222e-04
1.04000000e-01	1.95761659e-02	4.27398280e-04
1.04500000e-01	1.97963749e-02	4.29955720e-04
1.05000000e-01	1.95505472e-02	4.22370367e-04
1.05500000e-01	1.96599582e-02	4.26103071e-04
1.06000000e-01	1.95065304e-02	4.20289082e-04
1.06500000e-01	1.97460772e-02	4.24804950e-04
1.07000000e-01	1.99283924e-02	4.33103119e-04
1.07500000e-01	1.99804400e-02	4.41698451e-04
1.08000000e-01	1.95298279e-02	4.37659566e-04
1.08500000e-01	2.00842061e-02	4.52334983e-04
1.09000000e-01	1.96872083e-02	4.48902797e-04
1.09500000e-01	1.91068256e-02	4.34697769e-04
1.10000000e-01	1.98634577e-02	4.45929628e-04
1.10500000e-01	1.98966418e-02	4.36337744e-04
1.11000000e-01	1.99372155e-02	4.30702319e-04
1.11500000e-01	1.98862119e-02	4.28295141e-04
1.12000000e-01	1.94300840e-02	4.13101360e-04
1.12500000e-01	1.93286828e-02	4.10084405e-04
1.13000000e-01	1.97278596e-02	4.17975887e-04
1.13500000e-01	1.99350022e-02	4.19828911e-04
1.14000000e-01	1.97768305e-02	4.14278676e-04
1.14500000e-01	1.98240388e-02	4.14166514e-04
1.15000000e-01	1.97140563e-02	4.11531802e-04
1.15500000e-01	1.97019242e-02	4.09220510e-04
1.16000000e-01	1.96310832e-02	4.07901852e-04
1.16500000e-01	1.99894876e-02	4.15520204e-04
1.17000000e-01	1.92748708e-02	3.99200997e-04
1.17500000e-01	1.94895984e-02	4.00348477e-04
1.18000000e-01	1.98650024e-02	4.09524787e-04
1.18500000e-01	1.98196676e-02	4.03964946e-04
1.19000000e-01	1.95805722e-02	4.02891812e-04
1.19500000e-01	1.97621514e-02	4.03675887e-04
1.20000000e-01	1.95791205e-02	4.00096696e-04
1.20500000e-01	1.95112144e-02	3.96518887e-04
1.21000000e-01	1.95499649e-02	3.96881641e-04
1.21500000e-01	1.97487705e-02	4.00646958e-04
1.22000000e-01	1.96335827e-02	3.95819611e-04
1.22500000e-01	1.96327401e-02	3.95015006e-04
1.23000000e-01	1.93052410e-02	3.88289676e-04
1.23500000e-01	1.98905944e-02	3.98974627e-04
1.24000000e-01	1.97538756e-02	3.96638542e-04
1.24500000e-01	1.98271771e-02	3.94161005e-04
1.25000000e-01	1.96273661e-02	3.91788127e-04
1.25500000e-01	1.96958706e-02	3.88880197e-04
1.26000000e-01	1.96026842e-02	3.89903097e-04
1.26500000e-01	1.96397155e-02	3.89352971e-04
1.27000000e-01	1.94538921e-02	3.86054528e-04
1.27500000e-01	1.99831067e-02	3.92794375e-04
1.28000000e-01	1.95020944e-02	3.85183322e-04
1.28500000e-01	1.97240220e-02	3.87910559e-04
1.29000000e-01	1.94551384e-02	3.83466959e-04
1.29500000e-01	1.97188806e-02	3.84293029e-04
1.30000000e-01	1.96106206e-02	3.83821536e-04
1.30500000e-01	1.97740824e-02	3.86810157e-04
1.31000000e-01	1.98849343e-02	3.87557074e-04
1.31500000e-01	1.94897695e-02	3.78525727e-04
1.32000000e-01	2.00568218e-02	3.87686078e-04
1.32500000e-01	1.96604486e-02	3.78606066e-04
1.33000000e-01	1.94303783e-02	3.74998858e-04
1.33500000e-01	1.92191077e-02	3.67465681e-04
1.34000000e-01	2.00365310e-02	3.83862582e-04
1.34500000e-01	1.98761778e-02	3.77975216e-04
1.35000000e-01	1.97614685e-02	3.75978291e-04
1.35500000e-01	1.95689933e-02	3.71627714e-04
1.36000000e-01	1.94551971e-02	3.67720577e-04
1.36500000e-01	1.96534276e-02	3.73958863e-04
1.37000000e-01	1.93607456e-02	3.65353659e-04
1.37500000e-01	1.94909807e-02	3.68475823e-04
1.38000000e-01	1.95003641e-02	3.70978498e-04
1.38500000e-01	1.94546961e-02	3.66551769e-04
1.39000000e-01	1.92954393e-02	3.63669822e-04
1.39500000e-01	1.99258588e-02	3.74358962e-04
1.40000000e-01	1.91951726e-02	3.62978258e-04
1.40500000e-01	1.95947126e-02	3.68711674e-04
1.41000000e-01	1.98534245e-02	3.71516957e-04
1.41500000e-01	1.95603487e-02	3.66957886e-04
1.42000000e-01	1.95912295e-02	3.64290326e-04
1.42500000e-01	1.92923543e-02	3.60835143e-04
1.43000000e-01	1.95347372e-02	3.66835621e-04
1.43500000e-01	1.92931314e-02	3.60320920e-04
1.44000000e-01	1.93621627e-02	3.61075862e-04
1.44500000e-01	1.96916490e-02	3.63231841e-04
1.45000000e-01	1.96694396e-02	3.63803118e-04
1.45500000e-01	1.94513975e-02	3.60437720e-04
1.46000000e-01	1.96686328e-02	3.62362629e-04
1.46500000e-01	1.95293852e-02	3.59993570e-04
1.47000000e-01	1.91494116e-02	3.52357060e-04
1.47500000e-01	1.91703906e-02	3.52932307e-04
1.48000000e-01	1.96139677e-02	3.58974123e-04
1.48500000e-01	1.95119717e-02	3.57677480e-04
1.49000000e-01	1.95178527e-02	3.55865871e-04
1.49500000e-01	1.93256904e-02	3.52195312e-04
1.50000000e-01	1.97116549e-02	3.57013402e-04
1.50500000e-01	1.96140554e-02	3.58117928e-04
1.51000000e-01	1.92582042e-02	3.51161434e-04
1.51500000e-01	1.92009236e-02	3.46434849e-04
1.52000000e-01	1.91881149e-02	3.44485480e-04
1.52500000e-01	1.94635909e-02	3.50079555e-04
1.53000000e-01	1.95831544e-02	3.51116920e-04
1.53500000e-01	1.94409927e-02	3.49121962e-04
1.54000000e-01	1.93482928e-02	3.47024306e-04
1.54500000e-01	1.97270021e-02	3.59596809e-04
1.55000000e-01	1.92825730e-02	3.57210062e-04
1.55500000e-01	1.93707628e-02	3.59842485e-04
1.56000000e-01	1.91322246e-02	3.59004152e-04
1.56500000e-01	1.90231139e-02	3.56067797e-04
1.57000000e-01	1.91558327e-02	3.60405158e-04
1.57500000e-01	1.95091988e-02	3.57657403e-04
1.58000000e-01	1.90298755e-02	3.45864697e-04
1.58500000e-01	1.91871118e-02	3.47024980e-04
1.59000000e-01	1.90733384e-02	3.41541345e-04
1.59500000e-01	1.91856343e-02	3.43362253e-04
1.60000000e-01	1.89944864e-02	3.39283688e-04
1.60500000e-01	1.94732767e-02	3.46180098e-04
1.61000000e-01	1.93248364e-02	3.46220832e-04
1.61500000e-01	1.94167778e-02	3.44761888e-04
1.62000000e-01	1.93427467e-02	3.42063788e-04
1.62500000e-01	1.92601237e-02	3.40577459e-04
1.63000000e-01	1.90493986e-02	3.36471288e-04
1.63500000e-01	1.91279901e-02	3.39085124e-04
1.64000000e-01	1.91036245e-02	3.34041978e-04
1.64500000e-01	1.90274516e-02	3.33451037e-04
1.65000000e-01	1.88895315e-02	3.30961364e-04
1.65500000e-01	1.90838030e-02	3.31956290e-04
1.66000000e-01	1.92239417e-02	3.34860417e-04
1.66500000e-01	1.90253156e-02	3.32550413e-04
1.67000000e-01	1.86536519e-02	3.26076070e-04
1.67500000e-01	1.91613525e-02	3.31849491e-04
1.68000000e-01	1.90583939e-02	3.31650974e-04
1.68500000e-01	1.88933340e-02	3.27701143e-04
1.69000000e-01	1.90932670e-02	3.30097304e-04
1.69500000e-01	1.89719594e-02	3.26441234e-04
1.70000000e-01	1.90161414e-02	3.27334796e-04
1.70500000e-01	1.87820966e-02	3.24708808e-04
1.71000000e-01	1.87996128e-02	3.24212303e-04
1.71500000e-01	1.89299657e-02	3.25109714e-04
1.72000000e-01	1.89210783e-02	3.24903996e-04
1.72500000e-01	1.90157916e-02	3.24852577e-04
1.73000000e-01	1.91786286e-02	3.26688219e-04
1.73500000e-01	1.89220944e-02	3.22627368e-04
1.74000000e-01	1.90406423e-02	3.24452845e-04
1.74500000e-01	1.88488063e-02	3.18234959e-04
1.75000000e-01	1.86853650e-02	3.14179753e-04
1.75500000e-01	1.88084869e-02	3.16437326e-04
1.76000000e-01	1.89222227e-02	3.17898991e-04
1.76500000e-01	1.85751585e-02	3.12567458e-04
1.77000000e-01	1.86084314e-02	3.13123035e-04
1.77500000e-01	1.89410169e-02	3.19197160e-04
1.78000000e-01	1.88667486e-02	3.17025855e-04
1.78500000e-01	1.87871133e-02	3.15432396e-04
1.79000000e-01	1.86880358e-02	3.13446551e-04
1.79500000e-01	1.89464534e-02	3.17533236e-04
1.80000000e-01	1.87994537e-02	3.15455598e-04
1.80500000e-01	1.86972776e-02	3.13220982e-04
1.81000000e-01	1.86218432e-02	3.11701228e-04
1.81500000e-01	1.85642202e-02	3.10479771e-04
1.82000000e-01	1.86386069e-02	3.10670645e-04
1.82500000e-01	1.87077344e-02	3.10906897e-04
1.83000000e-01	1.85453461e-02	3.10205200e-04
1.83500000e-01	1.85103182e-02	3.06920663e-04
1.84000000e-01	1.88140343e-02	3.11398240e-04
1.84500000e-01	1.87412806e-02	3.10692867e-04
1.85000000e-01	1.84253342e-02	3.04992499e-04
1.85500000e-01	1.87007258e-02	3.09171448e-04
1.86000000e-01	1.82937949e-02	3.01077153e-04
1.86500000e-01	1.86363997e-02	3.07326827e-04
1.87000000e-01	1.86350982e-02	3.07504770e-04
1.87500000e-01	1.86326557e-02	3.05338257e-04
1.88000000e-01	1.85183537e-02	3.04059582e-04
1.88500000e-01	1.86905438e-02	3.04437389e-04
1.89000000e-01	1.85302399e-02	3.04307926e-04
1.89500000e-01	1.85961534e-02	3.04607198e-04
1.90000000e-01	1.84290272e-02	2.99904850e-04
1.90500000e-01	1.84297362e-02	3.02890588e-04
1.91000000e-01	1.85451611e-02	3.01611707e-04
1.91500000e-01	1.85121251e-02	3.02336279e-04
1.92000000e-01	1.85306211e-02	3.00030946e-04
1.92500000e-01	1.83857733e-02	2.98765579e-04
1.93000000e-01	1.83291756e-02	2.97613904e-04
1.93500000e-01	1.82474873e-02	2.96156958e-04
1.94000000e-01	1.83273270e-02	2.96989524e-04
1.94500000e-01	1.83708870e-02	2.96335082e-04
1.95000000e-01	1.85457118e-02	2.99569970e-04
1.95500000e-01	1.85098212e-02	2.97522085e-04
1.96000000e-01	1.84475634e-02	2.96729500e-04
1.96500000e-01	1.82900518e-02	2.93631699e-04
1.97000000e-01	1.84955063e-02	2.96616849e-04
1.97500000e-01	1.87840465e-02	3.01288867e-04
1.98000000e-01	1.83505382e-02	2.94235702e-04
1.98500000e-01	1.84849091e-02	2.94857880e-04
1.99000000e-01	1.84027405e-02	2.94488113e-04
1.99500000e-01	1.80603124e-02	2.88698300e-04
2.00000000e-01	1.81818916e-02	2.90605402e-04
2.00500000e-01	1.82716714e-02	2.91595086e-04
2.01000000e-01	1.86222712e-02	2.95078051e-04
2.01500000e-01	1.82161846e-02	2.88558432e-04
2.02000000e-01	1.82683879e-02	2.89875212e-04
2.02500000e-01	1.84721276e-02	2.92423103e-04
2.03000000e-01	1.82753697e-02	2.90089752e-04
2.03500000e-01	1.84945561e-02	2.93387156e-04
2.04000000e-01	1.78664206e-02	2.82923995e-04
2.04500000e-01	1.82815376e-02	2.89365798e-04
2.05000000e-01	1.81488791e-02	2.84743509e-04
2.05500000e-01	1.82366474e-02	2.87647564e-04
2.06000000e-01	1.79424857e-02	2.82117483e-04
2.06500000e-01	1.82652409e-02	2.86233043e-04
2.07000000e-01	1.82913902e-02	2.86184576e-04
2.07500000e-01	1.80407303e-02	2.82555820e-04
2.08000000e-01	1.84003291e-02	2.88184049e-04
2.08500000e-01	1.82323219e-02	2.84674692e-04
2.09000000e-01	1.81509911e-02	2.84213827e-04
2.09500000e-01	1.83330844e-02	2.85657719e-04
2.10000000e-01	1.80565710e-02	2.81377011e-04
2.10500000e-01	1.82046499e-02	2.82709525e-04
2.11000000e-01	1.81499695e-02	2.82161429e-04
2.11500000e-01	1.83333937e-02	2.84765317e-04
2.12000000e-01	1.79508978e-02	2.77899155e-04
2.12500000e-01	1.80447648e-02	2.79848031e-04
2.13000000e-01	1.78917681e-02	2.77636139e-04
2.13500000e-01	1.78698914e-02	2.76072236e-04
2.14000000e-01	1.82270302e-02	2.81963177e-04
2.14500000e-01	1.81168026e-02	2.79043709e-04
2.15000000e-01	1.80108235e-02	2.78747046e-04
2.15500000e-01	1.79532607e-02	2.76151004e-04
2.16000000e-01	1.79961354e-02	2.77301314e-04
2.16500000e-01	1.81310013e-02	2.77965676e-04
2.17000000e-01	1.80633819e-02	2.81819381e-04
2.17500000e-01	1.80132057e-02	2.84678225e-04
2.18000000e-01	1.79405868e-02	2.83294870e-04
2.18500000e-01	1.82103450e-02	2.90730653e-04
2.19000000e-01	1.79999764e-02	2.88620034e-04
2.19500000e-01	1.79033181e-02	2.87592061e-04
2.20000000e-01	1.83488576e-02	2.96832776e-04
2.20500000e-01	1.79602829e-02	2.91079550e-04
2.21000000e-01	1.79660336e-02	2.92508760e-04
2.21500000e-01	1.78799979e-02	2.92306474e-04
2.22000000e-01	1.78840933e-02	2.91274287e-04
2.22500000e-01	1.79321343e-02	2.92916294e-04
2.23000000e-01	1.77890806e-02	2.90849566e-04
2.23500000e-01	1.77668114e-02	2.92483920e-04
2.24000000e-01	1.80477644e-02	2.95376949e-04
2.24500000e-01	1.78442944e-02	2.94564951e-04
2.25000000e-01	1.78850303e-02	2.95264055e-04
2.25500000e-01	1.77511808e-02	2.92838815e-04
2.26000000e-01	1.80242340e-02	2.99991725e-04
2.26500000e-01	1.79318718e-02	2.92008714e-04
2.27000000e-01	1.80031538e-02	2.91469981e-04
2.27500000e-01	1.80324771e-02	2.89047756e-04
2.28000000e-01	1.80106347e-02	2.87760709e-04
2.28500000e-01	1.78440370e-02	2.83464766e-04
2.29000000e-01	1.77712344e-02	2.81837374e-04
2.29500000e-01	1.74166080e-02	2.75920725e-04
2.30000000e-01	1.79106768e-02	2.80479224e-04
2.30500000e-01	1.79901342e-02	2.81924712e-04
2.31000000e-01	1.78783165e-02	2.80319474e-04
2.31500000e-01	1.77954923e-02	2.78539474e-04
2.32000000e-01	1.77861514e-02	2.77266457e-04
2.32500000e-01	1.79405419e-02	2.78553877e-04
2.33000000e-01	1.77277181e-02	2.74183680e-04
2.33500000e-01	1.79852529e-02	2.77578259e-04
2.34000000e-01	1.75458033e-02	2.71563685e-04
2.34500000e-01	1.78180003e-02	2.73679707e-04
2.35000000e-01	1.76890936e-02	2.72932124e-04
2.35500000e-01	1.75588114e-02	2.69904786e-04
2.36000000e-01	1.78049291e-02	2.72975804e-04
2.36500000e-01	1.76874237e-02	2.70786476e-04
2.37000000e-01	1.78043361e-02	2.71863551e-04
2.37500000e-01	1.78325110e-02	2.71268864e-04
2.38000000e-01	1.74711883e-02	2.64902051e-04
2.38500000e-01	1.75084996e-02	2.65848911e-04
2.39000000e-01	1.76422573e-02	2.67250167e-04
2.39500000e-01	1.77027944e-02	2.67101646e-04
2.40000000e-01	1.76692716e-02	2.66916536e-04
2.40500000e-01	1.76115874e-02	2.64739104e-04
2.41000000e-01	1.74358611e-02	2.63595292e-04
2.41500000e-01	1.76135647e-02	2.64143584e-04
2.42000000e-01	1.77156270e-02	2.65170132e-04
2.42500000e-01	1.78419455e-02	2.66458755e-04
2.43000000e-01	1.76578663e-02	2.63951845e-04
2.43500000e-01	1.76904266e-02	2.64265343e-04
2.44000000e-01	1.77098509e-02	2.64229488e-04
2.44500000e-01	1.76226152e-02	2.62260653e-04
2.45000000e-01	1.74674545e-02	2.59709272e-04
2.45500000e-01	1.76518856e-02	2.62016233e-04
2.46000000e-01	1.75632108e-02	2.61162234e-04
2.46500000e-01	1.75297536e-02	2.59601080e-04
2.47000000e-01	1.75960307e-02	2.61152878e-04
2.47500000e-01	1.74814804e-02	2.57746865e-04
2.48000000e-01	1.76823409e-02	2.60917071e-04
2.48500000e-01	1.75883271e-02	2.58489659e-04
2.49000000e-01	1.75151321e-02	2.57867377e-04
2.49500000e-01	1.76909790e-02	2.59934505e-04
2.50000000e-01	1.74644918e-02	2.56525459e-04
2.50500000e-01	1.75806042e-02	2.58538523e-04
2.51000000e-01	1.74386286e-02	2.55378099e-04
2.51500000e-01	1.73006084e-02	2.55286771e-04
2.52000000e-01	1.73524890e-02	2.53778542e-04
2.52500000e-01	1.74015277e-02	2.54514138e-04
2.53000000e-01	1.73391772e-02	2.54166668e-04
2.53500000e-01	1.74000667e-02	2.53724527e-04
2.54000000e-01	1.75335671e-02	2.55645626e-04
2.54500000e-01	1.73378134e-02	2.52886945e-04
2.55000000e-01	1.75443444e-02	2.54455560e-04
2.55500000e-01	1.72878994e-02	2.51877875e-04
2.56000000e-01	1.74776665e-02	2.53769177e-04
2.56500000e-01	1.72695941e-02	2.51101977e-04
2.57000000e-01	1.72383291e-02	2.50324247e-04
2.57500000e-01	1.77593462e-02	2.56856182e-04
2.58000000e-01	1.75799122e-02	2.53614120e-04
2.58500000e-01	1.75553332e-02	2.52990413e-04
2.59000000e-01	1.74748665e-02	2.52369754e-04
2.59500000e-01	1.72757872e-02	2.49140401e-04
2.60000000e-01	1.73524527e-02	2.49954826e-04
2.60500000e-01	1.76236052e-02	2.52433480e-04
2.61000000e-01	1.73409832e-02	2.48643627e-04
2.61500000e-01	1.73629788e-02	2.50303193e-04
2.62000000e-01	1.73232448e-02	2.48222338e-04
2.62500000e-01	1.72477916e-02	2.47143970e-04
2.63000000e-01	1.74901144e-02	2.50484348e-04
2.63500000e-01	1.74671429e-02	2.49387859e-04
2.64000000e-01	1.72420543e-02	2.46468876e-04
2.64500000e-01	1.71649216e-02	2.44627377e-04
2.65000000e-01	1.73321271e-02	2.46998026e-04
2.65500000e-01	1.72839819e-02	2.45467619e-04
2.66000000e-01	1.73135983e-02	2.46001349e-04
2.66500000e-01	1.73143952e-02	2.45366271e-04
2.67000000e-01	1.71184466e-02	2.43146996e-04
2.67500000e-01	1.72931722e-02	2.44665443e-04
2.68000000e-01	1.68834565e-02	2.39425181e-04
2.68500000e-01	1.74117896e-02	2.46382139e-04
2.69000000e-01	1.72394647e-02	2.42983264e-04
2.69500000e-01	1.71399195e-02	2.40900308e-04
2.70000000e-01	1.71748203e-02	2.41903744e-04
2.70500000e-01	1.71365667e-02	2.40440067e-04
2.71000000e-01	1.71822769e-02	2.41106093e-04
2.71500000e-01	1.70913875e-02	2.39889859e-04
2.72000000e-01	1.70850778e-02	2.39799234e-04
2.72500000e-01	1.73011077e-02	2.42230116e-04
2.73000000e-01	1.70636612e-02	2.37607717e-04
2.73500000e-01	1.71184817e-02	2.38762080e-04
2.74000000e-01	1.71875052e-02	2.40104764e-04
2.74500000e-01	1.71689410e-02	2.38961918e-04
2.75000000e-01	1.70643320e-02	2.38092363e-04
2.75500000e-01	1.70738638e-02	2.37829751e-04
2.76000000e-01	1.72387348e-02	2.40010469e-04
2.76500000e-01	1.71448589e-02	2.38657932e-04
2.77000000e-01	1.71377772e-02	2.38042896e-04
2.77500000e-01	1.70525322e-02	2.37423308e-04
2.78000000e-01	1.71978161e-02	2.38243357e-04
2.78500000e-01	1.69363940e-02	2.34862073e-04
2.79000000e-01	1.69981058e-02	2.35544061e-04
2.79500000e-01	1.71541534e-02	2.37047445e-04
2.80000000e-01	1.71938799e-02	2.38753625e-04
2.80500000e-01	1.71943137e-02	2.37643406e-04
2.81000000e-01	1.69436159e-02	2.34749920e-04
2.81500000e-01	1.69665283e-02	2.34041826e-04
2.82000000e-01	1.69507829e-02	2.33400586e-04
2.82500000e-01	1.71614573e-02	2.37403344e-04
2.83000000e-01	1.70685222e-02	2.34657413e-04
2.83500000e-01	1.69332705e-02	2.32779685e-04
2.84000000e-01	1.69612425e-02	2.32855012e-04
2.84500000e-01	1.68940270e-02	2.32014799e-04
2.85000000e-01	1.72559196e-02	2.35615191e-04
2.85500000e-01	1.69121377e-02	2.31620059e-04
2.86000000e-01	1.71100416e-02	2.35292173e-04
2.86500000e-01	1.68621614e-02	2.30937167e-04
2.87000000e-01	1.67965054e-02	2.30390925e-04
2.87500000e-01	1.69183616e-02	2.30834040e-04
2.88000000e-01	1.70588514e-02	2.31631604e-04
2.88500000e-01	1.69635361e-02	2.31459118e-04
2.89000000e-01	1.68160968e-02	2.28985590e-04
2.89500000e-01	1.66954264e-02	2.27092658e-04
2.90000000e-01	1.70746885e-02	2.31520476e-04
2.90500000e-01	1.67370135e-02	2.27685196e-04
2.91000000e-01	1.68915964e-02	2.29818248e-04
2.91500000e-01	1.70149795e-02	2.29560478e-04
2.92000000e-01	1.66837298e-02	2.25312039e-04
2.92500000e-01	1.69347296e-02	2.28714970e-04
2.93000000e-01	1.68674110e-02	2.27868316e-04
2.93500000e-01	1.68656543e-02	2.27068956e-04
2.94000000e-01	1.69198904e-02	2.28288792e-04
2.94500000e-01	1.67777780e-02	2.26397382e-04
2.95000000e-01	1.68953785e-02	2.27022406e-04
2.95500000e-01	1.67560979e-02	2.25477944e-04
2.96000000e-01	1.68778174e-02	2.26974554e-04
2.96500000e-01	1.66893288e-02	2.23790569e-04
2.97000000e-01	1.69233655e-02	2.26935243e-04
2.97500000e-01	1.67817443e-02	2.24860762e-04
2.98000000e-01	1.66855558e-02	2.23806982e-04
2.98500000e-01	1.67600499e-02	2.25140731e-04
2.99000000e-01	1.66711603e-02	2.23147168e-04
2.99500000e-01	1.68730525e-02	2.25005324e-04
3.00000000e-01	1.68402134e-02	2.24995161e-04
3.00500000e-01	1.66826674e-02	2.22646386e-04
3.01000000e-01	1.68492980e-02	2.24661647e-04
3.01500000e-01	1.66580454e-02	2.22444984e-04
3.02000000e-01	1.66341610e-02	2.21254096e-04
3.02500000e-01	1.68672853e-02	2.24390564e-04
3.03000000e-01	1.67698241e-02	2.22977989e-04
3.03500000e-01	1.66191138e-02	2.20615061e-04
3.04000000e-01	1.66494789e-02	2.21863369e-04
3.04500000e-01	1.68496736e-02	2.22360384e-04
3.05000000e-01	1.68187917e-02	2.23103924e-04
3.05500000e-01	1.67795137e-02	2.21324939e-04
3.06000000e-01	1.67798425e-02	2.20384511e-04
3.06500000e-01	1.66980111e-02	2.20546179e-04
3.07000000e-01	1.67381073e-02	2.20494791e-04
3.07500000e-01	1.65363300e-02	2.18683488e-04
3.08000000e-01	1.65087651e-02	2.18247672e-04
3.08500000e-01	1.65262048e-02	2.17560107e-04
3.09000000e-01	1.67084606e-02	2.20102540e-04
3.09500000e-01	1.66141559e-02	2.18984622e-04
3.10000000e-01	1.64736055e-02	2.16793319e-04
3.10500000e-01	1.67879016e-02	2.19651295e-04
3.11000000e-01	1.65512401e-02	2.17780238e-04
3.11500000e-01	1.66347240e-02	2.16977859e-04
3.12000000e-01	1.64313205e-02	2.15551653e-04
3.12500000e-01	1.67814390e-02	2.19251476e-04
3.13000000e-01	1.65844916e-02	2.16355551e-04
3.13500000e-01	1.65191092e-02	2.16119106e-04
3.14000000e-01	1.65219651e-02	2.15983989e-04
3.14500000e-01	1.66195747e-02	2.16154114e-04
3.15000000e-01	1.65167472e-02	2.15678827e-04
3.15500000e-01	1.64533531e-02	2.14229349e-04
3.16000000e-01	1.66022692e-02	2.16070874e-04
3.16500000e-01	1.64769542e-02	2.14547871e-04
3.17000000e-01	1.66527966e-02	2.16428052e-04
3.17500000e-01	1.62801945e-02	2.12248354e-04
3.18000000e-01	1.63911468e-02	2.12693758e-04
3.18500000e-01	1.67255487e-02	2.17239775e-04
3.19000000e-01	1.63655767e-02	2.12946104e-04
3.19500000e-01	1.66152178e-02	2.14850733e-04
3.20000000e-01	1.64339390e-02	2.12997187e-04
3.20500000e-01	1.64328728e-02	2.12243035e-04
3.21000000e-01	1.63245433e-02	2.11368478e-04
3.21500000e-01	1.64607159e-02	2.12680300e-04
3.22000000e-01	1.63516408e-02	2.11168084e-04
3.22500000e-01	1.62898953e-02	2.10657725e-04
3.23000000e-01	1.63103201e-02	2.10539809e-04
3.23500000e-01	1.63717739e-02	2.11626446e-04
3.24000000e-01	1.63620225e-02	2.09879813e-04
3.24500000e-01	1.63814084e-02	2.11096913e-04
3.25000000e-01	1.61784807e-02	2.07485036e-04
3.25500000e-01	1.62604626e-02	2.08959660e-04
3.26000000e-01	1.62200534e-02	2.08230517e-04
3.26500000e-01	1.64661664e-02	2.10563922e-04
3.27000000e-01	1.62201115e-02	2.07501387e-04
3.27500000e-01	1.61049527e-02	2.06326951e-04
3.28000000e-01	1.62903798e-02	2.08580934e-04
3.28500000e-01	1.61863376e-02	2.07651907e-04
3.29000000e-01	1.62278930e-02	2.07235666e-04
3.29500000e-01	1.61775447e-02	2.07198833e-04
3.30000000e-01	1.61852995e-02	2.07515578e-04
3.30500000e-01	1.61911067e-02	2.06267846e-04
3.31000000e-01	1.62288239e-02	2.06591758e-04
3.31500000e-01	1.62607009e-02	2.06108988e-04
3.32000000e-01	1.59111893e-02	2.03140148e-04
3.32500000e-01	1.61591293e-02	2.05144351e-04
3.33000000e-01	1.63124941e-02	2.06661900e-04
3.33500000e-01	1.62689385e-02	2.06267248e-04
3.34000000e-01	1.62251583e-02	2.06229678e-04
3.34500000e-01	1.60517760e-02	2.03864326e-04
3.35000000e-01	1.61589544e-02	2.05193777e-04
3.35500000e-01	1.61960162e-02	2.05011760e-04
3.36000000e-01	1.60198769e-02	2.02620804e-04
3.36500000e-01	1.60870665e-02	2.03618017e-04
3.37000000e-01	1.61838806e-02	2.03843063e-04
3.37500000e-01	1.58934824e-02	2.00509144e-04
3.38000000e-01	1.61307881e-02	2.03696988e-04
3.38500000e-01	1.61355468e-02	2.03338719e-04
3.39000000e-01	1.60850841e-02	2.03788227e-04
3.39500000e-01	1.61421323e-02	2.02299443e-04
3.40000000e-01	1.60484880e-02	2.01965990e-04
3.40500000e-01	1.60971619e-02	2.02327883e-04
3.41000000e-01	1.61005000e-02	2.02212715e-04
3.41500000e-01	1.59522553e-02	2.01328485e-04
3.42000000e-01	1.62072109e-02	2.02758076e-04
3.42500000e-01	1.59774134e-02	2.00639332e-04
3.43000000e-01	1.58448395e-02	1.99129978e-04
3.43500000e-01	1.58493066e-02	1.97993672e-04
3.44000000e-01	1.58864755e-02	1.99736143e-04
3.44500000e-01	1.58756873e-02	1.98857210e-04
3.45000000e-01	1.60447824e-02	2.00832188e-04
3.45500000e-01	1.58766879e-02	1.97716099e-04
3.46000000e-01	1.60058587e-02	2.00158373e-04
3.46500000e-01	1.57357518e-02	1.96239083e-04
3.47000000e-01	1.57052483e-02	1.95697152e-04
3.47500000e-01	1.58640069e-02	1.97909896e-04
3.48000000e-01	1.59448888e-02	1.97891291e-04
3.48500000e-01	1.58157396e-02	1.96681230e-04
3.49000000e-01	1.59091706e-02	1.97139547e-04
3.49500000e-01	1.58969357e-02	1.96924774e-04
3.50000000e-01	1.57579577e-02	1.60212986e-04
3.51000000e-01	1.58729390e-02	1.39131249e-04
3.52000000e-01	1.59152514e-02	1.39411185e-04
3.53000000e-01	1.58739171e-02	1.38162040e-04
3.54000000e-01	1.58600427e-02	1.38176468e-04
3.55000000e-01	1.58506411e-02	1.37696537e-04
3.56000000e-01	1.58199005e-02	1.38261238e-04
3.57000000e-01	1.58338602e-02	1.40955486e-04
3.58000000e-01	1.58734381e-02	1.42601463e-04
3.59000000e-01	1.56925938e-02	1.41862699e-04
3.60000000e-01	1.56623464e-02	1.42659327e-04
3.61000000e-01	1.56997530e-02	1.43392589e-04
3.62000000e-01	1.56757827e-02	1.44032107e-04
3.63000000e-01	1.55822361e-02	1.43437351e-04
3.64000000e-01	1.54990297e-02	1.43987978e-04
3.65000000e-01	1.55824609e-02	1.44195198e-04
3.66000000e-01	1.55200298e-02	1.42379085e-04
3.67000000e-01	1.55479851e-02	1.40819329e-04
3.68000000e-01	1.55734982e-02	1.39602412e-04
3.69000000e-01	1.55829049e-02	1.39510658e-04
3.70000000e-01	1.55677473e-02	1.38455007e-04
3.71000000e-01	1.54641609e-02	1.39506274e-04
3.72000000e-01	1.55407844e-02	1.41174409e-04
3.73000000e-01	1.55803893e-02	1.41722877e-04
3.74000000e-01	1.56495326e-02	1.42554120e-04
3.75000000e-01	1.55207481e-02	1.41619969e-04
3.76000000e-01	1.54200211e-02	1.40634968e-04
3.77000000e-01	1.54875326e-02	1.40870409e-04
3.78000000e-01	1.54817352e-02	1.40969611e-04
3.79000000e-01	1.56303107e-02	1.42082749e-04
3.80000000e-01	1.54403142e-02	1.40471767e-04
3.81000000e-01	1.53860784e-02	1.39992738e-04
3.82000000e-01	1.54432667e-02	1.40102827e-04
3.83000000e-01	1.53718803e-02	1.39147382e-04
3.84000000e-01	1.54287947e-02	1.40017806e-04
3.85000000e-01	1.53255933e-02	1.39382605e-04
3.86000000e-01	1.52688840e-02	1.38972477e-04
3.87000000e-01	1.53402784e-02	1.38922688e-04
3.88000000e-01	1.52787429e-02	1.38667078e-04
3.89000000e-01	1.52853761e-02	1.38709795e-04
3.90000000e-01	1.52203687e-02	1.37916298e-04
3.91000000e-01	1.53762505e-02	1.39177962e-04
3.92000000e-01	1.53313475e-02	1.38653040e-04
3.93000000e-01	1.52547691e-02	1.38581061e-04
3.94000000e-01	1.52236830e-02	1.38082764e-04
3.95000000e-01	1.52987571e-02	1.38440085e-04
3.96000000e-01	1.51250779e-02	1.36799671e-04
3.97000000e-01	1.51194465e-02	1.36882146e-04
3.98000000e-01	1.51901929e-02	1.37522801e-04
3.99000000e-01	1.52202850e-02	1.37778393e-04
4.00000000e-01	1.51730148e-02	1.37284244e-04
4.01000000e-01	1.50819061e-02	1.36619830e-04
4.02000000e-01	1.50266491e-02	1.36520185e-04
4.03000000e-01	1.51562507e-02	1.37148526e-04
4.04000000e-01	1.52200951e-02	1.37258053e-04
4.05000000e-01	1.50243447e-02	1.36329743e-04
4.06000000e-01	1.51026784e-02	1.36773303e-04
4.07000000e-01	1.51669145e-02	1.37164705e-04
4.08000000e-01	1.50978552e-02	1.36423534e-04
4.09000000e-01	1.48862635e-02	1.34692121e-04
4.10000000e-01	1.50409206e-02	1.35804004e-04
4.11000000e-01	1.49912257e-02	1.35431586e-04
4.12000000e-01	1.50774576e-02	1.35875013e-04
4.13000000e-01	1.49934610e-02	1.35587399e-04
4.14000000e-01	1.49697702e-02	1.35220130e-04
4.15000000e-01	1.49685999e-02	1.35226618e-04
4.16000000e-01	1.49638581e-02	1.35084612e-04
4.17000000e-01	1.50506009e-02	1.35950579e-04
4.18000000e-01	1.48904527e-02	1.35965468e-04
4.19000000e-01	1.51014445e-02	1.39139856e-04
4.20000000e-01	1.50621046e-02	1.39583923e-04
4.21000000e-01	1.49566855e-02	1.39300369e-04
4.22000000e-01	1.50478460e-02	1.40468787e-04
4.23000000e-01	1.50579036e-02	1.41180082e-04
4.24000000e-01	1.50152808e-02	1.41002778e-04
4.25000000e-01	1.51186421e-02	1.42129498e-04
4.26000000e-01	1.49665548e-02	1.40852165e-04
4.27000000e-01	1.49246169e-02	1.40396641e-04
4.28000000e-01	1.49681477e-02	1.41216278e-04
4.29000000e-01	1.49295437e-02	1.41036251e-04
4.30000000e-01	1.49797409e-02	1.41424148e-04
4.31000000e-01	1.50108942e-02	1.41434525e-04
4.32000000e-01	1.49826520e-02	1.41431206e-04
4.33000000e-01	1.48558972e-02	1.40598456e-04
4.34000000e-01	1.48917452e-02	1.40553079e-04
4.35000000e-01	1.47963710e-02	1.40481178e-04
4.36000000e-01	1.49152234e-02	1.41449981e-04
4.37000000e-01	1.48665750e-02	1.41127123e-04
4.38000000e-01	1.48823017e-02	1.41422571e-04
4.39000000e-01	1.47881309e-02	1.41108180e-04
4.40000000e-01	1.49101115e-02	1.42257208e-04
4.41000000e-01	1.47333951e-02	1.40770370e-04
4.42000000e-01	1.47609668e-02	1.41110034e-04
4.43000000e-01	1.48353663e-02	1.41672433e-04
4.44000000e-01	1.46805179e-02	1.41083893e-04
4.45000000e-01	1.47778637e-02	1.41980583e-04
4.46000000e-01	1.47776105e-02	1.41946393e-04
4.47000000e-01	1.48106477e-02	1.42413364e-04
4.48000000e-01	1.46491010e-02	1.40901355e-04
4.49000000e-01	1.47546169e-02	1.41900649e-04
4.50000000e-01	1.46490165e-02	1.41327346e-04
4.51000000e-01	1.48227965e-02	1.42892633e-04
4.52000000e-01	1.46934917e-02	1.42120830e-04
4.53000000e-01	1.47438336e-02	1.42576536e-04
4.54000000e-01	1.47710525e-02	1.42950841e-04
4.55000000e-01	1.46898115e-02	1.42297489e-04
4.56000000e-01	1.46198803e-02	1.41759575e-04
4.57000000e-01	1.45751167e-02	1.41194738e-04
4.58000000e-01	1.46939864e-02	1.42487642e-04
4.59000000e-01	1.47179700e-02	1.42975152e-04
4.60000000e-01	1.45755754e-02	1.42122240e-04
4.61000000e-01	1.47663105e-02	1.43802945e-04
4.62000000e-01	1.45110721e-02	1.41393549e-04
4.63000000e-01	1.46787094e-02	1.42965543e-04
4.64000000e-01	1.47930942e-02	1.44296326e-04
4.65000000e-01	1.45620251e-02	1.42514997e-04
4.66000000e-01	1.45008511e-02	1.41216603e-04
4.67000000e-01	1.45243322e-02	1.41939841e-04
4.68000000e-01	1.46964572e-02	1.43626234e-04
4.69000000e-01	1.46248589e-02	1.43249213e-04
4.70000000e-01	1.45343384e-02	1.42707864e-04
4.71000000e-01	1.45374488e-02	1.42251154e-04
4.72000000e-01	1.45183591e-02	1.42425484e-04
4.73000000e-01	1.45523838e-02	1.42186936e-04
4.74000000e-01	1.44674420e-02	1.41695389e-04
4.75000000e-01	1.44447820e-02	1.41518253e-04
4.76000000e-01	1.44224828e-02	1.41306696e-04
4.77000000e-01	1.45008261e-02	1.42123733e-04
4.78000000e-01	1.44746362e-02	1.42352156e-04
4.79000000e-01	1.43833295e-02	1.41167892e-04
4.80000000e-01	1.43807535e-02	1.41000510e-04
4.81000000e-01	1.43602657e-02	1.40965259e-04
4.82000000e-01	1.44782654e-02	1.41970692e-04
4.83000000e-01	1.43486901e-02	1.41577892e-04
4.84000000e-01	1.43075144e-02	1.40735144e-04
4.85000000e-01	1.42796077e-02	1.40702928e-04
4.86000000e-01	1.43383738e-02	1.40935647e-04
4.87000000e-01	1.42501014e-02	1.40261332e-04
4.88000000e-01	1.43578248e-02	1.41258507e-04
4.89000000e-01	1.43466448e-02	1.41496229e-04
4.90000000e-01	1.43952851e-02	1.42037017e-04
4.91000000e-01	1.41009980e-02	1.39475383e-04
4.92000000e-01	1.43328754e-02	1.41770847e-04
4.93000000e-01	1.43810392e-02	1.42288589e-04
4.94000000e-01	1.42556061e-02	1.40980036e-04
4.95000000e-01	1.42269735e-02	1.41936644e-04
4.96000000e-01	1.43364259e-02	1.47378269e-04
4.97000000e-01	1.42713545e-02	1.49315121e-04
4.98000000e-01	1.44295510e-02	1.52677395e-04
4.99000000e-01	1.43761705e-02	1.54090968e-04
5.00000000e-01	1.43256209e-02	1.55866042e-04
5.01000000e-01	1.42635060e-02	1.55619173e-04
5.02000000e-01	1.44493583e-02	1.60161984e-04
5.03000000e-01	1.42152127e-02	1.58747239e-04
5.04000000e-01	1.42294595e-02	1.59406413e-04
5.05000000e-01	1.43203986e-02	1.58395383e-04
5.06000000e-01	1.42939263e-02	1.54968067e-04
5.07000000e-01	1.42764148e-02	1.53260680e-04
5.08000000e-01	1.43878983e-02	1.53269680e-04
5.09000000e-01	1.41256243e-02	1.50126644e-04
5.10000000e-01	1.43044793e-02	1.50753824e-04
5.11000000e-01	1.42072730e-02	1.50239877e-04
5.12000000e-01	1.41413049e-02	1.48515898e-04
5.13000000e-01	1.42376436e-02	1.49338223e-04
5.14000000e-01	1.42315158e-02	1.49030389e-04
5.15000000e-01	1.41168352e-02	1.48130403e-04
5.16000000e-01	1.40839850e-02	1.47062859e-04
5.17000000e-01	1.40026358e-02	1.46495524e-04
5.18000000e-01	1.39726874e-02	1.45379702e-04
5.19000000e-01	1.39810336e-02	1.45043962e-04
5.20000000e-01	1.39694899e-02	1.44414412e-04
5.21000000e-01	1.40481749e-02	1.45425794e-04
5.22000000e-01	1.41029090e-02	1.45630529e-04
5.23000000e-01	1.42599044e-02	1.47474834e-04
5.24000000e-01	1.40161090e-02	1.45261003e-04
5.25000000e-01	1.41229839e-02	1.45960637e-04
5.26000000e-01	1.40303408e-02	1.44488802e-04
5.27000000e-01	1.41530774e-02	1.45827791e-04
5.28000000e-01	1.41382200e-02	1.45525256e-04
5.29000000e-01	1.40049783e-02	1.44286191e-04
5.30000000e-01	1.39502283e-02	1.43900626e-04
5.31000000e-01	1.40001340e-02	1.44741303e-04
5.32000000e-01	1.40821564e-02	1.45387368e-04
5.33000000e-01	1.39057555e-02	1.43503902e-04
5.34000000e-01	1.40090106e-02	1.44147563e-04
5.35000000e-01	1.40777893e-02	1.44931630e-04
5.36000000e-01	1.40495425e-02	1.44697752e-04
5.37000000e-01	1.39872159e-02	1.44157303e-04
5.38000000e-01	1.39571158e-02	1.43939359e-04
5.39000000e-01	1.39477410e-02	1.43758510e-04
5.40000000e-01	1.38958263e-02	1.43791020e-04
5.41000000e-01	1.39783454e-02	1.44124081e-04
5.42000000e-01	1.38958210e-02	1.43017234e-04
5.43000000e-01	1.38929642e-02	1.43453781e-04
5.44000000e-01	1.37915336e-02	1.42543018e-04
5.45000000e-01	1.38649973e-02	1.43122941e-04
5.46000000e-01	1.38645218e-02	1.42879752e-04
5.47000000e-01	1.37796432e-02	1.42364267e-04
5.48000000e-01	1.36765828e-02	1.41757095e-04
5.49000000e-01	1.38922939e-02	1.42938425e-04
5.50000000e-01	1.37041737e-02	1.41451141e-04
5.51000000e-01	1.38223314e-02	1.42161205e-04
5.52000000e-01	1.36901427e-02	1.40444778e-04
5.53000000e-01	1.37774265e-02	1.41383181e-04
5.54000000e-01	1.37277831e-02	1.40692488e-04
5.55000000e-01	1.36767693e-02	1.40550233e-04
5.56000000e-01	1.37068018e-02	1.40517774e-04
5.57000000e-01	1.37147079e-02	1.40761058e-04
5.58000000e-01	1.37280023e-02	1.40321259e-04
5.59000000e-01	1.37249309e-02	1.40723484e-04
5.60000000e-01	1.37030426e-02	1.40977280e-04
5.61000000e-01	1.37089029e-02	1.40305978e-04
5.62000000e-01	1.37253996e-02	1.41185861e-04
5.63000000e-01	1.37049731e-02	1.40881655e-04
5.64000000e-01	1.36804824e-02	1.40411204e-04
5.65000000e-01	1.36869261e-02	1.40594295e-04
5.66000000e-01	1.36564375e-02	1.40584993e-04
5.67000000e-01	1.36710220e-02	1.40094319e-04
5.68000000e-01	1.35613215e-02	1.39777646e-04
5.69000000e-01	1.36424976e-02	1.40044680e-04
5.70000000e-01	1.35168894e-02	1.38809742e-04
5.71000000e-01	1.37464433e-02	1.40777491e-04
5.72000000e-01	1.35914666e-02	1.39354814e-04
5.73000000e-01	1.34612722e-02	1.38453187e-04
5.74000000e-01	1.36698098e-02	1.40425019e-04
5.75000000e-01	1.34870451e-02	1.38973521e-04
5.76000000e-01	1.35027454e-02	1.38870302e-04
5.77000000e-01	1.33877488e-02	1.37904146e-04
5.78000000e-01	1.34869477e-02	1.38757878e-04
5.79000000e-01	1.34438452e-02	1.38246937e-04
5.80000000e-01	1.34665253e-02	1.38618881e-04
5.81000000e-01	1.36464693e-02	1.40262712e-04
5.82000000e-01	1.35085558e-02	1.39209445e-04
5.83000000e-01	1.34061991e-02	1.38235438e-04
5.84000000e-01	1.33683543e-02	1.37685181e-04
5.85000000e-01	1.33780866e-02	1.37781739e-04
5.86000000e-01	1.34201700e-02	1.38516958e-04
5.87000000e-01	1.33350754e-02	1.37758810e-04
5.88000000e-01	1.35340469e-02	1.39443832e-04
5.89000000e-01	1.34144374e-02	1.38339502e-04
5.90000000e-01	1.32060494e-02	1.36236688e-04
5.91000000e-01	1.32462444e-02	1.37284579e-04
5.92000000e-01	1.33167335e-02	1.37524444e-04
5.93000000e-01	1.33802164e-02	1.38295842e-04
5.94000000e-01	1.33027888e-02	1.37480474e-04
5.95000000e-01	1.33509974e-02	1.37872974e-04
5.96000000e-01	1.33853410e-02	1.38418287e-04
5.97000000e-01	1.32462551e-02	1.37074146e-04
5.98000000e-01	1.32412620e-02	1.37213672e-04
5.99000000e-01	1.33387941e-02	1.37601982e-04
6.00000000e-01	1.33017636e-02	1.37508008e-04
6.01000000e-01	1.32830429e-02	1.37123875e-04
6.02000000e-01	1.32685230e-02	1.36621447e-04
6.03000000e-01	1.31645965e-02	1.36564176e-04
6.04000000e-01	1.32757352e-02	1.37577590e-04
6.05000000e-01	1.32586493e-02	1.37142865e-04
6.06000000e-01	1.32203028e-02	1.37141919e-04
6.07000000e-01	1.31614829e-02	1.36436263e-04
6.08000000e-01	1.31607918e-02	1.36472546e-04
6.09000000e-01	1.31285296e-02	1.35896655e-04
6.10000000e-01	1.31873605e-02	1.36520515e-04
6.11000000e-01	1.32603868e-02	1.37537460e-04
6.12000000e-01	1.30909553e-02	1.36416728e-04
6.13000000e-01	1.30832542e-02	1.36033349e-04
6.14000000e-01	1.32295261e-02	1.36811528e-04
6.15000000e-01	1.31862423e-02	1.36410307e-04
6.16000000e-01	1.31544777e-02	1.36665567e-04
6.17000000e-01	1.30741115e-02	1.35360806e-04
6.18000000e-01	1.32327599e-02	1.36893612e-04
6.19000000e-01	1.31166527e-02	1.36368629e-04
6.20000000e-01	1.29969203e-02	1.35080639e-04
6.21000000e-01	1.31265070e-02	1.35584959e-04
6.22000000e-01	1.31424751e-02	1.35497112e-04
6.23000000e-01	1.30413536e-02	1.34442576e-04
6.24000000e-01	1.31186392e-02	1.35101727e-04
6.25000000e-01	1.30040053e-02	1.34181292e-04
6.26000000e-01	1.30702346e-02	1.34756799e-04
6.27000000e-01	1.30658304e-02	1.34788029e-04
6.28000000e-01	1.29944082e-02	1.34023692e-04
6.29000000e-01	1.31144723e-02	1.34889554e-04
6.30000000e-01	1.30677562e-02	1.34572391e-04
6.31000000e-01	1.30295976e-02	1.34463787e-04
6.32000000e-01	1.28928400e-02	1.32962559e-04
6.33000000e-01	1.30508125e-02	1.34341569e-04
6.34000000e-01	1.31117904e-02	1.38728108e-04
6.35000000e-01	1.30039086e-02	1.41407954e-04
6.36000000e-01	1.31441942e-02	1.45124915e-04
6.37000000e-01	1.30380723e-02	1.46455906e-04
6.38000000e-01	1.30084294e-02	1.48609050e-04
6.39000000e-01	1.29588825e-02	1.49182905e-04
6.40000000e-01	1.30813130e-02	1.52692513e-04
6.41000000e-01	1.29282957e-02	1.52772601e-04
6.42000000e-01	1.31679139e-02	1.57262255e-04
6.43000000e-01	1.30047496e-02	1.55239966e-04
6.44000000e-01	1.32510325e-02	1.51846032e-04
6.45000000e-01	1.31909590e-02	1.49455929e-04
6.46000000e-01	1.31477910e-02	1.47769867e-04
6.47000000e-01	1.30227379e-02	1.45404837e-04
6.48000000e-01	1.30566295e-02	1.44215050e-04
6.49000000e-01	1.31491488e-02	1.44681563e-04
6.50000000e-01	1.30229092e-02	1.42704592e-04
6.51000000e-01	1.29917871e-02	1.42008046e-04
6.52000000e-01	1.29205967e-02	1.40850536e-04
6.53000000e-01	1.30774551e-02	1.41408220e-04
6.54000000e-01	1.28895210e-02	1.39361032e-04
6.55000000e-01	1.29691859e-02	1.39500919e-04
6.56000000e-01	1.30881145e-02	1.40637645e-04
6.57000000e-01	1.29025157e-02	1.38884210e-04
6.58000000e-01	1.30422999e-02	1.40405537e-04
6.59000000e-01	1.30450725e-02	1.39837853e-04
6.60000000e-01	1.29157909e-02	1.39024674e-04
6.61000000e-01	1.29873026e-02	1.38950831e-04
6.62000000e-01	1.28244550e-02	1.37731148e-04
6.63000000e-01	1.28884197e-02	1.38567132e-04
6.64000000e-01	1.29379514e-02	1.38442035e-04
6.65000000e-01	1.28891162e-02	1.38641601e-04
6.66000000e-01	1.30783526e-02	1.39563425e-04
6.67000000e-01	1.28796101e-02	1.37476997e-04
6.68000000e-01	1.28074221e-02	1.37209558e-04
6.69000000e-01	1.29514228e-02	1.38070763e-04
6.70000000e-01	1.29478742e-02	1.38331137e-04
6.71000000e-01	1.29160017e-02	1.38453742e-04
6.72000000e-01	1.27731360e-02	1.37023582e-04
6.73000000e-01	1.28164329e-02	1.36938484e-04
6.74000000e-01	1.28381101e-02	1.37103131e-04
6.75000000e-01	1.27439382e-02	1.36169744e-04
6.76000000e-01	1.28004236e-02	1.36533500e-04
6.77000000e-01	1.27522098e-02	1.36119714e-04
6.78000000e-01	1.27806356e-02	1.36229385e-04
6.79000000e-01	1.28042489e-02	1.36904632e-04
6.80000000e-01	1.27909690e-02	1.36385192e-04
6.81000000e-01	1.26386886e-02	1.34877740e-04
6.82000000e-01	1.27233403e-02	1.35633214e-04
6.83000000e-01	1.26635316e-02	1.34984590e-04
6.84000000e-01	1.28464487e-02	1.36526199e-04
6.85000000e-01	1.29137906e-02	1.37213569e-04
6.86000000e-01	1.26149679e-02	1.34762892e-04
6.87000000e-01	1.27621503e-02	1.35962173e-04
6.88000000e-01	1.28372580e-02	1.36557752e-04
6.89000000e-01	1.27212895e-02	1.35432346e-04
6.90000000e-01	1.27059531e-02	1.35065448e-04
6.91000000e-01	1.28029384e-02	1.36891772e-04
6.92000000e-01	1.27053013e-02	1.35250134e-04
6.93000000e-01	1.27621537e-02	1.35665879e-04
6.94000000e-01	1.27622480e-02	1.36028477e-04
6.95000000e-01	1.27368683e-02	1.35335724e-04
6.96000000e-01	1.25642297e-02	1.33559560e-04
6.97000000e-01	1.26703200e-02	1.34856706e-04
6.98000000e-01	1.26712255e-02	1.34650413e-04
6.99000000e-01	1.27305542e-02	1.35140430e-04
7.00000000e-01	1.27484332e-02	1.35430001e-04
7.01000000e-01	1.25290245e-02	1.33338104e-04
7.02000000e-01	1.25883894e-02	1.33859645e-04
7.03000000e-01	1.25100442e-02	1.33370013e-04
7.04000000e-01	1.26681275e-02	1.34764555e-04
7.05000000e-01	1.26293150e-02	1.34033712e-04
7.06000000e-01	1.25766752e-02	1.33949809e-04
7.07000000e-01	1.25081902e-02	1.32776393e-04
7.08000000e-01	1.25309876e-02	1.32965966e-04
7.09000000e-01	1.24988594e-02	1.32480342e-04
7.10000000e-01	1.24917130e-02	1.32699468e-04
7.11000000e-01	1.24831119e-02	1.32507890e-04
7.12000000e-01	1.24919324e-02	1.32831013e-04
7.13000000e-01	1.25571883e-02	1.33059489e-04
7.14000000e-01	1.24824408e-02	1.32062359e-04
7.15000000e-01	1.23615496e-02	1.32108842e-04
7.16000000e-01	1.24985874e-02	1.33077956e-04
7.17000000e-01	1.23563886e-02	1.31316012e-04
7.18000000e-01	1.24293746e-02	1.32513879e-04
7.19000000e-01	1.23568315e-02	1.31300006e-04
7.20000000e-01	1.23838493e-02	1.31703984e-04
7.21000000e-01	1.23515312e-02	1.31406971e-04
7.22000000e-01	1.23719051e-02	1.31642676e-04
7.23000000e-01	1.22711393e-02	1.30780280e-04
7.24000000e-01	1.22713583e-02	1.30733987e-04
7.25000000e-01	1.23750225e-02	1.31893375e-04
7.26000000e-01	1.23654492e-02	1.31865433e-04
7.27000000e-01	1.23595531e-02	1.31660303e-04
7.28000000e-01	1.24006060e-02	1.31730717e-04
7.29000000e-01	1.23067146e-02	1.30918417e-04
7.30000000e-01	1.23646448e-02	1.31590694e-04
7.31000000e-01	1.22933241e-02	1.31120126e-04
7.32000000e-01	1.21025357e-02	1.29064717e-04
7.33000000e-01	1.22036403e-02	1.30144387e-04
7.34000000e-01	1.22665699e-02	1.30082142e-04
7.35000000e-01	1.22621440e-02	1.30639094e-04
7.36000000e-01	1.22606882e-02	1.30120123e-04
7.37000000e-01	1.22491338e-02	1.29566537e-04
7.38000000e-01	1.21573792e-02	1.28864243e-04
7.39000000e-01	1.22879393e-02	1.29215128e-04
7.40000000e-01	1.20453645e-02	1.27559585e-04
7.41000000e-01	1.20384422e-02	1.27200260e-04
7.42000000e-01	1.22200264e-02	1.28927614e-04
7.43000000e-01	1.21651558e-02	1.28278114e-04
7.44000000e-01	1.19937074e-02	1.26807173e-04
7.45000000e-01	1.21348255e-02	1.28155615e-04
7.46000000e-01	1.20342271e-02	1.26854939e-04
7.47000000e-01	1.21384041e-02	1.27956106e-04
7.48000000e-01	1.20512693e-02	1.27236365e-04
7.49000000e-01	1.20968146e-02	1.27682319e-04
7.50000000e-01	1.21569487e-02	1.28582026e-04
7.51000000e-01	1.20011949e-02	1.26854738e-04
7.52000000e-01	1.20364741e-02	1.26781998e-04
7.53000000e-01	1.20318424e-02	1.26799561e-04
7.54000000e-01	1.21202910e-02	1.27709002e-04
7.55000000e-01	1.21784194e-02	1.28659016e-04
7.56000000e-01	1.20382769e-02	1.27130344e-04
7.57000000e-01	1.20398618e-02	1.27272455e-04
7.58000000e-01	1.19847338e-02	1.26467031e-04
7.59000000e-01	1.19431846e-02	1.26173124e-04
7.60000000e-01	1.20740155e-02	1.27255277e-04
7.61000000e-01	1.20696578e-02	1.26604527e-04
7.62000000e-01	1.17976494e-02	1.24216949e-04
7.63000000e-01	1.18898122e-02	1.24970934e-04
7.64000000e-01	1.18091924e-02	1.23605979e-04
7.65000000e-01	1.19367094e-02	1.25584757e-04
7.66000000e-01	1.18278557e-02	1.24071360e-04
7.67000000e-01	1.18995615e-02	1.24715420e-04
7.68000000e-01	1.17597056e-02	1.23296322e-04
7.69000000e-01	1.18743666e-02	1.24434340e-04
7.70000000e-01	1.19127095e-02	1.24483176e-04
7.71000000e-01	1.19283729e-02	1.24506137e-04
7.72000000e-01	1.18427913e-02	1.28302962e-04
7.73000000e-01	1.19036859e-02	1.32352828e-04
7.74000000e-01	1.17721689e-02	1.34318275e-04
7.75000000e-01	1.16685835e-02	1.35181600e-04
7.76000000e-01	1.18558497e-02	1.38791047e-04
7.77000000e-01	1.17640800e-02	1.40303546e-04
7.78000000e-01	1.17686101e-02	1.42203973e-04
7.79000000e-01	1.16927287e-02	1.42953097e-04
7.80000000e-01	1.16916683e-02	1.44990212e-04
7.81000000e-01	1.19008570e-02	1.49008522e-04
7.82000000e-01	1.16992369e-02	1.48059686e-04
7.83000000e-01	1.17281245e-02	1.50303388e-04
7.84000000e-01	1.16961635e-02	1.50752803e-04
7.85000000e-01	1.17754490e-02	1.53900820e-04
7.86000000e-01	1.17310048e-02	1.55039553e-04
7.87000000e-01	1.17691078e-02	1.57406437e-04
7.88000000e-01	1.18607329e-02	1.59417535e-04
7.89000000e-01	1.16506193e-02	1.57655331e-04
7.90000000e-01	1.16942007e-02	1.61229871e-04
7.91000000e-01	1.16187955e-02	1.60520422e-04
7.92000000e-01	1.15290642e-02	1.61882404e-04
7.93000000e-01	1.15016279e-02	1.63061794e-04
7.94000000e-01	1.15392771e-02	1.64501053e-04
7.95000000e-01	1.16782995e-02	1.68544586e-04
7.96000000e-01	1.14977216e-02	1.67482581e-04
7.97000000e-01	1.15327476e-02	1.71056844e-04
7.98000000e-01	1.15358570e-02	1.73214391e-04
7.99000000e-01	1.15789238e-02	1.74829624e-04
8.00000000e-01	1.14869526e-02	1.73873064e-04
8.01000000e-01	1.15685698e-02	1.77711359e-04
8.02000000e-01	1.12061190e-02	1.74363376e-04
8.03000000e-01	1.14421182e-02	1.79748574e-04
8.04000000e-01	1.15427973e-02	1.82922331e-04
8.05000000e-01	1.15104125e-02	1.85276345e-04
8.06000000e-01	1.14416242e-02	1.85686308e-04
8.07000000e-01	1.13475412e-02	1.85928411e-04
8.08000000e-01	1.14783376e-02	1.90880032e-04
8.09000000e-01	1.13636990e-02	1.89757185e-04
8.10000000e-01	1.13689322e-02	1.93443695e-04
8.11000000e-01	1.14552736e-02	1.95923685e-04
8.12000000e-01	1.14402022e-02	1.97725739e-04
8.13000000e-01	1.12862603e-02	1.97862917e-04
8.14000000e-01	1.15187856e-02	2.03949676e-04
8.15000000e-01	1.14359513e-02	2.04351069e-04
8.16000000e-01	1.11720359e-02	2.04217152e-04
8.17000000e-01	1.14163253e-02	2.09559105e-04
8.18000000e-01	1.13135413e-02	2.11541329e-04
8.19000000e-01	1.13564386e-02	2.14385086e-04
8.20000000e-01	1.10803753e-02	2.13233711e-04
8.21000000e-01	1.14009461e-02	2.19856004e-04
8.22000000e-01	1.11264212e-02	2.18366132e-04
8.23000000e-01	1.12352906e-02	2.23204754e-04
8.24000000e-01	1.12367541e-02	2.28761570e-04
8.25000000e-01	1.11506497e-02	2.28455313e-04
8.26000000e-01	1.11556086e-02	2.32326473e-04
8.27000000e-01	1.10798943e-02	2.33636954e-04
8.28000000e-01	1.12912630e-02	2.41618309e-04
8.29000000e-01	1.10670556e-02	2.40826489e-04
8.30000000e-01	1.09682573e-02	2.44641856e-04
8.31000000e-01	1.10652127e-02	2.46527603e-04
8.32000000e-01	1.11818999e-02	2.53545361e-04
8.33000000e-01	1.10829471e-02	2.57265075e-04
8.34000000e-01	1.10444651e-02	2.61205006e-04
8.35000000e-01	1.09880125e-02	2.65249354e-04
8.36000000e-01	1.08311914e-02	2.65892538e-04
8.37000000e-01	1.09228696e-02	2.74916873e-04
8.38000000e-01	1.09369240e-02	2.78282060e-04
8.39000000e-01	1.08815096e-02	2.81952832e-04
8.40000000e-01	1.08372589e-02	2.88486344e-04
8.41000000e-01	1.10175807e-02	2.99464430e-04
8.42000000e-01	1.05843382e-02	2.95973222e-04
8.43000000e-01	1.07989667e-02	3.06917197e-04
8.44000000e-01	1.10645370e-02	3.21721579e-04
8.45000000e-01	1.09184899e-02	3.24436496e-04
8.46000000e-01	1.11018745e-02	3.37774239e-04
8.47000000e-01	1.05975779e-02	3.36189850e-04
8.48000000e-01	1.03350540e-02	3.36819712e-04
8.49000000e-01	1.07829936e-02	3.60319451e-04
8.50000000e-01	1.07994783e-02	3.77005402e-04
8.51000000e-01	1.07470406e-02	3.88973899e-04
8.52000000e-01	1.05837221e-02	3.95366287e-04
8.53000000e-01	1.04904230e-02	4.06524276e-04
8.54000000e-01	1.07445232e-02	4.39059913e-04
8.55000000e-01	1.09167559e-02	4.59948337e-04
8.56000000e-01	1.10158609e-02	4.77602723e-04
8.57000000e-01	1.04012305e-02	4.65053454e-04
8.58000000e-01	1.06006317e-02	4.94277074e-04
8.59000000e-01	1.08013322e-02	5.15405904e-04
8.60000000e-01	1.11707089e-02	5.46396531e-04
8.61000000e-01	1.01275287e-02	5.13461653e-04
8.62000000e-01	1.07232816e-02	5.70233402e-04
8.63000000e-01	1.09045855e-02	5.91538673e-04
8.64000000e-01	1.05990471e-02	5.96273973e-04
8.65000000e-01	1.05290803e-02	6.19077829e-04
8.66000000e-01	1.09279105e-02	6.79568662e-04
8.67000000e-01	1.02816303e-02	7.03474536e-04
8.68000000e-01	1.09667814e-02	7.85582579e-04
8.69000000e-01	1.09279408e-02	8.18033328e-04
8.70000000e-01	1.00391567e-02	8.56938483e-04
8.71000000e-01	1.09370600e-02	9.89293225e-04
8.72000000e-01	9.62592829e-03	1.02638620e-03
8.73000000e-01	1.07495708e-02	1.33701266e-03
8.74000000e-01	1.20436799e-02	1.99153286e-03
8.75000000e-01	1.27028888e-02	3.88079896e-03
