% Filename : SEC7_00039_00035.h5
% Date & Time : 30-Oct-2025 17:49:25
% X-ray Energy (keV) : 13.30001
% Exposure Time (s) : 0.500
% Beam Center : 1461.24000, 208.98300
% Sample to Detector Distance (SDD) (mm) : 1990.750
% Detector Pixel Size (mm) : 0.075
% Photodiode Value : 141716.000
% I0 of Sample : 0
% I0 of Standard : 1
% 
% q(A^-1)   I(q)    I(q)_SE
0.00000000e+00	1.14736992e-02	6.11399905e-03
2.50000000e-04	0.00000000e+00	0.00000000e+00
5.00000000e-04	0.00000000e+00	0.00000000e+00
7.50000000e-04	0.00000000e+00	0.00000000e+00
1.00000000e-03	0.00000000e+00	0.00000000e+00
1.25000000e-03	0.00000000e+00	0.00000000e+00
1.50000000e-03	0.00000000e+00	0.00000000e+00
1.75000000e-03	0.00000000e+00	0.00000000e+00
2.00000000e-03	0.00000000e+00	0.00000000e+00
2.25000000e-03	0.00000000e+00	0.00000000e+00
2.50000000e-03	0.00000000e+00	0.00000000e+00
2.75000000e-03	0.00000000e+00	0.00000000e+00
3.00000000e-03	0.00000000e+00	0.00000000e+00
3.25000000e-03	3.48706485e+02	2.20257033e+02
3.50000000e-03	1.70017902e+02	5.10201510e+01
3.75000000e-03	1.08854679e+02	2.78849107e+01
4.00000000e-03	8.11214179e+01	1.91215458e+01
4.25000000e-03	5.38090282e+01	1.11158900e+01
4.50000000e-03	5.46746560e+01	9.97386640e+00
4.75000000e-03	4.81935208e+01	7.58584406e+00
5.00000000e-03	3.76198597e+01	5.51779142e+00
5.25000000e-03	3.03247227e+01	4.09299724e+00
5.50000000e-03	2.47608837e+01	3.22644036e+00
5.75000000e-03	2.14133823e+01	2.70934376e+00
6.00000000e-03	1.70820153e+01	2.12699485e+00
6.25000000e-03	1.52685715e+01	1.94931721e+00
6.50000000e-03	1.31402490e+01	1.73963555e+00
6.75000000e-03	1.16390308e+01	1.49036877e+00
7.00000000e-03	1.04755625e+01	1.27650347e+00
7.25000000e-03	8.53537268e+00	9.52912737e-01
7.50000000e-03	7.29423252e+00	8.05312493e-01
7.75000000e-03	6.27197693e+00	6.44980992e-01
8.00000000e-03	5.76224159e+00	5.83547543e-01
8.25000000e-03	5.18736150e+00	5.15971212e-01
8.50000000e-03	4.64879914e+00	4.61041344e-01
8.75000000e-03	4.23159229e+00	4.21952216e-01
9.00000000e-03	3.79797804e+00	3.75444474e-01
9.25000000e-03	3.36738412e+00	3.25466541e-01
9.50000000e-03	3.00095668e+00	2.76677076e-01
9.75000000e-03	2.73924369e+00	2.46666769e-01
1.00000000e-02	2.44572724e+00	2.18382115e-01
1.02500000e-02	2.26084900e+00	2.02936834e-01
1.05000000e-02	2.09358365e+00	1.76402246e-01
1.07500000e-02	1.91012262e+00	1.61284075e-01
1.10000000e-02	1.74334525e+00	1.42548467e-01
1.12500000e-02	1.60999838e+00	1.34856452e-01
1.15000000e-02	1.49623189e+00	1.22946680e-01
1.17500000e-02	1.34727854e+00	1.05688615e-01
1.20000000e-02	1.28551017e+00	1.02552894e-01
1.22500000e-02	1.19155659e+00	9.41189504e-02
1.25000000e-02	1.12250126e+00	8.94780614e-02
1.27500000e-02	1.02959691e+00	8.02404303e-02
1.30000000e-02	9.66026592e-01	7.35877093e-02
1.32500000e-02	8.87339351e-01	6.50925237e-02
1.35000000e-02	8.36717331e-01	6.16159628e-02
1.37500000e-02	7.59932930e-01	5.45270340e-02
1.40000000e-02	7.06306827e-01	5.03072829e-02
1.42500000e-02	6.75805243e-01	4.74245196e-02
1.45000000e-02	6.49238664e-01	4.65494417e-02
1.47500000e-02	6.06519018e-01	4.43860817e-02
1.50000000e-02	5.74305808e-01	4.21008618e-02
1.52500000e-02	5.34715890e-01	3.93979791e-02
1.55000000e-02	5.00970754e-01	3.43864785e-02
1.57500000e-02	4.64857706e-01	3.16427039e-02
1.60000000e-02	4.39979494e-01	2.87069345e-02
1.62500000e-02	4.17220133e-01	2.80922646e-02
1.65000000e-02	3.94872033e-01	2.63882466e-02
1.67500000e-02	3.83243207e-01	2.56600909e-02
1.70000000e-02	3.57288127e-01	2.41259250e-02
1.72500000e-02	3.40984574e-01	2.24271904e-02
1.75000000e-02	3.20860554e-01	2.09418025e-02
1.77500000e-02	2.98117851e-01	1.85542175e-02
1.80000000e-02	2.87044186e-01	1.76174156e-02
1.82500000e-02	2.67277685e-01	1.60269936e-02
1.85000000e-02	2.55093725e-01	1.55920849e-02
1.87500000e-02	2.47919153e-01	1.47974205e-02
1.90000000e-02	2.32784425e-01	1.42202169e-02
1.92500000e-02	2.26394572e-01	1.39050569e-02
1.95000000e-02	2.13996546e-01	1.28921585e-02
1.97500000e-02	2.03880180e-01	1.20790959e-02
2.00000000e-02	1.95357867e-01	1.14872037e-02
2.02500000e-02	1.83843930e-01	1.09225524e-02
2.05000000e-02	1.81245597e-01	1.02943668e-02
2.07500000e-02	1.74088148e-01	9.84927816e-03
2.10000000e-02	1.63011536e-01	9.15876140e-03
2.12500000e-02	1.60223384e-01	8.93546031e-03
2.15000000e-02	1.55988670e-01	8.72653090e-03
2.17500000e-02	1.53321340e-01	8.75298372e-03
2.20000000e-02	1.46768031e-01	8.48479353e-03
2.22500000e-02	1.44239526e-01	8.22114485e-03
2.25000000e-02	1.39174132e-01	7.94388084e-03
2.27500000e-02	1.29262576e-01	7.02097796e-03
2.30000000e-02	1.27951538e-01	6.92691270e-03
2.32500000e-02	1.22205820e-01	6.56378306e-03
2.35000000e-02	1.19477435e-01	6.42866083e-03
2.37500000e-02	1.17589766e-01	6.31897287e-03
2.40000000e-02	1.14682112e-01	6.23193942e-03
2.42500000e-02	1.10055636e-01	5.89138401e-03
2.45000000e-02	1.07998762e-01	5.87124653e-03
2.47500000e-02	1.04293335e-01	5.51478179e-03
2.50000000e-02	1.02513700e-01	5.38290681e-03
2.52500000e-02	9.57948423e-02	4.97600682e-03
2.55000000e-02	9.57266806e-02	4.82338898e-03
2.57500000e-02	9.28510293e-02	4.75315665e-03
2.60000000e-02	8.82864864e-02	4.57108807e-03
2.62500000e-02	8.74607314e-02	4.50722254e-03
2.65000000e-02	8.59585590e-02	4.41743242e-03
2.67500000e-02	8.39042434e-02	4.25474871e-03
2.70000000e-02	8.19782303e-02	4.17731399e-03
2.72500000e-02	8.06238278e-02	3.96811056e-03
2.75000000e-02	7.67814572e-02	3.83458284e-03
2.77500000e-02	7.46148779e-02	3.70439487e-03
2.80000000e-02	7.36961942e-02	3.58594600e-03
2.82500000e-02	7.26718084e-02	3.55293190e-03
2.85000000e-02	7.05465082e-02	3.42394365e-03
2.87500000e-02	6.93920739e-02	3.39741397e-03
2.90000000e-02	7.01518039e-02	3.45593679e-03
2.92500000e-02	6.82724832e-02	3.24597106e-03
2.95000000e-02	6.60430549e-02	3.16600587e-03
2.97500000e-02	6.54930924e-02	3.10546044e-03
3.00000000e-02	6.37503307e-02	3.05227550e-03
3.02500000e-02	6.18285441e-02	2.91543591e-03
3.05000000e-02	6.15705978e-02	2.83968700e-03
3.07500000e-02	6.14184461e-02	2.86121696e-03
3.10000000e-02	5.95054437e-02	2.79778357e-03
3.12500000e-02	5.81922732e-02	2.76439027e-03
3.15000000e-02	5.76139410e-02	2.68508476e-03
3.17500000e-02	5.63490504e-02	2.57638959e-03
3.20000000e-02	5.49856126e-02	2.56093817e-03
3.22500000e-02	5.41604309e-02	2.49616627e-03
3.25000000e-02	5.41135959e-02	2.51426134e-03
3.27500000e-02	5.26247812e-02	2.39132266e-03
3.30000000e-02	5.15480906e-02	2.33724727e-03
3.32500000e-02	5.01230207e-02	2.25862999e-03
3.35000000e-02	4.93185655e-02	2.27657016e-03
3.37500000e-02	4.99245513e-02	2.27393547e-03
3.40000000e-02	4.88268331e-02	2.21213784e-03
3.42500000e-02	4.87619971e-02	2.18362556e-03
3.45000000e-02	4.69133453e-02	2.12792825e-03
3.47500000e-02	4.72783758e-02	2.12761836e-03
3.50000000e-02	4.66989722e-02	2.09568531e-03
3.52500000e-02	4.51106308e-02	2.02567009e-03
3.55000000e-02	4.47048143e-02	1.97810278e-03
3.57500000e-02	4.41065150e-02	1.98129003e-03
3.60000000e-02	4.19513557e-02	1.88203425e-03
3.62500000e-02	4.25027598e-02	1.89165257e-03
3.65000000e-02	4.23591607e-02	1.86821389e-03
3.67500000e-02	4.23621288e-02	1.86780574e-03
3.70000000e-02	4.01892110e-02	1.76912557e-03
3.72500000e-02	4.04220316e-02	1.77330381e-03
3.75000000e-02	3.99291259e-02	1.75950011e-03
3.77500000e-02	3.95574286e-02	1.71942220e-03
3.80000000e-02	3.82979428e-02	1.67620712e-03
3.82500000e-02	3.84469597e-02	1.66554458e-03
3.85000000e-02	3.83229236e-02	1.66712823e-03
3.87500000e-02	3.80389533e-02	1.64798499e-03
3.90000000e-02	3.71095321e-02	1.62371237e-03
3.92500000e-02	3.72692706e-02	1.59746350e-03
3.95000000e-02	3.75846920e-02	1.61683305e-03
3.97500000e-02	3.70357196e-02	1.60050072e-03
4.00000000e-02	3.65088727e-02	1.56571871e-03
4.02500000e-02	3.61208395e-02	1.54014530e-03
4.05000000e-02	3.50680174e-02	1.49317775e-03
4.07500000e-02	3.58751308e-02	1.52861561e-03
4.10000000e-02	3.45125853e-02	1.47864497e-03
4.12500000e-02	3.50219463e-02	1.47852118e-03
4.15000000e-02	3.43123520e-02	1.44047403e-03
4.17500000e-02	3.45191925e-02	1.45171244e-03
4.20000000e-02	3.42292210e-02	1.42330032e-03
4.22500000e-02	3.35177303e-02	1.39558000e-03
4.25000000e-02	3.34161373e-02	1.39662045e-03
4.27500000e-02	3.38917047e-02	1.41166655e-03
4.30000000e-02	3.36164446e-02	1.39567920e-03
4.32500000e-02	3.27753072e-02	1.36362379e-03
4.35000000e-02	3.28670957e-02	1.37245195e-03
4.37500000e-02	3.23916057e-02	1.33586529e-03
4.40000000e-02	3.25372475e-02	1.35048463e-03
4.42500000e-02	3.17341482e-02	1.30736104e-03
4.45000000e-02	3.16270572e-02	1.29185781e-03
4.47500000e-02	3.20957090e-02	1.30828433e-03
4.50000000e-02	3.10140800e-02	1.26264539e-03
4.52500000e-02	3.11790490e-02	1.27092331e-03
4.55000000e-02	3.19145495e-02	1.30062132e-03
4.57500000e-02	2.99759888e-02	1.22318294e-03
4.60000000e-02	3.00045158e-02	1.22323535e-03
4.62500000e-02	3.15256036e-02	1.27920505e-03
4.65000000e-02	2.98178048e-02	1.19926527e-03
4.67500000e-02	3.03569548e-02	1.21580118e-03
4.70000000e-02	3.02902299e-02	1.20855983e-03
4.72500000e-02	2.96350765e-02	1.18976892e-03
4.75000000e-02	3.01593568e-02	1.21477968e-03
4.77500000e-02	2.89366144e-02	1.15582775e-03
4.80000000e-02	2.99709851e-02	1.19173626e-03
4.82500000e-02	2.90172971e-02	1.14945806e-03
4.85000000e-02	2.93655134e-02	1.17835874e-03
4.87500000e-02	2.85406723e-02	1.13761638e-03
4.90000000e-02	2.86748090e-02	1.12694535e-03
4.92500000e-02	2.85318483e-02	1.12270277e-03
4.95000000e-02	2.77101883e-02	1.09342565e-03
4.97500000e-02	2.89713486e-02	1.14409191e-03
5.00000000e-02	2.86439592e-02	1.12770293e-03
5.02500000e-02	2.83503854e-02	1.11170746e-03
5.05000000e-02	2.78749108e-02	1.08758340e-03
5.07500000e-02	2.70988701e-02	1.07446854e-03
5.10000000e-02	2.71227863e-02	1.06653467e-03
5.12500000e-02	2.69203807e-02	1.06039302e-03
5.15000000e-02	2.76574621e-02	1.07142108e-03
5.17500000e-02	2.75138018e-02	1.08049362e-03
5.20000000e-02	2.72243323e-02	1.05305051e-03
5.22500000e-02	2.74439281e-02	1.07065285e-03
5.25000000e-02	2.70835305e-02	1.04366604e-03
5.27500000e-02	2.72355627e-02	1.04727459e-03
5.30000000e-02	2.72339248e-02	1.05694451e-03
5.32500000e-02	2.75827157e-02	1.05483809e-03
5.35000000e-02	2.64415599e-02	1.02346114e-03
5.37500000e-02	2.65578994e-02	1.02247774e-03
5.40000000e-02	2.69303181e-02	1.02541775e-03
5.42500000e-02	2.65736370e-02	1.01542807e-03
5.45000000e-02	2.65517820e-02	1.00876259e-03
5.47500000e-02	2.61629946e-02	9.86965642e-04
5.50000000e-02	2.64335271e-02	1.00265486e-03
5.52500000e-02	2.64938584e-02	1.00435454e-03
5.55000000e-02	2.55385674e-02	9.57230482e-04
5.57500000e-02	2.61033296e-02	9.90977583e-04
5.60000000e-02	2.64844673e-02	9.91103638e-04
5.62500000e-02	2.59922618e-02	9.79310455e-04
5.65000000e-02	2.56706043e-02	9.60518402e-04
5.67500000e-02	2.59594361e-02	9.70301904e-04
5.70000000e-02	2.44846322e-02	9.12725799e-04
5.72500000e-02	2.50751175e-02	9.37263767e-04
5.75000000e-02	2.55641296e-02	9.58028099e-04
5.77500000e-02	2.59704450e-02	9.61373901e-04
5.80000000e-02	2.49180717e-02	9.29744099e-04
5.82500000e-02	2.52872162e-02	9.33969754e-04
5.85000000e-02	2.53286699e-02	9.39722423e-04
5.87500000e-02	2.47365748e-02	9.14081164e-04
5.90000000e-02	2.49511251e-02	9.26866389e-04
5.92500000e-02	2.52362166e-02	9.30353573e-04
5.95000000e-02	2.36134596e-02	8.68931247e-04
5.97500000e-02	2.47703933e-02	9.13362888e-04
6.00000000e-02	2.47771990e-02	9.12457950e-04
6.02500000e-02	2.46999928e-02	9.09201349e-04
6.05000000e-02	2.46676202e-02	9.01930204e-04
6.07500000e-02	2.46503889e-02	9.06399815e-04
6.10000000e-02	2.41026308e-02	8.83526278e-04
6.12500000e-02	2.34893978e-02	8.64250045e-04
6.15000000e-02	2.46757043e-02	8.96768408e-04
6.17500000e-02	2.44108482e-02	8.83838990e-04
6.20000000e-02	2.43458063e-02	8.85036602e-04
6.22500000e-02	2.41529473e-02	8.73148985e-04
6.25000000e-02	2.46128986e-02	8.84490692e-04
6.27500000e-02	2.39154273e-02	8.61359536e-04
6.30000000e-02	2.37525336e-02	8.62205226e-04
6.32500000e-02	2.34807658e-02	8.45155765e-04
6.35000000e-02	2.36858222e-02	8.54673927e-04
6.37500000e-02	2.38112304e-02	8.53117960e-04
6.40000000e-02	2.36392271e-02	8.43139841e-04
6.42500000e-02	2.36245885e-02	8.51752734e-04
6.45000000e-02	2.39334444e-02	8.51677589e-04
6.47500000e-02	2.33349152e-02	8.41831507e-04
6.50000000e-02	2.42292545e-02	8.59980193e-04
6.52500000e-02	2.30644318e-02	8.17905447e-04
6.55000000e-02	2.37047055e-02	8.45158065e-04
6.57500000e-02	2.33258357e-02	8.33018386e-04
6.60000000e-02	2.39437760e-02	8.51834646e-04
6.62500000e-02	2.36647190e-02	8.42912242e-04
6.65000000e-02	2.39338426e-02	8.39734123e-04
6.67500000e-02	2.35361525e-02	8.26327663e-04
6.70000000e-02	2.38036226e-02	8.46270049e-04
6.72500000e-02	2.31904998e-02	8.22257252e-04
6.75000000e-02	2.29856349e-02	8.12579748e-04
6.77500000e-02	2.29464204e-02	8.07429314e-04
6.80000000e-02	2.29673447e-02	8.09394847e-04
6.82500000e-02	2.32224713e-02	8.09547819e-04
6.85000000e-02	2.30731904e-02	8.08157146e-04
6.87500000e-02	2.26330095e-02	7.88586525e-04
6.90000000e-02	2.26413514e-02	7.89801394e-04
6.92500000e-02	2.32927813e-02	8.06051259e-04
6.95000000e-02	2.30206697e-02	8.03590449e-04
6.97500000e-02	2.30088285e-02	7.93836287e-04
7.00000000e-02	2.24803134e-02	7.80734062e-04
7.02500000e-02	2.29329635e-02	7.96249304e-04
7.05000000e-02	2.26240360e-02	7.76300697e-04
7.07500000e-02	2.25740897e-02	7.82566211e-04
7.10000000e-02	2.26930968e-02	7.81779280e-04
7.12500000e-02	2.29028196e-02	7.92642456e-04
7.15000000e-02	2.28215146e-02	7.82361142e-04
7.17500000e-02	2.22824677e-02	7.67095209e-04
7.20000000e-02	2.24022399e-02	7.73753529e-04
7.22500000e-02	2.25949340e-02	7.75861367e-04
7.25000000e-02	2.24184905e-02	7.61745503e-04
7.27500000e-02	2.20505757e-02	7.57092974e-04
7.30000000e-02	2.30453796e-02	7.83557231e-04
7.32500000e-02	2.31456049e-02	7.87857072e-04
7.35000000e-02	2.27102986e-02	7.67121619e-04
7.37500000e-02	2.27617180e-02	7.68115633e-04
7.40000000e-02	2.16530211e-02	7.31968961e-04
7.42500000e-02	2.24811116e-02	7.62445090e-04
7.45000000e-02	2.23320623e-02	7.52035889e-04
7.47500000e-02	2.26293423e-02	7.63329561e-04
7.50000000e-02	2.21392482e-02	7.42407817e-04
7.52500000e-02	2.21898746e-02	7.51234191e-04
7.55000000e-02	2.24377272e-02	7.46481230e-04
7.57500000e-02	2.24493507e-02	7.53061320e-04
7.60000000e-02	2.22415537e-02	7.48383582e-04
7.62500000e-02	2.23762817e-02	7.49143854e-04
7.65000000e-02	2.23354028e-02	7.48575328e-04
7.67500000e-02	2.26792100e-02	7.53835364e-04
7.70000000e-02	2.23405287e-02	7.44704215e-04
7.72500000e-02	2.22970958e-02	7.56021079e-04
7.75000000e-02	2.24737849e-02	7.68480571e-04
7.77500000e-02	2.18455673e-02	7.56977550e-04
7.80000000e-02	2.22870817e-02	7.69279836e-04
7.82500000e-02	2.21656424e-02	7.71987140e-04
7.85000000e-02	2.19658918e-02	7.71101391e-04
7.87500000e-02	2.23494627e-02	7.82935286e-04
7.90000000e-02	2.15077735e-02	7.56881460e-04
7.92500000e-02	2.27633831e-02	7.95921555e-04
7.95000000e-02	2.26141676e-02	7.93294332e-04
7.97500000e-02	2.18906806e-02	7.79507020e-04
8.00000000e-02	2.15767299e-02	7.69035365e-04
8.02500000e-02	2.23511123e-02	7.95996676e-04
8.05000000e-02	2.21243183e-02	7.87568099e-04
8.07500000e-02	2.20350341e-02	7.86548453e-04
8.10000000e-02	2.22678304e-02	7.99526523e-04
8.12500000e-02	2.21318807e-02	7.94272345e-04
8.15000000e-02	2.18827345e-02	7.80244099e-04
8.17500000e-02	2.22346979e-02	7.99623204e-04
8.20000000e-02	2.17671993e-02	7.84101151e-04
8.22500000e-02	2.19124472e-02	7.88916661e-04
8.25000000e-02	2.22896360e-02	8.00493207e-04
8.27500000e-02	2.17640120e-02	7.84493013e-04
8.30000000e-02	2.20569464e-02	7.97259724e-04
8.32500000e-02	2.14323492e-02	7.85229917e-04
8.35000000e-02	2.20809499e-02	8.12674339e-04
8.37500000e-02	2.16573657e-02	7.83805443e-04
8.40000000e-02	2.18071311e-02	7.96536246e-04
8.42500000e-02	2.15826770e-02	7.93192211e-04
8.45000000e-02	2.09495037e-02	7.69867161e-04
8.47500000e-02	2.22601916e-02	8.10626752e-04
8.50000000e-02	2.11220438e-02	7.69171955e-04
8.52500000e-02	2.17824905e-02	8.03443893e-04
8.55000000e-02	2.13357605e-02	7.75707208e-04
8.57500000e-02	2.15011617e-02	7.91743982e-04
8.60000000e-02	2.14498596e-02	7.93834521e-04
8.62500000e-02	2.20891269e-02	8.12283353e-04
8.65000000e-02	2.10675978e-02	7.75950069e-04
8.67500000e-02	2.07855004e-02	7.67846846e-04
8.70000000e-02	2.17052229e-02	7.83376195e-04
8.72500000e-02	2.20369378e-02	7.84127206e-04
8.75000000e-02	2.18395035e-02	7.68107358e-04
8.77500000e-02	2.11455385e-02	7.33679787e-04
8.80000000e-02	2.10407685e-02	7.37648265e-04
8.82500000e-02	2.13573604e-02	7.37128377e-04
8.85000000e-02	2.18444473e-02	7.63715121e-04
8.87500000e-02	2.15943477e-02	7.38275191e-04
8.90000000e-02	2.16684549e-02	7.46557555e-04
8.92500000e-02	2.18701960e-02	7.40449314e-04
8.95000000e-02	2.16307958e-02	7.39377316e-04
8.97500000e-02	2.19102834e-02	7.42745498e-04
9.00000000e-02	2.12228165e-02	7.16708358e-04
9.02500000e-02	2.07326305e-02	7.02890071e-04
9.05000000e-02	2.10303504e-02	7.16994279e-04
9.07500000e-02	2.13734897e-02	7.22109518e-04
9.10000000e-02	2.11494763e-02	7.08664557e-04
9.12500000e-02	2.13093185e-02	7.08830508e-04
9.15000000e-02	2.12243817e-02	7.03464627e-04
9.17500000e-02	2.14280927e-02	7.12218463e-04
9.20000000e-02	2.11992715e-02	7.03745438e-04
9.22500000e-02	2.11504394e-02	7.01571824e-04
9.25000000e-02	2.12858307e-02	6.99772535e-04
9.27500000e-02	2.07761373e-02	6.89331128e-04
9.30000000e-02	2.11514775e-02	6.95398945e-04
9.32500000e-02	2.17901385e-02	7.20359265e-04
9.35000000e-02	2.14191235e-02	6.98590809e-04
9.37500000e-02	2.11887271e-02	6.87086272e-04
9.40000000e-02	2.14231634e-02	6.99028175e-04
9.42500000e-02	2.09674049e-02	6.84056286e-04
9.45000000e-02	2.19058721e-02	7.06814457e-04
9.47500000e-02	2.13062975e-02	6.87814475e-04
9.50000000e-02	2.16901777e-02	7.06058365e-04
9.52500000e-02	2.10650162e-02	6.78343310e-04
9.55000000e-02	2.12534210e-02	6.84862432e-04
9.57500000e-02	2.08516503e-02	6.72988888e-04
9.60000000e-02	2.08893689e-02	6.71840057e-04
9.62500000e-02	2.09615053e-02	6.72974648e-04
9.65000000e-02	2.14742945e-02	6.87061819e-04
9.67500000e-02	2.09181603e-02	6.70017746e-04
9.70000000e-02	2.08286958e-02	6.65269865e-04
9.72500000e-02	2.11428494e-02	6.74708139e-04
9.75000000e-02	2.11869379e-02	6.76550186e-04
9.77500000e-02	2.10855530e-02	6.70945392e-04
9.80000000e-02	2.17123514e-02	6.84778692e-04
9.82500000e-02	2.08985357e-02	6.65619318e-04
9.85000000e-02	2.09771943e-02	6.60415848e-04
9.87500000e-02	2.10507467e-02	6.64777676e-04
9.90000000e-02	2.07561548e-02	6.57548757e-04
9.92500000e-02	2.10446573e-02	6.63501768e-04
9.95000000e-02	2.08587254e-02	6.58699633e-04
9.97500000e-02	2.09357662e-02	6.54775106e-04
1.00000000e-01	2.07072032e-02	5.28769185e-04
1.00500000e-01	2.08870897e-02	4.64011631e-04
1.01000000e-01	2.09089663e-02	4.60898129e-04
1.01500000e-01	2.09570007e-02	4.64640095e-04
1.02000000e-01	2.08834559e-02	4.55875645e-04
1.02500000e-01	2.11588621e-02	4.63021515e-04
1.03000000e-01	2.07810612e-02	4.54126586e-04
1.03500000e-01	2.09258724e-02	4.53239243e-04
1.04000000e-01	2.05388087e-02	4.46682884e-04
1.04500000e-01	2.06642984e-02	4.49021412e-04
1.05000000e-01	2.07313245e-02	4.48533696e-04
1.05500000e-01	2.08050287e-02	4.46304839e-04
1.06000000e-01	2.09473227e-02	4.47539181e-04
1.06500000e-01	2.09287172e-02	4.48046508e-04
1.07000000e-01	2.04247078e-02	4.44169024e-04
1.07500000e-01	2.02292640e-02	4.47507439e-04
1.08000000e-01	2.04029507e-02	4.57082027e-04
1.08500000e-01	2.06859112e-02	4.65709178e-04
1.09000000e-01	2.06397332e-02	4.66455258e-04
1.09500000e-01	2.04874466e-02	4.64793459e-04
1.10000000e-01	2.03949312e-02	4.58799169e-04
1.10500000e-01	2.06712876e-02	4.55716158e-04
1.11000000e-01	2.06724179e-02	4.45870418e-04
1.11500000e-01	2.03823091e-02	4.37871222e-04
1.12000000e-01	2.08402511e-02	4.42269640e-04
1.12500000e-01	2.06629965e-02	4.36956583e-04
1.13000000e-01	2.02976249e-02	4.29337003e-04
1.13500000e-01	2.05566471e-02	4.33462943e-04
1.14000000e-01	2.00121242e-02	4.17467027e-04
1.14500000e-01	2.06270701e-02	4.32981340e-04
1.15000000e-01	2.05852123e-02	4.29267269e-04
1.15500000e-01	2.04583631e-02	4.26118155e-04
1.16000000e-01	2.05898995e-02	4.26618732e-04
1.16500000e-01	2.03769544e-02	4.22163021e-04
1.17000000e-01	2.03003228e-02	4.18392725e-04
1.17500000e-01	2.05539507e-02	4.21509067e-04
1.18000000e-01	2.05716084e-02	4.21655918e-04
1.18500000e-01	2.02053623e-02	4.12518936e-04
1.19000000e-01	2.05405822e-02	4.19943452e-04
1.19500000e-01	2.05293232e-02	4.18039068e-04
1.20000000e-01	2.00140561e-02	4.05878349e-04
1.20500000e-01	2.03090125e-02	4.11405918e-04
1.21000000e-01	2.05639218e-02	4.15473525e-04
1.21500000e-01	2.07208270e-02	4.18286124e-04
1.22000000e-01	2.00721292e-02	4.04619131e-04
1.22500000e-01	2.05369410e-02	4.13896257e-04
1.23000000e-01	2.03827912e-02	4.07289952e-04
1.23500000e-01	2.01976385e-02	4.03795689e-04
1.24000000e-01	2.06345123e-02	4.13368469e-04
1.24500000e-01	2.04331085e-02	4.05863330e-04
1.25000000e-01	2.04840800e-02	4.06460521e-04
1.25500000e-01	2.04399893e-02	4.06276655e-04
1.26000000e-01	2.02568580e-02	4.00676668e-04
1.26500000e-01	2.02471252e-02	4.00390763e-04
1.27000000e-01	2.02315175e-02	3.99999771e-04
1.27500000e-01	2.07048132e-02	4.06021105e-04
1.28000000e-01	2.04256875e-02	3.98167501e-04
1.28500000e-01	2.04024466e-02	4.00792940e-04
1.29000000e-01	2.03918211e-02	3.98103255e-04
1.29500000e-01	2.03244206e-02	3.97272290e-04
1.30000000e-01	2.01745887e-02	3.94525575e-04
1.30500000e-01	2.05434747e-02	3.97954266e-04
1.31000000e-01	2.03066434e-02	3.94138611e-04
1.31500000e-01	2.01774162e-02	3.91687902e-04
1.32000000e-01	2.06093492e-02	3.98034982e-04
1.32500000e-01	2.01713065e-02	3.90352953e-04
1.33000000e-01	1.99818674e-02	3.86788671e-04
1.33500000e-01	2.04180293e-02	3.90434899e-04
1.34000000e-01	2.05413348e-02	3.92953174e-04
1.34500000e-01	2.04838408e-02	3.88235728e-04
1.35000000e-01	2.04015325e-02	3.88799660e-04
1.35500000e-01	2.04299801e-02	3.87640068e-04
1.36000000e-01	2.02123801e-02	3.80906036e-04
1.36500000e-01	2.04573949e-02	3.89385606e-04
1.37000000e-01	2.01935730e-02	3.79044264e-04
1.37500000e-01	2.01928373e-02	3.79818840e-04
1.38000000e-01	2.04955125e-02	3.84988074e-04
1.38500000e-01	2.02875475e-02	3.79936209e-04
1.39000000e-01	2.02049737e-02	3.78928304e-04
1.39500000e-01	2.01314195e-02	3.78720405e-04
1.40000000e-01	2.01169692e-02	3.77971207e-04
1.40500000e-01	2.02523271e-02	3.79477577e-04
1.41000000e-01	2.01886331e-02	3.77747625e-04
1.41500000e-01	2.01671425e-02	3.77447164e-04
1.42000000e-01	1.98774194e-02	3.71747671e-04
1.42500000e-01	2.01431049e-02	3.75975562e-04
1.43000000e-01	1.99575719e-02	3.73149487e-04
1.43500000e-01	1.96821869e-02	3.66952172e-04
1.44000000e-01	2.01388813e-02	3.72376163e-04
1.44500000e-01	2.00365426e-02	3.68494879e-04
1.45000000e-01	2.00793994e-02	3.70708746e-04
1.45500000e-01	2.03536200e-02	3.74446503e-04
1.46000000e-01	1.98840780e-02	3.65451764e-04
1.46500000e-01	1.98559372e-02	3.64807345e-04
1.47000000e-01	1.97893127e-02	3.63938960e-04
1.47500000e-01	1.96022878e-02	3.59548825e-04
1.48000000e-01	1.97836626e-02	3.63289377e-04
1.48500000e-01	2.00092562e-02	3.65062207e-04
1.49000000e-01	2.00955908e-02	3.65166269e-04
1.49500000e-01	1.98627638e-02	3.60225461e-04
1.50000000e-01	1.98199449e-02	3.59404796e-04
1.50500000e-01	2.01430807e-02	3.66192823e-04
1.51000000e-01	1.98399906e-02	3.58775645e-04
1.51500000e-01	1.98909095e-02	3.59442121e-04
1.52000000e-01	1.97070589e-02	3.54490955e-04
1.52500000e-01	1.96959592e-02	3.55870694e-04
1.53000000e-01	1.99672581e-02	3.58365823e-04
1.53500000e-01	1.96638513e-02	3.53125040e-04
1.54000000e-01	1.96863539e-02	3.51960336e-04
1.54500000e-01	1.98304932e-02	3.60611804e-04
1.55000000e-01	1.96714584e-02	3.64064377e-04
1.55500000e-01	1.94193555e-02	3.59119210e-04
1.56000000e-01	1.98132752e-02	3.69953900e-04
1.56500000e-01	1.96129594e-02	3.67688366e-04
1.57000000e-01	1.99344326e-02	3.71942695e-04
1.57500000e-01	1.96903217e-02	3.60581246e-04
1.58000000e-01	1.94917657e-02	3.54527239e-04
1.58500000e-01	1.96771341e-02	3.55958362e-04
1.59000000e-01	1.95323161e-02	3.49442251e-04
1.59500000e-01	1.95791658e-02	3.50060192e-04
1.60000000e-01	1.98750895e-02	3.56041395e-04
1.60500000e-01	1.94414636e-02	3.45575174e-04
1.61000000e-01	1.97032522e-02	3.49450149e-04
1.61500000e-01	1.95779979e-02	3.45591515e-04
1.62000000e-01	1.94080952e-02	3.41859276e-04
1.62500000e-01	1.95336876e-02	3.46375903e-04
1.63000000e-01	1.93892963e-02	3.41357006e-04
1.63500000e-01	1.96621623e-02	3.48286372e-04
1.64000000e-01	1.96618921e-02	3.45130236e-04
1.64500000e-01	1.95576207e-02	3.41999252e-04
1.65000000e-01	1.96515319e-02	3.42971126e-04
1.65500000e-01	1.94187964e-02	3.40138442e-04
1.66000000e-01	1.94316110e-02	3.39670372e-04
1.66500000e-01	1.91471650e-02	3.34122587e-04
1.67000000e-01	1.92415295e-02	3.34512826e-04
1.67500000e-01	1.94841905e-02	3.36442080e-04
1.68000000e-01	1.93672065e-02	3.34741865e-04
1.68500000e-01	1.95400293e-02	3.37768039e-04
1.69000000e-01	1.94148104e-02	3.36336235e-04
1.69500000e-01	1.92346169e-02	3.31996373e-04
1.70000000e-01	1.90276500e-02	3.29300782e-04
1.70500000e-01	1.93573297e-02	3.32754233e-04
1.71000000e-01	1.92530347e-02	3.30489008e-04
1.71500000e-01	1.91411052e-02	3.28887943e-04
1.72000000e-01	1.93012543e-02	3.30239273e-04
1.72500000e-01	1.89864290e-02	3.25769778e-04
1.73000000e-01	1.91964319e-02	3.26922839e-04
1.73500000e-01	1.91847910e-02	3.26943149e-04
1.74000000e-01	1.93710301e-02	3.29991031e-04
1.74500000e-01	1.88471607e-02	3.18142860e-04
1.75000000e-01	1.91172944e-02	3.22221224e-04
1.75500000e-01	1.93416392e-02	3.25071866e-04
1.76000000e-01	1.93264231e-02	3.25461826e-04
1.76500000e-01	1.90789168e-02	3.20377897e-04
1.77000000e-01	1.88798225e-02	3.17836979e-04
1.77500000e-01	1.92507874e-02	3.22674121e-04
1.78000000e-01	1.92006650e-02	3.20948659e-04
1.78500000e-01	1.93523165e-02	3.24561171e-04
1.79000000e-01	1.93509600e-02	3.23864162e-04
1.79500000e-01	1.92726538e-02	3.21331719e-04
1.80000000e-01	1.94009254e-02	3.24712627e-04
1.80500000e-01	1.94928759e-02	3.25381508e-04
1.81000000e-01	1.91297454e-02	3.19748571e-04
1.81500000e-01	1.90343976e-02	3.17923983e-04
1.82000000e-01	1.90552473e-02	3.17709336e-04
1.82500000e-01	1.90595541e-02	3.16580710e-04
1.83000000e-01	1.91638407e-02	3.17526474e-04
1.83500000e-01	1.90855164e-02	3.15655231e-04
1.84000000e-01	1.89775486e-02	3.13978263e-04
1.84500000e-01	1.85798969e-02	3.09001811e-04
1.85000000e-01	1.89845212e-02	3.14787140e-04
1.85500000e-01	1.90249387e-02	3.12683892e-04
1.86000000e-01	1.89235643e-02	3.12295608e-04
1.86500000e-01	1.88792136e-02	3.10439845e-04
1.87000000e-01	1.89520985e-02	3.12114552e-04
1.87500000e-01	1.89919059e-02	3.11785097e-04
1.88000000e-01	1.88719559e-02	3.09282635e-04
1.88500000e-01	1.88248117e-02	3.07442611e-04
1.89000000e-01	1.89489261e-02	3.09040385e-04
1.89500000e-01	1.88014860e-02	3.06762007e-04
1.90000000e-01	1.90562613e-02	3.09767344e-04
1.90500000e-01	1.92085572e-02	3.11405886e-04
1.91000000e-01	1.89082173e-02	3.08374877e-04
1.91500000e-01	1.86116293e-02	3.03763987e-04
1.92000000e-01	1.87507857e-02	3.04273203e-04
1.92500000e-01	1.87401446e-02	3.02656778e-04
1.93000000e-01	1.91573114e-02	3.08707325e-04
1.93500000e-01	1.87541199e-02	3.02804117e-04
1.94000000e-01	1.87974755e-02	3.03163886e-04
1.94500000e-01	1.86371886e-02	3.01434737e-04
1.95000000e-01	1.87256673e-02	3.02069790e-04
1.95500000e-01	1.88828328e-02	3.04245323e-04
1.96000000e-01	1.86880577e-02	2.99886151e-04
1.96500000e-01	1.86249001e-02	2.99860504e-04
1.97000000e-01	1.88811361e-02	3.03979791e-04
1.97500000e-01	1.87039047e-02	2.99302832e-04
1.98000000e-01	1.86979280e-02	2.98637394e-04
1.98500000e-01	1.88313623e-02	3.00966539e-04
1.99000000e-01	1.86028003e-02	2.97106912e-04
1.99500000e-01	1.89448475e-02	3.00664967e-04
2.00000000e-01	1.86056661e-02	2.96424838e-04
2.00500000e-01	1.88020564e-02	2.98152528e-04
2.01000000e-01	1.89601023e-02	3.00223030e-04
2.01500000e-01	1.82832069e-02	2.91045796e-04
2.02000000e-01	1.84847408e-02	2.93003805e-04
2.02500000e-01	1.84744209e-02	2.92811091e-04
2.03000000e-01	1.85085969e-02	2.92420263e-04
2.03500000e-01	1.88113707e-02	2.97030638e-04
2.04000000e-01	1.86245315e-02	2.92730174e-04
2.04500000e-01	1.86343676e-02	2.93130231e-04
2.05000000e-01	1.82620899e-02	2.87075873e-04
2.05500000e-01	1.86273129e-02	2.93404010e-04
2.06000000e-01	1.84354833e-02	2.88680140e-04
2.06500000e-01	1.85770160e-02	2.91879975e-04
2.07000000e-01	1.84085910e-02	2.89109880e-04
2.07500000e-01	1.83610248e-02	2.87685398e-04
2.08000000e-01	1.85844986e-02	2.89877852e-04
2.08500000e-01	1.85944285e-02	2.88296124e-04
2.09000000e-01	1.84932461e-02	2.88121300e-04
2.09500000e-01	1.89113277e-02	2.94785334e-04
2.10000000e-01	1.82549624e-02	2.83196714e-04
2.10500000e-01	1.84054450e-02	2.87242552e-04
2.11000000e-01	1.85223676e-02	2.88052909e-04
2.11500000e-01	1.85710616e-02	2.87328614e-04
2.12000000e-01	1.83048904e-02	2.82573839e-04
2.12500000e-01	1.81467361e-02	2.81257821e-04
2.13000000e-01	1.82903277e-02	2.82551944e-04
2.13500000e-01	1.84178864e-02	2.84248055e-04
2.14000000e-01	1.85909854e-02	2.86273856e-04
2.14500000e-01	1.83212109e-02	2.80893287e-04
2.15000000e-01	1.84707326e-02	2.85873663e-04
2.15500000e-01	1.82563936e-02	2.79448236e-04
2.16000000e-01	1.83573544e-02	2.81373433e-04
2.16500000e-01	1.83766341e-02	2.81405534e-04
2.17000000e-01	1.83913420e-02	2.85370578e-04
2.17500000e-01	1.84544628e-02	2.89836983e-04
2.18000000e-01	1.84130618e-02	2.91603575e-04
2.18500000e-01	1.82495033e-02	2.90906104e-04
2.19000000e-01	1.84766902e-02	2.95486588e-04
2.19500000e-01	1.82910041e-02	2.92955155e-04
2.20000000e-01	1.83990601e-02	2.97792897e-04
2.20500000e-01	1.81806919e-02	2.93197299e-04
2.21000000e-01	1.81215594e-02	2.94300936e-04
2.21500000e-01	1.81036354e-02	2.95540533e-04
2.22000000e-01	1.83044556e-02	2.97067131e-04
2.22500000e-01	1.82766482e-02	2.97175196e-04
2.23000000e-01	1.84033307e-02	3.01182321e-04
2.23500000e-01	1.85057560e-02	3.03411903e-04
2.24000000e-01	1.82560865e-02	3.00526512e-04
2.24500000e-01	1.83151771e-02	3.01966667e-04
2.25000000e-01	1.81357016e-02	3.00501742e-04
2.25500000e-01	1.81331564e-02	2.99878861e-04
2.26000000e-01	1.82385813e-02	3.02161185e-04
2.26500000e-01	1.82356218e-02	2.97221693e-04
2.27000000e-01	1.83697201e-02	2.96388701e-04
2.27500000e-01	1.84420146e-02	2.94512327e-04
2.28000000e-01	1.80010443e-02	2.88404604e-04
2.28500000e-01	1.80212713e-02	2.86540075e-04
2.29000000e-01	1.80577670e-02	2.86094503e-04
2.29500000e-01	1.82594705e-02	2.87017537e-04
2.30000000e-01	1.81203384e-02	2.84607692e-04
2.30500000e-01	1.84170056e-02	2.87726639e-04
2.31000000e-01	1.82573614e-02	2.83771248e-04
2.31500000e-01	1.80214037e-02	2.80874224e-04
2.32000000e-01	1.80897456e-02	2.82023041e-04
2.32500000e-01	1.81440967e-02	2.81575026e-04
2.33000000e-01	1.80069071e-02	2.78659248e-04
2.33500000e-01	1.81258638e-02	2.79707389e-04
2.34000000e-01	1.85081936e-02	2.83855693e-04
2.34500000e-01	1.82495616e-02	2.79312730e-04
2.35000000e-01	1.80962859e-02	2.78414939e-04
2.35500000e-01	1.78761727e-02	2.74243002e-04
2.36000000e-01	1.78355595e-02	2.72979818e-04
2.36500000e-01	1.81109720e-02	2.76338682e-04
2.37000000e-01	1.80120534e-02	2.74481585e-04
2.37500000e-01	1.78074170e-02	2.71658206e-04
2.38000000e-01	1.79312843e-02	2.72351917e-04
2.38500000e-01	1.80674826e-02	2.74218682e-04
2.39000000e-01	1.80267730e-02	2.72383151e-04
2.39500000e-01	1.78776041e-02	2.71096517e-04
2.40000000e-01	1.80894828e-02	2.72506169e-04
2.40500000e-01	1.76718093e-02	2.65508185e-04
2.41000000e-01	1.79564235e-02	2.70460391e-04
2.41500000e-01	1.81666609e-02	2.72622044e-04
2.42000000e-01	1.78930681e-02	2.68768060e-04
2.42500000e-01	1.81572889e-02	2.71891893e-04
2.43000000e-01	1.77470400e-02	2.65040272e-04
2.43500000e-01	1.80822003e-02	2.69726992e-04
2.44000000e-01	1.79520080e-02	2.67792952e-04
2.44500000e-01	1.78619003e-02	2.66077797e-04
2.45000000e-01	1.79744845e-02	2.67060105e-04
2.45500000e-01	1.80338294e-02	2.67107491e-04
2.46000000e-01	1.76310742e-02	2.61962410e-04
2.46500000e-01	1.77953584e-02	2.63153986e-04
2.47000000e-01	1.77598238e-02	2.63930912e-04
2.47500000e-01	1.77721800e-02	2.61795960e-04
2.48000000e-01	1.77208729e-02	2.62300444e-04
2.48500000e-01	1.78401341e-02	2.62251401e-04
2.49000000e-01	1.80015227e-02	2.63649682e-04
2.49500000e-01	1.80383125e-02	2.66136661e-04
2.50000000e-01	1.78995643e-02	2.62406042e-04
2.50500000e-01	1.77613310e-02	2.61513667e-04
2.51000000e-01	1.77193834e-02	2.59161003e-04
2.51500000e-01	1.77203850e-02	2.59735008e-04
2.52000000e-01	1.80326069e-02	2.63520037e-04
2.52500000e-01	1.75690079e-02	2.57003363e-04
2.53000000e-01	1.77262407e-02	2.59153059e-04
2.53500000e-01	1.76629662e-02	2.56320538e-04
2.54000000e-01	1.78960122e-02	2.60459691e-04
2.54500000e-01	1.77126542e-02	2.58132770e-04
2.55000000e-01	1.78549491e-02	2.58551754e-04
2.55500000e-01	1.79003816e-02	2.60725294e-04
2.56000000e-01	1.77406688e-02	2.57353057e-04
2.56500000e-01	1.76417343e-02	2.55183819e-04
2.57000000e-01	1.75363622e-02	2.53133727e-04
2.57500000e-01	1.78397949e-02	2.58001756e-04
2.58000000e-01	1.77149981e-02	2.55876589e-04
2.58500000e-01	1.77514541e-02	2.56572799e-04
2.59000000e-01	1.77733325e-02	2.56098976e-04
2.59500000e-01	1.76381807e-02	2.54384956e-04
2.60000000e-01	1.74779194e-02	2.51571507e-04
2.60500000e-01	1.74186265e-02	2.50314956e-04
2.61000000e-01	1.74835496e-02	2.51340406e-04
2.61500000e-01	1.76987276e-02	2.53765058e-04
2.62000000e-01	1.74017870e-02	2.48404088e-04
2.62500000e-01	1.74233473e-02	2.49559616e-04
2.63000000e-01	1.75843168e-02	2.50801466e-04
2.63500000e-01	1.76627987e-02	2.51904667e-04
2.64000000e-01	1.75268073e-02	2.50749397e-04
2.64500000e-01	1.75843350e-02	2.49869169e-04
2.65000000e-01	1.73696117e-02	2.47235536e-04
2.65500000e-01	1.75535546e-02	2.49940457e-04
2.66000000e-01	1.77299054e-02	2.50788873e-04
2.66500000e-01	1.72850174e-02	2.45519564e-04
2.67000000e-01	1.75227863e-02	2.47780234e-04
2.67500000e-01	1.75615879e-02	2.48877613e-04
2.68000000e-01	1.74258988e-02	2.46592431e-04
2.68500000e-01	1.75156481e-02	2.46578744e-04
2.69000000e-01	1.73609774e-02	2.44044635e-04
2.69500000e-01	1.75366786e-02	2.46385481e-04
2.70000000e-01	1.74561856e-02	2.46032492e-04
2.70500000e-01	1.74238289e-02	2.44530886e-04
2.71000000e-01	1.74564267e-02	2.45154443e-04
2.71500000e-01	1.74455253e-02	2.45555648e-04
2.72000000e-01	1.75503297e-02	2.45732616e-04
2.72500000e-01	1.76383628e-02	2.46424057e-04
2.73000000e-01	1.75308720e-02	2.45238699e-04
2.73500000e-01	1.72165994e-02	2.40591555e-04
2.74000000e-01	1.74315607e-02	2.42870185e-04
2.74500000e-01	1.74009360e-02	2.42745639e-04
2.75000000e-01	1.74375595e-02	2.42206222e-04
2.75500000e-01	1.72169506e-02	2.40761629e-04
2.76000000e-01	1.74307751e-02	2.43302118e-04
2.76500000e-01	1.74575710e-02	2.42437144e-04
2.77000000e-01	1.74557917e-02	2.42049776e-04
2.77500000e-01	1.74574675e-02	2.42822135e-04
2.78000000e-01	1.74854744e-02	2.42514515e-04
2.78500000e-01	1.73843436e-02	2.42126662e-04
2.79000000e-01	1.75735503e-02	2.42927429e-04
2.79500000e-01	1.72723461e-02	2.38723439e-04
2.80000000e-01	1.75018275e-02	2.40973816e-04
2.80500000e-01	1.74088940e-02	2.40333803e-04
2.81000000e-01	1.72380989e-02	2.38412239e-04
2.81500000e-01	1.72159958e-02	2.37351745e-04
2.82000000e-01	1.71955411e-02	2.37716863e-04
2.82500000e-01	1.73477910e-02	2.38750176e-04
2.83000000e-01	1.71498986e-02	2.36677163e-04
2.83500000e-01	1.72782004e-02	2.37027076e-04
2.84000000e-01	1.72549090e-02	2.36157589e-04
2.84500000e-01	1.72043173e-02	2.37001412e-04
2.85000000e-01	1.69928550e-02	2.33075459e-04
2.85500000e-01	1.71522065e-02	2.33879763e-04
2.86000000e-01	1.73793259e-02	2.37628445e-04
2.86500000e-01	1.73561635e-02	2.36670105e-04
2.87000000e-01	1.72774378e-02	2.36579991e-04
2.87500000e-01	1.73317758e-02	2.34632480e-04
2.88000000e-01	1.71762235e-02	2.32664017e-04
2.88500000e-01	1.71397732e-02	2.33160503e-04
2.89000000e-01	1.71275105e-02	2.31747833e-04
2.89500000e-01	1.71261197e-02	2.32386517e-04
2.90000000e-01	1.71235544e-02	2.32140987e-04
2.90500000e-01	1.70555355e-02	2.30891888e-04
2.91000000e-01	1.71600508e-02	2.32253408e-04
2.91500000e-01	1.72584661e-02	2.32437382e-04
2.92000000e-01	1.73048756e-02	2.32903765e-04
2.92500000e-01	1.71831859e-02	2.31076032e-04
2.93000000e-01	1.71873355e-02	2.31622840e-04
2.93500000e-01	1.69385202e-02	2.28681995e-04
2.94000000e-01	1.70663729e-02	2.29459471e-04
2.94500000e-01	1.71225672e-02	2.31052815e-04
2.95000000e-01	1.71124048e-02	2.29452686e-04
2.95500000e-01	1.70668992e-02	2.29513701e-04
2.96000000e-01	1.69610411e-02	2.27890160e-04
2.96500000e-01	1.70536458e-02	2.28189672e-04
2.97000000e-01	1.69817023e-02	2.27701895e-04
2.97500000e-01	1.71708508e-02	2.28404370e-04
2.98000000e-01	1.68974228e-02	2.26554010e-04
2.98500000e-01	1.70453750e-02	2.28714048e-04
2.99000000e-01	1.69590523e-02	2.25835311e-04
2.99500000e-01	1.70084929e-02	2.27397500e-04
3.00000000e-01	1.69607489e-02	2.25954967e-04
3.00500000e-01	1.68466320e-02	2.25077908e-04
3.01000000e-01	1.69927027e-02	2.25833126e-04
3.01500000e-01	1.72227460e-02	2.28466272e-04
3.02000000e-01	1.68508098e-02	2.24021204e-04
3.02500000e-01	1.70390956e-02	2.25493762e-04
3.03000000e-01	1.68712520e-02	2.24441808e-04
3.03500000e-01	1.67359115e-02	2.22266900e-04
3.04000000e-01	1.72165148e-02	2.28609985e-04
3.04500000e-01	1.68619770e-02	2.23556120e-04
3.05000000e-01	1.70071790e-02	2.24411387e-04
3.05500000e-01	1.67217530e-02	2.21197006e-04
3.06000000e-01	1.68732112e-02	2.21965532e-04
3.06500000e-01	1.70183331e-02	2.24671985e-04
3.07000000e-01	1.70206032e-02	2.23235578e-04
3.07500000e-01	1.70515444e-02	2.24373286e-04
3.08000000e-01	1.66312105e-02	2.19466083e-04
3.08500000e-01	1.68340738e-02	2.21243812e-04
3.09000000e-01	1.68400784e-02	2.21157563e-04
3.09500000e-01	1.67916059e-02	2.20684449e-04
3.10000000e-01	1.68632329e-02	2.22044097e-04
3.10500000e-01	1.68637495e-02	2.20509277e-04
3.11000000e-01	1.68430182e-02	2.21191005e-04
3.11500000e-01	1.67152356e-02	2.18712391e-04
3.12000000e-01	1.68502423e-02	2.20862357e-04
3.12500000e-01	1.66563388e-02	2.18236979e-04
3.13000000e-01	1.67263324e-02	2.18171240e-04
3.13500000e-01	1.67597133e-02	2.18823669e-04
3.14000000e-01	1.67518197e-02	2.17960842e-04
3.14500000e-01	1.67591430e-02	2.18174545e-04
3.15000000e-01	1.67070669e-02	2.17035039e-04
3.15500000e-01	1.67294762e-02	2.17686388e-04
3.16000000e-01	1.66732691e-02	2.16284337e-04
3.16500000e-01	1.68353402e-02	2.18978844e-04
3.17000000e-01	1.66597765e-02	2.16233325e-04
3.17500000e-01	1.64694200e-02	2.14833346e-04
3.18000000e-01	1.66909527e-02	2.16997822e-04
3.18500000e-01	1.65992729e-02	2.15357292e-04
3.19000000e-01	1.66162881e-02	2.14815253e-04
3.19500000e-01	1.67658360e-02	2.16474957e-04
3.20000000e-01	1.66116937e-02	2.15186197e-04
3.20500000e-01	1.66337270e-02	2.15224990e-04
3.21000000e-01	1.65085857e-02	2.13910763e-04
3.21500000e-01	1.64492099e-02	2.11909956e-04
3.22000000e-01	1.65682917e-02	2.13037587e-04
3.22500000e-01	1.64994999e-02	2.12843318e-04
3.23000000e-01	1.66390067e-02	2.13939787e-04
3.23500000e-01	1.64881499e-02	2.11766005e-04
3.24000000e-01	1.64236008e-02	2.11412138e-04
3.24500000e-01	1.67533728e-02	2.15110936e-04
3.25000000e-01	1.65526639e-02	2.12097465e-04
3.25500000e-01	1.64643460e-02	2.11017636e-04
3.26000000e-01	1.65392563e-02	2.12137866e-04
3.26500000e-01	1.64609964e-02	2.10194369e-04
3.27000000e-01	1.65613787e-02	2.12166040e-04
3.27500000e-01	1.62989737e-02	2.08279764e-04
3.28000000e-01	1.64683680e-02	2.10528331e-04
3.28500000e-01	1.65151061e-02	2.10374299e-04
3.29000000e-01	1.64490730e-02	2.09855999e-04
3.29500000e-01	1.63422495e-02	2.09711392e-04
3.30000000e-01	1.65645498e-02	2.10235061e-04
3.30500000e-01	1.65946524e-02	2.11607991e-04
3.31000000e-01	1.63992828e-02	2.08864752e-04
3.31500000e-01	1.64028166e-02	2.08773218e-04
3.32000000e-01	1.64358620e-02	2.08881100e-04
3.32500000e-01	1.65790889e-02	2.09747201e-04
3.33000000e-01	1.64342671e-02	2.08487408e-04
3.33500000e-01	1.63393172e-02	2.07058448e-04
3.34000000e-01	1.65214364e-02	2.09137095e-04
3.34500000e-01	1.64101714e-02	2.08246681e-04
3.35000000e-01	1.64877018e-02	2.07778553e-04
3.35500000e-01	1.64306626e-02	2.07019752e-04
3.36000000e-01	1.61953660e-02	2.04320094e-04
3.36500000e-01	1.63045339e-02	2.05604531e-04
3.37000000e-01	1.64487326e-02	2.07343241e-04
3.37500000e-01	1.62906565e-02	2.05403765e-04
3.38000000e-01	1.63343890e-02	2.06054430e-04
3.38500000e-01	1.63574528e-02	2.05523800e-04
3.39000000e-01	1.64570005e-02	2.07087695e-04
3.39500000e-01	1.64021595e-02	2.05192264e-04
3.40000000e-01	1.62544193e-02	2.04310529e-04
3.40500000e-01	1.65571176e-02	2.08212376e-04
3.41000000e-01	1.64163943e-02	2.05417984e-04
3.41500000e-01	1.62479582e-02	2.04153744e-04
3.42000000e-01	1.62824098e-02	2.03509222e-04
3.42500000e-01	1.62882332e-02	2.03896684e-04
3.43000000e-01	1.60417588e-02	2.00687820e-04
3.43500000e-01	1.63247859e-02	2.04272514e-04
3.44000000e-01	1.63119971e-02	2.03978574e-04
3.44500000e-01	1.63323007e-02	2.04358978e-04
3.45000000e-01	1.62299875e-02	2.02784539e-04
3.45500000e-01	1.63097125e-02	2.02585197e-04
3.46000000e-01	1.60772615e-02	2.00305043e-04
3.46500000e-01	1.62080264e-02	2.01387792e-04
3.47000000e-01	1.62892750e-02	2.02403010e-04
3.47500000e-01	1.61200711e-02	2.00989466e-04
3.48000000e-01	1.62518951e-02	2.02327630e-04
3.48500000e-01	1.61364126e-02	2.00427664e-04
3.49000000e-01	1.60802058e-02	1.99431943e-04
3.49500000e-01	1.61950003e-02	2.00860513e-04
3.50000000e-01	1.59793798e-02	1.61749406e-04
3.51000000e-01	1.60869308e-02	1.40776086e-04
3.52000000e-01	1.60113805e-02	1.39977108e-04
3.53000000e-01	1.61422337e-02	1.40441790e-04
3.54000000e-01	1.61005409e-02	1.39783827e-04
3.55000000e-01	1.60381643e-02	1.39510134e-04
3.56000000e-01	1.61158650e-02	1.40530571e-04
3.57000000e-01	1.59985102e-02	1.42031120e-04
3.58000000e-01	1.59108205e-02	1.42620537e-04
3.59000000e-01	1.61225996e-02	1.45705588e-04
3.60000000e-01	1.58815423e-02	1.44247501e-04
3.61000000e-01	1.57741976e-02	1.44082577e-04
3.62000000e-01	1.59048134e-02	1.45909440e-04
3.63000000e-01	1.59296962e-02	1.46820641e-04
3.64000000e-01	1.58808066e-02	1.46841799e-04
3.65000000e-01	1.57950823e-02	1.46438703e-04
3.66000000e-01	1.57756742e-02	1.44484751e-04
3.67000000e-01	1.57996611e-02	1.42662101e-04
3.68000000e-01	1.58823742e-02	1.42478218e-04
3.69000000e-01	1.58724705e-02	1.41450667e-04
3.70000000e-01	1.57894415e-02	1.40202794e-04
3.71000000e-01	1.57106924e-02	1.41370160e-04
3.72000000e-01	1.58383313e-02	1.43543828e-04
3.73000000e-01	1.58379142e-02	1.43791983e-04
3.74000000e-01	1.57899791e-02	1.43494491e-04
3.75000000e-01	1.56718063e-02	1.42270478e-04
3.76000000e-01	1.57202113e-02	1.43038219e-04
3.77000000e-01	1.57949648e-02	1.43470514e-04
3.78000000e-01	1.56270388e-02	1.42014046e-04
3.79000000e-01	1.56814250e-02	1.42386208e-04
3.80000000e-01	1.55375351e-02	1.40981955e-04
3.81000000e-01	1.56529123e-02	1.42020049e-04
3.82000000e-01	1.55925698e-02	1.41639848e-04
3.83000000e-01	1.56500078e-02	1.41629086e-04
3.84000000e-01	1.56079768e-02	1.41670442e-04
3.85000000e-01	1.54970725e-02	1.41014864e-04
3.86000000e-01	1.54492308e-02	1.39997678e-04
3.87000000e-01	1.56299881e-02	1.41623407e-04
3.88000000e-01	1.55001411e-02	1.40398036e-04
3.89000000e-01	1.55662886e-02	1.40880088e-04
3.90000000e-01	1.55069702e-02	1.40236234e-04
3.91000000e-01	1.55798915e-02	1.40653857e-04
3.92000000e-01	1.56087692e-02	1.41478880e-04
3.93000000e-01	1.54223279e-02	1.39397480e-04
3.94000000e-01	1.54886375e-02	1.40452982e-04
3.95000000e-01	1.55124215e-02	1.39998031e-04
3.96000000e-01	1.55724085e-02	1.40743393e-04
3.97000000e-01	1.55444616e-02	1.40380782e-04
3.98000000e-01	1.53873435e-02	1.39508183e-04
3.99000000e-01	1.54149680e-02	1.39749581e-04
4.00000000e-01	1.53607735e-02	1.39024901e-04
4.01000000e-01	1.54174715e-02	1.39519975e-04
4.02000000e-01	1.52962869e-02	1.38929381e-04
4.03000000e-01	1.53318033e-02	1.38933817e-04
4.04000000e-01	1.53206475e-02	1.38272808e-04
4.05000000e-01	1.51861315e-02	1.36997118e-04
4.06000000e-01	1.54630730e-02	1.39477945e-04
4.07000000e-01	1.53050377e-02	1.38326672e-04
4.08000000e-01	1.52755619e-02	1.37662977e-04
4.09000000e-01	1.53473491e-02	1.38263796e-04
4.10000000e-01	1.52052956e-02	1.37453129e-04
4.11000000e-01	1.51808651e-02	1.37189749e-04
4.12000000e-01	1.52992699e-02	1.38179544e-04
4.13000000e-01	1.53008789e-02	1.37749259e-04
4.14000000e-01	1.51995585e-02	1.36942682e-04
4.15000000e-01	1.51814648e-02	1.36773669e-04
4.16000000e-01	1.50987204e-02	1.35880498e-04
4.17000000e-01	1.53184914e-02	1.37844063e-04
4.18000000e-01	1.52721914e-02	1.39183256e-04
4.19000000e-01	1.52865615e-02	1.40622405e-04
4.20000000e-01	1.52644621e-02	1.41437894e-04
4.21000000e-01	1.52718495e-02	1.41686797e-04
4.22000000e-01	1.53202721e-02	1.42599454e-04
4.23000000e-01	1.52334125e-02	1.42219806e-04
4.24000000e-01	1.52025810e-02	1.42702301e-04
4.25000000e-01	1.53210289e-02	1.43909850e-04
4.26000000e-01	1.51554724e-02	1.42492463e-04
4.27000000e-01	1.52662167e-02	1.43282441e-04
4.28000000e-01	1.52015132e-02	1.43087076e-04
4.29000000e-01	1.51737083e-02	1.43133006e-04
4.30000000e-01	1.51578751e-02	1.43063721e-04
4.31000000e-01	1.51321872e-02	1.42614448e-04
4.32000000e-01	1.51398795e-02	1.42689654e-04
4.33000000e-01	1.51430897e-02	1.43020168e-04
4.34000000e-01	1.50256251e-02	1.42059928e-04
4.35000000e-01	1.51285172e-02	1.42874031e-04
4.36000000e-01	1.51359834e-02	1.43340598e-04
4.37000000e-01	1.51063349e-02	1.43147762e-04
4.38000000e-01	1.49684080e-02	1.41966982e-04
4.39000000e-01	1.49598720e-02	1.42393522e-04
4.40000000e-01	1.50073370e-02	1.42956821e-04
4.41000000e-01	1.50515077e-02	1.43462399e-04
4.42000000e-01	1.50298087e-02	1.43349456e-04
4.43000000e-01	1.50392182e-02	1.43551259e-04
4.44000000e-01	1.50424608e-02	1.43601518e-04
4.45000000e-01	1.50326325e-02	1.44068302e-04
4.46000000e-01	1.48756099e-02	1.42535627e-04
4.47000000e-01	1.49345272e-02	1.43493492e-04
4.48000000e-01	1.50843500e-02	1.44948221e-04
4.49000000e-01	1.49162343e-02	1.43470401e-04
4.50000000e-01	1.50538853e-02	1.45118576e-04
4.51000000e-01	1.48945617e-02	1.43796147e-04
4.52000000e-01	1.48320306e-02	1.43467021e-04
4.53000000e-01	1.49429416e-02	1.44395024e-04
4.54000000e-01	1.49864719e-02	1.44669430e-04
4.55000000e-01	1.49524133e-02	1.44566696e-04
4.56000000e-01	1.49478755e-02	1.44610629e-04
4.57000000e-01	1.46902410e-02	1.42563535e-04
4.58000000e-01	1.47916074e-02	1.43286802e-04
4.59000000e-01	1.49415207e-02	1.44596624e-04
4.60000000e-01	1.48011696e-02	1.43841830e-04
4.61000000e-01	1.49006214e-02	1.45179625e-04
4.62000000e-01	1.48653246e-02	1.44560048e-04
4.63000000e-01	1.48563564e-02	1.44782851e-04
4.64000000e-01	1.50197630e-02	1.46254797e-04
4.65000000e-01	1.48056990e-02	1.44518435e-04
4.66000000e-01	1.47980719e-02	1.44171939e-04
4.67000000e-01	1.48587588e-02	1.45151271e-04
4.68000000e-01	1.47339036e-02	1.44066228e-04
4.69000000e-01	1.47018206e-02	1.43968502e-04
4.70000000e-01	1.46192707e-02	1.43322721e-04
4.71000000e-01	1.47183762e-02	1.43958771e-04
4.72000000e-01	1.46804750e-02	1.43474727e-04
4.73000000e-01	1.47138067e-02	1.43723104e-04
4.74000000e-01	1.48247947e-02	1.44502886e-04
4.75000000e-01	1.46971946e-02	1.43895924e-04
4.76000000e-01	1.49196609e-02	1.45540220e-04
4.77000000e-01	1.46578449e-02	1.43706140e-04
4.78000000e-01	1.48015843e-02	1.44684133e-04
4.79000000e-01	1.47943194e-02	1.44712252e-04
4.80000000e-01	1.47101298e-02	1.43997256e-04
4.81000000e-01	1.45265163e-02	1.42972683e-04
4.82000000e-01	1.46661104e-02	1.43806940e-04
4.83000000e-01	1.48008711e-02	1.45151949e-04
4.84000000e-01	1.46589172e-02	1.44396160e-04
4.85000000e-01	1.45951337e-02	1.43630257e-04
4.86000000e-01	1.47089523e-02	1.44213197e-04
4.87000000e-01	1.46332950e-02	1.43649481e-04
4.88000000e-01	1.44835871e-02	1.43017514e-04
4.89000000e-01	1.46422229e-02	1.43811489e-04
4.90000000e-01	1.46032713e-02	1.43889048e-04
4.91000000e-01	1.44820746e-02	1.42805580e-04
4.92000000e-01	1.45877948e-02	1.44136159e-04
4.93000000e-01	1.46159312e-02	1.44132231e-04
4.94000000e-01	1.45075034e-02	1.43176964e-04
4.95000000e-01	1.45591364e-02	1.44776924e-04
4.96000000e-01	1.45788235e-02	1.49202518e-04
4.97000000e-01	1.46011090e-02	1.52130625e-04
4.98000000e-01	1.45143879e-02	1.53661078e-04
4.99000000e-01	1.44424527e-02	1.54863444e-04
5.00000000e-01	1.44662454e-02	1.56217204e-04
5.01000000e-01	1.46200561e-02	1.59341920e-04
5.02000000e-01	1.44855132e-02	1.59535261e-04
5.03000000e-01	1.45863812e-02	1.62974783e-04
5.04000000e-01	1.44459109e-02	1.62296608e-04
5.05000000e-01	1.43915808e-02	1.59061496e-04
5.06000000e-01	1.43886031e-02	1.55461360e-04
5.07000000e-01	1.45998939e-02	1.55610922e-04
5.08000000e-01	1.46446944e-02	1.55539514e-04
5.09000000e-01	1.44931636e-02	1.53470883e-04
5.10000000e-01	1.45919268e-02	1.53889313e-04
5.11000000e-01	1.44259281e-02	1.51797507e-04
5.12000000e-01	1.44368934e-02	1.51297099e-04
5.13000000e-01	1.44323286e-02	1.51291887e-04
5.14000000e-01	1.45675609e-02	1.52163147e-04
5.15000000e-01	1.44384487e-02	1.50607388e-04
5.16000000e-01	1.44164333e-02	1.49868415e-04
5.17000000e-01	1.43242090e-02	1.48781548e-04
5.18000000e-01	1.44487923e-02	1.49494259e-04
5.19000000e-01	1.43957575e-02	1.49062159e-04
5.20000000e-01	1.43888823e-02	1.49005115e-04
5.21000000e-01	1.43480222e-02	1.48002385e-04
5.22000000e-01	1.44233279e-02	1.48894923e-04
5.23000000e-01	1.43534738e-02	1.48068820e-04
5.24000000e-01	1.42422487e-02	1.46975157e-04
5.25000000e-01	1.42569375e-02	1.46674547e-04
5.26000000e-01	1.42947085e-02	1.47177475e-04
5.27000000e-01	1.42383136e-02	1.47075632e-04
5.28000000e-01	1.44369941e-02	1.48974644e-04
5.29000000e-01	1.42509370e-02	1.46626570e-04
5.30000000e-01	1.43853960e-02	1.47670180e-04
5.31000000e-01	1.42712259e-02	1.47156892e-04
5.32000000e-01	1.41873283e-02	1.46329649e-04
5.33000000e-01	1.41621802e-02	1.46293080e-04
5.34000000e-01	1.41368134e-02	1.46017494e-04
5.35000000e-01	1.40933906e-02	1.45394706e-04
5.36000000e-01	1.40229129e-02	1.44617757e-04
5.37000000e-01	1.40553160e-02	1.44863610e-04
5.38000000e-01	1.42016840e-02	1.45502132e-04
5.39000000e-01	1.41659789e-02	1.45948365e-04
5.40000000e-01	1.42593215e-02	1.46595460e-04
5.41000000e-01	1.41999689e-02	1.46379425e-04
5.42000000e-01	1.41341954e-02	1.45485322e-04
5.43000000e-01	1.42288218e-02	1.46867495e-04
5.44000000e-01	1.40895366e-02	1.44874981e-04
5.45000000e-01	1.40764442e-02	1.44910749e-04
5.46000000e-01	1.41002443e-02	1.45070125e-04
5.47000000e-01	1.39965264e-02	1.44638187e-04
5.48000000e-01	1.41066651e-02	1.45330770e-04
5.49000000e-01	1.40890874e-02	1.44782394e-04
5.50000000e-01	1.39493826e-02	1.43804774e-04
5.51000000e-01	1.41569658e-02	1.45619525e-04
5.52000000e-01	1.40153532e-02	1.44032997e-04
5.53000000e-01	1.38717849e-02	1.42198584e-04
5.54000000e-01	1.39853311e-02	1.43308125e-04
5.55000000e-01	1.39084142e-02	1.42386673e-04
5.56000000e-01	1.39341681e-02	1.42734234e-04
5.57000000e-01	1.40230097e-02	1.43610575e-04
5.58000000e-01	1.38662577e-02	1.42231676e-04
5.59000000e-01	1.39733897e-02	1.42890073e-04
5.60000000e-01	1.39574022e-02	1.43349297e-04
5.61000000e-01	1.39028222e-02	1.42657898e-04
5.62000000e-01	1.39980728e-02	1.43346710e-04
5.63000000e-01	1.39764767e-02	1.43114076e-04
5.64000000e-01	1.38426761e-02	1.41941740e-04
5.65000000e-01	1.38352499e-02	1.41988786e-04
5.66000000e-01	1.38431592e-02	1.42445779e-04
5.67000000e-01	1.38358372e-02	1.42069832e-04
5.68000000e-01	1.38727373e-02	1.42055044e-04
5.69000000e-01	1.38329508e-02	1.41456495e-04
5.70000000e-01	1.38193947e-02	1.41423737e-04
5.71000000e-01	1.37391602e-02	1.40493418e-04
5.72000000e-01	1.38421124e-02	1.41844245e-04
5.73000000e-01	1.36329357e-02	1.40579672e-04
5.74000000e-01	1.38960271e-02	1.42148221e-04
5.75000000e-01	1.38343011e-02	1.41951610e-04
5.76000000e-01	1.37542096e-02	1.41684668e-04
5.77000000e-01	1.37632370e-02	1.40834148e-04
5.78000000e-01	1.36993472e-02	1.40906454e-04
5.79000000e-01	1.36864489e-02	1.40361178e-04
5.80000000e-01	1.36834262e-02	1.41019000e-04
5.81000000e-01	1.37439176e-02	1.41623880e-04
5.82000000e-01	1.36928176e-02	1.40494294e-04
5.83000000e-01	1.36144140e-02	1.40244164e-04
5.84000000e-01	1.35985815e-02	1.40105640e-04
5.85000000e-01	1.36869993e-02	1.40648454e-04
5.86000000e-01	1.36166117e-02	1.40525339e-04
5.87000000e-01	1.35600782e-02	1.39501127e-04
5.88000000e-01	1.35581541e-02	1.39987530e-04
5.89000000e-01	1.37166740e-02	1.41493358e-04
5.90000000e-01	1.37906988e-02	1.41309409e-04
5.91000000e-01	1.35806835e-02	1.40275787e-04
5.92000000e-01	1.36725688e-02	1.41009015e-04
5.93000000e-01	1.35472912e-02	1.39500494e-04
5.94000000e-01	1.36139296e-02	1.39832984e-04
5.95000000e-01	1.35113161e-02	1.39189858e-04
5.96000000e-01	1.35503191e-02	1.40039689e-04
5.97000000e-01	1.36300905e-02	1.40549258e-04
5.98000000e-01	1.35892071e-02	1.40128666e-04
5.99000000e-01	1.36800762e-02	1.41354154e-04
6.00000000e-01	1.37367483e-02	1.41693993e-04
6.01000000e-01	1.33928052e-02	1.38622262e-04
6.02000000e-01	1.34685239e-02	1.39212097e-04
6.03000000e-01	1.33409618e-02	1.38287411e-04
6.04000000e-01	1.34861017e-02	1.39636025e-04
6.05000000e-01	1.36030802e-02	1.40302112e-04
6.06000000e-01	1.35404569e-02	1.39551403e-04
6.07000000e-01	1.33261766e-02	1.38060858e-04
6.08000000e-01	1.33344639e-02	1.37735380e-04
6.09000000e-01	1.33762984e-02	1.38104904e-04
6.10000000e-01	1.33419362e-02	1.38387142e-04
6.11000000e-01	1.35016851e-02	1.38988978e-04
6.12000000e-01	1.34265846e-02	1.38961242e-04
6.13000000e-01	1.34743047e-02	1.39505984e-04
6.14000000e-01	1.34648501e-02	1.39323908e-04
6.15000000e-01	1.34100302e-02	1.38350558e-04
6.16000000e-01	1.34016394e-02	1.38776515e-04
6.17000000e-01	1.34660254e-02	1.39697805e-04
6.18000000e-01	1.31416699e-02	1.36361155e-04
6.19000000e-01	1.34001550e-02	1.38950063e-04
6.20000000e-01	1.34108861e-02	1.38538341e-04
6.21000000e-01	1.33036064e-02	1.37037675e-04
6.22000000e-01	1.33821959e-02	1.37980393e-04
6.23000000e-01	1.33727077e-02	1.37499946e-04
6.24000000e-01	1.33574173e-02	1.37157679e-04
6.25000000e-01	1.33972175e-02	1.37388119e-04
6.26000000e-01	1.32361933e-02	1.36153409e-04
6.27000000e-01	1.33270217e-02	1.37182610e-04
6.28000000e-01	1.33634814e-02	1.37682776e-04
6.29000000e-01	1.32899799e-02	1.36457273e-04
6.30000000e-01	1.31972211e-02	1.35896158e-04
6.31000000e-01	1.32173187e-02	1.36144550e-04
6.32000000e-01	1.32246405e-02	1.36208680e-04
6.33000000e-01	1.32851461e-02	1.36324851e-04
6.34000000e-01	1.33109912e-02	1.39851609e-04
6.35000000e-01	1.33327857e-02	1.44349383e-04
6.36000000e-01	1.32627019e-02	1.46805040e-04
6.37000000e-01	1.33014963e-02	1.49140216e-04
6.38000000e-01	1.34659621e-02	1.52630210e-04
6.39000000e-01	1.32503852e-02	1.52821749e-04
6.40000000e-01	1.33400315e-02	1.55668777e-04
6.41000000e-01	1.33338866e-02	1.57367930e-04
6.42000000e-01	1.33386767e-02	1.58810747e-04
6.43000000e-01	1.32227753e-02	1.57111103e-04
6.44000000e-01	1.34513454e-02	1.54191247e-04
6.45000000e-01	1.32958263e-02	1.50611110e-04
6.46000000e-01	1.33741847e-02	1.49851343e-04
6.47000000e-01	1.34027860e-02	1.48818805e-04
6.48000000e-01	1.34011794e-02	1.48169401e-04
6.49000000e-01	1.33570908e-02	1.46670681e-04
6.50000000e-01	1.32797087e-02	1.45598839e-04
6.51000000e-01	1.32417444e-02	1.44758061e-04
6.52000000e-01	1.31412331e-02	1.43008136e-04
6.53000000e-01	1.32813807e-02	1.43667127e-04
6.54000000e-01	1.33658753e-02	1.44439016e-04
6.55000000e-01	1.32879292e-02	1.42899121e-04
6.56000000e-01	1.32962595e-02	1.43018931e-04
6.57000000e-01	1.33787274e-02	1.43666587e-04
6.58000000e-01	1.34137526e-02	1.43404728e-04
6.59000000e-01	1.32366878e-02	1.41985418e-04
6.60000000e-01	1.32074201e-02	1.41695025e-04
6.61000000e-01	1.33189616e-02	1.41817274e-04
6.62000000e-01	1.33180094e-02	1.43109841e-04
6.63000000e-01	1.31601061e-02	1.40843308e-04
6.64000000e-01	1.32250039e-02	1.41182570e-04
6.65000000e-01	1.31112763e-02	1.40301127e-04
6.66000000e-01	1.31742402e-02	1.40266312e-04
6.67000000e-01	1.33098177e-02	1.41578386e-04
6.68000000e-01	1.32206813e-02	1.40732787e-04
6.69000000e-01	1.32439041e-02	1.41632475e-04
6.70000000e-01	1.31269253e-02	1.39599740e-04
6.71000000e-01	1.31930574e-02	1.40866811e-04
6.72000000e-01	1.31925672e-02	1.40669373e-04
6.73000000e-01	1.31145891e-02	1.39753473e-04
6.74000000e-01	1.30119435e-02	1.38788956e-04
6.75000000e-01	1.30053902e-02	1.38523012e-04
6.76000000e-01	1.32756697e-02	1.41281450e-04
6.77000000e-01	1.32136902e-02	1.40250919e-04
6.78000000e-01	1.30454701e-02	1.38536583e-04
6.79000000e-01	1.30411045e-02	1.38821786e-04
6.80000000e-01	1.31025746e-02	1.39097701e-04
6.81000000e-01	1.30119160e-02	1.38201296e-04
6.82000000e-01	1.30649018e-02	1.39024513e-04
6.83000000e-01	1.29993476e-02	1.38194382e-04
6.84000000e-01	1.30928021e-02	1.39281339e-04
6.85000000e-01	1.30018781e-02	1.38029043e-04
6.86000000e-01	1.30227242e-02	1.38371593e-04
6.87000000e-01	1.31496662e-02	1.39947504e-04
6.88000000e-01	1.29806623e-02	1.38128706e-04
6.89000000e-01	1.31114134e-02	1.38809085e-04
6.90000000e-01	1.27895553e-02	1.36125718e-04
6.91000000e-01	1.29254390e-02	1.37565129e-04
6.92000000e-01	1.30191884e-02	1.37912647e-04
6.93000000e-01	1.29662291e-02	1.37357452e-04
6.94000000e-01	1.28944184e-02	1.36888158e-04
6.95000000e-01	1.28188313e-02	1.36372761e-04
6.96000000e-01	1.29218353e-02	1.36833655e-04
6.97000000e-01	1.29300905e-02	1.36702364e-04
6.98000000e-01	1.29038393e-02	1.37150628e-04
6.99000000e-01	1.30185797e-02	1.37891708e-04
7.00000000e-01	1.28394160e-02	1.36301196e-04
7.01000000e-01	1.30255753e-02	1.38330459e-04
7.02000000e-01	1.29768538e-02	1.37510314e-04
7.03000000e-01	1.29329627e-02	1.37357159e-04
7.04000000e-01	1.29353509e-02	1.37228198e-04
7.05000000e-01	1.29450477e-02	1.37224889e-04
7.06000000e-01	1.28531629e-02	1.36298033e-04
7.07000000e-01	1.28072558e-02	1.35329619e-04
7.08000000e-01	1.28318022e-02	1.35325924e-04
7.09000000e-01	1.29235449e-02	1.36761673e-04
7.10000000e-01	1.27508665e-02	1.35002328e-04
7.11000000e-01	1.27160730e-02	1.34967823e-04
7.12000000e-01	1.28359482e-02	1.35797210e-04
7.13000000e-01	1.27190260e-02	1.34568330e-04
7.14000000e-01	1.27845825e-02	1.35693439e-04
7.15000000e-01	1.27034340e-02	1.34894476e-04
7.16000000e-01	1.27556426e-02	1.35282578e-04
7.17000000e-01	1.27449422e-02	1.35394904e-04
7.18000000e-01	1.26302069e-02	1.33592333e-04
7.19000000e-01	1.26786452e-02	1.34491982e-04
7.20000000e-01	1.25722110e-02	1.33572827e-04
7.21000000e-01	1.27244282e-02	1.35097251e-04
7.22000000e-01	1.25827774e-02	1.33676603e-04
7.23000000e-01	1.25344901e-02	1.33308660e-04
7.24000000e-01	1.26289345e-02	1.34300013e-04
7.25000000e-01	1.25286654e-02	1.33328642e-04
7.26000000e-01	1.25079495e-02	1.33262375e-04
7.27000000e-01	1.25798614e-02	1.33811082e-04
7.28000000e-01	1.25388458e-02	1.33042992e-04
7.29000000e-01	1.25860142e-02	1.33798482e-04
7.30000000e-01	1.25628977e-02	1.33794565e-04
7.31000000e-01	1.25932132e-02	1.33969261e-04
7.32000000e-01	1.26170597e-02	1.34215690e-04
7.33000000e-01	1.24275769e-02	1.31665506e-04
7.34000000e-01	1.25085631e-02	1.32266418e-04
7.35000000e-01	1.26033374e-02	1.33128555e-04
7.36000000e-01	1.25415786e-02	1.32578067e-04
7.37000000e-01	1.24663155e-02	1.31987640e-04
7.38000000e-01	1.24051179e-02	1.30758790e-04
7.39000000e-01	1.25013878e-02	1.31403105e-04
7.40000000e-01	1.24113858e-02	1.30456592e-04
7.41000000e-01	1.23850577e-02	1.30078789e-04
7.42000000e-01	1.25192259e-02	1.31627587e-04
7.43000000e-01	1.23012320e-02	1.29199785e-04
7.44000000e-01	1.24897365e-02	1.31732415e-04
7.45000000e-01	1.23717175e-02	1.30186944e-04
7.46000000e-01	1.24365478e-02	1.30480207e-04
7.47000000e-01	1.24199379e-02	1.30984944e-04
7.48000000e-01	1.24543725e-02	1.30755139e-04
7.49000000e-01	1.22698014e-02	1.29445330e-04
7.50000000e-01	1.22279119e-02	1.29378714e-04
7.51000000e-01	1.23392822e-02	1.29781790e-04
7.52000000e-01	1.23154573e-02	1.29835714e-04
7.53000000e-01	1.23966079e-02	1.30228989e-04
7.54000000e-01	1.22948457e-02	1.29522486e-04
7.55000000e-01	1.22478843e-02	1.30014234e-04
7.56000000e-01	1.22182147e-02	1.28750439e-04
7.57000000e-01	1.22686595e-02	1.29711021e-04
7.58000000e-01	1.21300304e-02	1.27819730e-04
7.59000000e-01	1.22324888e-02	1.28901835e-04
7.60000000e-01	1.22413439e-02	1.29013323e-04
7.61000000e-01	1.21894790e-02	1.27720854e-04
7.62000000e-01	1.22434681e-02	1.28313898e-04
7.63000000e-01	1.22119593e-02	1.28093447e-04
7.64000000e-01	1.22025803e-02	1.27839727e-04
7.65000000e-01	1.20867366e-02	1.26377737e-04
7.66000000e-01	1.20692072e-02	1.26208160e-04
7.67000000e-01	1.19957221e-02	1.25621582e-04
7.68000000e-01	1.22017647e-02	1.27515365e-04
7.69000000e-01	1.21193410e-02	1.26791167e-04
7.70000000e-01	1.21190231e-02	1.26326867e-04
7.71000000e-01	1.20540100e-02	1.25995110e-04
7.72000000e-01	1.22188958e-02	1.31282377e-04
7.73000000e-01	1.20508619e-02	1.34103320e-04
7.74000000e-01	1.23105756e-02	1.39183310e-04
7.75000000e-01	1.20439548e-02	1.39202458e-04
7.76000000e-01	1.21054005e-02	1.42385566e-04
7.77000000e-01	1.20083356e-02	1.43211886e-04
7.78000000e-01	1.19963347e-02	1.44620609e-04
7.79000000e-01	1.21588225e-02	1.48501677e-04
7.80000000e-01	1.20583885e-02	1.48548055e-04
7.81000000e-01	1.21428595e-02	1.51190858e-04
7.82000000e-01	1.19696721e-02	1.50904526e-04
7.83000000e-01	1.19423599e-02	1.52754329e-04
7.84000000e-01	1.19963187e-02	1.54109230e-04
7.85000000e-01	1.17962408e-02	1.54484977e-04
7.86000000e-01	1.18089162e-02	1.55897829e-04
7.87000000e-01	1.17435959e-02	1.56439128e-04
7.88000000e-01	1.19411118e-02	1.60966713e-04
7.89000000e-01	1.19277688e-02	1.61608974e-04
7.90000000e-01	1.17990354e-02	1.61565954e-04
7.91000000e-01	1.18161588e-02	1.64333908e-04
7.92000000e-01	1.18796797e-02	1.65599467e-04
7.93000000e-01	1.17374420e-02	1.65967508e-04
7.94000000e-01	1.19102934e-02	1.69697775e-04
7.95000000e-01	1.18971772e-02	1.70983522e-04
7.96000000e-01	1.17829146e-02	1.71564181e-04
7.97000000e-01	1.17152406e-02	1.73067002e-04
7.98000000e-01	1.19419831e-02	1.77337512e-04
7.99000000e-01	1.17955032e-02	1.76489320e-04
8.00000000e-01	1.19270389e-02	1.79832484e-04
8.01000000e-01	1.18453600e-02	1.81814787e-04
8.02000000e-01	1.16542265e-02	1.80416587e-04
8.03000000e-01	1.16548222e-02	1.82839415e-04
8.04000000e-01	1.15840141e-02	1.83104087e-04
8.05000000e-01	1.17060405e-02	1.86855491e-04
8.06000000e-01	1.16593746e-02	1.88748099e-04
8.07000000e-01	1.15881470e-02	1.89207731e-04
8.08000000e-01	1.17632746e-02	1.93677717e-04
8.09000000e-01	1.15428457e-02	1.93567682e-04
8.10000000e-01	1.16978859e-02	1.97702073e-04
8.11000000e-01	1.15645305e-02	1.98809585e-04
8.12000000e-01	1.16802793e-02	2.02093552e-04
8.13000000e-01	1.16564377e-02	2.03645768e-04
8.14000000e-01	1.16763448e-02	2.07556277e-04
8.15000000e-01	1.14665405e-02	2.04558865e-04
8.16000000e-01	1.13526896e-02	2.05747091e-04
8.17000000e-01	1.16051052e-02	2.12524770e-04
8.18000000e-01	1.16695603e-02	2.16277512e-04
8.19000000e-01	1.15412184e-02	2.17024904e-04
8.20000000e-01	1.13947278e-02	2.18274756e-04
8.21000000e-01	1.16368302e-02	2.26014268e-04
8.22000000e-01	1.14572533e-02	2.23063486e-04
8.23000000e-01	1.16239053e-02	2.29330053e-04
8.24000000e-01	1.14574020e-02	2.31492844e-04
8.25000000e-01	1.14118675e-02	2.31821462e-04
8.26000000e-01	1.14744203e-02	2.37222164e-04
8.27000000e-01	1.14754849e-02	2.40551903e-04
8.28000000e-01	1.12497576e-02	2.41294620e-04
8.29000000e-01	1.13318837e-02	2.44587605e-04
8.30000000e-01	1.13157325e-02	2.48037290e-04
8.31000000e-01	1.11839500e-02	2.49770923e-04
8.32000000e-01	1.14910926e-02	2.61975506e-04
8.33000000e-01	1.12450405e-02	2.61336384e-04
8.34000000e-01	1.12707443e-02	2.65711557e-04
8.35000000e-01	1.14014894e-02	2.73333721e-04
8.36000000e-01	1.07632955e-02	2.66161939e-04
8.37000000e-01	1.13348321e-02	2.80998110e-04
8.38000000e-01	1.12587984e-02	2.86808859e-04
8.39000000e-01	1.08872541e-02	2.83334619e-04
8.40000000e-01	1.12443868e-02	2.95395759e-04
8.41000000e-01	1.13073833e-02	3.07258047e-04
8.42000000e-01	1.09945593e-02	3.04680051e-04
8.43000000e-01	1.12692214e-02	3.21927329e-04
8.44000000e-01	1.15006168e-02	3.32124004e-04
8.45000000e-01	1.13190855e-02	3.39476026e-04
8.46000000e-01	1.10692015e-02	3.40537909e-04
8.47000000e-01	1.11894966e-02	3.54159981e-04
8.48000000e-01	1.12205405e-02	3.64280635e-04
8.49000000e-01	1.10813998e-02	3.72297812e-04
8.50000000e-01	1.12599145e-02	3.88700008e-04
8.51000000e-01	1.11267230e-02	3.99875908e-04
8.52000000e-01	1.10871595e-02	4.17404066e-04
8.53000000e-01	1.08966284e-02	4.29162099e-04
8.54000000e-01	1.11512868e-02	4.55996844e-04
8.55000000e-01	1.09057382e-02	4.52877455e-04
8.56000000e-01	1.05162365e-02	4.50885679e-04
8.57000000e-01	1.03966662e-02	4.68366507e-04
8.58000000e-01	1.12503995e-02	5.14913677e-04
8.59000000e-01	1.06361062e-02	5.02424297e-04
8.60000000e-01	1.05998693e-02	5.21457841e-04
8.61000000e-01	1.05570254e-02	5.29370703e-04
8.62000000e-01	1.06262000e-02	5.55187711e-04
8.63000000e-01	1.06093688e-02	5.78958966e-04
8.64000000e-01	1.06026998e-02	6.09274237e-04
8.65000000e-01	1.13516962e-02	6.88953677e-04
8.66000000e-01	1.07183048e-02	6.73267508e-04
8.67000000e-01	1.12196389e-02	7.53313400e-04
8.68000000e-01	1.07413772e-02	7.71839354e-04
8.69000000e-01	1.06013863e-02	8.15913523e-04
8.70000000e-01	1.10172649e-02	8.98179828e-04
8.71000000e-01	1.04962664e-02	9.50239207e-04
8.72000000e-01	1.06953349e-02	1.10241126e-03
8.73000000e-01	1.04659287e-02	1.29591862e-03
8.74000000e-01	1.23699620e-02	1.90031213e-03
8.75000000e-01	1.01986029e-02	3.55532347e-03
