% Filename : SEC7_00039_00020.h5
% Date & Time : 30-Oct-2025 17:48:42
% X-ray Energy (keV) : 13.30001
% Exposure Time (s) : 0.500
% Beam Center : 1461.24000, 208.98300
% Sample to Detector Distance (SDD) (mm) : 1990.750
% Detector Pixel Size (mm) : 0.075
% Photodiode Value : 142221.000
% I0 of Sample : 0
% I0 of Standard : 1
% 
% q(A^-1)   I(q)    I(q)_SE
0.00000000e+00	1.01626098e-02	6.22329138e-03
2.50000000e-04	0.00000000e+00	0.00000000e+00
5.00000000e-04	0.00000000e+00	0.00000000e+00
7.50000000e-04	0.00000000e+00	0.00000000e+00
1.00000000e-03	0.00000000e+00	0.00000000e+00
1.25000000e-03	0.00000000e+00	0.00000000e+00
1.50000000e-03	0.00000000e+00	0.00000000e+00
1.75000000e-03	0.00000000e+00	0.00000000e+00
2.00000000e-03	0.00000000e+00	0.00000000e+00
2.25000000e-03	0.00000000e+00	0.00000000e+00
2.50000000e-03	0.00000000e+00	0.00000000e+00
2.75000000e-03	0.00000000e+00	0.00000000e+00
3.00000000e-03	0.00000000e+00	0.00000000e+00
3.25000000e-03	9.44874124e+00	5.51468397e+00
3.50000000e-03	9.56283141e+00	2.14893224e+00
3.75000000e-03	7.84395310e+00	1.40889353e+00
4.00000000e-03	6.62755044e+00	1.08019451e+00
4.25000000e-03	5.14485289e+00	7.20914305e-01
4.50000000e-03	9.89479431e+00	1.97871938e+00
4.75000000e-03	9.16987305e+00	1.62868678e+00
5.00000000e-03	7.11452619e+00	1.18725746e+00
5.25000000e-03	5.72653616e+00	9.27317155e-01
5.50000000e-03	4.64502854e+00	7.08260564e-01
5.75000000e-03	3.91262608e+00	5.72117203e-01
6.00000000e-03	3.10303024e+00	4.31100104e-01
6.25000000e-03	2.68589123e+00	3.66055540e-01
6.50000000e-03	2.20407266e+00	2.86577559e-01
6.75000000e-03	1.85754662e+00	2.35020131e-01
7.00000000e-03	1.65302888e+00	1.98611136e-01
7.25000000e-03	1.41015136e+00	1.63277394e-01
7.50000000e-03	1.20633794e+00	1.37274345e-01
7.75000000e-03	1.06377918e+00	1.17930260e-01
8.00000000e-03	9.70880942e-01	1.04790014e-01
8.25000000e-03	8.26190433e-01	8.57552137e-02
8.50000000e-03	7.42624677e-01	7.47635505e-02
8.75000000e-03	6.64510141e-01	6.64238260e-02
9.00000000e-03	5.94320916e-01	5.74101640e-02
9.25000000e-03	5.32569294e-01	4.93381898e-02
9.50000000e-03	4.77325550e-01	4.35422497e-02
9.75000000e-03	4.34300730e-01	3.88064995e-02
1.00000000e-02	3.94567398e-01	3.46502552e-02
1.02500000e-02	3.59830492e-01	3.17776489e-02
1.05000000e-02	3.31097016e-01	2.74564574e-02
1.07500000e-02	3.02168722e-01	2.49957777e-02
1.10000000e-02	2.79459332e-01	2.22441879e-02
1.12500000e-02	2.59221459e-01	2.11162534e-02
1.15000000e-02	2.37269781e-01	1.85670476e-02
1.17500000e-02	2.16345638e-01	1.64467868e-02
1.20000000e-02	2.04317335e-01	1.53179549e-02
1.22500000e-02	1.94696241e-01	1.45179885e-02
1.25000000e-02	1.79008852e-01	1.33315269e-02
1.27500000e-02	1.66691071e-01	1.20527928e-02
1.30000000e-02	1.58592388e-01	1.12245121e-02
1.32500000e-02	1.47359453e-01	1.02193012e-02
1.35000000e-02	1.37415608e-01	9.39095300e-03
1.37500000e-02	1.30538457e-01	8.84331288e-03
1.40000000e-02	1.22129894e-01	8.23868974e-03
1.42500000e-02	1.14673814e-01	7.55552119e-03
1.45000000e-02	1.09164532e-01	7.10027291e-03
1.47500000e-02	1.08001665e-01	7.01943438e-03
1.50000000e-02	1.00628642e-01	6.42386911e-03
1.52500000e-02	9.18460024e-02	5.76186918e-03
1.55000000e-02	8.89644846e-02	5.41462870e-03
1.57500000e-02	8.59686512e-02	5.26444382e-03
1.60000000e-02	8.08351133e-02	4.82085897e-03
1.62500000e-02	7.89517702e-02	4.77928651e-03
1.65000000e-02	7.33131981e-02	4.29147447e-03
1.67500000e-02	7.20780151e-02	4.20021009e-03
1.70000000e-02	6.75116345e-02	3.86097113e-03
1.72500000e-02	6.64127042e-02	3.76922579e-03
1.75000000e-02	6.30547604e-02	3.57613311e-03
1.77500000e-02	6.03599828e-02	3.32340583e-03
1.80000000e-02	5.93397359e-02	3.32116082e-03
1.82500000e-02	5.84205469e-02	3.17607806e-03
1.85000000e-02	5.53271093e-02	3.04626126e-03
1.87500000e-02	5.31868645e-02	2.86732885e-03
1.90000000e-02	5.15211692e-02	2.73938588e-03
1.92500000e-02	5.08053712e-02	2.69086124e-03
1.95000000e-02	4.95396174e-02	2.55892209e-03
1.97500000e-02	4.72868378e-02	2.48213647e-03
2.00000000e-02	4.63968116e-02	2.38407069e-03
2.02500000e-02	4.38568641e-02	2.24658227e-03
2.05000000e-02	4.50112084e-02	2.26651926e-03
2.07500000e-02	4.38968339e-02	2.18565205e-03
2.10000000e-02	4.18004205e-02	2.10943489e-03
2.12500000e-02	4.17002518e-02	2.11099989e-03
2.15000000e-02	4.02116297e-02	2.00788996e-03
2.17500000e-02	3.98076350e-02	2.00035242e-03
2.20000000e-02	3.93809953e-02	1.99351303e-03
2.22500000e-02	3.87236143e-02	1.93459123e-03
2.25000000e-02	3.78543151e-02	1.89619025e-03
2.27500000e-02	3.70733345e-02	1.86076015e-03
2.30000000e-02	3.57857560e-02	1.80298828e-03
2.32500000e-02	3.72879713e-02	1.84821157e-03
2.35000000e-02	3.48983397e-02	1.76481449e-03
2.37500000e-02	3.54520038e-02	1.75869253e-03
2.40000000e-02	3.48236618e-02	1.73347421e-03
2.42500000e-02	3.37856353e-02	1.66386633e-03
2.45000000e-02	3.38523177e-02	1.68194678e-03
2.47500000e-02	3.30434809e-02	1.63305296e-03
2.50000000e-02	3.30064166e-02	1.63506300e-03
2.52500000e-02	3.13925230e-02	1.55803506e-03
2.55000000e-02	3.26984086e-02	1.58912838e-03
2.57500000e-02	3.10896397e-02	1.51271361e-03
2.60000000e-02	3.10903452e-02	1.50080903e-03
2.62500000e-02	3.04823406e-02	1.49771365e-03
2.65000000e-02	3.02843618e-02	1.46292950e-03
2.67500000e-02	3.00543672e-02	1.45790531e-03
2.70000000e-02	2.96945659e-02	1.44262656e-03
2.72500000e-02	2.89479642e-02	1.39338505e-03
2.75000000e-02	2.96644525e-02	1.44651278e-03
2.77500000e-02	2.93780630e-02	1.42703250e-03
2.80000000e-02	2.87917543e-02	1.37748929e-03
2.82500000e-02	2.83653605e-02	1.35967128e-03
2.85000000e-02	2.77976262e-02	1.31521119e-03
2.87500000e-02	2.95421452e-02	1.41548682e-03
2.90000000e-02	2.93792603e-02	1.38622130e-03
2.92500000e-02	2.90835501e-02	1.34889234e-03
2.95000000e-02	2.86862616e-02	1.35915053e-03
2.97500000e-02	2.68182622e-02	1.26878716e-03
3.00000000e-02	2.76959256e-02	1.31244957e-03
3.02500000e-02	2.77408131e-02	1.31578018e-03
3.05000000e-02	2.79187941e-02	1.28233427e-03
3.07500000e-02	2.68869205e-02	1.25742062e-03
3.10000000e-02	2.75427376e-02	1.28230405e-03
3.12500000e-02	2.75297537e-02	1.30630583e-03
3.15000000e-02	2.69179715e-02	1.24570825e-03
3.17500000e-02	2.68076703e-02	1.22707697e-03
3.20000000e-02	2.76191480e-02	1.28244729e-03
3.22500000e-02	2.63235163e-02	1.21819629e-03
3.25000000e-02	2.57020495e-02	1.19531894e-03
3.27500000e-02	2.60132699e-02	1.19801263e-03
3.30000000e-02	2.61277882e-02	1.18798014e-03
3.32500000e-02	2.54928720e-02	1.16737114e-03
3.35000000e-02	2.55740191e-02	1.17824289e-03
3.37500000e-02	2.53810892e-02	1.16162344e-03
3.40000000e-02	2.47704431e-02	1.13653556e-03
3.42500000e-02	2.46777784e-02	1.11504336e-03
3.45000000e-02	2.55932967e-02	1.17727072e-03
3.47500000e-02	2.56766194e-02	1.15694046e-03
3.50000000e-02	2.45514409e-02	1.11208106e-03
3.52500000e-02	2.48466008e-02	1.12560242e-03
3.55000000e-02	2.43944743e-02	1.08682613e-03
3.57500000e-02	2.47537780e-02	1.12079288e-03
3.60000000e-02	2.53108551e-02	1.14053885e-03
3.62500000e-02	2.43785801e-02	1.09619703e-03
3.65000000e-02	2.40381678e-02	1.07893458e-03
3.67500000e-02	2.32575210e-02	1.03657841e-03
3.70000000e-02	2.41300678e-02	1.07347466e-03
3.72500000e-02	2.41735552e-02	1.07582137e-03
3.75000000e-02	2.41290473e-02	1.07753371e-03
3.77500000e-02	2.41383908e-02	1.06821260e-03
3.80000000e-02	2.36812457e-02	1.04350954e-03
3.82500000e-02	2.28453890e-02	1.00285424e-03
3.85000000e-02	2.34522691e-02	1.04309606e-03
3.87500000e-02	2.32206080e-02	1.01566115e-03
3.90000000e-02	2.37799119e-02	1.04829591e-03
3.92500000e-02	2.32269057e-02	1.00504803e-03
3.95000000e-02	2.35205873e-02	1.03875886e-03
3.97500000e-02	2.29178264e-02	9.95707993e-04
4.00000000e-02	2.37938210e-02	1.03578876e-03
4.02500000e-02	2.35572441e-02	1.02363331e-03
4.05000000e-02	2.37286512e-02	1.02530506e-03
4.07500000e-02	2.33212190e-02	9.95451156e-04
4.10000000e-02	2.33630042e-02	1.01028186e-03
4.12500000e-02	2.25874369e-02	9.72746964e-04
4.15000000e-02	2.29269733e-02	9.81761048e-04
4.17500000e-02	2.29112442e-02	9.83599630e-04
4.20000000e-02	2.33125329e-02	9.84310285e-04
4.22500000e-02	2.30439427e-02	9.82584580e-04
4.25000000e-02	2.30656735e-02	9.79733660e-04
4.27500000e-02	2.29331444e-02	9.63242217e-04
4.30000000e-02	2.23338037e-02	9.32107483e-04
4.32500000e-02	2.24700905e-02	9.45835265e-04
4.35000000e-02	2.29369649e-02	9.78686845e-04
4.37500000e-02	2.24317701e-02	9.30316751e-04
4.40000000e-02	2.25132815e-02	9.50200292e-04
4.42500000e-02	2.24543774e-02	9.44233763e-04
4.45000000e-02	2.24203171e-02	9.36463072e-04
4.47500000e-02	2.29422058e-02	9.51406885e-04
4.50000000e-02	2.29856547e-02	9.46547979e-04
4.52500000e-02	2.25375915e-02	9.35275531e-04
4.55000000e-02	2.16021390e-02	8.96153035e-04
4.57500000e-02	2.22666411e-02	9.11281105e-04
4.60000000e-02	2.17973009e-02	9.02168474e-04
4.62500000e-02	2.23940343e-02	9.25172582e-04
4.65000000e-02	2.20460869e-02	9.09491112e-04
4.67500000e-02	2.26298109e-02	9.20133597e-04
4.70000000e-02	2.31983099e-02	9.44726138e-04
4.72500000e-02	2.17339682e-02	8.87165725e-04
4.75000000e-02	2.19607482e-02	8.98945653e-04
4.77500000e-02	2.26311168e-02	9.11586141e-04
4.80000000e-02	2.22644786e-02	9.02100425e-04
4.82500000e-02	2.12882329e-02	8.62935516e-04
4.85000000e-02	2.18836663e-02	8.94866502e-04
4.87500000e-02	2.21854482e-02	9.00787880e-04
4.90000000e-02	2.16499333e-02	8.67738167e-04
4.92500000e-02	2.09829022e-02	8.44642057e-04
4.95000000e-02	2.15226743e-02	8.65821002e-04
4.97500000e-02	2.16759000e-02	8.74538434e-04
5.00000000e-02	2.08650120e-02	8.41853683e-04
5.02500000e-02	2.16291856e-02	8.57837964e-04
5.05000000e-02	2.16084432e-02	8.56512850e-04
5.07500000e-02	2.08465039e-02	8.37147209e-04
5.10000000e-02	2.16974031e-02	8.58396319e-04
5.12500000e-02	2.18704624e-02	8.64020082e-04
5.15000000e-02	2.15929469e-02	8.43753889e-04
5.17500000e-02	2.13951651e-02	8.41411669e-04
5.20000000e-02	2.22292681e-02	8.69073690e-04
5.22500000e-02	2.24676764e-02	8.91725515e-04
5.25000000e-02	2.14052555e-02	8.36193308e-04
5.27500000e-02	2.18358598e-02	8.48010771e-04
5.30000000e-02	2.12888434e-02	8.36624438e-04
5.32500000e-02	2.12443591e-02	8.29374807e-04
5.35000000e-02	2.17734648e-02	8.54545171e-04
5.37500000e-02	2.15031832e-02	8.29944802e-04
5.40000000e-02	2.11967462e-02	8.25014487e-04
5.42500000e-02	2.07880313e-02	7.98012421e-04
5.45000000e-02	2.14128176e-02	8.27447433e-04
5.47500000e-02	2.10859310e-02	8.12147667e-04
5.50000000e-02	2.08527349e-02	8.02356111e-04
5.52500000e-02	2.14276268e-02	8.20107663e-04
5.55000000e-02	2.05111126e-02	7.78622768e-04
5.57500000e-02	2.18065407e-02	8.35671141e-04
5.60000000e-02	2.10796230e-02	8.09977582e-04
5.62500000e-02	2.11758519e-02	8.08422835e-04
5.65000000e-02	2.14033341e-02	8.16733226e-04
5.67500000e-02	2.14457555e-02	8.18709327e-04
5.70000000e-02	2.14019897e-02	8.17184490e-04
5.72500000e-02	2.16272390e-02	8.17024395e-04
5.75000000e-02	2.12954013e-02	8.15731887e-04
5.77500000e-02	2.13977856e-02	8.00015743e-04
5.80000000e-02	2.07008842e-02	7.85789762e-04
5.82500000e-02	2.13880514e-02	8.01255985e-04
5.85000000e-02	2.09953036e-02	7.81900633e-04
5.87500000e-02	2.14075540e-02	7.95855538e-04
5.90000000e-02	2.13566357e-02	7.89610772e-04
5.92500000e-02	2.12310652e-02	7.93064307e-04
5.95000000e-02	2.10828878e-02	7.92703096e-04
5.97500000e-02	2.06839846e-02	7.72272017e-04
6.00000000e-02	2.10884775e-02	7.79488888e-04
6.02500000e-02	2.16130796e-02	8.02377802e-04
6.05000000e-02	2.12642006e-02	7.90253557e-04
6.07500000e-02	2.03918084e-02	7.57132701e-04
6.10000000e-02	2.03271700e-02	7.53129939e-04
6.12500000e-02	2.05966192e-02	7.65279534e-04
6.15000000e-02	2.04855491e-02	7.49602834e-04
6.17500000e-02	2.06663593e-02	7.63464666e-04
6.20000000e-02	2.01801127e-02	7.39063037e-04
6.22500000e-02	2.10190696e-02	7.70671524e-04
6.25000000e-02	2.05919647e-02	7.59953960e-04
6.27500000e-02	2.10091707e-02	7.65886289e-04
6.30000000e-02	2.05722639e-02	7.52196366e-04
6.32500000e-02	2.11989063e-02	7.71555269e-04
6.35000000e-02	2.09999123e-02	7.65571654e-04
6.37500000e-02	2.04130174e-02	7.41589207e-04
6.40000000e-02	2.04824015e-02	7.44548616e-04
6.42500000e-02	2.10349400e-02	7.58860832e-04
6.45000000e-02	2.03013143e-02	7.32685769e-04
6.47500000e-02	2.08636127e-02	7.51214800e-04
6.50000000e-02	2.05677967e-02	7.43045723e-04
6.52500000e-02	2.05129537e-02	7.35441330e-04
6.55000000e-02	2.06776148e-02	7.48004323e-04
6.57500000e-02	2.06450507e-02	7.34529050e-04
6.60000000e-02	2.01300273e-02	7.23170929e-04
6.62500000e-02	2.06613719e-02	7.38965816e-04
6.65000000e-02	2.07326476e-02	7.33030990e-04
6.67500000e-02	2.06652866e-02	7.31384094e-04
6.70000000e-02	2.13716328e-02	7.64717263e-04
6.72500000e-02	2.09623253e-02	7.46618459e-04
6.75000000e-02	2.09450884e-02	7.35825267e-04
6.77500000e-02	2.12051089e-02	7.50864042e-04
6.80000000e-02	1.99089825e-02	7.10703659e-04
6.82500000e-02	2.01771745e-02	7.18610971e-04
6.85000000e-02	2.00345254e-02	7.07667171e-04
6.87500000e-02	2.08797013e-02	7.34675446e-04
6.90000000e-02	2.04024826e-02	7.17748015e-04
6.92500000e-02	2.03627224e-02	7.14656765e-04
6.95000000e-02	1.97149180e-02	7.04369372e-04
6.97500000e-02	1.98384237e-02	7.02253146e-04
7.00000000e-02	2.03429059e-02	7.07077002e-04
7.02500000e-02	2.08812399e-02	7.24050316e-04
7.05000000e-02	2.07271343e-02	7.20331397e-04
7.07500000e-02	2.03802455e-02	7.14785034e-04
7.10000000e-02	2.06574621e-02	7.11272077e-04
7.12500000e-02	2.05479799e-02	7.10619189e-04
7.15000000e-02	2.01847294e-02	6.97380691e-04
7.17500000e-02	2.06391936e-02	7.17757796e-04
7.20000000e-02	2.06711111e-02	7.19131763e-04
7.22500000e-02	1.95484958e-02	6.76773964e-04
7.25000000e-02	2.05740484e-02	7.06090413e-04
7.27500000e-02	1.99704964e-02	6.87999003e-04
7.30000000e-02	2.00736595e-02	6.91772161e-04
7.32500000e-02	2.03350379e-02	6.93114565e-04
7.35000000e-02	2.07434630e-02	7.13728501e-04
7.37500000e-02	2.06109973e-02	7.01523488e-04
7.40000000e-02	2.03444083e-02	6.95854616e-04
7.42500000e-02	2.01867448e-02	6.89449880e-04
7.45000000e-02	2.01794116e-02	6.91332134e-04
7.47500000e-02	2.03973159e-02	6.93409264e-04
7.50000000e-02	1.98284460e-02	6.74732485e-04
7.52500000e-02	2.02914097e-02	6.90445670e-04
7.55000000e-02	2.03915636e-02	6.84826128e-04
7.57500000e-02	2.03840588e-02	6.87952422e-04
7.60000000e-02	2.09523034e-02	7.10032735e-04
7.62500000e-02	2.01012383e-02	6.83403990e-04
7.65000000e-02	1.98284858e-02	6.68685830e-04
7.67500000e-02	2.00852134e-02	6.77447553e-04
7.70000000e-02	2.10782824e-02	7.04665898e-04
7.72500000e-02	2.08978624e-02	7.09593187e-04
7.75000000e-02	2.00419538e-02	6.92217838e-04
7.77500000e-02	2.03174362e-02	6.99802464e-04
7.80000000e-02	2.00844182e-02	6.99107681e-04
7.82500000e-02	2.02935943e-02	7.13109552e-04
7.85000000e-02	2.03850552e-02	7.17348422e-04
7.87500000e-02	2.06299244e-02	7.20370623e-04
7.90000000e-02	2.08675505e-02	7.38632576e-04
7.92500000e-02	2.01750613e-02	7.15291556e-04
7.95000000e-02	2.01067575e-02	7.11682228e-04
7.97500000e-02	2.06863645e-02	7.41567152e-04
8.00000000e-02	2.05334197e-02	7.32341257e-04
8.02500000e-02	1.98708942e-02	7.13540622e-04
8.05000000e-02	2.03941059e-02	7.30873606e-04
8.07500000e-02	2.06309614e-02	7.38488627e-04
8.10000000e-02	2.00060909e-02	7.20590514e-04
8.12500000e-02	2.01990725e-02	7.30569457e-04
8.15000000e-02	2.03613326e-02	7.32688688e-04
8.17500000e-02	2.00351780e-02	7.34644409e-04
8.20000000e-02	1.96471493e-02	7.16168493e-04
8.22500000e-02	1.99199668e-02	7.27967022e-04
8.25000000e-02	2.05060498e-02	7.42451244e-04
8.27500000e-02	2.02028479e-02	7.34994027e-04
8.30000000e-02	1.97988401e-02	7.26677579e-04
8.32500000e-02	2.01241560e-02	7.38466160e-04
8.35000000e-02	2.00909279e-02	7.42159082e-04
8.37500000e-02	1.96467874e-02	7.19605732e-04
8.40000000e-02	1.96121993e-02	7.23682002e-04
8.42500000e-02	2.05527304e-02	7.53492202e-04
8.45000000e-02	1.96742153e-02	7.32557884e-04
8.47500000e-02	2.01839237e-02	7.47562356e-04
8.50000000e-02	2.00613841e-02	7.35020805e-04
8.52500000e-02	1.94980273e-02	7.28446717e-04
8.55000000e-02	2.04781857e-02	7.52001399e-04
8.57500000e-02	2.04370691e-02	7.62500394e-04
8.60000000e-02	1.96071383e-02	7.34159448e-04
8.62500000e-02	1.98042022e-02	7.25388380e-04
8.65000000e-02	2.00321593e-02	7.45952542e-04
8.67500000e-02	2.02070556e-02	7.45198104e-04
8.70000000e-02	1.97680045e-02	7.17794057e-04
8.72500000e-02	2.04843054e-02	7.27283627e-04
8.75000000e-02	2.04213833e-02	7.20484592e-04
8.77500000e-02	2.03352679e-02	7.08276619e-04
8.80000000e-02	1.97076016e-02	6.96784515e-04
8.82500000e-02	1.98595206e-02	6.98430489e-04
8.85000000e-02	2.00536798e-02	7.00889048e-04
8.87500000e-02	2.03723676e-02	7.00083030e-04
8.90000000e-02	2.01730240e-02	6.99805941e-04
8.92500000e-02	2.00231599e-02	6.88285936e-04
8.95000000e-02	2.08165786e-02	7.09617801e-04
8.97500000e-02	1.98347105e-02	6.74672081e-04
9.00000000e-02	1.99211882e-02	6.73227168e-04
9.02500000e-02	2.02147823e-02	6.80173660e-04
9.05000000e-02	1.99444955e-02	6.74056144e-04
9.07500000e-02	2.03554655e-02	6.83005347e-04
9.10000000e-02	1.99642584e-02	6.70816695e-04
9.12500000e-02	1.91481653e-02	6.43064176e-04
9.15000000e-02	1.89342977e-02	6.41302610e-04
9.17500000e-02	2.01657830e-02	6.79058071e-04
9.20000000e-02	2.01302902e-02	6.69208829e-04
9.22500000e-02	2.01851397e-02	6.69905123e-04
9.25000000e-02	1.97994253e-02	6.54970775e-04
9.27500000e-02	2.01876414e-02	6.66097621e-04
9.30000000e-02	1.99558897e-02	6.60058102e-04
9.32500000e-02	2.02004557e-02	6.67095950e-04
9.35000000e-02	2.00828026e-02	6.54955306e-04
9.37500000e-02	2.01369217e-02	6.61614688e-04
9.40000000e-02	1.98944429e-02	6.56942711e-04
9.42500000e-02	1.99442362e-02	6.51458737e-04
9.45000000e-02	2.00199944e-02	6.51329828e-04
9.47500000e-02	1.98510952e-02	6.51179496e-04
9.50000000e-02	1.97208020e-02	6.42838321e-04
9.52500000e-02	1.97880246e-02	6.41205487e-04
9.55000000e-02	2.01086547e-02	6.49055585e-04
9.57500000e-02	2.00303345e-02	6.56507994e-04
9.60000000e-02	2.03391112e-02	6.58445323e-04
9.62500000e-02	1.98836036e-02	6.40740168e-04
9.65000000e-02	1.93524912e-02	6.27467162e-04
9.67500000e-02	1.93351757e-02	6.21002273e-04
9.70000000e-02	2.00836452e-02	6.47807317e-04
9.72500000e-02	1.92924468e-02	6.17097586e-04
9.75000000e-02	1.99197857e-02	6.39234928e-04
9.77500000e-02	1.98858960e-02	6.33074970e-04
9.80000000e-02	1.98703481e-02	6.39874106e-04
9.82500000e-02	1.98138316e-02	6.29331376e-04
9.85000000e-02	1.99700520e-02	6.34960779e-04
9.87500000e-02	1.98499322e-02	6.30424159e-04
9.90000000e-02	1.95909682e-02	6.22144231e-04
9.92500000e-02	1.97460524e-02	6.30074349e-04
9.95000000e-02	1.94101077e-02	6.15970648e-04
9.97500000e-02	2.00434095e-02	6.30429102e-04
1.00000000e-01	1.97567051e-02	5.07715826e-04
1.00500000e-01	1.97708960e-02	4.41393411e-04
1.01000000e-01	1.96263785e-02	4.35805150e-04
1.01500000e-01	1.96242720e-02	4.34955641e-04
1.02000000e-01	1.99433686e-02	4.39158709e-04
1.02500000e-01	1.96284342e-02	4.31158011e-04
1.03000000e-01	1.99026248e-02	4.37605707e-04
1.03500000e-01	1.96334616e-02	4.28992801e-04
1.04000000e-01	1.96929074e-02	4.28310647e-04
1.04500000e-01	2.00457040e-02	4.32616254e-04
1.05000000e-01	1.98283672e-02	4.27430343e-04
1.05500000e-01	1.98950262e-02	4.28065065e-04
1.06000000e-01	1.98634069e-02	4.28640695e-04
1.06500000e-01	2.01430421e-02	4.32790001e-04
1.07000000e-01	1.95218280e-02	4.27171803e-04
1.07500000e-01	1.98134438e-02	4.38629604e-04
1.08000000e-01	1.98232316e-02	4.44790715e-04
1.08500000e-01	1.99257122e-02	4.49696300e-04
1.09000000e-01	1.95898950e-02	4.45569635e-04
1.09500000e-01	1.96222550e-02	4.46188585e-04
1.10000000e-01	2.02744165e-02	4.55497944e-04
1.10500000e-01	1.95770468e-02	4.30589339e-04
1.11000000e-01	1.98124788e-02	4.30071725e-04
1.11500000e-01	1.96211509e-02	4.21786630e-04
1.12000000e-01	1.98364459e-02	4.22208320e-04
1.12500000e-01	1.97544299e-02	4.18306413e-04
1.13000000e-01	1.99465664e-02	4.24124612e-04
1.13500000e-01	1.95859292e-02	4.11434688e-04
1.14000000e-01	1.97036502e-02	4.15185383e-04
1.14500000e-01	1.93818609e-02	4.06237092e-04
1.15000000e-01	1.97313916e-02	4.13291483e-04
1.15500000e-01	1.97382261e-02	4.13308213e-04
1.16000000e-01	1.96585748e-02	4.08570540e-04
1.16500000e-01	1.96099597e-02	4.07560511e-04
1.17000000e-01	2.00535373e-02	4.14578542e-04
1.17500000e-01	2.01662639e-02	4.14333396e-04
1.18000000e-01	1.94423003e-02	4.01468625e-04
1.18500000e-01	1.97816188e-02	4.07578804e-04
1.19000000e-01	1.97069401e-02	4.02106431e-04
1.19500000e-01	1.98035100e-02	4.05469433e-04
1.20000000e-01	1.96579031e-02	4.00213558e-04
1.20500000e-01	1.98626864e-02	4.04215166e-04
1.21000000e-01	1.96542742e-02	3.99419651e-04
1.21500000e-01	1.95068605e-02	3.95835598e-04
1.22000000e-01	2.00169591e-02	4.02525893e-04
1.22500000e-01	1.98960192e-02	4.00281339e-04
1.23000000e-01	1.96942697e-02	3.95458923e-04
1.23500000e-01	1.99161597e-02	3.97525385e-04
1.24000000e-01	1.95263345e-02	3.92423107e-04
1.24500000e-01	1.94309272e-02	3.86685740e-04
1.25000000e-01	1.98211033e-02	3.93422059e-04
1.25500000e-01	1.98259073e-02	3.95066058e-04
1.26000000e-01	1.98493984e-02	3.91009886e-04
1.26500000e-01	1.97174443e-02	3.89868710e-04
1.27000000e-01	1.95173364e-02	3.87250416e-04
1.27500000e-01	1.95152990e-02	3.84715211e-04
1.28000000e-01	1.98693289e-02	3.90577977e-04
1.28500000e-01	1.95425608e-02	3.85658429e-04
1.29000000e-01	1.97519429e-02	3.86706326e-04
1.29500000e-01	1.97462864e-02	3.86249401e-04
1.30000000e-01	1.98251496e-02	3.85879525e-04
1.30500000e-01	1.96361602e-02	3.82339062e-04
1.31000000e-01	1.96894344e-02	3.84100080e-04
1.31500000e-01	1.95793782e-02	3.79144706e-04
1.32000000e-01	1.96460023e-02	3.81695294e-04
1.32500000e-01	1.97003706e-02	3.78531305e-04
1.33000000e-01	1.97434361e-02	3.80228411e-04
1.33500000e-01	1.95333870e-02	3.74179528e-04
1.34000000e-01	1.94639460e-02	3.73378996e-04
1.34500000e-01	1.99798246e-02	3.79870448e-04
1.35000000e-01	1.97558747e-02	3.75745974e-04
1.35500000e-01	1.97005156e-02	3.75631375e-04
1.36000000e-01	1.96365637e-02	3.70633661e-04
1.36500000e-01	1.94850490e-02	3.70405105e-04
1.37000000e-01	1.95296775e-02	3.68666396e-04
1.37500000e-01	1.94840708e-02	3.66123055e-04
1.38000000e-01	1.99658365e-02	3.76431071e-04
1.38500000e-01	1.96330728e-02	3.71319301e-04
1.39000000e-01	1.95387199e-02	3.67693977e-04
1.39500000e-01	1.94920974e-02	3.66619932e-04
1.40000000e-01	1.94936585e-02	3.66356871e-04
1.40500000e-01	1.96129320e-02	3.67186913e-04
1.41000000e-01	1.94751234e-02	3.64583347e-04
1.41500000e-01	1.94020562e-02	3.64473084e-04
1.42000000e-01	1.96750859e-02	3.67446152e-04
1.42500000e-01	1.97227134e-02	3.68223663e-04
1.43000000e-01	1.94153072e-02	3.61540359e-04
1.43500000e-01	1.95686703e-02	3.61960193e-04
1.44000000e-01	1.94671068e-02	3.61363055e-04
1.44500000e-01	1.97012224e-02	3.62916675e-04
1.45000000e-01	1.95341687e-02	3.61317516e-04
1.45500000e-01	1.92121392e-02	3.55813799e-04
1.46000000e-01	1.96955675e-02	3.62870124e-04
1.46500000e-01	1.93915194e-02	3.55563119e-04
1.47000000e-01	1.94216248e-02	3.57864581e-04
1.47500000e-01	1.94889063e-02	3.57413957e-04
1.48000000e-01	1.96220503e-02	3.59689017e-04
1.48500000e-01	1.93419341e-02	3.54986605e-04
1.49000000e-01	1.95612700e-02	3.55890124e-04
1.49500000e-01	1.96468095e-02	3.57078941e-04
1.50000000e-01	1.96792292e-02	3.57929579e-04
1.50500000e-01	1.95408058e-02	3.55806300e-04
1.51000000e-01	1.92868839e-02	3.51226209e-04
1.51500000e-01	1.94828754e-02	3.51213763e-04
1.52000000e-01	1.89522925e-02	3.40343243e-04
1.52500000e-01	1.92099823e-02	3.46315514e-04
1.53000000e-01	1.92407158e-02	3.46866921e-04
1.53500000e-01	1.94283877e-02	3.47647193e-04
1.54000000e-01	1.92010795e-02	3.43728449e-04
1.54500000e-01	1.91579747e-02	3.49091557e-04
1.55000000e-01	1.93651360e-02	3.58913246e-04
1.55500000e-01	1.91700159e-02	3.57096995e-04
1.56000000e-01	1.92749624e-02	3.60968840e-04
1.56500000e-01	1.93750190e-02	3.63268691e-04
1.57000000e-01	1.94071258e-02	3.64030404e-04
1.57500000e-01	1.92550821e-02	3.54572442e-04
1.58000000e-01	1.91880637e-02	3.48747347e-04
1.58500000e-01	1.90921962e-02	3.44038413e-04
1.59000000e-01	1.91229514e-02	3.41579087e-04
1.59500000e-01	1.92490258e-02	3.45650473e-04
1.60000000e-01	1.90654859e-02	3.40675597e-04
1.60500000e-01	1.89772280e-02	3.37710054e-04
1.61000000e-01	1.91983865e-02	3.41483681e-04
1.61500000e-01	1.93018381e-02	3.40984266e-04
1.62000000e-01	1.92133132e-02	3.40766080e-04
1.62500000e-01	1.89065423e-02	3.33907977e-04
1.63000000e-01	1.88445155e-02	3.32484316e-04
1.63500000e-01	1.89787351e-02	3.36730533e-04
1.64000000e-01	1.89607769e-02	3.33000987e-04
1.64500000e-01	1.92013701e-02	3.35733220e-04
1.65000000e-01	1.91619018e-02	3.35805021e-04
1.65500000e-01	1.90117450e-02	3.34201341e-04
1.66000000e-01	1.89988041e-02	3.33910156e-04
1.66500000e-01	1.91627525e-02	3.34329052e-04
1.67000000e-01	1.89063139e-02	3.29658613e-04
1.67500000e-01	1.90698397e-02	3.30904912e-04
1.68000000e-01	1.86891624e-02	3.24248913e-04
1.68500000e-01	1.88757619e-02	3.26845689e-04
1.69000000e-01	1.90084574e-02	3.30242941e-04
1.69500000e-01	1.89252918e-02	3.27159863e-04
1.70000000e-01	1.91403578e-02	3.29764449e-04
1.70500000e-01	1.90319114e-02	3.27873460e-04
1.71000000e-01	1.89311546e-02	3.24895855e-04
1.71500000e-01	1.87044916e-02	3.20642801e-04
1.72000000e-01	1.88023767e-02	3.22709073e-04
1.72500000e-01	1.88347890e-02	3.22603663e-04
1.73000000e-01	1.88321868e-02	3.23791223e-04
1.73500000e-01	1.87664468e-02	3.19834264e-04
1.74000000e-01	1.88713885e-02	3.21105856e-04
1.74500000e-01	1.89007463e-02	3.19887039e-04
1.75000000e-01	1.89808969e-02	3.20839252e-04
1.75500000e-01	1.86978487e-02	3.15700846e-04
1.76000000e-01	1.86394648e-02	3.14733277e-04
1.76500000e-01	1.86982304e-02	3.15687239e-04
1.77000000e-01	1.88938058e-02	3.17087393e-04
1.77500000e-01	1.87921559e-02	3.16749902e-04
1.78000000e-01	1.86709962e-02	3.13322779e-04
1.78500000e-01	1.88082963e-02	3.17240947e-04
1.79000000e-01	1.89023894e-02	3.15789630e-04
1.79500000e-01	1.88503879e-02	3.15490091e-04
1.80000000e-01	1.88372226e-02	3.17061883e-04
1.80500000e-01	1.86764696e-02	3.12875940e-04
1.81000000e-01	1.88407976e-02	3.15568334e-04
1.81500000e-01	1.85545355e-02	3.09793483e-04
1.82000000e-01	1.86299890e-02	3.09585396e-04
1.82500000e-01	1.89333401e-02	3.15128605e-04
1.83000000e-01	1.86477089e-02	3.12270998e-04
1.83500000e-01	1.85407349e-02	3.08477990e-04
1.84000000e-01	1.84765623e-02	3.07696566e-04
1.84500000e-01	1.84718756e-02	3.05811701e-04
1.85000000e-01	1.88686992e-02	3.11650104e-04
1.85500000e-01	1.86206922e-02	3.08168737e-04
1.86000000e-01	1.84657532e-02	3.05259092e-04
1.86500000e-01	1.84789824e-02	3.05368505e-04
1.87000000e-01	1.85948724e-02	3.05338931e-04
1.87500000e-01	1.83178547e-02	3.01564180e-04
1.88000000e-01	1.87848614e-02	3.07307607e-04
1.88500000e-01	1.83762900e-02	3.00732855e-04
1.89000000e-01	1.84108330e-02	3.01358300e-04
1.89500000e-01	1.83917679e-02	3.01981740e-04
1.90000000e-01	1.85763226e-02	3.04300816e-04
1.90500000e-01	1.84371686e-02	3.00582205e-04
1.91000000e-01	1.85743508e-02	3.02031355e-04
1.91500000e-01	1.88336919e-02	3.05841789e-04
1.92000000e-01	1.85431099e-02	3.00816833e-04
1.92500000e-01	1.85859514e-02	3.01999612e-04
1.93000000e-01	1.84221110e-02	2.99514278e-04
1.93500000e-01	1.84732115e-02	2.99491983e-04
1.94000000e-01	1.84267390e-02	2.98158669e-04
1.94500000e-01	1.84832583e-02	2.99079073e-04
1.95000000e-01	1.84998967e-02	2.98890993e-04
1.95500000e-01	1.83388064e-02	2.95113619e-04
1.96000000e-01	1.85154743e-02	2.97676856e-04
1.96500000e-01	1.83550466e-02	2.94880052e-04
1.97000000e-01	1.83444706e-02	2.94963991e-04
1.97500000e-01	1.84626700e-02	2.95150748e-04
1.98000000e-01	1.81610825e-02	2.91366628e-04
1.98500000e-01	1.84091870e-02	2.94572666e-04
1.99000000e-01	1.87685290e-02	2.99427785e-04
1.99500000e-01	1.82054000e-02	2.90277013e-04
2.00000000e-01	1.83637900e-02	2.93090452e-04
2.00500000e-01	1.83085220e-02	2.91868950e-04
2.01000000e-01	1.81892084e-02	2.89222484e-04
2.01500000e-01	1.80988394e-02	2.88220866e-04
2.02000000e-01	1.81563127e-02	2.88889706e-04
2.02500000e-01	1.82019271e-02	2.87738253e-04
2.03000000e-01	1.82539645e-02	2.89192074e-04
2.03500000e-01	1.83795040e-02	2.90343373e-04
2.04000000e-01	1.82022552e-02	2.88294995e-04
2.04500000e-01	1.83830254e-02	2.90292036e-04
2.05000000e-01	1.83651123e-02	2.87989228e-04
2.05500000e-01	1.83742798e-02	2.89229509e-04
2.06000000e-01	1.81260620e-02	2.84647233e-04
2.06500000e-01	1.79878915e-02	2.82960338e-04
2.07000000e-01	1.81296979e-02	2.83843129e-04
2.07500000e-01	1.80351271e-02	2.83903638e-04
2.08000000e-01	1.82468974e-02	2.85620803e-04
2.08500000e-01	1.78862222e-02	2.80051326e-04
2.09000000e-01	1.83189018e-02	2.85886447e-04
2.09500000e-01	1.80152796e-02	2.81631915e-04
2.10000000e-01	1.79506994e-02	2.80569281e-04
2.10500000e-01	1.80855513e-02	2.81336809e-04
2.11000000e-01	1.79523248e-02	2.78444593e-04
2.11500000e-01	1.79479006e-02	2.79169784e-04
2.12000000e-01	1.80949909e-02	2.81519250e-04
2.12500000e-01	1.80196413e-02	2.79153759e-04
2.13000000e-01	1.80390757e-02	2.78246895e-04
2.13500000e-01	1.79099900e-02	2.77704905e-04
2.14000000e-01	1.82178506e-02	2.81848376e-04
2.14500000e-01	1.82755185e-02	2.79830583e-04
2.15000000e-01	1.82569729e-02	2.81838062e-04
2.15500000e-01	1.83115754e-02	2.81198564e-04
2.16000000e-01	1.78813903e-02	2.74304033e-04
2.16500000e-01	1.81863082e-02	2.79478791e-04
2.17000000e-01	1.81843855e-02	2.82175545e-04
2.17500000e-01	1.80532283e-02	2.85939669e-04
2.18000000e-01	1.80246438e-02	2.84789044e-04
2.18500000e-01	1.79398876e-02	2.85307774e-04
2.19000000e-01	1.79311066e-02	2.87617375e-04
2.19500000e-01	1.79225395e-02	2.87328803e-04
2.20000000e-01	1.78342910e-02	2.88989540e-04
2.20500000e-01	1.79481958e-02	2.89378995e-04
2.21000000e-01	1.80336827e-02	2.92081116e-04
2.21500000e-01	1.79111424e-02	2.91803400e-04
2.22000000e-01	1.78966476e-02	2.91964175e-04
2.22500000e-01	1.79604184e-02	2.94061579e-04
2.23000000e-01	1.77337000e-02	2.91143734e-04
2.23500000e-01	1.80098873e-02	2.95097059e-04
2.24000000e-01	1.79203337e-02	2.94563357e-04
2.24500000e-01	1.80366602e-02	2.97366528e-04
2.25000000e-01	1.77521933e-02	2.94358477e-04
2.25500000e-01	1.79984576e-02	2.98213345e-04
2.26000000e-01	1.79318896e-02	2.98056767e-04
2.26500000e-01	1.78302179e-02	2.90881974e-04
2.27000000e-01	1.78695218e-02	2.89244070e-04
2.27500000e-01	1.80867504e-02	2.89866067e-04
2.28000000e-01	1.79003083e-02	2.85810272e-04
2.28500000e-01	1.78736721e-02	2.83388260e-04
2.29000000e-01	1.76943383e-02	2.79575692e-04
2.29500000e-01	1.78443840e-02	2.81913691e-04
2.30000000e-01	1.77233000e-02	2.79002139e-04
2.30500000e-01	1.78033884e-02	2.77513496e-04
2.31000000e-01	1.76661925e-02	2.76781411e-04
2.31500000e-01	1.78268406e-02	2.77464245e-04
2.32000000e-01	1.78710456e-02	2.77968237e-04
2.32500000e-01	1.77265291e-02	2.74269965e-04
2.33000000e-01	1.77641627e-02	2.75644674e-04
2.33500000e-01	1.76892435e-02	2.72945080e-04
2.34000000e-01	1.77536752e-02	2.73796336e-04
2.34500000e-01	1.76894810e-02	2.72528429e-04
2.35000000e-01	1.76405081e-02	2.70301608e-04
2.35500000e-01	1.78720306e-02	2.73651613e-04
2.36000000e-01	1.77822592e-02	2.72445735e-04
2.36500000e-01	1.76075425e-02	2.69481844e-04
2.37000000e-01	1.75533248e-02	2.67071411e-04
2.37500000e-01	1.76909361e-02	2.69987006e-04
2.38000000e-01	1.77155337e-02	2.69170028e-04
2.38500000e-01	1.79458668e-02	2.72592221e-04
2.39000000e-01	1.76610702e-02	2.67404621e-04
2.39500000e-01	1.76184032e-02	2.66505792e-04
2.40000000e-01	1.78193688e-02	2.70192412e-04
2.40500000e-01	1.77256996e-02	2.66098591e-04
2.41000000e-01	1.76718317e-02	2.65480421e-04
2.41500000e-01	1.74386103e-02	2.61623963e-04
2.42000000e-01	1.73735329e-02	2.61308901e-04
2.42500000e-01	1.76313755e-02	2.63574625e-04
2.43000000e-01	1.75981155e-02	2.64134795e-04
2.43500000e-01	1.74739888e-02	2.61004347e-04
2.44000000e-01	1.76341814e-02	2.62145559e-04
2.44500000e-01	1.77149145e-02	2.63283411e-04
2.45000000e-01	1.74744205e-02	2.60096775e-04
2.45500000e-01	1.75500795e-02	2.60491754e-04
2.46000000e-01	1.76497729e-02	2.63104606e-04
2.46500000e-01	1.75604765e-02	2.60106143e-04
2.47000000e-01	1.76217328e-02	2.61380096e-04
2.47500000e-01	1.75110899e-02	2.58572108e-04
2.48000000e-01	1.75953926e-02	2.60574939e-04
2.48500000e-01	1.75649085e-02	2.58852214e-04
2.49000000e-01	1.73280114e-02	2.55723606e-04
2.49500000e-01	1.75743103e-02	2.58589755e-04
2.50000000e-01	1.75564195e-02	2.57681373e-04
2.50500000e-01	1.73305461e-02	2.55234186e-04
2.51000000e-01	1.74146525e-02	2.54753164e-04
2.51500000e-01	1.74974332e-02	2.55579562e-04
2.52000000e-01	1.74374000e-02	2.55744054e-04
2.52500000e-01	1.73809857e-02	2.54232561e-04
2.53000000e-01	1.72539491e-02	2.52761107e-04
2.53500000e-01	1.73252699e-02	2.52807021e-04
2.54000000e-01	1.74164909e-02	2.55055194e-04
2.54500000e-01	1.73782504e-02	2.52975706e-04
2.55000000e-01	1.75076500e-02	2.54500724e-04
2.55500000e-01	1.73609212e-02	2.52426440e-04
2.56000000e-01	1.73737843e-02	2.52390939e-04
2.56500000e-01	1.73055383e-02	2.50829068e-04
2.57000000e-01	1.74255077e-02	2.51401619e-04
2.57500000e-01	1.73964716e-02	2.51599093e-04
2.58000000e-01	1.73492851e-02	2.51400136e-04
2.58500000e-01	1.73008078e-02	2.51155348e-04
2.59000000e-01	1.75966338e-02	2.53219983e-04
2.59500000e-01	1.74032967e-02	2.50174435e-04
2.60000000e-01	1.72628551e-02	2.47471958e-04
2.60500000e-01	1.74007358e-02	2.50493142e-04
2.61000000e-01	1.72050433e-02	2.46875800e-04
2.61500000e-01	1.74181362e-02	2.49636901e-04
2.62000000e-01	1.72441776e-02	2.46421341e-04
2.62500000e-01	1.74996664e-02	2.50533241e-04
2.63000000e-01	1.73755394e-02	2.48923736e-04
2.63500000e-01	1.70593870e-02	2.44453265e-04
2.64000000e-01	1.73478538e-02	2.47601047e-04
2.64500000e-01	1.73085683e-02	2.46858101e-04
2.65000000e-01	1.72891123e-02	2.46100337e-04
2.65500000e-01	1.72200137e-02	2.44721641e-04
2.66000000e-01	1.74228854e-02	2.47810575e-04
2.66500000e-01	1.73316048e-02	2.45409790e-04
2.67000000e-01	1.73985259e-02	2.45427204e-04
2.67500000e-01	1.72246480e-02	2.43021601e-04
2.68000000e-01	1.71704556e-02	2.42416269e-04
2.68500000e-01	1.70180401e-02	2.40005893e-04
2.69000000e-01	1.71645214e-02	2.41895986e-04
2.69500000e-01	1.70734720e-02	2.41036836e-04
2.70000000e-01	1.70985439e-02	2.41127298e-04
2.70500000e-01	1.73208624e-02	2.43260526e-04
2.71000000e-01	1.73290800e-02	2.43585381e-04
2.71500000e-01	1.71173683e-02	2.41192690e-04
2.72000000e-01	1.72816923e-02	2.42027078e-04
2.72500000e-01	1.70570589e-02	2.39678398e-04
2.73000000e-01	1.71498857e-02	2.39439053e-04
2.73500000e-01	1.70854992e-02	2.39052784e-04
2.74000000e-01	1.70161181e-02	2.38669305e-04
2.74500000e-01	1.72784565e-02	2.40404139e-04
2.75000000e-01	1.69752196e-02	2.37271975e-04
2.75500000e-01	1.70814911e-02	2.38286016e-04
2.76000000e-01	1.69705851e-02	2.37376748e-04
2.76500000e-01	1.71150567e-02	2.38661957e-04
2.77000000e-01	1.71981558e-02	2.39302502e-04
2.77500000e-01	1.70608506e-02	2.37596873e-04
2.78000000e-01	1.70043774e-02	2.36361964e-04
2.78500000e-01	1.69862602e-02	2.35474408e-04
2.79000000e-01	1.69265344e-02	2.35433226e-04
2.79500000e-01	1.70960592e-02	2.37327283e-04
2.80000000e-01	1.70796443e-02	2.35427489e-04
2.80500000e-01	1.70990324e-02	2.35457168e-04
2.81000000e-01	1.72261682e-02	2.37730708e-04
2.81500000e-01	1.69834927e-02	2.35283448e-04
2.82000000e-01	1.70335503e-02	2.34929394e-04
2.82500000e-01	1.70677513e-02	2.35121663e-04
2.83000000e-01	1.70773676e-02	2.34857257e-04
2.83500000e-01	1.71565225e-02	2.35848578e-04
2.84000000e-01	1.70963736e-02	2.34902209e-04
2.84500000e-01	1.69651055e-02	2.32542350e-04
2.85000000e-01	1.68311900e-02	2.31194404e-04
2.85500000e-01	1.68468223e-02	2.30663172e-04
2.86000000e-01	1.69966777e-02	2.33381930e-04
2.86500000e-01	1.68988997e-02	2.31274537e-04
2.87000000e-01	1.70218251e-02	2.32616361e-04
2.87500000e-01	1.71200949e-02	2.33405478e-04
2.88000000e-01	1.67748100e-02	2.28359493e-04
2.88500000e-01	1.70044604e-02	2.31328951e-04
2.89000000e-01	1.69756107e-02	2.30580421e-04
2.89500000e-01	1.70325981e-02	2.31439037e-04
2.90000000e-01	1.69797675e-02	2.30984802e-04
2.90500000e-01	1.70466842e-02	2.32049270e-04
2.91000000e-01	1.67841197e-02	2.26992090e-04
2.91500000e-01	1.67610263e-02	2.27086068e-04
2.92000000e-01	1.69206483e-02	2.28924252e-04
2.92500000e-01	1.68681984e-02	2.27145533e-04
2.93000000e-01	1.67006212e-02	2.26023555e-04
2.93500000e-01	1.69287830e-02	2.28473638e-04
2.94000000e-01	1.66299443e-02	2.25157426e-04
2.94500000e-01	1.70302271e-02	2.29256214e-04
2.95000000e-01	1.69635064e-02	2.28529414e-04
2.95500000e-01	1.67374071e-02	2.26000814e-04
2.96000000e-01	1.67358077e-02	2.25404635e-04
2.96500000e-01	1.66334200e-02	2.23818849e-04
2.97000000e-01	1.68492680e-02	2.26511399e-04
2.97500000e-01	1.67144702e-02	2.23869623e-04
2.98000000e-01	1.68236283e-02	2.25795937e-04
2.98500000e-01	1.67029634e-02	2.23029971e-04
2.99000000e-01	1.69488689e-02	2.26025988e-04
2.99500000e-01	1.68539242e-02	2.25304937e-04
3.00000000e-01	1.68430678e-02	2.24774126e-04
3.00500000e-01	1.66704662e-02	2.23513027e-04
3.01000000e-01	1.66094101e-02	2.21898271e-04
3.01500000e-01	1.67236497e-02	2.22975178e-04
3.02000000e-01	1.66118928e-02	2.20483781e-04
3.02500000e-01	1.67562156e-02	2.22292911e-04
3.03000000e-01	1.66111208e-02	2.20260704e-04
3.03500000e-01	1.67775218e-02	2.21772447e-04
3.04000000e-01	1.68102810e-02	2.22538298e-04
3.04500000e-01	1.67174712e-02	2.21413436e-04
3.05000000e-01	1.68236217e-02	2.23057785e-04
3.05500000e-01	1.68193914e-02	2.22781579e-04
3.06000000e-01	1.67632921e-02	2.20241792e-04
3.06500000e-01	1.65685768e-02	2.18852676e-04
3.07000000e-01	1.67802131e-02	2.21151108e-04
3.07500000e-01	1.67137347e-02	2.20670759e-04
3.08000000e-01	1.66527489e-02	2.19893539e-04
3.08500000e-01	1.65979297e-02	2.18310028e-04
3.09000000e-01	1.67351352e-02	2.20047997e-04
3.09500000e-01	1.64330790e-02	2.16233027e-04
3.10000000e-01	1.66206665e-02	2.19014611e-04
3.10500000e-01	1.64617697e-02	2.15984433e-04
3.11000000e-01	1.64064457e-02	2.15872839e-04
3.11500000e-01	1.64868909e-02	2.16043782e-04
3.12000000e-01	1.67365971e-02	2.19040457e-04
3.12500000e-01	1.65059986e-02	2.16490950e-04
3.13000000e-01	1.65499762e-02	2.16434995e-04
3.13500000e-01	1.66910557e-02	2.18025136e-04
3.14000000e-01	1.65233858e-02	2.15723318e-04
3.14500000e-01	1.65865446e-02	2.15649865e-04
3.15000000e-01	1.63208700e-02	2.13060731e-04
3.15500000e-01	1.66097603e-02	2.16541792e-04
3.16000000e-01	1.65076525e-02	2.15369786e-04
3.16500000e-01	1.66786485e-02	2.16019096e-04
3.17000000e-01	1.62565227e-02	2.11655036e-04
3.17500000e-01	1.64840152e-02	2.15327850e-04
3.18000000e-01	1.62678356e-02	2.10242750e-04
3.18500000e-01	1.64965735e-02	2.14422726e-04
3.19000000e-01	1.65995794e-02	2.14445383e-04
3.19500000e-01	1.63545989e-02	2.12117617e-04
3.20000000e-01	1.62672958e-02	2.10185496e-04
3.20500000e-01	1.64878719e-02	2.13020253e-04
3.21000000e-01	1.63016418e-02	2.10515431e-04
3.21500000e-01	1.65155824e-02	2.13695109e-04
3.22000000e-01	1.63587501e-02	2.11114966e-04
3.22500000e-01	1.63299542e-02	2.10239880e-04
3.23000000e-01	1.63680022e-02	2.10709449e-04
3.23500000e-01	1.62678767e-02	2.10086565e-04
3.24000000e-01	1.62765801e-02	2.08828336e-04
3.24500000e-01	1.61204837e-02	2.08361264e-04
3.25000000e-01	1.63538275e-02	2.09223600e-04
3.25500000e-01	1.63146744e-02	2.09592640e-04
3.26000000e-01	1.62879242e-02	2.08947146e-04
3.26500000e-01	1.62038414e-02	2.07725884e-04
3.27000000e-01	1.62509027e-02	2.08222204e-04
3.27500000e-01	1.62492123e-02	2.08338884e-04
3.28000000e-01	1.63786360e-02	2.09590695e-04
3.28500000e-01	1.61634316e-02	2.07084992e-04
3.29000000e-01	1.62944364e-02	2.08097388e-04
3.29500000e-01	1.64026249e-02	2.09428982e-04
3.30000000e-01	1.62608549e-02	2.07181388e-04
3.30500000e-01	1.62798253e-02	2.07781626e-04
3.31000000e-01	1.61759601e-02	2.06050631e-04
3.31500000e-01	1.61154698e-02	2.04799687e-04
3.32000000e-01	1.61033384e-02	2.04869458e-04
3.32500000e-01	1.62562399e-02	2.06396734e-04
3.33000000e-01	1.63421094e-02	2.06257195e-04
3.33500000e-01	1.60535120e-02	2.03398458e-04
3.34000000e-01	1.62381275e-02	2.06282918e-04
3.34500000e-01	1.59869889e-02	2.02380100e-04
3.35000000e-01	1.62630894e-02	2.05338556e-04
3.35500000e-01	1.63607369e-02	2.06997848e-04
3.36000000e-01	1.61560862e-02	2.03764943e-04
3.36500000e-01	1.61845605e-02	2.04803956e-04
3.37000000e-01	1.60030767e-02	2.01861888e-04
3.37500000e-01	1.59850612e-02	2.01786541e-04
3.38000000e-01	1.59272193e-02	2.01788030e-04
3.38500000e-01	1.60544073e-02	2.02543150e-04
3.39000000e-01	1.60065523e-02	2.01724750e-04
3.39500000e-01	1.58721479e-02	1.99293855e-04
3.40000000e-01	1.59263860e-02	2.00299598e-04
3.40500000e-01	1.61122853e-02	2.02670193e-04
3.41000000e-01	1.61621483e-02	2.02514863e-04
3.41500000e-01	1.60346700e-02	2.01696138e-04
3.42000000e-01	1.59988974e-02	2.00633809e-04
3.42500000e-01	1.60014381e-02	2.00859714e-04
3.43000000e-01	1.59984837e-02	2.00176094e-04
3.43500000e-01	1.59638470e-02	1.99305434e-04
3.44000000e-01	1.59294712e-02	1.99831671e-04
3.44500000e-01	1.58763912e-02	1.98637207e-04
3.45000000e-01	1.59043902e-02	1.99450679e-04
3.45500000e-01	1.60047477e-02	1.99559555e-04
3.46000000e-01	1.60846814e-02	2.00815747e-04
3.46500000e-01	1.60050073e-02	1.99266892e-04
3.47000000e-01	1.59842498e-02	1.98688813e-04
3.47500000e-01	1.57341907e-02	1.95911134e-04
3.48000000e-01	1.57579650e-02	1.96630093e-04
3.48500000e-01	1.59980207e-02	1.99068264e-04
3.49000000e-01	1.59005263e-02	1.97554427e-04
3.49500000e-01	1.58168986e-02	1.96718364e-04
3.50000000e-01	1.58085267e-02	1.60382341e-04
3.51000000e-01	1.58084865e-02	1.38497925e-04
3.52000000e-01	1.58924471e-02	1.39222817e-04
3.53000000e-01	1.58408061e-02	1.38185648e-04
3.54000000e-01	1.57980277e-02	1.37590065e-04
3.55000000e-01	1.57337949e-02	1.37137132e-04
3.56000000e-01	1.57512930e-02	1.37679975e-04
3.57000000e-01	1.58189674e-02	1.40693672e-04
3.58000000e-01	1.57145546e-02	1.40848948e-04
3.59000000e-01	1.57313933e-02	1.42419376e-04
3.60000000e-01	1.56514854e-02	1.42718529e-04
3.61000000e-01	1.57421987e-02	1.44105312e-04
3.62000000e-01	1.55346862e-02	1.42955810e-04
3.63000000e-01	1.55868427e-02	1.43465688e-04
3.64000000e-01	1.56169515e-02	1.44860133e-04
3.65000000e-01	1.56290747e-02	1.45432295e-04
3.66000000e-01	1.54409035e-02	1.42152671e-04
3.67000000e-01	1.55703629e-02	1.40408769e-04
3.68000000e-01	1.55092948e-02	1.39404596e-04
3.69000000e-01	1.56458180e-02	1.39856904e-04
3.70000000e-01	1.54507380e-02	1.37444595e-04
3.71000000e-01	1.55445709e-02	1.39580642e-04
3.72000000e-01	1.56114499e-02	1.41445784e-04
3.73000000e-01	1.55093851e-02	1.40906725e-04
3.74000000e-01	1.54695576e-02	1.40405255e-04
3.75000000e-01	1.55005464e-02	1.40957221e-04
3.76000000e-01	1.54994677e-02	1.41084789e-04
3.77000000e-01	1.55436466e-02	1.41186187e-04
3.78000000e-01	1.54124534e-02	1.40176896e-04
3.79000000e-01	1.54439112e-02	1.40243868e-04
3.80000000e-01	1.54214725e-02	1.40099519e-04
3.81000000e-01	1.54905170e-02	1.40299181e-04
3.82000000e-01	1.54666775e-02	1.40409740e-04
3.83000000e-01	1.53223478e-02	1.39010631e-04
3.84000000e-01	1.52878526e-02	1.39225147e-04
3.85000000e-01	1.54053382e-02	1.39950363e-04
3.86000000e-01	1.52360950e-02	1.38534054e-04
3.87000000e-01	1.54073614e-02	1.39862385e-04
3.88000000e-01	1.52169309e-02	1.37943146e-04
3.89000000e-01	1.53665394e-02	1.39217000e-04
3.90000000e-01	1.53219969e-02	1.38806064e-04
3.91000000e-01	1.53071937e-02	1.38682785e-04
3.92000000e-01	1.51907288e-02	1.37418280e-04
3.93000000e-01	1.52570330e-02	1.38373609e-04
3.94000000e-01	1.51649335e-02	1.37402982e-04
3.95000000e-01	1.53050200e-02	1.38097970e-04
3.96000000e-01	1.53099114e-02	1.38595257e-04
3.97000000e-01	1.52438158e-02	1.38197581e-04
3.98000000e-01	1.52405426e-02	1.38010312e-04
3.99000000e-01	1.51994460e-02	1.37808960e-04
4.00000000e-01	1.51703491e-02	1.37419655e-04
4.01000000e-01	1.51653354e-02	1.37141180e-04
4.02000000e-01	1.49960101e-02	1.36014075e-04
4.03000000e-01	1.50737430e-02	1.36555738e-04
4.04000000e-01	1.50679416e-02	1.36540381e-04
4.05000000e-01	1.51254551e-02	1.36908480e-04
4.06000000e-01	1.50340360e-02	1.35767114e-04
4.07000000e-01	1.49999832e-02	1.35964332e-04
4.08000000e-01	1.50113334e-02	1.35867362e-04
4.09000000e-01	1.50754097e-02	1.35822223e-04
4.10000000e-01	1.50031471e-02	1.35727296e-04
4.11000000e-01	1.48972450e-02	1.34766694e-04
4.12000000e-01	1.49874577e-02	1.35885237e-04
4.13000000e-01	1.49444948e-02	1.34445827e-04
4.14000000e-01	1.49162799e-02	1.34833742e-04
4.15000000e-01	1.49431924e-02	1.34557348e-04
4.16000000e-01	1.49986102e-02	1.35359475e-04
4.17000000e-01	1.49266859e-02	1.34295327e-04
4.18000000e-01	1.50161715e-02	1.37242404e-04
4.19000000e-01	1.49453131e-02	1.37949858e-04
4.20000000e-01	1.49334710e-02	1.38492709e-04
4.21000000e-01	1.50543175e-02	1.40202426e-04
4.22000000e-01	1.50619801e-02	1.40241174e-04
4.23000000e-01	1.50757618e-02	1.41072314e-04
4.24000000e-01	1.51380226e-02	1.42411357e-04
4.25000000e-01	1.49910481e-02	1.41158440e-04
4.26000000e-01	1.49491237e-02	1.40833334e-04
4.27000000e-01	1.49399460e-02	1.40675889e-04
4.28000000e-01	1.49240129e-02	1.41011438e-04
4.29000000e-01	1.50125397e-02	1.42191355e-04
4.30000000e-01	1.49868590e-02	1.41184931e-04
4.31000000e-01	1.49929665e-02	1.41197196e-04
4.32000000e-01	1.49994842e-02	1.41595899e-04
4.33000000e-01	1.49771811e-02	1.41155456e-04
4.34000000e-01	1.49943875e-02	1.41786926e-04
4.35000000e-01	1.48773878e-02	1.40796759e-04
4.36000000e-01	1.47844238e-02	1.40537375e-04
4.37000000e-01	1.48281956e-02	1.40845214e-04
4.38000000e-01	1.47730114e-02	1.40710843e-04
4.39000000e-01	1.46201357e-02	1.39496054e-04
4.40000000e-01	1.47515361e-02	1.40768032e-04
4.41000000e-01	1.47872963e-02	1.41156254e-04
4.42000000e-01	1.48000428e-02	1.41884927e-04
4.43000000e-01	1.48587581e-02	1.42351509e-04
4.44000000e-01	1.48188825e-02	1.41939514e-04
4.45000000e-01	1.48137512e-02	1.42098260e-04
4.46000000e-01	1.46768952e-02	1.40720547e-04
4.47000000e-01	1.46281918e-02	1.40843130e-04
4.48000000e-01	1.46288118e-02	1.40785737e-04
4.49000000e-01	1.47762231e-02	1.42783785e-04
4.50000000e-01	1.46178467e-02	1.41037574e-04
4.51000000e-01	1.46828000e-02	1.41716111e-04
4.52000000e-01	1.46388568e-02	1.41665641e-04
4.53000000e-01	1.47414930e-02	1.42995451e-04
4.54000000e-01	1.47893237e-02	1.43050010e-04
4.55000000e-01	1.46797601e-02	1.42397996e-04
4.56000000e-01	1.45929901e-02	1.41703755e-04
4.57000000e-01	1.45295705e-02	1.41267367e-04
4.58000000e-01	1.45752792e-02	1.41927365e-04
4.59000000e-01	1.46691393e-02	1.42515564e-04
4.60000000e-01	1.46303823e-02	1.42530626e-04
4.61000000e-01	1.46211392e-02	1.42712483e-04
4.62000000e-01	1.46606200e-02	1.43094720e-04
4.63000000e-01	1.45763592e-02	1.42028573e-04
4.64000000e-01	1.45560708e-02	1.42341914e-04
4.65000000e-01	1.45695959e-02	1.42219649e-04
4.66000000e-01	1.46584330e-02	1.43295818e-04
4.67000000e-01	1.45116038e-02	1.41753678e-04
4.68000000e-01	1.45047251e-02	1.41897715e-04
4.69000000e-01	1.46899988e-02	1.43896827e-04
4.70000000e-01	1.44578656e-02	1.41894570e-04
4.71000000e-01	1.45004118e-02	1.41943435e-04
4.72000000e-01	1.45313048e-02	1.42114244e-04
4.73000000e-01	1.44355700e-02	1.41689334e-04
4.74000000e-01	1.44191481e-02	1.41413707e-04
4.75000000e-01	1.44327767e-02	1.40903253e-04
4.76000000e-01	1.42645874e-02	1.39624619e-04
4.77000000e-01	1.44146065e-02	1.41876530e-04
4.78000000e-01	1.45747388e-02	1.43029855e-04
4.79000000e-01	1.44812291e-02	1.42385570e-04
4.80000000e-01	1.42793312e-02	1.40273675e-04
4.81000000e-01	1.44402061e-02	1.41807116e-04
4.82000000e-01	1.44551005e-02	1.42130013e-04
4.83000000e-01	1.44262558e-02	1.42202531e-04
4.84000000e-01	1.44861597e-02	1.42612219e-04
4.85000000e-01	1.43804015e-02	1.41500396e-04
4.86000000e-01	1.44039215e-02	1.41711652e-04
4.87000000e-01	1.42804355e-02	1.40578756e-04
4.88000000e-01	1.43334212e-02	1.41511146e-04
4.89000000e-01	1.43590293e-02	1.41428970e-04
4.90000000e-01	1.43711884e-02	1.41658660e-04
4.91000000e-01	1.43280270e-02	1.41549591e-04
4.92000000e-01	1.42240477e-02	1.40595168e-04
4.93000000e-01	1.43967140e-02	1.42238432e-04
4.94000000e-01	1.42520782e-02	1.41003445e-04
4.95000000e-01	1.43705754e-02	1.43063103e-04
4.96000000e-01	1.42010484e-02	1.45778314e-04
4.97000000e-01	1.44607047e-02	1.50648487e-04
4.98000000e-01	1.41777590e-02	1.49543956e-04
4.99000000e-01	1.43541365e-02	1.53731798e-04
5.00000000e-01	1.43531203e-02	1.54881647e-04
5.01000000e-01	1.43556767e-02	1.57015322e-04
5.02000000e-01	1.42879417e-02	1.57518070e-04
5.03000000e-01	1.44286233e-02	1.60806810e-04
5.04000000e-01	1.43511327e-02	1.61244465e-04
5.05000000e-01	1.42941631e-02	1.57978093e-04
5.06000000e-01	1.43322949e-02	1.55015532e-04
5.07000000e-01	1.42667260e-02	1.53153573e-04
5.08000000e-01	1.40416554e-02	1.50010947e-04
5.09000000e-01	1.42443714e-02	1.50925040e-04
5.10000000e-01	1.43621190e-02	1.51480020e-04
5.11000000e-01	1.42427307e-02	1.49977458e-04
5.12000000e-01	1.42817195e-02	1.50228282e-04
5.13000000e-01	1.42173253e-02	1.49192921e-04
5.14000000e-01	1.42551640e-02	1.49307711e-04
5.15000000e-01	1.41738069e-02	1.48174821e-04
5.16000000e-01	1.40885079e-02	1.46800171e-04
5.17000000e-01	1.40625573e-02	1.46826848e-04
5.18000000e-01	1.40491681e-02	1.46277249e-04
5.19000000e-01	1.40116895e-02	1.45430467e-04
5.20000000e-01	1.42097877e-02	1.46859927e-04
5.21000000e-01	1.40652563e-02	1.45230972e-04
5.22000000e-01	1.40119925e-02	1.44759637e-04
5.23000000e-01	1.41391835e-02	1.45944547e-04
5.24000000e-01	1.39089542e-02	1.43909219e-04
5.25000000e-01	1.40422084e-02	1.44728371e-04
5.26000000e-01	1.41069739e-02	1.45415982e-04
5.27000000e-01	1.39928485e-02	1.44581380e-04
5.28000000e-01	1.39503004e-02	1.44357393e-04
5.29000000e-01	1.40149180e-02	1.44748851e-04
5.30000000e-01	1.39955702e-02	1.44097792e-04
5.31000000e-01	1.40802400e-02	1.45082648e-04
5.32000000e-01	1.39221060e-02	1.43982778e-04
5.33000000e-01	1.39411758e-02	1.43868322e-04
5.34000000e-01	1.39969152e-02	1.44596219e-04
5.35000000e-01	1.39016497e-02	1.43263123e-04
5.36000000e-01	1.38624631e-02	1.43199576e-04
5.37000000e-01	1.40569361e-02	1.45062908e-04
5.38000000e-01	1.38960632e-02	1.43217975e-04
5.39000000e-01	1.38751225e-02	1.43650404e-04
5.40000000e-01	1.39971703e-02	1.44185614e-04
5.41000000e-01	1.37504337e-02	1.42184821e-04
5.42000000e-01	1.38857087e-02	1.43142166e-04
5.43000000e-01	1.37631923e-02	1.42317616e-04
5.44000000e-01	1.38065351e-02	1.42302106e-04
5.45000000e-01	1.39071046e-02	1.43867862e-04
5.46000000e-01	1.38065589e-02	1.42320623e-04
5.47000000e-01	1.38406772e-02	1.42548080e-04
5.48000000e-01	1.37503846e-02	1.41869716e-04
5.49000000e-01	1.38231641e-02	1.42456489e-04
5.50000000e-01	1.37367376e-02	1.41903035e-04
5.51000000e-01	1.37285828e-02	1.41107128e-04
5.52000000e-01	1.37780055e-02	1.41905082e-04
5.53000000e-01	1.38139916e-02	1.41806169e-04
5.54000000e-01	1.36241748e-02	1.40327945e-04
5.55000000e-01	1.37097394e-02	1.41053184e-04
5.56000000e-01	1.37610080e-02	1.41012236e-04
5.57000000e-01	1.38304698e-02	1.41889216e-04
5.58000000e-01	1.35564386e-02	1.39255080e-04
5.59000000e-01	1.36473074e-02	1.40597443e-04
5.60000000e-01	1.37015882e-02	1.40982530e-04
5.61000000e-01	1.36769418e-02	1.40566713e-04
5.62000000e-01	1.36301442e-02	1.40032883e-04
5.63000000e-01	1.36454615e-02	1.40323232e-04
5.64000000e-01	1.36395783e-02	1.40242664e-04
5.65000000e-01	1.35147591e-02	1.39375448e-04
5.66000000e-01	1.36061901e-02	1.39725726e-04
5.67000000e-01	1.37261974e-02	1.41102270e-04
5.68000000e-01	1.36411571e-02	1.39997131e-04
5.69000000e-01	1.35563020e-02	1.39105372e-04
5.70000000e-01	1.35697475e-02	1.39487848e-04
5.71000000e-01	1.35257535e-02	1.39185745e-04
5.72000000e-01	1.36330053e-02	1.39756223e-04
5.73000000e-01	1.35542238e-02	1.39780623e-04
5.74000000e-01	1.35596619e-02	1.39075323e-04
5.75000000e-01	1.34004866e-02	1.37822942e-04
5.76000000e-01	1.33945900e-02	1.37667690e-04
5.77000000e-01	1.34669548e-02	1.38176414e-04
5.78000000e-01	1.34431129e-02	1.38649339e-04
5.79000000e-01	1.34819470e-02	1.38333835e-04
5.80000000e-01	1.34891521e-02	1.38908072e-04
5.81000000e-01	1.33463119e-02	1.37436898e-04
5.82000000e-01	1.33808753e-02	1.37992098e-04
5.83000000e-01	1.34202877e-02	1.38523631e-04
5.84000000e-01	1.33972020e-02	1.37738785e-04
5.85000000e-01	1.33435631e-02	1.38086005e-04
5.86000000e-01	1.34557056e-02	1.38945965e-04
5.87000000e-01	1.32065790e-02	1.36241181e-04
5.88000000e-01	1.34531840e-02	1.38308134e-04
5.89000000e-01	1.32198825e-02	1.36772685e-04
5.90000000e-01	1.33006575e-02	1.36939295e-04
5.91000000e-01	1.32517936e-02	1.37364089e-04
5.92000000e-01	1.34351854e-02	1.38567484e-04
5.93000000e-01	1.33534176e-02	1.37600295e-04
5.94000000e-01	1.34065610e-02	1.38208826e-04
5.95000000e-01	1.33584956e-02	1.38013221e-04
5.96000000e-01	1.32342996e-02	1.37522216e-04
5.97000000e-01	1.33316443e-02	1.37594791e-04
5.98000000e-01	1.33146935e-02	1.37591179e-04
5.99000000e-01	1.33029913e-02	1.37608426e-04
6.00000000e-01	1.32597346e-02	1.37539930e-04
6.01000000e-01	1.32026568e-02	1.36859647e-04
6.02000000e-01	1.31313517e-02	1.35938402e-04
6.03000000e-01	1.31974986e-02	1.37096997e-04
6.04000000e-01	1.31856577e-02	1.36421306e-04
6.05000000e-01	1.34079314e-02	1.38389351e-04
6.06000000e-01	1.32700249e-02	1.37173502e-04
6.07000000e-01	1.31772129e-02	1.36749407e-04
6.08000000e-01	1.31417355e-02	1.36070598e-04
6.09000000e-01	1.30820953e-02	1.35604278e-04
6.10000000e-01	1.30897292e-02	1.35795395e-04
6.11000000e-01	1.32158787e-02	1.36996508e-04
6.12000000e-01	1.30495908e-02	1.35504123e-04
6.13000000e-01	1.31103729e-02	1.36310892e-04
6.14000000e-01	1.33113956e-02	1.37735372e-04
6.15000000e-01	1.32677233e-02	1.37923720e-04
6.16000000e-01	1.31236091e-02	1.35691465e-04
6.17000000e-01	1.29664568e-02	1.34463417e-04
6.18000000e-01	1.31604049e-02	1.36211193e-04
6.19000000e-01	1.30461908e-02	1.35036600e-04
6.20000000e-01	1.31251992e-02	1.35648478e-04
6.21000000e-01	1.30943493e-02	1.35304454e-04
6.22000000e-01	1.30148839e-02	1.34684726e-04
6.23000000e-01	1.32216096e-02	1.36118580e-04
6.24000000e-01	1.29355725e-02	1.33489002e-04
6.25000000e-01	1.30626536e-02	1.34932234e-04
6.26000000e-01	1.30214736e-02	1.33733178e-04
6.27000000e-01	1.29632783e-02	1.33670791e-04
6.28000000e-01	1.30537995e-02	1.34208171e-04
6.29000000e-01	1.30598872e-02	1.34616550e-04
6.30000000e-01	1.30670781e-02	1.34566731e-04
6.31000000e-01	1.31063967e-02	1.34949505e-04
6.32000000e-01	1.30198734e-02	1.34201142e-04
6.33000000e-01	1.30347034e-02	1.34085326e-04
6.34000000e-01	1.29758707e-02	1.36909274e-04
6.35000000e-01	1.31917727e-02	1.43178120e-04
6.36000000e-01	1.30912414e-02	1.45048576e-04
6.37000000e-01	1.30809269e-02	1.46875732e-04
6.38000000e-01	1.30179469e-02	1.48583143e-04
6.39000000e-01	1.30189757e-02	1.50281740e-04
6.40000000e-01	1.30432211e-02	1.52504247e-04
6.41000000e-01	1.30978523e-02	1.54802909e-04
6.42000000e-01	1.30503955e-02	1.55698012e-04
6.43000000e-01	1.29773815e-02	1.55637419e-04
6.44000000e-01	1.30446381e-02	1.50552516e-04
6.45000000e-01	1.29738994e-02	1.47036960e-04
6.46000000e-01	1.31993668e-02	1.48223497e-04
6.47000000e-01	1.29559047e-02	1.44647294e-04
6.48000000e-01	1.30018091e-02	1.43746085e-04
6.49000000e-01	1.30095911e-02	1.43057674e-04
6.50000000e-01	1.31028943e-02	1.43441625e-04
6.51000000e-01	1.29857961e-02	1.41969148e-04
6.52000000e-01	1.30743428e-02	1.42245978e-04
6.53000000e-01	1.31475594e-02	1.42349493e-04
6.54000000e-01	1.30472802e-02	1.41015585e-04
6.55000000e-01	1.30060663e-02	1.40317910e-04
6.56000000e-01	1.29092096e-02	1.39309363e-04
6.57000000e-01	1.28899870e-02	1.38737314e-04
6.58000000e-01	1.28842984e-02	1.38396362e-04
6.59000000e-01	1.29349921e-02	1.38838248e-04
6.60000000e-01	1.30187578e-02	1.40019645e-04
6.61000000e-01	1.29077801e-02	1.38257975e-04
6.62000000e-01	1.28864315e-02	1.38189644e-04
6.63000000e-01	1.27790011e-02	1.37339726e-04
6.64000000e-01	1.29617520e-02	1.38556067e-04
6.65000000e-01	1.28587738e-02	1.37933090e-04
6.66000000e-01	1.28545432e-02	1.37692928e-04
6.67000000e-01	1.28859296e-02	1.37642796e-04
6.68000000e-01	1.28353004e-02	1.37014178e-04
6.69000000e-01	1.29481982e-02	1.38563537e-04
6.70000000e-01	1.29285265e-02	1.38159511e-04
6.71000000e-01	1.30237025e-02	1.39245515e-04
6.72000000e-01	1.27244403e-02	1.36178675e-04
6.73000000e-01	1.26330529e-02	1.35067783e-04
6.74000000e-01	1.28188018e-02	1.37225215e-04
6.75000000e-01	1.28239987e-02	1.37095999e-04
6.76000000e-01	1.29229806e-02	1.37556169e-04
6.77000000e-01	1.28572556e-02	1.36791698e-04
6.78000000e-01	1.25980920e-02	1.34678955e-04
6.79000000e-01	1.27734867e-02	1.36362510e-04
6.80000000e-01	1.27458671e-02	1.35829348e-04
6.81000000e-01	1.28720686e-02	1.36798613e-04
6.82000000e-01	1.27509648e-02	1.35702008e-04
6.83000000e-01	1.28379372e-02	1.36965676e-04
6.84000000e-01	1.27825458e-02	1.36163054e-04
6.85000000e-01	1.27842907e-02	1.35979624e-04
6.86000000e-01	1.26236610e-02	1.34849156e-04
6.87000000e-01	1.26630111e-02	1.34956525e-04
6.88000000e-01	1.26490584e-02	1.35006452e-04
6.89000000e-01	1.26314222e-02	1.34384841e-04
6.90000000e-01	1.26105867e-02	1.34386836e-04
6.91000000e-01	1.24957397e-02	1.33171259e-04
6.92000000e-01	1.27643027e-02	1.35599599e-04
6.93000000e-01	1.28101192e-02	1.36222925e-04
6.94000000e-01	1.27594736e-02	1.35775236e-04
6.95000000e-01	1.28684918e-02	1.36400251e-04
6.96000000e-01	1.27397634e-02	1.35452413e-04
6.97000000e-01	1.27418007e-02	1.35647002e-04
6.98000000e-01	1.27305550e-02	1.35280230e-04
6.99000000e-01	1.27645309e-02	1.35516474e-04
7.00000000e-01	1.26934238e-02	1.35251871e-04
7.01000000e-01	1.25825829e-02	1.34037534e-04
7.02000000e-01	1.26566104e-02	1.34839941e-04
7.03000000e-01	1.25484767e-02	1.33152474e-04
7.04000000e-01	1.25008848e-02	1.33284081e-04
7.05000000e-01	1.25274115e-02	1.33303761e-04
7.06000000e-01	1.26399571e-02	1.34403538e-04
7.07000000e-01	1.26154659e-02	1.33953671e-04
7.08000000e-01	1.25335229e-02	1.32645420e-04
7.09000000e-01	1.26972794e-02	1.34499826e-04
7.10000000e-01	1.23496816e-02	1.31211857e-04
7.11000000e-01	1.25456375e-02	1.33388824e-04
7.12000000e-01	1.23955571e-02	1.31836089e-04
7.13000000e-01	1.25507542e-02	1.33581409e-04
7.14000000e-01	1.24470856e-02	1.32583190e-04
7.15000000e-01	1.23502250e-02	1.31956301e-04
7.16000000e-01	1.24066744e-02	1.31825259e-04
7.17000000e-01	1.25464231e-02	1.33527701e-04
7.18000000e-01	1.23911982e-02	1.32309585e-04
7.19000000e-01	1.22803030e-02	1.30651704e-04
7.20000000e-01	1.23583041e-02	1.31628869e-04
7.21000000e-01	1.22583012e-02	1.30772642e-04
7.22000000e-01	1.23113313e-02	1.31365699e-04
7.23000000e-01	1.22972958e-02	1.31084103e-04
7.24000000e-01	1.23439069e-02	1.31490769e-04
7.25000000e-01	1.22985944e-02	1.30709725e-04
7.26000000e-01	1.23147054e-02	1.31223378e-04
7.27000000e-01	1.22048567e-02	1.29997407e-04
7.28000000e-01	1.22024498e-02	1.30071448e-04
7.29000000e-01	1.22909202e-02	1.30917397e-04
7.30000000e-01	1.22229884e-02	1.30683286e-04
7.31000000e-01	1.23397892e-02	1.31175304e-04
7.32000000e-01	1.21922308e-02	1.29828223e-04
7.33000000e-01	1.23297754e-02	1.30869923e-04
7.34000000e-01	1.21531101e-02	1.29497697e-04
7.35000000e-01	1.22707196e-02	1.30788195e-04
7.36000000e-01	1.22704498e-02	1.30165988e-04
7.37000000e-01	1.22612785e-02	1.30313396e-04
7.38000000e-01	1.21205906e-02	1.28032205e-04
7.39000000e-01	1.21002826e-02	1.28468019e-04
7.40000000e-01	1.20861300e-02	1.28013594e-04
7.41000000e-01	1.21737024e-02	1.28287576e-04
7.42000000e-01	1.21110862e-02	1.27716896e-04
7.43000000e-01	1.21206770e-02	1.27932976e-04
7.44000000e-01	1.21668723e-02	1.28554481e-04
7.45000000e-01	1.21241723e-02	1.28411080e-04
7.46000000e-01	1.24142444e-02	1.30825215e-04
7.47000000e-01	1.21233816e-02	1.27845797e-04
7.48000000e-01	1.21336958e-02	1.27861888e-04
7.49000000e-01	1.22091224e-02	1.28607616e-04
7.50000000e-01	1.20491913e-02	1.27148140e-04
7.51000000e-01	1.21332663e-02	1.28170700e-04
7.52000000e-01	1.20870948e-02	1.27395267e-04
7.53000000e-01	1.21122913e-02	1.27661327e-04
7.54000000e-01	1.21076521e-02	1.27831160e-04
7.55000000e-01	1.20263586e-02	1.27302643e-04
7.56000000e-01	1.20085191e-02	1.26595274e-04
7.57000000e-01	1.19515495e-02	1.26186171e-04
7.58000000e-01	1.20046873e-02	1.26702462e-04
7.59000000e-01	1.20491153e-02	1.26700404e-04
7.60000000e-01	1.18795350e-02	1.25163307e-04
7.61000000e-01	1.19850158e-02	1.26350669e-04
7.62000000e-01	1.19310331e-02	1.25405235e-04
7.63000000e-01	1.18514293e-02	1.24172819e-04
7.64000000e-01	1.19148553e-02	1.25368230e-04
7.65000000e-01	1.20258507e-02	1.25914447e-04
7.66000000e-01	1.19842515e-02	1.25537477e-04
7.67000000e-01	1.18410907e-02	1.24167708e-04
7.68000000e-01	1.19053890e-02	1.24309593e-04
7.69000000e-01	1.18373602e-02	1.24016188e-04
7.70000000e-01	1.20123515e-02	1.26027776e-04
7.71000000e-01	1.18058922e-02	1.23814910e-04
7.72000000e-01	1.19325738e-02	1.28299813e-04
7.73000000e-01	1.18883025e-02	1.32432710e-04
7.74000000e-01	1.19005029e-02	1.34733157e-04
7.75000000e-01	1.17162377e-02	1.35853841e-04
7.76000000e-01	1.18063956e-02	1.38499673e-04
7.77000000e-01	1.16944626e-02	1.39664915e-04
7.78000000e-01	1.18153431e-02	1.42714163e-04
7.79000000e-01	1.16864509e-02	1.43124859e-04
7.80000000e-01	1.18116256e-02	1.46041612e-04
7.81000000e-01	1.17743303e-02	1.47509953e-04
7.82000000e-01	1.18206105e-02	1.49692038e-04
7.83000000e-01	1.17711434e-02	1.50338021e-04
7.84000000e-01	1.17976948e-02	1.53092614e-04
7.85000000e-01	1.17023199e-02	1.52998894e-04
7.86000000e-01	1.15497558e-02	1.53390307e-04
7.87000000e-01	1.15320837e-02	1.53799088e-04
7.88000000e-01	1.17368506e-02	1.58373589e-04
7.89000000e-01	1.17566184e-02	1.59097731e-04
7.90000000e-01	1.16768970e-02	1.60589082e-04
7.91000000e-01	1.16440784e-02	1.61189349e-04
7.92000000e-01	1.15138683e-02	1.61528623e-04
7.93000000e-01	1.14832943e-02	1.62323014e-04
7.94000000e-01	1.15697620e-02	1.65603880e-04
7.95000000e-01	1.13599919e-02	1.64533380e-04
7.96000000e-01	1.14142018e-02	1.67931945e-04
7.97000000e-01	1.16267036e-02	1.71369277e-04
7.98000000e-01	1.16011272e-02	1.72464393e-04
7.99000000e-01	1.15437636e-02	1.73748693e-04
8.00000000e-01	1.15360278e-02	1.75500242e-04
8.01000000e-01	1.13515417e-02	1.74820878e-04
8.02000000e-01	1.15678536e-02	1.78215776e-04
8.03000000e-01	1.15004336e-02	1.80506837e-04
8.04000000e-01	1.14506016e-02	1.81536816e-04
8.05000000e-01	1.13845918e-02	1.82702576e-04
8.06000000e-01	1.13795459e-02	1.84471524e-04
8.07000000e-01	1.14213248e-02	1.87531565e-04
8.08000000e-01	1.13825423e-02	1.88176928e-04
8.09000000e-01	1.13618075e-02	1.89978850e-04
8.10000000e-01	1.14742348e-02	1.93572027e-04
8.11000000e-01	1.13407992e-02	1.94180453e-04
8.12000000e-01	1.12628811e-02	1.94600741e-04
8.13000000e-01	1.12625519e-02	1.98094622e-04
8.14000000e-01	1.13078266e-02	2.02421972e-04
8.15000000e-01	1.13838562e-02	2.04062606e-04
8.16000000e-01	1.14480000e-02	2.07754236e-04
8.17000000e-01	1.13307623e-02	2.07074779e-04
8.18000000e-01	1.12453555e-02	2.10994209e-04
8.19000000e-01	1.12640387e-02	2.12322256e-04
8.20000000e-01	1.14233589e-02	2.19179216e-04
8.21000000e-01	1.13760628e-02	2.19027495e-04
8.22000000e-01	1.14664888e-02	2.24045475e-04
8.23000000e-01	1.12173902e-02	2.23604931e-04
8.24000000e-01	1.09427451e-02	2.21934840e-04
8.25000000e-01	1.09929330e-02	2.24944576e-04
8.26000000e-01	1.10529561e-02	2.31452188e-04
8.27000000e-01	1.10846227e-02	2.34372034e-04
8.28000000e-01	1.10755232e-02	2.36904137e-04
8.29000000e-01	1.10720832e-02	2.40437380e-04
8.30000000e-01	1.11635323e-02	2.45882907e-04
8.31000000e-01	1.10249406e-02	2.47905248e-04
8.32000000e-01	1.10532635e-02	2.51849845e-04
8.33000000e-01	1.08407386e-02	2.52219458e-04
8.34000000e-01	1.08331579e-02	2.57472623e-04
8.35000000e-01	1.11634606e-02	2.66801465e-04
8.36000000e-01	1.08416809e-02	2.64857161e-04
8.37000000e-01	1.06947564e-02	2.69741979e-04
8.38000000e-01	1.09144490e-02	2.77863239e-04
8.39000000e-01	1.09546334e-02	2.87406060e-04
8.40000000e-01	1.12069048e-02	2.96283837e-04
8.41000000e-01	1.09636184e-02	2.96656427e-04
8.42000000e-01	1.11867806e-02	3.10032359e-04
8.43000000e-01	1.08890091e-02	3.10478556e-04
8.44000000e-01	1.09171728e-02	3.19962467e-04
8.45000000e-01	1.07849979e-02	3.25137097e-04
8.46000000e-01	1.08956310e-02	3.35658568e-04
8.47000000e-01	1.10907223e-02	3.49347656e-04
8.48000000e-01	1.06600666e-02	3.48363330e-04
8.49000000e-01	1.07869985e-02	3.65519657e-04
8.50000000e-01	1.08163691e-02	3.78505193e-04
8.51000000e-01	1.12368532e-02	4.00694294e-04
8.52000000e-01	1.05447231e-02	3.93312176e-04
8.53000000e-01	1.11135350e-02	4.31991882e-04
8.54000000e-01	1.08261761e-02	4.43219257e-04
8.55000000e-01	1.06490491e-02	4.54309752e-04
8.56000000e-01	1.08129104e-02	4.67301235e-04
8.57000000e-01	1.02974252e-02	4.64179306e-04
8.58000000e-01	1.04978578e-02	4.91543449e-04
8.59000000e-01	1.06451982e-02	5.07056711e-04
8.60000000e-01	1.03038136e-02	5.07633026e-04
8.61000000e-01	1.06175091e-02	5.30713848e-04
8.62000000e-01	1.03283339e-02	5.46548273e-04
8.63000000e-01	1.07277875e-02	5.91452753e-04
8.64000000e-01	1.09512826e-02	6.28006981e-04
8.65000000e-01	1.08395664e-02	6.37606975e-04
8.66000000e-01	1.04187475e-02	6.61923490e-04
8.67000000e-01	1.04829997e-02	6.94043832e-04
8.68000000e-01	9.50812893e-03	6.88575916e-04
8.69000000e-01	1.08065877e-02	8.41725047e-04
8.70000000e-01	1.04003376e-02	8.69365500e-04
8.71000000e-01	1.04589908e-02	9.59047276e-04
8.72000000e-01	1.17650896e-02	1.18476368e-03
8.73000000e-01	1.12309525e-02	1.32303883e-03
8.74000000e-01	1.12910060e-02	1.85815871e-03
8.75000000e-01	7.62177979e-03	2.61020934e-03
