% Filename : SEC8_00040_00017.h5
% Date & Time : 30-Oct-2025 17:52:01
% X-ray Energy (keV) : 13.30001
% Exposure Time (s) : 0.500
% Beam Center : 1461.24000, 208.98300
% Sample to Detector Distance (SDD) (mm) : 1990.750
% Detector Pixel Size (mm) : 0.075
% Photodiode Value : 141276.000
% I0 of Sample : 0
% I0 of Standard : 1
% 
% q(A^-1)   I(q)    I(q)_SE
0.00000000e+00	1.40670687e-02	7.12019579e-03
2.50000000e-04	0.00000000e+00	0.00000000e+00
5.00000000e-04	0.00000000e+00	0.00000000e+00
7.50000000e-04	0.00000000e+00	0.00000000e+00
1.00000000e-03	0.00000000e+00	0.00000000e+00
1.25000000e-03	0.00000000e+00	0.00000000e+00
1.50000000e-03	0.00000000e+00	0.00000000e+00
1.75000000e-03	0.00000000e+00	0.00000000e+00
2.00000000e-03	0.00000000e+00	0.00000000e+00
2.25000000e-03	0.00000000e+00	0.00000000e+00
2.50000000e-03	0.00000000e+00	0.00000000e+00
2.75000000e-03	0.00000000e+00	0.00000000e+00
3.00000000e-03	0.00000000e+00	0.00000000e+00
3.25000000e-03	7.99781290e+02	4.61953311e+02
3.50000000e-03	3.34802555e+02	8.97921591e+01
3.75000000e-03	2.28192897e+02	4.86861244e+01
4.00000000e-03	1.81700880e+02	3.73013621e+01
4.25000000e-03	1.16744323e+02	2.01546075e+01
4.50000000e-03	1.04536943e+02	1.55080668e+01
4.75000000e-03	9.27928066e+01	1.24504217e+01
5.00000000e-03	7.34303168e+01	9.46084501e+00
5.25000000e-03	6.15655092e+01	7.85736832e+00
5.50000000e-03	5.04190707e+01	6.20078401e+00
5.75000000e-03	4.28758905e+01	5.10350276e+00
6.00000000e-03	3.48547361e+01	4.00450722e+00
6.25000000e-03	2.99773707e+01	3.39158980e+00
6.50000000e-03	2.54493353e+01	2.79158103e+00
6.75000000e-03	2.19712188e+01	2.34274114e+00
7.00000000e-03	1.94440651e+01	2.02005479e+00
7.25000000e-03	1.67100178e+01	1.70132559e+00
7.50000000e-03	1.46838324e+01	1.48414697e+00
7.75000000e-03	1.30709307e+01	1.28423582e+00
8.00000000e-03	1.19237997e+01	1.16039046e+00
8.25000000e-03	1.05237370e+01	9.83392728e-01
8.50000000e-03	9.44893181e+00	8.68663643e-01
8.75000000e-03	8.62194265e+00	7.81868332e-01
9.00000000e-03	7.73401635e+00	6.89914515e-01
9.25000000e-03	7.00383735e+00	6.06667335e-01
9.50000000e-03	6.26430821e+00	5.30535900e-01
9.75000000e-03	5.62353585e+00	4.73391937e-01
1.00000000e-02	5.07569932e+00	4.17552590e-01
1.02500000e-02	4.66271783e+00	3.84478154e-01
1.05000000e-02	4.27476765e+00	3.39184099e-01
1.07500000e-02	3.95843432e+00	3.13533219e-01
1.10000000e-02	3.61553757e+00	2.76291088e-01
1.12500000e-02	3.35521065e+00	2.61191023e-01
1.15000000e-02	3.11588683e+00	2.38819727e-01
1.17500000e-02	2.80228552e+00	2.09840146e-01
1.20000000e-02	2.69636164e+00	2.01130196e-01
1.22500000e-02	2.48884408e+00	1.82113695e-01
1.25000000e-02	2.33753500e+00	1.69878804e-01
1.27500000e-02	2.15879642e+00	1.54095289e-01
1.30000000e-02	2.02550365e+00	1.42551652e-01
1.32500000e-02	1.88098951e+00	1.29992122e-01
1.35000000e-02	1.78701065e+00	1.24506745e-01
1.37500000e-02	1.68392903e+00	1.16347714e-01
1.40000000e-02	1.55506149e+00	1.05716724e-01
1.42500000e-02	1.47080891e+00	9.79831269e-02
1.45000000e-02	1.39094486e+00	9.26385630e-02
1.47500000e-02	1.32039025e+00	8.75192393e-02
1.50000000e-02	1.24262703e+00	8.18264679e-02
1.52500000e-02	1.17675013e+00	7.62402846e-02
1.55000000e-02	1.09078432e+00	6.92069663e-02
1.57500000e-02	1.03131929e+00	6.50910385e-02
1.60000000e-02	9.82853429e-01	6.13252326e-02
1.62500000e-02	9.39246991e-01	5.93477262e-02
1.65000000e-02	8.87817635e-01	5.50902905e-02
1.67500000e-02	8.39657195e-01	5.10104937e-02
1.70000000e-02	7.94436159e-01	4.81847306e-02
1.72500000e-02	7.59011893e-01	4.56898517e-02
1.75000000e-02	7.14745297e-01	4.25421764e-02
1.77500000e-02	6.84853680e-01	4.02051054e-02
1.80000000e-02	6.54103795e-01	3.83411062e-02
1.82500000e-02	6.22125428e-01	3.54310256e-02
1.85000000e-02	5.95969569e-01	3.49925850e-02
1.87500000e-02	5.67464982e-01	3.23724146e-02
1.90000000e-02	5.42380670e-01	3.08244875e-02
1.92500000e-02	5.16955483e-01	2.87508165e-02
1.95000000e-02	4.86263927e-01	2.66155049e-02
1.97500000e-02	4.74930505e-01	2.63005077e-02
2.00000000e-02	4.52925403e-01	2.47595126e-02
2.02500000e-02	4.34803145e-01	2.35469075e-02
2.05000000e-02	4.19773541e-01	2.23018056e-02
2.07500000e-02	4.00488165e-01	2.12270493e-02
2.10000000e-02	3.88766868e-01	2.07321152e-02
2.12500000e-02	3.75376383e-01	2.02153991e-02
2.15000000e-02	3.61355721e-01	1.91327717e-02
2.17500000e-02	3.49274992e-01	1.85364477e-02
2.20000000e-02	3.31401225e-01	1.76976976e-02
2.22500000e-02	3.19746983e-01	1.67904166e-02
2.25000000e-02	3.14082657e-01	1.66856466e-02
2.27500000e-02	3.01197514e-01	1.57139004e-02
2.30000000e-02	2.92304354e-01	1.53249269e-02
2.32500000e-02	2.77486128e-01	1.43553015e-02
2.35000000e-02	2.72770504e-01	1.42853409e-02
2.37500000e-02	2.64203560e-01	1.36047929e-02
2.40000000e-02	2.52279688e-01	1.31116996e-02
2.42500000e-02	2.49119175e-01	1.27629025e-02
2.45000000e-02	2.40203287e-01	1.22810972e-02
2.47500000e-02	2.28260558e-01	1.15987926e-02
2.50000000e-02	2.25522720e-01	1.14442882e-02
2.52500000e-02	2.20025209e-01	1.13414214e-02
2.55000000e-02	2.11125708e-01	1.04985024e-02
2.57500000e-02	2.07453212e-01	1.04289673e-02
2.60000000e-02	1.98555764e-01	9.88413470e-03
2.62500000e-02	1.94783823e-01	9.85080894e-03
2.65000000e-02	1.88136350e-01	9.34589298e-03
2.67500000e-02	1.86216425e-01	9.17083098e-03
2.70000000e-02	1.75413063e-01	8.68859950e-03
2.72500000e-02	1.73161479e-01	8.41672466e-03
2.75000000e-02	1.66589199e-01	8.22942542e-03
2.77500000e-02	1.63441578e-01	8.06442359e-03
2.80000000e-02	1.58394647e-01	7.60750345e-03
2.82500000e-02	1.53509771e-01	7.36613280e-03
2.85000000e-02	1.52624601e-01	7.34293576e-03
2.87500000e-02	1.49837038e-01	7.25089333e-03
2.90000000e-02	1.48380507e-01	7.20197187e-03
2.92500000e-02	1.41294269e-01	6.59536515e-03
2.95000000e-02	1.39498539e-01	6.62776308e-03
2.97500000e-02	1.36130567e-01	6.41671936e-03
3.00000000e-02	1.33073138e-01	6.30659009e-03
3.02500000e-02	1.28663800e-01	6.07549394e-03
3.05000000e-02	1.26112324e-01	5.83644831e-03
3.07500000e-02	1.26112587e-01	5.90065651e-03
3.10000000e-02	1.23041870e-01	5.77631795e-03
3.12500000e-02	1.19739341e-01	5.64216159e-03
3.15000000e-02	1.14551163e-01	5.30568944e-03
3.17500000e-02	1.13829168e-01	5.18558763e-03
3.20000000e-02	1.13226688e-01	5.24716709e-03
3.22500000e-02	1.10167866e-01	5.09514215e-03
3.25000000e-02	1.09971143e-01	5.05812802e-03
3.27500000e-02	1.06106039e-01	4.83811842e-03
3.30000000e-02	1.02581717e-01	4.65280536e-03
3.32500000e-02	1.01311532e-01	4.56622680e-03
3.35000000e-02	9.94332773e-02	4.56435250e-03
3.37500000e-02	9.69651397e-02	4.38967649e-03
3.40000000e-02	9.61537304e-02	4.30739018e-03
3.42500000e-02	9.31712860e-02	4.14792447e-03
3.45000000e-02	9.26434496e-02	4.19401154e-03
3.47500000e-02	9.10916381e-02	4.07081987e-03
3.50000000e-02	8.78619034e-02	3.92788678e-03
3.52500000e-02	8.90979958e-02	3.97195787e-03
3.55000000e-02	8.59846932e-02	3.77620264e-03
3.57500000e-02	8.59899244e-02	3.83494067e-03
3.60000000e-02	8.27498540e-02	3.68354496e-03
3.62500000e-02	8.26758879e-02	3.64857329e-03
3.65000000e-02	7.90007810e-02	3.48991926e-03
3.67500000e-02	7.98780315e-02	3.49469367e-03
3.70000000e-02	7.76984359e-02	3.39097811e-03
3.72500000e-02	7.65553267e-02	3.33857842e-03
3.75000000e-02	7.44901597e-02	3.26758927e-03
3.77500000e-02	7.33829784e-02	3.18918043e-03
3.80000000e-02	7.34642281e-02	3.16883761e-03
3.82500000e-02	7.15079439e-02	3.04592627e-03
3.85000000e-02	6.95162539e-02	3.02839265e-03
3.87500000e-02	7.07237593e-02	3.01377225e-03
3.90000000e-02	6.86649647e-02	2.97268802e-03
3.92500000e-02	6.90488371e-02	2.94052648e-03
3.95000000e-02	6.63200565e-02	2.83986888e-03
3.97500000e-02	6.77070379e-02	2.89559782e-03
4.00000000e-02	6.66160754e-02	2.83541252e-03
4.02500000e-02	6.64355162e-02	2.80801102e-03
4.05000000e-02	6.45993024e-02	2.70726269e-03
4.07500000e-02	6.37141985e-02	2.66726007e-03
4.10000000e-02	6.16097883e-02	2.60223882e-03
4.12500000e-02	6.17881523e-02	2.60609469e-03
4.15000000e-02	6.19202976e-02	2.56922299e-03
4.17500000e-02	6.03196540e-02	2.51468917e-03
4.20000000e-02	5.93019718e-02	2.45401502e-03
4.22500000e-02	5.82051650e-02	2.41632488e-03
4.25000000e-02	5.76651221e-02	2.39517570e-03
4.27500000e-02	5.72373738e-02	2.35423689e-03
4.30000000e-02	5.71755180e-02	2.35732637e-03
4.32500000e-02	5.56642649e-02	2.28076755e-03
4.35000000e-02	5.48976070e-02	2.27185188e-03
4.37500000e-02	5.46901157e-02	2.21122929e-03
4.40000000e-02	5.31308949e-02	2.17602165e-03
4.42500000e-02	5.25071998e-02	2.13138519e-03
4.45000000e-02	5.38719909e-02	2.17464272e-03
4.47500000e-02	5.22580023e-02	2.10730181e-03
4.50000000e-02	5.23460689e-02	2.13090459e-03
4.52500000e-02	5.14498009e-02	2.08229314e-03
4.55000000e-02	5.06817829e-02	2.03977057e-03
4.57500000e-02	5.10619393e-02	2.03345546e-03
4.60000000e-02	4.94015049e-02	1.99074303e-03
4.62500000e-02	4.91871660e-02	1.97204660e-03
4.65000000e-02	4.77804504e-02	1.90866928e-03
4.67500000e-02	4.87656520e-02	1.93318664e-03
4.70000000e-02	4.74987265e-02	1.88556320e-03
4.72500000e-02	4.73463641e-02	1.87394419e-03
4.75000000e-02	4.70857890e-02	1.86522711e-03
4.77500000e-02	4.74668605e-02	1.86988260e-03
4.80000000e-02	4.59721211e-02	1.80669885e-03
4.82500000e-02	4.54844713e-02	1.78349902e-03
4.85000000e-02	4.55508997e-02	1.80687098e-03
4.87500000e-02	4.53450814e-02	1.78344003e-03
4.90000000e-02	4.50303151e-02	1.75285355e-03
4.92500000e-02	4.42806065e-02	1.71922701e-03
4.95000000e-02	4.41297039e-02	1.71022785e-03
4.97500000e-02	4.41227374e-02	1.72758972e-03
5.00000000e-02	4.27774590e-02	1.65095349e-03
5.02500000e-02	4.28716797e-02	1.65685794e-03
5.05000000e-02	4.26811169e-02	1.64250657e-03
5.07500000e-02	4.23837614e-02	1.63627132e-03
5.10000000e-02	4.23167196e-02	1.62794505e-03
5.12500000e-02	4.11578512e-02	1.59299451e-03
5.15000000e-02	4.12685277e-02	1.57013535e-03
5.17500000e-02	4.10180304e-02	1.58490852e-03
5.20000000e-02	4.12953468e-02	1.57078734e-03
5.22500000e-02	4.01026821e-02	1.54009077e-03
5.25000000e-02	4.02840513e-02	1.53551909e-03
5.27500000e-02	3.91364388e-02	1.47610759e-03
5.30000000e-02	3.86249916e-02	1.48410820e-03
5.32500000e-02	3.90800780e-02	1.47828190e-03
5.35000000e-02	3.97457448e-02	1.50851729e-03
5.37500000e-02	3.88296061e-02	1.46120346e-03
5.40000000e-02	3.93885920e-02	1.49195484e-03
5.42500000e-02	3.83803910e-02	1.44199355e-03
5.45000000e-02	3.78821647e-02	1.42408995e-03
5.47500000e-02	3.76342702e-02	1.39948551e-03
5.50000000e-02	3.76474519e-02	1.41317120e-03
5.52500000e-02	3.65216566e-02	1.35867811e-03
5.55000000e-02	3.77526874e-02	1.40530897e-03
5.57500000e-02	3.63635423e-02	1.35990042e-03
5.60000000e-02	3.62009283e-02	1.33448943e-03
5.62500000e-02	3.64525646e-02	1.36003817e-03
5.65000000e-02	3.66319764e-02	1.34725477e-03
5.67500000e-02	3.54317677e-02	1.32284652e-03
5.70000000e-02	3.60323030e-02	1.32326529e-03
5.72500000e-02	3.60129759e-02	1.33427284e-03
5.75000000e-02	3.56364102e-02	1.32164156e-03
5.77500000e-02	3.49244596e-02	1.27022553e-03
5.80000000e-02	3.49015867e-02	1.27389195e-03
5.82500000e-02	3.50044716e-02	1.28792974e-03
5.85000000e-02	3.41630548e-02	1.25145345e-03
5.87500000e-02	3.42346473e-02	1.24661583e-03
5.90000000e-02	3.46182091e-02	1.25998876e-03
5.92500000e-02	3.39461424e-02	1.22930737e-03
5.95000000e-02	3.44553456e-02	1.25100649e-03
5.97500000e-02	3.38773478e-02	1.23999742e-03
6.00000000e-02	3.34556536e-02	1.20760309e-03
6.02500000e-02	3.39459378e-02	1.22323912e-03
6.05000000e-02	3.33634857e-02	1.20157207e-03
6.07500000e-02	3.28751284e-02	1.19228496e-03
6.10000000e-02	3.27696809e-02	1.19307291e-03
6.12500000e-02	3.28527458e-02	1.17897523e-03
6.15000000e-02	3.27885325e-02	1.17963971e-03
6.17500000e-02	3.26781753e-02	1.16840903e-03
6.20000000e-02	3.23627397e-02	1.16366576e-03
6.22500000e-02	3.21813430e-02	1.14935925e-03
6.25000000e-02	3.17274846e-02	1.13598383e-03
6.27500000e-02	3.12796040e-02	1.11057541e-03
6.30000000e-02	3.12519137e-02	1.10505591e-03
6.32500000e-02	3.15620068e-02	1.12344667e-03
6.35000000e-02	3.18626037e-02	1.12432713e-03
6.37500000e-02	3.11023271e-02	1.10735866e-03
6.40000000e-02	3.14915574e-02	1.11925495e-03
6.42500000e-02	3.11979820e-02	1.09520265e-03
6.45000000e-02	3.11445039e-02	1.09584529e-03
6.47500000e-02	3.11575087e-02	1.09831767e-03
6.50000000e-02	3.05393808e-02	1.07237645e-03
6.52500000e-02	3.00714475e-02	1.05450840e-03
6.55000000e-02	3.04754715e-02	1.07079217e-03
6.57500000e-02	3.00918866e-02	1.05453149e-03
6.60000000e-02	2.95151614e-02	1.03995887e-03
6.62500000e-02	2.97868561e-02	1.05236392e-03
6.65000000e-02	2.89758110e-02	1.00576708e-03
6.67500000e-02	2.96171052e-02	1.02323169e-03
6.70000000e-02	2.92499975e-02	1.01767311e-03
6.72500000e-02	3.01712357e-02	1.05051170e-03
6.75000000e-02	2.95855034e-02	1.02094108e-03
6.77500000e-02	2.98917341e-02	1.03342654e-03
6.80000000e-02	2.91081214e-02	1.00801675e-03
6.82500000e-02	2.86786170e-02	9.94331122e-04
6.85000000e-02	2.87392809e-02	9.97820855e-04
6.87500000e-02	2.97232027e-02	1.02603358e-03
6.90000000e-02	2.86083600e-02	9.80338640e-04
6.92500000e-02	2.88761089e-02	9.87093664e-04
6.95000000e-02	2.88268804e-02	9.97775497e-04
6.97500000e-02	2.81622499e-02	9.65270061e-04
7.00000000e-02	2.80364664e-02	9.63088917e-04
7.02500000e-02	2.85804722e-02	9.71791829e-04
7.05000000e-02	2.86983077e-02	9.71848216e-04
7.07500000e-02	2.86298287e-02	9.76074073e-04
7.10000000e-02	2.88080644e-02	9.77208808e-04
7.12500000e-02	2.78702798e-02	9.50595346e-04
7.15000000e-02	2.82534849e-02	9.54006308e-04
7.17500000e-02	2.80598489e-02	9.48236390e-04
7.20000000e-02	2.72623131e-02	9.23443051e-04
7.22500000e-02	2.79780832e-02	9.40632496e-04
7.25000000e-02	2.78229921e-02	9.45278435e-04
7.27500000e-02	2.73263036e-02	9.23405256e-04
7.30000000e-02	2.67572394e-02	9.04907689e-04
7.32500000e-02	2.75786116e-02	9.26178045e-04
7.35000000e-02	2.67203573e-02	9.00389904e-04
7.37500000e-02	2.69814492e-02	8.99076286e-04
7.40000000e-02	2.72371370e-02	9.08628526e-04
7.42500000e-02	2.68599628e-02	9.01026151e-04
7.45000000e-02	2.68828675e-02	8.97445162e-04
7.47500000e-02	2.68287401e-02	8.94686373e-04
7.50000000e-02	2.66747570e-02	8.89657804e-04
7.52500000e-02	2.73761511e-02	9.14418658e-04
7.55000000e-02	2.69560965e-02	8.91139320e-04
7.57500000e-02	2.63519453e-02	8.82378373e-04
7.60000000e-02	2.66209218e-02	8.82663254e-04
7.62500000e-02	2.61755271e-02	8.67199864e-04
7.65000000e-02	2.65905086e-02	8.82243867e-04
7.67500000e-02	2.63593463e-02	8.69653156e-04
7.70000000e-02	2.67015962e-02	8.73190633e-04
7.72500000e-02	2.64421163e-02	8.83896849e-04
7.75000000e-02	2.68981773e-02	9.05256528e-04
7.77500000e-02	2.64534363e-02	8.95920445e-04
7.80000000e-02	2.64865314e-02	9.07395133e-04
7.82500000e-02	2.57617258e-02	8.88629812e-04
7.85000000e-02	2.70323413e-02	9.34326525e-04
7.87500000e-02	2.64431322e-02	9.14826816e-04
7.90000000e-02	2.65979851e-02	9.23030696e-04
7.92500000e-02	2.58775061e-02	9.03641017e-04
7.95000000e-02	2.60910908e-02	9.07100720e-04
7.97500000e-02	2.65620589e-02	9.32063411e-04
8.00000000e-02	2.57149047e-02	9.00678252e-04
8.02500000e-02	2.58969650e-02	9.09748697e-04
8.05000000e-02	2.61785909e-02	9.18618325e-04
8.07500000e-02	2.58617551e-02	9.15431344e-04
8.10000000e-02	2.56747434e-02	9.08717575e-04
8.12500000e-02	2.58085722e-02	9.11374785e-04
8.15000000e-02	2.56569490e-02	9.11427853e-04
8.17500000e-02	2.59816415e-02	9.23196635e-04
8.20000000e-02	2.59952945e-02	9.19509100e-04
8.22500000e-02	2.57985874e-02	9.24901577e-04
8.25000000e-02	2.55570018e-02	9.13065321e-04
8.27500000e-02	2.57853775e-02	9.22858969e-04
8.30000000e-02	2.52512772e-02	9.07179494e-04
8.32500000e-02	2.51610346e-02	9.11186706e-04
8.35000000e-02	2.50663090e-02	9.14206967e-04
8.37500000e-02	2.56762260e-02	9.18217139e-04
8.40000000e-02	2.57302982e-02	9.26969166e-04
8.42500000e-02	2.49789803e-02	9.04785634e-04
8.45000000e-02	2.59975168e-02	9.45945018e-04
8.47500000e-02	2.56950656e-02	9.30424721e-04
8.50000000e-02	2.60628078e-02	9.33182449e-04
8.52500000e-02	2.52051519e-02	9.21705415e-04
8.55000000e-02	2.52560193e-02	9.11644869e-04
8.57500000e-02	2.57213369e-02	9.34730501e-04
8.60000000e-02	2.53817355e-02	9.25465762e-04
8.62500000e-02	2.47230024e-02	9.03627026e-04
8.65000000e-02	2.54330674e-02	9.18746555e-04
8.67500000e-02	2.51197248e-02	9.07105079e-04
8.70000000e-02	2.46769245e-02	8.83903536e-04
8.72500000e-02	2.49975554e-02	8.80350011e-04
8.75000000e-02	2.49964673e-02	8.75386626e-04
8.77500000e-02	2.46504146e-02	8.52916715e-04
8.80000000e-02	2.47040199e-02	8.54625787e-04
8.82500000e-02	2.50246521e-02	8.61023922e-04
8.85000000e-02	2.43602296e-02	8.35559135e-04
8.87500000e-02	2.52240261e-02	8.46814013e-04
8.90000000e-02	2.42852178e-02	8.24870709e-04
8.92500000e-02	2.51217574e-02	8.46223321e-04
8.95000000e-02	2.46438947e-02	8.30782466e-04
8.97500000e-02	2.38735432e-02	8.04505217e-04
9.00000000e-02	2.42305386e-02	8.02505254e-04
9.02500000e-02	2.40336537e-02	7.99104769e-04
9.05000000e-02	2.49649566e-02	8.30807219e-04
9.07500000e-02	2.42990353e-02	8.01885226e-04
9.10000000e-02	2.41579160e-02	7.98188606e-04
9.12500000e-02	2.42825996e-02	7.96371677e-04
9.15000000e-02	2.38968418e-02	7.88730058e-04
9.17500000e-02	2.40318506e-02	7.89855130e-04
9.20000000e-02	2.35772242e-02	7.79347462e-04
9.22500000e-02	2.42049600e-02	7.92887500e-04
9.25000000e-02	2.43767533e-02	7.89678638e-04
9.27500000e-02	2.41518419e-02	7.86437344e-04
9.30000000e-02	2.40066940e-02	7.81807383e-04
9.32500000e-02	2.39946648e-02	7.84338181e-04
9.35000000e-02	2.40404850e-02	7.78799413e-04
9.37500000e-02	2.40795232e-02	7.74612738e-04
9.40000000e-02	2.41420494e-02	7.82731728e-04
9.42500000e-02	2.36889762e-02	7.58406925e-04
9.45000000e-02	2.40707161e-02	7.70210614e-04
9.47500000e-02	2.38477425e-02	7.66477030e-04
9.50000000e-02	2.37598984e-02	7.58919199e-04
9.52500000e-02	2.35173586e-02	7.51581363e-04
9.55000000e-02	2.29238206e-02	7.33112270e-04
9.57500000e-02	2.41232148e-02	7.73127823e-04
9.60000000e-02	2.38425387e-02	7.58505086e-04
9.62500000e-02	2.35543277e-02	7.47868496e-04
9.65000000e-02	2.29167613e-02	7.36639419e-04
9.67500000e-02	2.33417710e-02	7.44561745e-04
9.70000000e-02	2.39872308e-02	7.57957283e-04
9.72500000e-02	2.27499567e-02	7.19247449e-04
9.75000000e-02	2.32212440e-02	7.36446462e-04
9.77500000e-02	2.34440497e-02	7.33736261e-04
9.80000000e-02	2.35892118e-02	7.38571718e-04
9.82500000e-02	2.29777917e-02	7.23039757e-04
9.85000000e-02	2.35046080e-02	7.31468013e-04
9.87500000e-02	2.29011255e-02	7.18880377e-04
9.90000000e-02	2.39367008e-02	7.49215117e-04
9.92500000e-02	2.31958542e-02	7.25292445e-04
9.95000000e-02	2.30252303e-02	7.18745806e-04
9.97500000e-02	2.26439708e-02	7.09193335e-04
1.00000000e-01	2.34175695e-02	5.92803515e-04
1.00500000e-01	2.29766287e-02	5.05346726e-04
1.01000000e-01	2.29070926e-02	5.01614275e-04
1.01500000e-01	2.28207173e-02	4.98187123e-04
1.02000000e-01	2.31732359e-02	5.00622039e-04
1.02500000e-01	2.26151040e-02	4.92769683e-04
1.03000000e-01	2.30167392e-02	4.98135531e-04
1.03500000e-01	2.29427711e-02	4.94943657e-04
1.04000000e-01	2.23105231e-02	4.82265091e-04
1.04500000e-01	2.24488142e-02	4.82571267e-04
1.05000000e-01	2.24246765e-02	4.77863051e-04
1.05500000e-01	2.29331578e-02	4.88549828e-04
1.06000000e-01	2.26156710e-02	4.82429827e-04
1.06500000e-01	2.23801151e-02	4.75411310e-04
1.07000000e-01	2.28614697e-02	4.92071518e-04
1.07500000e-01	2.26165268e-02	4.95371439e-04
1.08000000e-01	2.24114103e-02	4.95080581e-04
1.08500000e-01	2.23634660e-02	4.98015274e-04
1.09000000e-01	2.20284185e-02	4.91336473e-04
1.09500000e-01	2.25352855e-02	5.08054976e-04
1.10000000e-01	2.19089608e-02	4.89783769e-04
1.10500000e-01	2.22752344e-02	4.86383816e-04
1.11000000e-01	2.23766825e-02	4.79113068e-04
1.11500000e-01	2.19808925e-02	4.68571633e-04
1.12000000e-01	2.21010879e-02	4.67382846e-04
1.12500000e-01	2.22206809e-02	4.68179686e-04
1.13000000e-01	2.18062426e-02	4.60832828e-04
1.13500000e-01	2.22079679e-02	4.63000852e-04
1.14000000e-01	2.21692375e-02	4.60474839e-04
1.14500000e-01	2.20324004e-02	4.57087138e-04
1.15000000e-01	2.21346630e-02	4.56174034e-04
1.15500000e-01	2.18413326e-02	4.52290788e-04
1.16000000e-01	2.21186191e-02	4.55756655e-04
1.16500000e-01	2.18509883e-02	4.48203645e-04
1.17000000e-01	2.19685899e-02	4.50124123e-04
1.17500000e-01	2.20308970e-02	4.49192892e-04
1.18000000e-01	2.20195303e-02	4.51178808e-04
1.18500000e-01	2.17308308e-02	4.40499150e-04
1.19000000e-01	2.17164622e-02	4.41627652e-04
1.19500000e-01	2.19941407e-02	4.44193776e-04
1.20000000e-01	2.18560824e-02	4.40455392e-04
1.20500000e-01	2.20748883e-02	4.42077163e-04
1.21000000e-01	2.16455203e-02	4.35268074e-04
1.21500000e-01	2.15801439e-02	4.33569573e-04
1.22000000e-01	2.16746086e-02	4.35015660e-04
1.22500000e-01	2.17396539e-02	4.33660864e-04
1.23000000e-01	2.18527496e-02	4.34150653e-04
1.23500000e-01	2.18026806e-02	4.34722711e-04
1.24000000e-01	2.17935019e-02	4.32228940e-04
1.24500000e-01	2.17144535e-02	4.28647475e-04
1.25000000e-01	2.20198836e-02	4.34839444e-04
1.25500000e-01	2.14552552e-02	4.25754374e-04
1.26000000e-01	2.19035645e-02	4.29531786e-04
1.26500000e-01	2.15880653e-02	4.23466168e-04
1.27000000e-01	2.15924697e-02	4.25465934e-04
1.27500000e-01	2.17827364e-02	4.26247224e-04
1.28000000e-01	2.15453887e-02	4.20970911e-04
1.28500000e-01	2.17057471e-02	4.24248438e-04
1.29000000e-01	2.16284952e-02	4.21083299e-04
1.29500000e-01	2.14689445e-02	4.17136873e-04
1.30000000e-01	2.16174879e-02	4.17883098e-04
1.30500000e-01	2.17147992e-02	4.18935333e-04
1.31000000e-01	2.13365889e-02	4.11872238e-04
1.31500000e-01	2.16078225e-02	4.16676410e-04
1.32000000e-01	2.17264806e-02	4.17461588e-04
1.32500000e-01	2.16477446e-02	4.13580998e-04
1.33000000e-01	2.13884579e-02	4.09423894e-04
1.33500000e-01	2.15207121e-02	4.09863154e-04
1.34000000e-01	2.10208989e-02	4.01513245e-04
1.34500000e-01	2.11540226e-02	4.01928872e-04
1.35000000e-01	2.12541882e-02	4.02104271e-04
1.35500000e-01	2.15143353e-02	4.05570922e-04
1.36000000e-01	2.13714105e-02	4.01660152e-04
1.36500000e-01	2.15634101e-02	4.07592743e-04
1.37000000e-01	2.12448618e-02	3.98416135e-04
1.37500000e-01	2.10346849e-02	3.94202175e-04
1.38000000e-01	2.11226149e-02	3.97292376e-04
1.38500000e-01	2.12012704e-02	3.96682192e-04
1.39000000e-01	2.14733646e-02	4.00436014e-04
1.39500000e-01	2.13963829e-02	3.97217130e-04
1.40000000e-01	2.10863027e-02	3.94448925e-04
1.40500000e-01	2.09286869e-02	3.89417353e-04
1.41000000e-01	2.10678787e-02	3.91604042e-04
1.41500000e-01	2.09784334e-02	3.90469354e-04
1.42000000e-01	2.08857270e-02	3.87423904e-04
1.42500000e-01	2.06653163e-02	3.85132100e-04
1.43000000e-01	2.08526164e-02	3.87819020e-04
1.43500000e-01	2.07632575e-02	3.83619475e-04
1.44000000e-01	2.08771368e-02	3.85115968e-04
1.44500000e-01	2.11599989e-02	3.86843643e-04
1.45000000e-01	2.07717125e-02	3.82766712e-04
1.45500000e-01	2.06715462e-02	3.81342327e-04
1.46000000e-01	2.07903534e-02	3.79973072e-04
1.46500000e-01	2.07284089e-02	3.80549016e-04
1.47000000e-01	2.05343500e-02	3.76667611e-04
1.47500000e-01	2.10335223e-02	3.82222118e-04
1.48000000e-01	2.04317851e-02	3.71356347e-04
1.48500000e-01	2.02508559e-02	3.68654335e-04
1.49000000e-01	2.05265387e-02	3.73940348e-04
1.49500000e-01	2.06289185e-02	3.73798289e-04
1.50000000e-01	2.04533922e-02	3.70705985e-04
1.50500000e-01	2.04736261e-02	3.71744047e-04
1.51000000e-01	2.06475923e-02	3.72744611e-04
1.51500000e-01	2.07766369e-02	3.72671767e-04
1.52000000e-01	2.04319887e-02	3.65942699e-04
1.52500000e-01	2.06520009e-02	3.70676450e-04
1.53000000e-01	2.02231912e-02	3.63790750e-04
1.53500000e-01	2.02509939e-02	3.62425387e-04
1.54000000e-01	2.03077566e-02	3.61464492e-04
1.54500000e-01	2.04214592e-02	3.71700673e-04
1.55000000e-01	2.02346814e-02	3.73120717e-04
1.55500000e-01	2.02117058e-02	3.74067537e-04
1.56000000e-01	2.02986853e-02	3.79291612e-04
1.56500000e-01	2.05600485e-02	3.81858504e-04
1.57000000e-01	2.04127925e-02	3.81136732e-04
1.57500000e-01	2.02568214e-02	3.70113287e-04
1.58000000e-01	2.05606140e-02	3.70264709e-04
1.58500000e-01	2.04146834e-02	3.65478425e-04
1.59000000e-01	2.00184479e-02	3.56956256e-04
1.59500000e-01	2.02731219e-02	3.60326755e-04
1.60000000e-01	2.03459213e-02	3.62304623e-04
1.60500000e-01	1.98797799e-02	3.52493294e-04
1.61000000e-01	2.01809797e-02	3.58450956e-04
1.61500000e-01	2.00699695e-02	3.53967302e-04
1.62000000e-01	2.00648219e-02	3.52825253e-04
1.62500000e-01	2.00614165e-02	3.52831454e-04
1.63000000e-01	2.05860505e-02	3.60404373e-04
1.63500000e-01	2.02006689e-02	3.56097890e-04
1.64000000e-01	1.98865827e-02	3.47380731e-04
1.64500000e-01	1.98778940e-02	3.48737126e-04
1.65000000e-01	2.02218758e-02	3.54535002e-04
1.65500000e-01	1.99044236e-02	3.46126447e-04
1.66000000e-01	2.01761079e-02	3.51336745e-04
1.66500000e-01	2.01310801e-02	3.48772291e-04
1.67000000e-01	2.01135156e-02	3.48274430e-04
1.67500000e-01	2.01871033e-02	3.50502808e-04
1.68000000e-01	2.01353281e-02	3.47619375e-04
1.68500000e-01	2.01664789e-02	3.47842307e-04
1.69000000e-01	1.97258735e-02	3.40366109e-04
1.69500000e-01	2.02203200e-02	3.47129095e-04
1.70000000e-01	1.99660145e-02	3.41919278e-04
1.70500000e-01	1.98028690e-02	3.40954747e-04
1.71000000e-01	1.97449854e-02	3.37778207e-04
1.71500000e-01	2.00646994e-02	3.43068274e-04
1.72000000e-01	1.97481302e-02	3.36016472e-04
1.72500000e-01	1.95658940e-02	3.34838023e-04
1.73000000e-01	2.00545178e-02	3.40980083e-04
1.73500000e-01	1.98592402e-02	3.36794012e-04
1.74000000e-01	1.96041700e-02	3.32650830e-04
1.74500000e-01	1.98332948e-02	3.33288333e-04
1.75000000e-01	1.99151874e-02	3.35519834e-04
1.75500000e-01	1.99301495e-02	3.35157840e-04
1.76000000e-01	1.93213283e-02	3.24412042e-04
1.76500000e-01	1.95748852e-02	3.28739989e-04
1.77000000e-01	1.97453305e-02	3.29797693e-04
1.77500000e-01	1.99129452e-02	3.33546400e-04
1.78000000e-01	1.99311491e-02	3.32892444e-04
1.78500000e-01	1.95687374e-02	3.26506812e-04
1.79000000e-01	1.96702370e-02	3.27635869e-04
1.79500000e-01	1.96521438e-02	3.29463010e-04
1.80000000e-01	1.94691492e-02	3.25344364e-04
1.80500000e-01	1.96035099e-02	3.28190591e-04
1.81000000e-01	1.95612668e-02	3.27148496e-04
1.81500000e-01	1.96591333e-02	3.25993235e-04
1.82000000e-01	1.94580687e-02	3.22903560e-04
1.82500000e-01	1.95608754e-02	3.23689423e-04
1.83000000e-01	1.95125685e-02	3.23207720e-04
1.83500000e-01	1.94400485e-02	3.21799430e-04
1.84000000e-01	1.95893380e-02	3.23566235e-04
1.84500000e-01	1.96493174e-02	3.24280503e-04
1.85000000e-01	1.92570013e-02	3.18701350e-04
1.85500000e-01	1.94672520e-02	3.20980692e-04
1.86000000e-01	1.92145719e-02	3.16858801e-04
1.86500000e-01	1.94031034e-02	3.18448251e-04
1.87000000e-01	1.95264413e-02	3.20133719e-04
1.87500000e-01	1.94883140e-02	3.18726582e-04
1.88000000e-01	1.94372539e-02	3.17415323e-04
1.88500000e-01	1.94412647e-02	3.17989146e-04
1.89000000e-01	1.90469984e-02	3.10636627e-04
1.89500000e-01	1.94523556e-02	3.17008670e-04
1.90000000e-01	1.94402817e-02	3.16049696e-04
1.90500000e-01	1.91969636e-02	3.13324244e-04
1.91000000e-01	1.94957695e-02	3.16079431e-04
1.91500000e-01	1.93251465e-02	3.15078632e-04
1.92000000e-01	1.94509477e-02	3.14379018e-04
1.92500000e-01	1.90185819e-02	3.08605389e-04
1.93000000e-01	1.91266634e-02	3.10501107e-04
1.93500000e-01	1.92811902e-02	3.11670781e-04
1.94000000e-01	1.92455042e-02	3.09835494e-04
1.94500000e-01	1.91523422e-02	3.08134080e-04
1.95000000e-01	1.93801418e-02	3.12394188e-04
1.95500000e-01	1.92688913e-02	3.09348156e-04
1.96000000e-01	1.94347203e-02	3.10213840e-04
1.96500000e-01	1.92216307e-02	3.08321246e-04
1.97000000e-01	1.94289353e-02	3.10217052e-04
1.97500000e-01	1.92051667e-02	3.06457077e-04
1.98000000e-01	1.91095944e-02	3.04861486e-04
1.98500000e-01	1.92054985e-02	3.06236391e-04
1.99000000e-01	1.92370351e-02	3.06322346e-04
1.99500000e-01	1.90338361e-02	3.02316018e-04
2.00000000e-01	1.90575832e-02	3.02686929e-04
2.00500000e-01	1.90104844e-02	3.02086692e-04
2.01000000e-01	1.91174973e-02	3.01126939e-04
2.01500000e-01	1.89612598e-02	3.00410005e-04
2.02000000e-01	1.91665315e-02	3.02965909e-04
2.02500000e-01	1.89426233e-02	2.99015307e-04
2.03000000e-01	1.90264067e-02	3.00258257e-04
2.03500000e-01	1.91372414e-02	3.02717322e-04
2.04000000e-01	1.88324120e-02	2.95656113e-04
2.04500000e-01	1.91191937e-02	3.00594521e-04
2.05000000e-01	1.91435242e-02	2.99695069e-04
2.05500000e-01	1.89173334e-02	2.97043132e-04
2.06000000e-01	1.87887715e-02	2.94232788e-04
2.06500000e-01	1.88511640e-02	2.94916339e-04
2.07000000e-01	1.88543856e-02	2.94131605e-04
2.07500000e-01	1.90555740e-02	2.96599373e-04
2.08000000e-01	1.89264357e-02	2.96399026e-04
2.08500000e-01	1.88996635e-02	2.93318831e-04
2.09000000e-01	1.89759860e-02	2.95349732e-04
2.09500000e-01	1.88216271e-02	2.91179593e-04
2.10000000e-01	1.87186408e-02	2.90544417e-04
2.10500000e-01	1.90676520e-02	2.95554065e-04
2.11000000e-01	1.87933041e-02	2.91569603e-04
2.11500000e-01	1.88377130e-02	2.91644509e-04
2.12000000e-01	1.88155130e-02	2.90039047e-04
2.12500000e-01	1.89743143e-02	2.92821786e-04
2.13000000e-01	1.87861639e-02	2.88618669e-04
2.13500000e-01	1.88692346e-02	2.91642787e-04
2.14000000e-01	1.87350808e-02	2.88431179e-04
2.14500000e-01	1.88952768e-02	2.89589570e-04
2.15000000e-01	1.87984428e-02	2.88922647e-04
2.15500000e-01	1.88555123e-02	2.87862599e-04
2.16000000e-01	1.88669124e-02	2.89090982e-04
2.16500000e-01	1.86458791e-02	2.85951928e-04
2.17000000e-01	1.86092837e-02	2.89213421e-04
2.17500000e-01	1.89899697e-02	2.97963634e-04
2.18000000e-01	1.86767265e-02	2.95313099e-04
2.18500000e-01	1.86236365e-02	2.97461794e-04
2.19000000e-01	1.85815473e-02	2.98605475e-04
2.19500000e-01	1.86929752e-02	2.97438855e-04
2.20000000e-01	1.87676563e-02	3.02123387e-04
2.20500000e-01	1.86768791e-02	3.01838825e-04
2.21000000e-01	1.88773104e-02	3.04079647e-04
2.21500000e-01	1.82734726e-02	2.97039627e-04
2.22000000e-01	1.86294147e-02	3.01972923e-04
2.22500000e-01	1.88658460e-02	3.05642289e-04
2.23000000e-01	1.85913797e-02	3.03808018e-04
2.23500000e-01	1.86502110e-02	3.04945612e-04
2.24000000e-01	1.85082148e-02	3.03910819e-04
2.24500000e-01	1.86854975e-02	3.07646207e-04
2.25000000e-01	1.85145016e-02	3.05174697e-04
2.25500000e-01	1.83344111e-02	3.02050973e-04
2.26000000e-01	1.86709918e-02	3.08590075e-04
2.26500000e-01	1.84701537e-02	3.01193199e-04
2.27000000e-01	1.85944769e-02	2.98986174e-04
2.27500000e-01	1.86337034e-02	2.97435209e-04
2.28000000e-01	1.85920294e-02	2.96402499e-04
2.28500000e-01	1.86626162e-02	2.94930055e-04
2.29000000e-01	1.85605761e-02	2.91972020e-04
2.29500000e-01	1.84789997e-02	2.91411024e-04
2.30000000e-01	1.86152696e-02	2.91558797e-04
2.30500000e-01	1.84897215e-02	2.88641898e-04
2.31000000e-01	1.84493239e-02	2.88383152e-04
2.31500000e-01	1.83118464e-02	2.85564738e-04
2.32000000e-01	1.84096765e-02	2.85939018e-04
2.32500000e-01	1.84095586e-02	2.85397437e-04
2.33000000e-01	1.82926787e-02	2.82148202e-04
2.33500000e-01	1.84991236e-02	2.85342526e-04
2.34000000e-01	1.83808664e-02	2.82159578e-04
2.34500000e-01	1.83905780e-02	2.82468442e-04
2.35000000e-01	1.84477879e-02	2.83125227e-04
2.35500000e-01	1.84657417e-02	2.82207884e-04
2.36000000e-01	1.85207988e-02	2.82785297e-04
2.36500000e-01	1.85490306e-02	2.82904777e-04
2.37000000e-01	1.85946999e-02	2.82416733e-04
2.37500000e-01	1.84580041e-02	2.80951218e-04
2.38000000e-01	1.83509619e-02	2.77783856e-04
2.38500000e-01	1.81617136e-02	2.75905967e-04
2.39000000e-01	1.83498964e-02	2.77029837e-04
2.39500000e-01	1.82458436e-02	2.75991252e-04
2.40000000e-01	1.83780944e-02	2.76331254e-04
2.40500000e-01	1.83699887e-02	2.75467471e-04
2.41000000e-01	1.82764512e-02	2.75337146e-04
2.41500000e-01	1.83783397e-02	2.74681021e-04
2.42000000e-01	1.82624659e-02	2.73555671e-04
2.42500000e-01	1.80920106e-02	2.70068173e-04
2.43000000e-01	1.81517370e-02	2.70438935e-04
2.43500000e-01	1.83730972e-02	2.74447399e-04
2.44000000e-01	1.82480942e-02	2.70416354e-04
2.44500000e-01	1.81204590e-02	2.70578056e-04
2.45000000e-01	1.81329364e-02	2.68727846e-04
2.45500000e-01	1.79416804e-02	2.65763218e-04
2.46000000e-01	1.82339343e-02	2.70127151e-04
2.46500000e-01	1.81476959e-02	2.68321428e-04
2.47000000e-01	1.81790608e-02	2.69378918e-04
2.47500000e-01	1.81591472e-02	2.66899934e-04
2.48000000e-01	1.81990205e-02	2.68513392e-04
2.48500000e-01	1.81216889e-02	2.67316269e-04
2.49000000e-01	1.79789775e-02	2.64099083e-04
2.49500000e-01	1.81139473e-02	2.65100455e-04
2.50000000e-01	1.80813380e-02	2.64678128e-04
2.50500000e-01	1.81851340e-02	2.67277877e-04
2.51000000e-01	1.81777766e-02	2.65439515e-04
2.51500000e-01	1.79492607e-02	2.62598935e-04
2.52000000e-01	1.80092711e-02	2.63588666e-04
2.52500000e-01	1.78700259e-02	2.60717409e-04
2.53000000e-01	1.81451520e-02	2.65597944e-04
2.53500000e-01	1.81713284e-02	2.64305031e-04
2.54000000e-01	1.81843911e-02	2.65040575e-04
2.54500000e-01	1.79964191e-02	2.61144797e-04
2.55000000e-01	1.80884610e-02	2.61925820e-04
2.55500000e-01	1.78901649e-02	2.60469220e-04
2.56000000e-01	1.79660609e-02	2.59728189e-04
2.56500000e-01	1.80909043e-02	2.60712155e-04
2.57000000e-01	1.77996681e-02	2.57381885e-04
2.57500000e-01	1.79979033e-02	2.59944262e-04
2.58000000e-01	1.81809664e-02	2.61430664e-04
2.58500000e-01	1.82886171e-02	2.62827052e-04
2.59000000e-01	1.79868291e-02	2.58983608e-04
2.59500000e-01	1.78149021e-02	2.55463858e-04
2.60000000e-01	1.78194391e-02	2.55833158e-04
2.60500000e-01	1.78582836e-02	2.55469190e-04
2.61000000e-01	1.76597548e-02	2.52811913e-04
2.61500000e-01	1.79610082e-02	2.57105714e-04
2.62000000e-01	1.79167577e-02	2.56635740e-04
2.62500000e-01	1.78901471e-02	2.55069305e-04
2.63000000e-01	1.78461232e-02	2.54152940e-04
2.63500000e-01	1.75651172e-02	2.49544884e-04
2.64000000e-01	1.78537095e-02	2.53496078e-04
2.64500000e-01	1.81207197e-02	2.56712042e-04
2.65000000e-01	1.79645482e-02	2.54969695e-04
2.65500000e-01	1.77356891e-02	2.51042148e-04
2.66000000e-01	1.78400725e-02	2.52769714e-04
2.66500000e-01	1.77485714e-02	2.51868431e-04
2.67000000e-01	1.79177434e-02	2.53300511e-04
2.67500000e-01	1.78461150e-02	2.51363874e-04
2.68000000e-01	1.78054606e-02	2.50085371e-04
2.68500000e-01	1.77095967e-02	2.49862841e-04
2.69000000e-01	1.77242541e-02	2.49368356e-04
2.69500000e-01	1.78470235e-02	2.50675766e-04
2.70000000e-01	1.75728484e-02	2.46689688e-04
2.70500000e-01	1.75416848e-02	2.45671462e-04
2.71000000e-01	1.77632755e-02	2.49347935e-04
2.71500000e-01	1.78130259e-02	2.49441263e-04
2.72000000e-01	1.77989942e-02	2.48459079e-04
2.72500000e-01	1.78177260e-02	2.49207151e-04
2.73000000e-01	1.77170128e-02	2.47005125e-04
2.73500000e-01	1.77821998e-02	2.47674946e-04
2.74000000e-01	1.78985563e-02	2.48553803e-04
2.74500000e-01	1.76504932e-02	2.45026191e-04
2.75000000e-01	1.73627864e-02	2.42155972e-04
2.75500000e-01	1.78102073e-02	2.48061738e-04
2.76000000e-01	1.75730783e-02	2.45146108e-04
2.76500000e-01	1.77310864e-02	2.46127938e-04
2.77000000e-01	1.78067234e-02	2.47266966e-04
2.77500000e-01	1.76708940e-02	2.45027663e-04
2.78000000e-01	1.76168291e-02	2.44028146e-04
2.78500000e-01	1.75857380e-02	2.43616904e-04
2.79000000e-01	1.74898945e-02	2.41479604e-04
2.79500000e-01	1.75724276e-02	2.41476205e-04
2.80000000e-01	1.76150112e-02	2.42440969e-04
2.80500000e-01	1.77231612e-02	2.43046165e-04
2.81000000e-01	1.77671364e-02	2.43972855e-04
2.81500000e-01	1.75121732e-02	2.40863463e-04
2.82000000e-01	1.75576029e-02	2.41029439e-04
2.82500000e-01	1.76807576e-02	2.43764363e-04
2.83000000e-01	1.76329913e-02	2.41339271e-04
2.83500000e-01	1.74988352e-02	2.40160194e-04
2.84000000e-01	1.75424801e-02	2.40279189e-04
2.84500000e-01	1.73840026e-02	2.37205923e-04
2.85000000e-01	1.75317601e-02	2.40332346e-04
2.85500000e-01	1.76580439e-02	2.40805652e-04
2.86000000e-01	1.74647425e-02	2.38791304e-04
2.86500000e-01	1.74022678e-02	2.36457868e-04
2.87000000e-01	1.75304330e-02	2.39408814e-04
2.87500000e-01	1.76275833e-02	2.39222756e-04
2.88000000e-01	1.73006968e-02	2.34328295e-04
2.88500000e-01	1.73077411e-02	2.35320109e-04
2.89000000e-01	1.74559304e-02	2.36791237e-04
2.89500000e-01	1.75545595e-02	2.37727000e-04
2.90000000e-01	1.72054447e-02	2.34176037e-04
2.90500000e-01	1.73831972e-02	2.34830320e-04
2.91000000e-01	1.71472237e-02	2.33241423e-04
2.91500000e-01	1.74116834e-02	2.34652487e-04
2.92000000e-01	1.71899159e-02	2.31371070e-04
2.92500000e-01	1.73101554e-02	2.32849963e-04
2.93000000e-01	1.72133330e-02	2.31461998e-04
2.93500000e-01	1.72506400e-02	2.31969623e-04
2.94000000e-01	1.74789168e-02	2.34227010e-04
2.94500000e-01	1.72125866e-02	2.31275669e-04
2.95000000e-01	1.72830685e-02	2.31573130e-04
2.95500000e-01	1.72701248e-02	2.31971328e-04
2.96000000e-01	1.72218537e-02	2.30078254e-04
2.96500000e-01	1.71241665e-02	2.30065539e-04
2.97000000e-01	1.73536931e-02	2.32486942e-04
2.97500000e-01	1.72381744e-02	2.30096714e-04
2.98000000e-01	1.73840432e-02	2.31323466e-04
2.98500000e-01	1.72490205e-02	2.30899814e-04
2.99000000e-01	1.72851101e-02	2.30151949e-04
2.99500000e-01	1.73548774e-02	2.31798010e-04
3.00000000e-01	1.72401175e-02	2.28870565e-04
3.00500000e-01	1.72215395e-02	2.28802969e-04
3.01000000e-01	1.71092801e-02	2.27626789e-04
3.01500000e-01	1.71541504e-02	2.28462685e-04
3.02000000e-01	1.73574046e-02	2.30825039e-04
3.02500000e-01	1.72743935e-02	2.28905396e-04
3.03000000e-01	1.70946128e-02	2.26886240e-04
3.03500000e-01	1.72538793e-02	2.27637777e-04
3.04000000e-01	1.71534217e-02	2.27894517e-04
3.04500000e-01	1.72093044e-02	2.26607080e-04
3.05000000e-01	1.70974133e-02	2.26682275e-04
3.05500000e-01	1.71218448e-02	2.25937965e-04
3.06000000e-01	1.71680678e-02	2.24896575e-04
3.06500000e-01	1.70990421e-02	2.26042388e-04
3.07000000e-01	1.71709009e-02	2.25781727e-04
3.07500000e-01	1.72381707e-02	2.25987295e-04
3.08000000e-01	1.73085961e-02	2.27292683e-04
3.08500000e-01	1.71287969e-02	2.24718823e-04
3.09000000e-01	1.71625504e-02	2.25586441e-04
3.09500000e-01	1.72792805e-02	2.26661791e-04
3.10000000e-01	1.69870520e-02	2.22123827e-04
3.10500000e-01	1.73324636e-02	2.26490151e-04
3.11000000e-01	1.70532903e-02	2.22722480e-04
3.11500000e-01	1.70029507e-02	2.21801026e-04
3.12000000e-01	1.70791155e-02	2.23491067e-04
3.12500000e-01	1.71025219e-02	2.23840077e-04
3.13000000e-01	1.71599483e-02	2.23384778e-04
3.13500000e-01	1.70611856e-02	2.22804082e-04
3.14000000e-01	1.70364611e-02	2.22460326e-04
3.14500000e-01	1.71875556e-02	2.24108563e-04
3.15000000e-01	1.70468638e-02	2.21447535e-04
3.15500000e-01	1.70185646e-02	2.20294986e-04
3.16000000e-01	1.70550644e-02	2.21304866e-04
3.16500000e-01	1.71817560e-02	2.23104175e-04
3.17000000e-01	1.70788585e-02	2.21136863e-04
3.17500000e-01	1.68572860e-02	2.18958622e-04
3.18000000e-01	1.69111932e-02	2.18572204e-04
3.18500000e-01	1.70429041e-02	2.19622214e-04
3.19000000e-01	1.69499358e-02	2.19024812e-04
3.19500000e-01	1.67471132e-02	2.16648700e-04
3.20000000e-01	1.68932893e-02	2.17932255e-04
3.20500000e-01	1.69219508e-02	2.18574206e-04
3.21000000e-01	1.69583937e-02	2.19071295e-04
3.21500000e-01	1.69798288e-02	2.18492951e-04
3.22000000e-01	1.67639297e-02	2.15880907e-04
3.22500000e-01	1.66938636e-02	2.15273518e-04
3.23000000e-01	1.69436522e-02	2.16685184e-04
3.23500000e-01	1.67284884e-02	2.14736866e-04
3.24000000e-01	1.66976735e-02	2.14137054e-04
3.24500000e-01	1.68214963e-02	2.15419545e-04
3.25000000e-01	1.68084419e-02	2.14469499e-04
3.25500000e-01	1.67416917e-02	2.14705971e-04
3.26000000e-01	1.65939247e-02	2.12221368e-04
3.26500000e-01	1.66437331e-02	2.12937703e-04
3.27000000e-01	1.67377456e-02	2.14086586e-04
3.27500000e-01	1.65130646e-02	2.10349630e-04
3.28000000e-01	1.69066757e-02	2.15590723e-04
3.28500000e-01	1.66661250e-02	2.12327607e-04
3.29000000e-01	1.66234266e-02	2.12021086e-04
3.29500000e-01	1.66660424e-02	2.13199424e-04
3.30000000e-01	1.67642980e-02	2.13201675e-04
3.30500000e-01	1.68322167e-02	2.14371838e-04
3.31000000e-01	1.66382601e-02	2.11232707e-04
3.31500000e-01	1.68488363e-02	2.13463763e-04
3.32000000e-01	1.67698841e-02	2.13453357e-04
3.32500000e-01	1.66480287e-02	2.10300598e-04
3.33000000e-01	1.66030057e-02	2.10246664e-04
3.33500000e-01	1.66478727e-02	2.09856412e-04
3.34000000e-01	1.65143530e-02	2.09430687e-04
3.34500000e-01	1.66868703e-02	2.10857453e-04
3.35000000e-01	1.65298666e-02	2.08226767e-04
3.35500000e-01	1.66266775e-02	2.10421403e-04
3.36000000e-01	1.65247146e-02	2.08417187e-04
3.36500000e-01	1.65035864e-02	2.08064283e-04
3.37000000e-01	1.65639193e-02	2.08244830e-04
3.37500000e-01	1.65194552e-02	2.07913746e-04
3.38000000e-01	1.65774913e-02	2.08790868e-04
3.38500000e-01	1.65853205e-02	2.07603016e-04
3.39000000e-01	1.64485731e-02	2.07045937e-04
3.39500000e-01	1.64810388e-02	2.06261922e-04
3.40000000e-01	1.65050453e-02	2.06446842e-04
3.40500000e-01	1.66413210e-02	2.08494988e-04
3.41000000e-01	1.65950246e-02	2.08564976e-04
3.41500000e-01	1.65205136e-02	2.06667851e-04
3.42000000e-01	1.65009787e-02	2.05805221e-04
3.42500000e-01	1.65851006e-02	2.07113954e-04
3.43000000e-01	1.63876625e-02	2.04868335e-04
3.43500000e-01	1.64454623e-02	2.05131987e-04
3.44000000e-01	1.65079007e-02	2.05702055e-04
3.44500000e-01	1.64743695e-02	2.05723022e-04
3.45000000e-01	1.64947925e-02	2.05762117e-04
3.45500000e-01	1.62269557e-02	2.02577993e-04
3.46000000e-01	1.64651318e-02	2.04661216e-04
3.46500000e-01	1.62816281e-02	2.02024583e-04
3.47000000e-01	1.63281857e-02	2.02850907e-04
3.47500000e-01	1.65774621e-02	2.05308210e-04
3.48000000e-01	1.62505703e-02	2.01593692e-04
3.48500000e-01	1.64972460e-02	2.04615622e-04
3.49000000e-01	1.63277290e-02	2.02170094e-04
3.49500000e-01	1.64462694e-02	2.03441683e-04
3.50000000e-01	1.63733854e-02	1.65549289e-04
3.51000000e-01	1.63337797e-02	1.42520240e-04
3.52000000e-01	1.64665889e-02	1.43382692e-04
3.53000000e-01	1.62774275e-02	1.41567906e-04
3.54000000e-01	1.62088847e-02	1.41084364e-04
3.55000000e-01	1.62778879e-02	1.41456006e-04
3.56000000e-01	1.63052893e-02	1.42287805e-04
3.57000000e-01	1.60740146e-02	1.42831400e-04
3.58000000e-01	1.62473112e-02	1.45559067e-04
3.59000000e-01	1.61133012e-02	1.45433252e-04
3.60000000e-01	1.61105652e-02	1.46349064e-04
3.61000000e-01	1.60923924e-02	1.46642798e-04
3.62000000e-01	1.59960647e-02	1.46527716e-04
3.63000000e-01	1.60440008e-02	1.47192632e-04
3.64000000e-01	1.60495188e-02	1.48284670e-04
3.65000000e-01	1.60158274e-02	1.48104694e-04
3.66000000e-01	1.60080412e-02	1.46397926e-04
3.67000000e-01	1.60294501e-02	1.44694863e-04
3.68000000e-01	1.59830817e-02	1.43338025e-04
3.69000000e-01	1.61304198e-02	1.43821708e-04
3.70000000e-01	1.59763706e-02	1.42111176e-04
3.71000000e-01	1.60150952e-02	1.44241212e-04
3.72000000e-01	1.61132627e-02	1.45584409e-04
3.73000000e-01	1.60784594e-02	1.45288934e-04
3.74000000e-01	1.59814855e-02	1.45124706e-04
3.75000000e-01	1.58970820e-02	1.44548438e-04
3.76000000e-01	1.59267097e-02	1.44433276e-04
3.77000000e-01	1.58743947e-02	1.44303542e-04
3.78000000e-01	1.59195712e-02	1.44772474e-04
3.79000000e-01	1.59503629e-02	1.44678162e-04
3.80000000e-01	1.58042250e-02	1.43198439e-04
3.81000000e-01	1.59185947e-02	1.44018282e-04
3.82000000e-01	1.58291046e-02	1.43285907e-04
3.83000000e-01	1.58143097e-02	1.43011160e-04
3.84000000e-01	1.58924101e-02	1.44108268e-04
3.85000000e-01	1.58080805e-02	1.43187437e-04
3.86000000e-01	1.56694951e-02	1.41886866e-04
3.87000000e-01	1.57279859e-02	1.42253662e-04
3.88000000e-01	1.57921371e-02	1.42890794e-04
3.89000000e-01	1.57845057e-02	1.42606450e-04
3.90000000e-01	1.57491049e-02	1.42422981e-04
3.91000000e-01	1.57145186e-02	1.41945722e-04
3.92000000e-01	1.56101594e-02	1.41132492e-04
3.93000000e-01	1.57096435e-02	1.42151764e-04
3.94000000e-01	1.57515426e-02	1.42086773e-04
3.95000000e-01	1.54702787e-02	1.40287046e-04
3.96000000e-01	1.56491127e-02	1.40993467e-04
3.97000000e-01	1.55984492e-02	1.40700857e-04
3.98000000e-01	1.55978639e-02	1.41168209e-04
3.99000000e-01	1.54704199e-02	1.39670859e-04
4.00000000e-01	1.56685467e-02	1.41374387e-04
4.01000000e-01	1.55790830e-02	1.40696964e-04
4.02000000e-01	1.55045631e-02	1.40313282e-04
4.03000000e-01	1.53922301e-02	1.39447095e-04
4.04000000e-01	1.54357331e-02	1.39670225e-04
4.05000000e-01	1.54958166e-02	1.40376937e-04
4.06000000e-01	1.55452198e-02	1.40388472e-04
4.07000000e-01	1.55146896e-02	1.40602095e-04
4.08000000e-01	1.54584149e-02	1.39604142e-04
4.09000000e-01	1.54437240e-02	1.39136688e-04
4.10000000e-01	1.55835504e-02	1.40476921e-04
4.11000000e-01	1.55052167e-02	1.40089564e-04
4.12000000e-01	1.54013437e-02	1.38725461e-04
4.13000000e-01	1.55028711e-02	1.39641905e-04
4.14000000e-01	1.54320605e-02	1.39125779e-04
4.15000000e-01	1.53868312e-02	1.38143982e-04
4.16000000e-01	1.52929053e-02	1.37469913e-04
4.17000000e-01	1.55078823e-02	1.39515572e-04
4.18000000e-01	1.55044288e-02	1.41141665e-04
4.19000000e-01	1.53688383e-02	1.41807074e-04
4.20000000e-01	1.53395430e-02	1.41798099e-04
4.21000000e-01	1.55340391e-02	1.44188190e-04
4.22000000e-01	1.53164255e-02	1.43029615e-04
4.23000000e-01	1.53490328e-02	1.43512422e-04
4.24000000e-01	1.55780350e-02	1.45486967e-04
4.25000000e-01	1.54586666e-02	1.45071605e-04
4.26000000e-01	1.54405029e-02	1.45030713e-04
4.27000000e-01	1.53694066e-02	1.44166384e-04
4.28000000e-01	1.54353666e-02	1.45203642e-04
4.29000000e-01	1.54090537e-02	1.45452279e-04
4.30000000e-01	1.53748248e-02	1.44930706e-04
4.31000000e-01	1.52872283e-02	1.43597552e-04
4.32000000e-01	1.52516888e-02	1.43735727e-04
4.33000000e-01	1.53540274e-02	1.44735941e-04
4.34000000e-01	1.52474982e-02	1.43987506e-04
4.35000000e-01	1.52057149e-02	1.43854019e-04
4.36000000e-01	1.52654440e-02	1.44504763e-04
4.37000000e-01	1.52828679e-02	1.44756415e-04
4.38000000e-01	1.52731243e-02	1.45187975e-04
4.39000000e-01	1.52150014e-02	1.44435846e-04
4.40000000e-01	1.53841656e-02	1.46083011e-04
4.41000000e-01	1.51971040e-02	1.44709547e-04
4.42000000e-01	1.52765666e-02	1.45570204e-04
4.43000000e-01	1.52577531e-02	1.45621156e-04
4.44000000e-01	1.52996419e-02	1.46160178e-04
4.45000000e-01	1.53285013e-02	1.46754159e-04
4.46000000e-01	1.52960461e-02	1.46040934e-04
4.47000000e-01	1.50894328e-02	1.44715602e-04
4.48000000e-01	1.52451110e-02	1.46173247e-04
4.49000000e-01	1.53041324e-02	1.46427637e-04
4.50000000e-01	1.52595848e-02	1.46751854e-04
4.51000000e-01	1.49979960e-02	1.44464180e-04
4.52000000e-01	1.51702422e-02	1.46037297e-04
4.53000000e-01	1.52077532e-02	1.46486274e-04
4.54000000e-01	1.50264648e-02	1.45195406e-04
4.55000000e-01	1.50821761e-02	1.46142002e-04
4.56000000e-01	1.51020581e-02	1.46160346e-04
4.57000000e-01	1.50506151e-02	1.45404533e-04
4.58000000e-01	1.51062612e-02	1.46190225e-04
4.59000000e-01	1.50330647e-02	1.45628145e-04
4.60000000e-01	1.51585034e-02	1.47366251e-04
4.61000000e-01	1.51932630e-02	1.47449691e-04
4.62000000e-01	1.50546001e-02	1.46225599e-04
4.63000000e-01	1.49240400e-02	1.45410825e-04
4.64000000e-01	1.49361058e-02	1.45597554e-04
4.65000000e-01	1.49803528e-02	1.46073744e-04
4.66000000e-01	1.50005470e-02	1.45871688e-04
4.67000000e-01	1.50144681e-02	1.46179092e-04
4.68000000e-01	1.48957351e-02	1.45619405e-04
4.69000000e-01	1.49497843e-02	1.46160071e-04
4.70000000e-01	1.49533343e-02	1.45948848e-04
4.71000000e-01	1.49619468e-02	1.46569407e-04
4.72000000e-01	1.48723736e-02	1.45085162e-04
4.73000000e-01	1.49124956e-02	1.45975154e-04
4.74000000e-01	1.48835024e-02	1.45451814e-04
4.75000000e-01	1.48713025e-02	1.45376650e-04
4.76000000e-01	1.48694063e-02	1.45014535e-04
4.77000000e-01	1.48744214e-02	1.45287033e-04
4.78000000e-01	1.49375665e-02	1.46050993e-04
4.79000000e-01	1.48324905e-02	1.45162054e-04
4.80000000e-01	1.48804586e-02	1.45667076e-04
4.81000000e-01	1.48363076e-02	1.45192266e-04
4.82000000e-01	1.47427780e-02	1.44359200e-04
4.83000000e-01	1.47451534e-02	1.44998460e-04
4.84000000e-01	1.49544700e-02	1.46586683e-04
4.85000000e-01	1.48444080e-02	1.45932705e-04
4.86000000e-01	1.48955852e-02	1.46049450e-04
4.87000000e-01	1.47111145e-02	1.44363069e-04
4.88000000e-01	1.47804541e-02	1.45610761e-04
4.89000000e-01	1.47034632e-02	1.44774149e-04
4.90000000e-01	1.48476440e-02	1.45646122e-04
4.91000000e-01	1.47690861e-02	1.45559157e-04
4.92000000e-01	1.49479912e-02	1.46627756e-04
4.93000000e-01	1.47540574e-02	1.44943833e-04
4.94000000e-01	1.47922983e-02	1.45773987e-04
4.95000000e-01	1.46772681e-02	1.45726472e-04
4.96000000e-01	1.47268117e-02	1.50804958e-04
4.97000000e-01	1.48236675e-02	1.54180146e-04
4.98000000e-01	1.47367227e-02	1.55217189e-04
4.99000000e-01	1.46447007e-02	1.56716239e-04
5.00000000e-01	1.46282004e-02	1.58428259e-04
5.01000000e-01	1.47373327e-02	1.60623253e-04
5.02000000e-01	1.48212124e-02	1.63361343e-04
5.03000000e-01	1.46832912e-02	1.63004696e-04
5.04000000e-01	1.45897506e-02	1.63588177e-04
5.05000000e-01	1.46521646e-02	1.61128556e-04
5.06000000e-01	1.47634869e-02	1.59487420e-04
5.07000000e-01	1.45438228e-02	1.55247131e-04
5.08000000e-01	1.47795874e-02	1.56886245e-04
5.09000000e-01	1.46975577e-02	1.55471288e-04
5.10000000e-01	1.45373604e-02	1.53269013e-04
5.11000000e-01	1.46566888e-02	1.53807632e-04
5.12000000e-01	1.47087723e-02	1.53857614e-04
5.13000000e-01	1.45204427e-02	1.51746919e-04
5.14000000e-01	1.46497158e-02	1.53277094e-04
5.15000000e-01	1.46190365e-02	1.51977381e-04
5.16000000e-01	1.46524551e-02	1.52351315e-04
5.17000000e-01	1.45680848e-02	1.51578471e-04
5.18000000e-01	1.45638433e-02	1.50640309e-04
5.19000000e-01	1.46311505e-02	1.50989495e-04
5.20000000e-01	1.45323292e-02	1.50005827e-04
5.21000000e-01	1.46165410e-02	1.50356468e-04
5.22000000e-01	1.45840673e-02	1.49774126e-04
5.23000000e-01	1.44480974e-02	1.48626118e-04
5.24000000e-01	1.44823017e-02	1.49379608e-04
5.25000000e-01	1.43384886e-02	1.47807091e-04
5.26000000e-01	1.43340910e-02	1.47620495e-04
5.27000000e-01	1.44527614e-02	1.49003922e-04
5.28000000e-01	1.43968242e-02	1.47888758e-04
5.29000000e-01	1.44316482e-02	1.48685805e-04
5.30000000e-01	1.45339669e-02	1.49507752e-04
5.31000000e-01	1.43533650e-02	1.48172426e-04
5.32000000e-01	1.44953328e-02	1.49517992e-04
5.33000000e-01	1.43939522e-02	1.48167668e-04
5.34000000e-01	1.43709499e-02	1.48120792e-04
5.35000000e-01	1.44482585e-02	1.48439287e-04
5.36000000e-01	1.45117861e-02	1.48843666e-04
5.37000000e-01	1.43608301e-02	1.47823949e-04
5.38000000e-01	1.42739326e-02	1.46580800e-04
5.39000000e-01	1.44688799e-02	1.48666561e-04
5.40000000e-01	1.44024959e-02	1.47768807e-04
5.41000000e-01	1.42453786e-02	1.46495295e-04
5.42000000e-01	1.43841680e-02	1.48284317e-04
5.43000000e-01	1.42814310e-02	1.47150607e-04
5.44000000e-01	1.42463384e-02	1.46429009e-04
5.45000000e-01	1.44281857e-02	1.48246490e-04
5.46000000e-01	1.44312679e-02	1.48420574e-04
5.47000000e-01	1.41857626e-02	1.46114955e-04
5.48000000e-01	1.43775376e-02	1.48133827e-04
5.49000000e-01	1.42026558e-02	1.46163751e-04
5.50000000e-01	1.41467934e-02	1.45476609e-04
5.51000000e-01	1.42876928e-02	1.46436089e-04
5.52000000e-01	1.41657369e-02	1.45560357e-04
5.53000000e-01	1.42172757e-02	1.45463322e-04
5.54000000e-01	1.42236565e-02	1.45611836e-04
5.55000000e-01	1.42959094e-02	1.46075897e-04
5.56000000e-01	1.42005113e-02	1.45501397e-04
5.57000000e-01	1.41087413e-02	1.44306061e-04
5.58000000e-01	1.40378805e-02	1.43896759e-04
5.59000000e-01	1.41589877e-02	1.44919928e-04
5.60000000e-01	1.41480123e-02	1.45136461e-04
5.61000000e-01	1.41133184e-02	1.44528773e-04
5.62000000e-01	1.41083929e-02	1.44498217e-04
5.63000000e-01	1.40398762e-02	1.43781154e-04
5.64000000e-01	1.40434886e-02	1.43433619e-04
5.65000000e-01	1.40147351e-02	1.43714323e-04
5.66000000e-01	1.41961908e-02	1.45686308e-04
5.67000000e-01	1.40210629e-02	1.43563343e-04
5.68000000e-01	1.41119566e-02	1.44595791e-04
5.69000000e-01	1.39843276e-02	1.43245591e-04
5.70000000e-01	1.42084691e-02	1.45123393e-04
5.71000000e-01	1.40357983e-02	1.43589654e-04
5.72000000e-01	1.40899163e-02	1.44153568e-04
5.73000000e-01	1.41017101e-02	1.44884811e-04
5.74000000e-01	1.40300375e-02	1.43865100e-04
5.75000000e-01	1.39849622e-02	1.43567212e-04
5.76000000e-01	1.39353158e-02	1.42642418e-04
5.77000000e-01	1.38939394e-02	1.42279456e-04
5.78000000e-01	1.39932544e-02	1.43394534e-04
5.79000000e-01	1.39117923e-02	1.42649315e-04
5.80000000e-01	1.39869069e-02	1.43325718e-04
5.81000000e-01	1.39920125e-02	1.43333103e-04
5.82000000e-01	1.39911636e-02	1.43467775e-04
5.83000000e-01	1.38477996e-02	1.42364925e-04
5.84000000e-01	1.38936232e-02	1.42584764e-04
5.85000000e-01	1.37707436e-02	1.41830630e-04
5.86000000e-01	1.38777977e-02	1.42185628e-04
5.87000000e-01	1.38177971e-02	1.42164442e-04
5.88000000e-01	1.37618128e-02	1.41928606e-04
5.89000000e-01	1.38624657e-02	1.42756769e-04
5.90000000e-01	1.40341246e-02	1.43856994e-04
5.91000000e-01	1.38921832e-02	1.42771502e-04
5.92000000e-01	1.37508179e-02	1.41869482e-04
5.93000000e-01	1.37762475e-02	1.42199418e-04
5.94000000e-01	1.38415311e-02	1.42267244e-04
5.95000000e-01	1.37841071e-02	1.41605015e-04
5.96000000e-01	1.38162197e-02	1.42453954e-04
5.97000000e-01	1.36623480e-02	1.40968477e-04
5.98000000e-01	1.38051099e-02	1.42148166e-04
5.99000000e-01	1.37046153e-02	1.41562483e-04
6.00000000e-01	1.38015196e-02	1.42050713e-04
6.01000000e-01	1.37149265e-02	1.41710941e-04
6.02000000e-01	1.37126407e-02	1.41258013e-04
6.03000000e-01	1.37509589e-02	1.42153817e-04
6.04000000e-01	1.36452057e-02	1.40849263e-04
6.05000000e-01	1.36285416e-02	1.40636367e-04
6.06000000e-01	1.36495052e-02	1.40931381e-04
6.07000000e-01	1.36683616e-02	1.41133073e-04
6.08000000e-01	1.36336847e-02	1.40589166e-04
6.09000000e-01	1.37509379e-02	1.41845699e-04
6.10000000e-01	1.35711959e-02	1.40069136e-04
6.11000000e-01	1.37178131e-02	1.41454084e-04
6.12000000e-01	1.35865218e-02	1.40583403e-04
6.13000000e-01	1.37114490e-02	1.41962873e-04
6.14000000e-01	1.36714308e-02	1.41307828e-04
6.15000000e-01	1.37468296e-02	1.41964279e-04
6.16000000e-01	1.35873838e-02	1.40575678e-04
6.17000000e-01	1.36471978e-02	1.41207320e-04
6.18000000e-01	1.35555396e-02	1.40410031e-04
6.19000000e-01	1.36969546e-02	1.41205896e-04
6.20000000e-01	1.36115088e-02	1.40143301e-04
6.21000000e-01	1.33469970e-02	1.37581856e-04
6.22000000e-01	1.35524100e-02	1.39561604e-04
6.23000000e-01	1.36019532e-02	1.39536545e-04
6.24000000e-01	1.35651576e-02	1.38974189e-04
6.25000000e-01	1.33524637e-02	1.37382662e-04
6.26000000e-01	1.35020256e-02	1.38530088e-04
6.27000000e-01	1.36152019e-02	1.39612475e-04
6.28000000e-01	1.35256594e-02	1.38682177e-04
6.29000000e-01	1.35120056e-02	1.38677298e-04
6.30000000e-01	1.34001837e-02	1.37858578e-04
6.31000000e-01	1.33333757e-02	1.37287231e-04
6.32000000e-01	1.35427760e-02	1.39105543e-04
6.33000000e-01	1.35525094e-02	1.38926163e-04
6.34000000e-01	1.34190708e-02	1.41180417e-04
6.35000000e-01	1.35503649e-02	1.46615409e-04
6.36000000e-01	1.35337669e-02	1.49140105e-04
6.37000000e-01	1.35192739e-02	1.51595623e-04
6.38000000e-01	1.36303289e-02	1.54430833e-04
6.39000000e-01	1.35688274e-02	1.54898409e-04
6.40000000e-01	1.35068793e-02	1.57327761e-04
6.41000000e-01	1.35831871e-02	1.59705254e-04
6.42000000e-01	1.36060549e-02	1.61912817e-04
6.43000000e-01	1.36321951e-02	1.61595996e-04
6.44000000e-01	1.36316591e-02	1.55982841e-04
6.45000000e-01	1.36043672e-02	1.53446875e-04
6.46000000e-01	1.36782142e-02	1.53121726e-04
6.47000000e-01	1.35446790e-02	1.50804320e-04
6.48000000e-01	1.35134770e-02	1.49140312e-04
6.49000000e-01	1.33648797e-02	1.46722002e-04
6.50000000e-01	1.34116057e-02	1.46688413e-04
6.51000000e-01	1.36253681e-02	1.47885570e-04
6.52000000e-01	1.35240192e-02	1.46381863e-04
6.53000000e-01	1.33919389e-02	1.44504327e-04
6.54000000e-01	1.35675065e-02	1.45850782e-04
6.55000000e-01	1.34523381e-02	1.44460499e-04
6.56000000e-01	1.34243691e-02	1.44225299e-04
6.57000000e-01	1.34458009e-02	1.44375054e-04
6.58000000e-01	1.36083470e-02	1.45146323e-04
6.59000000e-01	1.34778053e-02	1.44118238e-04
6.60000000e-01	1.34855761e-02	1.44371386e-04
6.61000000e-01	1.34317754e-02	1.43693625e-04
6.62000000e-01	1.34087398e-02	1.43535184e-04
6.63000000e-01	1.34039016e-02	1.43324812e-04
6.64000000e-01	1.33997665e-02	1.42448721e-04
6.65000000e-01	1.34110580e-02	1.43032818e-04
6.66000000e-01	1.34423407e-02	1.42990660e-04
6.67000000e-01	1.33905647e-02	1.42802169e-04
6.68000000e-01	1.34084072e-02	1.42951024e-04
6.69000000e-01	1.34366071e-02	1.42865990e-04
6.70000000e-01	1.33709938e-02	1.42441476e-04
6.71000000e-01	1.33066439e-02	1.42006522e-04
6.72000000e-01	1.33988829e-02	1.42838148e-04
6.73000000e-01	1.33870322e-02	1.42590167e-04
6.74000000e-01	1.33246286e-02	1.41631578e-04
6.75000000e-01	1.33658485e-02	1.42162638e-04
6.76000000e-01	1.32887886e-02	1.41139093e-04
6.77000000e-01	1.33190669e-02	1.41474443e-04
6.78000000e-01	1.33204756e-02	1.41602128e-04
6.79000000e-01	1.31425936e-02	1.39865445e-04
6.80000000e-01	1.33195715e-02	1.41145953e-04
6.81000000e-01	1.33290525e-02	1.41068629e-04
6.82000000e-01	1.32036438e-02	1.40107106e-04
6.83000000e-01	1.31170482e-02	1.39144684e-04
6.84000000e-01	1.32207117e-02	1.40076525e-04
6.85000000e-01	1.31769559e-02	1.40056081e-04
6.86000000e-01	1.33330705e-02	1.40663392e-04
6.87000000e-01	1.31877310e-02	1.40179929e-04
6.88000000e-01	1.32387204e-02	1.40518619e-04
6.89000000e-01	1.31160270e-02	1.39108742e-04
6.90000000e-01	1.31712925e-02	1.39743040e-04
6.91000000e-01	1.32820437e-02	1.40778710e-04
6.92000000e-01	1.32244785e-02	1.40385760e-04
6.93000000e-01	1.31322465e-02	1.39639019e-04
6.94000000e-01	1.31684453e-02	1.39350076e-04
6.95000000e-01	1.30898583e-02	1.39057009e-04
6.96000000e-01	1.32671498e-02	1.40645448e-04
6.97000000e-01	1.31917226e-02	1.39853121e-04
6.98000000e-01	1.31003112e-02	1.39112172e-04
6.99000000e-01	1.31627038e-02	1.39083634e-04
7.00000000e-01	1.31555166e-02	1.39774908e-04
7.01000000e-01	1.31302432e-02	1.38910865e-04
7.02000000e-01	1.29950943e-02	1.37478060e-04
7.03000000e-01	1.31551544e-02	1.39339605e-04
7.04000000e-01	1.31042353e-02	1.38637399e-04
7.05000000e-01	1.31015927e-02	1.38927480e-04
7.06000000e-01	1.30491568e-02	1.38414774e-04
7.07000000e-01	1.31039802e-02	1.37983335e-04
7.08000000e-01	1.29476768e-02	1.36835138e-04
7.09000000e-01	1.29752983e-02	1.37752373e-04
7.10000000e-01	1.30242458e-02	1.37393968e-04
7.11000000e-01	1.29483549e-02	1.37275524e-04
7.12000000e-01	1.29062460e-02	1.36312547e-04
7.13000000e-01	1.29195004e-02	1.37079505e-04
7.14000000e-01	1.26866008e-02	1.34462546e-04
7.15000000e-01	1.29071093e-02	1.36508526e-04
7.16000000e-01	1.30043652e-02	1.37845202e-04
7.17000000e-01	1.29368746e-02	1.36969068e-04
7.18000000e-01	1.28072232e-02	1.35515983e-04
7.19000000e-01	1.27575163e-02	1.35718081e-04
7.20000000e-01	1.28333725e-02	1.36269649e-04
7.21000000e-01	1.29301990e-02	1.37095226e-04
7.22000000e-01	1.28936913e-02	1.36100287e-04
7.23000000e-01	1.29635304e-02	1.37174965e-04
7.24000000e-01	1.28617020e-02	1.36201198e-04
7.25000000e-01	1.29523971e-02	1.36922210e-04
7.26000000e-01	1.28907684e-02	1.36113490e-04
7.27000000e-01	1.27486157e-02	1.35066992e-04
7.28000000e-01	1.26266623e-02	1.34220850e-04
7.29000000e-01	1.26936662e-02	1.34973549e-04
7.30000000e-01	1.28566551e-02	1.36211335e-04
7.31000000e-01	1.27028794e-02	1.35154445e-04
7.32000000e-01	1.28011003e-02	1.36072778e-04
7.33000000e-01	1.27245736e-02	1.34941409e-04
7.34000000e-01	1.27740904e-02	1.34958045e-04
7.35000000e-01	1.27569614e-02	1.34798242e-04
7.36000000e-01	1.26825177e-02	1.33450405e-04
7.37000000e-01	1.26714390e-02	1.34127849e-04
7.38000000e-01	1.28363405e-02	1.34948523e-04
7.39000000e-01	1.28366889e-02	1.34785048e-04
7.40000000e-01	1.27005811e-02	1.33462227e-04
7.41000000e-01	1.27946447e-02	1.34070236e-04
7.42000000e-01	1.27088301e-02	1.33021852e-04
7.43000000e-01	1.27368960e-02	1.33577045e-04
7.44000000e-01	1.25907201e-02	1.32188207e-04
7.45000000e-01	1.26092182e-02	1.32582007e-04
7.46000000e-01	1.26509171e-02	1.33010078e-04
7.47000000e-01	1.26775412e-02	1.32736133e-04
7.48000000e-01	1.25940685e-02	1.32262878e-04
7.49000000e-01	1.26000624e-02	1.32485860e-04
7.50000000e-01	1.24450651e-02	1.30672044e-04
7.51000000e-01	1.26118348e-02	1.32531334e-04
7.52000000e-01	1.24868059e-02	1.31465172e-04
7.53000000e-01	1.24636511e-02	1.31300234e-04
7.54000000e-01	1.26121299e-02	1.32420689e-04
7.55000000e-01	1.25294089e-02	1.31345916e-04
7.56000000e-01	1.25915133e-02	1.32315552e-04
7.57000000e-01	1.26107040e-02	1.32753012e-04
7.58000000e-01	1.24822873e-02	1.31175112e-04
7.59000000e-01	1.24378043e-02	1.30614033e-04
7.60000000e-01	1.24279616e-02	1.30843137e-04
7.61000000e-01	1.23805793e-02	1.29669427e-04
7.62000000e-01	1.24324179e-02	1.29824450e-04
7.63000000e-01	1.24910416e-02	1.30417532e-04
7.64000000e-01	1.23252215e-02	1.28921856e-04
7.65000000e-01	1.23736800e-02	1.29283362e-04
7.66000000e-01	1.24866538e-02	1.29638473e-04
7.67000000e-01	1.24229192e-02	1.29463268e-04
7.68000000e-01	1.24302379e-02	1.29508038e-04
7.69000000e-01	1.24121789e-02	1.29613531e-04
7.70000000e-01	1.22872595e-02	1.28501098e-04
7.71000000e-01	1.24550224e-02	1.29889755e-04
7.72000000e-01	1.24208299e-02	1.33538950e-04
7.73000000e-01	1.24136302e-02	1.37439048e-04
7.74000000e-01	1.21869540e-02	1.38296132e-04
7.75000000e-01	1.23889110e-02	1.42295918e-04
7.76000000e-01	1.23035669e-02	1.43882481e-04
7.77000000e-01	1.22379393e-02	1.45133340e-04
7.78000000e-01	1.23196391e-02	1.47962463e-04
7.79000000e-01	1.22751029e-02	1.49578914e-04
7.80000000e-01	1.23132695e-02	1.51603411e-04
7.81000000e-01	1.22080734e-02	1.52253054e-04
7.82000000e-01	1.24257676e-02	1.55275304e-04
7.83000000e-01	1.22850456e-02	1.56598691e-04
7.84000000e-01	1.22015037e-02	1.56851150e-04
7.85000000e-01	1.22380533e-02	1.59050907e-04
7.86000000e-01	1.21017570e-02	1.59179269e-04
7.87000000e-01	1.20688813e-02	1.60077597e-04
7.88000000e-01	1.19660165e-02	1.60583964e-04
7.89000000e-01	1.22387188e-02	1.65518299e-04
7.90000000e-01	1.21124614e-02	1.64963931e-04
7.91000000e-01	1.21698066e-02	1.67772821e-04
7.92000000e-01	1.20837719e-02	1.68631095e-04
7.93000000e-01	1.20178331e-02	1.68906356e-04
7.94000000e-01	1.21047905e-02	1.72519308e-04
7.95000000e-01	1.21617920e-02	1.74330451e-04
7.96000000e-01	1.20121954e-02	1.75338227e-04
7.97000000e-01	1.19709451e-02	1.75867250e-04
7.98000000e-01	1.21784207e-02	1.80848709e-04
7.99000000e-01	1.20338254e-02	1.80295976e-04
8.00000000e-01	1.18655474e-02	1.79773513e-04
8.01000000e-01	1.19007468e-02	1.83289284e-04
8.02000000e-01	1.20238306e-02	1.85593136e-04
8.03000000e-01	1.19694014e-02	1.86789005e-04
8.04000000e-01	1.19389725e-02	1.89681410e-04
8.05000000e-01	1.18409721e-02	1.88886676e-04
8.06000000e-01	1.18553884e-02	1.92150433e-04
8.07000000e-01	1.19524187e-02	1.94717710e-04
8.08000000e-01	1.19588305e-02	1.97288640e-04
8.09000000e-01	1.18200633e-02	1.96720226e-04
8.10000000e-01	1.17332996e-02	1.97691777e-04
8.11000000e-01	1.18758606e-02	2.01991219e-04
8.12000000e-01	1.19430789e-02	2.05554385e-04
8.13000000e-01	1.19278590e-02	2.06919372e-04
8.14000000e-01	1.19018032e-02	2.11445785e-04
8.15000000e-01	1.20092023e-02	2.15157479e-04
8.16000000e-01	1.16260980e-02	2.10322268e-04
8.17000000e-01	1.15610230e-02	2.12374677e-04
8.18000000e-01	1.17034520e-02	2.18197057e-04
8.19000000e-01	1.18665368e-02	2.23442030e-04
8.20000000e-01	1.16929773e-02	2.23075603e-04
8.21000000e-01	1.16069283e-02	2.22786045e-04
8.22000000e-01	1.19452097e-02	2.32558643e-04
8.23000000e-01	1.17993809e-02	2.33143254e-04
8.24000000e-01	1.18609988e-02	2.38072579e-04
8.25000000e-01	1.18930729e-02	2.42369142e-04
8.26000000e-01	1.19861973e-02	2.52299525e-04
8.27000000e-01	1.21272607e-02	2.54540637e-04
8.28000000e-01	1.16662110e-02	2.48638740e-04
8.29000000e-01	1.18291776e-02	2.54488432e-04
8.30000000e-01	1.15696916e-02	2.54804463e-04
8.31000000e-01	1.16903544e-02	2.62258568e-04
8.32000000e-01	1.16455081e-02	2.63443442e-04
8.33000000e-01	1.14332057e-02	2.64829540e-04
8.34000000e-01	1.15986919e-02	2.72604750e-04
8.35000000e-01	1.16561652e-02	2.79127035e-04
8.36000000e-01	1.15451148e-02	2.80794181e-04
8.37000000e-01	1.14138873e-02	2.82957808e-04
8.38000000e-01	1.13801090e-02	2.88149238e-04
8.39000000e-01	1.13505150e-02	2.92481394e-04
8.40000000e-01	1.15578210e-02	3.03531321e-04
8.41000000e-01	1.12752563e-02	3.06468750e-04
8.42000000e-01	1.16189371e-02	3.19508175e-04
8.43000000e-01	1.15845235e-02	3.29377492e-04
8.44000000e-01	1.12484667e-02	3.26491234e-04
8.45000000e-01	1.13449558e-02	3.35747264e-04
8.46000000e-01	1.13245653e-02	3.47356837e-04
8.47000000e-01	1.12453148e-02	3.54677628e-04
8.48000000e-01	1.14301956e-02	3.72512018e-04
8.49000000e-01	1.11277648e-02	3.77302531e-04
8.50000000e-01	1.12442051e-02	3.86960323e-04
8.51000000e-01	1.14489659e-02	4.06103369e-04
8.52000000e-01	1.12888566e-02	4.20029905e-04
8.53000000e-01	1.14023065e-02	4.41635558e-04
8.54000000e-01	1.10100389e-02	4.49678760e-04
8.55000000e-01	1.14161534e-02	4.85243045e-04
8.56000000e-01	1.09116072e-02	4.72179482e-04
8.57000000e-01	1.12237766e-02	5.01642119e-04
8.58000000e-01	1.14703275e-02	5.26947887e-04
8.59000000e-01	1.12117449e-02	5.29062588e-04
8.60000000e-01	1.10524877e-02	5.37164364e-04
8.61000000e-01	1.06616247e-02	5.45802643e-04
8.62000000e-01	1.07659916e-02	5.61710985e-04
8.63000000e-01	1.10404712e-02	6.13292956e-04
8.64000000e-01	1.11846520e-02	6.37564235e-04
8.65000000e-01	1.03870942e-02	6.36248498e-04
8.66000000e-01	1.05992715e-02	6.77208206e-04
8.67000000e-01	1.17533971e-02	7.68729860e-04
8.68000000e-01	1.13586946e-02	7.82888044e-04
8.69000000e-01	1.09399894e-02	8.26276832e-04
8.70000000e-01	1.03487353e-02	8.68782710e-04
8.71000000e-01	1.04687930e-02	9.52249784e-04
8.72000000e-01	1.13438811e-02	1.15553627e-03
8.73000000e-01	1.13060758e-02	1.35347612e-03
8.74000000e-01	1.08929563e-02	1.75426368e-03
8.75000000e-01	1.10828885e-02	3.24633958e-03
