% Filename : SEC8_00040_00010.h5
% Date & Time : 30-Oct-2025 17:51:41
% X-ray Energy (keV) : 13.30001
% Exposure Time (s) : 0.500
% Beam Center : 1461.24000, 208.98300
% Sample to Detector Distance (SDD) (mm) : 1990.750
% Detector Pixel Size (mm) : 0.075
% Photodiode Value : 141297.000
% I0 of Sample : 0
% I0 of Standard : 1
% 
% q(A^-1)   I(q)    I(q)_SE
0.00000000e+00	1.02290284e-02	6.51974879e-03
2.50000000e-04	0.00000000e+00	0.00000000e+00
5.00000000e-04	0.00000000e+00	0.00000000e+00
7.50000000e-04	0.00000000e+00	0.00000000e+00
1.00000000e-03	0.00000000e+00	0.00000000e+00
1.25000000e-03	0.00000000e+00	0.00000000e+00
1.50000000e-03	0.00000000e+00	0.00000000e+00
1.75000000e-03	0.00000000e+00	0.00000000e+00
2.00000000e-03	0.00000000e+00	0.00000000e+00
2.25000000e-03	0.00000000e+00	0.00000000e+00
2.50000000e-03	0.00000000e+00	0.00000000e+00
2.75000000e-03	0.00000000e+00	0.00000000e+00
3.00000000e-03	0.00000000e+00	0.00000000e+00
3.25000000e-03	6.26983634e+02	3.93260560e+02
3.50000000e-03	2.44325390e+02	7.25474175e+01
3.75000000e-03	1.72784764e+02	4.04413788e+01
4.00000000e-03	1.32650258e+02	2.70491449e+01
4.25000000e-03	9.67031320e+01	1.52036303e+01
4.50000000e-03	8.72763235e+01	1.26266752e+01
4.75000000e-03	7.65834670e+01	1.02803555e+01
5.00000000e-03	6.06686203e+01	7.72608919e+00
5.25000000e-03	4.78108228e+01	5.99702805e+00
5.50000000e-03	3.90393226e+01	4.79841211e+00
5.75000000e-03	3.36517383e+01	4.07404945e+00
6.00000000e-03	2.78865957e+01	3.27088595e+00
6.25000000e-03	2.42735360e+01	2.81804111e+00
6.50000000e-03	2.07826281e+01	2.40660911e+00
6.75000000e-03	1.75625380e+01	1.89087488e+00
7.00000000e-03	1.54419334e+01	1.62124495e+00
7.25000000e-03	1.33789302e+01	1.37243410e+00
7.50000000e-03	1.17401614e+01	1.17401353e+00
7.75000000e-03	1.03092443e+01	1.00271088e+00
8.00000000e-03	9.48326559e+00	9.09846604e-01
8.25000000e-03	8.29452058e+00	7.67537760e-01
8.50000000e-03	7.52059110e+00	6.85808157e-01
8.75000000e-03	6.70371998e+00	6.06698579e-01
9.00000000e-03	6.00737979e+00	5.29953482e-01
9.25000000e-03	5.50020775e+00	4.67709275e-01
9.50000000e-03	4.97306655e+00	4.17555169e-01
9.75000000e-03	4.44620268e+00	3.69062432e-01
1.00000000e-02	3.97892291e+00	3.18713785e-01
1.02500000e-02	3.80202999e+00	3.06937186e-01
1.05000000e-02	3.44859993e+00	2.68069567e-01
1.07500000e-02	3.19575736e+00	2.45515637e-01
1.10000000e-02	2.94192590e+00	2.20904419e-01
1.12500000e-02	2.70514765e+00	2.04920055e-01
1.15000000e-02	2.51836060e+00	1.86836464e-01
1.17500000e-02	2.32093776e+00	1.66598920e-01
1.20000000e-02	2.14851462e+00	1.54364282e-01
1.22500000e-02	2.00368719e+00	1.41982387e-01
1.25000000e-02	1.89899254e+00	1.32647774e-01
1.27500000e-02	1.78374488e+00	1.23174374e-01
1.30000000e-02	1.65383068e+00	1.12963897e-01
1.32500000e-02	1.52884543e+00	1.01667002e-01
1.35000000e-02	1.43295725e+00	9.56304048e-02
1.37500000e-02	1.33827545e+00	8.88611607e-02
1.40000000e-02	1.27042273e+00	8.33062797e-02
1.42500000e-02	1.16726788e+00	7.53421757e-02
1.45000000e-02	1.10090398e+00	7.05478922e-02
1.47500000e-02	1.02552700e+00	6.50793556e-02
1.50000000e-02	9.81899203e-01	6.19402031e-02
1.52500000e-02	9.36447665e-01	5.79661654e-02
1.55000000e-02	8.70433976e-01	5.28380764e-02
1.57500000e-02	8.10389793e-01	4.93707651e-02
1.60000000e-02	7.70555324e-01	4.60022643e-02
1.62500000e-02	7.29163469e-01	4.43821240e-02
1.65000000e-02	7.03152049e-01	4.16650262e-02
1.67500000e-02	6.50102182e-01	3.81673666e-02
1.70000000e-02	6.15112716e-01	3.60521151e-02
1.72500000e-02	5.84427029e-01	3.39115406e-02
1.75000000e-02	5.46371667e-01	3.17104735e-02
1.77500000e-02	5.19761068e-01	2.95716968e-02
1.80000000e-02	5.03681421e-01	2.89704859e-02
1.82500000e-02	4.66854119e-01	2.60861632e-02
1.85000000e-02	4.51120977e-01	2.56790734e-02
1.87500000e-02	4.27991491e-01	2.39193667e-02
1.90000000e-02	4.14241408e-01	2.31407717e-02
1.92500000e-02	3.86321789e-01	2.11828182e-02
1.95000000e-02	3.69905004e-01	1.99558462e-02
1.97500000e-02	3.56816392e-01	1.94609307e-02
2.00000000e-02	3.35994944e-01	1.80384810e-02
2.02500000e-02	3.20711361e-01	1.71119515e-02
2.05000000e-02	3.09348330e-01	1.62639077e-02
2.07500000e-02	2.90392088e-01	1.51631112e-02
2.10000000e-02	2.81698740e-01	1.48722477e-02
2.12500000e-02	2.69211901e-01	1.42276924e-02
2.15000000e-02	2.55943165e-01	1.35208999e-02
2.17500000e-02	2.43780550e-01	1.28801595e-02
2.20000000e-02	2.35737708e-01	1.24856383e-02
2.22500000e-02	2.25228400e-01	1.19073897e-02
2.25000000e-02	2.21740334e-01	1.16122907e-02
2.27500000e-02	2.11623624e-01	1.10598968e-02
2.30000000e-02	2.03842044e-01	1.07812079e-02
2.32500000e-02	1.97796672e-01	1.02758784e-02
2.35000000e-02	1.90454594e-01	1.00686552e-02
2.37500000e-02	1.82138210e-01	9.52846877e-03
2.40000000e-02	1.75298844e-01	9.11810169e-03
2.42500000e-02	1.69289555e-01	8.69474226e-03
2.45000000e-02	1.65174299e-01	8.52307114e-03
2.47500000e-02	1.58691291e-01	8.04994569e-03
2.50000000e-02	1.54466170e-01	7.82332126e-03
2.52500000e-02	1.52318454e-01	7.79057982e-03
2.55000000e-02	1.46895641e-01	7.30852072e-03
2.57500000e-02	1.42177738e-01	7.12225477e-03
2.60000000e-02	1.35533298e-01	6.75330060e-03
2.62500000e-02	1.32882701e-01	6.69035616e-03
2.65000000e-02	1.30101789e-01	6.43925306e-03
2.67500000e-02	1.25491393e-01	6.18252776e-03
2.70000000e-02	1.21894555e-01	6.02157496e-03
2.72500000e-02	1.19461830e-01	5.83718564e-03
2.75000000e-02	1.16069431e-01	5.74216376e-03
2.77500000e-02	1.11184269e-01	5.47186238e-03
2.80000000e-02	1.10308044e-01	5.29799704e-03
2.82500000e-02	1.08865562e-01	5.26697363e-03
2.85000000e-02	1.04590822e-01	5.01373979e-03
2.87500000e-02	1.02274887e-01	4.97869241e-03
2.90000000e-02	1.02101326e-01	4.93425128e-03
2.92500000e-02	9.86297051e-02	4.57615258e-03
2.95000000e-02	9.89309381e-02	4.70678233e-03
2.97500000e-02	9.43338035e-02	4.44067015e-03
3.00000000e-02	9.29077882e-02	4.38706177e-03
3.02500000e-02	9.04496272e-02	4.25520581e-03
3.05000000e-02	9.02842568e-02	4.14013121e-03
3.07500000e-02	8.66062947e-02	4.04618625e-03
3.10000000e-02	8.61055286e-02	4.01621509e-03
3.12500000e-02	8.37258576e-02	3.90479105e-03
3.15000000e-02	8.15544826e-02	3.76101508e-03
3.17500000e-02	8.02215558e-02	3.61120027e-03
3.20000000e-02	7.93596159e-02	3.64843376e-03
3.22500000e-02	7.68724441e-02	3.53663383e-03
3.25000000e-02	7.57528505e-02	3.46521596e-03
3.27500000e-02	7.35901029e-02	3.32439101e-03
3.30000000e-02	7.40748174e-02	3.31982537e-03
3.32500000e-02	7.07196741e-02	3.16679908e-03
3.35000000e-02	7.15439875e-02	3.27153204e-03
3.37500000e-02	7.00271849e-02	3.16902637e-03
3.40000000e-02	6.85273188e-02	3.07652343e-03
3.42500000e-02	6.80977912e-02	3.02735637e-03
3.45000000e-02	6.63255088e-02	2.97395177e-03
3.47500000e-02	6.42959387e-02	2.83354686e-03
3.50000000e-02	6.35608742e-02	2.83232627e-03
3.52500000e-02	6.31311291e-02	2.80975984e-03
3.55000000e-02	6.15742566e-02	2.68567391e-03
3.57500000e-02	5.96777565e-02	2.63694177e-03
3.60000000e-02	5.80811115e-02	2.56065206e-03
3.62500000e-02	5.88643410e-02	2.59788897e-03
3.65000000e-02	5.66077073e-02	2.47673228e-03
3.67500000e-02	5.72180363e-02	2.49892275e-03
3.70000000e-02	5.55372700e-02	2.40759483e-03
3.72500000e-02	5.50629150e-02	2.39014116e-03
3.75000000e-02	5.42632192e-02	2.36466029e-03
3.77500000e-02	5.56735170e-02	2.40220426e-03
3.80000000e-02	5.21144710e-02	2.25440584e-03
3.82500000e-02	5.17087243e-02	2.22146204e-03
3.85000000e-02	5.20208638e-02	2.25230139e-03
3.87500000e-02	5.11904643e-02	2.18425854e-03
3.90000000e-02	5.03760779e-02	2.16488772e-03
3.92500000e-02	4.97804459e-02	2.11177482e-03
3.95000000e-02	4.96466750e-02	2.10197188e-03
3.97500000e-02	4.89915402e-02	2.08899877e-03
4.00000000e-02	4.79685251e-02	2.02586872e-03
4.02500000e-02	4.66108238e-02	1.97685091e-03
4.05000000e-02	4.76840295e-02	2.02291991e-03
4.07500000e-02	4.54958569e-02	1.90735221e-03
4.10000000e-02	4.61583447e-02	1.95796092e-03
4.12500000e-02	4.60235129e-02	1.93171452e-03
4.15000000e-02	4.55724096e-02	1.88897075e-03
4.17500000e-02	4.52910438e-02	1.88718621e-03
4.20000000e-02	4.46505955e-02	1.84366456e-03
4.22500000e-02	4.41721928e-02	1.82965013e-03
4.25000000e-02	4.31332856e-02	1.78780712e-03
4.27500000e-02	4.29563810e-02	1.76021318e-03
4.30000000e-02	4.26744870e-02	1.75429804e-03
4.32500000e-02	4.22305218e-02	1.73099172e-03
4.35000000e-02	4.09593107e-02	1.68699463e-03
4.37500000e-02	4.11093022e-02	1.66741458e-03
4.40000000e-02	4.15864781e-02	1.70174351e-03
4.42500000e-02	4.03162642e-02	1.64376167e-03
4.45000000e-02	3.96810730e-02	1.59949964e-03
4.47500000e-02	3.99141585e-02	1.61336860e-03
4.50000000e-02	3.96941315e-02	1.60110149e-03
4.52500000e-02	3.88705181e-02	1.57288751e-03
4.55000000e-02	3.88901888e-02	1.56744727e-03
4.57500000e-02	3.96790103e-02	1.59128705e-03
4.60000000e-02	3.80735094e-02	1.54239430e-03
4.62500000e-02	3.76807440e-02	1.51783602e-03
4.65000000e-02	3.74580267e-02	1.49239894e-03
4.67500000e-02	3.75418092e-02	1.48001112e-03
4.70000000e-02	3.72815340e-02	1.48880092e-03
4.72500000e-02	3.70806612e-02	1.46270769e-03
4.75000000e-02	3.62081315e-02	1.45880192e-03
4.77500000e-02	3.59505702e-02	1.41780553e-03
4.80000000e-02	3.64180371e-02	1.44177373e-03
4.82500000e-02	3.53184328e-02	1.39297135e-03
4.85000000e-02	3.56927220e-02	1.42082885e-03
4.87500000e-02	3.55376108e-02	1.38750284e-03
4.90000000e-02	3.56369109e-02	1.39449741e-03
4.92500000e-02	3.48351580e-02	1.36164486e-03
4.95000000e-02	3.45152647e-02	1.35219554e-03
4.97500000e-02	3.46038961e-02	1.36000218e-03
5.00000000e-02	3.41257402e-02	1.32833964e-03
5.02500000e-02	3.43585659e-02	1.33003190e-03
5.05000000e-02	3.39672018e-02	1.30992475e-03
5.07500000e-02	3.26163616e-02	1.26742857e-03
5.10000000e-02	3.28995884e-02	1.28212663e-03
5.12500000e-02	3.36555982e-02	1.31010584e-03
5.15000000e-02	3.29261782e-02	1.26256849e-03
5.17500000e-02	3.27663504e-02	1.27190283e-03
5.20000000e-02	3.32929054e-02	1.26996348e-03
5.22500000e-02	3.30506481e-02	1.28126904e-03
5.25000000e-02	3.20700612e-02	1.21922712e-03
5.27500000e-02	3.12749465e-02	1.19343753e-03
5.30000000e-02	3.15890475e-02	1.20655604e-03
5.32500000e-02	3.12273625e-02	1.19555062e-03
5.35000000e-02	3.13400984e-02	1.19445104e-03
5.37500000e-02	3.23471143e-02	1.21827558e-03
5.40000000e-02	3.19421524e-02	1.20562475e-03
5.42500000e-02	3.12231503e-02	1.17446598e-03
5.45000000e-02	3.02539653e-02	1.14853254e-03
5.47500000e-02	3.09936109e-02	1.16075944e-03
5.50000000e-02	3.09024589e-02	1.17476563e-03
5.52500000e-02	3.08561836e-02	1.15766669e-03
5.55000000e-02	3.05064528e-02	1.13444313e-03
5.57500000e-02	2.95012782e-02	1.11490348e-03
5.60000000e-02	2.98914654e-02	1.11613579e-03
5.62500000e-02	2.97188087e-02	1.11647833e-03
5.65000000e-02	3.02775433e-02	1.12184875e-03
5.67500000e-02	3.01272632e-02	1.12608322e-03
5.70000000e-02	2.94049013e-02	1.09612695e-03
5.72500000e-02	2.93332951e-02	1.08280832e-03
5.75000000e-02	2.93552784e-02	1.08859712e-03
5.77500000e-02	2.88532674e-02	1.05368667e-03
5.80000000e-02	2.91592145e-02	1.08347303e-03
5.82500000e-02	2.88256125e-02	1.06436931e-03
5.85000000e-02	2.85527712e-02	1.05396322e-03
5.87500000e-02	2.88751832e-02	1.05427763e-03
5.90000000e-02	2.86163408e-02	1.05282935e-03
5.92500000e-02	2.96232633e-02	1.08219286e-03
5.95000000e-02	2.84469839e-02	1.04644748e-03
5.97500000e-02	2.76740871e-02	1.01271984e-03
6.00000000e-02	2.79053511e-02	1.01892345e-03
6.02500000e-02	2.80144403e-02	1.01675468e-03
6.05000000e-02	2.75801460e-02	9.97824200e-04
6.07500000e-02	2.78278059e-02	1.00699443e-03
6.10000000e-02	2.68080732e-02	9.82381543e-04
6.12500000e-02	2.70224913e-02	9.80299059e-04
6.15000000e-02	2.72723779e-02	9.87375921e-04
6.17500000e-02	2.66911866e-02	9.66978438e-04
6.20000000e-02	2.72785511e-02	9.80555680e-04
6.22500000e-02	2.72275710e-02	9.83697049e-04
6.25000000e-02	2.61895393e-02	9.36305256e-04
6.27500000e-02	2.67941651e-02	9.58124364e-04
6.30000000e-02	2.71743268e-02	9.72303020e-04
6.32500000e-02	2.62924180e-02	9.46289416e-04
6.35000000e-02	2.67695698e-02	9.55109935e-04
6.37500000e-02	2.62497127e-02	9.40689421e-04
6.40000000e-02	2.63089170e-02	9.35913335e-04
6.42500000e-02	2.69723948e-02	9.52411162e-04
6.45000000e-02	2.64299496e-02	9.40038952e-04
6.47500000e-02	2.62395399e-02	9.30623868e-04
6.50000000e-02	2.62236094e-02	9.30644637e-04
6.52500000e-02	2.63383829e-02	9.25102307e-04
6.55000000e-02	2.65248413e-02	9.40456133e-04
6.57500000e-02	2.53329620e-02	9.00843675e-04
6.60000000e-02	2.57370972e-02	9.04392483e-04
6.62500000e-02	2.70302576e-02	9.52089774e-04
6.65000000e-02	2.61755180e-02	9.09369949e-04
6.67500000e-02	2.66803506e-02	9.29877379e-04
6.70000000e-02	2.52426970e-02	8.87911649e-04
6.72500000e-02	2.57706174e-02	9.05173482e-04
6.75000000e-02	2.54570106e-02	8.82447798e-04
6.77500000e-02	2.59506726e-02	9.06877241e-04
6.80000000e-02	2.55112957e-02	8.98408270e-04
6.82500000e-02	2.56670809e-02	8.91580434e-04
6.85000000e-02	2.51172381e-02	8.77536901e-04
6.87500000e-02	2.52184977e-02	8.68181537e-04
6.90000000e-02	2.48070154e-02	8.55235100e-04
6.92500000e-02	2.49008943e-02	8.59642728e-04
6.95000000e-02	2.52440348e-02	8.75183794e-04
6.97500000e-02	2.49849070e-02	8.61646389e-04
7.00000000e-02	2.50478539e-02	8.63055956e-04
7.02500000e-02	2.49015137e-02	8.51127358e-04
7.05000000e-02	2.44566887e-02	8.36087660e-04
7.07500000e-02	2.55939948e-02	8.78952676e-04
7.10000000e-02	2.50754967e-02	8.55492067e-04
7.12500000e-02	2.48390991e-02	8.51270939e-04
7.15000000e-02	2.46296670e-02	8.42024795e-04
7.17500000e-02	2.52621106e-02	8.59806688e-04
7.20000000e-02	2.46129041e-02	8.44132102e-04
7.22500000e-02	2.49501044e-02	8.52217002e-04
7.25000000e-02	2.42233516e-02	8.24202366e-04
7.27500000e-02	2.49739392e-02	8.50577753e-04
7.30000000e-02	2.46226815e-02	8.39036571e-04
7.32500000e-02	2.44212683e-02	8.20229741e-04
7.35000000e-02	2.43455845e-02	8.26501734e-04
7.37500000e-02	2.41529181e-02	8.13648701e-04
7.40000000e-02	2.38131632e-02	8.04960372e-04
7.42500000e-02	2.38308690e-02	8.03686993e-04
7.45000000e-02	2.37461797e-02	7.96476289e-04
7.47500000e-02	2.40078997e-02	7.98824598e-04
7.50000000e-02	2.32613971e-02	7.85465476e-04
7.52500000e-02	2.44378762e-02	8.21273399e-04
7.55000000e-02	2.37156448e-02	7.88166212e-04
7.57500000e-02	2.39690053e-02	8.02096955e-04
7.60000000e-02	2.36768255e-02	7.87647714e-04
7.62500000e-02	2.33943320e-02	7.85741344e-04
7.65000000e-02	2.38421966e-02	7.92696140e-04
7.67500000e-02	2.39660756e-02	7.98065457e-04
7.70000000e-02	2.38490419e-02	7.88115114e-04
7.72500000e-02	2.40381171e-02	8.06223251e-04
7.75000000e-02	2.27928886e-02	7.77923829e-04
7.77500000e-02	2.40980096e-02	8.23930779e-04
7.80000000e-02	2.35648568e-02	8.01458195e-04
7.82500000e-02	2.32347346e-02	8.06265023e-04
7.85000000e-02	2.37883196e-02	8.29909228e-04
7.87500000e-02	2.36217883e-02	8.20554572e-04
7.90000000e-02	2.35504095e-02	8.21801159e-04
7.92500000e-02	2.31230723e-02	8.12180773e-04
7.95000000e-02	2.41612093e-02	8.47307625e-04
7.97500000e-02	2.41157504e-02	8.50943752e-04
8.00000000e-02	2.35663699e-02	8.30360132e-04
8.02500000e-02	2.33171726e-02	8.21675879e-04
8.05000000e-02	2.39700301e-02	8.48637216e-04
8.07500000e-02	2.32831102e-02	8.34171368e-04
8.10000000e-02	2.35624858e-02	8.40092373e-04
8.12500000e-02	2.33476402e-02	8.37176745e-04
8.15000000e-02	2.38367089e-02	8.46381525e-04
8.17500000e-02	2.37640949e-02	8.52227356e-04
8.20000000e-02	2.32446693e-02	8.33608180e-04
8.22500000e-02	2.29622012e-02	8.18593839e-04
8.25000000e-02	2.28921857e-02	8.25681154e-04
8.27500000e-02	2.33326941e-02	8.30948053e-04
8.30000000e-02	2.22026238e-02	8.05529094e-04
8.32500000e-02	2.30957497e-02	8.35780299e-04
8.35000000e-02	2.31112120e-02	8.50283230e-04
8.37500000e-02	2.31548849e-02	8.32026050e-04
8.40000000e-02	2.32944846e-02	8.46593935e-04
8.42500000e-02	2.29260709e-02	8.31772197e-04
8.45000000e-02	2.31187791e-02	8.44107843e-04
8.47500000e-02	2.29762670e-02	8.43280817e-04
8.50000000e-02	2.25434313e-02	8.23298942e-04
8.52500000e-02	2.22540018e-02	8.26975064e-04
8.55000000e-02	2.33744914e-02	8.49769147e-04
8.57500000e-02	2.17956208e-02	8.06831878e-04
8.60000000e-02	2.27245625e-02	8.31889913e-04
8.62500000e-02	2.22965068e-02	8.18848158e-04
8.65000000e-02	2.25340086e-02	8.24989811e-04
8.67500000e-02	2.23277272e-02	8.16142299e-04
8.70000000e-02	2.27586329e-02	8.17131459e-04
8.72500000e-02	2.22960764e-02	7.88697969e-04
8.75000000e-02	2.28088225e-02	7.96290399e-04
8.77500000e-02	2.24218342e-02	7.75249983e-04
8.80000000e-02	2.21422392e-02	7.77715810e-04
8.82500000e-02	2.26126316e-02	7.82377006e-04
8.85000000e-02	2.20704293e-02	7.69569678e-04
8.87500000e-02	2.24865119e-02	7.65023392e-04
8.90000000e-02	2.26669869e-02	7.73961750e-04
8.92500000e-02	2.22334534e-02	7.53546249e-04
8.95000000e-02	2.25553619e-02	7.63488505e-04
8.97500000e-02	2.23932130e-02	7.51634478e-04
9.00000000e-02	2.19786039e-02	7.42589694e-04
9.02500000e-02	2.21216887e-02	7.45438258e-04
9.05000000e-02	2.15854907e-02	7.25565470e-04
9.07500000e-02	2.22392713e-02	7.41746880e-04
9.10000000e-02	2.24557284e-02	7.47489143e-04
9.12500000e-02	2.21394970e-02	7.40986469e-04
9.15000000e-02	2.24714440e-02	7.48900392e-04
9.17500000e-02	2.22575844e-02	7.37981085e-04
9.20000000e-02	2.22401135e-02	7.37433429e-04
9.22500000e-02	2.23828398e-02	7.37251895e-04
9.25000000e-02	2.25717716e-02	7.44494395e-04
9.27500000e-02	2.19441751e-02	7.22782534e-04
9.30000000e-02	2.18611611e-02	7.16196015e-04
9.32500000e-02	2.27145563e-02	7.43187321e-04
9.35000000e-02	2.27899779e-02	7.46222310e-04
9.37500000e-02	2.24920571e-02	7.28389999e-04
9.40000000e-02	2.19884944e-02	7.14505418e-04
9.42500000e-02	2.20953413e-02	7.12183072e-04
9.45000000e-02	2.19283100e-02	7.13689262e-04
9.47500000e-02	2.25450770e-02	7.34560574e-04
9.50000000e-02	2.17418276e-02	7.00160305e-04
9.52500000e-02	2.24176458e-02	7.18281188e-04
9.55000000e-02	2.21624029e-02	7.14059606e-04
9.57500000e-02	2.18127171e-02	7.04450581e-04
9.60000000e-02	2.18055340e-02	6.96226200e-04
9.62500000e-02	2.24077846e-02	7.15850748e-04
9.65000000e-02	2.18238218e-02	6.98265618e-04
9.67500000e-02	2.18979196e-02	6.97468333e-04
9.70000000e-02	2.19860567e-02	6.96256866e-04
9.72500000e-02	2.23695146e-02	7.07246467e-04
9.75000000e-02	2.15989978e-02	6.86311178e-04
9.77500000e-02	2.22238154e-02	6.94013265e-04
9.80000000e-02	2.12685992e-02	6.73679051e-04
9.82500000e-02	2.13958292e-02	6.81664015e-04
9.85000000e-02	2.22198948e-02	6.99085391e-04
9.87500000e-02	2.22224860e-02	6.95587417e-04
9.90000000e-02	2.18441557e-02	6.84099494e-04
9.92500000e-02	2.19283179e-02	6.87863368e-04
9.95000000e-02	2.20529307e-02	6.91135523e-04
9.97500000e-02	2.16382453e-02	6.79579373e-04
1.00000000e-01	2.14352481e-02	5.48188139e-04
1.00500000e-01	2.16363372e-02	4.79082942e-04
1.01000000e-01	2.14980746e-02	4.72474517e-04
1.01500000e-01	2.16289637e-02	4.77620690e-04
1.02000000e-01	2.18189131e-02	4.78197294e-04
1.02500000e-01	2.15394613e-02	4.69670070e-04
1.03000000e-01	2.15969372e-02	4.69133494e-04
1.03500000e-01	2.16790192e-02	4.68704222e-04
1.04000000e-01	2.19683585e-02	4.75650048e-04
1.04500000e-01	2.16835916e-02	4.67776354e-04
1.05000000e-01	2.16778783e-02	4.65770653e-04
1.05500000e-01	2.12875214e-02	4.56835176e-04
1.06000000e-01	2.15776626e-02	4.61216850e-04
1.06500000e-01	2.17601714e-02	4.61632821e-04
1.07000000e-01	2.17493769e-02	4.69169566e-04
1.07500000e-01	2.18463524e-02	4.81381387e-04
1.08000000e-01	2.16980416e-02	4.82563212e-04
1.08500000e-01	2.15496552e-02	4.83248536e-04
1.09000000e-01	2.14406955e-02	4.81960772e-04
1.09500000e-01	2.14966739e-02	4.87786654e-04
1.10000000e-01	2.15627979e-02	4.81322469e-04
1.10500000e-01	2.10505353e-02	4.61763605e-04
1.11000000e-01	2.17430153e-02	4.68357984e-04
1.11500000e-01	2.15605397e-02	4.62013643e-04
1.12000000e-01	2.14145160e-02	4.56315231e-04
1.12500000e-01	2.15774745e-02	4.51540073e-04
1.13000000e-01	2.12556909e-02	4.46562282e-04
1.13500000e-01	2.14377646e-02	4.48281663e-04
1.14000000e-01	2.13928145e-02	4.48414339e-04
1.14500000e-01	2.10580777e-02	4.40213314e-04
1.15000000e-01	2.11499493e-02	4.38473219e-04
1.15500000e-01	2.14359564e-02	4.43218182e-04
1.16000000e-01	2.13495890e-02	4.40412828e-04
1.16500000e-01	2.16181075e-02	4.44815388e-04
1.17000000e-01	2.14002291e-02	4.39443876e-04
1.17500000e-01	2.11586468e-02	4.33770317e-04
1.18000000e-01	2.08767838e-02	4.30172854e-04
1.18500000e-01	2.10875222e-02	4.31266840e-04
1.19000000e-01	2.12066814e-02	4.32638968e-04
1.19500000e-01	2.08939013e-02	4.26026412e-04
1.20000000e-01	2.08748907e-02	4.23120875e-04
1.20500000e-01	2.09301145e-02	4.23206813e-04
1.21000000e-01	2.04332175e-02	4.13754672e-04
1.21500000e-01	2.11812398e-02	4.26541752e-04
1.22000000e-01	2.09890411e-02	4.20509234e-04
1.22500000e-01	2.10048232e-02	4.19778409e-04
1.23000000e-01	2.10811284e-02	4.23646110e-04
1.23500000e-01	2.08797338e-02	4.15781093e-04
1.24000000e-01	2.09280758e-02	4.17633989e-04
1.24500000e-01	2.10130090e-02	4.18166160e-04
1.25000000e-01	2.10026777e-02	4.16608999e-04
1.25500000e-01	2.13055659e-02	4.20031092e-04
1.26000000e-01	2.12876915e-02	4.21177791e-04
1.26500000e-01	2.08257402e-02	4.11782700e-04
1.27000000e-01	2.11525330e-02	4.15181277e-04
1.27500000e-01	2.09521356e-02	4.11931516e-04
1.28000000e-01	2.12979164e-02	4.17309783e-04
1.28500000e-01	2.09560121e-02	4.09710459e-04
1.29000000e-01	2.09361871e-02	4.07940494e-04
1.29500000e-01	2.09473313e-02	4.08969019e-04
1.30000000e-01	2.09441000e-02	4.06562302e-04
1.30500000e-01	2.07765881e-02	4.03997794e-04
1.31000000e-01	2.09425859e-02	4.05089463e-04
1.31500000e-01	2.08991666e-02	4.05149673e-04
1.32000000e-01	2.11304056e-02	4.06560305e-04
1.32500000e-01	2.06983025e-02	3.98164996e-04
1.33000000e-01	2.05483230e-02	3.95933206e-04
1.33500000e-01	2.10891157e-02	4.01844452e-04
1.34000000e-01	2.06446781e-02	3.94028791e-04
1.34500000e-01	2.10741869e-02	4.00148672e-04
1.35000000e-01	2.02341301e-02	3.83491272e-04
1.35500000e-01	2.05983700e-02	3.88276385e-04
1.36000000e-01	2.07198050e-02	3.89688618e-04
1.36500000e-01	2.03096295e-02	3.84765070e-04
1.37000000e-01	2.07943022e-02	3.89574706e-04
1.37500000e-01	2.10400709e-02	3.95031078e-04
1.38000000e-01	2.05025181e-02	3.86792910e-04
1.38500000e-01	2.07347724e-02	3.90073651e-04
1.39000000e-01	2.06213822e-02	3.87550108e-04
1.39500000e-01	2.03708683e-02	3.81857735e-04
1.40000000e-01	2.02541669e-02	3.79953605e-04
1.40500000e-01	2.04915806e-02	3.81944541e-04
1.41000000e-01	2.03377994e-02	3.80973920e-04
1.41500000e-01	2.05556688e-02	3.82722534e-04
1.42000000e-01	2.03065789e-02	3.77797094e-04
1.42500000e-01	2.05248391e-02	3.81766439e-04
1.43000000e-01	2.04317515e-02	3.80009983e-04
1.43500000e-01	2.04294476e-02	3.78613392e-04
1.44000000e-01	2.00766666e-02	3.70409593e-04
1.44500000e-01	2.00796794e-02	3.69512917e-04
1.45000000e-01	2.02125418e-02	3.73632176e-04
1.45500000e-01	2.02244570e-02	3.72578337e-04
1.46000000e-01	2.02532195e-02	3.71899739e-04
1.46500000e-01	2.01535201e-02	3.68896478e-04
1.47000000e-01	2.03594661e-02	3.73444909e-04
1.47500000e-01	2.02412558e-02	3.70002877e-04
1.48000000e-01	2.01182128e-02	3.68040946e-04
1.48500000e-01	1.99942334e-02	3.65363834e-04
1.49000000e-01	2.01419815e-02	3.66734149e-04
1.49500000e-01	2.01089200e-02	3.66037213e-04
1.50000000e-01	2.01868242e-02	3.66108309e-04
1.50500000e-01	2.02727231e-02	3.69138168e-04
1.51000000e-01	2.01391195e-02	3.65790755e-04
1.51500000e-01	2.00839170e-02	3.60632451e-04
1.52000000e-01	2.01953229e-02	3.61580359e-04
1.52500000e-01	2.00966341e-02	3.61279013e-04
1.53000000e-01	1.99773936e-02	3.61053568e-04
1.53500000e-01	1.98901690e-02	3.56419747e-04
1.54000000e-01	1.95516701e-02	3.50608732e-04
1.54500000e-01	1.99622355e-02	3.62698384e-04
1.55000000e-01	2.02303133e-02	3.71163706e-04
1.55500000e-01	1.98373200e-02	3.67654928e-04
1.56000000e-01	2.01228680e-02	3.74323306e-04
1.56500000e-01	1.99821476e-02	3.73614287e-04
1.57000000e-01	1.97686798e-02	3.69543954e-04
1.57500000e-01	1.98605064e-02	3.65043313e-04
1.58000000e-01	1.95704303e-02	3.55133540e-04
1.58500000e-01	1.97018701e-02	3.53740342e-04
1.59000000e-01	1.96668557e-02	3.52343912e-04
1.59500000e-01	1.96168508e-02	3.49844374e-04
1.60000000e-01	2.02690206e-02	3.60414330e-04
1.60500000e-01	1.97952602e-02	3.49815210e-04
1.61000000e-01	1.97099573e-02	3.53008716e-04
1.61500000e-01	1.99374574e-02	3.52522543e-04
1.62000000e-01	1.97177871e-02	3.48135200e-04
1.62500000e-01	1.99165210e-02	3.51516035e-04
1.63000000e-01	1.96703478e-02	3.46173291e-04
1.63500000e-01	1.96309940e-02	3.45688429e-04
1.64000000e-01	1.97067811e-02	3.44488795e-04
1.64500000e-01	1.95691340e-02	3.44988145e-04
1.65000000e-01	2.00081813e-02	3.48734945e-04
1.65500000e-01	1.97258606e-02	3.43161800e-04
1.66000000e-01	1.98930111e-02	3.46040842e-04
1.66500000e-01	1.98600981e-02	3.44405313e-04
1.67000000e-01	1.97045571e-02	3.40840995e-04
1.67500000e-01	1.95922852e-02	3.39513247e-04
1.68000000e-01	1.96708974e-02	3.41202190e-04
1.68500000e-01	1.93520475e-02	3.35308428e-04
1.69000000e-01	1.94023213e-02	3.35756071e-04
1.69500000e-01	1.95566341e-02	3.35514116e-04
1.70000000e-01	1.96178207e-02	3.36116650e-04
1.70500000e-01	1.96296415e-02	3.36946777e-04
1.71000000e-01	1.91298673e-02	3.29254374e-04
1.71500000e-01	1.94846459e-02	3.33167531e-04
1.72000000e-01	1.94606822e-02	3.32311989e-04
1.72500000e-01	1.93876322e-02	3.31735095e-04
1.73000000e-01	1.93191982e-02	3.29189861e-04
1.73500000e-01	1.94808860e-02	3.30132219e-04
1.74000000e-01	1.90268359e-02	3.23760230e-04
1.74500000e-01	1.91388420e-02	3.23807703e-04
1.75000000e-01	1.94091364e-02	3.25199229e-04
1.75500000e-01	1.94181395e-02	3.27249239e-04
1.76000000e-01	1.96380867e-02	3.30640977e-04
1.76500000e-01	1.93942330e-02	3.25464231e-04
1.77000000e-01	1.95815251e-02	3.28006841e-04
1.77500000e-01	1.93705469e-02	3.24546936e-04
1.78000000e-01	1.93923875e-02	3.25585612e-04
1.78500000e-01	1.91376001e-02	3.20809525e-04
1.79000000e-01	1.92116148e-02	3.21312400e-04
1.79500000e-01	1.94733760e-02	3.25681559e-04
1.80000000e-01	1.90885407e-02	3.21153682e-04
1.80500000e-01	1.90936654e-02	3.19583877e-04
1.81000000e-01	1.92783376e-02	3.21770253e-04
1.81500000e-01	1.92269695e-02	3.19587818e-04
1.82000000e-01	1.93010768e-02	3.20494009e-04
1.82500000e-01	1.92655535e-02	3.19781675e-04
1.83000000e-01	1.92195741e-02	3.19146541e-04
1.83500000e-01	1.91617088e-02	3.18454061e-04
1.84000000e-01	1.92911267e-02	3.20089894e-04
1.84500000e-01	1.89692342e-02	3.15039844e-04
1.85000000e-01	1.92530565e-02	3.18711015e-04
1.85500000e-01	1.92007748e-02	3.16127351e-04
1.86000000e-01	1.93159173e-02	3.17268502e-04
1.86500000e-01	1.91741373e-02	3.15435820e-04
1.87000000e-01	1.89879882e-02	3.12673016e-04
1.87500000e-01	1.91482147e-02	3.14369736e-04
1.88000000e-01	1.91343271e-02	3.13535557e-04
1.88500000e-01	1.91473344e-02	3.13319771e-04
1.89000000e-01	1.90895513e-02	3.11348089e-04
1.89500000e-01	1.89818079e-02	3.10745977e-04
1.90000000e-01	1.90549898e-02	3.11291002e-04
1.90500000e-01	1.88864249e-02	3.09087178e-04
1.91000000e-01	1.92452940e-02	3.12401487e-04
1.91500000e-01	1.89840765e-02	3.09043185e-04
1.92000000e-01	1.90427380e-02	3.07996993e-04
1.92500000e-01	1.89015843e-02	3.06211409e-04
1.93000000e-01	1.89463354e-02	3.07016194e-04
1.93500000e-01	1.91637574e-02	3.08520320e-04
1.94000000e-01	1.88954564e-02	3.04890768e-04
1.94500000e-01	1.92090655e-02	3.09372982e-04
1.95000000e-01	1.89672091e-02	3.05881557e-04
1.95500000e-01	1.88888814e-02	3.03910740e-04
1.96000000e-01	1.86956153e-02	3.00525371e-04
1.96500000e-01	1.89780161e-02	3.04942204e-04
1.97000000e-01	1.87880145e-02	3.01942730e-04
1.97500000e-01	1.89161189e-02	3.02479572e-04
1.98000000e-01	1.88139540e-02	3.00593142e-04
1.98500000e-01	1.90851076e-02	3.04798464e-04
1.99000000e-01	1.87615419e-02	2.99668112e-04
1.99500000e-01	1.88850995e-02	3.00122384e-04
2.00000000e-01	1.90027625e-02	3.01752196e-04
2.00500000e-01	1.87239478e-02	2.96499582e-04
2.01000000e-01	1.88305926e-02	2.97512550e-04
2.01500000e-01	1.89266458e-02	2.99894951e-04
2.02000000e-01	1.88030760e-02	2.97705044e-04
2.02500000e-01	1.88180025e-02	2.97109283e-04
2.03000000e-01	1.89122496e-02	2.98024860e-04
2.03500000e-01	1.89487015e-02	2.98486035e-04
2.04000000e-01	1.86503769e-02	2.93986783e-04
2.04500000e-01	1.87926287e-02	2.96147044e-04
2.05000000e-01	1.86065927e-02	2.92639038e-04
2.05500000e-01	1.89038006e-02	2.97499155e-04
2.06000000e-01	1.88391505e-02	2.95148510e-04
2.06500000e-01	1.88716357e-02	2.95624203e-04
2.07000000e-01	1.84766723e-02	2.88515632e-04
2.07500000e-01	1.83972092e-02	2.88879291e-04
2.08000000e-01	1.89294183e-02	2.95377151e-04
2.08500000e-01	1.87612772e-02	2.91888773e-04
2.09000000e-01	1.86469188e-02	2.91009288e-04
2.09500000e-01	1.86616810e-02	2.89838849e-04
2.10000000e-01	1.85453422e-02	2.88194540e-04
2.10500000e-01	1.85219327e-02	2.87913243e-04
2.11000000e-01	1.87310744e-02	2.88794623e-04
2.11500000e-01	1.83148583e-02	2.85448829e-04
2.12000000e-01	1.87449667e-02	2.89347929e-04
2.12500000e-01	1.85347192e-02	2.86345900e-04
2.13000000e-01	1.85189626e-02	2.85399112e-04
2.13500000e-01	1.86044357e-02	2.87054275e-04
2.14000000e-01	1.85899095e-02	2.86972977e-04
2.14500000e-01	1.87207782e-02	2.87446281e-04
2.15000000e-01	1.86390032e-02	2.87895798e-04
2.15500000e-01	1.85226076e-02	2.83252137e-04
2.16000000e-01	1.86069629e-02	2.85605711e-04
2.16500000e-01	1.86097836e-02	2.84789351e-04
2.17000000e-01	1.87319872e-02	2.91600420e-04
2.17500000e-01	1.85131054e-02	2.92230185e-04
2.18000000e-01	1.86346579e-02	2.93844166e-04
2.18500000e-01	1.83255681e-02	2.91465003e-04
2.19000000e-01	1.85405382e-02	2.96241424e-04
2.19500000e-01	1.84332524e-02	2.95392159e-04
2.20000000e-01	1.84638590e-02	2.97765596e-04
2.20500000e-01	1.83032449e-02	2.95251095e-04
2.21000000e-01	1.83853683e-02	2.97969743e-04
2.21500000e-01	1.84362306e-02	3.00748053e-04
2.22000000e-01	1.83587350e-02	2.98024620e-04
2.22500000e-01	1.83413428e-02	2.98636279e-04
2.23000000e-01	1.85169348e-02	3.03345539e-04
2.23500000e-01	1.82578700e-02	2.98976661e-04
2.24000000e-01	1.83813162e-02	3.01707046e-04
2.24500000e-01	1.84432534e-02	3.03305192e-04
2.25000000e-01	1.83361619e-02	3.03539836e-04
2.25500000e-01	1.83606375e-02	3.02620311e-04
2.26000000e-01	1.84506787e-02	3.05344417e-04
2.26500000e-01	1.83837797e-02	2.99032717e-04
2.27000000e-01	1.84416641e-02	2.97006317e-04
2.27500000e-01	1.85451472e-02	2.97173434e-04
2.28000000e-01	1.84800951e-02	2.95509324e-04
2.28500000e-01	1.82459933e-02	2.89051164e-04
2.29000000e-01	1.82840287e-02	2.88866185e-04
2.29500000e-01	1.83603628e-02	2.88562994e-04
2.30000000e-01	1.83124735e-02	2.86867422e-04
2.30500000e-01	1.86174884e-02	2.90244134e-04
2.31000000e-01	1.82425243e-02	2.85556018e-04
2.31500000e-01	1.82024598e-02	2.83107380e-04
2.32000000e-01	1.80334165e-02	2.80552654e-04
2.32500000e-01	1.82508394e-02	2.82846344e-04
2.33000000e-01	1.80068749e-02	2.79509172e-04
2.33500000e-01	1.84739485e-02	2.84822310e-04
2.34000000e-01	1.80166126e-02	2.76594134e-04
2.34500000e-01	1.83221765e-02	2.80308902e-04
2.35000000e-01	1.81406973e-02	2.79035136e-04
2.35500000e-01	1.80899693e-02	2.77705876e-04
2.36000000e-01	1.82225209e-02	2.78526179e-04
2.36500000e-01	1.81939616e-02	2.77411826e-04
2.37000000e-01	1.81854905e-02	2.76470300e-04
2.37500000e-01	1.81009633e-02	2.74937827e-04
2.38000000e-01	1.79421374e-02	2.72489415e-04
2.38500000e-01	1.82213708e-02	2.76729552e-04
2.39000000e-01	1.82961101e-02	2.76201031e-04
2.39500000e-01	1.80998595e-02	2.72452811e-04
2.40000000e-01	1.79108871e-02	2.70255374e-04
2.40500000e-01	1.80497382e-02	2.72386859e-04
2.41000000e-01	1.81883807e-02	2.73325082e-04
2.41500000e-01	1.80011358e-02	2.69087315e-04
2.42000000e-01	1.80597728e-02	2.71096706e-04
2.42500000e-01	1.79762738e-02	2.69477137e-04
2.43000000e-01	1.83717639e-02	2.73455292e-04
2.43500000e-01	1.80076495e-02	2.68616172e-04
2.44000000e-01	1.78882075e-02	2.65704822e-04
2.44500000e-01	1.81394428e-02	2.69107010e-04
2.45000000e-01	1.79950690e-02	2.66289417e-04
2.45500000e-01	1.77907222e-02	2.64664213e-04
2.46000000e-01	1.78806232e-02	2.66545632e-04
2.46500000e-01	1.77967970e-02	2.64014767e-04
2.47000000e-01	1.79292015e-02	2.66031815e-04
2.47500000e-01	1.79257931e-02	2.64151857e-04
2.48000000e-01	1.80644273e-02	2.66390213e-04
2.48500000e-01	1.79810512e-02	2.64852555e-04
2.49000000e-01	1.80937814e-02	2.65910329e-04
2.49500000e-01	1.77932611e-02	2.61390007e-04
2.50000000e-01	1.80316082e-02	2.63093000e-04
2.50500000e-01	1.81021536e-02	2.65892065e-04
2.51000000e-01	1.77618911e-02	2.59902598e-04
2.51500000e-01	1.78878667e-02	2.61606550e-04
2.52000000e-01	1.78400914e-02	2.61015156e-04
2.52500000e-01	1.79705336e-02	2.61497846e-04
2.53000000e-01	1.78647136e-02	2.60847257e-04
2.53500000e-01	1.80675286e-02	2.63192956e-04
2.54000000e-01	1.78610210e-02	2.59934305e-04
2.54500000e-01	1.79092749e-02	2.60026881e-04
2.55000000e-01	1.77851943e-02	2.57993120e-04
2.55500000e-01	1.78091832e-02	2.57972015e-04
2.56000000e-01	1.79380372e-02	2.59221674e-04
2.56500000e-01	1.77522312e-02	2.57059755e-04
2.57000000e-01	1.77709400e-02	2.57452025e-04
2.57500000e-01	1.77136721e-02	2.55602463e-04
2.58000000e-01	1.76827747e-02	2.55865599e-04
2.58500000e-01	1.77343370e-02	2.54443696e-04
2.59000000e-01	1.79290174e-02	2.58719037e-04
2.59500000e-01	1.78259642e-02	2.55732512e-04
2.60000000e-01	1.78345289e-02	2.55023864e-04
2.60500000e-01	1.78322993e-02	2.56486888e-04
2.61000000e-01	1.77107895e-02	2.54744658e-04
2.61500000e-01	1.81189040e-02	2.58490188e-04
2.62000000e-01	1.75817178e-02	2.51284979e-04
2.62500000e-01	1.75773325e-02	2.52207039e-04
2.63000000e-01	1.76842327e-02	2.52551222e-04
2.63500000e-01	1.77033103e-02	2.52447251e-04
2.64000000e-01	1.77232537e-02	2.52256003e-04
2.64500000e-01	1.76783184e-02	2.51393442e-04
2.65000000e-01	1.77455747e-02	2.51813008e-04
2.65500000e-01	1.76292087e-02	2.50671750e-04
2.66000000e-01	1.74779573e-02	2.48727529e-04
2.66500000e-01	1.76865172e-02	2.50018776e-04
2.67000000e-01	1.75903600e-02	2.48845775e-04
2.67500000e-01	1.76121125e-02	2.48824829e-04
2.68000000e-01	1.75940083e-02	2.48097191e-04
2.68500000e-01	1.76063041e-02	2.49294767e-04
2.69000000e-01	1.76599416e-02	2.48672436e-04
2.69500000e-01	1.73815105e-02	2.44659264e-04
2.70000000e-01	1.77378725e-02	2.48568274e-04
2.70500000e-01	1.77650572e-02	2.48651563e-04
2.71000000e-01	1.76558329e-02	2.47173923e-04
2.71500000e-01	1.73288316e-02	2.43512422e-04
2.72000000e-01	1.74989191e-02	2.44369904e-04
2.72500000e-01	1.74220020e-02	2.44014113e-04
2.73000000e-01	1.75494074e-02	2.44719737e-04
2.73500000e-01	1.74478795e-02	2.43606250e-04
2.74000000e-01	1.74711371e-02	2.43246530e-04
2.74500000e-01	1.75784850e-02	2.44882947e-04
2.75000000e-01	1.75821041e-02	2.44733934e-04
2.75500000e-01	1.75272038e-02	2.44508368e-04
2.76000000e-01	1.74583949e-02	2.43566448e-04
2.76500000e-01	1.73805829e-02	2.41711983e-04
2.77000000e-01	1.73435685e-02	2.40478337e-04
2.77500000e-01	1.74259685e-02	2.42638219e-04
2.78000000e-01	1.74895521e-02	2.41981939e-04
2.78500000e-01	1.72916543e-02	2.40069940e-04
2.79000000e-01	1.74434034e-02	2.40843574e-04
2.79500000e-01	1.75364383e-02	2.41773892e-04
2.80000000e-01	1.75099139e-02	2.42020168e-04
2.80500000e-01	1.73504574e-02	2.38969783e-04
2.81000000e-01	1.75690536e-02	2.41665810e-04
2.81500000e-01	1.73496089e-02	2.39403089e-04
2.82000000e-01	1.74747492e-02	2.41147606e-04
2.82500000e-01	1.72944640e-02	2.38579038e-04
2.83000000e-01	1.74810658e-02	2.40217667e-04
2.83500000e-01	1.73316315e-02	2.38001079e-04
2.84000000e-01	1.75690978e-02	2.40796102e-04
2.84500000e-01	1.73413345e-02	2.37865055e-04
2.85000000e-01	1.72282849e-02	2.35715473e-04
2.85500000e-01	1.72218874e-02	2.35687226e-04
2.86000000e-01	1.73762950e-02	2.37526610e-04
2.86500000e-01	1.71987631e-02	2.34871102e-04
2.87000000e-01	1.73489490e-02	2.36504428e-04
2.87500000e-01	1.72651533e-02	2.34662743e-04
2.88000000e-01	1.72515310e-02	2.33023427e-04
2.88500000e-01	1.74867530e-02	2.38069073e-04
2.89000000e-01	1.71510831e-02	2.32719597e-04
2.89500000e-01	1.73544074e-02	2.35075924e-04
2.90000000e-01	1.74241974e-02	2.35910739e-04
2.90500000e-01	1.71025463e-02	2.32390646e-04
2.91000000e-01	1.71959751e-02	2.33700378e-04
2.91500000e-01	1.74453248e-02	2.35256628e-04
2.92000000e-01	1.72895108e-02	2.33169660e-04
2.92500000e-01	1.72722736e-02	2.32060149e-04
2.93000000e-01	1.70928916e-02	2.30734338e-04
2.93500000e-01	1.73573044e-02	2.33370602e-04
2.94000000e-01	1.71766367e-02	2.31868124e-04
2.94500000e-01	1.72707018e-02	2.33533056e-04
2.95000000e-01	1.70506884e-02	2.28918195e-04
2.95500000e-01	1.71953382e-02	2.30984223e-04
2.96000000e-01	1.72025462e-02	2.30338123e-04
2.96500000e-01	1.70471281e-02	2.28603580e-04
2.97000000e-01	1.72764128e-02	2.31069631e-04
2.97500000e-01	1.73249017e-02	2.30984235e-04
2.98000000e-01	1.70426477e-02	2.28468754e-04
2.98500000e-01	1.71458682e-02	2.29855430e-04
2.99000000e-01	1.71728473e-02	2.28364372e-04
2.99500000e-01	1.71163574e-02	2.28387498e-04
3.00000000e-01	1.71749033e-02	2.28304625e-04
3.00500000e-01	1.70812060e-02	2.26858833e-04
3.01000000e-01	1.70944195e-02	2.27605319e-04
3.01500000e-01	1.70197708e-02	2.26536613e-04
3.02000000e-01	1.70284573e-02	2.25773184e-04
3.02500000e-01	1.71605935e-02	2.27959041e-04
3.03000000e-01	1.71706360e-02	2.27986371e-04
3.03500000e-01	1.68899493e-02	2.23521109e-04
3.04000000e-01	1.70908189e-02	2.26151726e-04
3.04500000e-01	1.69031896e-02	2.23820147e-04
3.05000000e-01	1.68706354e-02	2.23907493e-04
3.05500000e-01	1.69917826e-02	2.24574662e-04
3.06000000e-01	1.70561255e-02	2.23783974e-04
3.06500000e-01	1.70194769e-02	2.23749438e-04
3.07000000e-01	1.69167806e-02	2.22449685e-04
3.07500000e-01	1.68632842e-02	2.22095594e-04
3.08000000e-01	1.70257910e-02	2.23672694e-04
3.08500000e-01	1.70735286e-02	2.24743898e-04
3.09000000e-01	1.68452419e-02	2.21356894e-04
3.09500000e-01	1.69459015e-02	2.22567485e-04
3.10000000e-01	1.70065125e-02	2.23329498e-04
3.10500000e-01	1.67927737e-02	2.20667109e-04
3.11000000e-01	1.68094275e-02	2.20565248e-04
3.11500000e-01	1.70626381e-02	2.23099352e-04
3.12000000e-01	1.68982285e-02	2.20450101e-04
3.12500000e-01	1.70200744e-02	2.22529783e-04
3.13000000e-01	1.69449606e-02	2.21655340e-04
3.13500000e-01	1.68830652e-02	2.20518357e-04
3.14000000e-01	1.68316988e-02	2.19182278e-04
3.14500000e-01	1.68376245e-02	2.19549805e-04
3.15000000e-01	1.69060405e-02	2.20427854e-04
3.15500000e-01	1.67758213e-02	2.18709199e-04
3.16000000e-01	1.69591355e-02	2.21103227e-04
3.16500000e-01	1.68930673e-02	2.19235048e-04
3.17000000e-01	1.67787082e-02	2.17256780e-04
3.17500000e-01	1.66542984e-02	2.16782863e-04
3.18000000e-01	1.68705042e-02	2.17896036e-04
3.18500000e-01	1.67715648e-02	2.17272192e-04
3.19000000e-01	1.66900711e-02	2.15843862e-04
3.19500000e-01	1.67549405e-02	2.16963636e-04
3.20000000e-01	1.68010433e-02	2.17715204e-04
3.20500000e-01	1.68481355e-02	2.17442973e-04
3.21000000e-01	1.69063231e-02	2.18136024e-04
3.21500000e-01	1.66543425e-02	2.14563083e-04
3.22000000e-01	1.67723190e-02	2.15673178e-04
3.22500000e-01	1.68981584e-02	2.17249321e-04
3.23000000e-01	1.67392865e-02	2.15225081e-04
3.23500000e-01	1.65715163e-02	2.13801483e-04
3.24000000e-01	1.64843331e-02	2.11303124e-04
3.24500000e-01	1.65045927e-02	2.12606104e-04
3.25000000e-01	1.66883572e-02	2.14314572e-04
3.25500000e-01	1.68101166e-02	2.14953994e-04
3.26000000e-01	1.67152285e-02	2.13187269e-04
3.26500000e-01	1.65544649e-02	2.11728564e-04
3.27000000e-01	1.66514490e-02	2.13710376e-04
3.27500000e-01	1.65112393e-02	2.10787731e-04
3.28000000e-01	1.64196768e-02	2.10772621e-04
3.28500000e-01	1.64187973e-02	2.09582760e-04
3.29000000e-01	1.64828537e-02	2.10483868e-04
3.29500000e-01	1.65456419e-02	2.11875513e-04
3.30000000e-01	1.66528823e-02	2.11367713e-04
3.30500000e-01	1.65671501e-02	2.10615603e-04
3.31000000e-01	1.66147051e-02	2.10650845e-04
3.31500000e-01	1.66616028e-02	2.10914574e-04
3.32000000e-01	1.65927449e-02	2.10745097e-04
3.32500000e-01	1.65553376e-02	2.09845805e-04
3.33000000e-01	1.66345615e-02	2.10461926e-04
3.33500000e-01	1.65776011e-02	2.09812549e-04
3.34000000e-01	1.64145520e-02	2.09094785e-04
3.34500000e-01	1.64458919e-02	2.08309782e-04
3.35000000e-01	1.64423017e-02	2.07449892e-04
3.35500000e-01	1.63449983e-02	2.06632877e-04
3.36000000e-01	1.65424401e-02	2.08611329e-04
3.36500000e-01	1.63761625e-02	2.06706833e-04
3.37000000e-01	1.64225985e-02	2.06721029e-04
3.37500000e-01	1.67157660e-02	2.10420975e-04
3.38000000e-01	1.64035725e-02	2.06492458e-04
3.38500000e-01	1.62078591e-02	2.03646129e-04
3.39000000e-01	1.64412572e-02	2.07351613e-04
3.39500000e-01	1.63438651e-02	2.04831011e-04
3.40000000e-01	1.64219976e-02	2.06607320e-04
3.40500000e-01	1.63596605e-02	2.05475080e-04
3.41000000e-01	1.63231611e-02	2.04632358e-04
3.41500000e-01	1.63052106e-02	2.04865380e-04
3.42000000e-01	1.62102145e-02	2.02173432e-04
3.42500000e-01	1.63383398e-02	2.04672110e-04
3.43000000e-01	1.63235310e-02	2.03975178e-04
3.43500000e-01	1.63457437e-02	2.03358544e-04
3.44000000e-01	1.63927406e-02	2.04676510e-04
3.44500000e-01	1.63372233e-02	2.03143177e-04
3.45000000e-01	1.61683179e-02	2.02232349e-04
3.45500000e-01	1.62073336e-02	2.02178030e-04
3.46000000e-01	1.63095963e-02	2.02890267e-04
3.46500000e-01	1.63544939e-02	2.03034821e-04
3.47000000e-01	1.62932552e-02	2.02368231e-04
3.47500000e-01	1.63158110e-02	2.03470080e-04
3.48000000e-01	1.62534670e-02	2.01737323e-04
3.48500000e-01	1.62800845e-02	2.01291594e-04
3.49000000e-01	1.61960443e-02	2.00595489e-04
3.49500000e-01	1.63643302e-02	2.03043768e-04
3.50000000e-01	1.62842216e-02	1.64043635e-04
3.51000000e-01	1.62007933e-02	1.41507586e-04
3.52000000e-01	1.60474720e-02	1.40341467e-04
3.53000000e-01	1.61802161e-02	1.40592103e-04
3.54000000e-01	1.61002272e-02	1.39965587e-04
3.55000000e-01	1.61051039e-02	1.39976752e-04
3.56000000e-01	1.61041171e-02	1.40540611e-04
3.57000000e-01	1.60402126e-02	1.42732203e-04
3.58000000e-01	1.60467732e-02	1.43808191e-04
3.59000000e-01	1.61180725e-02	1.45414656e-04
3.60000000e-01	1.60116209e-02	1.45440166e-04
3.61000000e-01	1.60079580e-02	1.46119446e-04
3.62000000e-01	1.61502549e-02	1.48042902e-04
3.63000000e-01	1.58702076e-02	1.46409755e-04
3.64000000e-01	1.58646982e-02	1.46444004e-04
3.65000000e-01	1.57790722e-02	1.46335757e-04
3.66000000e-01	1.58307828e-02	1.44961340e-04
3.67000000e-01	1.59383469e-02	1.43955177e-04
3.68000000e-01	1.60518809e-02	1.43685312e-04
3.69000000e-01	1.58156008e-02	1.41167221e-04
3.70000000e-01	1.58934004e-02	1.41014153e-04
3.71000000e-01	1.59013483e-02	1.43053991e-04
3.72000000e-01	1.57939446e-02	1.43522136e-04
3.73000000e-01	1.60016664e-02	1.45125832e-04
3.74000000e-01	1.57884231e-02	1.43238147e-04
3.75000000e-01	1.57645121e-02	1.43578660e-04
3.76000000e-01	1.57363327e-02	1.43222086e-04
3.77000000e-01	1.57548845e-02	1.43234166e-04
3.78000000e-01	1.57199423e-02	1.42646974e-04
3.79000000e-01	1.57665394e-02	1.43398969e-04
3.80000000e-01	1.58515961e-02	1.43930865e-04
3.81000000e-01	1.57549605e-02	1.42773386e-04
3.82000000e-01	1.57173007e-02	1.42532356e-04
3.83000000e-01	1.56773678e-02	1.42396370e-04
3.84000000e-01	1.56114181e-02	1.41278519e-04
3.85000000e-01	1.57008368e-02	1.42342346e-04
3.86000000e-01	1.55896961e-02	1.41214277e-04
3.87000000e-01	1.57306425e-02	1.42618930e-04
3.88000000e-01	1.57832485e-02	1.42256219e-04
3.89000000e-01	1.56171206e-02	1.41379856e-04
3.90000000e-01	1.55299700e-02	1.40345856e-04
3.91000000e-01	1.56357266e-02	1.41295708e-04
3.92000000e-01	1.55270763e-02	1.40608046e-04
3.93000000e-01	1.55728088e-02	1.41143333e-04
3.94000000e-01	1.54120519e-02	1.39538671e-04
3.95000000e-01	1.55940421e-02	1.40811980e-04
3.96000000e-01	1.55380143e-02	1.40803814e-04
3.97000000e-01	1.55147073e-02	1.40046587e-04
3.98000000e-01	1.53004938e-02	1.38586049e-04
3.99000000e-01	1.54758709e-02	1.40000338e-04
4.00000000e-01	1.53808940e-02	1.39444082e-04
4.01000000e-01	1.54050086e-02	1.39431798e-04
4.02000000e-01	1.54601709e-02	1.39769915e-04
4.03000000e-01	1.53485201e-02	1.38912080e-04
4.04000000e-01	1.53920352e-02	1.39160485e-04
4.05000000e-01	1.53380819e-02	1.38705091e-04
4.06000000e-01	1.55030579e-02	1.39992145e-04
4.07000000e-01	1.55996880e-02	1.40349148e-04
4.08000000e-01	1.55239012e-02	1.39917609e-04
4.09000000e-01	1.52225636e-02	1.37747427e-04
4.10000000e-01	1.51987286e-02	1.37255226e-04
4.11000000e-01	1.51108890e-02	1.36735042e-04
4.12000000e-01	1.53726156e-02	1.38576687e-04
4.13000000e-01	1.51449970e-02	1.36678319e-04
4.14000000e-01	1.54000346e-02	1.38732110e-04
4.15000000e-01	1.52451334e-02	1.37313085e-04
4.16000000e-01	1.52661597e-02	1.37390227e-04
4.17000000e-01	1.53048653e-02	1.37696800e-04
4.18000000e-01	1.52742911e-02	1.39051873e-04
4.19000000e-01	1.53678369e-02	1.41706047e-04
4.20000000e-01	1.51995830e-02	1.40762632e-04
4.21000000e-01	1.53138750e-02	1.42059799e-04
4.22000000e-01	1.54908083e-02	1.44029339e-04
4.23000000e-01	1.52782539e-02	1.43359398e-04
4.24000000e-01	1.53155354e-02	1.43381999e-04
4.25000000e-01	1.51396962e-02	1.42638462e-04
4.26000000e-01	1.52393808e-02	1.43517176e-04
4.27000000e-01	1.53038246e-02	1.43360536e-04
4.28000000e-01	1.52616558e-02	1.43923543e-04
4.29000000e-01	1.53838874e-02	1.44841131e-04
4.30000000e-01	1.52481934e-02	1.43567038e-04
4.31000000e-01	1.52913431e-02	1.43843122e-04
4.32000000e-01	1.53140679e-02	1.44635903e-04
4.33000000e-01	1.51812554e-02	1.43376188e-04
4.34000000e-01	1.51838455e-02	1.43518152e-04
4.35000000e-01	1.52656344e-02	1.44204534e-04
4.36000000e-01	1.51503833e-02	1.43434101e-04
4.37000000e-01	1.52292864e-02	1.44261446e-04
4.38000000e-01	1.51344962e-02	1.43606598e-04
4.39000000e-01	1.52288042e-02	1.44586185e-04
4.40000000e-01	1.52149785e-02	1.44523616e-04
4.41000000e-01	1.51458357e-02	1.44290106e-04
4.42000000e-01	1.51837996e-02	1.44648928e-04
4.43000000e-01	1.50255581e-02	1.43578988e-04
4.44000000e-01	1.50031547e-02	1.43820639e-04
4.45000000e-01	1.50844828e-02	1.44432002e-04
4.46000000e-01	1.50676098e-02	1.44505166e-04
4.47000000e-01	1.49899306e-02	1.43986913e-04
4.48000000e-01	1.49168635e-02	1.43036413e-04
4.49000000e-01	1.50379618e-02	1.44607114e-04
4.50000000e-01	1.50429147e-02	1.44750359e-04
4.51000000e-01	1.50083630e-02	1.44882812e-04
4.52000000e-01	1.50237551e-02	1.45190509e-04
4.53000000e-01	1.49099369e-02	1.44125632e-04
4.54000000e-01	1.50804940e-02	1.45531969e-04
4.55000000e-01	1.48501272e-02	1.43714814e-04
4.56000000e-01	1.49854982e-02	1.45188303e-04
4.57000000e-01	1.48401922e-02	1.43816087e-04
4.58000000e-01	1.49493984e-02	1.44724682e-04
4.59000000e-01	1.49291319e-02	1.44800112e-04
4.60000000e-01	1.48436416e-02	1.44354097e-04
4.61000000e-01	1.49458748e-02	1.45664460e-04
4.62000000e-01	1.49449664e-02	1.45782865e-04
4.63000000e-01	1.50402919e-02	1.46787284e-04
4.64000000e-01	1.47627356e-02	1.43982917e-04
4.65000000e-01	1.49197714e-02	1.45946244e-04
4.66000000e-01	1.48763035e-02	1.44833014e-04
4.67000000e-01	1.49760045e-02	1.45795481e-04
4.68000000e-01	1.48770127e-02	1.45515473e-04
4.69000000e-01	1.47774289e-02	1.44521255e-04
4.70000000e-01	1.48326191e-02	1.44868626e-04
4.71000000e-01	1.47965306e-02	1.44271094e-04
4.72000000e-01	1.48733946e-02	1.45400555e-04
4.73000000e-01	1.47710724e-02	1.44399116e-04
4.74000000e-01	1.48064316e-02	1.44510304e-04
4.75000000e-01	1.47565482e-02	1.44160541e-04
4.76000000e-01	1.47353882e-02	1.44028004e-04
4.77000000e-01	1.47544474e-02	1.44386048e-04
4.78000000e-01	1.48807065e-02	1.45562217e-04
4.79000000e-01	1.46377204e-02	1.43783313e-04
4.80000000e-01	1.45198735e-02	1.42797068e-04
4.81000000e-01	1.47429274e-02	1.44857657e-04
4.82000000e-01	1.48447133e-02	1.45213340e-04
4.83000000e-01	1.46458568e-02	1.43733429e-04
4.84000000e-01	1.46083719e-02	1.43518410e-04
4.85000000e-01	1.47596734e-02	1.45286509e-04
4.86000000e-01	1.46566514e-02	1.44007677e-04
4.87000000e-01	1.46408206e-02	1.43909079e-04
4.88000000e-01	1.46208413e-02	1.43420519e-04
4.89000000e-01	1.46990955e-02	1.44755367e-04
4.90000000e-01	1.46189469e-02	1.43960884e-04
4.91000000e-01	1.46770532e-02	1.44773346e-04
4.92000000e-01	1.47366878e-02	1.45232958e-04
4.93000000e-01	1.46352163e-02	1.44483350e-04
4.94000000e-01	1.46385380e-02	1.44871608e-04
4.95000000e-01	1.46550357e-02	1.45459533e-04
4.96000000e-01	1.46554597e-02	1.50190428e-04
4.97000000e-01	1.47453511e-02	1.53630298e-04
4.98000000e-01	1.45682892e-02	1.54400640e-04
4.99000000e-01	1.47016515e-02	1.57279987e-04
5.00000000e-01	1.46706772e-02	1.57935817e-04
5.01000000e-01	1.44544549e-02	1.57856745e-04
5.02000000e-01	1.47534330e-02	1.62261924e-04
5.03000000e-01	1.46333456e-02	1.63019394e-04
5.04000000e-01	1.45551098e-02	1.63419613e-04
5.05000000e-01	1.45732028e-02	1.60833416e-04
5.06000000e-01	1.45582039e-02	1.56970611e-04
5.07000000e-01	1.45056762e-02	1.55019390e-04
5.08000000e-01	1.46576602e-02	1.55484732e-04
5.09000000e-01	1.44887920e-02	1.53606847e-04
5.10000000e-01	1.45347857e-02	1.53629252e-04
5.11000000e-01	1.44703611e-02	1.51803814e-04
5.12000000e-01	1.44294681e-02	1.51462790e-04
5.13000000e-01	1.45832297e-02	1.52890261e-04
5.14000000e-01	1.44150003e-02	1.50730776e-04
5.15000000e-01	1.44914139e-02	1.51210504e-04
5.16000000e-01	1.44587794e-02	1.50042714e-04
5.17000000e-01	1.43642612e-02	1.49556180e-04
5.18000000e-01	1.44328701e-02	1.49934323e-04
5.19000000e-01	1.44787891e-02	1.50047984e-04
5.20000000e-01	1.44510364e-02	1.49239986e-04
5.21000000e-01	1.44653021e-02	1.49045741e-04
5.22000000e-01	1.43974890e-02	1.48536508e-04
5.23000000e-01	1.44067344e-02	1.48479924e-04
5.24000000e-01	1.43995795e-02	1.48755532e-04
5.25000000e-01	1.44126228e-02	1.47974648e-04
5.26000000e-01	1.42071245e-02	1.46916031e-04
5.27000000e-01	1.41800726e-02	1.46569133e-04
5.28000000e-01	1.42865998e-02	1.47489447e-04
5.29000000e-01	1.43649154e-02	1.48290932e-04
5.30000000e-01	1.43385563e-02	1.48077342e-04
5.31000000e-01	1.43119566e-02	1.47443879e-04
5.32000000e-01	1.41996942e-02	1.46610117e-04
5.33000000e-01	1.42958216e-02	1.47056197e-04
5.34000000e-01	1.43014948e-02	1.47472733e-04
5.35000000e-01	1.43935655e-02	1.48355684e-04
5.36000000e-01	1.41644260e-02	1.45605374e-04
5.37000000e-01	1.43780958e-02	1.47956206e-04
5.38000000e-01	1.42449797e-02	1.46268704e-04
5.39000000e-01	1.42151062e-02	1.46403579e-04
5.40000000e-01	1.43636216e-02	1.47434470e-04
5.41000000e-01	1.40919733e-02	1.45233106e-04
5.42000000e-01	1.44002111e-02	1.48181115e-04
5.43000000e-01	1.42635109e-02	1.47203961e-04
5.44000000e-01	1.43054120e-02	1.47346840e-04
5.45000000e-01	1.42292366e-02	1.46815360e-04
5.46000000e-01	1.41685121e-02	1.46190389e-04
5.47000000e-01	1.41733666e-02	1.46181125e-04
5.48000000e-01	1.41078524e-02	1.45336471e-04
5.49000000e-01	1.41749581e-02	1.45478293e-04
5.50000000e-01	1.41667385e-02	1.45606246e-04
5.51000000e-01	1.40378535e-02	1.43997844e-04
5.52000000e-01	1.41792670e-02	1.45082324e-04
5.53000000e-01	1.40913737e-02	1.44573591e-04
5.54000000e-01	1.40295281e-02	1.43616406e-04
5.55000000e-01	1.40824051e-02	1.43994092e-04
5.56000000e-01	1.40268395e-02	1.43567098e-04
5.57000000e-01	1.41518110e-02	1.44818467e-04
5.58000000e-01	1.40217866e-02	1.43484376e-04
5.59000000e-01	1.40261139e-02	1.43902909e-04
5.60000000e-01	1.41248363e-02	1.45036154e-04
5.61000000e-01	1.39405511e-02	1.42836197e-04
5.62000000e-01	1.39654538e-02	1.43138333e-04
5.63000000e-01	1.40190903e-02	1.43243673e-04
5.64000000e-01	1.39125335e-02	1.42456288e-04
5.65000000e-01	1.40788890e-02	1.44403286e-04
5.66000000e-01	1.39204570e-02	1.42393636e-04
5.67000000e-01	1.38534401e-02	1.41943417e-04
5.68000000e-01	1.39692028e-02	1.43022928e-04
5.69000000e-01	1.39795234e-02	1.42891881e-04
5.70000000e-01	1.40318039e-02	1.43210993e-04
5.71000000e-01	1.37650843e-02	1.41326856e-04
5.72000000e-01	1.39007007e-02	1.42601477e-04
5.73000000e-01	1.38376063e-02	1.41914380e-04
5.74000000e-01	1.40820726e-02	1.44171639e-04
5.75000000e-01	1.39809271e-02	1.43233820e-04
5.76000000e-01	1.38117882e-02	1.41338064e-04
5.77000000e-01	1.38505003e-02	1.42022524e-04
5.78000000e-01	1.37927926e-02	1.42034797e-04
5.79000000e-01	1.38847420e-02	1.42393956e-04
5.80000000e-01	1.38741651e-02	1.42612929e-04
5.81000000e-01	1.37788109e-02	1.41789154e-04
5.82000000e-01	1.37854168e-02	1.41412730e-04
5.83000000e-01	1.36696554e-02	1.40630645e-04
5.84000000e-01	1.37519342e-02	1.41502257e-04
5.85000000e-01	1.37338513e-02	1.41393313e-04
5.86000000e-01	1.38039958e-02	1.41765582e-04
5.87000000e-01	1.36738024e-02	1.40759184e-04
5.88000000e-01	1.36485059e-02	1.40609108e-04
5.89000000e-01	1.37075839e-02	1.41173638e-04
5.90000000e-01	1.37599510e-02	1.41724700e-04
5.91000000e-01	1.35872137e-02	1.39907221e-04
5.92000000e-01	1.37213429e-02	1.41471136e-04
5.93000000e-01	1.38020538e-02	1.42309754e-04
5.94000000e-01	1.36327214e-02	1.40557306e-04
5.95000000e-01	1.35596226e-02	1.39917034e-04
5.96000000e-01	1.35362553e-02	1.40266716e-04
5.97000000e-01	1.37336271e-02	1.41484605e-04
5.98000000e-01	1.36385365e-02	1.40824225e-04
5.99000000e-01	1.36401372e-02	1.40769551e-04
6.00000000e-01	1.36400848e-02	1.40781711e-04
6.01000000e-01	1.35713276e-02	1.40148228e-04
6.02000000e-01	1.38307089e-02	1.42496713e-04
6.03000000e-01	1.37780097e-02	1.42283788e-04
6.04000000e-01	1.35755985e-02	1.40352884e-04
6.05000000e-01	1.34295717e-02	1.38909999e-04
6.06000000e-01	1.35007622e-02	1.39386470e-04
6.07000000e-01	1.35207359e-02	1.39758120e-04
6.08000000e-01	1.35101113e-02	1.39318329e-04
6.09000000e-01	1.35843959e-02	1.40412197e-04
6.10000000e-01	1.35632782e-02	1.40367983e-04
6.11000000e-01	1.35684997e-02	1.40341246e-04
6.12000000e-01	1.34864789e-02	1.39658275e-04
6.13000000e-01	1.35004626e-02	1.39695657e-04
6.14000000e-01	1.35193505e-02	1.39565467e-04
6.15000000e-01	1.36415997e-02	1.40685293e-04
6.16000000e-01	1.34713620e-02	1.39089641e-04
6.17000000e-01	1.34913656e-02	1.39500779e-04
6.18000000e-01	1.34707493e-02	1.39479826e-04
6.19000000e-01	1.34940347e-02	1.39107795e-04
6.20000000e-01	1.35600719e-02	1.39970935e-04
6.21000000e-01	1.34287032e-02	1.38858313e-04
6.22000000e-01	1.34777384e-02	1.38930439e-04
6.23000000e-01	1.34508900e-02	1.38487941e-04
6.24000000e-01	1.33853834e-02	1.37716530e-04
6.25000000e-01	1.33760673e-02	1.37232975e-04
6.26000000e-01	1.33555944e-02	1.37066189e-04
6.27000000e-01	1.33762524e-02	1.37456132e-04
6.28000000e-01	1.34410918e-02	1.37923401e-04
6.29000000e-01	1.33107863e-02	1.36713656e-04
6.30000000e-01	1.33865493e-02	1.37387149e-04
6.31000000e-01	1.33193663e-02	1.36950068e-04
6.32000000e-01	1.34157080e-02	1.37905385e-04
6.33000000e-01	1.33509424e-02	1.37153967e-04
6.34000000e-01	1.32969302e-02	1.39945108e-04
6.35000000e-01	1.33031250e-02	1.44216947e-04
6.36000000e-01	1.34711837e-02	1.48909209e-04
6.37000000e-01	1.33849065e-02	1.49973584e-04
6.38000000e-01	1.33189578e-02	1.51197788e-04
6.39000000e-01	1.34611205e-02	1.54279179e-04
6.40000000e-01	1.33426503e-02	1.55740507e-04
6.41000000e-01	1.35439995e-02	1.58780347e-04
6.42000000e-01	1.34574949e-02	1.60306163e-04
6.43000000e-01	1.34977061e-02	1.60387652e-04
6.44000000e-01	1.34339324e-02	1.54275972e-04
6.45000000e-01	1.34332355e-02	1.51452408e-04
6.46000000e-01	1.33074308e-02	1.49574747e-04
6.47000000e-01	1.34812188e-02	1.49637847e-04
6.48000000e-01	1.34049730e-02	1.47910166e-04
6.49000000e-01	1.34660914e-02	1.48110969e-04
6.50000000e-01	1.33199692e-02	1.45759304e-04
6.51000000e-01	1.32272357e-02	1.44540121e-04
6.52000000e-01	1.34596263e-02	1.46295994e-04
6.53000000e-01	1.33443990e-02	1.44394622e-04
6.54000000e-01	1.33533230e-02	1.43701879e-04
6.55000000e-01	1.34196937e-02	1.44159084e-04
6.56000000e-01	1.32923486e-02	1.42800951e-04
6.57000000e-01	1.32973152e-02	1.41904043e-04
6.58000000e-01	1.34438224e-02	1.44256085e-04
6.59000000e-01	1.35209172e-02	1.44894722e-04
6.60000000e-01	1.33088847e-02	1.42488766e-04
6.61000000e-01	1.33895021e-02	1.42792359e-04
6.62000000e-01	1.32493347e-02	1.41680205e-04
6.63000000e-01	1.32420426e-02	1.41817422e-04
6.64000000e-01	1.33722345e-02	1.43164623e-04
6.65000000e-01	1.32089034e-02	1.41053362e-04
6.66000000e-01	1.31852934e-02	1.41076270e-04
6.67000000e-01	1.33141776e-02	1.41839427e-04
6.68000000e-01	1.32561279e-02	1.41721224e-04
6.69000000e-01	1.32581467e-02	1.41109666e-04
6.70000000e-01	1.32045663e-02	1.40959232e-04
6.71000000e-01	1.31476135e-02	1.40253285e-04
6.72000000e-01	1.32196187e-02	1.40361092e-04
6.73000000e-01	1.32385517e-02	1.40670121e-04
6.74000000e-01	1.31946903e-02	1.40557214e-04
6.75000000e-01	1.32377260e-02	1.40648733e-04
6.76000000e-01	1.32461410e-02	1.40463561e-04
6.77000000e-01	1.32686155e-02	1.41337482e-04
6.78000000e-01	1.32456261e-02	1.40571325e-04
6.79000000e-01	1.32222094e-02	1.40279812e-04
6.80000000e-01	1.32783050e-02	1.40529331e-04
6.81000000e-01	1.31877526e-02	1.40104855e-04
6.82000000e-01	1.31483211e-02	1.39879125e-04
6.83000000e-01	1.30655573e-02	1.38843157e-04
6.84000000e-01	1.30205563e-02	1.38646346e-04
6.85000000e-01	1.31506442e-02	1.39625254e-04
6.86000000e-01	1.31442437e-02	1.39658633e-04
6.87000000e-01	1.31061170e-02	1.38732995e-04
6.88000000e-01	1.30815010e-02	1.38706154e-04
6.89000000e-01	1.30762113e-02	1.38697777e-04
6.90000000e-01	1.30241829e-02	1.38488864e-04
6.91000000e-01	1.31243886e-02	1.39255478e-04
6.92000000e-01	1.31965698e-02	1.39969881e-04
6.93000000e-01	1.29474317e-02	1.37050643e-04
6.94000000e-01	1.29977002e-02	1.37842287e-04
6.95000000e-01	1.30821576e-02	1.38502784e-04
6.96000000e-01	1.29432757e-02	1.37665352e-04
6.97000000e-01	1.30029254e-02	1.38219857e-04
6.98000000e-01	1.29018032e-02	1.36905467e-04
6.99000000e-01	1.29474579e-02	1.37088148e-04
7.00000000e-01	1.30040232e-02	1.37588969e-04
7.01000000e-01	1.29425917e-02	1.37487990e-04
7.02000000e-01	1.29709861e-02	1.37299247e-04
7.03000000e-01	1.29438047e-02	1.37517678e-04
7.04000000e-01	1.30903742e-02	1.38613728e-04
7.05000000e-01	1.30598147e-02	1.37956116e-04
7.06000000e-01	1.30152069e-02	1.37957866e-04
7.07000000e-01	1.29289178e-02	1.37553591e-04
7.08000000e-01	1.28907776e-02	1.35912502e-04
7.09000000e-01	1.29047705e-02	1.36337474e-04
7.10000000e-01	1.28866396e-02	1.35838107e-04
7.11000000e-01	1.27993767e-02	1.35850210e-04
7.12000000e-01	1.28707353e-02	1.36150620e-04
7.13000000e-01	1.28708081e-02	1.36390583e-04
7.14000000e-01	1.28503767e-02	1.35900448e-04
7.15000000e-01	1.27714630e-02	1.35239806e-04
7.16000000e-01	1.27676551e-02	1.35514767e-04
7.17000000e-01	1.27466313e-02	1.35492390e-04
7.18000000e-01	1.29003728e-02	1.36549750e-04
7.19000000e-01	1.28364270e-02	1.35880661e-04
7.20000000e-01	1.28019781e-02	1.35938827e-04
7.21000000e-01	1.26202434e-02	1.34049885e-04
7.22000000e-01	1.27684295e-02	1.35661681e-04
7.23000000e-01	1.26356262e-02	1.34086973e-04
7.24000000e-01	1.25938560e-02	1.34566668e-04
7.25000000e-01	1.26420116e-02	1.34492306e-04
7.26000000e-01	1.27345454e-02	1.34762835e-04
7.27000000e-01	1.25298395e-02	1.33405811e-04
7.28000000e-01	1.27067334e-02	1.35479575e-04
7.29000000e-01	1.26991554e-02	1.35282873e-04
7.30000000e-01	1.26165494e-02	1.34450323e-04
7.31000000e-01	1.26723245e-02	1.34730429e-04
7.32000000e-01	1.26540636e-02	1.34556868e-04
7.33000000e-01	1.25356429e-02	1.33791180e-04
7.34000000e-01	1.25468794e-02	1.33315731e-04
7.35000000e-01	1.25670529e-02	1.33040585e-04
7.36000000e-01	1.25138367e-02	1.32139985e-04
7.37000000e-01	1.25906687e-02	1.32851744e-04
7.38000000e-01	1.25536522e-02	1.32091873e-04
7.39000000e-01	1.25066955e-02	1.31767599e-04
7.40000000e-01	1.25630037e-02	1.31854453e-04
7.41000000e-01	1.23929716e-02	1.30261834e-04
7.42000000e-01	1.26368534e-02	1.32768512e-04
7.43000000e-01	1.24758825e-02	1.31436883e-04
7.44000000e-01	1.25467980e-02	1.32035615e-04
7.45000000e-01	1.24356225e-02	1.30941804e-04
7.46000000e-01	1.24046232e-02	1.30379567e-04
7.47000000e-01	1.25183938e-02	1.31501279e-04
7.48000000e-01	1.25173299e-02	1.31543830e-04
7.49000000e-01	1.23722797e-02	1.30586411e-04
7.50000000e-01	1.23498896e-02	1.29825447e-04
7.51000000e-01	1.24879161e-02	1.31191007e-04
7.52000000e-01	1.24565127e-02	1.30889769e-04
7.53000000e-01	1.23913198e-02	1.30664853e-04
7.54000000e-01	1.23961395e-02	1.30070458e-04
7.55000000e-01	1.22966295e-02	1.29796272e-04
7.56000000e-01	1.24931285e-02	1.31230260e-04
7.57000000e-01	1.23310909e-02	1.30013534e-04
7.58000000e-01	1.23332185e-02	1.29752259e-04
7.59000000e-01	1.24726658e-02	1.31119039e-04
7.60000000e-01	1.22796333e-02	1.29112108e-04
7.61000000e-01	1.22958360e-02	1.29347016e-04
7.62000000e-01	1.23617026e-02	1.29682013e-04
7.63000000e-01	1.23157337e-02	1.28720297e-04
7.64000000e-01	1.23021353e-02	1.28669330e-04
7.65000000e-01	1.22534981e-02	1.27826542e-04
7.66000000e-01	1.21932756e-02	1.27152097e-04
7.67000000e-01	1.22548675e-02	1.28060868e-04
7.68000000e-01	1.22116967e-02	1.27345495e-04
7.69000000e-01	1.21049767e-02	1.26892385e-04
7.70000000e-01	1.22205910e-02	1.27646897e-04
7.71000000e-01	1.22421929e-02	1.27430620e-04
7.72000000e-01	1.22471883e-02	1.31562187e-04
7.73000000e-01	1.21755687e-02	1.35630664e-04
7.74000000e-01	1.21157386e-02	1.37329469e-04
7.75000000e-01	1.22261877e-02	1.40611728e-04
7.76000000e-01	1.21610426e-02	1.42748026e-04
7.77000000e-01	1.21374909e-02	1.44606812e-04
7.78000000e-01	1.21492930e-02	1.46186798e-04
7.79000000e-01	1.21863471e-02	1.48153166e-04
7.80000000e-01	1.19696693e-02	1.47425904e-04
7.81000000e-01	1.22274972e-02	1.52396541e-04
7.82000000e-01	1.21141353e-02	1.52386133e-04
7.83000000e-01	1.21640779e-02	1.54273336e-04
7.84000000e-01	1.20605550e-02	1.55941983e-04
7.85000000e-01	1.20949338e-02	1.57437811e-04
7.86000000e-01	1.20831398e-02	1.58978749e-04
7.87000000e-01	1.19081933e-02	1.58434397e-04
7.88000000e-01	1.20696179e-02	1.62198236e-04
7.89000000e-01	1.18979914e-02	1.60586426e-04
7.90000000e-01	1.19437368e-02	1.63060946e-04
7.91000000e-01	1.21055984e-02	1.67491222e-04
7.92000000e-01	1.20078775e-02	1.68304318e-04
7.93000000e-01	1.18549390e-02	1.67023437e-04
7.94000000e-01	1.18647357e-02	1.69993424e-04
7.95000000e-01	1.19480742e-02	1.72856946e-04
7.96000000e-01	1.18224049e-02	1.72782883e-04
7.97000000e-01	1.20357765e-02	1.77670435e-04
7.98000000e-01	1.17394424e-02	1.73701934e-04
7.99000000e-01	1.18748240e-02	1.79468761e-04
8.00000000e-01	1.17479017e-02	1.77132994e-04
8.01000000e-01	1.18754428e-02	1.81546334e-04
8.02000000e-01	1.17733819e-02	1.81774902e-04
8.03000000e-01	1.17051352e-02	1.83080879e-04
8.04000000e-01	1.19791794e-02	1.88850474e-04
8.05000000e-01	1.17261633e-02	1.87910028e-04
8.06000000e-01	1.17929309e-02	1.90487857e-04
8.07000000e-01	1.17347431e-02	1.91670842e-04
8.08000000e-01	1.16977547e-02	1.92371863e-04
8.09000000e-01	1.18222775e-02	1.97446109e-04
8.10000000e-01	1.16521268e-02	1.96478423e-04
8.11000000e-01	1.14419699e-02	1.96353607e-04
8.12000000e-01	1.17861235e-02	2.03474285e-04
8.13000000e-01	1.17454205e-02	2.04915469e-04
8.14000000e-01	1.17487832e-02	2.08996002e-04
8.15000000e-01	1.15416422e-02	2.07043505e-04
8.16000000e-01	1.16768733e-02	2.11134094e-04
8.17000000e-01	1.13366178e-02	2.08418646e-04
8.18000000e-01	1.15974194e-02	2.15026440e-04
8.19000000e-01	1.15427414e-02	2.18162442e-04
8.20000000e-01	1.15354073e-02	2.20217421e-04
8.21000000e-01	1.14319375e-02	2.20887869e-04
8.22000000e-01	1.14518460e-02	2.24715940e-04
8.23000000e-01	1.17558528e-02	2.32658981e-04
8.24000000e-01	1.15229893e-02	2.33022650e-04
8.25000000e-01	1.14368858e-02	2.31763604e-04
8.26000000e-01	1.14749882e-02	2.38517720e-04
8.27000000e-01	1.14705331e-02	2.42566926e-04
8.28000000e-01	1.13394359e-02	2.42475061e-04
8.29000000e-01	1.12890517e-02	2.45773839e-04
8.30000000e-01	1.13304961e-02	2.48144350e-04
8.31000000e-01	1.12506752e-02	2.51201757e-04
8.32000000e-01	1.13098516e-02	2.57206865e-04
8.33000000e-01	1.15127967e-02	2.64891514e-04
8.34000000e-01	1.13802949e-02	2.67847164e-04
8.35000000e-01	1.13906641e-02	2.73151481e-04
8.36000000e-01	1.13065762e-02	2.72455622e-04
8.37000000e-01	1.11912581e-02	2.80512520e-04
8.38000000e-01	1.13239586e-02	2.88124533e-04
8.39000000e-01	1.11590890e-02	2.90217452e-04
8.40000000e-01	1.13836607e-02	3.01157671e-04
8.41000000e-01	1.11440929e-02	3.05788001e-04
8.42000000e-01	1.08268600e-02	3.00481945e-04
8.43000000e-01	1.11073758e-02	3.14883351e-04
8.44000000e-01	1.09559126e-02	3.17494838e-04
8.45000000e-01	1.13745367e-02	3.39749869e-04
8.46000000e-01	1.10525838e-02	3.39489650e-04
8.47000000e-01	1.10933535e-02	3.49856373e-04
8.48000000e-01	1.09007426e-02	3.56036475e-04
8.49000000e-01	1.11893152e-02	3.74091358e-04
8.50000000e-01	1.13863889e-02	3.92279084e-04
8.51000000e-01	1.12829653e-02	4.05838925e-04
8.52000000e-01	1.07562417e-02	4.01731820e-04
8.53000000e-01	1.07306184e-02	4.21156885e-04
8.54000000e-01	1.06682366e-02	4.38064388e-04
8.55000000e-01	1.10195665e-02	4.65372192e-04
8.56000000e-01	1.12527699e-02	4.88751974e-04
8.57000000e-01	1.12011969e-02	5.07681037e-04
8.58000000e-01	1.10841155e-02	5.07523209e-04
8.59000000e-01	1.13279867e-02	5.28573855e-04
8.60000000e-01	1.08075065e-02	5.27361281e-04
8.61000000e-01	1.10903873e-02	5.58389003e-04
8.62000000e-01	1.09777308e-02	5.84116778e-04
8.63000000e-01	1.14577513e-02	6.18366325e-04
8.64000000e-01	1.04168779e-02	6.10116686e-04
8.65000000e-01	1.09229389e-02	6.53950356e-04
8.66000000e-01	1.06392613e-02	6.65819121e-04
8.67000000e-01	1.05827349e-02	6.97190659e-04
8.68000000e-01	1.10562674e-02	7.97228998e-04
8.69000000e-01	1.11216858e-02	8.68987029e-04
8.70000000e-01	1.05652919e-02	8.81737824e-04
8.71000000e-01	1.14899098e-02	1.05059045e-03
8.72000000e-01	1.11499645e-02	1.14314729e-03
8.73000000e-01	1.09814589e-02	1.40785710e-03
8.74000000e-01	1.15542893e-02	1.74117264e-03
8.75000000e-01	8.95022974e-03	2.92188816e-03
