% Filename : SEC8_00040_00029.h5
% Date & Time : 30-Oct-2025 17:52:36
% X-ray Energy (keV) : 13.30001
% Exposure Time (s) : 0.500
% Beam Center : 1461.24000, 208.98300
% Sample to Detector Distance (SDD) (mm) : 1990.750
% Detector Pixel Size (mm) : 0.075
% Photodiode Value : 141784.000
% I0 of Sample : 0
% I0 of Standard : 1
% 
% q(A^-1)   I(q)    I(q)_SE
0.00000000e+00	6.37123634e-03	4.22620961e-03
2.50000000e-04	0.00000000e+00	0.00000000e+00
5.00000000e-04	0.00000000e+00	0.00000000e+00
7.50000000e-04	0.00000000e+00	0.00000000e+00
1.00000000e-03	0.00000000e+00	0.00000000e+00
1.25000000e-03	0.00000000e+00	0.00000000e+00
1.50000000e-03	0.00000000e+00	0.00000000e+00
1.75000000e-03	0.00000000e+00	0.00000000e+00
2.00000000e-03	0.00000000e+00	0.00000000e+00
2.25000000e-03	0.00000000e+00	0.00000000e+00
2.50000000e-03	0.00000000e+00	0.00000000e+00
2.75000000e-03	0.00000000e+00	0.00000000e+00
3.00000000e-03	0.00000000e+00	0.00000000e+00
3.25000000e-03	8.44778788e+02	4.91154101e+02
3.50000000e-03	3.25622949e+02	9.36052237e+01
3.75000000e-03	2.47293531e+02	5.92378610e+01
4.00000000e-03	1.91013159e+02	4.12725427e+01
4.25000000e-03	1.15256687e+02	2.00016781e+01
4.50000000e-03	1.04411753e+02	1.57585592e+01
4.75000000e-03	9.06898716e+01	1.21438557e+01
5.00000000e-03	7.57745469e+01	9.71899991e+00
5.25000000e-03	6.23072144e+01	7.88905860e+00
5.50000000e-03	5.07752598e+01	6.20651290e+00
5.75000000e-03	4.39191594e+01	5.20765282e+00
6.00000000e-03	3.52324827e+01	4.02711785e+00
6.25000000e-03	3.03548973e+01	3.43040885e+00
6.50000000e-03	2.61346642e+01	2.88336168e+00
6.75000000e-03	2.25368342e+01	2.43297157e+00
7.00000000e-03	2.01372640e+01	2.10306416e+00
7.25000000e-03	1.74222407e+01	1.77171235e+00
7.50000000e-03	1.53335012e+01	1.55415177e+00
7.75000000e-03	1.35446640e+01	1.33576331e+00
8.00000000e-03	1.23326447e+01	1.18650890e+00
8.25000000e-03	1.06287558e+01	9.78079408e-01
8.50000000e-03	9.53498111e+00	8.64032311e-01
8.75000000e-03	8.54897859e+00	7.69511683e-01
9.00000000e-03	7.65335942e+00	6.78213188e-01
9.25000000e-03	6.91161193e+00	5.88224495e-01
9.50000000e-03	6.20956406e+00	5.16266306e-01
9.75000000e-03	5.64487989e+00	4.68807305e-01
1.00000000e-02	5.14279962e+00	4.21740309e-01
1.02500000e-02	4.74095628e+00	3.93472865e-01
1.05000000e-02	4.42607264e+00	3.46448175e-01
1.07500000e-02	4.02013352e+00	3.16591782e-01
1.10000000e-02	3.62627961e+00	2.76067363e-01
1.12500000e-02	3.40028418e+00	2.66195823e-01
1.15000000e-02	3.14906038e+00	2.39320307e-01
1.17500000e-02	2.87701480e+00	2.12854464e-01
1.20000000e-02	2.67287509e+00	1.96296552e-01
1.22500000e-02	2.52461425e+00	1.81599185e-01
1.25000000e-02	2.33730083e+00	1.68139350e-01
1.27500000e-02	2.20613402e+00	1.56531250e-01
1.30000000e-02	2.06648278e+00	1.43821894e-01
1.32500000e-02	1.90254734e+00	1.29146975e-01
1.35000000e-02	1.77820350e+00	1.21382424e-01
1.37500000e-02	1.70302926e+00	1.16260510e-01
1.40000000e-02	1.57831120e+00	1.05822171e-01
1.42500000e-02	1.47319560e+00	9.69024037e-02
1.45000000e-02	1.38654146e+00	9.07286339e-02
1.47500000e-02	1.30181346e+00	8.49686793e-02
1.50000000e-02	1.23704148e+00	8.02970493e-02
1.52500000e-02	1.16831721e+00	7.46234885e-02
1.55000000e-02	1.10102457e+00	6.89340478e-02
1.57500000e-02	1.03159130e+00	6.43204486e-02
1.60000000e-02	9.85573276e-01	6.04204959e-02
1.62500000e-02	9.45059855e-01	5.89709977e-02
1.65000000e-02	8.75995679e-01	5.34109823e-02
1.67500000e-02	8.43590500e-01	5.04623524e-02
1.70000000e-02	8.03541039e-01	4.80554093e-02
1.72500000e-02	7.62145881e-01	4.50509231e-02
1.75000000e-02	7.20784519e-01	4.23804292e-02
1.77500000e-02	6.82316690e-01	3.93677999e-02
1.80000000e-02	6.62754898e-01	3.85101111e-02
1.82500000e-02	6.21458485e-01	3.50615565e-02
1.85000000e-02	5.94395687e-01	3.43721519e-02
1.87500000e-02	5.59448217e-01	3.13989296e-02
1.90000000e-02	5.41069813e-01	3.02919718e-02
1.92500000e-02	5.19503341e-01	2.86408410e-02
1.95000000e-02	4.83035255e-01	2.62221288e-02
1.97500000e-02	4.68753269e-01	2.58869257e-02
2.00000000e-02	4.38981047e-01	2.38108328e-02
2.02500000e-02	4.25033859e-01	2.27529934e-02
2.05000000e-02	4.04042674e-01	2.12681207e-02
2.07500000e-02	3.90720375e-01	2.05497681e-02
2.10000000e-02	3.77466397e-01	2.00464525e-02
2.12500000e-02	3.65783952e-01	1.93930612e-02
2.15000000e-02	3.52051042e-01	1.84870479e-02
2.17500000e-02	3.39018756e-01	1.78559053e-02
2.20000000e-02	3.28463074e-01	1.72656590e-02
2.22500000e-02	3.15381697e-01	1.64144625e-02
2.25000000e-02	3.03715151e-01	1.58723070e-02
2.27500000e-02	2.92061206e-01	1.50674780e-02
2.30000000e-02	2.82125784e-01	1.47152915e-02
2.32500000e-02	2.67908657e-01	1.37374410e-02
2.35000000e-02	2.64760426e-01	1.37611691e-02
2.37500000e-02	2.54881667e-01	1.31925369e-02
2.40000000e-02	2.44402120e-01	1.26283640e-02
2.42500000e-02	2.35788008e-01	1.19700761e-02
2.45000000e-02	2.28669088e-01	1.16763081e-02
2.47500000e-02	2.19892670e-01	1.11045408e-02
2.50000000e-02	2.14156261e-01	1.08400973e-02
2.52500000e-02	2.08564822e-01	1.06666788e-02
2.55000000e-02	1.99176046e-01	9.92130502e-03
2.57500000e-02	1.95361577e-01	9.77109600e-03
2.60000000e-02	1.87659306e-01	9.28756294e-03
2.62500000e-02	1.82220503e-01	9.13047351e-03
2.65000000e-02	1.75877139e-01	8.70267145e-03
2.67500000e-02	1.70085980e-01	8.37298311e-03
2.70000000e-02	1.65577066e-01	8.13190615e-03
2.72500000e-02	1.61449062e-01	7.81870268e-03
2.75000000e-02	1.54517050e-01	7.65717626e-03
2.77500000e-02	1.55833505e-01	7.66663029e-03
2.80000000e-02	1.50666055e-01	7.25753138e-03
2.82500000e-02	1.44810109e-01	6.92447716e-03
2.85000000e-02	1.41720288e-01	6.79440332e-03
2.87500000e-02	1.39015552e-01	6.65209901e-03
2.90000000e-02	1.35334294e-01	6.50689054e-03
2.92500000e-02	1.30813200e-01	6.08347243e-03
2.95000000e-02	1.31237137e-01	6.22685794e-03
2.97500000e-02	1.26074350e-01	5.92292184e-03
3.00000000e-02	1.23360922e-01	5.82170756e-03
3.02500000e-02	1.19609250e-01	5.62912335e-03
3.05000000e-02	1.16622912e-01	5.35849220e-03
3.07500000e-02	1.15273660e-01	5.35903061e-03
3.10000000e-02	1.13100035e-01	5.27690529e-03
3.12500000e-02	1.08479976e-01	5.07038717e-03
3.15000000e-02	1.05541711e-01	4.86803010e-03
3.17500000e-02	1.04888747e-01	4.74963256e-03
3.20000000e-02	1.01543399e-01	4.66095835e-03
3.22500000e-02	1.02825023e-01	4.71172197e-03
3.25000000e-02	9.91082592e-02	4.56861606e-03
3.27500000e-02	9.60417948e-02	4.36175614e-03
3.30000000e-02	9.40360007e-02	4.26226182e-03
3.32500000e-02	9.22866891e-02	4.15059494e-03
3.35000000e-02	9.18045771e-02	4.19369279e-03
3.37500000e-02	8.97762314e-02	4.06122030e-03
3.40000000e-02	8.69767264e-02	3.91963253e-03
3.42500000e-02	8.60341697e-02	3.83705485e-03
3.45000000e-02	8.39289391e-02	3.74445211e-03
3.47500000e-02	8.26698693e-02	3.68409070e-03
3.50000000e-02	8.04057465e-02	3.57687082e-03
3.52500000e-02	7.93742710e-02	3.53932543e-03
3.55000000e-02	7.80339480e-02	3.43401227e-03
3.57500000e-02	7.68361687e-02	3.40845150e-03
3.60000000e-02	7.52994608e-02	3.32420391e-03
3.62500000e-02	7.39216754e-02	3.26748541e-03
3.65000000e-02	7.25348860e-02	3.20289245e-03
3.67500000e-02	7.17175148e-02	3.13961770e-03
3.70000000e-02	6.95226998e-02	3.04675390e-03
3.72500000e-02	6.93287376e-02	3.01620828e-03
3.75000000e-02	6.76245578e-02	2.96282733e-03
3.77500000e-02	6.82951578e-02	2.95592679e-03
3.80000000e-02	6.85028105e-02	2.95994282e-03
3.82500000e-02	6.61410183e-02	2.85673239e-03
3.85000000e-02	6.41615135e-02	2.79876715e-03
3.87500000e-02	6.37897811e-02	2.73498630e-03
3.90000000e-02	6.36164986e-02	2.75691189e-03
3.92500000e-02	6.23758639e-02	2.65583942e-03
3.95000000e-02	6.13233179e-02	2.60973239e-03
3.97500000e-02	6.03486026e-02	2.57582722e-03
4.00000000e-02	5.97874989e-02	2.54265650e-03
4.02500000e-02	5.85314574e-02	2.47536734e-03
4.05000000e-02	5.85120943e-02	2.45256944e-03
4.07500000e-02	5.72947277e-02	2.39634406e-03
4.10000000e-02	5.72134915e-02	2.40926640e-03
4.12500000e-02	5.60686586e-02	2.35459023e-03
4.15000000e-02	5.55924806e-02	2.30124892e-03
4.17500000e-02	5.57981657e-02	2.30964066e-03
4.20000000e-02	5.30026472e-02	2.19789411e-03
4.22500000e-02	5.32914147e-02	2.21108612e-03
4.25000000e-02	5.26954949e-02	2.18754833e-03
4.27500000e-02	5.26676178e-02	2.16673450e-03
4.30000000e-02	5.16373939e-02	2.10838055e-03
4.32500000e-02	5.00121056e-02	2.04507162e-03
4.35000000e-02	5.05596814e-02	2.08225565e-03
4.37500000e-02	4.93190988e-02	2.00294044e-03
4.40000000e-02	4.86562432e-02	2.01204574e-03
4.42500000e-02	4.89155069e-02	1.99392071e-03
4.45000000e-02	4.88432189e-02	1.97606310e-03
4.47500000e-02	4.66795305e-02	1.90179355e-03
4.50000000e-02	4.85694340e-02	1.97523548e-03
4.52500000e-02	4.69729814e-02	1.90041143e-03
4.55000000e-02	4.76475857e-02	1.91447579e-03
4.57500000e-02	4.67560837e-02	1.87738880e-03
4.60000000e-02	4.51686037e-02	1.81431299e-03
4.62500000e-02	4.61771314e-02	1.84661684e-03
4.65000000e-02	4.42485234e-02	1.75774366e-03
4.67500000e-02	4.49479560e-02	1.77085511e-03
4.70000000e-02	4.37480531e-02	1.72518586e-03
4.72500000e-02	4.31753705e-02	1.72118143e-03
4.75000000e-02	4.31557996e-02	1.71373848e-03
4.77500000e-02	4.31290015e-02	1.69501466e-03
4.80000000e-02	4.26624604e-02	1.67636182e-03
4.82500000e-02	4.13577753e-02	1.61720896e-03
4.85000000e-02	4.14849743e-02	1.64820692e-03
4.87500000e-02	4.13247548e-02	1.61792890e-03
4.90000000e-02	4.13220719e-02	1.60906873e-03
4.92500000e-02	4.08219010e-02	1.58149268e-03
4.95000000e-02	4.00687868e-02	1.57049807e-03
4.97500000e-02	3.97106411e-02	1.56020689e-03
5.00000000e-02	3.97566274e-02	1.55182211e-03
5.02500000e-02	3.99218895e-02	1.52765214e-03
5.05000000e-02	3.99924306e-02	1.54264892e-03
5.07500000e-02	4.01350572e-02	1.55762655e-03
5.10000000e-02	3.90431777e-02	1.50949494e-03
5.12500000e-02	3.84584299e-02	1.48867469e-03
5.15000000e-02	3.85237677e-02	1.46534677e-03
5.17500000e-02	3.73891755e-02	1.44767165e-03
5.20000000e-02	3.75557999e-02	1.43304306e-03
5.22500000e-02	3.67890519e-02	1.41159945e-03
5.25000000e-02	3.66578957e-02	1.38958668e-03
5.27500000e-02	3.68979302e-02	1.39619077e-03
5.30000000e-02	3.60204696e-02	1.38014189e-03
5.32500000e-02	3.63968827e-02	1.36896488e-03
5.35000000e-02	3.58945623e-02	1.36248038e-03
5.37500000e-02	3.57996056e-02	1.35605836e-03
5.40000000e-02	3.62499011e-02	1.36716057e-03
5.42500000e-02	3.58812415e-02	1.33814848e-03
5.45000000e-02	3.50532814e-02	1.32264411e-03
5.47500000e-02	3.43396343e-02	1.29294881e-03
5.50000000e-02	3.51837845e-02	1.32106960e-03
5.52500000e-02	3.38139371e-02	1.26443190e-03
5.55000000e-02	3.46698110e-02	1.29744487e-03
5.57500000e-02	3.45846595e-02	1.30143866e-03
5.60000000e-02	3.42368948e-02	1.27146649e-03
5.62500000e-02	3.34195187e-02	1.25429564e-03
5.65000000e-02	3.38090535e-02	1.25748697e-03
5.67500000e-02	3.39713423e-02	1.26186365e-03
5.70000000e-02	3.28867093e-02	1.20891371e-03
5.72500000e-02	3.34425840e-02	1.23613032e-03
5.75000000e-02	3.33057801e-02	1.23548677e-03
5.77500000e-02	3.29314399e-02	1.20437418e-03
5.80000000e-02	3.25620207e-02	1.20345892e-03
5.82500000e-02	3.23543878e-02	1.19350283e-03
5.85000000e-02	3.17640474e-02	1.17171385e-03
5.87500000e-02	3.19764666e-02	1.17130990e-03
5.90000000e-02	3.15994010e-02	1.15459160e-03
5.92500000e-02	3.17738662e-02	1.15730090e-03
5.95000000e-02	3.20557167e-02	1.16434372e-03
5.97500000e-02	3.11610912e-02	1.13736523e-03
6.00000000e-02	3.12822112e-02	1.13237239e-03
6.02500000e-02	3.12590942e-02	1.13187566e-03
6.05000000e-02	3.12416986e-02	1.12806614e-03
6.07500000e-02	3.05602345e-02	1.11476723e-03
6.10000000e-02	3.12409625e-02	1.13216175e-03
6.12500000e-02	3.01409194e-02	1.09437438e-03
6.15000000e-02	3.11196962e-02	1.11811728e-03
6.17500000e-02	3.06696437e-02	1.10670495e-03
6.20000000e-02	3.02740424e-02	1.09148672e-03
6.22500000e-02	3.00997264e-02	1.08074326e-03
6.25000000e-02	3.00129038e-02	1.07767232e-03
6.27500000e-02	3.00949867e-02	1.07485601e-03
6.30000000e-02	3.01917867e-02	1.07406850e-03
6.32500000e-02	2.90305945e-02	1.03954217e-03
6.35000000e-02	2.98030333e-02	1.05464695e-03
6.37500000e-02	2.92011102e-02	1.03434534e-03
6.40000000e-02	2.95071050e-02	1.05620933e-03
6.42500000e-02	2.92582130e-02	1.02937109e-03
6.45000000e-02	2.93085756e-02	1.03284573e-03
6.47500000e-02	2.85557034e-02	1.01049096e-03
6.50000000e-02	2.89995596e-02	1.02292708e-03
6.52500000e-02	2.81625790e-02	9.90245029e-04
6.55000000e-02	2.84877413e-02	1.00013496e-03
6.57500000e-02	2.89179929e-02	1.01321574e-03
6.60000000e-02	2.80209180e-02	9.82701514e-04
6.62500000e-02	2.83345509e-02	9.95582949e-04
6.65000000e-02	2.84920319e-02	9.88042282e-04
6.67500000e-02	2.87020537e-02	9.87703776e-04
6.70000000e-02	2.76588229e-02	9.62291357e-04
6.72500000e-02	2.84081901e-02	9.93908946e-04
6.75000000e-02	2.73195376e-02	9.50299659e-04
6.77500000e-02	2.84337331e-02	9.81121885e-04
6.80000000e-02	2.75687443e-02	9.53338555e-04
6.82500000e-02	2.75918670e-02	9.57355747e-04
6.85000000e-02	2.76443369e-02	9.65142825e-04
6.87500000e-02	2.74584443e-02	9.41841981e-04
6.90000000e-02	2.75118688e-02	9.39861731e-04
6.92500000e-02	2.72388936e-02	9.31543130e-04
6.95000000e-02	2.67842197e-02	9.21446866e-04
6.97500000e-02	2.75589321e-02	9.47554574e-04
7.00000000e-02	2.75027846e-02	9.37973767e-04
7.02500000e-02	2.70636130e-02	9.27667124e-04
7.05000000e-02	2.70047034e-02	9.13210575e-04
7.07500000e-02	2.62993242e-02	9.08027935e-04
7.10000000e-02	2.68158648e-02	9.13893536e-04
7.12500000e-02	2.67648757e-02	9.12042319e-04
7.15000000e-02	2.65892998e-02	8.99028166e-04
7.17500000e-02	2.70074047e-02	9.23665824e-04
7.20000000e-02	2.71454264e-02	9.26950588e-04
7.22500000e-02	2.63497002e-02	8.98233293e-04
7.25000000e-02	2.62133620e-02	8.85328622e-04
7.27500000e-02	2.65495847e-02	8.92460889e-04
7.30000000e-02	2.62783319e-02	8.86269007e-04
7.32500000e-02	2.61183982e-02	8.72018612e-04
7.35000000e-02	2.65540232e-02	8.91429801e-04
7.37500000e-02	2.62577135e-02	8.73725977e-04
7.40000000e-02	2.56662456e-02	8.70037788e-04
7.42500000e-02	2.51817026e-02	8.42264888e-04
7.45000000e-02	2.54432842e-02	8.56284017e-04
7.47500000e-02	2.53934530e-02	8.51742630e-04
7.50000000e-02	2.60642434e-02	8.70711099e-04
7.52500000e-02	2.57240471e-02	8.57304900e-04
7.55000000e-02	2.53880727e-02	8.42604107e-04
7.57500000e-02	2.58326939e-02	8.57310074e-04
7.60000000e-02	2.50422651e-02	8.32875960e-04
7.62500000e-02	2.56622461e-02	8.53513180e-04
7.65000000e-02	2.49687626e-02	8.28710430e-04
7.67500000e-02	2.55239012e-02	8.44681256e-04
7.70000000e-02	2.47611534e-02	8.20758479e-04
7.72500000e-02	2.50325717e-02	8.40543948e-04
7.75000000e-02	2.52922440e-02	8.57284916e-04
7.77500000e-02	2.53502178e-02	8.65801786e-04
7.80000000e-02	2.51599588e-02	8.57569531e-04
7.82500000e-02	2.50763362e-02	8.65259168e-04
7.85000000e-02	2.49802508e-02	8.65347998e-04
7.87500000e-02	2.50922961e-02	8.70190697e-04
7.90000000e-02	2.53614950e-02	8.76115250e-04
7.92500000e-02	2.51371570e-02	8.78082664e-04
7.95000000e-02	2.49267920e-02	8.68995951e-04
7.97500000e-02	2.51936562e-02	8.82574096e-04
8.00000000e-02	2.54806192e-02	8.92411166e-04
8.02500000e-02	2.57273193e-02	9.04125568e-04
8.05000000e-02	2.54832697e-02	8.91976332e-04
8.07500000e-02	2.50598058e-02	8.91124843e-04
8.10000000e-02	2.51054433e-02	8.93039697e-04
8.12500000e-02	2.51221727e-02	8.92248894e-04
8.15000000e-02	2.48461187e-02	8.78290368e-04
8.17500000e-02	2.47828781e-02	8.83645028e-04
8.20000000e-02	2.48093266e-02	8.85947480e-04
8.22500000e-02	2.43870772e-02	8.69966378e-04
8.25000000e-02	2.49202372e-02	8.92962398e-04
8.27500000e-02	2.37732484e-02	8.50587809e-04
8.30000000e-02	2.40515529e-02	8.64627078e-04
8.32500000e-02	2.49424806e-02	9.01975400e-04
8.35000000e-02	2.47972416e-02	8.96713723e-04
8.37500000e-02	2.43192502e-02	8.72783080e-04
8.40000000e-02	2.44664170e-02	8.81580720e-04
8.42500000e-02	2.42627889e-02	8.75127450e-04
8.45000000e-02	2.41788591e-02	8.71262306e-04
8.47500000e-02	2.48952859e-02	9.04862900e-04
8.50000000e-02	2.43251803e-02	8.76120629e-04
8.52500000e-02	2.42490040e-02	8.83028646e-04
8.55000000e-02	2.46030503e-02	8.92329100e-04
8.57500000e-02	2.44467999e-02	8.87595543e-04
8.60000000e-02	2.42813578e-02	8.84058106e-04
8.62500000e-02	2.46344223e-02	8.92505151e-04
8.65000000e-02	2.45471150e-02	8.97637253e-04
8.67500000e-02	2.45396832e-02	8.88729414e-04
8.70000000e-02	2.29703585e-02	8.22826580e-04
8.72500000e-02	2.37136682e-02	8.34104677e-04
8.75000000e-02	2.41847512e-02	8.39309450e-04
8.77500000e-02	2.36279873e-02	8.17061588e-04
8.80000000e-02	2.43048550e-02	8.40108327e-04
8.82500000e-02	2.40100303e-02	8.26077214e-04
8.85000000e-02	2.41171658e-02	8.22801323e-04
8.87500000e-02	2.32111141e-02	7.88552288e-04
8.90000000e-02	2.40788380e-02	8.18760998e-04
8.92500000e-02	2.36156584e-02	7.95997023e-04
8.95000000e-02	2.31940154e-02	7.88684710e-04
8.97500000e-02	2.34640449e-02	7.87415943e-04
9.00000000e-02	2.35264112e-02	7.88133333e-04
9.02500000e-02	2.33870981e-02	7.80475040e-04
9.05000000e-02	2.37648314e-02	7.95520847e-04
9.07500000e-02	2.35168277e-02	7.83080762e-04
9.10000000e-02	2.31419120e-02	7.70962558e-04
9.12500000e-02	2.37441366e-02	7.81914069e-04
9.15000000e-02	2.35251471e-02	7.82617654e-04
9.17500000e-02	2.32363096e-02	7.70717618e-04
9.20000000e-02	2.27263444e-02	7.43595028e-04
9.22500000e-02	2.26666547e-02	7.49502765e-04
9.25000000e-02	2.32804488e-02	7.59849019e-04
9.27500000e-02	2.29189240e-02	7.50345828e-04
9.30000000e-02	2.39163238e-02	7.78287246e-04
9.32500000e-02	2.35064998e-02	7.65392886e-04
9.35000000e-02	2.30685848e-02	7.48429744e-04
9.37500000e-02	2.31163331e-02	7.48182481e-04
9.40000000e-02	2.31200570e-02	7.53888199e-04
9.42500000e-02	2.31155349e-02	7.46159529e-04
9.45000000e-02	2.27979619e-02	7.39811755e-04
9.47500000e-02	2.29600342e-02	7.45258775e-04
9.50000000e-02	2.30729039e-02	7.37665876e-04
9.52500000e-02	2.28868718e-02	7.34271151e-04
9.55000000e-02	2.30002805e-02	7.31986281e-04
9.57500000e-02	2.28475068e-02	7.29651258e-04
9.60000000e-02	2.33418512e-02	7.41576193e-04
9.62500000e-02	2.24178053e-02	7.14269281e-04
9.65000000e-02	2.26860273e-02	7.26085443e-04
9.67500000e-02	2.30858869e-02	7.29571506e-04
9.70000000e-02	2.33348472e-02	7.38092734e-04
9.72500000e-02	2.25050692e-02	7.14852490e-04
9.75000000e-02	2.25730028e-02	7.14593672e-04
9.77500000e-02	2.28541450e-02	7.13248821e-04
9.80000000e-02	2.29051254e-02	7.20920192e-04
9.82500000e-02	2.24575841e-02	7.11032642e-04
9.85000000e-02	2.28663015e-02	7.16915823e-04
9.87500000e-02	2.28471106e-02	7.16248682e-04
9.90000000e-02	2.22126590e-02	6.94867411e-04
9.92500000e-02	2.23705381e-02	7.05758191e-04
9.95000000e-02	2.25890954e-02	7.02470560e-04
9.97500000e-02	2.28442799e-02	7.16665315e-04
1.00000000e-01	2.26089204e-02	5.73154446e-04
1.00500000e-01	2.26844656e-02	5.01461631e-04
1.01000000e-01	2.23931092e-02	4.89045765e-04
1.01500000e-01	2.23493863e-02	4.90520340e-04
1.02000000e-01	2.24546447e-02	4.89551190e-04
1.02500000e-01	2.24157670e-02	4.86878350e-04
1.03000000e-01	2.22438148e-02	4.81700293e-04
1.03500000e-01	2.25133629e-02	4.86900585e-04
1.04000000e-01	2.24286697e-02	4.80999838e-04
1.04500000e-01	2.20714398e-02	4.77266346e-04
1.05000000e-01	2.21920634e-02	4.75969841e-04
1.05500000e-01	2.23184494e-02	4.75706617e-04
1.06000000e-01	2.24608598e-02	4.78359962e-04
1.06500000e-01	2.24136578e-02	4.75310540e-04
1.07000000e-01	2.23300495e-02	4.80794569e-04
1.07500000e-01	2.16718933e-02	4.75035091e-04
1.08000000e-01	2.20230283e-02	4.90395023e-04
1.08500000e-01	2.13970820e-02	4.79143615e-04
1.09000000e-01	2.18924700e-02	4.89940176e-04
1.09500000e-01	2.18635259e-02	4.92825700e-04
1.10000000e-01	2.22345074e-02	4.95600039e-04
1.10500000e-01	2.20408601e-02	4.81457364e-04
1.11000000e-01	2.20740295e-02	4.73297055e-04
1.11500000e-01	2.20628558e-02	4.71724840e-04
1.12000000e-01	2.16144243e-02	4.57483919e-04
1.12500000e-01	2.19177795e-02	4.58934043e-04
1.13000000e-01	2.17085063e-02	4.55524227e-04
1.13500000e-01	2.19090253e-02	4.59812964e-04
1.14000000e-01	2.14874375e-02	4.49187346e-04
1.14500000e-01	2.18748558e-02	4.54634752e-04
1.15000000e-01	2.20726057e-02	4.56023150e-04
1.15500000e-01	2.20429101e-02	4.54763186e-04
1.16000000e-01	2.18455910e-02	4.51066649e-04
1.16500000e-01	2.17129249e-02	4.46222090e-04
1.17000000e-01	2.18813712e-02	4.49146631e-04
1.17500000e-01	2.21781668e-02	4.54934035e-04
1.18000000e-01	2.16415379e-02	4.41942314e-04
1.18500000e-01	2.15663658e-02	4.37914901e-04
1.19000000e-01	2.15986687e-02	4.39180316e-04
1.19500000e-01	2.15647186e-02	4.35569216e-04
1.20000000e-01	2.17251823e-02	4.37249481e-04
1.20500000e-01	2.15843685e-02	4.34762006e-04
1.21000000e-01	2.14242883e-02	4.30389108e-04
1.21500000e-01	2.15158602e-02	4.33047465e-04
1.22000000e-01	2.14871159e-02	4.29204940e-04
1.22500000e-01	2.14798938e-02	4.29783899e-04
1.23000000e-01	2.17375308e-02	4.32389554e-04
1.23500000e-01	2.13659145e-02	4.25103966e-04
1.24000000e-01	2.14295416e-02	4.26917985e-04
1.24500000e-01	2.14962265e-02	4.25385798e-04
1.25000000e-01	2.18304702e-02	4.31794612e-04
1.25500000e-01	2.14662950e-02	4.23246017e-04
1.26000000e-01	2.12803196e-02	4.18555957e-04
1.26500000e-01	2.14360001e-02	4.21535268e-04
1.27000000e-01	2.17242008e-02	4.22680597e-04
1.27500000e-01	2.11040559e-02	4.13753158e-04
1.28000000e-01	2.11323200e-02	4.13173502e-04
1.28500000e-01	2.12299824e-02	4.14969006e-04
1.29000000e-01	2.12824158e-02	4.13542221e-04
1.29500000e-01	2.15500552e-02	4.18476934e-04
1.30000000e-01	2.13704159e-02	4.14453489e-04
1.30500000e-01	2.14066886e-02	4.14528317e-04
1.31000000e-01	2.13080784e-02	4.10948433e-04
1.31500000e-01	2.13045393e-02	4.09570725e-04
1.32000000e-01	2.15132111e-02	4.12740166e-04
1.32500000e-01	2.15701833e-02	4.12904158e-04
1.33000000e-01	2.08992055e-02	4.00440631e-04
1.33500000e-01	2.14043977e-02	4.05978801e-04
1.34000000e-01	2.10943090e-02	4.00478334e-04
1.34500000e-01	2.13550997e-02	4.04323124e-04
1.35000000e-01	2.10342906e-02	3.98776764e-04
1.35500000e-01	2.17122899e-02	4.09795534e-04
1.36000000e-01	2.15149736e-02	4.03990711e-04
1.36500000e-01	2.13701169e-02	4.02582474e-04
1.37000000e-01	2.12040177e-02	3.96800555e-04
1.37500000e-01	2.11388695e-02	3.97043773e-04
1.38000000e-01	2.09327096e-02	3.92719254e-04
1.38500000e-01	2.11971051e-02	3.96464963e-04
1.39000000e-01	2.08776233e-02	3.90680551e-04
1.39500000e-01	2.07725240e-02	3.90024097e-04
1.40000000e-01	2.08786802e-02	3.89757240e-04
1.40500000e-01	2.09457831e-02	3.91149842e-04
1.41000000e-01	2.06447689e-02	3.83311982e-04
1.41500000e-01	2.07345933e-02	3.85323764e-04
1.42000000e-01	2.10628230e-02	3.90028529e-04
1.42500000e-01	2.08360956e-02	3.87752099e-04
1.43000000e-01	2.06083379e-02	3.81108425e-04
1.43500000e-01	2.07121139e-02	3.82394215e-04
1.44000000e-01	2.06931084e-02	3.82363742e-04
1.44500000e-01	2.07299646e-02	3.78644723e-04
1.45000000e-01	2.04568758e-02	3.77581428e-04
1.45500000e-01	2.05624061e-02	3.77221526e-04
1.46000000e-01	2.03798721e-02	3.74679266e-04
1.46500000e-01	2.06622043e-02	3.79152192e-04
1.47000000e-01	2.02815080e-02	3.70827653e-04
1.47500000e-01	2.04192372e-02	3.73242423e-04
1.48000000e-01	2.05564812e-02	3.74515795e-04
1.48500000e-01	2.05289611e-02	3.74408376e-04
1.49000000e-01	2.03687984e-02	3.69320758e-04
1.49500000e-01	2.03697085e-02	3.68826837e-04
1.50000000e-01	2.06505730e-02	3.74142106e-04
1.50500000e-01	2.07223319e-02	3.74930683e-04
1.51000000e-01	2.05788201e-02	3.71678088e-04
1.51500000e-01	2.05867876e-02	3.69655004e-04
1.52000000e-01	2.05157149e-02	3.66925042e-04
1.52500000e-01	2.03790356e-02	3.67349788e-04
1.53000000e-01	2.02112228e-02	3.62521589e-04
1.53500000e-01	2.01605431e-02	3.60071363e-04
1.54000000e-01	2.01126766e-02	3.58094457e-04
1.54500000e-01	2.05359547e-02	3.72292647e-04
1.55000000e-01	2.02719726e-02	3.72206118e-04
1.55500000e-01	2.05203621e-02	3.78693709e-04
1.56000000e-01	2.02745634e-02	3.77853523e-04
1.56500000e-01	2.02898913e-02	3.77580577e-04
1.57000000e-01	2.02269125e-02	3.76710764e-04
1.57500000e-01	2.02097465e-02	3.68589275e-04
1.58000000e-01	2.00009263e-02	3.61367297e-04
1.58500000e-01	2.04059603e-02	3.65946930e-04
1.59000000e-01	2.01185244e-02	3.58387585e-04
1.59500000e-01	2.01383028e-02	3.59369759e-04
1.60000000e-01	2.00800801e-02	3.59418542e-04
1.60500000e-01	2.01599539e-02	3.57486032e-04
1.61000000e-01	2.00684433e-02	3.55832206e-04
1.61500000e-01	2.02599520e-02	3.56048642e-04
1.62000000e-01	2.04991906e-02	3.60344121e-04
1.62500000e-01	1.99696897e-02	3.51895484e-04
1.63000000e-01	2.00740633e-02	3.52122721e-04
1.63500000e-01	1.99660567e-02	3.50789990e-04
1.64000000e-01	2.01665933e-02	3.51722599e-04
1.64500000e-01	2.01175241e-02	3.51828913e-04
1.65000000e-01	2.01239356e-02	3.51079318e-04
1.65500000e-01	1.99344877e-02	3.47985089e-04
1.66000000e-01	2.01557788e-02	3.50480203e-04
1.66500000e-01	2.02996740e-02	3.50348635e-04
1.67000000e-01	1.98313607e-02	3.44389752e-04
1.67500000e-01	1.99786705e-02	3.45974755e-04
1.68000000e-01	1.98344497e-02	3.43444079e-04
1.68500000e-01	2.00030593e-02	3.43396298e-04
1.69000000e-01	2.00492718e-02	3.44990881e-04
1.69500000e-01	1.98661993e-02	3.41311293e-04
1.70000000e-01	2.02760926e-02	3.49012173e-04
1.70500000e-01	1.95984980e-02	3.36345758e-04
1.71000000e-01	1.96672418e-02	3.36963952e-04
1.71500000e-01	1.99064872e-02	3.41683802e-04
1.72000000e-01	1.98845288e-02	3.39091420e-04
1.72500000e-01	1.94807458e-02	3.32474134e-04
1.73000000e-01	1.97581913e-02	3.36731985e-04
1.73500000e-01	1.99260978e-02	3.38326596e-04
1.74000000e-01	1.97802426e-02	3.34365065e-04
1.74500000e-01	1.95984242e-02	3.29851858e-04
1.75000000e-01	1.95002022e-02	3.27123065e-04
1.75500000e-01	1.98969009e-02	3.33337827e-04
1.76000000e-01	1.95100680e-02	3.28016834e-04
1.76500000e-01	1.96303126e-02	3.30951839e-04
1.77000000e-01	1.94586003e-02	3.25157954e-04
1.77500000e-01	1.95694595e-02	3.27551999e-04
1.78000000e-01	1.94767523e-02	3.25051651e-04
1.78500000e-01	1.97197829e-02	3.30853758e-04
1.79000000e-01	1.97692296e-02	3.31461418e-04
1.79500000e-01	1.95373662e-02	3.26392223e-04
1.80000000e-01	1.95648392e-02	3.27167579e-04
1.80500000e-01	1.95730688e-02	3.26988561e-04
1.81000000e-01	1.95683912e-02	3.25587980e-04
1.81500000e-01	1.97746822e-02	3.28463842e-04
1.82000000e-01	1.95715409e-02	3.24515279e-04
1.82500000e-01	1.94027149e-02	3.20932917e-04
1.83000000e-01	1.95735693e-02	3.24351185e-04
1.83500000e-01	1.97740136e-02	3.26514661e-04
1.84000000e-01	1.93849915e-02	3.20268587e-04
1.84500000e-01	1.96135228e-02	3.24098074e-04
1.85000000e-01	1.94362046e-02	3.21129479e-04
1.85500000e-01	1.91734221e-02	3.16381439e-04
1.86000000e-01	1.95086445e-02	3.19607337e-04
1.86500000e-01	1.94691945e-02	3.19125698e-04
1.87000000e-01	1.94969608e-02	3.19224979e-04
1.87500000e-01	1.92934002e-02	3.15998963e-04
1.88000000e-01	1.95563468e-02	3.19295759e-04
1.88500000e-01	1.93779366e-02	3.16101150e-04
1.89000000e-01	1.94499632e-02	3.17686659e-04
1.89500000e-01	1.94089602e-02	3.16336771e-04
1.90000000e-01	1.92387135e-02	3.11589688e-04
1.90500000e-01	1.91805076e-02	3.11045351e-04
1.91000000e-01	1.89730629e-02	3.08007135e-04
1.91500000e-01	1.91233875e-02	3.10895115e-04
1.92000000e-01	1.92521242e-02	3.10846654e-04
1.92500000e-01	1.92628153e-02	3.11835657e-04
1.93000000e-01	1.91264019e-02	3.08782836e-04
1.93500000e-01	1.92583944e-02	3.09897589e-04
1.94000000e-01	1.92699786e-02	3.11429665e-04
1.94500000e-01	1.92863799e-02	3.10035054e-04
1.95000000e-01	1.93270909e-02	3.10937739e-04
1.95500000e-01	1.91053819e-02	3.06388004e-04
1.96000000e-01	1.88658145e-02	3.03141430e-04
1.96500000e-01	1.92910262e-02	3.08137005e-04
1.97000000e-01	1.93239422e-02	3.08011023e-04
1.97500000e-01	1.92220203e-02	3.06741304e-04
1.98000000e-01	1.89988664e-02	3.02128340e-04
1.98500000e-01	1.93319082e-02	3.07574866e-04
1.99000000e-01	1.91691124e-02	3.05870690e-04
1.99500000e-01	1.90313709e-02	3.03041717e-04
2.00000000e-01	1.88468249e-02	3.00416845e-04
2.00500000e-01	1.88497856e-02	3.00554561e-04
2.01000000e-01	1.89163654e-02	3.00348275e-04
2.01500000e-01	1.91656332e-02	3.03767262e-04
2.02000000e-01	1.91679558e-02	3.02707452e-04
2.02500000e-01	1.89961411e-02	2.99288603e-04
2.03000000e-01	1.91369306e-02	3.02145024e-04
2.03500000e-01	1.91137141e-02	3.00738243e-04
2.04000000e-01	1.91046096e-02	3.00443982e-04
2.04500000e-01	1.91582278e-02	3.00762542e-04
2.05000000e-01	1.88707429e-02	2.95371858e-04
2.05500000e-01	1.87601922e-02	2.93491605e-04
2.06000000e-01	1.89844698e-02	2.97495294e-04
2.06500000e-01	1.89788413e-02	2.95788966e-04
2.07000000e-01	1.89097728e-02	2.95182285e-04
2.07500000e-01	1.90763832e-02	2.97037101e-04
2.08000000e-01	1.89597081e-02	2.95812078e-04
2.08500000e-01	1.89404172e-02	2.94458987e-04
2.09000000e-01	1.88707026e-02	2.94143885e-04
2.09500000e-01	1.91281548e-02	2.97349665e-04
2.10000000e-01	1.88471364e-02	2.93270597e-04
2.10500000e-01	1.87772314e-02	2.90804086e-04
2.11000000e-01	1.86733186e-02	2.87300060e-04
2.11500000e-01	1.89064066e-02	2.94108739e-04
2.12000000e-01	1.87649780e-02	2.90447620e-04
2.12500000e-01	1.87552982e-02	2.90428884e-04
2.13000000e-01	1.91113032e-02	2.94926024e-04
2.13500000e-01	1.87111775e-02	2.88340470e-04
2.14000000e-01	1.88686649e-02	2.90154583e-04
2.14500000e-01	1.89561336e-02	2.89834212e-04
2.15000000e-01	1.87937199e-02	2.90276921e-04
2.15500000e-01	1.87888734e-02	2.86797355e-04
2.16000000e-01	1.89053219e-02	2.89184265e-04
2.16500000e-01	1.86943842e-02	2.86266765e-04
2.17000000e-01	1.87045898e-02	2.89477355e-04
2.17500000e-01	1.88194439e-02	2.96071845e-04
2.18000000e-01	1.87860208e-02	2.96186513e-04
2.18500000e-01	1.87209538e-02	2.96850870e-04
2.19000000e-01	1.87306232e-02	2.99290423e-04
2.19500000e-01	1.86804381e-02	2.98995131e-04
2.20000000e-01	1.87014333e-02	3.00596191e-04
2.20500000e-01	1.84476303e-02	2.97564076e-04
2.21000000e-01	1.84782042e-02	2.97881089e-04
2.21500000e-01	1.86964925e-02	3.02394752e-04
2.22000000e-01	1.87548603e-02	3.05064121e-04
2.22500000e-01	1.88777536e-02	3.05512230e-04
2.23000000e-01	1.84617366e-02	3.01971214e-04
2.23500000e-01	1.88133735e-02	3.08347088e-04
2.24000000e-01	1.88299847e-02	3.08610124e-04
2.24500000e-01	1.85194687e-02	3.04308628e-04
2.25000000e-01	1.86626299e-02	3.07378652e-04
2.25500000e-01	1.85850241e-02	3.05756706e-04
2.26000000e-01	1.83786753e-02	3.03614363e-04
2.26500000e-01	1.89373652e-02	3.08238330e-04
2.27000000e-01	1.88853024e-02	3.05358906e-04
2.27500000e-01	1.87560298e-02	2.99871444e-04
2.28000000e-01	1.85753228e-02	2.96488585e-04
2.28500000e-01	1.87338832e-02	2.96196305e-04
2.29000000e-01	1.86798858e-02	2.93443019e-04
2.29500000e-01	1.87660616e-02	2.94192209e-04
2.30000000e-01	1.85099926e-02	2.88618695e-04
2.30500000e-01	1.85076357e-02	2.89139683e-04
2.31000000e-01	1.85617549e-02	2.88923697e-04
2.31500000e-01	1.86780715e-02	2.90501864e-04
2.32000000e-01	1.86025841e-02	2.88299828e-04
2.32500000e-01	1.84632446e-02	2.85295647e-04
2.33000000e-01	1.86110739e-02	2.86513163e-04
2.33500000e-01	1.82717474e-02	2.81785193e-04
2.34000000e-01	1.85956389e-02	2.84516611e-04
2.34500000e-01	1.85588028e-02	2.83860889e-04
2.35000000e-01	1.88988757e-02	2.88828829e-04
2.35500000e-01	1.85323467e-02	2.82527807e-04
2.36000000e-01	1.86218171e-02	2.83929622e-04
2.36500000e-01	1.84971619e-02	2.81640260e-04
2.37000000e-01	1.84655523e-02	2.79341642e-04
2.37500000e-01	1.83456991e-02	2.78942963e-04
2.38000000e-01	1.83246959e-02	2.76983448e-04
2.38500000e-01	1.80417055e-02	2.72917249e-04
2.39000000e-01	1.84546547e-02	2.77544458e-04
2.39500000e-01	1.84544311e-02	2.78259667e-04
2.40000000e-01	1.85970964e-02	2.79771864e-04
2.40500000e-01	1.83866018e-02	2.75393455e-04
2.41000000e-01	1.84112144e-02	2.76161754e-04
2.41500000e-01	1.82492690e-02	2.73130027e-04
2.42000000e-01	1.82839488e-02	2.75026081e-04
2.42500000e-01	1.81931200e-02	2.71341590e-04
2.43000000e-01	1.81572057e-02	2.70923883e-04
2.43500000e-01	1.80839548e-02	2.69776794e-04
2.44000000e-01	1.83045296e-02	2.70959881e-04
2.44500000e-01	1.81384883e-02	2.69769153e-04
2.45000000e-01	1.83167899e-02	2.71198919e-04
2.45500000e-01	1.82038931e-02	2.69951891e-04
2.46000000e-01	1.82870720e-02	2.70976695e-04
2.46500000e-01	1.82020375e-02	2.68843163e-04
2.47000000e-01	1.81720828e-02	2.68756888e-04
2.47500000e-01	1.82064807e-02	2.67738167e-04
2.48000000e-01	1.81295737e-02	2.66073101e-04
2.48500000e-01	1.83527867e-02	2.69326159e-04
2.49000000e-01	1.83929563e-02	2.68688190e-04
2.49500000e-01	1.80043763e-02	2.63928655e-04
2.50000000e-01	1.84100200e-02	2.68577553e-04
2.50500000e-01	1.79018684e-02	2.63707151e-04
2.51000000e-01	1.81268177e-02	2.64941224e-04
2.51500000e-01	1.82352584e-02	2.66951329e-04
2.52000000e-01	1.82590969e-02	2.66547608e-04
2.52500000e-01	1.82918581e-02	2.65970390e-04
2.53000000e-01	1.82214429e-02	2.66176940e-04
2.53500000e-01	1.81508162e-02	2.63288111e-04
2.54000000e-01	1.81101318e-02	2.63585705e-04
2.54500000e-01	1.80152945e-02	2.61276231e-04
2.55000000e-01	1.79038332e-02	2.61338096e-04
2.55500000e-01	1.80224361e-02	2.61305213e-04
2.56000000e-01	1.81038214e-02	2.60853201e-04
2.56500000e-01	1.81371513e-02	2.61495029e-04
2.57000000e-01	1.81509621e-02	2.60987461e-04
2.57500000e-01	1.79099011e-02	2.57902241e-04
2.58000000e-01	1.79566436e-02	2.59649416e-04
2.58500000e-01	1.80298994e-02	2.59316657e-04
2.59000000e-01	1.80403636e-02	2.58841462e-04
2.59500000e-01	1.78684057e-02	2.56028535e-04
2.60000000e-01	1.80287936e-02	2.58767723e-04
2.60500000e-01	1.79851090e-02	2.58268880e-04
2.61000000e-01	1.78878006e-02	2.56788680e-04
2.61500000e-01	1.81062729e-02	2.59313669e-04
2.62000000e-01	1.80050746e-02	2.57956703e-04
2.62500000e-01	1.78905751e-02	2.55414508e-04
2.63000000e-01	1.80717941e-02	2.57383801e-04
2.63500000e-01	1.77355247e-02	2.52347212e-04
2.64000000e-01	1.78799241e-02	2.54074942e-04
2.64500000e-01	1.79668966e-02	2.54937935e-04
2.65000000e-01	1.78136438e-02	2.53040679e-04
2.65500000e-01	1.79300797e-02	2.53594608e-04
2.66000000e-01	1.81054423e-02	2.55334251e-04
2.66500000e-01	1.79997396e-02	2.54916102e-04
2.67000000e-01	1.79857883e-02	2.54415578e-04
2.67500000e-01	1.78850729e-02	2.52236244e-04
2.68000000e-01	1.79559421e-02	2.52804808e-04
2.68500000e-01	1.77480026e-02	2.50396110e-04
2.69000000e-01	1.78021214e-02	2.49409185e-04
2.69500000e-01	1.76740932e-02	2.48555351e-04
2.70000000e-01	1.79030136e-02	2.50424803e-04
2.70500000e-01	1.78147316e-02	2.48775129e-04
2.71000000e-01	1.79344378e-02	2.50453563e-04
2.71500000e-01	1.79613032e-02	2.51763332e-04
2.72000000e-01	1.77306736e-02	2.47763782e-04
2.72500000e-01	1.78763471e-02	2.49292057e-04
2.73000000e-01	1.78543055e-02	2.49095515e-04
2.73500000e-01	1.78905485e-02	2.50152248e-04
2.74000000e-01	1.76224001e-02	2.44240775e-04
2.74500000e-01	1.76954825e-02	2.45875150e-04
2.75000000e-01	1.79068222e-02	2.49200977e-04
2.75500000e-01	1.80310603e-02	2.50595572e-04
2.76000000e-01	1.77762152e-02	2.47075131e-04
2.76500000e-01	1.76885674e-02	2.44763458e-04
2.77000000e-01	1.77459083e-02	2.45844796e-04
2.77500000e-01	1.77159783e-02	2.45875291e-04
2.78000000e-01	1.78304384e-02	2.47005887e-04
2.78500000e-01	1.76746673e-02	2.44880430e-04
2.79000000e-01	1.75881052e-02	2.42741893e-04
2.79500000e-01	1.75264675e-02	2.42334034e-04
2.80000000e-01	1.76710472e-02	2.44444736e-04
2.80500000e-01	1.79283470e-02	2.46384547e-04
2.81000000e-01	1.76260125e-02	2.41991240e-04
2.81500000e-01	1.76220648e-02	2.42742732e-04
2.82000000e-01	1.77668805e-02	2.44313140e-04
2.82500000e-01	1.76504967e-02	2.42214482e-04
2.83000000e-01	1.76777601e-02	2.42279586e-04
2.83500000e-01	1.75221672e-02	2.40126789e-04
2.84000000e-01	1.76194232e-02	2.41095266e-04
2.84500000e-01	1.74800522e-02	2.40471541e-04
2.85000000e-01	1.75125055e-02	2.39127662e-04
2.85500000e-01	1.75493364e-02	2.38578458e-04
2.86000000e-01	1.73862168e-02	2.38483071e-04
2.86500000e-01	1.75804790e-02	2.39226790e-04
2.87000000e-01	1.75065957e-02	2.39002584e-04
2.87500000e-01	1.75802033e-02	2.37942392e-04
2.88000000e-01	1.75516081e-02	2.37039714e-04
2.88500000e-01	1.74920352e-02	2.37743116e-04
2.89000000e-01	1.74540591e-02	2.37096362e-04
2.89500000e-01	1.74082095e-02	2.37305484e-04
2.90000000e-01	1.75066388e-02	2.37433430e-04
2.90500000e-01	1.74047590e-02	2.35565209e-04
2.91000000e-01	1.74315780e-02	2.35162856e-04
2.91500000e-01	1.74101816e-02	2.35038889e-04
2.92000000e-01	1.75489515e-02	2.36128944e-04
2.92500000e-01	1.72685431e-02	2.32669009e-04
2.93000000e-01	1.74527372e-02	2.35040563e-04
2.93500000e-01	1.74472692e-02	2.35136672e-04
2.94000000e-01	1.72743093e-02	2.31786182e-04
2.94500000e-01	1.73456682e-02	2.32719230e-04
2.95000000e-01	1.73596703e-02	2.31664537e-04
2.95500000e-01	1.73486974e-02	2.32148775e-04
2.96000000e-01	1.71573671e-02	2.29683851e-04
2.96500000e-01	1.72910745e-02	2.32424524e-04
2.97000000e-01	1.73151724e-02	2.31229390e-04
2.97500000e-01	1.75578636e-02	2.33282990e-04
2.98000000e-01	1.76324212e-02	2.35183461e-04
2.98500000e-01	1.73275594e-02	2.31582991e-04
2.99000000e-01	1.72994939e-02	2.30995989e-04
2.99500000e-01	1.71844403e-02	2.29688709e-04
3.00000000e-01	1.73718333e-02	2.31433569e-04
3.00500000e-01	1.72188753e-02	2.29491388e-04
3.01000000e-01	1.71946092e-02	2.28345094e-04
3.01500000e-01	1.71652197e-02	2.28450999e-04
3.02000000e-01	1.72537085e-02	2.28504555e-04
3.02500000e-01	1.73831981e-02	2.30456513e-04
3.03000000e-01	1.73002443e-02	2.29693814e-04
3.03500000e-01	1.73596233e-02	2.30069470e-04
3.04000000e-01	1.73864404e-02	2.30421277e-04
3.04500000e-01	1.72305164e-02	2.27400798e-04
3.05000000e-01	1.73014794e-02	2.29037259e-04
3.05500000e-01	1.73051956e-02	2.28430734e-04
3.06000000e-01	1.70905045e-02	2.24208512e-04
3.06500000e-01	1.73582791e-02	2.27891893e-04
3.07000000e-01	1.73299979e-02	2.27171213e-04
3.07500000e-01	1.70721144e-02	2.24587322e-04
3.08000000e-01	1.70909115e-02	2.25099407e-04
3.08500000e-01	1.72496601e-02	2.26498519e-04
3.09000000e-01	1.72782090e-02	2.27016469e-04
3.09500000e-01	1.69447426e-02	2.21892274e-04
3.10000000e-01	1.71081118e-02	2.25162766e-04
3.10500000e-01	1.71259464e-02	2.24381776e-04
3.11000000e-01	1.71071530e-02	2.23564838e-04
3.11500000e-01	1.71603521e-02	2.23905597e-04
3.12000000e-01	1.70403037e-02	2.22943131e-04
3.12500000e-01	1.71452276e-02	2.24167346e-04
3.13000000e-01	1.72465948e-02	2.24571214e-04
3.13500000e-01	1.70708362e-02	2.21401381e-04
3.14000000e-01	1.70002851e-02	2.21852467e-04
3.14500000e-01	1.69975413e-02	2.21381582e-04
3.15000000e-01	1.69426787e-02	2.21015349e-04
3.15500000e-01	1.71507914e-02	2.22881382e-04
3.16000000e-01	1.70961420e-02	2.22412327e-04
3.16500000e-01	1.70404825e-02	2.21036316e-04
3.17000000e-01	1.70487508e-02	2.19864438e-04
3.17500000e-01	1.71024157e-02	2.21212777e-04
3.18000000e-01	1.70169671e-02	2.20015270e-04
3.18500000e-01	1.69992687e-02	2.19932139e-04
3.19000000e-01	1.70235427e-02	2.19132711e-04
3.19500000e-01	1.70598186e-02	2.20769364e-04
3.20000000e-01	1.68186080e-02	2.16704937e-04
3.20500000e-01	1.70962533e-02	2.20806063e-04
3.21000000e-01	1.70367944e-02	2.19740717e-04
3.21500000e-01	1.67446543e-02	2.15370124e-04
3.22000000e-01	1.69641167e-02	2.18452090e-04
3.22500000e-01	1.68808208e-02	2.17452017e-04
3.23000000e-01	1.68029906e-02	2.15823011e-04
3.23500000e-01	1.67741578e-02	2.15650002e-04
3.24000000e-01	1.68107511e-02	2.14670383e-04
3.24500000e-01	1.68737179e-02	2.17413966e-04
3.25000000e-01	1.69428927e-02	2.16847461e-04
3.25500000e-01	1.68987632e-02	2.15841300e-04
3.26000000e-01	1.67389959e-02	2.14306352e-04
3.26500000e-01	1.68009674e-02	2.14914088e-04
3.27000000e-01	1.66513995e-02	2.12905005e-04
3.27500000e-01	1.68181927e-02	2.14711425e-04
3.28000000e-01	1.67244546e-02	2.13159126e-04
3.28500000e-01	1.67212401e-02	2.13067338e-04
3.29000000e-01	1.66273861e-02	2.11503597e-04
3.29500000e-01	1.67857319e-02	2.14475721e-04
3.30000000e-01	1.68940402e-02	2.14675443e-04
3.30500000e-01	1.67315091e-02	2.12870985e-04
3.31000000e-01	1.66700976e-02	2.11397214e-04
3.31500000e-01	1.66791233e-02	2.11514121e-04
3.32000000e-01	1.68931385e-02	2.14634970e-04
3.32500000e-01	1.67842042e-02	2.12133429e-04
3.33000000e-01	1.66415409e-02	2.10017920e-04
3.33500000e-01	1.68842782e-02	2.12951749e-04
3.34000000e-01	1.68714747e-02	2.13085203e-04
3.34500000e-01	1.66221687e-02	2.10806318e-04
3.35000000e-01	1.67183753e-02	2.10717835e-04
3.35500000e-01	1.66991966e-02	2.10903469e-04
3.36000000e-01	1.67434167e-02	2.10828256e-04
3.36500000e-01	1.65671669e-02	2.09286138e-04
3.37000000e-01	1.65774052e-02	2.08186390e-04
3.37500000e-01	1.64390007e-02	2.06812967e-04
3.38000000e-01	1.66999071e-02	2.09920860e-04
3.38500000e-01	1.64172259e-02	2.06721728e-04
3.39000000e-01	1.66669562e-02	2.09139566e-04
3.39500000e-01	1.66929189e-02	2.08294417e-04
3.40000000e-01	1.67357795e-02	2.10295580e-04
3.40500000e-01	1.66834730e-02	2.09177192e-04
3.41000000e-01	1.66020850e-02	2.07299515e-04
3.41500000e-01	1.66119727e-02	2.08727998e-04
3.42000000e-01	1.65350425e-02	2.06577821e-04
3.42500000e-01	1.63331910e-02	2.05301904e-04
3.43000000e-01	1.65324983e-02	2.05786730e-04
3.43500000e-01	1.64793174e-02	2.04955201e-04
3.44000000e-01	1.63597355e-02	2.04817836e-04
3.44500000e-01	1.65287908e-02	2.05727246e-04
3.45000000e-01	1.65730644e-02	2.05973969e-04
3.45500000e-01	1.64609885e-02	2.05074045e-04
3.46000000e-01	1.64494739e-02	2.04870135e-04
3.46500000e-01	1.65759737e-02	2.06426988e-04
3.47000000e-01	1.65135078e-02	2.05069742e-04
3.47500000e-01	1.65045034e-02	2.05646735e-04
3.48000000e-01	1.63711367e-02	2.02705532e-04
3.48500000e-01	1.65978808e-02	2.05111800e-04
3.49000000e-01	1.62949905e-02	2.01942060e-04
3.49500000e-01	1.64941476e-02	2.04229245e-04
3.50000000e-01	1.64467048e-02	1.65965243e-04
3.51000000e-01	1.63388541e-02	1.42544368e-04
3.52000000e-01	1.63549217e-02	1.42595778e-04
3.53000000e-01	1.64092010e-02	1.42571750e-04
3.54000000e-01	1.63343012e-02	1.41668265e-04
3.55000000e-01	1.63256412e-02	1.42126188e-04
3.56000000e-01	1.62870057e-02	1.41714749e-04
3.57000000e-01	1.63472324e-02	1.44962955e-04
3.58000000e-01	1.62414434e-02	1.45285738e-04
3.59000000e-01	1.62017965e-02	1.46085063e-04
3.60000000e-01	1.61767317e-02	1.46694057e-04
3.61000000e-01	1.60556500e-02	1.46540159e-04
3.62000000e-01	1.62450558e-02	1.48890435e-04
3.63000000e-01	1.62011701e-02	1.48758842e-04
3.64000000e-01	1.62121340e-02	1.49570585e-04
3.65000000e-01	1.61962550e-02	1.49659524e-04
3.66000000e-01	1.61000686e-02	1.47125232e-04
3.67000000e-01	1.61662242e-02	1.45783609e-04
3.68000000e-01	1.60334350e-02	1.43409663e-04
3.69000000e-01	1.60593003e-02	1.43198207e-04
3.70000000e-01	1.60321133e-02	1.42079773e-04
3.71000000e-01	1.59949136e-02	1.43833858e-04
3.72000000e-01	1.60863977e-02	1.45564859e-04
3.73000000e-01	1.59341898e-02	1.44141957e-04
3.74000000e-01	1.60647926e-02	1.45263736e-04
3.75000000e-01	1.61134357e-02	1.46012631e-04
3.76000000e-01	1.60331973e-02	1.45355362e-04
3.77000000e-01	1.60070776e-02	1.45306063e-04
3.78000000e-01	1.59290008e-02	1.44520635e-04
3.79000000e-01	1.59692369e-02	1.44656254e-04
3.80000000e-01	1.60246402e-02	1.45122606e-04
3.81000000e-01	1.60288152e-02	1.44930013e-04
3.82000000e-01	1.58194489e-02	1.43141773e-04
3.83000000e-01	1.59440627e-02	1.44092825e-04
3.84000000e-01	1.58834607e-02	1.43627760e-04
3.85000000e-01	1.58619028e-02	1.43737117e-04
3.86000000e-01	1.59638849e-02	1.44192498e-04
3.87000000e-01	1.57273066e-02	1.42342250e-04
3.88000000e-01	1.58718880e-02	1.43253006e-04
3.89000000e-01	1.57251585e-02	1.42220494e-04
3.90000000e-01	1.57969871e-02	1.42481006e-04
3.91000000e-01	1.58260854e-02	1.43281479e-04
3.92000000e-01	1.58096189e-02	1.42824684e-04
3.93000000e-01	1.58868423e-02	1.43157606e-04
3.94000000e-01	1.58304897e-02	1.42991814e-04
3.95000000e-01	1.56833927e-02	1.41480851e-04
3.96000000e-01	1.56628386e-02	1.41342463e-04
3.97000000e-01	1.57458829e-02	1.42058029e-04
3.98000000e-01	1.56560686e-02	1.40945870e-04
3.99000000e-01	1.57390975e-02	1.41829409e-04
4.00000000e-01	1.57419088e-02	1.41686352e-04
4.01000000e-01	1.55698339e-02	1.40315932e-04
4.02000000e-01	1.56349760e-02	1.41075246e-04
4.03000000e-01	1.56057156e-02	1.40871897e-04
4.04000000e-01	1.56517067e-02	1.41248903e-04
4.05000000e-01	1.55714842e-02	1.40337654e-04
4.06000000e-01	1.55184605e-02	1.40162983e-04
4.07000000e-01	1.54600233e-02	1.40024426e-04
4.08000000e-01	1.56403765e-02	1.40811912e-04
4.09000000e-01	1.55734200e-02	1.39945879e-04
4.10000000e-01	1.56015649e-02	1.40420000e-04
4.11000000e-01	1.55100262e-02	1.39371223e-04
4.12000000e-01	1.54530911e-02	1.39178296e-04
4.13000000e-01	1.55277349e-02	1.39737877e-04
4.14000000e-01	1.54531354e-02	1.38919805e-04
4.15000000e-01	1.55367451e-02	1.39065637e-04
4.16000000e-01	1.54435773e-02	1.38851282e-04
4.17000000e-01	1.55303760e-02	1.39025058e-04
4.18000000e-01	1.54566764e-02	1.40307412e-04
4.19000000e-01	1.54832852e-02	1.42351320e-04
4.20000000e-01	1.55363990e-02	1.43755980e-04
4.21000000e-01	1.54826080e-02	1.43373873e-04
4.22000000e-01	1.56463769e-02	1.45410609e-04
4.23000000e-01	1.54087976e-02	1.43596236e-04
4.24000000e-01	1.55613462e-02	1.45724381e-04
4.25000000e-01	1.54221939e-02	1.44524009e-04
4.26000000e-01	1.56258069e-02	1.46178078e-04
4.27000000e-01	1.55600158e-02	1.45550875e-04
4.28000000e-01	1.54711463e-02	1.45317105e-04
4.29000000e-01	1.54835927e-02	1.45491183e-04
4.30000000e-01	1.55381037e-02	1.46015028e-04
4.31000000e-01	1.54307587e-02	1.45092201e-04
4.32000000e-01	1.54497061e-02	1.45337427e-04
4.33000000e-01	1.53816169e-02	1.45271276e-04
4.34000000e-01	1.53303420e-02	1.44696009e-04
4.35000000e-01	1.53990955e-02	1.45299298e-04
4.36000000e-01	1.53636598e-02	1.45160123e-04
4.37000000e-01	1.53063340e-02	1.45167709e-04
4.38000000e-01	1.53576898e-02	1.45629900e-04
4.39000000e-01	1.51400483e-02	1.44369128e-04
4.40000000e-01	1.51790777e-02	1.44466114e-04
4.41000000e-01	1.52768794e-02	1.45444825e-04
4.42000000e-01	1.53754570e-02	1.46742808e-04
4.43000000e-01	1.53518365e-02	1.46203391e-04
4.44000000e-01	1.52554934e-02	1.45710892e-04
4.45000000e-01	1.52587394e-02	1.46221432e-04
4.46000000e-01	1.53247666e-02	1.46859801e-04
4.47000000e-01	1.51527187e-02	1.45589400e-04
4.48000000e-01	1.52535885e-02	1.46373154e-04
4.49000000e-01	1.51922473e-02	1.46055519e-04
4.50000000e-01	1.52380258e-02	1.46743208e-04
4.51000000e-01	1.53128522e-02	1.46849940e-04
4.52000000e-01	1.52106641e-02	1.46455343e-04
4.53000000e-01	1.52993095e-02	1.47641280e-04
4.54000000e-01	1.52543742e-02	1.46871391e-04
4.55000000e-01	1.52374874e-02	1.47034120e-04
4.56000000e-01	1.50539262e-02	1.45666801e-04
4.57000000e-01	1.51527320e-02	1.46337650e-04
4.58000000e-01	1.50457890e-02	1.45534065e-04
4.59000000e-01	1.51928469e-02	1.47067544e-04
4.60000000e-01	1.51491525e-02	1.46778920e-04
4.61000000e-01	1.51572646e-02	1.47092432e-04
4.62000000e-01	1.51863616e-02	1.47335463e-04
4.63000000e-01	1.50177909e-02	1.46258009e-04
4.64000000e-01	1.50709554e-02	1.46563174e-04
4.65000000e-01	1.51214777e-02	1.46897900e-04
4.66000000e-01	1.49906596e-02	1.46302475e-04
4.67000000e-01	1.50232377e-02	1.46492293e-04
4.68000000e-01	1.49682664e-02	1.46088825e-04
4.69000000e-01	1.49922864e-02	1.46554586e-04
4.70000000e-01	1.51061412e-02	1.47715165e-04
4.71000000e-01	1.50290583e-02	1.47151098e-04
4.72000000e-01	1.50076847e-02	1.46389856e-04
4.73000000e-01	1.49659738e-02	1.46059547e-04
4.74000000e-01	1.49929466e-02	1.46194655e-04
4.75000000e-01	1.50159042e-02	1.46784176e-04
4.76000000e-01	1.50274431e-02	1.46142423e-04
4.77000000e-01	1.49846402e-02	1.46247634e-04
4.78000000e-01	1.49345592e-02	1.45519334e-04
4.79000000e-01	1.48806671e-02	1.45340795e-04
4.80000000e-01	1.48117241e-02	1.44527732e-04
4.81000000e-01	1.49601986e-02	1.46330039e-04
4.82000000e-01	1.49143717e-02	1.46126913e-04
4.83000000e-01	1.48667992e-02	1.45553871e-04
4.84000000e-01	1.49725997e-02	1.46794436e-04
4.85000000e-01	1.49138695e-02	1.46354460e-04
4.86000000e-01	1.47895503e-02	1.45379438e-04
4.87000000e-01	1.48363973e-02	1.45845873e-04
4.88000000e-01	1.49150966e-02	1.46336752e-04
4.89000000e-01	1.47852192e-02	1.45512925e-04
4.90000000e-01	1.48911778e-02	1.46829545e-04
4.91000000e-01	1.49166136e-02	1.46569925e-04
4.92000000e-01	1.49100436e-02	1.46898882e-04
4.93000000e-01	1.47680386e-02	1.45095491e-04
4.94000000e-01	1.48422965e-02	1.46547686e-04
4.95000000e-01	1.49244135e-02	1.48015611e-04
4.96000000e-01	1.47280922e-02	1.50577668e-04
4.97000000e-01	1.48188264e-02	1.54011237e-04
4.98000000e-01	1.48217010e-02	1.56368484e-04
4.99000000e-01	1.47532028e-02	1.57822984e-04
5.00000000e-01	1.48746238e-02	1.59873805e-04
5.01000000e-01	1.47830968e-02	1.60927234e-04
5.02000000e-01	1.46133527e-02	1.60946863e-04
5.03000000e-01	1.48072174e-02	1.64283726e-04
5.04000000e-01	1.48761163e-02	1.66278356e-04
5.05000000e-01	1.48989210e-02	1.63646633e-04
5.06000000e-01	1.48689301e-02	1.60139097e-04
5.07000000e-01	1.46902280e-02	1.56844354e-04
5.08000000e-01	1.48489005e-02	1.57314811e-04
5.09000000e-01	1.46762167e-02	1.55221802e-04
5.10000000e-01	1.47148913e-02	1.54454753e-04
5.11000000e-01	1.47010875e-02	1.53671561e-04
5.12000000e-01	1.46552514e-02	1.53408468e-04
5.13000000e-01	1.46892046e-02	1.53611555e-04
5.14000000e-01	1.46501730e-02	1.52965579e-04
5.15000000e-01	1.46884421e-02	1.51997723e-04
5.16000000e-01	1.47673970e-02	1.53375307e-04
5.17000000e-01	1.46479865e-02	1.52277076e-04
5.18000000e-01	1.46937797e-02	1.52313022e-04
5.19000000e-01	1.45858948e-02	1.50333685e-04
5.20000000e-01	1.47414138e-02	1.51560850e-04
5.21000000e-01	1.47313424e-02	1.51464720e-04
5.22000000e-01	1.46559139e-02	1.50541180e-04
5.23000000e-01	1.45416041e-02	1.49694973e-04
5.24000000e-01	1.45225693e-02	1.49929814e-04
5.25000000e-01	1.44765345e-02	1.48614525e-04
5.26000000e-01	1.45898115e-02	1.49804120e-04
5.27000000e-01	1.46067350e-02	1.50415273e-04
5.28000000e-01	1.45654022e-02	1.50169621e-04
5.29000000e-01	1.46046272e-02	1.50346539e-04
5.30000000e-01	1.45529287e-02	1.49644870e-04
5.31000000e-01	1.43256578e-02	1.47643638e-04
5.32000000e-01	1.44445798e-02	1.48499919e-04
5.33000000e-01	1.45415735e-02	1.49158346e-04
5.34000000e-01	1.44587683e-02	1.48646273e-04
5.35000000e-01	1.46433556e-02	1.50732774e-04
5.36000000e-01	1.44653022e-02	1.48580689e-04
5.37000000e-01	1.45500555e-02	1.49733483e-04
5.38000000e-01	1.45703884e-02	1.49550570e-04
5.39000000e-01	1.44099418e-02	1.48390774e-04
5.40000000e-01	1.44764631e-02	1.49026490e-04
5.41000000e-01	1.43856556e-02	1.47995734e-04
5.42000000e-01	1.44476442e-02	1.48484122e-04
5.43000000e-01	1.43333746e-02	1.47248485e-04
5.44000000e-01	1.44525919e-02	1.48593190e-04
5.45000000e-01	1.43839712e-02	1.47464631e-04
5.46000000e-01	1.44287490e-02	1.48316927e-04
5.47000000e-01	1.42717773e-02	1.46445074e-04
5.48000000e-01	1.44483280e-02	1.48853529e-04
5.49000000e-01	1.43808847e-02	1.47289922e-04
5.50000000e-01	1.42032216e-02	1.46073130e-04
5.51000000e-01	1.44587571e-02	1.48096716e-04
5.52000000e-01	1.43389805e-02	1.46688411e-04
5.53000000e-01	1.43122675e-02	1.46398088e-04
5.54000000e-01	1.42270352e-02	1.45753165e-04
5.55000000e-01	1.42287832e-02	1.45649171e-04
5.56000000e-01	1.42620647e-02	1.45647264e-04
5.57000000e-01	1.41315304e-02	1.44929599e-04
5.58000000e-01	1.42295806e-02	1.45306732e-04
5.59000000e-01	1.41625568e-02	1.44657773e-04
5.60000000e-01	1.41377657e-02	1.44873484e-04
5.61000000e-01	1.42146280e-02	1.44961549e-04
5.62000000e-01	1.41865365e-02	1.44894680e-04
5.63000000e-01	1.42097068e-02	1.45031617e-04
5.64000000e-01	1.42376035e-02	1.45739940e-04
5.65000000e-01	1.41672127e-02	1.45303455e-04
5.66000000e-01	1.41643596e-02	1.44830802e-04
5.67000000e-01	1.41657578e-02	1.45046282e-04
5.68000000e-01	1.40656641e-02	1.43744016e-04
5.69000000e-01	1.41077268e-02	1.43776196e-04
5.70000000e-01	1.41937526e-02	1.44874941e-04
5.71000000e-01	1.41071222e-02	1.43938317e-04
5.72000000e-01	1.41789020e-02	1.44959664e-04
5.73000000e-01	1.41587480e-02	1.45144241e-04
5.74000000e-01	1.39929604e-02	1.43694735e-04
5.75000000e-01	1.40728354e-02	1.44076136e-04
5.76000000e-01	1.40577946e-02	1.44037281e-04
5.77000000e-01	1.39235120e-02	1.42387371e-04
5.78000000e-01	1.39766534e-02	1.43012669e-04
5.79000000e-01	1.40051071e-02	1.43172556e-04
5.80000000e-01	1.40509745e-02	1.44049401e-04
5.81000000e-01	1.40618840e-02	1.44051482e-04
5.82000000e-01	1.39336323e-02	1.43083742e-04
5.83000000e-01	1.39459764e-02	1.43296289e-04
5.84000000e-01	1.40176764e-02	1.43800940e-04
5.85000000e-01	1.39059538e-02	1.42998866e-04
5.86000000e-01	1.38761256e-02	1.42953952e-04
5.87000000e-01	1.38976677e-02	1.42519756e-04
5.88000000e-01	1.38690663e-02	1.42362773e-04
5.89000000e-01	1.39455663e-02	1.43324979e-04
5.90000000e-01	1.38336329e-02	1.42241972e-04
5.91000000e-01	1.38244222e-02	1.42278241e-04
5.92000000e-01	1.39429092e-02	1.43057974e-04
5.93000000e-01	1.37366620e-02	1.41394579e-04
5.94000000e-01	1.38998458e-02	1.43166322e-04
5.95000000e-01	1.39129972e-02	1.42930571e-04
5.96000000e-01	1.38192092e-02	1.42456151e-04
5.97000000e-01	1.38556216e-02	1.42274043e-04
5.98000000e-01	1.38550402e-02	1.42483913e-04
5.99000000e-01	1.37842674e-02	1.41796549e-04
6.00000000e-01	1.37657619e-02	1.41721665e-04
6.01000000e-01	1.38840614e-02	1.42996606e-04
6.02000000e-01	1.38970304e-02	1.43031989e-04
6.03000000e-01	1.38537147e-02	1.42904798e-04
6.04000000e-01	1.37568543e-02	1.41661359e-04
6.05000000e-01	1.37810712e-02	1.41754889e-04
6.06000000e-01	1.37993358e-02	1.41793522e-04
6.07000000e-01	1.37860533e-02	1.42253395e-04
6.08000000e-01	1.37541874e-02	1.41712755e-04
6.09000000e-01	1.37848116e-02	1.41943404e-04
6.10000000e-01	1.38691925e-02	1.42831686e-04
6.11000000e-01	1.38625229e-02	1.42844377e-04
6.12000000e-01	1.37214481e-02	1.42038304e-04
6.13000000e-01	1.37684009e-02	1.42312594e-04
6.14000000e-01	1.37558891e-02	1.41742520e-04
6.15000000e-01	1.37274061e-02	1.41298745e-04
6.16000000e-01	1.36059243e-02	1.40671483e-04
6.17000000e-01	1.36486063e-02	1.40917465e-04
6.18000000e-01	1.36083169e-02	1.40508931e-04
6.19000000e-01	1.37577517e-02	1.41932733e-04
6.20000000e-01	1.35459362e-02	1.39772974e-04
6.21000000e-01	1.37652927e-02	1.41688472e-04
6.22000000e-01	1.36062392e-02	1.39968091e-04
6.23000000e-01	1.36237990e-02	1.40102298e-04
6.24000000e-01	1.36252402e-02	1.39235261e-04
6.25000000e-01	1.36384840e-02	1.39803405e-04
6.26000000e-01	1.36485118e-02	1.39871965e-04
6.27000000e-01	1.35404877e-02	1.39153757e-04
6.28000000e-01	1.37216961e-02	1.40386958e-04
6.29000000e-01	1.36895438e-02	1.40066063e-04
6.30000000e-01	1.35320175e-02	1.39053608e-04
6.31000000e-01	1.35535599e-02	1.38891365e-04
6.32000000e-01	1.33742718e-02	1.37586402e-04
6.33000000e-01	1.37190671e-02	1.40303743e-04
6.34000000e-01	1.36731731e-02	1.43513258e-04
6.35000000e-01	1.36530966e-02	1.47485335e-04
6.36000000e-01	1.36261258e-02	1.49741630e-04
6.37000000e-01	1.36211865e-02	1.51972002e-04
6.38000000e-01	1.35715634e-02	1.53564124e-04
6.39000000e-01	1.36498084e-02	1.56436456e-04
6.40000000e-01	1.34947986e-02	1.56655943e-04
6.41000000e-01	1.37324161e-02	1.60877437e-04
6.42000000e-01	1.35801714e-02	1.60814568e-04
6.43000000e-01	1.35812745e-02	1.61693331e-04
6.44000000e-01	1.36108856e-02	1.55353102e-04
6.45000000e-01	1.36903541e-02	1.54232426e-04
6.46000000e-01	1.35605039e-02	1.51548968e-04
6.47000000e-01	1.36340388e-02	1.51090070e-04
6.48000000e-01	1.36549285e-02	1.50256542e-04
6.49000000e-01	1.35577024e-02	1.48990291e-04
6.50000000e-01	1.35544862e-02	1.47535362e-04
6.51000000e-01	1.35735005e-02	1.47950371e-04
6.52000000e-01	1.36076757e-02	1.47432257e-04
6.53000000e-01	1.36449961e-02	1.47120432e-04
6.54000000e-01	1.36148096e-02	1.46726307e-04
6.55000000e-01	1.36556645e-02	1.46480881e-04
6.56000000e-01	1.35113524e-02	1.45272843e-04
6.57000000e-01	1.35537354e-02	1.45253038e-04
6.58000000e-01	1.36247876e-02	1.45537868e-04
6.59000000e-01	1.36064169e-02	1.45371959e-04
6.60000000e-01	1.35383507e-02	1.44562392e-04
6.61000000e-01	1.35567475e-02	1.44534937e-04
6.62000000e-01	1.36534725e-02	1.45501523e-04
6.63000000e-01	1.34187671e-02	1.42958955e-04
6.64000000e-01	1.34956994e-02	1.43713542e-04
6.65000000e-01	1.34880425e-02	1.44175190e-04
6.66000000e-01	1.34366823e-02	1.43094889e-04
6.67000000e-01	1.35887574e-02	1.44530470e-04
6.68000000e-01	1.34826829e-02	1.43282154e-04
6.69000000e-01	1.33992741e-02	1.42705785e-04
6.70000000e-01	1.33940289e-02	1.43098365e-04
6.71000000e-01	1.34233728e-02	1.42990591e-04
6.72000000e-01	1.34595283e-02	1.42660695e-04
6.73000000e-01	1.34329458e-02	1.41983536e-04
6.74000000e-01	1.33402348e-02	1.41901205e-04
6.75000000e-01	1.32633781e-02	1.41064213e-04
6.76000000e-01	1.32726139e-02	1.41070719e-04
6.77000000e-01	1.33047864e-02	1.41209769e-04
6.78000000e-01	1.34138606e-02	1.41982451e-04
6.79000000e-01	1.35407282e-02	1.43323185e-04
6.80000000e-01	1.33303659e-02	1.41386909e-04
6.81000000e-01	1.33636929e-02	1.41165674e-04
6.82000000e-01	1.33723544e-02	1.41783011e-04
6.83000000e-01	1.33897246e-02	1.41845097e-04
6.84000000e-01	1.33770208e-02	1.41653469e-04
6.85000000e-01	1.33835528e-02	1.41640637e-04
6.86000000e-01	1.33761390e-02	1.41742270e-04
6.87000000e-01	1.32605783e-02	1.40310843e-04
6.88000000e-01	1.31986929e-02	1.39918360e-04
6.89000000e-01	1.33668118e-02	1.41538439e-04
6.90000000e-01	1.33673836e-02	1.41272425e-04
6.91000000e-01	1.32127004e-02	1.40097030e-04
6.92000000e-01	1.32608167e-02	1.40157033e-04
6.93000000e-01	1.32891832e-02	1.40073299e-04
6.94000000e-01	1.32418774e-02	1.40144172e-04
6.95000000e-01	1.32142312e-02	1.39323664e-04
6.96000000e-01	1.31548000e-02	1.39206589e-04
6.97000000e-01	1.32189349e-02	1.39700082e-04
6.98000000e-01	1.32808144e-02	1.40067866e-04
6.99000000e-01	1.30762282e-02	1.38477582e-04
7.00000000e-01	1.32410289e-02	1.39911687e-04
7.01000000e-01	1.31564860e-02	1.39025212e-04
7.02000000e-01	1.31044561e-02	1.38756017e-04
7.03000000e-01	1.32311800e-02	1.39700478e-04
7.04000000e-01	1.31371147e-02	1.38903522e-04
7.05000000e-01	1.31143995e-02	1.38685966e-04
7.06000000e-01	1.31807075e-02	1.39287179e-04
7.07000000e-01	1.32610270e-02	1.39949737e-04
7.08000000e-01	1.30967230e-02	1.37993786e-04
7.09000000e-01	1.31637726e-02	1.39094787e-04
7.10000000e-01	1.30707132e-02	1.38038958e-04
7.11000000e-01	1.30579264e-02	1.38071917e-04
7.12000000e-01	1.28983826e-02	1.36277467e-04
7.13000000e-01	1.29243229e-02	1.37205733e-04
7.14000000e-01	1.28941004e-02	1.36681327e-04
7.15000000e-01	1.28702661e-02	1.36301105e-04
7.16000000e-01	1.29683873e-02	1.37085198e-04
7.17000000e-01	1.30925047e-02	1.38170453e-04
7.18000000e-01	1.29560944e-02	1.36958082e-04
7.19000000e-01	1.29574822e-02	1.37307205e-04
7.20000000e-01	1.30955380e-02	1.38419806e-04
7.21000000e-01	1.28650666e-02	1.36408158e-04
7.22000000e-01	1.29075255e-02	1.36678954e-04
7.23000000e-01	1.29248463e-02	1.36712178e-04
7.24000000e-01	1.28813645e-02	1.36110107e-04
7.25000000e-01	1.29104814e-02	1.36658056e-04
7.26000000e-01	1.30305817e-02	1.37523807e-04
7.27000000e-01	1.27642244e-02	1.35500283e-04
7.28000000e-01	1.28893038e-02	1.36384232e-04
7.29000000e-01	1.27531467e-02	1.35128994e-04
7.30000000e-01	1.28624795e-02	1.35862839e-04
7.31000000e-01	1.27765289e-02	1.35492525e-04
7.32000000e-01	1.27156024e-02	1.34661765e-04
7.33000000e-01	1.28164331e-02	1.35764893e-04
7.34000000e-01	1.27954383e-02	1.35400896e-04
7.35000000e-01	1.27335588e-02	1.34188456e-04
7.36000000e-01	1.28821684e-02	1.35337667e-04
7.37000000e-01	1.27780325e-02	1.35494725e-04
7.38000000e-01	1.29113606e-02	1.35717100e-04
7.39000000e-01	1.26560644e-02	1.33380853e-04
7.40000000e-01	1.26402746e-02	1.32493908e-04
7.41000000e-01	1.28042373e-02	1.34268565e-04
7.42000000e-01	1.26708803e-02	1.32898749e-04
7.43000000e-01	1.28086013e-02	1.34706837e-04
7.44000000e-01	1.27443651e-02	1.33236835e-04
7.45000000e-01	1.26350464e-02	1.32650311e-04
7.46000000e-01	1.26769454e-02	1.32712625e-04
7.47000000e-01	1.24793840e-02	1.31483350e-04
7.48000000e-01	1.25748811e-02	1.31983948e-04
7.49000000e-01	1.25409459e-02	1.31802798e-04
7.50000000e-01	1.26216123e-02	1.32336447e-04
7.51000000e-01	1.26487982e-02	1.32090245e-04
7.52000000e-01	1.25246887e-02	1.31772008e-04
7.53000000e-01	1.27394469e-02	1.33306033e-04
7.54000000e-01	1.25773095e-02	1.31815931e-04
7.55000000e-01	1.25516372e-02	1.31585656e-04
7.56000000e-01	1.25795227e-02	1.32502444e-04
7.57000000e-01	1.25751064e-02	1.32027507e-04
7.58000000e-01	1.26416813e-02	1.32377342e-04
7.59000000e-01	1.25805344e-02	1.31979320e-04
7.60000000e-01	1.26777660e-02	1.32488590e-04
7.61000000e-01	1.26726222e-02	1.32205047e-04
7.62000000e-01	1.24935821e-02	1.30490891e-04
7.63000000e-01	1.24640031e-02	1.29762171e-04
7.64000000e-01	1.25995612e-02	1.31402452e-04
7.65000000e-01	1.25217211e-02	1.30731090e-04
7.66000000e-01	1.22624411e-02	1.27944885e-04
7.67000000e-01	1.24735611e-02	1.30171413e-04
7.68000000e-01	1.23228291e-02	1.28259903e-04
7.69000000e-01	1.24002134e-02	1.29101025e-04
7.70000000e-01	1.22706499e-02	1.27961613e-04
7.71000000e-01	1.24871345e-02	1.30010482e-04
7.72000000e-01	1.25641949e-02	1.34466022e-04
7.73000000e-01	1.24298879e-02	1.37428673e-04
7.74000000e-01	1.22774664e-02	1.39022521e-04
7.75000000e-01	1.24743165e-02	1.43146220e-04
7.76000000e-01	1.21802793e-02	1.42831694e-04
7.77000000e-01	1.21500118e-02	1.44610653e-04
7.78000000e-01	1.22874587e-02	1.46885864e-04
7.79000000e-01	1.23129787e-02	1.49446241e-04
7.80000000e-01	1.24459844e-02	1.52708207e-04
7.81000000e-01	1.21949667e-02	1.51780094e-04
7.82000000e-01	1.23494083e-02	1.54842172e-04
7.83000000e-01	1.21385949e-02	1.54644209e-04
7.84000000e-01	1.22559761e-02	1.57587777e-04
7.85000000e-01	1.23380523e-02	1.59813176e-04
7.86000000e-01	1.21173756e-02	1.59991598e-04
7.87000000e-01	1.21467643e-02	1.60813567e-04
7.88000000e-01	1.22871632e-02	1.64115749e-04
7.89000000e-01	1.23588224e-02	1.66699472e-04
7.90000000e-01	1.21220539e-02	1.65758912e-04
7.91000000e-01	1.21569554e-02	1.67950654e-04
7.92000000e-01	1.21533312e-02	1.69226989e-04
7.93000000e-01	1.20777838e-02	1.70219920e-04
7.94000000e-01	1.22567452e-02	1.73939474e-04
7.95000000e-01	1.21826855e-02	1.74753728e-04
7.96000000e-01	1.21293186e-02	1.75427228e-04
7.97000000e-01	1.21449422e-02	1.77864057e-04
7.98000000e-01	1.20244919e-02	1.78449413e-04
7.99000000e-01	1.20549875e-02	1.81231315e-04
8.00000000e-01	1.20466334e-02	1.82021532e-04
8.01000000e-01	1.20130632e-02	1.84050354e-04
8.02000000e-01	1.19969306e-02	1.85286648e-04
8.03000000e-01	1.21157273e-02	1.88899214e-04
8.04000000e-01	1.20973490e-02	1.89579471e-04
8.05000000e-01	1.19829858e-02	1.91188532e-04
8.06000000e-01	1.21590911e-02	1.94633568e-04
8.07000000e-01	1.19825769e-02	1.94761808e-04
8.08000000e-01	1.18936388e-02	1.95645775e-04
8.09000000e-01	1.19518311e-02	1.99524123e-04
8.10000000e-01	1.20698070e-02	2.02889564e-04
8.11000000e-01	1.18229608e-02	2.01512365e-04
8.12000000e-01	1.18144927e-02	2.02999495e-04
8.13000000e-01	1.18558395e-02	2.07913874e-04
8.14000000e-01	1.18491844e-02	2.09533467e-04
8.15000000e-01	1.19058771e-02	2.12235506e-04
8.16000000e-01	1.19634950e-02	2.15434565e-04
8.17000000e-01	1.17450989e-02	2.14064946e-04
8.18000000e-01	1.19011762e-02	2.19815657e-04
8.19000000e-01	1.17462936e-02	2.19334559e-04
8.20000000e-01	1.16818863e-02	2.22224507e-04
8.21000000e-01	1.19528733e-02	2.29189209e-04
8.22000000e-01	1.18036177e-02	2.30413627e-04
8.23000000e-01	1.17723714e-02	2.31888885e-04
8.24000000e-01	1.19130146e-02	2.38598686e-04
8.25000000e-01	1.20321860e-02	2.44997197e-04
8.26000000e-01	1.17523026e-02	2.43110218e-04
8.27000000e-01	1.16828779e-02	2.44840501e-04
8.28000000e-01	1.16212025e-02	2.48462969e-04
8.29000000e-01	1.14721677e-02	2.49367563e-04
8.30000000e-01	1.16695547e-02	2.55195534e-04
8.31000000e-01	1.14865618e-02	2.57402192e-04
8.32000000e-01	1.17365343e-02	2.68176415e-04
8.33000000e-01	1.13545633e-02	2.64082393e-04
8.34000000e-01	1.15668615e-02	2.70364221e-04
8.35000000e-01	1.17943530e-02	2.81799481e-04
8.36000000e-01	1.15141952e-02	2.78169951e-04
8.37000000e-01	1.15125108e-02	2.86259723e-04
8.38000000e-01	1.15406178e-02	2.92683341e-04
8.39000000e-01	1.14303916e-02	2.95138433e-04
8.40000000e-01	1.14010235e-02	3.02114825e-04
8.41000000e-01	1.15213414e-02	3.10722738e-04
8.42000000e-01	1.11349329e-02	3.09204225e-04
8.43000000e-01	1.15768572e-02	3.26252618e-04
8.44000000e-01	1.14596063e-02	3.30220368e-04
8.45000000e-01	1.13448156e-02	3.38654594e-04
8.46000000e-01	1.11493014e-02	3.39453790e-04
8.47000000e-01	1.10935615e-02	3.50303396e-04
8.48000000e-01	1.15077637e-02	3.73718732e-04
8.49000000e-01	1.15208607e-02	3.86837070e-04
8.50000000e-01	1.14189705e-02	3.97271109e-04
8.51000000e-01	1.14352415e-02	4.06994000e-04
8.52000000e-01	1.10573379e-02	4.16656630e-04
8.53000000e-01	1.12759904e-02	4.44183639e-04
8.54000000e-01	1.09998127e-02	4.54614477e-04
8.55000000e-01	1.13315270e-02	4.76963874e-04
8.56000000e-01	1.16017223e-02	4.96768220e-04
8.57000000e-01	1.10515786e-02	4.88271616e-04
8.58000000e-01	1.10386757e-02	5.13293251e-04
8.59000000e-01	1.15084394e-02	5.46881106e-04
8.60000000e-01	1.16567719e-02	5.71933571e-04
8.61000000e-01	1.12577970e-02	5.60829836e-04
8.62000000e-01	1.08723669e-02	5.68554446e-04
8.63000000e-01	1.07921526e-02	5.88758884e-04
8.64000000e-01	1.08483018e-02	6.18921993e-04
8.65000000e-01	1.12466183e-02	6.66880362e-04
8.66000000e-01	1.05474943e-02	6.67256177e-04
8.67000000e-01	1.10589403e-02	7.39046517e-04
8.68000000e-01	1.09125272e-02	7.78288701e-04
8.69000000e-01	1.02309136e-02	7.77233040e-04
8.70000000e-01	1.10844172e-02	9.09685618e-04
8.71000000e-01	1.19000600e-02	1.06189216e-03
8.72000000e-01	1.17247092e-02	1.22731040e-03
8.73000000e-01	1.14801547e-02	1.40301295e-03
8.74000000e-01	1.21752770e-02	1.94115084e-03
8.75000000e-01	9.34421871e-03	3.00334516e-03
