% Filename : SEC8_00040_00007.h5
% Date & Time : 30-Oct-2025 17:51:33
% X-ray Energy (keV) : 13.30001
% Exposure Time (s) : 0.500
% Beam Center : 1461.24000, 208.98300
% Sample to Detector Distance (SDD) (mm) : 1990.750
% Detector Pixel Size (mm) : 0.075
% Photodiode Value : 141482.000
% I0 of Sample : 0
% I0 of Standard : 1
% 
% q(A^-1)   I(q)    I(q)_SE
0.00000000e+00	7.66175702e-03	4.77794920e-03
2.50000000e-04	0.00000000e+00	0.00000000e+00
5.00000000e-04	0.00000000e+00	0.00000000e+00
7.50000000e-04	0.00000000e+00	0.00000000e+00
1.00000000e-03	0.00000000e+00	0.00000000e+00
1.25000000e-03	0.00000000e+00	0.00000000e+00
1.50000000e-03	0.00000000e+00	0.00000000e+00
1.75000000e-03	0.00000000e+00	0.00000000e+00
2.00000000e-03	0.00000000e+00	0.00000000e+00
2.25000000e-03	0.00000000e+00	0.00000000e+00
2.50000000e-03	0.00000000e+00	0.00000000e+00
2.75000000e-03	0.00000000e+00	0.00000000e+00
3.00000000e-03	0.00000000e+00	0.00000000e+00
3.25000000e-03	5.78236765e+02	3.78447271e+02
3.50000000e-03	1.53314438e+02	6.37646139e+01
3.75000000e-03	1.09006636e+02	3.63025593e+01
4.00000000e-03	8.51507689e+01	2.33317417e+01
4.25000000e-03	5.24421936e+01	1.04852434e+01
4.50000000e-03	5.73327891e+01	1.04285663e+01
4.75000000e-03	5.23582908e+01	9.16179287e+00
5.00000000e-03	4.11309392e+01	6.75886903e+00
5.25000000e-03	3.29098075e+01	5.25502688e+00
5.50000000e-03	2.67637866e+01	4.10920650e+00
5.75000000e-03	2.24631475e+01	3.33352152e+00
6.00000000e-03	1.87191827e+01	2.72615233e+00
6.25000000e-03	1.65409669e+01	2.35734250e+00
6.50000000e-03	1.35328538e+01	1.86985064e+00
6.75000000e-03	1.16433415e+01	1.54928202e+00
7.00000000e-03	1.02143437e+01	1.34589417e+00
7.25000000e-03	8.87243771e+00	1.12092908e+00
7.50000000e-03	7.73627947e+00	9.85485965e-01
7.75000000e-03	6.85769121e+00	8.55462578e-01
8.00000000e-03	6.22702160e+00	7.52731805e-01
8.25000000e-03	5.42565027e+00	6.30425114e-01
8.50000000e-03	4.92279036e+00	5.49702399e-01
8.75000000e-03	4.42286869e+00	4.87521685e-01
9.00000000e-03	3.90846166e+00	4.16836688e-01
9.25000000e-03	3.53795052e+00	3.67505008e-01
9.50000000e-03	3.17875071e+00	3.23486513e-01
9.75000000e-03	2.85468770e+00	2.85051299e-01
1.00000000e-02	2.56483398e+00	2.47953604e-01
1.02500000e-02	2.40805055e+00	2.31704174e-01
1.05000000e-02	2.18571938e+00	2.01200205e-01
1.07500000e-02	2.01220420e+00	1.83050861e-01
1.10000000e-02	1.85843998e+00	1.63006439e-01
1.12500000e-02	1.71644420e+00	1.52668482e-01
1.15000000e-02	1.62644412e+00	1.43488779e-01
1.17500000e-02	1.42804430e+00	1.17608485e-01
1.20000000e-02	1.36439136e+00	1.14443704e-01
1.22500000e-02	1.29029790e+00	1.08048636e-01
1.25000000e-02	1.20772530e+00	9.84900132e-02
1.27500000e-02	1.12794228e+00	9.19662270e-02
1.30000000e-02	1.05804882e+00	8.38114880e-02
1.32500000e-02	9.76185685e-01	7.46924553e-02
1.35000000e-02	9.16027111e-01	7.04113323e-02
1.37500000e-02	8.52299434e-01	6.48216191e-02
1.40000000e-02	8.17030765e-01	6.20143639e-02
1.42500000e-02	7.58555725e-01	5.63969800e-02
1.45000000e-02	7.13678295e-01	5.28471931e-02
1.47500000e-02	6.69910169e-01	4.86420259e-02
1.50000000e-02	6.41944377e-01	4.59401869e-02
1.52500000e-02	6.06171338e-01	4.31419315e-02
1.55000000e-02	5.72319029e-01	4.05189437e-02
1.57500000e-02	5.33596905e-01	3.71950070e-02
1.60000000e-02	5.08592053e-01	3.47516725e-02
1.62500000e-02	4.88348764e-01	3.40057211e-02
1.65000000e-02	4.49536013e-01	3.07282649e-02
1.67500000e-02	4.24932077e-01	2.80684305e-02
1.70000000e-02	4.10110460e-01	2.75041355e-02
1.72500000e-02	3.85692992e-01	2.49797490e-02
1.75000000e-02	3.66631891e-01	2.40585598e-02
1.77500000e-02	3.45156810e-01	2.21617095e-02
1.80000000e-02	3.37088676e-01	2.16490624e-02
1.82500000e-02	3.11290417e-01	1.94124618e-02
1.85000000e-02	3.03434538e-01	1.94741530e-02
1.87500000e-02	2.84387296e-01	1.80396368e-02
1.90000000e-02	2.78531199e-01	1.72914073e-02
1.92500000e-02	2.59302478e-01	1.58480174e-02
1.95000000e-02	2.46306251e-01	1.49987659e-02
1.97500000e-02	2.41384792e-01	1.45864446e-02
2.00000000e-02	2.22068776e-01	1.31704884e-02
2.02500000e-02	2.15364916e-01	1.26389585e-02
2.05000000e-02	2.08878495e-01	1.20223885e-02
2.07500000e-02	2.01505543e-01	1.17270680e-02
2.10000000e-02	1.91290204e-01	1.13363638e-02
2.12500000e-02	1.85127718e-01	1.07475131e-02
2.15000000e-02	1.78057797e-01	1.02425731e-02
2.17500000e-02	1.70822470e-01	9.74414468e-03
2.20000000e-02	1.62937904e-01	9.47340927e-03
2.22500000e-02	1.57643583e-01	9.02090247e-03
2.25000000e-02	1.53624930e-01	9.03153785e-03
2.27500000e-02	1.46403792e-01	8.35668730e-03
2.30000000e-02	1.44878267e-01	8.31589919e-03
2.32500000e-02	1.40393067e-01	7.92593760e-03
2.35000000e-02	1.36429336e-01	7.82134127e-03
2.37500000e-02	1.30285793e-01	7.33235461e-03
2.40000000e-02	1.25375547e-01	7.04892200e-03
2.42500000e-02	1.24960758e-01	6.97125301e-03
2.45000000e-02	1.17950386e-01	6.50558895e-03
2.47500000e-02	1.15044260e-01	6.21576539e-03
2.50000000e-02	1.15138036e-01	6.26211754e-03
2.52500000e-02	1.10665149e-01	5.99375853e-03
2.55000000e-02	1.05745766e-01	5.64585449e-03
2.57500000e-02	1.03715857e-01	5.58046581e-03
2.60000000e-02	1.02957173e-01	5.44384114e-03
2.62500000e-02	9.76566288e-02	5.18949226e-03
2.65000000e-02	9.57739676e-02	5.05566441e-03
2.67500000e-02	9.43543220e-02	4.92710496e-03
2.70000000e-02	9.16577895e-02	4.76575914e-03
2.72500000e-02	8.95418275e-02	4.56152040e-03
2.75000000e-02	8.65082539e-02	4.47060324e-03
2.77500000e-02	8.40022937e-02	4.34386029e-03
2.80000000e-02	8.21400129e-02	4.13186603e-03
2.82500000e-02	8.16325210e-02	4.09008116e-03
2.85000000e-02	7.96117578e-02	4.02962019e-03
2.87500000e-02	7.75016707e-02	3.93510746e-03
2.90000000e-02	7.75209722e-02	3.87219565e-03
2.92500000e-02	7.54425489e-02	3.71856491e-03
2.95000000e-02	7.39873563e-02	3.70160472e-03
2.97500000e-02	7.26957130e-02	3.54689255e-03
3.00000000e-02	6.97189235e-02	3.45290328e-03
3.02500000e-02	6.98032047e-02	3.41139109e-03
3.05000000e-02	6.95759435e-02	3.32309934e-03
3.07500000e-02	6.89211394e-02	3.31613869e-03
3.10000000e-02	6.63656053e-02	3.19513159e-03
3.12500000e-02	6.48601720e-02	3.15445334e-03
3.15000000e-02	6.40316652e-02	3.08356781e-03
3.17500000e-02	6.28225230e-02	2.92631562e-03
3.20000000e-02	6.19386104e-02	2.90516236e-03
3.22500000e-02	6.13296071e-02	2.88674307e-03
3.25000000e-02	5.84085858e-02	2.73877610e-03
3.27500000e-02	5.80437101e-02	2.69634937e-03
3.30000000e-02	5.68045039e-02	2.65680930e-03
3.32500000e-02	5.69150288e-02	2.62619099e-03
3.35000000e-02	5.71141901e-02	2.67362274e-03
3.37500000e-02	5.53934362e-02	2.55319648e-03
3.40000000e-02	5.62086510e-02	2.59032045e-03
3.42500000e-02	5.37887365e-02	2.48125454e-03
3.45000000e-02	5.21173769e-02	2.39265268e-03
3.47500000e-02	5.11617812e-02	2.38473220e-03
3.50000000e-02	5.09346583e-02	2.32473958e-03
3.52500000e-02	5.04201675e-02	2.29479732e-03
3.55000000e-02	5.00217042e-02	2.24207230e-03
3.57500000e-02	4.80640208e-02	2.17883212e-03
3.60000000e-02	4.87554221e-02	2.18537507e-03
3.62500000e-02	4.79387031e-02	2.15808151e-03
3.65000000e-02	4.70204098e-02	2.07596426e-03
3.67500000e-02	4.84915979e-02	2.16290129e-03
3.70000000e-02	4.60751899e-02	2.03899581e-03
3.72500000e-02	4.51039056e-02	1.99186323e-03
3.75000000e-02	4.48037289e-02	1.99648095e-03
3.77500000e-02	4.39351073e-02	1.94100708e-03
3.80000000e-02	4.37090025e-02	1.89301534e-03
3.82500000e-02	4.32388093e-02	1.88789535e-03
3.85000000e-02	4.32940351e-02	1.90143119e-03
3.87500000e-02	4.24867918e-02	1.84111846e-03
3.90000000e-02	4.19915729e-02	1.85222237e-03
3.92500000e-02	4.21796828e-02	1.81314717e-03
3.95000000e-02	4.11203870e-02	1.77245944e-03
3.97500000e-02	4.11262042e-02	1.78337961e-03
4.00000000e-02	3.99640334e-02	1.71787037e-03
4.02500000e-02	4.07282463e-02	1.74349221e-03
4.05000000e-02	3.93696834e-02	1.68948681e-03
4.07500000e-02	3.93220997e-02	1.67055293e-03
4.10000000e-02	3.92590237e-02	1.68626683e-03
4.12500000e-02	3.88111269e-02	1.63622604e-03
4.15000000e-02	3.79273499e-02	1.60036330e-03
4.17500000e-02	3.78439826e-02	1.58194355e-03
4.20000000e-02	3.79251117e-02	1.58709701e-03
4.22500000e-02	3.71408667e-02	1.55300501e-03
4.25000000e-02	3.76756497e-02	1.57173828e-03
4.27500000e-02	3.76645602e-02	1.55941803e-03
4.30000000e-02	3.64792623e-02	1.51513676e-03
4.32500000e-02	3.61037931e-02	1.48919330e-03
4.35000000e-02	3.55657487e-02	1.49753260e-03
4.37500000e-02	3.62033350e-02	1.48742343e-03
4.40000000e-02	3.56557346e-02	1.48040001e-03
4.42500000e-02	3.43447557e-02	1.41064220e-03
4.45000000e-02	3.53756444e-02	1.45159259e-03
4.47500000e-02	3.50368304e-02	1.44386430e-03
4.50000000e-02	3.39952676e-02	1.39591223e-03
4.52500000e-02	3.42732409e-02	1.39179022e-03
4.55000000e-02	3.41165735e-02	1.38070870e-03
4.57500000e-02	3.45297468e-02	1.39619517e-03
4.60000000e-02	3.39106151e-02	1.37983161e-03
4.62500000e-02	3.35864186e-02	1.36935664e-03
4.65000000e-02	3.30574103e-02	1.34016709e-03
4.67500000e-02	3.29579635e-02	1.32036306e-03
4.70000000e-02	3.21445296e-02	1.27444752e-03
4.72500000e-02	3.23505698e-02	1.28376993e-03
4.75000000e-02	3.25761755e-02	1.31226882e-03
4.77500000e-02	3.21850497e-02	1.28783936e-03
4.80000000e-02	3.23410803e-02	1.28035623e-03
4.82500000e-02	3.16448921e-02	1.25534456e-03
4.85000000e-02	3.23033875e-02	1.29486598e-03
4.87500000e-02	3.08027575e-02	1.21820806e-03
4.90000000e-02	3.12351051e-02	1.23075655e-03
4.92500000e-02	3.10854000e-02	1.22673938e-03
4.95000000e-02	3.08523336e-02	1.21138236e-03
4.97500000e-02	3.05652926e-02	1.21421942e-03
5.00000000e-02	3.05897861e-02	1.21728367e-03
5.02500000e-02	3.12885874e-02	1.21565544e-03
5.05000000e-02	3.04302658e-02	1.18761919e-03
5.07500000e-02	2.98940444e-02	1.16901370e-03
5.10000000e-02	2.95938980e-02	1.15981752e-03
5.12500000e-02	2.96825469e-02	1.16563660e-03
5.15000000e-02	2.91510863e-02	1.13266135e-03
5.17500000e-02	3.02302256e-02	1.16931804e-03
5.20000000e-02	2.96001267e-02	1.14511718e-03
5.22500000e-02	2.93814233e-02	1.14668110e-03
5.25000000e-02	2.85326872e-02	1.09930494e-03
5.27500000e-02	2.81475375e-02	1.07507992e-03
5.30000000e-02	2.89265648e-02	1.11187874e-03
5.32500000e-02	2.88903249e-02	1.10258551e-03
5.35000000e-02	2.85316305e-02	1.08755166e-03
5.37500000e-02	2.83509853e-02	1.08036193e-03
5.40000000e-02	2.81363101e-02	1.07198124e-03
5.42500000e-02	2.74727229e-02	1.04260253e-03
5.45000000e-02	2.81387914e-02	1.06514126e-03
5.47500000e-02	2.72777420e-02	1.03310097e-03
5.50000000e-02	2.76020176e-02	1.04828871e-03
5.52500000e-02	2.83346230e-02	1.06213127e-03
5.55000000e-02	2.83338442e-02	1.05586253e-03
5.57500000e-02	2.76369968e-02	1.04421297e-03
5.60000000e-02	2.74738210e-02	1.03970071e-03
5.62500000e-02	2.74480166e-02	1.03146256e-03
5.65000000e-02	2.76806592e-02	1.03924901e-03
5.67500000e-02	2.67323444e-02	1.01430532e-03
5.70000000e-02	2.69342079e-02	1.00699477e-03
5.72500000e-02	2.73830103e-02	1.02724284e-03
5.75000000e-02	2.72082677e-02	1.02079375e-03
5.77500000e-02	2.73804346e-02	1.00998104e-03
5.80000000e-02	2.60890808e-02	9.61475895e-04
5.82500000e-02	2.59102680e-02	9.62105521e-04
5.85000000e-02	2.65827674e-02	9.83105669e-04
5.87500000e-02	2.58955231e-02	9.54233220e-04
5.90000000e-02	2.62445616e-02	9.65238068e-04
5.92500000e-02	2.58899716e-02	9.48507154e-04
5.95000000e-02	2.57662379e-02	9.45677514e-04
5.97500000e-02	2.61172227e-02	9.61854317e-04
6.00000000e-02	2.57439801e-02	9.48733299e-04
6.02500000e-02	2.61622217e-02	9.60973140e-04
6.05000000e-02	2.58471064e-02	9.47336318e-04
6.07500000e-02	2.59168430e-02	9.51876439e-04
6.10000000e-02	2.60135791e-02	9.55386116e-04
6.12500000e-02	2.59089844e-02	9.44874188e-04
6.15000000e-02	2.54583932e-02	9.21762555e-04
6.17500000e-02	2.55809095e-02	9.24834707e-04
6.20000000e-02	2.62598354e-02	9.48035552e-04
6.22500000e-02	2.57736338e-02	9.35908013e-04
6.25000000e-02	2.49669085e-02	9.10896603e-04
6.27500000e-02	2.45828554e-02	8.88011407e-04
6.30000000e-02	2.49822103e-02	8.99937451e-04
6.32500000e-02	2.54626641e-02	9.14761464e-04
6.35000000e-02	2.51152579e-02	9.02505484e-04
6.37500000e-02	2.51904743e-02	9.07020872e-04
6.40000000e-02	2.51618624e-02	8.97081162e-04
6.42500000e-02	2.53966721e-02	9.06284505e-04
6.45000000e-02	2.43280296e-02	8.68882207e-04
6.47500000e-02	2.51177229e-02	8.95698043e-04
6.50000000e-02	2.50174444e-02	8.93636976e-04
6.52500000e-02	2.44420831e-02	8.69298831e-04
6.55000000e-02	2.45093437e-02	8.62302332e-04
6.57500000e-02	2.35863435e-02	8.39536034e-04
6.60000000e-02	2.40809333e-02	8.57942500e-04
6.62500000e-02	2.40551799e-02	8.56765523e-04
6.65000000e-02	2.45166625e-02	8.61724098e-04
6.67500000e-02	2.44617416e-02	8.62847583e-04
6.70000000e-02	2.47592428e-02	8.80672561e-04
6.72500000e-02	2.38851235e-02	8.40768814e-04
6.75000000e-02	2.38253455e-02	8.27080974e-04
6.77500000e-02	2.33790175e-02	8.20786333e-04
6.80000000e-02	2.40549271e-02	8.42100059e-04
6.82500000e-02	2.41218373e-02	8.38444033e-04
6.85000000e-02	2.35301819e-02	8.32032922e-04
6.87500000e-02	2.34591952e-02	8.16530371e-04
6.90000000e-02	2.42469345e-02	8.42550602e-04
6.92500000e-02	2.40012925e-02	8.37396585e-04
6.95000000e-02	2.30985091e-02	8.12861091e-04
6.97500000e-02	2.30913088e-02	8.05908664e-04
7.00000000e-02	2.32053114e-02	8.01990519e-04
7.02500000e-02	2.37815730e-02	8.18203078e-04
7.05000000e-02	2.39271333e-02	8.22335519e-04
7.07500000e-02	2.34014513e-02	8.11347275e-04
7.10000000e-02	2.31304263e-02	7.95579648e-04
7.12500000e-02	2.27333746e-02	7.81008664e-04
7.15000000e-02	2.31553270e-02	7.94032809e-04
7.17500000e-02	2.30191967e-02	7.86249336e-04
7.20000000e-02	2.32188677e-02	8.02368598e-04
7.22500000e-02	2.31046057e-02	7.93504568e-04
7.25000000e-02	2.30058110e-02	7.84954082e-04
7.27500000e-02	2.36330911e-02	8.04295494e-04
7.30000000e-02	2.33820495e-02	8.00253775e-04
7.32500000e-02	2.31698689e-02	7.83816974e-04
7.35000000e-02	2.33893091e-02	7.91465338e-04
7.37500000e-02	2.31903698e-02	7.84363257e-04
7.40000000e-02	2.32120043e-02	7.80484508e-04
7.42500000e-02	2.23452557e-02	7.64149879e-04
7.45000000e-02	2.30931238e-02	7.77711534e-04
7.47500000e-02	2.24776873e-02	7.62935161e-04
7.50000000e-02	2.28900264e-02	7.70733231e-04
7.52500000e-02	2.30743545e-02	7.78871760e-04
7.55000000e-02	2.28674509e-02	7.64747904e-04
7.57500000e-02	2.29396892e-02	7.66775569e-04
7.60000000e-02	2.29369477e-02	7.63446536e-04
7.62500000e-02	2.27148759e-02	7.62528022e-04
7.65000000e-02	2.23450271e-02	7.45099120e-04
7.67500000e-02	2.23952351e-02	7.46493861e-04
7.70000000e-02	2.23505552e-02	7.42798182e-04
7.72500000e-02	2.23760251e-02	7.59013623e-04
7.75000000e-02	2.29533720e-02	7.83317748e-04
7.77500000e-02	2.28201039e-02	7.79479824e-04
7.80000000e-02	2.27353769e-02	7.84906964e-04
7.82500000e-02	2.26935040e-02	7.88496808e-04
7.85000000e-02	2.23262968e-02	7.86362649e-04
7.87500000e-02	2.25937548e-02	7.91313752e-04
7.90000000e-02	2.24662733e-02	7.88137012e-04
7.92500000e-02	2.18400882e-02	7.68313010e-04
7.95000000e-02	2.19884736e-02	7.84465209e-04
7.97500000e-02	2.25930450e-02	8.01605204e-04
8.00000000e-02	2.24925831e-02	7.93986081e-04
8.02500000e-02	2.23161911e-02	7.92836208e-04
8.05000000e-02	2.23090584e-02	7.91760059e-04
8.07500000e-02	2.17892477e-02	7.87016772e-04
8.10000000e-02	2.25958164e-02	8.10044715e-04
8.12500000e-02	2.22259163e-02	7.95671647e-04
8.15000000e-02	2.26238153e-02	8.04501838e-04
8.17500000e-02	2.24192103e-02	8.09313635e-04
8.20000000e-02	2.27246109e-02	8.13605715e-04
8.22500000e-02	2.23981315e-02	8.10189079e-04
8.25000000e-02	2.18225767e-02	7.88958087e-04
8.27500000e-02	2.21742347e-02	8.03532669e-04
8.30000000e-02	2.20399841e-02	7.98077480e-04
8.32500000e-02	2.19288932e-02	7.98282589e-04
8.35000000e-02	2.20739205e-02	8.06741580e-04
8.37500000e-02	2.20787715e-02	7.97145044e-04
8.40000000e-02	2.25026764e-02	8.12013993e-04
8.42500000e-02	2.22680612e-02	8.09525362e-04
8.45000000e-02	2.12723516e-02	7.79966640e-04
8.47500000e-02	2.15168583e-02	7.91230258e-04
8.50000000e-02	2.15823791e-02	7.88431078e-04
8.52500000e-02	2.19228592e-02	8.05166117e-04
8.55000000e-02	2.23087078e-02	8.13830193e-04
8.57500000e-02	2.22279168e-02	8.18633352e-04
8.60000000e-02	2.18976694e-02	8.09706025e-04
8.62500000e-02	2.18695261e-02	8.00804871e-04
8.65000000e-02	2.16043615e-02	7.94429107e-04
8.67500000e-02	2.24010662e-02	8.19973288e-04
8.70000000e-02	2.28397982e-02	8.14677151e-04
8.72500000e-02	2.18492902e-02	7.72638056e-04
8.75000000e-02	2.17857858e-02	7.64082042e-04
8.77500000e-02	2.15352446e-02	7.51646865e-04
8.80000000e-02	2.17970294e-02	7.56762241e-04
8.82500000e-02	2.17049145e-02	7.51352724e-04
8.85000000e-02	2.20805992e-02	7.63467755e-04
8.87500000e-02	2.18603204e-02	7.44481103e-04
8.90000000e-02	2.14602628e-02	7.36019180e-04
8.92500000e-02	2.16130845e-02	7.35432647e-04
8.95000000e-02	2.19545777e-02	7.48965770e-04
8.97500000e-02	2.16728857e-02	7.33916747e-04
9.00000000e-02	2.15603582e-02	7.23865251e-04
9.02500000e-02	2.08129566e-02	7.01761114e-04
9.05000000e-02	2.21781814e-02	7.42282532e-04
9.07500000e-02	2.20326192e-02	7.35200864e-04
9.10000000e-02	2.16434225e-02	7.20425457e-04
9.12500000e-02	2.18149045e-02	7.20620303e-04
9.15000000e-02	2.17567046e-02	7.20217532e-04
9.17500000e-02	2.12430478e-02	7.07339625e-04
9.20000000e-02	2.15495410e-02	7.17559784e-04
9.22500000e-02	2.09429741e-02	6.95379921e-04
9.25000000e-02	2.11503274e-02	7.02227072e-04
9.27500000e-02	2.17006240e-02	7.20544446e-04
9.30000000e-02	2.11384385e-02	6.96863678e-04
9.32500000e-02	2.08974041e-02	6.86155797e-04
9.35000000e-02	2.13037337e-02	6.95928085e-04
9.37500000e-02	2.10437279e-02	6.87554838e-04
9.40000000e-02	2.18862983e-02	7.10911300e-04
9.42500000e-02	2.12405012e-02	6.93209191e-04
9.45000000e-02	2.10970324e-02	6.86161871e-04
9.47500000e-02	2.14095980e-02	6.94497882e-04
9.50000000e-02	2.17429231e-02	7.02329168e-04
9.52500000e-02	2.17356729e-02	6.97835077e-04
9.55000000e-02	2.19243023e-02	7.00953448e-04
9.57500000e-02	2.12008772e-02	6.83764251e-04
9.60000000e-02	2.06825523e-02	6.71534343e-04
9.62500000e-02	2.11705195e-02	6.77224611e-04
9.65000000e-02	2.12202008e-02	6.78680813e-04
9.67500000e-02	2.12281269e-02	6.76328448e-04
9.70000000e-02	2.16940507e-02	6.90340113e-04
9.72500000e-02	2.12146559e-02	6.78952733e-04
9.75000000e-02	2.12465990e-02	6.78587791e-04
9.77500000e-02	2.15429158e-02	6.82133681e-04
9.80000000e-02	2.07779735e-02	6.61782120e-04
9.82500000e-02	2.17822886e-02	6.88992328e-04
9.85000000e-02	2.08630111e-02	6.56804454e-04
9.87500000e-02	2.17358318e-02	6.86159913e-04
9.90000000e-02	2.15553109e-02	6.77962828e-04
9.92500000e-02	2.16182101e-02	6.86540265e-04
9.95000000e-02	2.11958515e-02	6.65221899e-04
9.97500000e-02	2.10538129e-02	6.65353257e-04
1.00000000e-01	2.08072380e-02	5.33661904e-04
1.00500000e-01	2.11319232e-02	4.69136492e-04
1.01000000e-01	2.11619131e-02	4.64901448e-04
1.01500000e-01	2.06227370e-02	4.55306862e-04
1.02000000e-01	2.13599796e-02	4.68265456e-04
1.02500000e-01	2.10217515e-02	4.58410310e-04
1.03000000e-01	2.10435194e-02	4.58765974e-04
1.03500000e-01	2.08273878e-02	4.55745305e-04
1.04000000e-01	2.08695923e-02	4.53881475e-04
1.04500000e-01	2.10695033e-02	4.54647021e-04
1.05000000e-01	2.08214391e-02	4.47522466e-04
1.05500000e-01	2.07241490e-02	4.45477825e-04
1.06000000e-01	2.10503618e-02	4.51821120e-04
1.06500000e-01	2.12114950e-02	4.51329095e-04
1.07000000e-01	2.08332488e-02	4.50449206e-04
1.07500000e-01	2.08507550e-02	4.60995399e-04
1.08000000e-01	2.09446245e-02	4.68380032e-04
1.08500000e-01	2.08513279e-02	4.65705773e-04
1.09000000e-01	2.08289750e-02	4.66504115e-04
1.09500000e-01	2.09010506e-02	4.72949807e-04
1.10000000e-01	2.10450883e-02	4.74092500e-04
1.10500000e-01	2.07732427e-02	4.56950062e-04
1.11000000e-01	2.09726544e-02	4.52518590e-04
1.11500000e-01	2.07492519e-02	4.45680380e-04
1.12000000e-01	2.05825240e-02	4.37008749e-04
1.12500000e-01	2.11232159e-02	4.46493464e-04
1.13000000e-01	2.08134856e-02	4.40101650e-04
1.13500000e-01	2.08778585e-02	4.39046453e-04
1.14000000e-01	2.06471234e-02	4.32261283e-04
1.14500000e-01	2.07784699e-02	4.34237652e-04
1.15000000e-01	2.05812282e-02	4.27279243e-04
1.15500000e-01	2.10859511e-02	4.35781946e-04
1.16000000e-01	2.07511235e-02	4.28538953e-04
1.16500000e-01	2.08179792e-02	4.31167881e-04
1.17000000e-01	2.06390937e-02	4.25408312e-04
1.17500000e-01	2.06640715e-02	4.23691438e-04
1.18000000e-01	2.06174864e-02	4.24354958e-04
1.18500000e-01	2.07561829e-02	4.23679847e-04
1.19000000e-01	2.09669119e-02	4.30194967e-04
1.19500000e-01	2.03577604e-02	4.15258863e-04
1.20000000e-01	2.04901978e-02	4.16167261e-04
1.20500000e-01	2.07056280e-02	4.18953545e-04
1.21000000e-01	2.01447104e-02	4.07097845e-04
1.21500000e-01	2.04791256e-02	4.13406944e-04
1.22000000e-01	2.07463145e-02	4.18305946e-04
1.22500000e-01	2.01951022e-02	4.05492436e-04
1.23000000e-01	2.07655987e-02	4.16212749e-04
1.23500000e-01	2.07821458e-02	4.16519753e-04
1.24000000e-01	2.06638392e-02	4.10432690e-04
1.24500000e-01	2.03483136e-02	4.05003438e-04
1.25000000e-01	2.04451782e-02	4.06135472e-04
1.25500000e-01	2.09567718e-02	4.15366994e-04
1.26000000e-01	2.02887927e-02	4.02463008e-04
1.26500000e-01	2.05957180e-02	4.04983643e-04
1.27000000e-01	2.05335020e-02	4.03647706e-04
1.27500000e-01	2.05549232e-02	4.04884185e-04
1.28000000e-01	2.08423806e-02	4.09047797e-04
1.28500000e-01	2.03763639e-02	3.99048239e-04
1.29000000e-01	2.04867205e-02	3.99968106e-04
1.29500000e-01	2.05834064e-02	4.03335309e-04
1.30000000e-01	2.05069395e-02	3.98159864e-04
1.30500000e-01	2.03738047e-02	3.95175258e-04
1.31000000e-01	2.02366433e-02	3.93059817e-04
1.31500000e-01	2.02692483e-02	3.92647718e-04
1.32000000e-01	2.08462609e-02	4.00835323e-04
1.32500000e-01	2.01928192e-02	3.89328557e-04
1.33000000e-01	2.02630161e-02	3.90249589e-04
1.33500000e-01	2.06235162e-02	3.93988508e-04
1.34000000e-01	2.02728378e-02	3.88011294e-04
1.34500000e-01	2.01636658e-02	3.84967432e-04
1.35000000e-01	2.02840200e-02	3.86004017e-04
1.35500000e-01	2.03618461e-02	3.84989875e-04
1.36000000e-01	2.01903032e-02	3.82863681e-04
1.36500000e-01	2.02443129e-02	3.83631277e-04
1.37000000e-01	2.03867514e-02	3.82585235e-04
1.37500000e-01	2.01369762e-02	3.78762823e-04
1.38000000e-01	2.02524254e-02	3.81862131e-04
1.38500000e-01	2.01898978e-02	3.80190474e-04
1.39000000e-01	2.05209517e-02	3.87120680e-04
1.39500000e-01	2.03526463e-02	3.79554122e-04
1.40000000e-01	2.00868800e-02	3.76624892e-04
1.40500000e-01	2.01404147e-02	3.74473160e-04
1.41000000e-01	2.03362885e-02	3.79530443e-04
1.41500000e-01	2.02256437e-02	3.79030353e-04
1.42000000e-01	2.02289815e-02	3.77310668e-04
1.42500000e-01	2.02096873e-02	3.77025717e-04
1.43000000e-01	2.02696464e-02	3.77794292e-04
1.43500000e-01	1.99120926e-02	3.68849689e-04
1.44000000e-01	1.99984208e-02	3.70905749e-04
1.44500000e-01	2.00791657e-02	3.69936436e-04
1.45000000e-01	2.03004505e-02	3.75514484e-04
1.45500000e-01	1.99560137e-02	3.68763046e-04
1.46000000e-01	2.02563666e-02	3.74128745e-04
1.46500000e-01	1.99305292e-02	3.66943912e-04
1.47000000e-01	2.02778759e-02	3.71452300e-04
1.47500000e-01	1.99880906e-02	3.66115465e-04
1.48000000e-01	1.97538243e-02	3.61258949e-04
1.48500000e-01	1.95768962e-02	3.57320941e-04
1.49000000e-01	1.99745788e-02	3.63642338e-04
1.49500000e-01	1.97388945e-02	3.58721723e-04
1.50000000e-01	1.95725190e-02	3.55552237e-04
1.50500000e-01	1.99853815e-02	3.65008095e-04
1.51000000e-01	1.97749861e-02	3.58741306e-04
1.51500000e-01	1.97782645e-02	3.56302533e-04
1.52000000e-01	1.97525438e-02	3.54936834e-04
1.52500000e-01	1.97518407e-02	3.55380638e-04
1.53000000e-01	1.95914290e-02	3.51959899e-04
1.53500000e-01	1.96925313e-02	3.53618626e-04
1.54000000e-01	1.95133351e-02	3.49870762e-04
1.54500000e-01	1.97003902e-02	3.59077431e-04
1.55000000e-01	1.95301270e-02	3.61224926e-04
1.55500000e-01	1.98045122e-02	3.69114291e-04
1.56000000e-01	1.95746576e-02	3.67608613e-04
1.56500000e-01	1.97771339e-02	3.68575702e-04
1.57000000e-01	1.96410064e-02	3.68588626e-04
1.57500000e-01	1.97161623e-02	3.62220690e-04
1.58000000e-01	1.96555356e-02	3.55049129e-04
1.58500000e-01	1.93881776e-02	3.48878249e-04
1.59000000e-01	1.96564434e-02	3.51633519e-04
1.59500000e-01	1.96560593e-02	3.51861660e-04
1.60000000e-01	1.95708620e-02	3.50291921e-04
1.60500000e-01	1.95287598e-02	3.47509752e-04
1.61000000e-01	1.97774149e-02	3.51532645e-04
1.61500000e-01	2.00755745e-02	3.52895571e-04
1.62000000e-01	1.93397192e-02	3.43248264e-04
1.62500000e-01	1.97400477e-02	3.49845756e-04
1.63000000e-01	1.95710242e-02	3.43681905e-04
1.63500000e-01	1.95383061e-02	3.45651070e-04
1.64000000e-01	1.93241284e-02	3.39499866e-04
1.64500000e-01	1.93089938e-02	3.38489148e-04
1.65000000e-01	1.92242853e-02	3.36551762e-04
1.65500000e-01	1.96867629e-02	3.43086363e-04
1.66000000e-01	1.93741390e-02	3.38694314e-04
1.66500000e-01	1.96721053e-02	3.41801966e-04
1.67000000e-01	1.92131994e-02	3.35187011e-04
1.67500000e-01	1.94984693e-02	3.39134742e-04
1.68000000e-01	1.93502894e-02	3.36426475e-04
1.68500000e-01	1.94738678e-02	3.36241846e-04
1.69000000e-01	1.93603477e-02	3.34649470e-04
1.69500000e-01	1.90594283e-02	3.27388976e-04
1.70000000e-01	1.94921489e-02	3.35819439e-04
1.70500000e-01	1.93799621e-02	3.32416079e-04
1.71000000e-01	1.95572534e-02	3.36056524e-04
1.71500000e-01	1.96087997e-02	3.36684074e-04
1.72000000e-01	1.93076621e-02	3.30350083e-04
1.72500000e-01	1.92486241e-02	3.29330458e-04
1.73000000e-01	1.93089337e-02	3.29965513e-04
1.73500000e-01	1.92885317e-02	3.27577625e-04
1.74000000e-01	1.89859579e-02	3.23349010e-04
1.74500000e-01	1.93628854e-02	3.26527898e-04
1.75000000e-01	1.94966636e-02	3.28885086e-04
1.75500000e-01	1.93095179e-02	3.24903573e-04
1.76000000e-01	1.93246684e-02	3.25542524e-04
1.76500000e-01	1.88857752e-02	3.18887585e-04
1.77000000e-01	1.90873278e-02	3.19669786e-04
1.77500000e-01	1.89819642e-02	3.20129967e-04
1.78000000e-01	1.92224090e-02	3.22545992e-04
1.78500000e-01	1.91537836e-02	3.21045577e-04
1.79000000e-01	1.91365430e-02	3.20671387e-04
1.79500000e-01	1.90199854e-02	3.19110814e-04
1.80000000e-01	1.91181058e-02	3.20754986e-04
1.80500000e-01	1.92337625e-02	3.21470539e-04
1.81000000e-01	1.93095030e-02	3.20803443e-04
1.81500000e-01	1.92248519e-02	3.20243340e-04
1.82000000e-01	1.90592811e-02	3.18191127e-04
1.82500000e-01	1.90409516e-02	3.16185563e-04
1.83000000e-01	1.89965619e-02	3.16083888e-04
1.83500000e-01	1.91953687e-02	3.18724629e-04
1.84000000e-01	1.91130230e-02	3.15281546e-04
1.84500000e-01	1.90246296e-02	3.16592894e-04
1.85000000e-01	1.91857053e-02	3.16690084e-04
1.85500000e-01	1.90961591e-02	3.14314066e-04
1.86000000e-01	1.91082781e-02	3.15725559e-04
1.86500000e-01	1.89382603e-02	3.11990003e-04
1.87000000e-01	1.89140518e-02	3.10650449e-04
1.87500000e-01	1.87694176e-02	3.08996612e-04
1.88000000e-01	1.88436641e-02	3.09746770e-04
1.88500000e-01	1.87914730e-02	3.08941678e-04
1.89000000e-01	1.89043743e-02	3.09741671e-04
1.89500000e-01	1.89485530e-02	3.09263305e-04
1.90000000e-01	1.87425980e-02	3.05349995e-04
1.90500000e-01	1.87495134e-02	3.05763507e-04
1.91000000e-01	1.85993847e-02	3.04705756e-04
1.91500000e-01	1.87333864e-02	3.05938289e-04
1.92000000e-01	1.88387367e-02	3.05055861e-04
1.92500000e-01	1.86021789e-02	3.01880491e-04
1.93000000e-01	1.87930262e-02	3.05529972e-04
1.93500000e-01	1.89469719e-02	3.06311520e-04
1.94000000e-01	1.86680587e-02	3.01731315e-04
1.94500000e-01	1.87931507e-02	3.03414066e-04
1.95000000e-01	1.87586905e-02	3.01854828e-04
1.95500000e-01	1.87226837e-02	3.01150005e-04
1.96000000e-01	1.86121862e-02	2.99701384e-04
1.96500000e-01	1.88727135e-02	3.04221195e-04
1.97000000e-01	1.86145312e-02	2.97441164e-04
1.97500000e-01	1.87045403e-02	3.00199059e-04
1.98000000e-01	1.85513856e-02	2.97125992e-04
1.98500000e-01	1.85414609e-02	2.96043309e-04
1.99000000e-01	1.87048724e-02	2.98019953e-04
1.99500000e-01	1.87875463e-02	2.98415961e-04
2.00000000e-01	1.86134735e-02	2.95685323e-04
2.00500000e-01	1.86964718e-02	2.98317180e-04
2.01000000e-01	1.87038013e-02	2.96661212e-04
2.01500000e-01	1.84880963e-02	2.93154106e-04
2.02000000e-01	1.85707189e-02	2.95549088e-04
2.02500000e-01	1.85707051e-02	2.93293757e-04
2.03000000e-01	1.86946701e-02	2.95984728e-04
2.03500000e-01	1.85245657e-02	2.91820304e-04
2.04000000e-01	1.86210992e-02	2.93926441e-04
2.04500000e-01	1.84927611e-02	2.92895008e-04
2.05000000e-01	1.86608165e-02	2.93032520e-04
2.05500000e-01	1.89112044e-02	2.96418911e-04
2.06000000e-01	1.84794914e-02	2.90216281e-04
2.06500000e-01	1.84789311e-02	2.90494348e-04
2.07000000e-01	1.85362519e-02	2.91235734e-04
2.07500000e-01	1.81715668e-02	2.85528588e-04
2.08000000e-01	1.85486668e-02	2.89684926e-04
2.08500000e-01	1.83286365e-02	2.85856861e-04
2.09000000e-01	1.86119949e-02	2.91170162e-04
2.09500000e-01	1.85545274e-02	2.88973429e-04
2.10000000e-01	1.87332460e-02	2.91133513e-04
2.10500000e-01	1.84606172e-02	2.86039826e-04
2.11000000e-01	1.83315836e-02	2.83900033e-04
2.11500000e-01	1.82975445e-02	2.84496791e-04
2.12000000e-01	1.83962478e-02	2.84365668e-04
2.12500000e-01	1.83478468e-02	2.83555354e-04
2.13000000e-01	1.82194474e-02	2.81098074e-04
2.13500000e-01	1.84932031e-02	2.84748852e-04
2.14000000e-01	1.83897216e-02	2.85039092e-04
2.14500000e-01	1.84747833e-02	2.84326706e-04
2.15000000e-01	1.83401561e-02	2.83608919e-04
2.15500000e-01	1.83068479e-02	2.80524752e-04
2.16000000e-01	1.83045770e-02	2.81147632e-04
2.16500000e-01	1.81953253e-02	2.79827558e-04
2.17000000e-01	1.85717463e-02	2.89625818e-04
2.17500000e-01	1.84879197e-02	2.91298434e-04
2.18000000e-01	1.83287340e-02	2.88156445e-04
2.18500000e-01	1.82627489e-02	2.91576257e-04
2.19000000e-01	1.83625041e-02	2.94143285e-04
2.19500000e-01	1.83010506e-02	2.94363433e-04
2.20000000e-01	1.85307183e-02	2.98329242e-04
2.20500000e-01	1.82302009e-02	2.94769139e-04
2.21000000e-01	1.80209225e-02	2.92701178e-04
2.21500000e-01	1.83196206e-02	2.98476880e-04
2.22000000e-01	1.83722081e-02	2.97139229e-04
2.22500000e-01	1.81433383e-02	2.95729499e-04
2.23000000e-01	1.84400845e-02	3.00480412e-04
2.23500000e-01	1.83820087e-02	3.00447895e-04
2.24000000e-01	1.83551614e-02	3.01062722e-04
2.24500000e-01	1.83070338e-02	3.02017306e-04
2.25000000e-01	1.80790861e-02	2.98785624e-04
2.25500000e-01	1.79607510e-02	2.97904082e-04
2.26000000e-01	1.81206689e-02	3.01142103e-04
2.26500000e-01	1.82094050e-02	2.95659653e-04
2.27000000e-01	1.83446774e-02	2.97424883e-04
2.27500000e-01	1.84150631e-02	2.95469129e-04
2.28000000e-01	1.81808568e-02	2.89680558e-04
2.28500000e-01	1.83556197e-02	2.91757341e-04
2.29000000e-01	1.81131146e-02	2.86708433e-04
2.29500000e-01	1.81087669e-02	2.85799309e-04
2.30000000e-01	1.80401190e-02	2.83144857e-04
2.30500000e-01	1.82471584e-02	2.84557252e-04
2.31000000e-01	1.83114764e-02	2.85460135e-04
2.31500000e-01	1.80531122e-02	2.81573396e-04
2.32000000e-01	1.82370652e-02	2.83129726e-04
2.32500000e-01	1.83015598e-02	2.84518598e-04
2.33000000e-01	1.82014508e-02	2.80735570e-04
2.33500000e-01	1.83424769e-02	2.82281799e-04
2.34000000e-01	1.78204194e-02	2.75389159e-04
2.34500000e-01	1.81532001e-02	2.78792538e-04
2.35000000e-01	1.81373018e-02	2.78814192e-04
2.35500000e-01	1.81654151e-02	2.77272947e-04
2.36000000e-01	1.80758715e-02	2.76869329e-04
2.36500000e-01	1.80358275e-02	2.74755962e-04
2.37000000e-01	1.79691976e-02	2.73829595e-04
2.37500000e-01	1.79457413e-02	2.73296772e-04
2.38000000e-01	1.80283864e-02	2.73721254e-04
2.38500000e-01	1.80513358e-02	2.75490947e-04
2.39000000e-01	1.81048968e-02	2.74299323e-04
2.39500000e-01	1.81209064e-02	2.74321249e-04
2.40000000e-01	1.82558855e-02	2.74638207e-04
2.40500000e-01	1.79319821e-02	2.70503715e-04
2.41000000e-01	1.78955519e-02	2.68366689e-04
2.41500000e-01	1.78447227e-02	2.68266800e-04
2.42000000e-01	1.80493551e-02	2.70162637e-04
2.42500000e-01	1.77611019e-02	2.65524569e-04
2.43000000e-01	1.75661701e-02	2.62662060e-04
2.43500000e-01	1.80807587e-02	2.68794371e-04
2.44000000e-01	1.78890585e-02	2.66276684e-04
2.44500000e-01	1.77589513e-02	2.64837063e-04
2.45000000e-01	1.78975933e-02	2.64941323e-04
2.45500000e-01	1.78621732e-02	2.64553647e-04
2.46000000e-01	1.77703526e-02	2.64287111e-04
2.46500000e-01	1.78512779e-02	2.63391140e-04
2.47000000e-01	1.77600573e-02	2.62734172e-04
2.47500000e-01	1.76330432e-02	2.60391373e-04
2.48000000e-01	1.77926703e-02	2.62712266e-04
2.48500000e-01	1.76659526e-02	2.60704819e-04
2.49000000e-01	1.78692395e-02	2.63202130e-04
2.49500000e-01	1.79000667e-02	2.63883108e-04
2.50000000e-01	1.79434316e-02	2.62828001e-04
2.50500000e-01	1.78607518e-02	2.63105932e-04
2.51000000e-01	1.77269716e-02	2.59369134e-04
2.51500000e-01	1.76575302e-02	2.58464561e-04
2.52000000e-01	1.76061916e-02	2.57246859e-04
2.52500000e-01	1.78016314e-02	2.60105651e-04
2.53000000e-01	1.78571802e-02	2.61957691e-04
2.53500000e-01	1.75978341e-02	2.56033887e-04
2.54000000e-01	1.74825717e-02	2.55092773e-04
2.54500000e-01	1.77551824e-02	2.58691942e-04
2.55000000e-01	1.76500882e-02	2.57030216e-04
2.55500000e-01	1.75759331e-02	2.56589178e-04
2.56000000e-01	1.76981329e-02	2.55454509e-04
2.56500000e-01	1.76078960e-02	2.56295424e-04
2.57000000e-01	1.78852697e-02	2.58435318e-04
2.57500000e-01	1.75799848e-02	2.54088293e-04
2.58000000e-01	1.75774504e-02	2.54589586e-04
2.58500000e-01	1.75434658e-02	2.53724650e-04
2.59000000e-01	1.77152697e-02	2.55218011e-04
2.59500000e-01	1.75884268e-02	2.53493904e-04
2.60000000e-01	1.78579126e-02	2.57271593e-04
2.60500000e-01	1.74723418e-02	2.50941261e-04
2.61000000e-01	1.77676145e-02	2.54172539e-04
2.61500000e-01	1.77231891e-02	2.54520898e-04
2.62000000e-01	1.74441004e-02	2.49482535e-04
2.62500000e-01	1.75391811e-02	2.50744956e-04
2.63000000e-01	1.75076442e-02	2.49839563e-04
2.63500000e-01	1.76999116e-02	2.51932673e-04
2.64000000e-01	1.75565885e-02	2.51167887e-04
2.64500000e-01	1.73997641e-02	2.48906552e-04
2.65000000e-01	1.74858514e-02	2.49344100e-04
2.65500000e-01	1.77090801e-02	2.51300089e-04
2.66000000e-01	1.74347235e-02	2.47773257e-04
2.66500000e-01	1.73885589e-02	2.46564324e-04
2.67000000e-01	1.74675749e-02	2.46928261e-04
2.67500000e-01	1.75681491e-02	2.47543311e-04
2.68000000e-01	1.73120815e-02	2.44375722e-04
2.68500000e-01	1.72283378e-02	2.42876351e-04
2.69000000e-01	1.72503270e-02	2.43630801e-04
2.69500000e-01	1.75003054e-02	2.46489558e-04
2.70000000e-01	1.73414470e-02	2.43842301e-04
2.70500000e-01	1.75911172e-02	2.47536813e-04
2.71000000e-01	1.73516009e-02	2.43738388e-04
2.71500000e-01	1.73612218e-02	2.43287728e-04
2.72000000e-01	1.72876333e-02	2.41250911e-04
2.72500000e-01	1.74098928e-02	2.43623507e-04
2.73000000e-01	1.74581276e-02	2.44208616e-04
2.73500000e-01	1.75695114e-02	2.45209008e-04
2.74000000e-01	1.73068912e-02	2.41906006e-04
2.74500000e-01	1.75374231e-02	2.43523645e-04
2.75000000e-01	1.72523292e-02	2.40213259e-04
2.75500000e-01	1.73503285e-02	2.41793139e-04
2.76000000e-01	1.73101201e-02	2.41416612e-04
2.76500000e-01	1.73052184e-02	2.40130016e-04
2.77000000e-01	1.75123313e-02	2.43266416e-04
2.77500000e-01	1.72997978e-02	2.40855032e-04
2.78000000e-01	1.72989494e-02	2.40195038e-04
2.78500000e-01	1.71197675e-02	2.37543082e-04
2.79000000e-01	1.72690338e-02	2.38854498e-04
2.79500000e-01	1.72201715e-02	2.38259644e-04
2.80000000e-01	1.75240993e-02	2.41856108e-04
2.80500000e-01	1.71647389e-02	2.36969659e-04
2.81000000e-01	1.72451681e-02	2.37890328e-04
2.81500000e-01	1.72356351e-02	2.37694140e-04
2.82000000e-01	1.72394210e-02	2.38074842e-04
2.82500000e-01	1.72873240e-02	2.37684141e-04
2.83000000e-01	1.70825114e-02	2.34249503e-04
2.83500000e-01	1.70788251e-02	2.33965266e-04
2.84000000e-01	1.71156253e-02	2.34397963e-04
2.84500000e-01	1.72582472e-02	2.36415041e-04
2.85000000e-01	1.72334041e-02	2.36172762e-04
2.85500000e-01	1.73135723e-02	2.36724735e-04
2.86000000e-01	1.73361361e-02	2.37920520e-04
2.86500000e-01	1.73213528e-02	2.36205133e-04
2.87000000e-01	1.73696600e-02	2.37368284e-04
2.87500000e-01	1.72454519e-02	2.33923533e-04
2.88000000e-01	1.70857920e-02	2.32531462e-04
2.88500000e-01	1.74077570e-02	2.36626833e-04
2.89000000e-01	1.71780122e-02	2.33648156e-04
2.89500000e-01	1.72130592e-02	2.33857078e-04
2.90000000e-01	1.71525880e-02	2.31976659e-04
2.90500000e-01	1.70972728e-02	2.31791668e-04
2.91000000e-01	1.71144298e-02	2.31822116e-04
2.91500000e-01	1.69620850e-02	2.29668024e-04
2.92000000e-01	1.70047786e-02	2.30303108e-04
2.92500000e-01	1.71227440e-02	2.31210957e-04
2.93000000e-01	1.70649018e-02	2.30359305e-04
2.93500000e-01	1.71248834e-02	2.30773900e-04
2.94000000e-01	1.70693665e-02	2.29391814e-04
2.94500000e-01	1.68528498e-02	2.26637239e-04
2.95000000e-01	1.71693084e-02	2.30712375e-04
2.95500000e-01	1.72995983e-02	2.31182232e-04
2.96000000e-01	1.71946880e-02	2.30731619e-04
2.96500000e-01	1.72153476e-02	2.30301199e-04
2.97000000e-01	1.70516232e-02	2.28702169e-04
2.97500000e-01	1.71453314e-02	2.29867726e-04
2.98000000e-01	1.69336907e-02	2.26672220e-04
2.98500000e-01	1.68470190e-02	2.26255750e-04
2.99000000e-01	1.67673130e-02	2.24037963e-04
2.99500000e-01	1.69930910e-02	2.27468388e-04
3.00000000e-01	1.70094284e-02	2.26923225e-04
3.00500000e-01	1.70045216e-02	2.26732394e-04
3.01000000e-01	1.71144409e-02	2.27274812e-04
3.01500000e-01	1.69412876e-02	2.25582690e-04
3.02000000e-01	1.69550502e-02	2.25493438e-04
3.02500000e-01	1.71163457e-02	2.27683397e-04
3.03000000e-01	1.68977903e-02	2.24676298e-04
3.03500000e-01	1.69504703e-02	2.24847501e-04
3.04000000e-01	1.69621507e-02	2.24891454e-04
3.04500000e-01	1.71322581e-02	2.26666653e-04
3.05000000e-01	1.70089217e-02	2.25227060e-04
3.05500000e-01	1.69871764e-02	2.24704122e-04
3.06000000e-01	1.68159994e-02	2.20996160e-04
3.06500000e-01	1.71618642e-02	2.26866153e-04
3.07000000e-01	1.69516074e-02	2.23224055e-04
3.07500000e-01	1.70087281e-02	2.23645194e-04
3.08000000e-01	1.69566612e-02	2.22610304e-04
3.08500000e-01	1.68372554e-02	2.21056794e-04
3.09000000e-01	1.68632593e-02	2.21640953e-04
3.09500000e-01	1.68320085e-02	2.20800437e-04
3.10000000e-01	1.67214530e-02	2.19480852e-04
3.10500000e-01	1.70184414e-02	2.23540696e-04
3.11000000e-01	1.69165612e-02	2.21131979e-04
3.11500000e-01	1.68704527e-02	2.20373573e-04
3.12000000e-01	1.66749270e-02	2.17771899e-04
3.12500000e-01	1.67102676e-02	2.17936303e-04
3.13000000e-01	1.68131118e-02	2.19090077e-04
3.13500000e-01	1.67736400e-02	2.18565797e-04
3.14000000e-01	1.67808383e-02	2.19274480e-04
3.14500000e-01	1.66646870e-02	2.17031104e-04
3.15000000e-01	1.66011721e-02	2.16152830e-04
3.15500000e-01	1.66906509e-02	2.17734343e-04
3.16000000e-01	1.67771589e-02	2.18549299e-04
3.16500000e-01	1.66852325e-02	2.16509357e-04
3.17000000e-01	1.66237319e-02	2.15788349e-04
3.17500000e-01	1.67209305e-02	2.16945935e-04
3.18000000e-01	1.67250197e-02	2.16671697e-04
3.18500000e-01	1.66959432e-02	2.16173709e-04
3.19000000e-01	1.67674443e-02	2.16789992e-04
3.19500000e-01	1.66422312e-02	2.14895526e-04
3.20000000e-01	1.66469052e-02	2.16119886e-04
3.20500000e-01	1.66330114e-02	2.14641612e-04
3.21000000e-01	1.66451431e-02	2.14926628e-04
3.21500000e-01	1.68347932e-02	2.16484452e-04
3.22000000e-01	1.65336889e-02	2.13262555e-04
3.22500000e-01	1.66013602e-02	2.13626491e-04
3.23000000e-01	1.64776610e-02	2.11943636e-04
3.23500000e-01	1.66410152e-02	2.14157713e-04
3.24000000e-01	1.64444397e-02	2.11451851e-04
3.24500000e-01	1.64868334e-02	2.12085353e-04
3.25000000e-01	1.64973334e-02	2.11190251e-04
3.25500000e-01	1.64669158e-02	2.10956695e-04
3.26000000e-01	1.63824603e-02	2.09850036e-04
3.26500000e-01	1.64681227e-02	2.10318919e-04
3.27000000e-01	1.64849332e-02	2.11473603e-04
3.27500000e-01	1.62349777e-02	2.07952699e-04
3.28000000e-01	1.64208286e-02	2.10187273e-04
3.28500000e-01	1.63072701e-02	2.08336613e-04
3.29000000e-01	1.65018659e-02	2.10089106e-04
3.29500000e-01	1.66129601e-02	2.11919061e-04
3.30000000e-01	1.63582217e-02	2.08439729e-04
3.30500000e-01	1.64408476e-02	2.09097110e-04
3.31000000e-01	1.65007137e-02	2.09321967e-04
3.31500000e-01	1.64311840e-02	2.09094691e-04
3.32000000e-01	1.63171787e-02	2.07845533e-04
3.32500000e-01	1.65151766e-02	2.09485980e-04
3.33000000e-01	1.63669238e-02	2.07216685e-04
3.33500000e-01	1.65189924e-02	2.08864476e-04
3.34000000e-01	1.63598618e-02	2.08049396e-04
3.34500000e-01	1.63505313e-02	2.07410086e-04
3.35000000e-01	1.64397590e-02	2.07199411e-04
3.35500000e-01	1.63579453e-02	2.07464476e-04
3.36000000e-01	1.63479661e-02	2.06362367e-04
3.36500000e-01	1.64306129e-02	2.07501756e-04
3.37000000e-01	1.63676711e-02	2.06166495e-04
3.37500000e-01	1.61708530e-02	2.03470187e-04
3.38000000e-01	1.63534833e-02	2.06331354e-04
3.38500000e-01	1.62380927e-02	2.03769133e-04
3.39000000e-01	1.62002284e-02	2.04488221e-04
3.39500000e-01	1.64160130e-02	2.06318299e-04
3.40000000e-01	1.64798033e-02	2.06558028e-04
3.40500000e-01	1.64263814e-02	2.06540362e-04
3.41000000e-01	1.61624910e-02	2.02196759e-04
3.41500000e-01	1.61945141e-02	2.03763392e-04
3.42000000e-01	1.62752185e-02	2.03145839e-04
3.42500000e-01	1.62586862e-02	2.04014566e-04
3.43000000e-01	1.62142518e-02	2.02242549e-04
3.43500000e-01	1.62284141e-02	2.02299651e-04
3.44000000e-01	1.62629388e-02	2.03441226e-04
3.44500000e-01	1.60861019e-02	2.01283829e-04
3.45000000e-01	1.61418135e-02	2.01618566e-04
3.45500000e-01	1.63829187e-02	2.04016623e-04
3.46000000e-01	1.61877331e-02	2.02174739e-04
3.46500000e-01	1.60483497e-02	2.00255241e-04
3.47000000e-01	1.60476720e-02	1.99686482e-04
3.47500000e-01	1.61615068e-02	2.00561466e-04
3.48000000e-01	1.61113893e-02	2.00038201e-04
3.48500000e-01	1.61861389e-02	2.01076116e-04
3.49000000e-01	1.61079747e-02	1.99858283e-04
3.49500000e-01	1.60871137e-02	1.99850019e-04
3.50000000e-01	1.60190741e-02	1.62103346e-04
3.51000000e-01	1.59600525e-02	1.39717098e-04
3.52000000e-01	1.60028682e-02	1.39973697e-04
3.53000000e-01	1.61172412e-02	1.40195476e-04
3.54000000e-01	1.60392752e-02	1.39435279e-04
3.55000000e-01	1.59037915e-02	1.38648326e-04
3.56000000e-01	1.59373282e-02	1.39371670e-04
3.57000000e-01	1.59661476e-02	1.42142200e-04
3.58000000e-01	1.59420440e-02	1.43163717e-04
3.59000000e-01	1.59361446e-02	1.43999222e-04
3.60000000e-01	1.58372238e-02	1.43868301e-04
3.61000000e-01	1.59555844e-02	1.45523824e-04
3.62000000e-01	1.57888541e-02	1.44995558e-04
3.63000000e-01	1.58210333e-02	1.45773155e-04
3.64000000e-01	1.57294304e-02	1.45549496e-04
3.65000000e-01	1.57728228e-02	1.45885300e-04
3.66000000e-01	1.58446306e-02	1.45286836e-04
3.67000000e-01	1.58770901e-02	1.43468806e-04
3.68000000e-01	1.59019025e-02	1.42602009e-04
3.69000000e-01	1.57921893e-02	1.41059396e-04
3.70000000e-01	1.57158460e-02	1.39801248e-04
3.71000000e-01	1.57893605e-02	1.41924362e-04
3.72000000e-01	1.57736051e-02	1.43133751e-04
3.73000000e-01	1.57669132e-02	1.43243443e-04
3.74000000e-01	1.57527192e-02	1.43023331e-04
3.75000000e-01	1.57143740e-02	1.42836681e-04
3.76000000e-01	1.57484100e-02	1.43237987e-04
3.77000000e-01	1.56968568e-02	1.42646281e-04
3.78000000e-01	1.57917629e-02	1.43355062e-04
3.79000000e-01	1.57217824e-02	1.42574132e-04
3.80000000e-01	1.56275644e-02	1.41757594e-04
3.81000000e-01	1.56098213e-02	1.41475157e-04
3.82000000e-01	1.55309115e-02	1.41208422e-04
3.83000000e-01	1.56902388e-02	1.42412144e-04
3.84000000e-01	1.56063073e-02	1.41560656e-04
3.85000000e-01	1.54989374e-02	1.40670227e-04
3.86000000e-01	1.56014434e-02	1.41329147e-04
3.87000000e-01	1.54622807e-02	1.40147924e-04
3.88000000e-01	1.54482856e-02	1.40113811e-04
3.89000000e-01	1.55195743e-02	1.40714687e-04
3.90000000e-01	1.55375801e-02	1.40454469e-04
3.91000000e-01	1.53998728e-02	1.39491788e-04
3.92000000e-01	1.54186701e-02	1.39600043e-04
3.93000000e-01	1.54552632e-02	1.39900123e-04
3.94000000e-01	1.53203439e-02	1.38964901e-04
3.95000000e-01	1.54629124e-02	1.39932122e-04
3.96000000e-01	1.53660496e-02	1.39340845e-04
3.97000000e-01	1.55015320e-02	1.39974490e-04
3.98000000e-01	1.55187607e-02	1.40477582e-04
3.99000000e-01	1.53395251e-02	1.39031694e-04
4.00000000e-01	1.51898096e-02	1.37484816e-04
4.01000000e-01	1.52566021e-02	1.37963144e-04
4.02000000e-01	1.53793799e-02	1.39059256e-04
4.03000000e-01	1.53062224e-02	1.38680965e-04
4.04000000e-01	1.52262572e-02	1.37920701e-04
4.05000000e-01	1.52158770e-02	1.37546399e-04
4.06000000e-01	1.53343883e-02	1.38605335e-04
4.07000000e-01	1.52089631e-02	1.37434944e-04
4.08000000e-01	1.50792808e-02	1.36259173e-04
4.09000000e-01	1.52526980e-02	1.37663517e-04
4.10000000e-01	1.52034217e-02	1.37282663e-04
4.11000000e-01	1.51304341e-02	1.36717032e-04
4.12000000e-01	1.51827228e-02	1.37063849e-04
4.13000000e-01	1.50387925e-02	1.36040122e-04
4.14000000e-01	1.51549026e-02	1.36485000e-04
4.15000000e-01	1.52022996e-02	1.37231731e-04
4.16000000e-01	1.52773572e-02	1.37179258e-04
4.17000000e-01	1.50602648e-02	1.36249749e-04
4.18000000e-01	1.52474417e-02	1.38778562e-04
4.19000000e-01	1.51301104e-02	1.39381651e-04
4.20000000e-01	1.53738265e-02	1.42018656e-04
4.21000000e-01	1.51375115e-02	1.40988193e-04
4.22000000e-01	1.53902104e-02	1.43334361e-04
4.23000000e-01	1.50662710e-02	1.41216091e-04
4.24000000e-01	1.52024715e-02	1.42625144e-04
4.25000000e-01	1.51917301e-02	1.42710984e-04
4.26000000e-01	1.51426222e-02	1.42258459e-04
4.27000000e-01	1.51793450e-02	1.42630103e-04
4.28000000e-01	1.51153128e-02	1.42284461e-04
4.29000000e-01	1.51094329e-02	1.42753478e-04
4.30000000e-01	1.51668356e-02	1.43098183e-04
4.31000000e-01	1.51370745e-02	1.42320047e-04
4.32000000e-01	1.51703007e-02	1.43167548e-04
4.33000000e-01	1.51839514e-02	1.43166992e-04
4.34000000e-01	1.49740138e-02	1.41587060e-04
4.35000000e-01	1.49918815e-02	1.41743244e-04
4.36000000e-01	1.51836820e-02	1.43875844e-04
4.37000000e-01	1.51316587e-02	1.43596792e-04
4.38000000e-01	1.49114555e-02	1.42036210e-04
4.39000000e-01	1.51013615e-02	1.44324884e-04
4.40000000e-01	1.50096150e-02	1.42862094e-04
4.41000000e-01	1.49117688e-02	1.42420162e-04
4.42000000e-01	1.49921235e-02	1.43135967e-04
4.43000000e-01	1.48368761e-02	1.41774075e-04
4.44000000e-01	1.49521546e-02	1.43303892e-04
4.45000000e-01	1.51422359e-02	1.44780421e-04
4.46000000e-01	1.48618197e-02	1.42637663e-04
4.47000000e-01	1.49734514e-02	1.43864311e-04
4.48000000e-01	1.48963158e-02	1.43417391e-04
4.49000000e-01	1.48771086e-02	1.43286344e-04
4.50000000e-01	1.48866655e-02	1.43460052e-04
4.51000000e-01	1.49642771e-02	1.44421361e-04
4.52000000e-01	1.49445280e-02	1.44386012e-04
4.53000000e-01	1.47265355e-02	1.42436389e-04
4.54000000e-01	1.48110839e-02	1.43574866e-04
4.55000000e-01	1.49539108e-02	1.44969997e-04
4.56000000e-01	1.49785886e-02	1.45089189e-04
4.57000000e-01	1.48232590e-02	1.43582494e-04
4.58000000e-01	1.48623599e-02	1.44331847e-04
4.59000000e-01	1.48098147e-02	1.43993723e-04
4.60000000e-01	1.48189110e-02	1.44209434e-04
4.61000000e-01	1.49121183e-02	1.45287264e-04
4.62000000e-01	1.47197944e-02	1.43395568e-04
4.63000000e-01	1.48584760e-02	1.44971065e-04
4.64000000e-01	1.47730514e-02	1.44293691e-04
4.65000000e-01	1.48062305e-02	1.44643035e-04
4.66000000e-01	1.47385706e-02	1.43875742e-04
4.67000000e-01	1.47582978e-02	1.44120222e-04
4.68000000e-01	1.47726090e-02	1.44238585e-04
4.69000000e-01	1.47164388e-02	1.44011887e-04
4.70000000e-01	1.46308599e-02	1.43886066e-04
4.71000000e-01	1.48400044e-02	1.45395269e-04
4.72000000e-01	1.46247802e-02	1.43184370e-04
4.73000000e-01	1.47918889e-02	1.44486918e-04
4.74000000e-01	1.44551148e-02	1.41497326e-04
4.75000000e-01	1.45335773e-02	1.42345321e-04
4.76000000e-01	1.46585281e-02	1.43225884e-04
4.77000000e-01	1.46021282e-02	1.43299736e-04
4.78000000e-01	1.45923487e-02	1.43053038e-04
4.79000000e-01	1.46960797e-02	1.43683143e-04
4.80000000e-01	1.44462665e-02	1.41858641e-04
4.81000000e-01	1.45980475e-02	1.43509101e-04
4.82000000e-01	1.46101242e-02	1.43333351e-04
4.83000000e-01	1.45481152e-02	1.42731942e-04
4.84000000e-01	1.45582129e-02	1.43017400e-04
4.85000000e-01	1.45440799e-02	1.43246970e-04
4.86000000e-01	1.45539835e-02	1.43288239e-04
4.87000000e-01	1.45062610e-02	1.42824145e-04
4.88000000e-01	1.46031712e-02	1.43820811e-04
4.89000000e-01	1.44688919e-02	1.42813664e-04
4.90000000e-01	1.45497269e-02	1.43271155e-04
4.91000000e-01	1.44918610e-02	1.43049612e-04
4.92000000e-01	1.45759070e-02	1.43990424e-04
4.93000000e-01	1.44566218e-02	1.42849701e-04
4.94000000e-01	1.44683994e-02	1.43147768e-04
4.95000000e-01	1.45895203e-02	1.45191228e-04
4.96000000e-01	1.44694961e-02	1.48322635e-04
4.97000000e-01	1.45321722e-02	1.51219174e-04
4.98000000e-01	1.44799932e-02	1.53085425e-04
4.99000000e-01	1.45005707e-02	1.54943587e-04
5.00000000e-01	1.44709350e-02	1.56447470e-04
5.01000000e-01	1.44012943e-02	1.57649716e-04
5.02000000e-01	1.45731430e-02	1.60823594e-04
5.03000000e-01	1.45915184e-02	1.62576195e-04
5.04000000e-01	1.44383116e-02	1.62440652e-04
5.05000000e-01	1.44140135e-02	1.59329154e-04
5.06000000e-01	1.44661671e-02	1.56372970e-04
5.07000000e-01	1.46291748e-02	1.56447313e-04
5.08000000e-01	1.44179423e-02	1.53113015e-04
5.09000000e-01	1.43706668e-02	1.52453813e-04
5.10000000e-01	1.44100895e-02	1.52526292e-04
5.11000000e-01	1.44576398e-02	1.51951361e-04
5.12000000e-01	1.42144461e-02	1.49573327e-04
5.13000000e-01	1.45912535e-02	1.53093723e-04
5.14000000e-01	1.43337051e-02	1.49997678e-04
5.15000000e-01	1.43840761e-02	1.50203960e-04
5.16000000e-01	1.42429627e-02	1.48673987e-04
5.17000000e-01	1.42316626e-02	1.48118715e-04
5.18000000e-01	1.43484729e-02	1.49020494e-04
5.19000000e-01	1.42655853e-02	1.47700266e-04
5.20000000e-01	1.42383391e-02	1.47287428e-04
5.21000000e-01	1.43403927e-02	1.48164793e-04
5.22000000e-01	1.42455865e-02	1.46741122e-04
5.23000000e-01	1.43981818e-02	1.48254091e-04
5.24000000e-01	1.43851112e-02	1.48491756e-04
5.25000000e-01	1.43957503e-02	1.48160588e-04
5.26000000e-01	1.41968343e-02	1.46596067e-04
5.27000000e-01	1.43847117e-02	1.47909240e-04
5.28000000e-01	1.42710822e-02	1.47169173e-04
5.29000000e-01	1.42198970e-02	1.46975661e-04
5.30000000e-01	1.42529705e-02	1.46549820e-04
5.31000000e-01	1.40583052e-02	1.45078098e-04
5.32000000e-01	1.41514609e-02	1.45963020e-04
5.33000000e-01	1.43323595e-02	1.47272404e-04
5.34000000e-01	1.40660703e-02	1.44679562e-04
5.35000000e-01	1.42327015e-02	1.46414504e-04
5.36000000e-01	1.40666174e-02	1.45349136e-04
5.37000000e-01	1.41718761e-02	1.46506789e-04
5.38000000e-01	1.41215356e-02	1.45574860e-04
5.39000000e-01	1.41127546e-02	1.45618349e-04
5.40000000e-01	1.40612096e-02	1.45206377e-04
5.41000000e-01	1.41003730e-02	1.45390440e-04
5.42000000e-01	1.40498124e-02	1.45417143e-04
5.43000000e-01	1.40232103e-02	1.44288186e-04
5.44000000e-01	1.40872121e-02	1.45184724e-04
5.45000000e-01	1.40294731e-02	1.44995796e-04
5.46000000e-01	1.40324710e-02	1.44427154e-04
5.47000000e-01	1.41078035e-02	1.45290228e-04
5.48000000e-01	1.40188610e-02	1.44642093e-04
5.49000000e-01	1.41328345e-02	1.45104970e-04
5.50000000e-01	1.40357591e-02	1.44495393e-04
5.51000000e-01	1.39271185e-02	1.42913909e-04
5.52000000e-01	1.40350203e-02	1.44376291e-04
5.53000000e-01	1.39524450e-02	1.43279061e-04
5.54000000e-01	1.39322218e-02	1.43341561e-04
5.55000000e-01	1.39753490e-02	1.43122035e-04
5.56000000e-01	1.38072447e-02	1.41783942e-04
5.57000000e-01	1.39645403e-02	1.43419602e-04
5.58000000e-01	1.37772640e-02	1.41268131e-04
5.59000000e-01	1.38091556e-02	1.42260365e-04
5.60000000e-01	1.38659105e-02	1.42338117e-04
5.61000000e-01	1.38640819e-02	1.41995879e-04
5.62000000e-01	1.38042013e-02	1.41384163e-04
5.63000000e-01	1.39174985e-02	1.42890142e-04
5.64000000e-01	1.39752158e-02	1.43112293e-04
5.65000000e-01	1.39098875e-02	1.42266746e-04
5.66000000e-01	1.38606036e-02	1.41865517e-04
5.67000000e-01	1.38205082e-02	1.42146582e-04
5.68000000e-01	1.37871208e-02	1.41489176e-04
5.69000000e-01	1.37052952e-02	1.40579273e-04
5.70000000e-01	1.37291563e-02	1.40799379e-04
5.71000000e-01	1.38027681e-02	1.41752516e-04
5.72000000e-01	1.38358057e-02	1.41659474e-04
5.73000000e-01	1.38202944e-02	1.41796609e-04
5.74000000e-01	1.37280871e-02	1.40481990e-04
5.75000000e-01	1.36790662e-02	1.40748757e-04
5.76000000e-01	1.38935743e-02	1.42516384e-04
5.77000000e-01	1.36086314e-02	1.40178249e-04
5.78000000e-01	1.36430666e-02	1.40456212e-04
5.79000000e-01	1.38127878e-02	1.42359456e-04
5.80000000e-01	1.36545079e-02	1.40416195e-04
5.81000000e-01	1.36764560e-02	1.40447038e-04
5.82000000e-01	1.35093289e-02	1.39053094e-04
5.83000000e-01	1.35576014e-02	1.39619568e-04
5.84000000e-01	1.36976280e-02	1.40740107e-04
5.85000000e-01	1.37780623e-02	1.41624106e-04
5.86000000e-01	1.35334287e-02	1.39957331e-04
5.87000000e-01	1.37601887e-02	1.42054093e-04
5.88000000e-01	1.35179776e-02	1.39289099e-04
5.89000000e-01	1.35609117e-02	1.39912321e-04
5.90000000e-01	1.35261330e-02	1.39605803e-04
5.91000000e-01	1.35557329e-02	1.40202056e-04
5.92000000e-01	1.35949870e-02	1.40305329e-04
5.93000000e-01	1.35081852e-02	1.39108583e-04
5.94000000e-01	1.33798105e-02	1.38422073e-04
5.95000000e-01	1.35364064e-02	1.39968957e-04
5.96000000e-01	1.34781202e-02	1.39024806e-04
5.97000000e-01	1.36017376e-02	1.40302934e-04
5.98000000e-01	1.34269833e-02	1.38789896e-04
5.99000000e-01	1.34375826e-02	1.39463434e-04
6.00000000e-01	1.35689295e-02	1.39807170e-04
6.01000000e-01	1.35520113e-02	1.40279746e-04
6.02000000e-01	1.34931507e-02	1.39539255e-04
6.03000000e-01	1.36351308e-02	1.40870745e-04
6.04000000e-01	1.34915332e-02	1.39557836e-04
6.05000000e-01	1.34685433e-02	1.39203027e-04
6.06000000e-01	1.34776097e-02	1.39606022e-04
6.07000000e-01	1.34700427e-02	1.38939869e-04
6.08000000e-01	1.34492314e-02	1.39297998e-04
6.09000000e-01	1.35025730e-02	1.39571141e-04
6.10000000e-01	1.32154697e-02	1.37171557e-04
6.11000000e-01	1.33647430e-02	1.38031241e-04
6.12000000e-01	1.34936120e-02	1.39735290e-04
6.13000000e-01	1.33198058e-02	1.38215790e-04
6.14000000e-01	1.33349068e-02	1.37955014e-04
6.15000000e-01	1.33460695e-02	1.38549796e-04
6.16000000e-01	1.33450141e-02	1.38086356e-04
6.17000000e-01	1.33854998e-02	1.38475159e-04
6.18000000e-01	1.34055026e-02	1.38973885e-04
6.19000000e-01	1.33274938e-02	1.37467187e-04
6.20000000e-01	1.33300551e-02	1.38083083e-04
6.21000000e-01	1.32892872e-02	1.37045785e-04
6.22000000e-01	1.32560800e-02	1.37088519e-04
6.23000000e-01	1.32673508e-02	1.36799742e-04
6.24000000e-01	1.32771800e-02	1.36331733e-04
6.25000000e-01	1.32118155e-02	1.35950072e-04
6.26000000e-01	1.34595517e-02	1.38271622e-04
6.27000000e-01	1.33238500e-02	1.37095409e-04
6.28000000e-01	1.32644284e-02	1.36683350e-04
6.29000000e-01	1.32550610e-02	1.35767367e-04
6.30000000e-01	1.33752464e-02	1.37453621e-04
6.31000000e-01	1.32217429e-02	1.36160950e-04
6.32000000e-01	1.32876272e-02	1.36997343e-04
6.33000000e-01	1.33299939e-02	1.37230626e-04
6.34000000e-01	1.31350685e-02	1.38855813e-04
6.35000000e-01	1.32166216e-02	1.43770362e-04
6.36000000e-01	1.31515537e-02	1.45439407e-04
6.37000000e-01	1.31561828e-02	1.48003394e-04
6.38000000e-01	1.32252533e-02	1.50418311e-04
6.39000000e-01	1.31516706e-02	1.51403844e-04
6.40000000e-01	1.32908082e-02	1.54868406e-04
6.41000000e-01	1.32644082e-02	1.56417817e-04
6.42000000e-01	1.33211530e-02	1.59601054e-04
6.43000000e-01	1.33248503e-02	1.59146666e-04
6.44000000e-01	1.32160707e-02	1.51619083e-04
6.45000000e-01	1.32957089e-02	1.50141916e-04
6.46000000e-01	1.33034266e-02	1.49445541e-04
6.47000000e-01	1.33940435e-02	1.48731906e-04
6.48000000e-01	1.32716649e-02	1.46781280e-04
6.49000000e-01	1.33520848e-02	1.46934095e-04
6.50000000e-01	1.32248748e-02	1.44757418e-04
6.51000000e-01	1.31418229e-02	1.43434226e-04
6.52000000e-01	1.32884361e-02	1.44172075e-04
6.53000000e-01	1.32840358e-02	1.43756857e-04
6.54000000e-01	1.32952781e-02	1.43512063e-04
6.55000000e-01	1.31347832e-02	1.41787345e-04
6.56000000e-01	1.32388966e-02	1.42434182e-04
6.57000000e-01	1.31543490e-02	1.41748120e-04
6.58000000e-01	1.30902844e-02	1.40472358e-04
6.59000000e-01	1.32552117e-02	1.41753171e-04
6.60000000e-01	1.32519675e-02	1.42285082e-04
6.61000000e-01	1.32395886e-02	1.41137962e-04
6.62000000e-01	1.31689580e-02	1.41078502e-04
6.63000000e-01	1.32978347e-02	1.42288572e-04
6.64000000e-01	1.31799766e-02	1.41040970e-04
6.65000000e-01	1.32142612e-02	1.41581484e-04
6.66000000e-01	1.31546898e-02	1.40688671e-04
6.67000000e-01	1.30651043e-02	1.39433019e-04
6.68000000e-01	1.31345662e-02	1.40364404e-04
6.69000000e-01	1.30633268e-02	1.39510191e-04
6.70000000e-01	1.31469732e-02	1.40607234e-04
6.71000000e-01	1.29323833e-02	1.38317721e-04
6.72000000e-01	1.30240477e-02	1.39053707e-04
6.73000000e-01	1.31478850e-02	1.40075384e-04
6.74000000e-01	1.30948702e-02	1.39347510e-04
6.75000000e-01	1.31180662e-02	1.39658784e-04
6.76000000e-01	1.30725535e-02	1.39527707e-04
6.77000000e-01	1.31014916e-02	1.38999405e-04
6.78000000e-01	1.31046732e-02	1.39442334e-04
6.79000000e-01	1.30883125e-02	1.39416159e-04
6.80000000e-01	1.29289042e-02	1.37922106e-04
6.81000000e-01	1.28881084e-02	1.37437534e-04
6.82000000e-01	1.29435704e-02	1.37914570e-04
6.83000000e-01	1.29618889e-02	1.37840230e-04
6.84000000e-01	1.29458037e-02	1.37468046e-04
6.85000000e-01	1.28861052e-02	1.37056739e-04
6.86000000e-01	1.30809228e-02	1.38804118e-04
6.87000000e-01	1.30143786e-02	1.38031383e-04
6.88000000e-01	1.30198619e-02	1.38637682e-04
6.89000000e-01	1.30389730e-02	1.38649926e-04
6.90000000e-01	1.28267726e-02	1.36606299e-04
6.91000000e-01	1.29780770e-02	1.37839319e-04
6.92000000e-01	1.30538788e-02	1.38870949e-04
6.93000000e-01	1.30074150e-02	1.38717341e-04
6.94000000e-01	1.29165680e-02	1.37195913e-04
6.95000000e-01	1.29792328e-02	1.37483571e-04
6.96000000e-01	1.29321072e-02	1.37506250e-04
6.97000000e-01	1.28153259e-02	1.35923783e-04
6.98000000e-01	1.28286713e-02	1.36163438e-04
6.99000000e-01	1.27815437e-02	1.36276877e-04
7.00000000e-01	1.29570685e-02	1.37827982e-04
7.01000000e-01	1.28719175e-02	1.36799047e-04
7.02000000e-01	1.29281893e-02	1.36685435e-04
7.03000000e-01	1.27874687e-02	1.36105704e-04
7.04000000e-01	1.27315140e-02	1.35359422e-04
7.05000000e-01	1.28709009e-02	1.36926472e-04
7.06000000e-01	1.28518774e-02	1.36643301e-04
7.07000000e-01	1.26338383e-02	1.34004904e-04
7.08000000e-01	1.27272353e-02	1.34887358e-04
7.09000000e-01	1.27525256e-02	1.34980011e-04
7.10000000e-01	1.27277448e-02	1.34858306e-04
7.11000000e-01	1.26985450e-02	1.35321726e-04
7.12000000e-01	1.27094737e-02	1.34966058e-04
7.13000000e-01	1.26798256e-02	1.34499700e-04
7.14000000e-01	1.26271729e-02	1.34463904e-04
7.15000000e-01	1.26883938e-02	1.34678403e-04
7.16000000e-01	1.27554628e-02	1.35543423e-04
7.17000000e-01	1.26553908e-02	1.34305201e-04
7.18000000e-01	1.26486408e-02	1.34250459e-04
7.19000000e-01	1.25894157e-02	1.33656965e-04
7.20000000e-01	1.26154985e-02	1.34117789e-04
7.21000000e-01	1.25689248e-02	1.33591692e-04
7.22000000e-01	1.26203648e-02	1.34007043e-04
7.23000000e-01	1.25105862e-02	1.33021454e-04
7.24000000e-01	1.25790271e-02	1.33937681e-04
7.25000000e-01	1.25522516e-02	1.33591151e-04
7.26000000e-01	1.25887271e-02	1.33648569e-04
7.27000000e-01	1.25498952e-02	1.33565013e-04
7.28000000e-01	1.24961590e-02	1.33033537e-04
7.29000000e-01	1.25417561e-02	1.33117455e-04
7.30000000e-01	1.25275830e-02	1.33787370e-04
7.31000000e-01	1.24917589e-02	1.33183052e-04
7.32000000e-01	1.24160062e-02	1.31754732e-04
7.33000000e-01	1.25691184e-02	1.33429819e-04
7.34000000e-01	1.25109032e-02	1.33319688e-04
7.35000000e-01	1.25172962e-02	1.32851750e-04
7.36000000e-01	1.25384074e-02	1.32827629e-04
7.37000000e-01	1.24873369e-02	1.32121327e-04
7.38000000e-01	1.24461825e-02	1.31469242e-04
7.39000000e-01	1.23787122e-02	1.30036133e-04
7.40000000e-01	1.24595772e-02	1.31001005e-04
7.41000000e-01	1.23991475e-02	1.31085891e-04
7.42000000e-01	1.23623391e-02	1.29931134e-04
7.43000000e-01	1.23315775e-02	1.30244604e-04
7.44000000e-01	1.24076045e-02	1.30739072e-04
7.45000000e-01	1.22350727e-02	1.29524890e-04
7.46000000e-01	1.22425857e-02	1.29012802e-04
7.47000000e-01	1.24296879e-02	1.30625088e-04
7.48000000e-01	1.22870403e-02	1.29630281e-04
7.49000000e-01	1.23953038e-02	1.30485583e-04
7.50000000e-01	1.22837378e-02	1.29052622e-04
7.51000000e-01	1.23009449e-02	1.29656298e-04
7.52000000e-01	1.24326261e-02	1.30864828e-04
7.53000000e-01	1.23071315e-02	1.30152854e-04
7.54000000e-01	1.22032686e-02	1.28326564e-04
7.55000000e-01	1.22765464e-02	1.29426058e-04
7.56000000e-01	1.21696321e-02	1.28239482e-04
7.57000000e-01	1.22681393e-02	1.29881174e-04
7.58000000e-01	1.20937618e-02	1.27725982e-04
7.59000000e-01	1.22060967e-02	1.28711610e-04
7.60000000e-01	1.22576153e-02	1.29002738e-04
7.61000000e-01	1.21878521e-02	1.28772691e-04
7.62000000e-01	1.21538318e-02	1.27454330e-04
7.63000000e-01	1.20976012e-02	1.26864652e-04
7.64000000e-01	1.21402166e-02	1.26775430e-04
7.65000000e-01	1.21982107e-02	1.27637667e-04
7.66000000e-01	1.21573482e-02	1.26854576e-04
7.67000000e-01	1.20485236e-02	1.26039646e-04
7.68000000e-01	1.20611053e-02	1.26386528e-04
7.69000000e-01	1.20149720e-02	1.25754607e-04
7.70000000e-01	1.20986460e-02	1.26460973e-04
7.71000000e-01	1.20998409e-02	1.26154663e-04
7.72000000e-01	1.20341413e-02	1.29670679e-04
7.73000000e-01	1.21498747e-02	1.35281247e-04
7.74000000e-01	1.20536924e-02	1.36910009e-04
7.75000000e-01	1.20275299e-02	1.39173278e-04
7.76000000e-01	1.21372568e-02	1.42515409e-04
7.77000000e-01	1.20012871e-02	1.43277037e-04
7.78000000e-01	1.20219068e-02	1.45292983e-04
7.79000000e-01	1.20787972e-02	1.46392211e-04
7.80000000e-01	1.18956754e-02	1.47302748e-04
7.81000000e-01	1.20139003e-02	1.49842997e-04
7.82000000e-01	1.19239478e-02	1.50481497e-04
7.83000000e-01	1.18985382e-02	1.51728775e-04
7.84000000e-01	1.20722197e-02	1.55847710e-04
7.85000000e-01	1.18905665e-02	1.55407308e-04
7.86000000e-01	1.17904947e-02	1.55600668e-04
7.87000000e-01	1.18591143e-02	1.57600732e-04
7.88000000e-01	1.18917759e-02	1.59578746e-04
7.89000000e-01	1.18456290e-02	1.60890017e-04
7.90000000e-01	1.19395464e-02	1.62518604e-04
7.91000000e-01	1.17713283e-02	1.63215129e-04
7.92000000e-01	1.18853643e-02	1.66448180e-04
7.93000000e-01	1.19362616e-02	1.68028191e-04
7.94000000e-01	1.17902805e-02	1.68825051e-04
7.95000000e-01	1.18641326e-02	1.71419235e-04
7.96000000e-01	1.18107303e-02	1.71906278e-04
7.97000000e-01	1.18096442e-02	1.73971578e-04
7.98000000e-01	1.16885641e-02	1.74132873e-04
7.99000000e-01	1.18794283e-02	1.78500221e-04
8.00000000e-01	1.18203664e-02	1.79508079e-04
8.01000000e-01	1.17356845e-02	1.79869257e-04
8.02000000e-01	1.16803290e-02	1.80827788e-04
8.03000000e-01	1.16636162e-02	1.83732970e-04
8.04000000e-01	1.15371724e-02	1.82467680e-04
8.05000000e-01	1.18892870e-02	1.89514905e-04
8.06000000e-01	1.16711954e-02	1.89055599e-04
8.07000000e-01	1.17089480e-02	1.91337636e-04
8.08000000e-01	1.15374013e-02	1.90676864e-04
8.09000000e-01	1.16660378e-02	1.96043106e-04
8.10000000e-01	1.16714660e-02	1.97634302e-04
8.11000000e-01	1.15680944e-02	1.98285348e-04
8.12000000e-01	1.15552356e-02	1.99676100e-04
8.13000000e-01	1.17474496e-02	2.05718352e-04
8.14000000e-01	1.15157180e-02	2.03872802e-04
8.15000000e-01	1.16166173e-02	2.08590943e-04
8.16000000e-01	1.14705088e-02	2.08051199e-04
8.17000000e-01	1.16924498e-02	2.13134557e-04
8.18000000e-01	1.14621625e-02	2.11865924e-04
8.19000000e-01	1.13279012e-02	2.13785960e-04
8.20000000e-01	1.16991010e-02	2.22750769e-04
8.21000000e-01	1.13099876e-02	2.18951448e-04
8.22000000e-01	1.16009729e-02	2.26895888e-04
8.23000000e-01	1.13983633e-02	2.26649372e-04
8.24000000e-01	1.14218205e-02	2.28719038e-04
8.25000000e-01	1.12794697e-02	2.29838046e-04
8.26000000e-01	1.11289141e-02	2.31836936e-04
8.27000000e-01	1.14882398e-02	2.39961481e-04
8.28000000e-01	1.12683644e-02	2.42088718e-04
8.29000000e-01	1.11183024e-02	2.41869902e-04
8.30000000e-01	1.11262930e-02	2.46707475e-04
8.31000000e-01	1.16327702e-02	2.59544384e-04
8.32000000e-01	1.13223979e-02	2.58590781e-04
8.33000000e-01	1.11956650e-02	2.57415563e-04
8.34000000e-01	1.13810119e-02	2.67610694e-04
8.35000000e-01	1.11873211e-02	2.67328534e-04
8.36000000e-01	1.11892359e-02	2.75197092e-04
8.37000000e-01	1.15327173e-02	2.84800329e-04
8.38000000e-01	1.09284032e-02	2.77497588e-04
8.39000000e-01	1.07797255e-02	2.80672517e-04
8.40000000e-01	1.11645777e-02	2.94613422e-04
8.41000000e-01	1.11217576e-02	3.03068058e-04
8.42000000e-01	1.13641525e-02	3.14290119e-04
8.43000000e-01	1.09854612e-02	3.10586986e-04
8.44000000e-01	1.12380234e-02	3.23418108e-04
8.45000000e-01	1.12222815e-02	3.34647558e-04
8.46000000e-01	1.10908038e-02	3.39907676e-04
8.47000000e-01	1.09741244e-02	3.48035830e-04
8.48000000e-01	1.12205454e-02	3.64864822e-04
8.49000000e-01	1.09813953e-02	3.67153248e-04
8.50000000e-01	1.11475467e-02	3.85680093e-04
8.51000000e-01	1.07257599e-02	3.88208490e-04
8.52000000e-01	1.10023894e-02	4.10560272e-04
8.53000000e-01	1.07379941e-02	4.20060484e-04
8.54000000e-01	1.09002921e-02	4.47186531e-04
8.55000000e-01	1.06170239e-02	4.52198200e-04
8.56000000e-01	1.11919808e-02	4.86468276e-04
8.57000000e-01	1.07340943e-02	4.89364679e-04
8.58000000e-01	1.08628474e-02	5.01233462e-04
8.59000000e-01	1.07557637e-02	5.03806509e-04
8.60000000e-01	1.07598610e-02	5.37493925e-04
8.61000000e-01	1.07983272e-02	5.46991455e-04
8.62000000e-01	1.06340971e-02	5.62562812e-04
8.63000000e-01	1.09511680e-02	6.00036793e-04
8.64000000e-01	1.08828869e-02	6.18243166e-04
8.65000000e-01	1.05467113e-02	6.24689995e-04
8.66000000e-01	1.04178226e-02	6.61340230e-04
8.67000000e-01	1.03976828e-02	6.99924384e-04
8.68000000e-01	1.05294784e-02	7.48709612e-04
8.69000000e-01	1.01917358e-02	7.81280433e-04
8.70000000e-01	1.04546504e-02	8.39728193e-04
8.71000000e-01	1.00930989e-02	9.30724465e-04
8.72000000e-01	1.00218344e-02	1.01373098e-03
8.73000000e-01	1.01069087e-02	1.19487846e-03
8.74000000e-01	1.06879110e-02	1.71558319e-03
8.75000000e-01	1.10667312e-02	3.61170134e-03
