% Filename : SEC8_00040_00018.h5
% Date & Time : 30-Oct-2025 17:52:04
% X-ray Energy (keV) : 13.30001
% Exposure Time (s) : 0.500
% Beam Center : 1461.24000, 208.98300
% Sample to Detector Distance (SDD) (mm) : 1990.750
% Detector Pixel Size (mm) : 0.075
% Photodiode Value : 141455.000
% I0 of Sample : 0
% I0 of Standard : 1
% 
% q(A^-1)   I(q)    I(q)_SE
0.00000000e+00	1.40492416e-02	7.33696792e-03
2.50000000e-04	0.00000000e+00	0.00000000e+00
5.00000000e-04	0.00000000e+00	0.00000000e+00
7.50000000e-04	0.00000000e+00	0.00000000e+00
1.00000000e-03	0.00000000e+00	0.00000000e+00
1.25000000e-03	0.00000000e+00	0.00000000e+00
1.50000000e-03	0.00000000e+00	0.00000000e+00
1.75000000e-03	0.00000000e+00	0.00000000e+00
2.00000000e-03	0.00000000e+00	0.00000000e+00
2.25000000e-03	0.00000000e+00	0.00000000e+00
2.50000000e-03	0.00000000e+00	0.00000000e+00
2.75000000e-03	0.00000000e+00	0.00000000e+00
3.00000000e-03	0.00000000e+00	0.00000000e+00
3.25000000e-03	9.57921737e+02	5.64128662e+02
3.50000000e-03	3.14668792e+02	1.00884061e+02
3.75000000e-03	2.18329518e+02	5.66872069e+01
4.00000000e-03	1.75880029e+02	4.15376334e+01
4.25000000e-03	1.03505350e+02	1.91274197e+01
4.50000000e-03	9.73653295e+01	1.68710517e+01
4.75000000e-03	8.86195269e+01	1.37075198e+01
5.00000000e-03	6.95277269e+01	1.01519721e+01
5.25000000e-03	5.82893071e+01	8.33544530e+00
5.50000000e-03	4.78077917e+01	6.51399704e+00
5.75000000e-03	4.09472327e+01	5.47890818e+00
6.00000000e-03	3.34244256e+01	4.27242488e+00
6.25000000e-03	2.80337208e+01	3.42877464e+00
6.50000000e-03	2.39793364e+01	2.84877032e+00
6.75000000e-03	2.11550371e+01	2.50455272e+00
7.00000000e-03	1.86327953e+01	2.17063901e+00
7.25000000e-03	1.61664489e+01	1.82824682e+00
7.50000000e-03	1.42605818e+01	1.62188531e+00
7.75000000e-03	1.25743355e+01	1.35964416e+00
8.00000000e-03	1.15593726e+01	1.23794288e+00
8.25000000e-03	1.01405670e+01	1.04543353e+00
8.50000000e-03	9.13335642e+00	9.15446428e-01
8.75000000e-03	8.29193298e+00	8.26019308e-01
9.00000000e-03	7.42030489e+00	7.24338673e-01
9.25000000e-03	6.65386505e+00	6.29062740e-01
9.50000000e-03	5.93939595e+00	5.55674714e-01
9.75000000e-03	5.43512073e+00	4.96491468e-01
1.00000000e-02	4.82241155e+00	4.26213556e-01
1.02500000e-02	4.47990155e+00	4.01524183e-01
1.05000000e-02	4.12758130e+00	3.49208496e-01
1.07500000e-02	3.80735061e+00	3.25707240e-01
1.10000000e-02	3.46398157e+00	2.86228441e-01
1.12500000e-02	3.21786715e+00	2.69853574e-01
1.15000000e-02	3.01093900e+00	2.50076288e-01
1.17500000e-02	2.67058167e+00	2.12835148e-01
1.20000000e-02	2.57833724e+00	2.06543777e-01
1.22500000e-02	2.36638624e+00	1.85597331e-01
1.25000000e-02	2.22517713e+00	1.72505873e-01
1.27500000e-02	2.05119403e+00	1.55886343e-01
1.30000000e-02	1.92267143e+00	1.42945634e-01
1.32500000e-02	1.77615947e+00	1.29850043e-01
1.35000000e-02	1.69684703e+00	1.25639260e-01
1.37500000e-02	1.59576398e+00	1.15678232e-01
1.40000000e-02	1.47766634e+00	1.06140718e-01
1.42500000e-02	1.38350739e+00	9.72703507e-02
1.45000000e-02	1.32043830e+00	9.23931058e-02
1.47500000e-02	1.23681026e+00	8.65121194e-02
1.50000000e-02	1.17972713e+00	8.17920454e-02
1.52500000e-02	1.11203381e+00	7.57013635e-02
1.55000000e-02	1.04243264e+00	6.94777577e-02
1.57500000e-02	9.86865946e-01	6.54500107e-02
1.60000000e-02	9.38031310e-01	6.14430065e-02
1.62500000e-02	8.96034911e-01	5.92203373e-02
1.65000000e-02	8.41737194e-01	5.47903284e-02
1.67500000e-02	7.99965178e-01	5.11006795e-02
1.70000000e-02	7.58098899e-01	4.83400856e-02
1.72500000e-02	7.23735261e-01	4.59119990e-02
1.75000000e-02	6.81049701e-01	4.27417336e-02
1.77500000e-02	6.47179346e-01	3.97697972e-02
1.80000000e-02	6.25340406e-01	3.85746973e-02
1.82500000e-02	5.85190647e-01	3.48639662e-02
1.85000000e-02	5.59439993e-01	3.41053602e-02
1.87500000e-02	5.34680251e-01	3.17881369e-02
1.90000000e-02	5.09941827e-01	3.05188468e-02
1.92500000e-02	4.90914665e-01	2.83446949e-02
1.95000000e-02	4.60538032e-01	2.63794063e-02
1.97500000e-02	4.55417910e-01	2.64938750e-02
2.00000000e-02	4.20357372e-01	2.39681611e-02
2.02500000e-02	4.04230117e-01	2.27983303e-02
2.05000000e-02	3.88817742e-01	2.15447474e-02
2.07500000e-02	3.72704133e-01	2.07412185e-02
2.10000000e-02	3.59030808e-01	2.00843832e-02
2.12500000e-02	3.48707982e-01	1.94495381e-02
2.15000000e-02	3.33120513e-01	1.83331032e-02
2.17500000e-02	3.24448911e-01	1.79209597e-02
2.20000000e-02	3.09303802e-01	1.71916764e-02
2.22500000e-02	2.96025965e-01	1.62576999e-02
2.25000000e-02	2.93518750e-01	1.62629427e-02
2.27500000e-02	2.77439358e-01	1.50969958e-02
2.30000000e-02	2.69216076e-01	1.47286115e-02
2.32500000e-02	2.58158500e-01	1.39252188e-02
2.35000000e-02	2.53673405e-01	1.38561206e-02
2.37500000e-02	2.41694213e-01	1.29925547e-02
2.40000000e-02	2.35929741e-01	1.27294252e-02
2.42500000e-02	2.29984057e-01	1.23589949e-02
2.45000000e-02	2.24655931e-01	1.19529695e-02
2.47500000e-02	2.13577023e-01	1.12129981e-02
2.50000000e-02	2.09255908e-01	1.10279382e-02
2.52500000e-02	2.01428512e-01	1.07502689e-02
2.55000000e-02	1.94836703e-01	1.00901272e-02
2.57500000e-02	1.89351893e-01	9.80854229e-03
2.60000000e-02	1.81523832e-01	9.36905055e-03
2.62500000e-02	1.78436015e-01	9.21234144e-03
2.65000000e-02	1.71799489e-01	8.79466681e-03
2.67500000e-02	1.70061618e-01	8.60448423e-03
2.70000000e-02	1.60664451e-01	8.18857277e-03
2.72500000e-02	1.59223349e-01	8.02889990e-03
2.75000000e-02	1.50945759e-01	7.69468687e-03
2.77500000e-02	1.49882890e-01	7.65737081e-03
2.80000000e-02	1.46196602e-01	7.18676588e-03
2.82500000e-02	1.43609961e-01	7.11633818e-03
2.85000000e-02	1.38719791e-01	6.89766084e-03
2.87500000e-02	1.37932291e-01	6.82028548e-03
2.90000000e-02	1.32970760e-01	6.60604585e-03
2.92500000e-02	1.30083171e-01	6.24103674e-03
2.95000000e-02	1.29075656e-01	6.33715769e-03
2.97500000e-02	1.23594243e-01	5.92688584e-03
3.00000000e-02	1.21016433e-01	5.84747970e-03
3.02500000e-02	1.18876286e-01	5.69603973e-03
3.05000000e-02	1.15624346e-01	5.41799030e-03
3.07500000e-02	1.12386291e-01	5.33640127e-03
3.10000000e-02	1.11078277e-01	5.27633997e-03
3.12500000e-02	1.07838515e-01	5.18361801e-03
3.15000000e-02	1.08608779e-01	5.11806436e-03
3.17500000e-02	1.02532832e-01	4.72765635e-03
3.20000000e-02	1.03373818e-01	4.87996334e-03
3.22500000e-02	1.02364158e-01	4.75639653e-03
3.25000000e-02	9.86091970e-02	4.61785113e-03
3.27500000e-02	9.75147971e-02	4.50208998e-03
3.30000000e-02	9.48284288e-02	4.33801235e-03
3.32500000e-02	9.02097689e-02	4.11776498e-03
3.35000000e-02	9.09704208e-02	4.19704674e-03
3.37500000e-02	8.87743967e-02	4.08524397e-03
3.40000000e-02	8.75774930e-02	4.01951317e-03
3.42500000e-02	8.57683687e-02	3.89775097e-03
3.45000000e-02	8.54943278e-02	3.92422383e-03
3.47500000e-02	8.31601491e-02	3.76225720e-03
3.50000000e-02	8.12958463e-02	3.67451460e-03
3.52500000e-02	8.08593637e-02	3.67213532e-03
3.55000000e-02	7.86921644e-02	3.48714088e-03
3.57500000e-02	7.67198975e-02	3.43742768e-03
3.60000000e-02	7.43380044e-02	3.33587396e-03
3.62500000e-02	7.48734492e-02	3.37493255e-03
3.65000000e-02	7.32083033e-02	3.25909269e-03
3.67500000e-02	7.27839963e-02	3.22693470e-03
3.70000000e-02	6.94316815e-02	3.05341572e-03
3.72500000e-02	6.93520749e-02	3.04276238e-03
3.75000000e-02	6.90719906e-02	3.03983815e-03
3.77500000e-02	6.73274505e-02	2.96478985e-03
3.80000000e-02	6.76067798e-02	2.94520275e-03
3.82500000e-02	6.53820674e-02	2.84010085e-03
3.85000000e-02	6.44633846e-02	2.80862218e-03
3.87500000e-02	6.31393101e-02	2.70834804e-03
3.90000000e-02	6.32304991e-02	2.73754140e-03
3.92500000e-02	6.19031438e-02	2.67887705e-03
3.95000000e-02	6.18641118e-02	2.67206443e-03
3.97500000e-02	5.88598146e-02	2.54196095e-03
4.00000000e-02	6.07850784e-02	2.59411116e-03
4.02500000e-02	5.89996574e-02	2.51581849e-03
4.05000000e-02	6.02578951e-02	2.54495149e-03
4.07500000e-02	5.72476779e-02	2.42853534e-03
4.10000000e-02	5.70864156e-02	2.43452337e-03
4.12500000e-02	5.57675793e-02	2.36051574e-03
4.15000000e-02	5.59600340e-02	2.33333932e-03
4.17500000e-02	5.42975213e-02	2.27322156e-03
4.20000000e-02	5.44595969e-02	2.25118974e-03
4.22500000e-02	5.42909025e-02	2.24740846e-03
4.25000000e-02	5.33353723e-02	2.22242389e-03
4.27500000e-02	5.28339351e-02	2.19077509e-03
4.30000000e-02	5.23336304e-02	2.16719734e-03
4.32500000e-02	5.12200595e-02	2.09981668e-03
4.35000000e-02	5.02070881e-02	2.08228301e-03
4.37500000e-02	5.04001708e-02	2.05086740e-03
4.40000000e-02	5.05189197e-02	2.07091189e-03
4.42500000e-02	4.88859366e-02	2.00653542e-03
4.45000000e-02	4.96059086e-02	2.01388109e-03
4.47500000e-02	4.91201062e-02	1.99518735e-03
4.50000000e-02	4.76393557e-02	1.95110168e-03
4.52500000e-02	4.79497207e-02	1.94387129e-03
4.55000000e-02	4.63044354e-02	1.86008130e-03
4.57500000e-02	4.54229417e-02	1.82138528e-03
4.60000000e-02	4.57731530e-02	1.84222364e-03
4.62500000e-02	4.50098193e-02	1.80812535e-03
4.65000000e-02	4.60322968e-02	1.85006332e-03
4.67500000e-02	4.52144838e-02	1.79622564e-03
4.70000000e-02	4.43499403e-02	1.75791202e-03
4.72500000e-02	4.35811696e-02	1.74354616e-03
4.75000000e-02	4.29482750e-02	1.72895723e-03
4.77500000e-02	4.33289343e-02	1.70472385e-03
4.80000000e-02	4.19835962e-02	1.66206619e-03
4.82500000e-02	4.27207996e-02	1.67595798e-03
4.85000000e-02	4.31448264e-02	1.71914513e-03
4.87500000e-02	4.12019914e-02	1.62192246e-03
4.90000000e-02	4.12619095e-02	1.61847926e-03
4.92500000e-02	4.09494020e-02	1.59270872e-03
4.95000000e-02	4.11595097e-02	1.61805408e-03
4.97500000e-02	4.11321806e-02	1.61351952e-03
5.00000000e-02	4.04928708e-02	1.57626601e-03
5.02500000e-02	3.97599512e-02	1.54310946e-03
5.05000000e-02	3.98044583e-02	1.53716358e-03
5.07500000e-02	3.96113848e-02	1.53719750e-03
5.10000000e-02	3.93000236e-02	1.51033490e-03
5.12500000e-02	3.79837311e-02	1.46663477e-03
5.15000000e-02	3.92562995e-02	1.49560792e-03
5.17500000e-02	3.88340597e-02	1.49442731e-03
5.20000000e-02	3.80618917e-02	1.45422700e-03
5.22500000e-02	3.71404483e-02	1.42922150e-03
5.25000000e-02	3.74485653e-02	1.43142953e-03
5.27500000e-02	3.78016464e-02	1.43988862e-03
5.30000000e-02	3.65349512e-02	1.40233237e-03
5.32500000e-02	3.72573455e-02	1.41858153e-03
5.35000000e-02	3.59903766e-02	1.37341943e-03
5.37500000e-02	3.57492273e-02	1.35464361e-03
5.40000000e-02	3.54279857e-02	1.33399643e-03
5.42500000e-02	3.61514152e-02	1.36170255e-03
5.45000000e-02	3.49290240e-02	1.32985874e-03
5.47500000e-02	3.46230618e-02	1.29052345e-03
5.50000000e-02	3.45978434e-02	1.29298577e-03
5.52500000e-02	3.51780609e-02	1.31437255e-03
5.55000000e-02	3.53708850e-02	1.32080228e-03
5.57500000e-02	3.50901790e-02	1.31496142e-03
5.60000000e-02	3.38877142e-02	1.25553421e-03
5.62500000e-02	3.41562673e-02	1.28660341e-03
5.65000000e-02	3.36132225e-02	1.23938958e-03
5.67500000e-02	3.43565303e-02	1.28389645e-03
5.70000000e-02	3.33396887e-02	1.22998591e-03
5.72500000e-02	3.34971158e-02	1.24954032e-03
5.75000000e-02	3.32783748e-02	1.23126835e-03
5.77500000e-02	3.40973319e-02	1.24846466e-03
5.80000000e-02	3.32142912e-02	1.22349499e-03
5.82500000e-02	3.31705616e-02	1.21930066e-03
5.85000000e-02	3.26214345e-02	1.19693484e-03
5.87500000e-02	3.20000090e-02	1.17290615e-03
5.90000000e-02	3.23869384e-02	1.18046602e-03
5.92500000e-02	3.15613560e-02	1.15510196e-03
5.95000000e-02	3.21748980e-02	1.17340671e-03
5.97500000e-02	3.18611779e-02	1.16009481e-03
6.00000000e-02	3.19295212e-02	1.15784598e-03
6.02500000e-02	3.09930454e-02	1.12641963e-03
6.05000000e-02	3.15410367e-02	1.13256707e-03
6.07500000e-02	3.08920278e-02	1.12248422e-03
6.10000000e-02	3.07301743e-02	1.11660134e-03
6.12500000e-02	2.98771077e-02	1.07427219e-03
6.15000000e-02	3.09792903e-02	1.11471206e-03
6.17500000e-02	3.08550531e-02	1.10534821e-03
6.20000000e-02	3.10343482e-02	1.11145934e-03
6.22500000e-02	2.93737979e-02	1.05477671e-03
6.25000000e-02	2.97801527e-02	1.06652679e-03
6.27500000e-02	2.96221403e-02	1.05777615e-03
6.30000000e-02	3.02246337e-02	1.06985985e-03
6.32500000e-02	3.03634821e-02	1.08144199e-03
6.35000000e-02	2.92383552e-02	1.03724502e-03
6.37500000e-02	2.95146264e-02	1.04488536e-03
6.40000000e-02	2.92100776e-02	1.03545228e-03
6.42500000e-02	2.90191541e-02	1.02635457e-03
6.45000000e-02	2.93871858e-02	1.03953201e-03
6.47500000e-02	2.93577711e-02	1.04377392e-03
6.50000000e-02	2.79524670e-02	9.89802535e-04
6.52500000e-02	2.85487952e-02	1.00747897e-03
6.55000000e-02	2.83936411e-02	1.00460753e-03
6.57500000e-02	2.85516335e-02	9.99625080e-04
6.60000000e-02	2.83582714e-02	9.92097075e-04
6.62500000e-02	2.81265757e-02	9.89824735e-04
6.65000000e-02	2.85024424e-02	9.99218171e-04
6.67500000e-02	2.76235303e-02	9.63098830e-04
6.70000000e-02	2.82504815e-02	9.90049105e-04
6.72500000e-02	2.80061372e-02	9.77488170e-04
6.75000000e-02	2.77439096e-02	9.67422801e-04
6.77500000e-02	2.79502534e-02	9.74939216e-04
6.80000000e-02	2.76631469e-02	9.67925068e-04
6.82500000e-02	2.74657932e-02	9.49736508e-04
6.85000000e-02	2.72392517e-02	9.47661226e-04
6.87500000e-02	2.72394936e-02	9.37135928e-04
6.90000000e-02	2.74574842e-02	9.48147982e-04
6.92500000e-02	2.76767224e-02	9.52298228e-04
6.95000000e-02	2.69210890e-02	9.34087724e-04
6.97500000e-02	2.69960189e-02	9.25833101e-04
7.00000000e-02	2.71471511e-02	9.29715904e-04
7.02500000e-02	2.64759486e-02	9.06225773e-04
7.05000000e-02	2.67437838e-02	9.09410900e-04
7.07500000e-02	2.68856404e-02	9.25870288e-04
7.10000000e-02	2.66180755e-02	9.02489678e-04
7.12500000e-02	2.69187526e-02	9.13743753e-04
7.15000000e-02	2.76063797e-02	9.30511691e-04
7.17500000e-02	2.66387067e-02	9.03724968e-04
7.20000000e-02	2.73192641e-02	9.29343386e-04
7.22500000e-02	2.63537256e-02	8.93111418e-04
7.25000000e-02	2.62695853e-02	8.91146563e-04
7.27500000e-02	2.63544038e-02	8.90452800e-04
7.30000000e-02	2.67849985e-02	9.05414199e-04
7.32500000e-02	2.65670188e-02	8.86340682e-04
7.35000000e-02	2.57241876e-02	8.66789863e-04
7.37500000e-02	2.65888160e-02	8.85064464e-04
7.40000000e-02	2.59081955e-02	8.74099941e-04
7.42500000e-02	2.57267401e-02	8.65998497e-04
7.45000000e-02	2.62870802e-02	8.81261135e-04
7.47500000e-02	2.57108213e-02	8.55665339e-04
7.50000000e-02	2.60511307e-02	8.66337296e-04
7.52500000e-02	2.66041680e-02	8.81743070e-04
7.55000000e-02	2.59585292e-02	8.61647240e-04
7.57500000e-02	2.50502882e-02	8.30596614e-04
7.60000000e-02	2.60382899e-02	8.62564936e-04
7.62500000e-02	2.50775127e-02	8.35299528e-04
7.65000000e-02	2.54730929e-02	8.49886426e-04
7.67500000e-02	2.51937875e-02	8.30281033e-04
7.70000000e-02	2.52585693e-02	8.36362484e-04
7.72500000e-02	2.54319421e-02	8.51843903e-04
7.75000000e-02	2.51226813e-02	8.56983556e-04
7.77500000e-02	2.51588884e-02	8.59742347e-04
7.80000000e-02	2.56445135e-02	8.69675524e-04
7.82500000e-02	2.43633260e-02	8.46098097e-04
7.85000000e-02	2.51929391e-02	8.68206009e-04
7.87500000e-02	2.54814560e-02	8.78660832e-04
7.90000000e-02	2.50492331e-02	8.70871452e-04
7.92500000e-02	2.47427347e-02	8.64156182e-04
7.95000000e-02	2.56378649e-02	8.97753388e-04
7.97500000e-02	2.44322075e-02	8.60635007e-04
8.00000000e-02	2.47206118e-02	8.64889141e-04
8.02500000e-02	2.56741677e-02	9.07159336e-04
8.05000000e-02	2.54658963e-02	8.91902043e-04
8.07500000e-02	2.49142184e-02	8.84110633e-04
8.10000000e-02	2.53562421e-02	9.02143399e-04
8.12500000e-02	2.47837287e-02	8.79628304e-04
8.15000000e-02	2.51320026e-02	8.92821626e-04
8.17500000e-02	2.49724530e-02	8.92606858e-04
8.20000000e-02	2.50355472e-02	8.94325343e-04
8.22500000e-02	2.40683083e-02	8.59828738e-04
8.25000000e-02	2.45962026e-02	8.81795576e-04
8.27500000e-02	2.52466553e-02	8.99286448e-04
8.30000000e-02	2.44816666e-02	8.83745263e-04
8.32500000e-02	2.43569791e-02	8.78781247e-04
8.35000000e-02	2.39402111e-02	8.72388282e-04
8.37500000e-02	2.48882644e-02	8.83906298e-04
8.40000000e-02	2.50488599e-02	9.07204772e-04
8.42500000e-02	2.44925030e-02	8.83889840e-04
8.45000000e-02	2.42024620e-02	8.77276478e-04
8.47500000e-02	2.41892592e-02	8.77806071e-04
8.50000000e-02	2.40747629e-02	8.73039961e-04
8.52500000e-02	2.41955481e-02	8.84468634e-04
8.55000000e-02	2.42970634e-02	8.79377529e-04
8.57500000e-02	2.48109147e-02	9.07151249e-04
8.60000000e-02	2.50581790e-02	9.11198167e-04
8.62500000e-02	2.50024078e-02	9.06179545e-04
8.65000000e-02	2.37038535e-02	8.67252991e-04
8.67500000e-02	2.40731934e-02	8.70232708e-04
8.70000000e-02	2.45506016e-02	8.77711672e-04
8.72500000e-02	2.39522079e-02	8.38431201e-04
8.75000000e-02	2.43058964e-02	8.42756125e-04
8.77500000e-02	2.36139529e-02	8.14531949e-04
8.80000000e-02	2.38967930e-02	8.26455538e-04
8.82500000e-02	2.45294296e-02	8.45371772e-04
8.85000000e-02	2.36901832e-02	8.19400144e-04
8.87500000e-02	2.33684993e-02	7.93399012e-04
8.90000000e-02	2.41635560e-02	8.21892370e-04
8.92500000e-02	2.39449984e-02	8.07220382e-04
8.95000000e-02	2.38051939e-02	8.07930137e-04
8.97500000e-02	2.41958802e-02	8.07547639e-04
9.00000000e-02	2.34802969e-02	7.85833846e-04
9.02500000e-02	2.32204766e-02	7.76932912e-04
9.05000000e-02	2.37280992e-02	7.92392553e-04
9.07500000e-02	2.31798796e-02	7.74662691e-04
9.10000000e-02	2.32857468e-02	7.69840765e-04
9.12500000e-02	2.31004347e-02	7.66773208e-04
9.15000000e-02	2.31497528e-02	7.71563198e-04
9.17500000e-02	2.33623617e-02	7.69778476e-04
9.20000000e-02	2.26637518e-02	7.51069410e-04
9.22500000e-02	2.33542638e-02	7.65776913e-04
9.25000000e-02	2.29143095e-02	7.50640420e-04
9.27500000e-02	2.36388538e-02	7.72080255e-04
9.30000000e-02	2.31248530e-02	7.52200618e-04
9.32500000e-02	2.31974790e-02	7.60145649e-04
9.35000000e-02	2.28464093e-02	7.48708163e-04
9.37500000e-02	2.28656796e-02	7.40039786e-04
9.40000000e-02	2.31176565e-02	7.47105680e-04
9.42500000e-02	2.34375691e-02	7.55481629e-04
9.45000000e-02	2.28297489e-02	7.37910795e-04
9.47500000e-02	2.33410438e-02	7.51016120e-04
9.50000000e-02	2.29831337e-02	7.37718857e-04
9.52500000e-02	2.35423490e-02	7.56526270e-04
9.55000000e-02	2.38444055e-02	7.62702574e-04
9.57500000e-02	2.26404115e-02	7.24620555e-04
9.60000000e-02	2.26302820e-02	7.20698620e-04
9.62500000e-02	2.26360205e-02	7.23880273e-04
9.65000000e-02	2.31939808e-02	7.41780335e-04
9.67500000e-02	2.28148291e-02	7.26015419e-04
9.70000000e-02	2.26773667e-02	7.16411150e-04
9.72500000e-02	2.23568107e-02	7.11951000e-04
9.75000000e-02	2.24038861e-02	7.13050419e-04
9.77500000e-02	2.26738803e-02	7.08741557e-04
9.80000000e-02	2.31045792e-02	7.25125300e-04
9.82500000e-02	2.23472614e-02	7.09364886e-04
9.85000000e-02	2.23077616e-02	7.02605376e-04
9.87500000e-02	2.26874664e-02	7.12313477e-04
9.90000000e-02	2.29411831e-02	7.20249250e-04
9.92500000e-02	2.24828868e-02	7.05809151e-04
9.95000000e-02	2.28527165e-02	7.09501608e-04
9.97500000e-02	2.28934389e-02	7.11431493e-04
1.00000000e-01	2.23746170e-02	5.69576821e-04
1.00500000e-01	2.26657937e-02	5.01506554e-04
1.01000000e-01	2.27630519e-02	4.99127791e-04
1.01500000e-01	2.24052723e-02	4.89057173e-04
1.02000000e-01	2.20898979e-02	4.82626534e-04
1.02500000e-01	2.20471193e-02	4.77500323e-04
1.03000000e-01	2.24469990e-02	4.86532390e-04
1.03500000e-01	2.24288014e-02	4.83940143e-04
1.04000000e-01	2.21650556e-02	4.80510271e-04
1.04500000e-01	2.20530754e-02	4.76752834e-04
1.05000000e-01	2.28783612e-02	4.88319275e-04
1.05500000e-01	2.22996842e-02	4.76428399e-04
1.06000000e-01	2.24983093e-02	4.78473444e-04
1.06500000e-01	2.23021529e-02	4.74720714e-04
1.07000000e-01	2.24312060e-02	4.85557841e-04
1.07500000e-01	2.22049286e-02	4.88860003e-04
1.08000000e-01	2.20901878e-02	4.88075429e-04
1.08500000e-01	2.17234379e-02	4.86116549e-04
1.09000000e-01	2.20985234e-02	4.96320768e-04
1.09500000e-01	2.15676107e-02	4.85954743e-04
1.10000000e-01	2.14178219e-02	4.78754064e-04
1.10500000e-01	2.19914227e-02	4.79661902e-04
1.11000000e-01	2.15200944e-02	4.61616092e-04
1.11500000e-01	2.18105005e-02	4.66095677e-04
1.12000000e-01	2.20531534e-02	4.64395826e-04
1.12500000e-01	2.15963443e-02	4.53714378e-04
1.13000000e-01	2.19126435e-02	4.61285328e-04
1.13500000e-01	2.18216681e-02	4.55212038e-04
1.14000000e-01	2.20165691e-02	4.57693180e-04
1.14500000e-01	2.15580570e-02	4.49856119e-04
1.15000000e-01	2.17245506e-02	4.48211140e-04
1.15500000e-01	2.11211411e-02	4.37498939e-04
1.16000000e-01	2.17623294e-02	4.46870621e-04
1.16500000e-01	2.16162137e-02	4.44783226e-04
1.17000000e-01	2.19561384e-02	4.48599344e-04
1.17500000e-01	2.13549755e-02	4.36708182e-04
1.18000000e-01	2.15343532e-02	4.39932116e-04
1.18500000e-01	2.16165255e-02	4.40815014e-04
1.19000000e-01	2.14134441e-02	4.33206270e-04
1.19500000e-01	2.15750898e-02	4.36267461e-04
1.20000000e-01	2.17790059e-02	4.37553829e-04
1.20500000e-01	2.14801314e-02	4.33848689e-04
1.21000000e-01	2.15837628e-02	4.34147036e-04
1.21500000e-01	2.15087374e-02	4.30973891e-04
1.22000000e-01	2.15144260e-02	4.31055331e-04
1.22500000e-01	2.16524555e-02	4.32760454e-04
1.23000000e-01	2.13423827e-02	4.25494500e-04
1.23500000e-01	2.18517806e-02	4.33478283e-04
1.24000000e-01	2.14649758e-02	4.26870652e-04
1.24500000e-01	2.15051039e-02	4.25582508e-04
1.25000000e-01	2.13526886e-02	4.20900694e-04
1.25500000e-01	2.14658697e-02	4.24189566e-04
1.26000000e-01	2.14114057e-02	4.23774293e-04
1.26500000e-01	2.12721063e-02	4.20913868e-04
1.27000000e-01	2.18197488e-02	4.26054739e-04
1.27500000e-01	2.15013596e-02	4.19490329e-04
1.28000000e-01	2.16123265e-02	4.24005106e-04
1.28500000e-01	2.14726828e-02	4.17109729e-04
1.29000000e-01	2.14527542e-02	4.16612581e-04
1.29500000e-01	2.10747181e-02	4.11383975e-04
1.30000000e-01	2.13563647e-02	4.13460341e-04
1.30500000e-01	2.11275613e-02	4.09165451e-04
1.31000000e-01	2.12855645e-02	4.10709275e-04
1.31500000e-01	2.10122562e-02	4.06495502e-04
1.32000000e-01	2.12007768e-02	4.06798647e-04
1.32500000e-01	2.11714705e-02	4.05141994e-04
1.33000000e-01	2.12461817e-02	4.04258836e-04
1.33500000e-01	2.09229210e-02	3.98583247e-04
1.34000000e-01	2.12719816e-02	4.05470531e-04
1.34500000e-01	2.10260759e-02	3.99714781e-04
1.35000000e-01	2.11451672e-02	4.01168766e-04
1.35500000e-01	2.12444568e-02	4.00885647e-04
1.36000000e-01	2.12048607e-02	4.00013666e-04
1.36500000e-01	2.08067177e-02	3.92561686e-04
1.37000000e-01	2.10171549e-02	3.95011171e-04
1.37500000e-01	2.10789206e-02	3.96017277e-04
1.38000000e-01	2.13856452e-02	4.00161401e-04
1.38500000e-01	2.11687977e-02	3.96577065e-04
1.39000000e-01	2.06972637e-02	3.89364767e-04
1.39500000e-01	2.08881685e-02	3.92112259e-04
1.40000000e-01	2.07300793e-02	3.88321433e-04
1.40500000e-01	2.08672430e-02	3.88806408e-04
1.41000000e-01	2.05394742e-02	3.84051791e-04
1.41500000e-01	2.07311199e-02	3.87408581e-04
1.42000000e-01	2.05543490e-02	3.80960488e-04
1.42500000e-01	2.06849166e-02	3.84402309e-04
1.43000000e-01	2.06037616e-02	3.83043023e-04
1.43500000e-01	2.08110049e-02	3.83305654e-04
1.44000000e-01	2.07603966e-02	3.82847262e-04
1.44500000e-01	2.06751893e-02	3.79641498e-04
1.45000000e-01	2.04935638e-02	3.79428082e-04
1.45500000e-01	2.08725579e-02	3.82225563e-04
1.46000000e-01	2.05242631e-02	3.74999466e-04
1.46500000e-01	2.06321299e-02	3.78833623e-04
1.47000000e-01	2.04761826e-02	3.76205307e-04
1.47500000e-01	2.06547898e-02	3.79049395e-04
1.48000000e-01	2.02648143e-02	3.70240750e-04
1.48500000e-01	2.04706014e-02	3.72541019e-04
1.49000000e-01	2.04478195e-02	3.71740561e-04
1.49500000e-01	2.04974356e-02	3.73599384e-04
1.50000000e-01	2.04183432e-02	3.69079284e-04
1.50500000e-01	2.06414042e-02	3.73783130e-04
1.51000000e-01	2.07871355e-02	3.76190356e-04
1.51500000e-01	2.02044551e-02	3.64588013e-04
1.52000000e-01	2.03610075e-02	3.63520840e-04
1.52500000e-01	2.03396671e-02	3.64282119e-04
1.53000000e-01	2.06194316e-02	3.69365019e-04
1.53500000e-01	2.05366651e-02	3.66358380e-04
1.54000000e-01	2.02143710e-02	3.60154427e-04
1.54500000e-01	2.03598514e-02	3.69408410e-04
1.55000000e-01	2.04481879e-02	3.76614707e-04
1.55500000e-01	2.02108611e-02	3.73245382e-04
1.56000000e-01	2.01379758e-02	3.76083165e-04
1.56500000e-01	1.99515059e-02	3.72763721e-04
1.57000000e-01	2.03395273e-02	3.79758558e-04
1.57500000e-01	2.04303107e-02	3.72702734e-04
1.58000000e-01	2.04069469e-02	3.68753219e-04
1.58500000e-01	2.02984516e-02	3.62820803e-04
1.59000000e-01	2.02214410e-02	3.61334664e-04
1.59500000e-01	2.00871980e-02	3.57199309e-04
1.60000000e-01	2.03888800e-02	3.63853737e-04
1.60500000e-01	1.98646516e-02	3.52863006e-04
1.61000000e-01	2.03734416e-02	3.60589379e-04
1.61500000e-01	1.99301174e-02	3.51807797e-04
1.62000000e-01	2.00592820e-02	3.53530106e-04
1.62500000e-01	1.99067098e-02	3.51655843e-04
1.63000000e-01	1.98888592e-02	3.49036544e-04
1.63500000e-01	1.98796736e-02	3.50655800e-04
1.64000000e-01	2.02878116e-02	3.53501313e-04
1.64500000e-01	1.99651511e-02	3.48548629e-04
1.65000000e-01	2.01111315e-02	3.50815511e-04
1.65500000e-01	2.01102912e-02	3.50545906e-04
1.66000000e-01	1.99604192e-02	3.48292554e-04
1.66500000e-01	1.97886986e-02	3.43985017e-04
1.67000000e-01	1.99520898e-02	3.46626507e-04
1.67500000e-01	1.98264894e-02	3.43580827e-04
1.68000000e-01	1.98889397e-02	3.42796316e-04
1.68500000e-01	1.99249772e-02	3.44577319e-04
1.69000000e-01	1.98586710e-02	3.42341957e-04
1.69500000e-01	1.98406461e-02	3.41653800e-04
1.70000000e-01	1.99784115e-02	3.43012433e-04
1.70500000e-01	1.96546381e-02	3.37187210e-04
1.71000000e-01	1.96673852e-02	3.37437899e-04
1.71500000e-01	1.95926658e-02	3.37743507e-04
1.72000000e-01	1.96094624e-02	3.34635643e-04
1.72500000e-01	1.96594532e-02	3.35486897e-04
1.73000000e-01	1.95283826e-02	3.32962188e-04
1.73500000e-01	1.97460805e-02	3.34737747e-04
1.74000000e-01	1.97885296e-02	3.36020611e-04
1.74500000e-01	1.95024632e-02	3.29241334e-04
1.75000000e-01	1.98165834e-02	3.33112347e-04
1.75500000e-01	1.94999464e-02	3.28956142e-04
1.76000000e-01	1.96487535e-02	3.29936667e-04
1.76500000e-01	1.93647044e-02	3.25669206e-04
1.77000000e-01	1.94335552e-02	3.24245980e-04
1.77500000e-01	1.93880375e-02	3.24182485e-04
1.78000000e-01	1.97657303e-02	3.29181698e-04
1.78500000e-01	1.96219503e-02	3.27218044e-04
1.79000000e-01	1.95554183e-02	3.26861338e-04
1.79500000e-01	1.95249979e-02	3.25184786e-04
1.80000000e-01	1.95190810e-02	3.25711311e-04
1.80500000e-01	1.96352129e-02	3.27930713e-04
1.81000000e-01	1.96713930e-02	3.27235408e-04
1.81500000e-01	1.93853332e-02	3.21426907e-04
1.82000000e-01	1.94422422e-02	3.23258752e-04
1.82500000e-01	1.95241336e-02	3.23975345e-04
1.83000000e-01	1.94222681e-02	3.22787599e-04
1.83500000e-01	1.94121857e-02	3.21629475e-04
1.84000000e-01	1.95721402e-02	3.23518679e-04
1.84500000e-01	1.93697168e-02	3.20116946e-04
1.85000000e-01	1.93624298e-02	3.19761270e-04
1.85500000e-01	1.92266131e-02	3.15880296e-04
1.86000000e-01	1.94091577e-02	3.19218290e-04
1.86500000e-01	1.94877196e-02	3.19618945e-04
1.87000000e-01	1.91760624e-02	3.14419427e-04
1.87500000e-01	1.93722742e-02	3.16502132e-04
1.88000000e-01	1.91905375e-02	3.15046168e-04
1.88500000e-01	1.94335774e-02	3.16066450e-04
1.89000000e-01	1.94150774e-02	3.16440275e-04
1.89500000e-01	1.94077051e-02	3.16437144e-04
1.90000000e-01	1.93359289e-02	3.14534904e-04
1.90500000e-01	1.91758180e-02	3.11664670e-04
1.91000000e-01	1.93114488e-02	3.12746131e-04
1.91500000e-01	1.90109830e-02	3.09352861e-04
1.92000000e-01	1.93683485e-02	3.12540277e-04
1.92500000e-01	1.92941395e-02	3.12397549e-04
1.93000000e-01	1.92185781e-02	3.10935508e-04
1.93500000e-01	1.95537163e-02	3.14625345e-04
1.94000000e-01	1.92252676e-02	3.10598019e-04
1.94500000e-01	1.91322099e-02	3.09197656e-04
1.95000000e-01	1.91708385e-02	3.09676569e-04
1.95500000e-01	1.90938181e-02	3.07449791e-04
1.96000000e-01	1.92789158e-02	3.08873158e-04
1.96500000e-01	1.89812750e-02	3.04257088e-04
1.97000000e-01	1.90041244e-02	3.04508627e-04
1.97500000e-01	1.94596679e-02	3.11174332e-04
1.98000000e-01	1.88877408e-02	3.02716812e-04
1.98500000e-01	1.88610909e-02	3.00754456e-04
1.99000000e-01	1.91313289e-02	3.04710339e-04
1.99500000e-01	1.90396977e-02	3.01520621e-04
2.00000000e-01	1.90284745e-02	3.02193375e-04
2.00500000e-01	1.93356820e-02	3.06387624e-04
2.01000000e-01	1.89831806e-02	3.02076635e-04
2.01500000e-01	1.88032760e-02	2.98563568e-04
2.02000000e-01	1.90551956e-02	3.00709378e-04
2.02500000e-01	1.88676305e-02	2.97001182e-04
2.03000000e-01	1.90180763e-02	2.99813709e-04
2.03500000e-01	1.88980947e-02	2.97499385e-04
2.04000000e-01	1.91050188e-02	3.00501643e-04
2.04500000e-01	1.88862843e-02	2.97723528e-04
2.05000000e-01	1.89437329e-02	2.97286183e-04
2.05500000e-01	1.88797649e-02	2.96299592e-04
2.06000000e-01	1.91193982e-02	2.98109030e-04
2.06500000e-01	1.89861727e-02	2.97487987e-04
2.07000000e-01	1.91174133e-02	2.98019279e-04
2.07500000e-01	1.88874426e-02	2.94535681e-04
2.08000000e-01	1.90617025e-02	2.97884926e-04
2.08500000e-01	1.91322945e-02	2.97698356e-04
2.09000000e-01	1.86893505e-02	2.91775690e-04
2.09500000e-01	1.88054216e-02	2.91985214e-04
2.10000000e-01	1.89309361e-02	2.93209419e-04
2.10500000e-01	1.86639282e-02	2.90296515e-04
2.11000000e-01	1.88618766e-02	2.91928626e-04
2.11500000e-01	1.87759570e-02	2.91469734e-04
2.12000000e-01	1.88772351e-02	2.92115268e-04
2.12500000e-01	1.89437222e-02	2.92597842e-04
2.13000000e-01	1.87043232e-02	2.88715601e-04
2.13500000e-01	1.87761937e-02	2.89121412e-04
2.14000000e-01	1.86627160e-02	2.87226087e-04
2.14500000e-01	1.88407748e-02	2.88838085e-04
2.15000000e-01	1.84532802e-02	2.84418729e-04
2.15500000e-01	1.86032333e-02	2.84869039e-04
2.16000000e-01	1.86111263e-02	2.85114588e-04
2.16500000e-01	1.88784094e-02	2.88483757e-04
2.17000000e-01	1.88582308e-02	2.92166234e-04
2.17500000e-01	1.85540623e-02	2.93217326e-04
2.18000000e-01	1.86540744e-02	2.94486952e-04
2.18500000e-01	1.88581688e-02	2.99285064e-04
2.19000000e-01	1.87038115e-02	2.98330960e-04
2.19500000e-01	1.86147564e-02	2.98088417e-04
2.20000000e-01	1.88512899e-02	3.02687596e-04
2.20500000e-01	1.86266391e-02	3.00315321e-04
2.21000000e-01	1.85818697e-02	3.01074128e-04
2.21500000e-01	1.87025537e-02	3.04907459e-04
2.22000000e-01	1.85693957e-02	3.00522925e-04
2.22500000e-01	1.86804998e-02	3.05658621e-04
2.23000000e-01	1.85931243e-02	3.03354122e-04
2.23500000e-01	1.85060641e-02	3.02581782e-04
2.24000000e-01	1.84635962e-02	3.01714666e-04
2.24500000e-01	1.84247888e-02	3.02521947e-04
2.25000000e-01	1.85883954e-02	3.06175741e-04
2.25500000e-01	1.86046863e-02	3.06400470e-04
2.26000000e-01	1.86052037e-02	3.08648618e-04
2.26500000e-01	1.84269410e-02	2.98864729e-04
2.27000000e-01	1.83646042e-02	2.95683622e-04
2.27500000e-01	1.85677823e-02	2.97257196e-04
2.28000000e-01	1.86045201e-02	2.95184344e-04
2.28500000e-01	1.84926342e-02	2.93808821e-04
2.29000000e-01	1.84116200e-02	2.91642087e-04
2.29500000e-01	1.84050315e-02	2.88731077e-04
2.30000000e-01	1.86564869e-02	2.91903154e-04
2.30500000e-01	1.84126437e-02	2.86732933e-04
2.31000000e-01	1.87685640e-02	2.91309237e-04
2.31500000e-01	1.84646634e-02	2.86660824e-04
2.32000000e-01	1.84592970e-02	2.87285025e-04
2.32500000e-01	1.84098694e-02	2.84433433e-04
2.33000000e-01	1.81890073e-02	2.79209517e-04
2.33500000e-01	1.83301110e-02	2.82848943e-04
2.34000000e-01	1.83808149e-02	2.82460784e-04
2.34500000e-01	1.86102814e-02	2.85148855e-04
2.35000000e-01	1.83579126e-02	2.81598968e-04
2.35500000e-01	1.86782386e-02	2.84321792e-04
2.36000000e-01	1.84276889e-02	2.80971527e-04
2.36500000e-01	1.84944797e-02	2.81690871e-04
2.37000000e-01	1.82205817e-02	2.77818861e-04
2.37500000e-01	1.83330142e-02	2.79425290e-04
2.38000000e-01	1.81667419e-02	2.75264612e-04
2.38500000e-01	1.84158586e-02	2.78906121e-04
2.39000000e-01	1.82738848e-02	2.75785144e-04
2.39500000e-01	1.83596074e-02	2.77318921e-04
2.40000000e-01	1.83798202e-02	2.76681606e-04
2.40500000e-01	1.84364729e-02	2.75157606e-04
2.41000000e-01	1.84487077e-02	2.76461934e-04
2.41500000e-01	1.79880698e-02	2.70080501e-04
2.42000000e-01	1.79128838e-02	2.68574334e-04
2.42500000e-01	1.79439399e-02	2.68372190e-04
2.43000000e-01	1.80249454e-02	2.69293758e-04
2.43500000e-01	1.83150089e-02	2.70873706e-04
2.44000000e-01	1.81029016e-02	2.68817585e-04
2.44500000e-01	1.81850065e-02	2.69572777e-04
2.45000000e-01	1.86242736e-02	2.74329546e-04
2.45500000e-01	1.82264257e-02	2.69691602e-04
2.46000000e-01	1.82349528e-02	2.70492433e-04
2.46500000e-01	1.83836682e-02	2.71578173e-04
2.47000000e-01	1.83352168e-02	2.70985272e-04
2.47500000e-01	1.82225670e-02	2.66610632e-04
2.48000000e-01	1.80230013e-02	2.65558657e-04
2.48500000e-01	1.81587762e-02	2.66193920e-04
2.49000000e-01	1.79739550e-02	2.64168525e-04
2.49500000e-01	1.82439311e-02	2.68220891e-04
2.50000000e-01	1.81658637e-02	2.66050388e-04
2.50500000e-01	1.80084989e-02	2.64165436e-04
2.51000000e-01	1.81163422e-02	2.64550114e-04
2.51500000e-01	1.81209636e-02	2.65640143e-04
2.52000000e-01	1.76964717e-02	2.59272869e-04
2.52500000e-01	1.81133448e-02	2.62737429e-04
2.53000000e-01	1.80838667e-02	2.63629252e-04
2.53500000e-01	1.79347748e-02	2.60466592e-04
2.54000000e-01	1.79107764e-02	2.61420115e-04
2.54500000e-01	1.79223589e-02	2.60769738e-04
2.55000000e-01	1.80663940e-02	2.61463721e-04
2.55500000e-01	1.79704690e-02	2.60947880e-04
2.56000000e-01	1.79678341e-02	2.59456108e-04
2.56500000e-01	1.80401808e-02	2.60500593e-04
2.57000000e-01	1.76615337e-02	2.55856911e-04
2.57500000e-01	1.79921982e-02	2.59474045e-04
2.58000000e-01	1.79349134e-02	2.58321235e-04
2.58500000e-01	1.78125649e-02	2.56105960e-04
2.59000000e-01	1.81657485e-02	2.60804114e-04
2.59500000e-01	1.77907479e-02	2.55384622e-04
2.60000000e-01	1.78983701e-02	2.55707359e-04
2.60500000e-01	1.79634566e-02	2.57723315e-04
2.61000000e-01	1.79198047e-02	2.57296393e-04
2.61500000e-01	1.80681925e-02	2.59193315e-04
2.62000000e-01	1.78487033e-02	2.54186392e-04
2.62500000e-01	1.79481541e-02	2.56694965e-04
2.63000000e-01	1.78545568e-02	2.54362773e-04
2.63500000e-01	1.77712426e-02	2.52960023e-04
2.64000000e-01	1.78897931e-02	2.54653533e-04
2.64500000e-01	1.79085399e-02	2.54952303e-04
2.65000000e-01	1.79497011e-02	2.55017943e-04
2.65500000e-01	1.78342631e-02	2.52997323e-04
2.66000000e-01	1.77775146e-02	2.51350660e-04
2.66500000e-01	1.77034653e-02	2.50730174e-04
2.67000000e-01	1.78833749e-02	2.52716713e-04
2.67500000e-01	1.77172920e-02	2.50658630e-04
2.68000000e-01	1.77263274e-02	2.49406392e-04
2.68500000e-01	1.79401039e-02	2.52427093e-04
2.69000000e-01	1.77873082e-02	2.50135143e-04
2.69500000e-01	1.80167619e-02	2.51452984e-04
2.70000000e-01	1.78140742e-02	2.49401422e-04
2.70500000e-01	1.75370863e-02	2.45111091e-04
2.71000000e-01	1.77301000e-02	2.48076307e-04
2.71500000e-01	1.79648418e-02	2.51627139e-04
2.72000000e-01	1.76632550e-02	2.46883899e-04
2.72500000e-01	1.76914918e-02	2.46969352e-04
2.73000000e-01	1.77363596e-02	2.48015610e-04
2.73500000e-01	1.76613646e-02	2.45511129e-04
2.74000000e-01	1.77480924e-02	2.46710348e-04
2.74500000e-01	1.76560310e-02	2.45712454e-04
2.75000000e-01	1.76838461e-02	2.45637718e-04
2.75500000e-01	1.77680447e-02	2.48067312e-04
2.76000000e-01	1.75237938e-02	2.43576130e-04
2.76500000e-01	1.74258518e-02	2.43541519e-04
2.77000000e-01	1.76951834e-02	2.45455511e-04
2.77500000e-01	1.77039811e-02	2.46496119e-04
2.78000000e-01	1.77138362e-02	2.45258804e-04
2.78500000e-01	1.76194736e-02	2.44123808e-04
2.79000000e-01	1.76096919e-02	2.43065790e-04
2.79500000e-01	1.75168513e-02	2.41887673e-04
2.80000000e-01	1.75726927e-02	2.42237551e-04
2.80500000e-01	1.75339830e-02	2.41560556e-04
2.81000000e-01	1.75494298e-02	2.41943463e-04
2.81500000e-01	1.75489193e-02	2.41918403e-04
2.82000000e-01	1.74706733e-02	2.40274743e-04
2.82500000e-01	1.75382532e-02	2.41472207e-04
2.83000000e-01	1.74513053e-02	2.39405259e-04
2.83500000e-01	1.76089582e-02	2.41043324e-04
2.84000000e-01	1.77253553e-02	2.43151202e-04
2.84500000e-01	1.74617402e-02	2.38743118e-04
2.85000000e-01	1.76070856e-02	2.40026035e-04
2.85500000e-01	1.73349512e-02	2.36322499e-04
2.86000000e-01	1.74608109e-02	2.38011414e-04
2.86500000e-01	1.73585888e-02	2.37048531e-04
2.87000000e-01	1.75668443e-02	2.40335942e-04
2.87500000e-01	1.73127186e-02	2.34958765e-04
2.88000000e-01	1.75387273e-02	2.37850931e-04
2.88500000e-01	1.74715388e-02	2.37811857e-04
2.89000000e-01	1.73880528e-02	2.37357914e-04
2.89500000e-01	1.75166172e-02	2.38041084e-04
2.90000000e-01	1.75787323e-02	2.38152256e-04
2.90500000e-01	1.74758639e-02	2.37583272e-04
2.91000000e-01	1.73902762e-02	2.34692270e-04
2.91500000e-01	1.73421088e-02	2.33575445e-04
2.92000000e-01	1.74551376e-02	2.34786805e-04
2.92500000e-01	1.72692053e-02	2.32966805e-04
2.93000000e-01	1.73142363e-02	2.32851190e-04
2.93500000e-01	1.75047429e-02	2.34336340e-04
2.94000000e-01	1.73516415e-02	2.32184537e-04
2.94500000e-01	1.74571873e-02	2.34861366e-04
2.95000000e-01	1.70972308e-02	2.28956138e-04
2.95500000e-01	1.73855451e-02	2.34104215e-04
2.96000000e-01	1.74217277e-02	2.32801735e-04
2.96500000e-01	1.74599439e-02	2.33231714e-04
2.97000000e-01	1.71657597e-02	2.29743954e-04
2.97500000e-01	1.73850602e-02	2.31292177e-04
2.98000000e-01	1.73786888e-02	2.31739532e-04
2.98500000e-01	1.72770853e-02	2.31194070e-04
2.99000000e-01	1.72852888e-02	2.30695921e-04
2.99500000e-01	1.73184019e-02	2.31497457e-04
3.00000000e-01	1.72238031e-02	2.29322533e-04
3.00500000e-01	1.73064028e-02	2.30057057e-04
3.01000000e-01	1.72653625e-02	2.28768976e-04
3.01500000e-01	1.72757847e-02	2.29950906e-04
3.02000000e-01	1.68266580e-02	2.24311195e-04
3.02500000e-01	1.72341307e-02	2.28366663e-04
3.03000000e-01	1.72442634e-02	2.28762019e-04
3.03500000e-01	1.71744818e-02	2.26439097e-04
3.04000000e-01	1.72912263e-02	2.29496945e-04
3.04500000e-01	1.70274772e-02	2.25538134e-04
3.05000000e-01	1.72368317e-02	2.27416582e-04
3.05500000e-01	1.70656247e-02	2.25433264e-04
3.06000000e-01	1.72334882e-02	2.26304161e-04
3.06500000e-01	1.71354445e-02	2.26399022e-04
3.07000000e-01	1.71089663e-02	2.24402125e-04
3.07500000e-01	1.70555311e-02	2.24704345e-04
3.08000000e-01	1.71889222e-02	2.26177783e-04
3.08500000e-01	1.71197882e-02	2.23888291e-04
3.09000000e-01	1.71408329e-02	2.24750490e-04
3.09500000e-01	1.69256441e-02	2.21312478e-04
3.10000000e-01	1.72031381e-02	2.25251359e-04
3.10500000e-01	1.71837066e-02	2.24973233e-04
3.11000000e-01	1.71191266e-02	2.23696948e-04
3.11500000e-01	1.73020757e-02	2.25576343e-04
3.12000000e-01	1.71597740e-02	2.23608697e-04
3.12500000e-01	1.71171610e-02	2.22717329e-04
3.13000000e-01	1.69030403e-02	2.21108341e-04
3.13500000e-01	1.71269623e-02	2.23084763e-04
3.14000000e-01	1.70417926e-02	2.22411987e-04
3.14500000e-01	1.69063813e-02	2.19604220e-04
3.15000000e-01	1.69480416e-02	2.20499675e-04
3.15500000e-01	1.70948328e-02	2.21805982e-04
3.16000000e-01	1.69258403e-02	2.20671190e-04
3.16500000e-01	1.68508131e-02	2.18436458e-04
3.17000000e-01	1.71318923e-02	2.22430002e-04
3.17500000e-01	1.65856320e-02	2.16236935e-04
3.18000000e-01	1.68768673e-02	2.18922400e-04
3.18500000e-01	1.69301092e-02	2.19066409e-04
3.19000000e-01	1.70856853e-02	2.20362127e-04
3.19500000e-01	1.70428169e-02	2.20362285e-04
3.20000000e-01	1.70118445e-02	2.19771631e-04
3.20500000e-01	1.70121809e-02	2.19679378e-04
3.21000000e-01	1.67736644e-02	2.16030802e-04
3.21500000e-01	1.68642500e-02	2.16729092e-04
3.22000000e-01	1.67714874e-02	2.16278787e-04
3.22500000e-01	1.68263731e-02	2.15952604e-04
3.23000000e-01	1.69031305e-02	2.17444108e-04
3.23500000e-01	1.68201858e-02	2.15913470e-04
3.24000000e-01	1.69017146e-02	2.16640883e-04
3.24500000e-01	1.68288757e-02	2.16651534e-04
3.25000000e-01	1.68629494e-02	2.15787647e-04
3.25500000e-01	1.66465111e-02	2.12588091e-04
3.26000000e-01	1.66978200e-02	2.14395984e-04
3.26500000e-01	1.65648735e-02	2.11749459e-04
3.27000000e-01	1.67323008e-02	2.14064747e-04
3.27500000e-01	1.68642105e-02	2.15741482e-04
3.28000000e-01	1.66470802e-02	2.12489718e-04
3.28500000e-01	1.69565436e-02	2.16185054e-04
3.29000000e-01	1.68096230e-02	2.13093543e-04
3.29500000e-01	1.65685131e-02	2.11546089e-04
3.30000000e-01	1.68450474e-02	2.14545065e-04
3.30500000e-01	1.67255691e-02	2.12264606e-04
3.31000000e-01	1.65385466e-02	2.09643884e-04
3.31500000e-01	1.66696182e-02	2.11473697e-04
3.32000000e-01	1.66139443e-02	2.10970592e-04
3.32500000e-01	1.66837466e-02	2.10717181e-04
3.33000000e-01	1.64126850e-02	2.07776044e-04
3.33500000e-01	1.63984005e-02	2.07265934e-04
3.34000000e-01	1.68910216e-02	2.13871443e-04
3.34500000e-01	1.66085049e-02	2.10112341e-04
3.35000000e-01	1.65285207e-02	2.08719149e-04
3.35500000e-01	1.66344462e-02	2.10257891e-04
3.36000000e-01	1.66125377e-02	2.09260185e-04
3.36500000e-01	1.65818339e-02	2.09271595e-04
3.37000000e-01	1.68501780e-02	2.11602143e-04
3.37500000e-01	1.65192579e-02	2.08137717e-04
3.38000000e-01	1.63499007e-02	2.05480530e-04
3.38500000e-01	1.64880867e-02	2.06510352e-04
3.39000000e-01	1.66485465e-02	2.09724782e-04
3.39500000e-01	1.65476854e-02	2.07216224e-04
3.40000000e-01	1.65138193e-02	2.07657921e-04
3.40500000e-01	1.68611103e-02	2.10715945e-04
3.41000000e-01	1.64358732e-02	2.05238756e-04
3.41500000e-01	1.63594792e-02	2.05561508e-04
3.42000000e-01	1.64298040e-02	2.05286499e-04
3.42500000e-01	1.64198629e-02	2.05142025e-04
3.43000000e-01	1.63914557e-02	2.04868730e-04
3.43500000e-01	1.65373176e-02	2.05415468e-04
3.44000000e-01	1.64744357e-02	2.05901176e-04
3.44500000e-01	1.63939884e-02	2.04157864e-04
3.45000000e-01	1.63648410e-02	2.03820444e-04
3.45500000e-01	1.65034227e-02	2.04727832e-04
3.46000000e-01	1.66466005e-02	2.07416326e-04
3.46500000e-01	1.62811580e-02	2.02686111e-04
3.47000000e-01	1.64539223e-02	2.04097131e-04
3.47500000e-01	1.65606231e-02	2.05503723e-04
3.48000000e-01	1.62718608e-02	2.01594745e-04
3.48500000e-01	1.64285130e-02	2.03525689e-04
3.49000000e-01	1.63311298e-02	2.01645419e-04
3.49500000e-01	1.63284055e-02	2.02413987e-04
3.50000000e-01	1.64502266e-02	1.66249157e-04
3.51000000e-01	1.62777301e-02	1.42244665e-04
3.52000000e-01	1.62115450e-02	1.41514622e-04
3.53000000e-01	1.64322622e-02	1.42269681e-04
3.54000000e-01	1.61429715e-02	1.40350119e-04
3.55000000e-01	1.62688457e-02	1.41226171e-04
3.56000000e-01	1.61660073e-02	1.41235849e-04
3.57000000e-01	1.62564228e-02	1.44312851e-04
3.58000000e-01	1.63252420e-02	1.46064529e-04
3.59000000e-01	1.60642823e-02	1.44543481e-04
3.60000000e-01	1.60325014e-02	1.45476868e-04
3.61000000e-01	1.62492723e-02	1.48106838e-04
3.62000000e-01	1.61940667e-02	1.48329322e-04
3.63000000e-01	1.59594108e-02	1.46967675e-04
3.64000000e-01	1.61889873e-02	1.49890547e-04
3.65000000e-01	1.60488563e-02	1.48417659e-04
3.66000000e-01	1.60319373e-02	1.46918769e-04
3.67000000e-01	1.60589197e-02	1.45103383e-04
3.68000000e-01	1.60311934e-02	1.43565058e-04
3.69000000e-01	1.59488113e-02	1.42340097e-04
3.70000000e-01	1.60597884e-02	1.42541322e-04
3.71000000e-01	1.60462910e-02	1.44250712e-04
3.72000000e-01	1.58681799e-02	1.43813440e-04
3.73000000e-01	1.60314593e-02	1.45144744e-04
3.74000000e-01	1.59167035e-02	1.44421099e-04
3.75000000e-01	1.59385411e-02	1.45095876e-04
3.76000000e-01	1.59279105e-02	1.44395371e-04
3.77000000e-01	1.59103010e-02	1.44459732e-04
3.78000000e-01	1.58657999e-02	1.43737397e-04
3.79000000e-01	1.59477387e-02	1.44456955e-04
3.80000000e-01	1.58029675e-02	1.43406919e-04
3.81000000e-01	1.59521481e-02	1.44185941e-04
3.82000000e-01	1.59071585e-02	1.44307082e-04
3.83000000e-01	1.59006662e-02	1.43695802e-04
3.84000000e-01	1.57773398e-02	1.42783792e-04
3.85000000e-01	1.58890997e-02	1.43978036e-04
3.86000000e-01	1.57925770e-02	1.43031318e-04
3.87000000e-01	1.57155651e-02	1.42542820e-04
3.88000000e-01	1.57472527e-02	1.42381701e-04
3.89000000e-01	1.56659303e-02	1.41754290e-04
3.90000000e-01	1.56599903e-02	1.41199891e-04
3.91000000e-01	1.57561014e-02	1.42247275e-04
3.92000000e-01	1.57359287e-02	1.42068639e-04
3.93000000e-01	1.58256608e-02	1.42609980e-04
3.94000000e-01	1.55670954e-02	1.40584830e-04
3.95000000e-01	1.55815732e-02	1.40928661e-04
3.96000000e-01	1.55574958e-02	1.40333157e-04
3.97000000e-01	1.55298495e-02	1.40373011e-04
3.98000000e-01	1.56416573e-02	1.41401438e-04
3.99000000e-01	1.55858646e-02	1.41035933e-04
4.00000000e-01	1.55201570e-02	1.40587564e-04
4.01000000e-01	1.55776068e-02	1.40596758e-04
4.02000000e-01	1.55680947e-02	1.40488809e-04
4.03000000e-01	1.54703281e-02	1.39974699e-04
4.04000000e-01	1.54640386e-02	1.39796001e-04
4.05000000e-01	1.55965893e-02	1.41079998e-04
4.06000000e-01	1.55165991e-02	1.39880032e-04
4.07000000e-01	1.54947477e-02	1.39986979e-04
4.08000000e-01	1.54754775e-02	1.39630802e-04
4.09000000e-01	1.54140492e-02	1.38775629e-04
4.10000000e-01	1.55014815e-02	1.39593068e-04
4.11000000e-01	1.54665545e-02	1.39490971e-04
4.12000000e-01	1.54445034e-02	1.38948925e-04
4.13000000e-01	1.55246235e-02	1.39176364e-04
4.14000000e-01	1.53852834e-02	1.38308345e-04
4.15000000e-01	1.53600294e-02	1.38192018e-04
4.16000000e-01	1.54587186e-02	1.39064838e-04
4.17000000e-01	1.54858128e-02	1.39073317e-04
4.18000000e-01	1.53691442e-02	1.40139840e-04
4.19000000e-01	1.55862985e-02	1.43371864e-04
4.20000000e-01	1.55006963e-02	1.43279945e-04
4.21000000e-01	1.54186061e-02	1.43067491e-04
4.22000000e-01	1.54013477e-02	1.43398113e-04
4.23000000e-01	1.54621555e-02	1.44690720e-04
4.24000000e-01	1.54566251e-02	1.45047226e-04
4.25000000e-01	1.55262498e-02	1.45271598e-04
4.26000000e-01	1.53790477e-02	1.44300631e-04
4.27000000e-01	1.53865627e-02	1.44268992e-04
4.28000000e-01	1.53335656e-02	1.44052669e-04
4.29000000e-01	1.54379458e-02	1.45139907e-04
4.30000000e-01	1.54147876e-02	1.45227259e-04
4.31000000e-01	1.53917759e-02	1.44344676e-04
4.32000000e-01	1.53319396e-02	1.43926039e-04
4.33000000e-01	1.53618595e-02	1.45175589e-04
4.34000000e-01	1.52922159e-02	1.44298561e-04
4.35000000e-01	1.52762628e-02	1.44041875e-04
4.36000000e-01	1.53327415e-02	1.44978750e-04
4.37000000e-01	1.52906814e-02	1.45059295e-04
4.38000000e-01	1.53249654e-02	1.45257925e-04
4.39000000e-01	1.52848607e-02	1.45018354e-04
4.40000000e-01	1.53045724e-02	1.45416615e-04
4.41000000e-01	1.51761616e-02	1.44371868e-04
4.42000000e-01	1.52221768e-02	1.45448545e-04
4.43000000e-01	1.51774991e-02	1.45188438e-04
4.44000000e-01	1.53120148e-02	1.46050173e-04
4.45000000e-01	1.52098176e-02	1.45569281e-04
4.46000000e-01	1.51701346e-02	1.45517639e-04
4.47000000e-01	1.50897685e-02	1.44926752e-04
4.48000000e-01	1.51733448e-02	1.45459970e-04
4.49000000e-01	1.52094520e-02	1.46011890e-04
4.50000000e-01	1.50662886e-02	1.45262856e-04
4.51000000e-01	1.51880339e-02	1.46188326e-04
4.52000000e-01	1.51415817e-02	1.45815862e-04
4.53000000e-01	1.49483960e-02	1.44187447e-04
4.54000000e-01	1.51676193e-02	1.46356507e-04
4.55000000e-01	1.51243515e-02	1.46418342e-04
4.56000000e-01	1.51446237e-02	1.46313234e-04
4.57000000e-01	1.52073943e-02	1.46849162e-04
4.58000000e-01	1.50836105e-02	1.46277022e-04
4.59000000e-01	1.51085475e-02	1.46640155e-04
4.60000000e-01	1.51520962e-02	1.46683605e-04
4.61000000e-01	1.50261972e-02	1.45835947e-04
4.62000000e-01	1.50927375e-02	1.46494711e-04
4.63000000e-01	1.49557672e-02	1.45375439e-04
4.64000000e-01	1.51520496e-02	1.47788024e-04
4.65000000e-01	1.50000160e-02	1.46119218e-04
4.66000000e-01	1.51295310e-02	1.47544608e-04
4.67000000e-01	1.50796791e-02	1.46870606e-04
4.68000000e-01	1.50339118e-02	1.46851062e-04
4.69000000e-01	1.48277524e-02	1.45011156e-04
4.70000000e-01	1.50444995e-02	1.47198216e-04
4.71000000e-01	1.49527066e-02	1.46196642e-04
4.72000000e-01	1.48940871e-02	1.45587683e-04
4.73000000e-01	1.48900416e-02	1.45110513e-04
4.74000000e-01	1.49544719e-02	1.45513850e-04
4.75000000e-01	1.49863836e-02	1.46066698e-04
4.76000000e-01	1.48037211e-02	1.44762523e-04
4.77000000e-01	1.48835725e-02	1.45451125e-04
4.78000000e-01	1.49035825e-02	1.45767143e-04
4.79000000e-01	1.48388405e-02	1.44917941e-04
4.80000000e-01	1.48770824e-02	1.45689021e-04
4.81000000e-01	1.48798055e-02	1.45786050e-04
4.82000000e-01	1.47795464e-02	1.45048026e-04
4.83000000e-01	1.47607498e-02	1.44812718e-04
4.84000000e-01	1.48860632e-02	1.45729100e-04
4.85000000e-01	1.46491801e-02	1.43992897e-04
4.86000000e-01	1.48460035e-02	1.45764673e-04
4.87000000e-01	1.48698189e-02	1.45860895e-04
4.88000000e-01	1.49171792e-02	1.46687842e-04
4.89000000e-01	1.47771117e-02	1.45659036e-04
4.90000000e-01	1.47242696e-02	1.45004165e-04
4.91000000e-01	1.46246924e-02	1.44086316e-04
4.92000000e-01	1.48031843e-02	1.46180715e-04
4.93000000e-01	1.48286030e-02	1.46085152e-04
4.94000000e-01	1.48206380e-02	1.46471185e-04
4.95000000e-01	1.47221199e-02	1.45892803e-04
4.96000000e-01	1.46504725e-02	1.49838158e-04
4.97000000e-01	1.47605921e-02	1.53620158e-04
4.98000000e-01	1.47919219e-02	1.56426462e-04
4.99000000e-01	1.47665458e-02	1.57968169e-04
5.00000000e-01	1.46800914e-02	1.58806176e-04
5.01000000e-01	1.46416912e-02	1.59411198e-04
5.02000000e-01	1.47619729e-02	1.62423109e-04
5.03000000e-01	1.45354755e-02	1.61767828e-04
5.04000000e-01	1.46986931e-02	1.65489368e-04
5.05000000e-01	1.46336256e-02	1.61315397e-04
5.06000000e-01	1.47609839e-02	1.59138568e-04
5.07000000e-01	1.46811748e-02	1.56715092e-04
5.08000000e-01	1.47376416e-02	1.56579960e-04
5.09000000e-01	1.48158285e-02	1.56388111e-04
5.10000000e-01	1.47391269e-02	1.55201726e-04
5.11000000e-01	1.45860594e-02	1.53310154e-04
5.12000000e-01	1.46519073e-02	1.53277647e-04
5.13000000e-01	1.47549852e-02	1.54585665e-04
5.14000000e-01	1.47716080e-02	1.53828123e-04
5.15000000e-01	1.46143275e-02	1.51771013e-04
5.16000000e-01	1.45315989e-02	1.51599145e-04
5.17000000e-01	1.45960716e-02	1.51833232e-04
5.18000000e-01	1.46925735e-02	1.52149671e-04
5.19000000e-01	1.44662064e-02	1.49673648e-04
5.20000000e-01	1.46108566e-02	1.50745096e-04
5.21000000e-01	1.45658818e-02	1.50272716e-04
5.22000000e-01	1.46234485e-02	1.50400644e-04
5.23000000e-01	1.45754280e-02	1.49901189e-04
5.24000000e-01	1.45190819e-02	1.49809284e-04
5.25000000e-01	1.45563872e-02	1.49999880e-04
5.26000000e-01	1.44737950e-02	1.48713496e-04
5.27000000e-01	1.43665182e-02	1.47991815e-04
5.28000000e-01	1.44355528e-02	1.48288111e-04
5.29000000e-01	1.44529644e-02	1.48920048e-04
5.30000000e-01	1.44942165e-02	1.48890432e-04
5.31000000e-01	1.44279258e-02	1.48760627e-04
5.32000000e-01	1.43749186e-02	1.48382444e-04
5.33000000e-01	1.44191403e-02	1.48084291e-04
5.34000000e-01	1.43349637e-02	1.47885204e-04
5.35000000e-01	1.43964301e-02	1.48011185e-04
5.36000000e-01	1.44448943e-02	1.48590884e-04
5.37000000e-01	1.43782500e-02	1.48143442e-04
5.38000000e-01	1.43528246e-02	1.47767189e-04
5.39000000e-01	1.43889199e-02	1.47718096e-04
5.40000000e-01	1.44777804e-02	1.48763240e-04
5.41000000e-01	1.43563769e-02	1.47330541e-04
5.42000000e-01	1.43525416e-02	1.47379235e-04
5.43000000e-01	1.43300232e-02	1.47244162e-04
5.44000000e-01	1.43170373e-02	1.47415575e-04
5.45000000e-01	1.43254507e-02	1.47646787e-04
5.46000000e-01	1.43483201e-02	1.47596440e-04
5.47000000e-01	1.43037858e-02	1.47093513e-04
5.48000000e-01	1.43684110e-02	1.47566267e-04
5.49000000e-01	1.42350183e-02	1.46292014e-04
5.50000000e-01	1.41981095e-02	1.45992380e-04
5.51000000e-01	1.42715700e-02	1.46462869e-04
5.52000000e-01	1.42056023e-02	1.45849462e-04
5.53000000e-01	1.41501352e-02	1.44918490e-04
5.54000000e-01	1.41457436e-02	1.44662655e-04
5.55000000e-01	1.41802184e-02	1.45128842e-04
5.56000000e-01	1.42804687e-02	1.45869069e-04
5.57000000e-01	1.41994024e-02	1.45265642e-04
5.58000000e-01	1.41942612e-02	1.45292542e-04
5.59000000e-01	1.40298835e-02	1.43246066e-04
5.60000000e-01	1.41733752e-02	1.44701511e-04
5.61000000e-01	1.41762338e-02	1.44665220e-04
5.62000000e-01	1.40589740e-02	1.44621800e-04
5.63000000e-01	1.39991521e-02	1.43437271e-04
5.64000000e-01	1.41579398e-02	1.44939778e-04
5.65000000e-01	1.40732855e-02	1.44255702e-04
5.66000000e-01	1.39679829e-02	1.43080417e-04
5.67000000e-01	1.41967559e-02	1.45443805e-04
5.68000000e-01	1.42143565e-02	1.44938873e-04
5.69000000e-01	1.40183757e-02	1.43514866e-04
5.70000000e-01	1.40192525e-02	1.43418576e-04
5.71000000e-01	1.40507524e-02	1.43856768e-04
5.72000000e-01	1.39478673e-02	1.42488489e-04
5.73000000e-01	1.39698057e-02	1.43304956e-04
5.74000000e-01	1.39037754e-02	1.42736169e-04
5.75000000e-01	1.40461828e-02	1.43705603e-04
5.76000000e-01	1.39114372e-02	1.42514179e-04
5.77000000e-01	1.40350449e-02	1.44085520e-04
5.78000000e-01	1.38219441e-02	1.41892313e-04
5.79000000e-01	1.39413700e-02	1.43099748e-04
5.80000000e-01	1.40297517e-02	1.43658771e-04
5.81000000e-01	1.36622726e-02	1.40880919e-04
5.82000000e-01	1.40089947e-02	1.43573824e-04
5.83000000e-01	1.38423924e-02	1.42802857e-04
5.84000000e-01	1.38627602e-02	1.42232776e-04
5.85000000e-01	1.39511997e-02	1.43290317e-04
5.86000000e-01	1.38398725e-02	1.42408924e-04
5.87000000e-01	1.36620446e-02	1.40675190e-04
5.88000000e-01	1.39228465e-02	1.43013887e-04
5.89000000e-01	1.37208460e-02	1.41559748e-04
5.90000000e-01	1.39393276e-02	1.42528828e-04
5.91000000e-01	1.37589859e-02	1.42048498e-04
5.92000000e-01	1.39158381e-02	1.43185403e-04
5.93000000e-01	1.37337329e-02	1.40979788e-04
5.94000000e-01	1.38275427e-02	1.42213073e-04
5.95000000e-01	1.37925288e-02	1.42061785e-04
5.96000000e-01	1.38109094e-02	1.42368498e-04
5.97000000e-01	1.36626798e-02	1.40603152e-04
5.98000000e-01	1.38060750e-02	1.42436177e-04
5.99000000e-01	1.37096315e-02	1.41424145e-04
6.00000000e-01	1.37193526e-02	1.41022464e-04
6.01000000e-01	1.38071587e-02	1.42247624e-04
6.02000000e-01	1.36913674e-02	1.40804423e-04
6.03000000e-01	1.36715078e-02	1.40999389e-04
6.04000000e-01	1.38810783e-02	1.42750841e-04
6.05000000e-01	1.37338049e-02	1.41756476e-04
6.06000000e-01	1.37017741e-02	1.41462458e-04
6.07000000e-01	1.37001996e-02	1.41181759e-04
6.08000000e-01	1.35830338e-02	1.39899595e-04
6.09000000e-01	1.36553110e-02	1.40913208e-04
6.10000000e-01	1.36880416e-02	1.41383922e-04
6.11000000e-01	1.37098949e-02	1.41421772e-04
6.12000000e-01	1.36971281e-02	1.41359840e-04
6.13000000e-01	1.35649319e-02	1.40706147e-04
6.14000000e-01	1.34952006e-02	1.39691783e-04
6.15000000e-01	1.36090518e-02	1.40398111e-04
6.16000000e-01	1.36769750e-02	1.41544919e-04
6.17000000e-01	1.35558693e-02	1.40068051e-04
6.18000000e-01	1.36683177e-02	1.41387254e-04
6.19000000e-01	1.35565613e-02	1.39724052e-04
6.20000000e-01	1.35821405e-02	1.39748153e-04
6.21000000e-01	1.35871449e-02	1.39551022e-04
6.22000000e-01	1.36402265e-02	1.40210045e-04
6.23000000e-01	1.34459686e-02	1.38055468e-04
6.24000000e-01	1.35379126e-02	1.38794001e-04
6.25000000e-01	1.34560208e-02	1.38257113e-04
6.26000000e-01	1.35216808e-02	1.38872217e-04
6.27000000e-01	1.35304649e-02	1.39139694e-04
6.28000000e-01	1.35158974e-02	1.38840079e-04
6.29000000e-01	1.34492243e-02	1.37549502e-04
6.30000000e-01	1.35724054e-02	1.39518706e-04
6.31000000e-01	1.35017564e-02	1.38371884e-04
6.32000000e-01	1.35291306e-02	1.38709998e-04
6.33000000e-01	1.36365754e-02	1.39753119e-04
6.34000000e-01	1.35233260e-02	1.42395847e-04
6.35000000e-01	1.35414246e-02	1.46397354e-04
6.36000000e-01	1.34897506e-02	1.48680083e-04
6.37000000e-01	1.34850617e-02	1.50911087e-04
6.38000000e-01	1.36974398e-02	1.55122629e-04
6.39000000e-01	1.36402007e-02	1.57147834e-04
6.40000000e-01	1.36857330e-02	1.58835187e-04
6.41000000e-01	1.35217497e-02	1.58748059e-04
6.42000000e-01	1.36195729e-02	1.61983760e-04
6.43000000e-01	1.34946107e-02	1.60332964e-04
6.44000000e-01	1.35751205e-02	1.55550462e-04
6.45000000e-01	1.36280896e-02	1.53811525e-04
6.46000000e-01	1.35204086e-02	1.51376771e-04
6.47000000e-01	1.35102602e-02	1.50247932e-04
6.48000000e-01	1.36139749e-02	1.49849668e-04
6.49000000e-01	1.35137013e-02	1.48334039e-04
6.50000000e-01	1.36549245e-02	1.49243468e-04
6.51000000e-01	1.33382359e-02	1.45316181e-04
6.52000000e-01	1.34571426e-02	1.46146058e-04
6.53000000e-01	1.34028904e-02	1.44970372e-04
6.54000000e-01	1.34853915e-02	1.45150187e-04
6.55000000e-01	1.33689938e-02	1.43817208e-04
6.56000000e-01	1.35465996e-02	1.44858436e-04
6.57000000e-01	1.34372436e-02	1.44120401e-04
6.58000000e-01	1.33406890e-02	1.42470374e-04
6.59000000e-01	1.36784938e-02	1.46413202e-04
6.60000000e-01	1.34836459e-02	1.44604933e-04
6.61000000e-01	1.33175524e-02	1.42214833e-04
6.62000000e-01	1.34502130e-02	1.43853937e-04
6.63000000e-01	1.35310798e-02	1.44407957e-04
6.64000000e-01	1.33807202e-02	1.42339140e-04
6.65000000e-01	1.35152235e-02	1.44519048e-04
6.66000000e-01	1.34929899e-02	1.43445893e-04
6.67000000e-01	1.35351909e-02	1.44275808e-04
6.68000000e-01	1.34360600e-02	1.42873064e-04
6.69000000e-01	1.33245955e-02	1.42412346e-04
6.70000000e-01	1.33233009e-02	1.41686315e-04
6.71000000e-01	1.33463997e-02	1.42248656e-04
6.72000000e-01	1.34430302e-02	1.43002758e-04
6.73000000e-01	1.33302981e-02	1.41651193e-04
6.74000000e-01	1.32052666e-02	1.40607969e-04
6.75000000e-01	1.34280968e-02	1.42572509e-04
6.76000000e-01	1.33955182e-02	1.42347369e-04
6.77000000e-01	1.33779408e-02	1.41787220e-04
6.78000000e-01	1.33375310e-02	1.41483381e-04
6.79000000e-01	1.33935531e-02	1.41872488e-04
6.80000000e-01	1.33882226e-02	1.41899298e-04
6.81000000e-01	1.33245763e-02	1.41355384e-04
6.82000000e-01	1.32447863e-02	1.40888052e-04
6.83000000e-01	1.32253982e-02	1.40102609e-04
6.84000000e-01	1.32571857e-02	1.40912683e-04
6.85000000e-01	1.31854322e-02	1.39712857e-04
6.86000000e-01	1.31938358e-02	1.40401419e-04
6.87000000e-01	1.33380049e-02	1.41333362e-04
6.88000000e-01	1.33494103e-02	1.40958202e-04
6.89000000e-01	1.31635615e-02	1.38966727e-04
6.90000000e-01	1.32625442e-02	1.40133970e-04
6.91000000e-01	1.32886838e-02	1.40755132e-04
6.92000000e-01	1.30699458e-02	1.38046407e-04
6.93000000e-01	1.32349330e-02	1.40677874e-04
6.94000000e-01	1.31065466e-02	1.38783145e-04
6.95000000e-01	1.31472185e-02	1.39203719e-04
6.96000000e-01	1.31714148e-02	1.39754317e-04
6.97000000e-01	1.32025128e-02	1.39447751e-04
6.98000000e-01	1.31096132e-02	1.38938004e-04
6.99000000e-01	1.31940777e-02	1.39442225e-04
7.00000000e-01	1.31721091e-02	1.39445355e-04
7.01000000e-01	1.30286771e-02	1.38052967e-04
7.02000000e-01	1.30610978e-02	1.38347247e-04
7.03000000e-01	1.30815019e-02	1.38640780e-04
7.04000000e-01	1.30987323e-02	1.38909352e-04
7.05000000e-01	1.29722111e-02	1.37760431e-04
7.06000000e-01	1.30892120e-02	1.38130177e-04
7.07000000e-01	1.30882165e-02	1.38136063e-04
7.08000000e-01	1.30460412e-02	1.37596477e-04
7.09000000e-01	1.30397051e-02	1.37678908e-04
7.10000000e-01	1.30937420e-02	1.38964423e-04
7.11000000e-01	1.29533050e-02	1.37239248e-04
7.12000000e-01	1.30286457e-02	1.37569999e-04
7.13000000e-01	1.28859386e-02	1.36097558e-04
7.14000000e-01	1.29728309e-02	1.36958154e-04
7.15000000e-01	1.29694480e-02	1.37288084e-04
7.16000000e-01	1.29915904e-02	1.37266798e-04
7.17000000e-01	1.28586231e-02	1.36235370e-04
7.18000000e-01	1.29408023e-02	1.37015906e-04
7.19000000e-01	1.28413455e-02	1.36310788e-04
7.20000000e-01	1.29840405e-02	1.37345733e-04
7.21000000e-01	1.28523792e-02	1.36333209e-04
7.22000000e-01	1.28446308e-02	1.36203911e-04
7.23000000e-01	1.28893745e-02	1.36126138e-04
7.24000000e-01	1.28327385e-02	1.35623679e-04
7.25000000e-01	1.28087494e-02	1.35968620e-04
7.26000000e-01	1.27076498e-02	1.34905732e-04
7.27000000e-01	1.28573879e-02	1.36532836e-04
7.28000000e-01	1.27301927e-02	1.34741473e-04
7.29000000e-01	1.28233363e-02	1.35854060e-04
7.30000000e-01	1.27294066e-02	1.35073374e-04
7.31000000e-01	1.27117537e-02	1.35036034e-04
7.32000000e-01	1.27705675e-02	1.35503262e-04
7.33000000e-01	1.26982495e-02	1.34740247e-04
7.34000000e-01	1.27114454e-02	1.34731738e-04
7.35000000e-01	1.27745574e-02	1.34657734e-04
7.36000000e-01	1.28647012e-02	1.35463909e-04
7.37000000e-01	1.26396441e-02	1.33127169e-04
7.38000000e-01	1.26597156e-02	1.33098613e-04
7.39000000e-01	1.25987521e-02	1.32589863e-04
7.40000000e-01	1.26087202e-02	1.32622722e-04
7.41000000e-01	1.26173658e-02	1.32267179e-04
7.42000000e-01	1.25515272e-02	1.31792145e-04
7.43000000e-01	1.25911610e-02	1.32429090e-04
7.44000000e-01	1.26463958e-02	1.32555065e-04
7.45000000e-01	1.25624747e-02	1.31938283e-04
7.46000000e-01	1.27443895e-02	1.33873732e-04
7.47000000e-01	1.26331198e-02	1.32454241e-04
7.48000000e-01	1.26169268e-02	1.32315116e-04
7.49000000e-01	1.26385327e-02	1.32648104e-04
7.50000000e-01	1.25337404e-02	1.31969736e-04
7.51000000e-01	1.26126652e-02	1.32513250e-04
7.52000000e-01	1.25074090e-02	1.31091979e-04
7.53000000e-01	1.24570804e-02	1.31067586e-04
7.54000000e-01	1.25521939e-02	1.31755490e-04
7.55000000e-01	1.24783146e-02	1.31351952e-04
7.56000000e-01	1.24815735e-02	1.31266677e-04
7.57000000e-01	1.25779313e-02	1.32092116e-04
7.58000000e-01	1.25188380e-02	1.31713517e-04
7.59000000e-01	1.25970406e-02	1.31979712e-04
7.60000000e-01	1.24694886e-02	1.30771883e-04
7.61000000e-01	1.23831401e-02	1.29504148e-04
7.62000000e-01	1.25206619e-02	1.31014678e-04
7.63000000e-01	1.24026155e-02	1.29546215e-04
7.64000000e-01	1.24145965e-02	1.29617169e-04
7.65000000e-01	1.23552707e-02	1.29021141e-04
7.66000000e-01	1.23846302e-02	1.29311771e-04
7.67000000e-01	1.24323185e-02	1.29437578e-04
7.68000000e-01	1.23679283e-02	1.28919962e-04
7.69000000e-01	1.24200251e-02	1.29320877e-04
7.70000000e-01	1.23356946e-02	1.28943963e-04
7.71000000e-01	1.24820351e-02	1.30082781e-04
7.72000000e-01	1.23011482e-02	1.31717344e-04
7.73000000e-01	1.22161784e-02	1.35866242e-04
7.74000000e-01	1.24150919e-02	1.39863001e-04
7.75000000e-01	1.23349730e-02	1.41522306e-04
7.76000000e-01	1.22095935e-02	1.43075508e-04
7.77000000e-01	1.22351498e-02	1.45384046e-04
7.78000000e-01	1.22535020e-02	1.47153726e-04
7.79000000e-01	1.21951103e-02	1.48888247e-04
7.80000000e-01	1.23800366e-02	1.51851871e-04
7.81000000e-01	1.21434922e-02	1.51487359e-04
7.82000000e-01	1.22521901e-02	1.54075639e-04
7.83000000e-01	1.23132523e-02	1.56729825e-04
7.84000000e-01	1.20208385e-02	1.54504123e-04
7.85000000e-01	1.22548106e-02	1.59529682e-04
7.86000000e-01	1.22973875e-02	1.61168164e-04
7.87000000e-01	1.23444835e-02	1.62860846e-04
7.88000000e-01	1.21697931e-02	1.62943628e-04
7.89000000e-01	1.21108268e-02	1.63568001e-04
7.90000000e-01	1.21744484e-02	1.66185161e-04
7.91000000e-01	1.21585177e-02	1.66977128e-04
7.92000000e-01	1.20154112e-02	1.67596411e-04
7.93000000e-01	1.21080119e-02	1.70599497e-04
7.94000000e-01	1.21557016e-02	1.71890088e-04
7.95000000e-01	1.20557907e-02	1.73328693e-04
7.96000000e-01	1.20961951e-02	1.76152968e-04
7.97000000e-01	1.19821007e-02	1.75539073e-04
7.98000000e-01	1.20295564e-02	1.78192076e-04
7.99000000e-01	1.19356513e-02	1.78735734e-04
8.00000000e-01	1.21436165e-02	1.83986309e-04
8.01000000e-01	1.19771977e-02	1.83466959e-04
8.02000000e-01	1.20299561e-02	1.85894060e-04
8.03000000e-01	1.19096816e-02	1.86300627e-04
8.04000000e-01	1.20121889e-02	1.89636782e-04
8.05000000e-01	1.18988405e-02	1.89463525e-04
8.06000000e-01	1.20549214e-02	1.94004037e-04
8.07000000e-01	1.18707887e-02	1.93382161e-04
8.08000000e-01	1.20167303e-02	1.98880666e-04
8.09000000e-01	1.21035788e-02	2.01567521e-04
8.10000000e-01	1.19096886e-02	2.00401353e-04
8.11000000e-01	1.18898854e-02	2.02162110e-04
8.12000000e-01	1.16349451e-02	2.01761030e-04
8.13000000e-01	1.18888470e-02	2.07633145e-04
8.14000000e-01	1.15601365e-02	2.04244514e-04
8.15000000e-01	1.19221634e-02	2.13857013e-04
8.16000000e-01	1.16440218e-02	2.11133288e-04
8.17000000e-01	1.19135294e-02	2.18518932e-04
8.18000000e-01	1.16849629e-02	2.16228938e-04
8.19000000e-01	1.16014714e-02	2.17610651e-04
8.20000000e-01	1.17437856e-02	2.24240715e-04
8.21000000e-01	1.15658201e-02	2.23162300e-04
8.22000000e-01	1.15869091e-02	2.26012994e-04
8.23000000e-01	1.17649751e-02	2.32182448e-04
8.24000000e-01	1.13407423e-02	2.28347876e-04
8.25000000e-01	1.17369995e-02	2.38007958e-04
8.26000000e-01	1.17826761e-02	2.44347026e-04
8.27000000e-01	1.17271883e-02	2.44940087e-04
8.28000000e-01	1.17494972e-02	2.47548014e-04
8.29000000e-01	1.14805959e-02	2.49069882e-04
8.30000000e-01	1.15721162e-02	2.52505959e-04
8.31000000e-01	1.18554849e-02	2.65642352e-04
8.32000000e-01	1.17638281e-02	2.64438711e-04
8.33000000e-01	1.15924628e-02	2.67283835e-04
8.34000000e-01	1.14494735e-02	2.68526560e-04
8.35000000e-01	1.16069564e-02	2.77599772e-04
8.36000000e-01	1.16393652e-02	2.84457573e-04
8.37000000e-01	1.15502144e-02	2.85833528e-04
8.38000000e-01	1.13203770e-02	2.85975790e-04
8.39000000e-01	1.13243083e-02	2.93348019e-04
8.40000000e-01	1.10879606e-02	2.94956948e-04
8.41000000e-01	1.14834687e-02	3.11907139e-04
8.42000000e-01	1.12960254e-02	3.10677748e-04
8.43000000e-01	1.16235738e-02	3.26436943e-04
8.44000000e-01	1.13320833e-02	3.24849463e-04
8.45000000e-01	1.14492816e-02	3.37814956e-04
8.46000000e-01	1.16987644e-02	3.55590314e-04
8.47000000e-01	1.14440453e-02	3.58248874e-04
8.48000000e-01	1.13229238e-02	3.65481672e-04
8.49000000e-01	1.11846964e-02	3.72295570e-04
8.50000000e-01	1.12426544e-02	3.86401149e-04
8.51000000e-01	1.10469430e-02	3.99053831e-04
8.52000000e-01	1.13138505e-02	4.21790955e-04
8.53000000e-01	1.12700913e-02	4.34595259e-04
8.54000000e-01	1.11601447e-02	4.56387172e-04
8.55000000e-01	1.10573484e-02	4.66031489e-04
8.56000000e-01	1.11546021e-02	4.84864613e-04
8.57000000e-01	1.12165478e-02	4.97756384e-04
8.58000000e-01	1.13154749e-02	5.24255811e-04
8.59000000e-01	1.13074868e-02	5.35694118e-04
8.60000000e-01	1.13150984e-02	5.53817473e-04
8.61000000e-01	1.12123359e-02	5.61563226e-04
8.62000000e-01	1.05392546e-02	5.57980628e-04
8.63000000e-01	1.09114048e-02	6.02516356e-04
8.64000000e-01	1.10220169e-02	6.26950230e-04
8.65000000e-01	1.10730360e-02	6.58093093e-04
8.66000000e-01	1.10286786e-02	6.87584299e-04
8.67000000e-01	1.01505704e-02	6.86775254e-04
8.68000000e-01	1.08142108e-02	7.59616480e-04
8.69000000e-01	1.06209526e-02	8.08763962e-04
8.70000000e-01	1.06260910e-02	8.85725958e-04
8.71000000e-01	1.04255069e-02	9.90564421e-04
8.72000000e-01	1.12143271e-02	1.17497618e-03
8.73000000e-01	1.07002972e-02	1.31159825e-03
8.74000000e-01	1.14467825e-02	1.83195037e-03
8.75000000e-01	9.79167586e-03	3.27005424e-03
