% Filename : SEC8_00040_00027.h5
% Date & Time : 30-Oct-2025 17:52:30
% X-ray Energy (keV) : 13.30001
% Exposure Time (s) : 0.500
% Beam Center : 1461.24000, 208.98300
% Sample to Detector Distance (SDD) (mm) : 1990.750
% Detector Pixel Size (mm) : 0.075
% Photodiode Value : 141594.000
% I0 of Sample : 0
% I0 of Standard : 1
% 
% q(A^-1)   I(q)    I(q)_SE
0.00000000e+00	6.37975179e-03	3.37584315e-03
2.50000000e-04	0.00000000e+00	0.00000000e+00
5.00000000e-04	0.00000000e+00	0.00000000e+00
7.50000000e-04	0.00000000e+00	0.00000000e+00
1.00000000e-03	0.00000000e+00	0.00000000e+00
1.25000000e-03	0.00000000e+00	0.00000000e+00
1.50000000e-03	0.00000000e+00	0.00000000e+00
1.75000000e-03	0.00000000e+00	0.00000000e+00
2.00000000e-03	0.00000000e+00	0.00000000e+00
2.25000000e-03	0.00000000e+00	0.00000000e+00
2.50000000e-03	0.00000000e+00	0.00000000e+00
2.75000000e-03	0.00000000e+00	0.00000000e+00
3.00000000e-03	0.00000000e+00	0.00000000e+00
3.25000000e-03	8.78540595e+02	6.01531933e+02
3.50000000e-03	2.49738449e+02	7.29480633e+01
3.75000000e-03	2.44800470e+02	7.48308099e+01
4.00000000e-03	1.79415476e+02	4.63822034e+01
4.25000000e-03	1.13176742e+02	2.44339319e+01
4.50000000e-03	9.93765065e+01	1.75141743e+01
4.75000000e-03	8.41252305e+01	1.29066973e+01
5.00000000e-03	6.92947726e+01	9.93934466e+00
5.25000000e-03	5.69038917e+01	8.03687113e+00
5.50000000e-03	4.57121401e+01	6.25270988e+00
5.75000000e-03	3.95020024e+01	5.21182944e+00
6.00000000e-03	3.13122686e+01	3.91257146e+00
6.25000000e-03	2.70033854e+01	3.34918860e+00
6.50000000e-03	2.33752929e+01	2.77057211e+00
6.75000000e-03	2.03974047e+01	2.41049176e+00
7.00000000e-03	1.79303253e+01	2.02196942e+00
7.25000000e-03	1.55877552e+01	1.70738451e+00
7.50000000e-03	1.37705293e+01	1.51842418e+00
7.75000000e-03	1.18642901e+01	1.24056092e+00
8.00000000e-03	1.07816588e+01	1.11227632e+00
8.25000000e-03	9.49652435e+00	9.37870765e-01
8.50000000e-03	8.48302165e+00	8.26009327e-01
8.75000000e-03	7.67339669e+00	7.46505191e-01
9.00000000e-03	6.77354925e+00	6.45036837e-01
9.25000000e-03	6.15635885e+00	5.65097899e-01
9.50000000e-03	5.45453700e+00	4.94773763e-01
9.75000000e-03	4.97266274e+00	4.46776741e-01
1.00000000e-02	4.51651785e+00	3.95543672e-01
1.02500000e-02	4.09156687e+00	3.58000928e-01
1.05000000e-02	3.90289218e+00	3.28814480e-01
1.07500000e-02	3.54858005e+00	2.98725194e-01
1.10000000e-02	3.20745633e+00	2.60426501e-01
1.12500000e-02	2.98106637e+00	2.47603604e-01
1.15000000e-02	2.76513050e+00	2.23941758e-01
1.17500000e-02	2.49896443e+00	1.95939023e-01
1.20000000e-02	2.32370815e+00	1.80266431e-01
1.22500000e-02	2.20139491e+00	1.67665496e-01
1.25000000e-02	2.04389699e+00	1.54194473e-01
1.27500000e-02	1.91452327e+00	1.43957464e-01
1.30000000e-02	1.77606509e+00	1.29875352e-01
1.32500000e-02	1.66966669e+00	1.19131917e-01
1.35000000e-02	1.55967720e+00	1.11702592e-01
1.37500000e-02	1.46751284e+00	1.04403725e-01
1.40000000e-02	1.35937613e+00	9.47220924e-02
1.42500000e-02	1.27948997e+00	8.80462152e-02
1.45000000e-02	1.21250349e+00	8.31415648e-02
1.47500000e-02	1.14238341e+00	7.77669171e-02
1.50000000e-02	1.08283438e+00	7.31856260e-02
1.52500000e-02	1.02390699e+00	6.83840089e-02
1.55000000e-02	9.54580273e-01	6.23851949e-02
1.57500000e-02	9.06475565e-01	5.93374803e-02
1.60000000e-02	8.58438510e-01	5.49496977e-02
1.62500000e-02	8.30781549e-01	5.39072286e-02
1.65000000e-02	7.69832430e-01	4.89213701e-02
1.67500000e-02	7.45445403e-01	4.66707314e-02
1.70000000e-02	7.02380620e-01	4.36186908e-02
1.72500000e-02	6.70933876e-01	4.13957623e-02
1.75000000e-02	6.27557315e-01	3.82636416e-02
1.77500000e-02	5.96035188e-01	3.58163606e-02
1.80000000e-02	5.80039669e-01	3.49852915e-02
1.82500000e-02	5.42066074e-01	3.16836532e-02
1.85000000e-02	5.16583755e-01	3.09893101e-02
1.87500000e-02	4.88082696e-01	2.85815523e-02
1.90000000e-02	4.72992791e-01	2.74178642e-02
1.92500000e-02	4.49365152e-01	2.56200245e-02
1.95000000e-02	4.28492233e-01	2.41247686e-02
1.97500000e-02	4.12219833e-01	2.35510072e-02
2.00000000e-02	3.85594941e-01	2.16004094e-02
2.02500000e-02	3.69405133e-01	2.03978481e-02
2.05000000e-02	3.57685158e-01	1.91831934e-02
2.07500000e-02	3.41465249e-01	1.84308395e-02
2.10000000e-02	3.30670804e-01	1.80161740e-02
2.12500000e-02	3.20296958e-01	1.73796691e-02
2.15000000e-02	3.08915248e-01	1.65620569e-02
2.17500000e-02	2.94129489e-01	1.57967140e-02
2.20000000e-02	2.85012892e-01	1.53726516e-02
2.22500000e-02	2.78070856e-01	1.48626471e-02
2.25000000e-02	2.68361577e-01	1.44090399e-02
2.27500000e-02	2.55440860e-01	1.34492277e-02
2.30000000e-02	2.49121584e-01	1.32932369e-02
2.32500000e-02	2.37189184e-01	1.24613199e-02
2.35000000e-02	2.31317347e-01	1.23367556e-02
2.37500000e-02	2.24103395e-01	1.16635633e-02
2.40000000e-02	2.12689681e-01	1.12840792e-02
2.42500000e-02	2.09483678e-01	1.08840128e-02
2.45000000e-02	2.03287668e-01	1.06198518e-02
2.47500000e-02	1.95875573e-01	1.01134332e-02
2.50000000e-02	1.90510280e-01	9.82693473e-03
2.52500000e-02	1.81544255e-01	9.39394150e-03
2.55000000e-02	1.76413501e-01	8.87659934e-03
2.57500000e-02	1.72195734e-01	8.72799069e-03
2.60000000e-02	1.66605377e-01	8.35832174e-03
2.62500000e-02	1.62540910e-01	8.27844818e-03
2.65000000e-02	1.57384213e-01	7.94904937e-03
2.67500000e-02	1.55932730e-01	7.78005759e-03
2.70000000e-02	1.50446000e-01	7.60190035e-03
2.72500000e-02	1.44918767e-01	7.18402707e-03
2.75000000e-02	1.40555894e-01	7.05882186e-03
2.77500000e-02	1.37479590e-01	6.88372806e-03
2.80000000e-02	1.33282071e-01	6.41845417e-03
2.82500000e-02	1.30161825e-01	6.29082247e-03
2.85000000e-02	1.29070169e-01	6.28208958e-03
2.87500000e-02	1.25169274e-01	6.09599445e-03
2.90000000e-02	1.23263641e-01	5.99061366e-03
2.92500000e-02	1.19749734e-01	5.61999709e-03
2.95000000e-02	1.16959205e-01	5.63403237e-03
2.97500000e-02	1.13928665e-01	5.35845463e-03
3.00000000e-02	1.11349379e-01	5.31465546e-03
3.02500000e-02	1.09172395e-01	5.20783017e-03
3.05000000e-02	1.06157410e-01	4.91609289e-03
3.07500000e-02	1.02268998e-01	4.80462257e-03
3.10000000e-02	1.02569390e-01	4.80574654e-03
3.12500000e-02	1.00198900e-01	4.72046622e-03
3.15000000e-02	9.84051418e-02	4.60259189e-03
3.17500000e-02	9.61356548e-02	4.38413963e-03
3.20000000e-02	9.47240479e-02	4.37318982e-03
3.22500000e-02	9.09219597e-02	4.20582940e-03
3.25000000e-02	8.98111261e-02	4.15616949e-03
3.27500000e-02	8.97704278e-02	4.11786820e-03
3.30000000e-02	8.65809255e-02	3.93921470e-03
3.32500000e-02	8.66138101e-02	3.94731522e-03
3.35000000e-02	8.39803254e-02	3.85319832e-03
3.37500000e-02	8.26831926e-02	3.74237182e-03
3.40000000e-02	7.98241126e-02	3.60468276e-03
3.42500000e-02	7.89309891e-02	3.53331952e-03
3.45000000e-02	7.80238334e-02	3.54917478e-03
3.47500000e-02	7.53975566e-02	3.39447568e-03
3.50000000e-02	7.44120702e-02	3.31384833e-03
3.52500000e-02	7.36980442e-02	3.29584302e-03
3.55000000e-02	7.34500112e-02	3.22473879e-03
3.57500000e-02	7.18285110e-02	3.20326380e-03
3.60000000e-02	7.16100222e-02	3.19049417e-03
3.62500000e-02	6.91285885e-02	3.08018768e-03
3.65000000e-02	6.70279571e-02	2.94047871e-03
3.67500000e-02	6.60369469e-02	2.92834113e-03
3.70000000e-02	6.63176189e-02	2.90295543e-03
3.72500000e-02	6.44457031e-02	2.82763623e-03
3.75000000e-02	6.39954867e-02	2.82434069e-03
3.77500000e-02	6.30007473e-02	2.72895009e-03
3.80000000e-02	6.29157784e-02	2.73896050e-03
3.82500000e-02	6.14187772e-02	2.65170891e-03
3.85000000e-02	5.98975529e-02	2.61195789e-03
3.87500000e-02	5.98616512e-02	2.57821664e-03
3.90000000e-02	5.86620834e-02	2.54820387e-03
3.92500000e-02	5.81778127e-02	2.49533915e-03
3.95000000e-02	5.77320325e-02	2.48969607e-03
3.97500000e-02	5.71978455e-02	2.44917008e-03
4.00000000e-02	5.62051929e-02	2.38671242e-03
4.02500000e-02	5.54546098e-02	2.34596009e-03
4.05000000e-02	5.50936815e-02	2.31877781e-03
4.07500000e-02	5.39791491e-02	2.26954980e-03
4.10000000e-02	5.37206106e-02	2.26664059e-03
4.12500000e-02	5.31340256e-02	2.24326838e-03
4.15000000e-02	5.34802633e-02	2.22543533e-03
4.17500000e-02	5.11957830e-02	2.14651180e-03
4.20000000e-02	5.08580685e-02	2.11367089e-03
4.22500000e-02	4.96510407e-02	2.05488226e-03
4.25000000e-02	4.97834784e-02	2.07075336e-03
4.27500000e-02	4.96884007e-02	2.04319704e-03
4.30000000e-02	4.80929719e-02	1.98945248e-03
4.32500000e-02	4.78619785e-02	1.96168056e-03
4.35000000e-02	4.75155991e-02	1.97759706e-03
4.37500000e-02	4.68013711e-02	1.90475329e-03
4.40000000e-02	4.67137381e-02	1.91037283e-03
4.42500000e-02	4.62245683e-02	1.89788370e-03
4.45000000e-02	4.53704693e-02	1.84097886e-03
4.47500000e-02	4.66365916e-02	1.89044235e-03
4.50000000e-02	4.54731099e-02	1.85356007e-03
4.52500000e-02	4.59876618e-02	1.86539708e-03
4.55000000e-02	4.46396370e-02	1.80604218e-03
4.57500000e-02	4.40550452e-02	1.76913936e-03
4.60000000e-02	4.24985505e-02	1.71081014e-03
4.62500000e-02	4.24256328e-02	1.70994536e-03
4.65000000e-02	4.20211718e-02	1.66971967e-03
4.67500000e-02	4.24122875e-02	1.68626930e-03
4.70000000e-02	4.18756949e-02	1.65239805e-03
4.72500000e-02	4.12062151e-02	1.63084903e-03
4.75000000e-02	4.16210491e-02	1.67340113e-03
4.77500000e-02	4.19063297e-02	1.65043573e-03
4.80000000e-02	4.02548535e-02	1.59192433e-03
4.82500000e-02	4.02205696e-02	1.58745104e-03
4.85000000e-02	3.99585270e-02	1.59646721e-03
4.87500000e-02	3.94254972e-02	1.55653515e-03
4.90000000e-02	3.89056673e-02	1.51496608e-03
4.92500000e-02	4.03302683e-02	1.57345552e-03
4.95000000e-02	3.85984178e-02	1.51265251e-03
4.97500000e-02	3.84229056e-02	1.51286500e-03
5.00000000e-02	3.79649960e-02	1.47804298e-03
5.02500000e-02	3.87091244e-02	1.50079971e-03
5.05000000e-02	3.81449104e-02	1.47553123e-03
5.07500000e-02	3.76012583e-02	1.45429171e-03
5.10000000e-02	3.70348848e-02	1.43560243e-03
5.12500000e-02	3.69665604e-02	1.42981698e-03
5.15000000e-02	3.68231653e-02	1.40266841e-03
5.17500000e-02	3.66342678e-02	1.41571644e-03
5.20000000e-02	3.56144338e-02	1.36756978e-03
5.22500000e-02	3.55421810e-02	1.37004367e-03
5.25000000e-02	3.59220067e-02	1.36954171e-03
5.27500000e-02	3.61119163e-02	1.37135206e-03
5.30000000e-02	3.58505457e-02	1.36652965e-03
5.32500000e-02	3.49940448e-02	1.33469197e-03
5.35000000e-02	3.54438654e-02	1.35077131e-03
5.37500000e-02	3.40270423e-02	1.28522661e-03
5.40000000e-02	3.49071198e-02	1.32027372e-03
5.42500000e-02	3.45093030e-02	1.29769092e-03
5.45000000e-02	3.44472890e-02	1.29699907e-03
5.47500000e-02	3.42062785e-02	1.28625630e-03
5.50000000e-02	3.40049432e-02	1.28671530e-03
5.52500000e-02	3.36571660e-02	1.25062270e-03
5.55000000e-02	3.27210737e-02	1.23188953e-03
5.57500000e-02	3.22924238e-02	1.21697664e-03
5.60000000e-02	3.27981463e-02	1.22065681e-03
5.62500000e-02	3.21060967e-02	1.20297121e-03
5.65000000e-02	3.30726711e-02	1.22177765e-03
5.67500000e-02	3.31816509e-02	1.24056464e-03
5.70000000e-02	3.21149455e-02	1.18900480e-03
5.72500000e-02	3.16873704e-02	1.17644860e-03
5.75000000e-02	3.21049221e-02	1.19445810e-03
5.77500000e-02	3.20744391e-02	1.17887471e-03
5.80000000e-02	3.15516878e-02	1.17011441e-03
5.82500000e-02	3.14070792e-02	1.14673475e-03
5.85000000e-02	3.14010168e-02	1.16127505e-03
5.87500000e-02	3.04226377e-02	1.11006229e-03
5.90000000e-02	3.07756021e-02	1.12965288e-03
5.92500000e-02	3.11937497e-02	1.13988919e-03
5.95000000e-02	3.05383762e-02	1.11487359e-03
5.97500000e-02	3.05307205e-02	1.11595374e-03
6.00000000e-02	3.02542279e-02	1.10231193e-03
6.02500000e-02	3.07351576e-02	1.11059835e-03
6.05000000e-02	2.99911832e-02	1.08649269e-03
6.07500000e-02	3.08339935e-02	1.12035486e-03
6.10000000e-02	2.99356686e-02	1.08459593e-03
6.12500000e-02	3.01813644e-02	1.09423157e-03
6.15000000e-02	2.97115776e-02	1.07916294e-03
6.17500000e-02	3.02657930e-02	1.09129176e-03
6.20000000e-02	2.94843502e-02	1.06105272e-03
6.22500000e-02	2.97993360e-02	1.06980712e-03
6.25000000e-02	2.92597473e-02	1.04812643e-03
6.27500000e-02	2.87051627e-02	1.02522432e-03
6.30000000e-02	2.90215143e-02	1.03865133e-03
6.32500000e-02	2.87175148e-02	1.02546192e-03
6.35000000e-02	2.89541746e-02	1.03176103e-03
6.37500000e-02	2.81681854e-02	1.00683129e-03
6.40000000e-02	2.88902241e-02	1.02508641e-03
6.42500000e-02	2.83094509e-02	9.96606677e-04
6.45000000e-02	2.77307958e-02	9.79114956e-04
6.47500000e-02	2.80008280e-02	9.87798955e-04
6.50000000e-02	2.75381956e-02	9.78943436e-04
6.52500000e-02	2.80298336e-02	9.87458038e-04
6.55000000e-02	2.74924182e-02	9.71014171e-04
6.57500000e-02	2.75386096e-02	9.71360220e-04
6.60000000e-02	2.82534758e-02	9.83324433e-04
6.62500000e-02	2.74278518e-02	9.60443005e-04
6.65000000e-02	2.80280422e-02	9.77790322e-04
6.67500000e-02	2.76116010e-02	9.60967255e-04
6.70000000e-02	2.67701823e-02	9.44539814e-04
6.72500000e-02	2.72822280e-02	9.56247060e-04
6.75000000e-02	2.73561967e-02	9.52864706e-04
6.77500000e-02	2.71091901e-02	9.35369229e-04
6.80000000e-02	2.68040369e-02	9.31664855e-04
6.82500000e-02	2.72937837e-02	9.50871630e-04
6.85000000e-02	2.63099660e-02	9.20383261e-04
6.87500000e-02	2.69946546e-02	9.31348234e-04
6.90000000e-02	2.68934491e-02	9.24740717e-04
6.92500000e-02	2.63057166e-02	9.01525810e-04
6.95000000e-02	2.65320924e-02	9.16244441e-04
6.97500000e-02	2.67623630e-02	9.14502656e-04
7.00000000e-02	2.65892045e-02	9.07572323e-04
7.02500000e-02	2.64499573e-02	9.07257187e-04
7.05000000e-02	2.65196226e-02	9.06322758e-04
7.07500000e-02	2.55354071e-02	8.71513493e-04
7.10000000e-02	2.54223806e-02	8.66718167e-04
7.12500000e-02	2.56445462e-02	8.74420092e-04
7.15000000e-02	2.59044822e-02	8.82908315e-04
7.17500000e-02	2.65359179e-02	8.96539056e-04
7.20000000e-02	2.66192702e-02	9.08951857e-04
7.22500000e-02	2.54602702e-02	8.62843955e-04
7.25000000e-02	2.58267024e-02	8.75975603e-04
7.27500000e-02	2.56202904e-02	8.66249098e-04
7.30000000e-02	2.60484217e-02	8.80762854e-04
7.32500000e-02	2.48415714e-02	8.32542078e-04
7.35000000e-02	2.49920137e-02	8.43355403e-04
7.37500000e-02	2.49301609e-02	8.35577412e-04
7.40000000e-02	2.55512906e-02	8.56266457e-04
7.42500000e-02	2.52949337e-02	8.46560867e-04
7.45000000e-02	2.52223266e-02	8.42027682e-04
7.47500000e-02	2.58745141e-02	8.62331627e-04
7.50000000e-02	2.49436521e-02	8.37520932e-04
7.52500000e-02	2.56020343e-02	8.51513952e-04
7.55000000e-02	2.38255587e-02	7.98316856e-04
7.57500000e-02	2.56157742e-02	8.49357428e-04
7.60000000e-02	2.50530183e-02	8.34757029e-04
7.62500000e-02	2.50665919e-02	8.32741446e-04
7.65000000e-02	2.50523082e-02	8.28212312e-04
7.67500000e-02	2.46713750e-02	8.20583545e-04
7.70000000e-02	2.42204770e-02	7.95560227e-04
7.72500000e-02	2.54956810e-02	8.51609343e-04
7.75000000e-02	2.45989104e-02	8.33149986e-04
7.77500000e-02	2.39945688e-02	8.26759720e-04
7.80000000e-02	2.43231365e-02	8.32916663e-04
7.82500000e-02	2.50167309e-02	8.64290631e-04
7.85000000e-02	2.52329714e-02	8.76221701e-04
7.87500000e-02	2.44403541e-02	8.42412121e-04
7.90000000e-02	2.48592487e-02	8.61529935e-04
7.92500000e-02	2.47184449e-02	8.61256251e-04
7.95000000e-02	2.46466569e-02	8.64143954e-04
7.97500000e-02	2.45925521e-02	8.70306654e-04
8.00000000e-02	2.42133979e-02	8.53159123e-04
8.02500000e-02	2.51820592e-02	8.88891232e-04
8.05000000e-02	2.42515452e-02	8.52056356e-04
8.07500000e-02	2.46495322e-02	8.74522884e-04
8.10000000e-02	2.41832317e-02	8.55301743e-04
8.12500000e-02	2.38412250e-02	8.53182202e-04
8.15000000e-02	2.41595916e-02	8.56431801e-04
8.17500000e-02	2.48214056e-02	8.84783641e-04
8.20000000e-02	2.36536226e-02	8.51605737e-04
8.22500000e-02	2.51330582e-02	8.95264722e-04
8.25000000e-02	2.40102281e-02	8.61355211e-04
8.27500000e-02	2.47004752e-02	8.85388578e-04
8.30000000e-02	2.41051875e-02	8.72349872e-04
8.32500000e-02	2.38991235e-02	8.69756614e-04
8.35000000e-02	2.42213116e-02	8.83601473e-04
8.37500000e-02	2.42357711e-02	8.70729124e-04
8.40000000e-02	2.42474514e-02	8.75729084e-04
8.42500000e-02	2.33540437e-02	8.49129547e-04
8.45000000e-02	2.37820640e-02	8.65858870e-04
8.47500000e-02	2.40401340e-02	8.76317242e-04
8.50000000e-02	2.28566436e-02	8.33727310e-04
8.52500000e-02	2.35297755e-02	8.61532120e-04
8.55000000e-02	2.27459812e-02	8.28975169e-04
8.57500000e-02	2.35039281e-02	8.67747835e-04
8.60000000e-02	2.35888067e-02	8.56975746e-04
8.62500000e-02	2.36328599e-02	8.63806344e-04
8.65000000e-02	2.36315222e-02	8.66212985e-04
8.67500000e-02	2.36505327e-02	8.55114023e-04
8.70000000e-02	2.32545218e-02	8.36046740e-04
8.72500000e-02	2.35470159e-02	8.28764852e-04
8.75000000e-02	2.28357861e-02	7.96730032e-04
8.77500000e-02	2.37679978e-02	8.24795991e-04
8.80000000e-02	2.30586285e-02	8.01232421e-04
8.82500000e-02	2.31989174e-02	8.01343639e-04
8.85000000e-02	2.29113404e-02	7.89318747e-04
8.87500000e-02	2.32328692e-02	7.87093478e-04
8.90000000e-02	2.30640853e-02	7.90432239e-04
8.92500000e-02	2.30990577e-02	7.85403788e-04
8.95000000e-02	2.36921888e-02	8.01255964e-04
8.97500000e-02	2.36484602e-02	7.99629116e-04
9.00000000e-02	2.29535779e-02	7.65182155e-04
9.02500000e-02	2.30642824e-02	7.70437709e-04
9.05000000e-02	2.27029354e-02	7.61894838e-04
9.07500000e-02	2.33891508e-02	7.77890380e-04
9.10000000e-02	2.31909501e-02	7.64841527e-04
9.12500000e-02	2.32299380e-02	7.70427649e-04
9.15000000e-02	2.28495204e-02	7.60891521e-04
9.17500000e-02	2.24267125e-02	7.45897532e-04
9.20000000e-02	2.29342813e-02	7.52008698e-04
9.22500000e-02	2.24856484e-02	7.38285245e-04
9.25000000e-02	2.31498617e-02	7.58791644e-04
9.27500000e-02	2.32125611e-02	7.59888761e-04
9.30000000e-02	2.29451131e-02	7.51993787e-04
9.32500000e-02	2.28639011e-02	7.44915639e-04
9.35000000e-02	2.28067589e-02	7.38670681e-04
9.37500000e-02	2.24877126e-02	7.33320606e-04
9.40000000e-02	2.21754805e-02	7.21011549e-04
9.42500000e-02	2.24871674e-02	7.25021293e-04
9.45000000e-02	2.27479325e-02	7.30710067e-04
9.47500000e-02	2.26210516e-02	7.30686963e-04
9.50000000e-02	2.20207393e-02	7.12848012e-04
9.52500000e-02	2.30858778e-02	7.37732103e-04
9.55000000e-02	2.20072589e-02	7.06061469e-04
9.57500000e-02	2.27565619e-02	7.26128252e-04
9.60000000e-02	2.25373771e-02	7.20339256e-04
9.62500000e-02	2.22073145e-02	7.04832935e-04
9.65000000e-02	2.22079838e-02	7.10066228e-04
9.67500000e-02	2.23899713e-02	7.14195816e-04
9.70000000e-02	2.20673542e-02	6.96508461e-04
9.72500000e-02	2.24861891e-02	7.14033521e-04
9.75000000e-02	2.26155926e-02	7.20644014e-04
9.77500000e-02	2.23098772e-02	7.01889197e-04
9.80000000e-02	2.23679412e-02	7.01845677e-04
9.82500000e-02	2.22806647e-02	7.03357269e-04
9.85000000e-02	2.17229869e-02	6.85558369e-04
9.87500000e-02	2.18870937e-02	6.86437887e-04
9.90000000e-02	2.23584992e-02	7.00626385e-04
9.92500000e-02	2.22278116e-02	6.98909150e-04
9.95000000e-02	2.26591947e-02	7.09842894e-04
9.97500000e-02	2.26883777e-02	7.09712636e-04
1.00000000e-01	2.19819049e-02	5.60367642e-04
1.00500000e-01	2.24195457e-02	4.95703867e-04
1.01000000e-01	2.23744543e-02	4.88635201e-04
1.01500000e-01	2.19288246e-02	4.80802866e-04
1.02000000e-01	2.17962897e-02	4.76468874e-04
1.02500000e-01	2.16490536e-02	4.69902455e-04
1.03000000e-01	2.20515008e-02	4.80533409e-04
1.03500000e-01	2.18596285e-02	4.73057855e-04
1.04000000e-01	2.16181446e-02	4.65378484e-04
1.04500000e-01	2.19862611e-02	4.74116072e-04
1.05000000e-01	2.15691883e-02	4.62481978e-04
1.05500000e-01	2.17408219e-02	4.65684281e-04
1.06000000e-01	2.17429612e-02	4.63624397e-04
1.06500000e-01	2.15951368e-02	4.60499706e-04
1.07000000e-01	2.17718409e-02	4.69162314e-04
1.07500000e-01	2.15213847e-02	4.73721889e-04
1.08000000e-01	2.17580153e-02	4.84262133e-04
1.08500000e-01	2.15024366e-02	4.80320407e-04
1.09000000e-01	2.17301583e-02	4.87545093e-04
1.09500000e-01	2.15361279e-02	4.87003662e-04
1.10000000e-01	2.15397103e-02	4.79928908e-04
1.10500000e-01	2.17028529e-02	4.73035648e-04
1.11000000e-01	2.16056766e-02	4.64981136e-04
1.11500000e-01	2.14394727e-02	4.58808825e-04
1.12000000e-01	2.16524951e-02	4.57792604e-04
1.12500000e-01	2.11798436e-02	4.45950211e-04
1.13000000e-01	2.13449696e-02	4.49132570e-04
1.13500000e-01	2.14034275e-02	4.47727072e-04
1.14000000e-01	2.14584080e-02	4.44996868e-04
1.14500000e-01	2.15106565e-02	4.47897238e-04
1.15000000e-01	2.14804051e-02	4.44558046e-04
1.15500000e-01	2.14255869e-02	4.43403218e-04
1.16000000e-01	2.15469267e-02	4.43519584e-04
1.16500000e-01	2.13333501e-02	4.40735215e-04
1.17000000e-01	2.13860066e-02	4.39830654e-04
1.17500000e-01	2.15216412e-02	4.39857062e-04
1.18000000e-01	2.11781800e-02	4.33967101e-04
1.18500000e-01	2.13318053e-02	4.34136035e-04
1.19000000e-01	2.10137224e-02	4.26833353e-04
1.19500000e-01	2.12723755e-02	4.31093806e-04
1.20000000e-01	2.08475612e-02	4.22291071e-04
1.20500000e-01	2.12473098e-02	4.29228615e-04
1.21000000e-01	2.12568501e-02	4.28497362e-04
1.21500000e-01	2.12428706e-02	4.28039105e-04
1.22000000e-01	2.11342479e-02	4.23539386e-04
1.22500000e-01	2.14184654e-02	4.29617612e-04
1.23000000e-01	2.11751520e-02	4.23142387e-04
1.23500000e-01	2.13993731e-02	4.26400951e-04
1.24000000e-01	2.13559472e-02	4.25048964e-04
1.24500000e-01	2.11648459e-02	4.18077923e-04
1.25000000e-01	2.13001076e-02	4.22207739e-04
1.25500000e-01	2.12907441e-02	4.20553778e-04
1.26000000e-01	2.09436430e-02	4.13810601e-04
1.26500000e-01	2.13385105e-02	4.18868180e-04
1.27000000e-01	2.13408046e-02	4.17497149e-04
1.27500000e-01	2.12498802e-02	4.15892044e-04
1.28000000e-01	2.11930748e-02	4.16191472e-04
1.28500000e-01	2.09304493e-02	4.09540081e-04
1.29000000e-01	2.11871978e-02	4.11781493e-04
1.29500000e-01	2.12442256e-02	4.13190877e-04
1.30000000e-01	2.10700150e-02	4.09102037e-04
1.30500000e-01	2.11369665e-02	4.08252099e-04
1.31000000e-01	2.10591627e-02	4.05820301e-04
1.31500000e-01	2.11758584e-02	4.09553770e-04
1.32000000e-01	2.13111005e-02	4.09317632e-04
1.32500000e-01	2.11447670e-02	4.05003969e-04
1.33000000e-01	2.13773138e-02	4.08981198e-04
1.33500000e-01	2.09009269e-02	3.98460011e-04
1.34000000e-01	2.10656729e-02	4.02154372e-04
1.34500000e-01	2.09491201e-02	3.97519519e-04
1.35000000e-01	2.08120630e-02	3.93915697e-04
1.35500000e-01	2.11662253e-02	3.98586697e-04
1.36000000e-01	2.08128689e-02	3.92634034e-04
1.36500000e-01	2.09110874e-02	3.97017877e-04
1.37000000e-01	2.11095517e-02	3.95189538e-04
1.37500000e-01	2.09138285e-02	3.92291313e-04
1.38000000e-01	2.10201060e-02	3.93469287e-04
1.38500000e-01	2.06236156e-02	3.86607095e-04
1.39000000e-01	2.08590526e-02	3.91685886e-04
1.39500000e-01	2.09853773e-02	3.92418546e-04
1.40000000e-01	2.08321302e-02	3.89775272e-04
1.40500000e-01	2.06833033e-02	3.87007658e-04
1.41000000e-01	2.07281661e-02	3.85695681e-04
1.41500000e-01	2.03785477e-02	3.81000327e-04
1.42000000e-01	2.06899423e-02	3.85155150e-04
1.42500000e-01	2.07754130e-02	3.86638563e-04
1.43000000e-01	2.01445598e-02	3.75168763e-04
1.43500000e-01	2.02332203e-02	3.74699179e-04
1.44000000e-01	2.03271301e-02	3.75397963e-04
1.44500000e-01	2.06427088e-02	3.79068217e-04
1.45000000e-01	2.05074475e-02	3.79209280e-04
1.45500000e-01	2.06035070e-02	3.78302181e-04
1.46000000e-01	2.05081519e-02	3.77897188e-04
1.46500000e-01	2.06360995e-02	3.78404291e-04
1.47000000e-01	2.04467045e-02	3.74331266e-04
1.47500000e-01	2.04946052e-02	3.74251205e-04
1.48000000e-01	2.04231376e-02	3.72175196e-04
1.48500000e-01	2.02265756e-02	3.68474963e-04
1.49000000e-01	2.04830736e-02	3.70664684e-04
1.49500000e-01	2.04641542e-02	3.72387240e-04
1.50000000e-01	2.05696907e-02	3.72396300e-04
1.50500000e-01	2.03039132e-02	3.68345077e-04
1.51000000e-01	2.01073022e-02	3.63321248e-04
1.51500000e-01	1.99729712e-02	3.59428305e-04
1.52000000e-01	2.05303635e-02	3.66336585e-04
1.52500000e-01	2.04206132e-02	3.67667504e-04
1.53000000e-01	2.01223574e-02	3.60860490e-04
1.53500000e-01	2.03821255e-02	3.64858043e-04
1.54000000e-01	2.04229084e-02	3.64214418e-04
1.54500000e-01	2.02247335e-02	3.66620057e-04
1.55000000e-01	2.02937454e-02	3.72636350e-04
1.55500000e-01	2.03296533e-02	3.75484631e-04
1.56000000e-01	2.04477851e-02	3.80879614e-04
1.56500000e-01	2.02921771e-02	3.77385849e-04
1.57000000e-01	2.00840155e-02	3.76262332e-04
1.57500000e-01	2.02664356e-02	3.71664245e-04
1.58000000e-01	2.02854153e-02	3.66048787e-04
1.58500000e-01	1.98811601e-02	3.58725746e-04
1.59000000e-01	2.01697324e-02	3.59923507e-04
1.59500000e-01	1.98527243e-02	3.55168155e-04
1.60000000e-01	1.99303465e-02	3.56710695e-04
1.60500000e-01	1.99490845e-02	3.53744374e-04
1.61000000e-01	1.99229075e-02	3.55015291e-04
1.61500000e-01	1.98682951e-02	3.50692455e-04
1.62000000e-01	2.00036459e-02	3.52196459e-04
1.62500000e-01	2.00176036e-02	3.51571878e-04
1.63000000e-01	1.96756661e-02	3.45742794e-04
1.63500000e-01	2.00077303e-02	3.52371000e-04
1.64000000e-01	1.96958718e-02	3.44186072e-04
1.64500000e-01	1.97941901e-02	3.45806184e-04
1.65000000e-01	1.99504138e-02	3.48166803e-04
1.65500000e-01	1.99406922e-02	3.48265466e-04
1.66000000e-01	1.98004642e-02	3.43853377e-04
1.66500000e-01	2.00738764e-02	3.47906335e-04
1.67000000e-01	1.95802793e-02	3.40739470e-04
1.67500000e-01	1.99935241e-02	3.45716300e-04
1.68000000e-01	1.98932738e-02	3.44878049e-04
1.68500000e-01	2.00500541e-02	3.44406404e-04
1.69000000e-01	1.96424674e-02	3.38978826e-04
1.69500000e-01	1.98000152e-02	3.40962133e-04
1.70000000e-01	1.96636783e-02	3.40471927e-04
1.70500000e-01	1.97935517e-02	3.40378693e-04
1.71000000e-01	1.95733216e-02	3.36612497e-04
1.71500000e-01	2.00196370e-02	3.43006570e-04
1.72000000e-01	1.97339088e-02	3.37218844e-04
1.72500000e-01	1.97514037e-02	3.36784413e-04
1.73000000e-01	1.94146917e-02	3.30475319e-04
1.73500000e-01	1.95393884e-02	3.31580854e-04
1.74000000e-01	1.94311117e-02	3.30602865e-04
1.74500000e-01	1.99143197e-02	3.35705335e-04
1.75000000e-01	1.96403144e-02	3.30553862e-04
1.75500000e-01	1.94144965e-02	3.26274569e-04
1.76000000e-01	1.94273075e-02	3.25693846e-04
1.76500000e-01	1.97161514e-02	3.30285566e-04
1.77000000e-01	1.96051107e-02	3.27713462e-04
1.77500000e-01	1.95633312e-02	3.27407280e-04
1.78000000e-01	1.95262312e-02	3.25649135e-04
1.78500000e-01	1.94658082e-02	3.25296087e-04
1.79000000e-01	1.93753971e-02	3.24698727e-04
1.79500000e-01	1.95902375e-02	3.27723432e-04
1.80000000e-01	1.94654515e-02	3.24891577e-04
1.80500000e-01	1.95439865e-02	3.26603017e-04
1.81000000e-01	1.92235427e-02	3.20739929e-04
1.81500000e-01	1.92863309e-02	3.20986129e-04
1.82000000e-01	1.96197709e-02	3.25918331e-04
1.82500000e-01	1.94004419e-02	3.21112621e-04
1.83000000e-01	1.94512677e-02	3.22033774e-04
1.83500000e-01	1.94376736e-02	3.21326599e-04
1.84000000e-01	1.94933402e-02	3.21276073e-04
1.84500000e-01	1.92803117e-02	3.17851383e-04
1.85000000e-01	1.90797616e-02	3.14511253e-04
1.85500000e-01	1.92367256e-02	3.16876903e-04
1.86000000e-01	1.93976082e-02	3.19274071e-04
1.86500000e-01	1.94311660e-02	3.18676195e-04
1.87000000e-01	1.92713767e-02	3.16656181e-04
1.87500000e-01	1.93139817e-02	3.15957938e-04
1.88000000e-01	1.95273792e-02	3.18643512e-04
1.88500000e-01	1.95053259e-02	3.19419220e-04
1.89000000e-01	1.89842108e-02	3.09944365e-04
1.89500000e-01	1.92337966e-02	3.12480944e-04
1.90000000e-01	1.90276015e-02	3.09858723e-04
1.90500000e-01	1.93634335e-02	3.14773430e-04
1.91000000e-01	1.91392521e-02	3.10276962e-04
1.91500000e-01	1.92827896e-02	3.13238596e-04
1.92000000e-01	1.88207326e-02	3.04377190e-04
1.92500000e-01	1.92669132e-02	3.12925046e-04
1.93000000e-01	1.92587490e-02	3.11445949e-04
1.93500000e-01	1.92389177e-02	3.10747296e-04
1.94000000e-01	1.91621872e-02	3.09554778e-04
1.94500000e-01	1.91677485e-02	3.09045425e-04
1.95000000e-01	1.89489608e-02	3.05957525e-04
1.95500000e-01	1.93019037e-02	3.09869488e-04
1.96000000e-01	1.92010540e-02	3.05752944e-04
1.96500000e-01	1.91061823e-02	3.06249516e-04
1.97000000e-01	1.91211073e-02	3.05865667e-04
1.97500000e-01	1.90792831e-02	3.05101958e-04
1.98000000e-01	1.90525715e-02	3.03806151e-04
1.98500000e-01	1.91713885e-02	3.03881487e-04
1.99000000e-01	1.90081851e-02	3.03616260e-04
1.99500000e-01	1.91017862e-02	3.03253296e-04
2.00000000e-01	1.91115578e-02	3.05466087e-04
2.00500000e-01	1.90545192e-02	3.02594541e-04
2.01000000e-01	1.91151993e-02	3.02492153e-04
2.01500000e-01	1.92875306e-02	3.05231594e-04
2.02000000e-01	1.93182400e-02	3.05048497e-04
2.02500000e-01	1.90824058e-02	2.99449625e-04
2.03000000e-01	1.89758114e-02	2.98915319e-04
2.03500000e-01	1.91648535e-02	3.01588357e-04
2.04000000e-01	1.90716024e-02	2.99341452e-04
2.04500000e-01	1.88716595e-02	2.97714647e-04
2.05000000e-01	1.88253260e-02	2.94407839e-04
2.05500000e-01	1.90684013e-02	2.98907575e-04
2.06000000e-01	1.88247170e-02	2.95066115e-04
2.06500000e-01	1.89278573e-02	2.96932712e-04
2.07000000e-01	1.89351473e-02	2.94700846e-04
2.07500000e-01	1.88631460e-02	2.93482633e-04
2.08000000e-01	1.88579005e-02	2.94557310e-04
2.08500000e-01	1.89029505e-02	2.93570586e-04
2.09000000e-01	1.89802872e-02	2.96183834e-04
2.09500000e-01	1.89504322e-02	2.93885900e-04
2.10000000e-01	1.87764157e-02	2.92147786e-04
2.10500000e-01	1.90542925e-02	2.95216363e-04
2.11000000e-01	1.87445072e-02	2.90190283e-04
2.11500000e-01	1.88238162e-02	2.91765146e-04
2.12000000e-01	1.85807624e-02	2.86852275e-04
2.12500000e-01	1.87879797e-02	2.89821684e-04
2.13000000e-01	1.86906404e-02	2.87768237e-04
2.13500000e-01	1.89883929e-02	2.91240868e-04
2.14000000e-01	1.86920698e-02	2.87268270e-04
2.14500000e-01	1.88130180e-02	2.88667462e-04
2.15000000e-01	1.86420282e-02	2.88222102e-04
2.15500000e-01	1.87294326e-02	2.85964978e-04
2.16000000e-01	1.87691569e-02	2.86860029e-04
2.16500000e-01	1.86104696e-02	2.84985053e-04
2.17000000e-01	1.88444611e-02	2.91375011e-04
2.17500000e-01	1.88173306e-02	2.96549676e-04
2.18000000e-01	1.86690909e-02	2.93455493e-04
2.18500000e-01	1.85967426e-02	2.95574001e-04
2.19000000e-01	1.86010828e-02	2.96728721e-04
2.19500000e-01	1.86015296e-02	2.97403705e-04
2.20000000e-01	1.84179789e-02	2.96625936e-04
2.20500000e-01	1.87279651e-02	3.03609761e-04
2.21000000e-01	1.87300995e-02	3.00922467e-04
2.21500000e-01	1.85928032e-02	3.02401335e-04
2.22000000e-01	1.86999253e-02	3.03787852e-04
2.22500000e-01	1.84034303e-02	2.98921596e-04
2.23000000e-01	1.85706643e-02	3.03457709e-04
2.23500000e-01	1.85417723e-02	3.04163525e-04
2.24000000e-01	1.84952376e-02	3.03503621e-04
2.24500000e-01	1.84387057e-02	3.03779955e-04
2.25000000e-01	1.83906529e-02	3.02324107e-04
2.25500000e-01	1.85265006e-02	3.05249398e-04
2.26000000e-01	1.85523787e-02	3.07242843e-04
2.26500000e-01	1.86738180e-02	3.03118152e-04
2.27000000e-01	1.86450189e-02	2.99602395e-04
2.27500000e-01	1.85878269e-02	2.97132729e-04
2.28000000e-01	1.86572185e-02	2.96581768e-04
2.28500000e-01	1.86671380e-02	2.95348737e-04
2.29000000e-01	1.84474052e-02	2.91120356e-04
2.29500000e-01	1.84491599e-02	2.90014996e-04
2.30000000e-01	1.85222747e-02	2.91411792e-04
2.30500000e-01	1.84051020e-02	2.86932869e-04
2.31000000e-01	1.86057826e-02	2.90723202e-04
2.31500000e-01	1.85035589e-02	2.88064910e-04
2.32000000e-01	1.82595360e-02	2.83712931e-04
2.32500000e-01	1.84531153e-02	2.86308599e-04
2.33000000e-01	1.83722634e-02	2.84191885e-04
2.33500000e-01	1.85545506e-02	2.85436716e-04
2.34000000e-01	1.85157941e-02	2.83920087e-04
2.34500000e-01	1.85753991e-02	2.83871415e-04
2.35000000e-01	1.84155888e-02	2.82673347e-04
2.35500000e-01	1.84279371e-02	2.81143831e-04
2.36000000e-01	1.84059347e-02	2.81203229e-04
2.36500000e-01	1.85228959e-02	2.82964281e-04
2.37000000e-01	1.82535075e-02	2.77925572e-04
2.37500000e-01	1.84954204e-02	2.81331360e-04
2.38000000e-01	1.83969082e-02	2.79239432e-04
2.38500000e-01	1.84122097e-02	2.78967797e-04
2.39000000e-01	1.83551673e-02	2.76578165e-04
2.39500000e-01	1.82692042e-02	2.76797270e-04
2.40000000e-01	1.84919145e-02	2.77691884e-04
2.40500000e-01	1.81884993e-02	2.72450884e-04
2.41000000e-01	1.80757017e-02	2.71371602e-04
2.41500000e-01	1.83194788e-02	2.73389093e-04
2.42000000e-01	1.82750772e-02	2.73915041e-04
2.42500000e-01	1.81598160e-02	2.71412824e-04
2.43000000e-01	1.84273611e-02	2.74358770e-04
2.43500000e-01	1.81186624e-02	2.69546840e-04
2.44000000e-01	1.80115961e-02	2.67558341e-04
2.44500000e-01	1.81420618e-02	2.70086814e-04
2.45000000e-01	1.80286341e-02	2.66943407e-04
2.45500000e-01	1.83177981e-02	2.70735527e-04
2.46000000e-01	1.79832362e-02	2.67555741e-04
2.46500000e-01	1.80318098e-02	2.66228173e-04
2.47000000e-01	1.81973235e-02	2.68810758e-04
2.47500000e-01	1.80811304e-02	2.65301006e-04
2.48000000e-01	1.81861683e-02	2.68132259e-04
2.48500000e-01	1.84052832e-02	2.69244256e-04
2.49000000e-01	1.81131776e-02	2.66518692e-04
2.49500000e-01	1.80850804e-02	2.66075676e-04
2.50000000e-01	1.81958129e-02	2.65446605e-04
2.50500000e-01	1.80574379e-02	2.64768277e-04
2.51000000e-01	1.79316282e-02	2.61337547e-04
2.51500000e-01	1.78043021e-02	2.60992049e-04
2.52000000e-01	1.79011944e-02	2.61504073e-04
2.52500000e-01	1.80897525e-02	2.64265688e-04
2.53000000e-01	1.82109364e-02	2.65737607e-04
2.53500000e-01	1.80453429e-02	2.62668233e-04
2.54000000e-01	1.80987858e-02	2.64195738e-04
2.54500000e-01	1.80634339e-02	2.61802959e-04
2.55000000e-01	1.78629380e-02	2.58898470e-04
2.55500000e-01	1.80704786e-02	2.61455270e-04
2.56000000e-01	1.80497647e-02	2.61414798e-04
2.56500000e-01	1.82269089e-02	2.63726469e-04
2.57000000e-01	1.79866195e-02	2.59671767e-04
2.57500000e-01	1.79737236e-02	2.58976282e-04
2.58000000e-01	1.78351691e-02	2.58263598e-04
2.58500000e-01	1.78719738e-02	2.56829588e-04
2.59000000e-01	1.79448157e-02	2.58842492e-04
2.59500000e-01	1.79326198e-02	2.57870691e-04
2.60000000e-01	1.78542476e-02	2.55918418e-04
2.60500000e-01	1.80670450e-02	2.59143242e-04
2.61000000e-01	1.78790365e-02	2.55519785e-04
2.61500000e-01	1.81153473e-02	2.59234898e-04
2.62000000e-01	1.81079794e-02	2.57926613e-04
2.62500000e-01	1.76537358e-02	2.52946560e-04
2.63000000e-01	1.78402080e-02	2.54314224e-04
2.63500000e-01	1.78722028e-02	2.54074020e-04
2.64000000e-01	1.76979613e-02	2.52658705e-04
2.64500000e-01	1.79421643e-02	2.54659381e-04
2.65000000e-01	1.78525148e-02	2.53924590e-04
2.65500000e-01	1.78096900e-02	2.52227821e-04
2.66000000e-01	1.78932081e-02	2.53159726e-04
2.66500000e-01	1.77406969e-02	2.51248275e-04
2.67000000e-01	1.80247233e-02	2.54629530e-04
2.67500000e-01	1.77549042e-02	2.50413773e-04
2.68000000e-01	1.79110966e-02	2.51425713e-04
2.68500000e-01	1.75987360e-02	2.48301014e-04
2.69000000e-01	1.78036989e-02	2.50036420e-04
2.69500000e-01	1.77154859e-02	2.48738144e-04
2.70000000e-01	1.76761109e-02	2.48137082e-04
2.70500000e-01	1.78202896e-02	2.49467579e-04
2.71000000e-01	1.78386529e-02	2.48805525e-04
2.71500000e-01	1.76805798e-02	2.47147850e-04
2.72000000e-01	1.76246604e-02	2.47036051e-04
2.72500000e-01	1.79285162e-02	2.50476853e-04
2.73000000e-01	1.80466831e-02	2.51090215e-04
2.73500000e-01	1.77777788e-02	2.46881715e-04
2.74000000e-01	1.76709805e-02	2.46327993e-04
2.74500000e-01	1.77839507e-02	2.46657863e-04
2.75000000e-01	1.75279019e-02	2.44052139e-04
2.75500000e-01	1.78214871e-02	2.47587335e-04
2.76000000e-01	1.74825724e-02	2.43704855e-04
2.76500000e-01	1.76499387e-02	2.44857983e-04
2.77000000e-01	1.77375905e-02	2.45221390e-04
2.77500000e-01	1.76349504e-02	2.44826660e-04
2.78000000e-01	1.77284778e-02	2.44788087e-04
2.78500000e-01	1.75104449e-02	2.41978112e-04
2.79000000e-01	1.78292171e-02	2.46508756e-04
2.79500000e-01	1.78697358e-02	2.45444967e-04
2.80000000e-01	1.74791143e-02	2.41505697e-04
2.80500000e-01	1.76465019e-02	2.42616799e-04
2.81000000e-01	1.74546324e-02	2.40307614e-04
2.81500000e-01	1.77494317e-02	2.43487738e-04
2.82000000e-01	1.73492042e-02	2.39246135e-04
2.82500000e-01	1.76543023e-02	2.43094291e-04
2.83000000e-01	1.76014241e-02	2.40084018e-04
2.83500000e-01	1.75274286e-02	2.39590798e-04
2.84000000e-01	1.76386926e-02	2.41255818e-04
2.84500000e-01	1.75493271e-02	2.39383138e-04
2.85000000e-01	1.73906108e-02	2.38036251e-04
2.85500000e-01	1.75432734e-02	2.39819348e-04
2.86000000e-01	1.75917809e-02	2.40480294e-04
2.86500000e-01	1.74439603e-02	2.37414695e-04
2.87000000e-01	1.73869960e-02	2.37869850e-04
2.87500000e-01	1.75772225e-02	2.37193311e-04
2.88000000e-01	1.76166502e-02	2.38244363e-04
2.88500000e-01	1.75169453e-02	2.37823104e-04
2.89000000e-01	1.75096433e-02	2.37348876e-04
2.89500000e-01	1.75501318e-02	2.38677803e-04
2.90000000e-01	1.74132953e-02	2.35450382e-04
2.90500000e-01	1.73242350e-02	2.34385008e-04
2.91000000e-01	1.73056600e-02	2.33880099e-04
2.91500000e-01	1.75115204e-02	2.35802229e-04
2.92000000e-01	1.74479130e-02	2.35906898e-04
2.92500000e-01	1.75573834e-02	2.35165309e-04
2.93000000e-01	1.72873773e-02	2.32658858e-04
2.93500000e-01	1.74404433e-02	2.34580027e-04
2.94000000e-01	1.73801314e-02	2.34050179e-04
2.94500000e-01	1.73872483e-02	2.34098917e-04
2.95000000e-01	1.73822680e-02	2.32340613e-04
2.95500000e-01	1.72831159e-02	2.32334945e-04
2.96000000e-01	1.73154886e-02	2.31760664e-04
2.96500000e-01	1.73052454e-02	2.31658624e-04
2.97000000e-01	1.72534113e-02	2.31157827e-04
2.97500000e-01	1.71559446e-02	2.29558130e-04
2.98000000e-01	1.73089733e-02	2.30972328e-04
2.98500000e-01	1.74034230e-02	2.33093394e-04
2.99000000e-01	1.72338974e-02	2.29866095e-04
2.99500000e-01	1.74015165e-02	2.32028559e-04
3.00000000e-01	1.72233834e-02	2.28817024e-04
3.00500000e-01	1.75533838e-02	2.32673635e-04
3.01000000e-01	1.72627544e-02	2.29463886e-04
3.01500000e-01	1.72190861e-02	2.28551207e-04
3.02000000e-01	1.70738196e-02	2.26246494e-04
3.02500000e-01	1.70980402e-02	2.26936964e-04
3.03000000e-01	1.71591622e-02	2.27640903e-04
3.03500000e-01	1.74093023e-02	2.29600972e-04
3.04000000e-01	1.71040016e-02	2.26651358e-04
3.04500000e-01	1.73784495e-02	2.29367968e-04
3.05000000e-01	1.72665569e-02	2.28251979e-04
3.05500000e-01	1.70745927e-02	2.25360417e-04
3.06000000e-01	1.71636645e-02	2.25429397e-04
3.06500000e-01	1.71496381e-02	2.26182820e-04
3.07000000e-01	1.74027914e-02	2.28496246e-04
3.07500000e-01	1.73206264e-02	2.27499058e-04
3.08000000e-01	1.70074729e-02	2.23496102e-04
3.08500000e-01	1.71695799e-02	2.24418793e-04
3.09000000e-01	1.68832639e-02	2.21708466e-04
3.09500000e-01	1.71089585e-02	2.23984728e-04
3.10000000e-01	1.71191017e-02	2.23918677e-04
3.10500000e-01	1.69824261e-02	2.22685158e-04
3.11000000e-01	1.72558127e-02	2.25547854e-04
3.11500000e-01	1.71629045e-02	2.24043533e-04
3.12000000e-01	1.72490545e-02	2.24896377e-04
3.12500000e-01	1.69916223e-02	2.21995517e-04
3.13000000e-01	1.70629963e-02	2.22943939e-04
3.13500000e-01	1.71153979e-02	2.23271157e-04
3.14000000e-01	1.69005726e-02	2.20321262e-04
3.14500000e-01	1.67827224e-02	2.17995296e-04
3.15000000e-01	1.67927507e-02	2.18913867e-04
3.15500000e-01	1.69842520e-02	2.20982337e-04
3.16000000e-01	1.70982270e-02	2.21699561e-04
3.16500000e-01	1.70860617e-02	2.20916787e-04
3.17000000e-01	1.68745006e-02	2.19070041e-04
3.17500000e-01	1.70695034e-02	2.20656561e-04
3.18000000e-01	1.69339089e-02	2.19269126e-04
3.18500000e-01	1.71229126e-02	2.20733203e-04
3.19000000e-01	1.70560409e-02	2.19997109e-04
3.19500000e-01	1.69701043e-02	2.18782859e-04
3.20000000e-01	1.68424644e-02	2.17488600e-04
3.20500000e-01	1.67916421e-02	2.16348731e-04
3.21000000e-01	1.68496695e-02	2.17140732e-04
3.21500000e-01	1.67575313e-02	2.16059757e-04
3.22000000e-01	1.66675176e-02	2.14923942e-04
3.22500000e-01	1.68455186e-02	2.16637362e-04
3.23000000e-01	1.67073522e-02	2.14520649e-04
3.23500000e-01	1.67202217e-02	2.14927813e-04
3.24000000e-01	1.69344093e-02	2.16903667e-04
3.24500000e-01	1.66246181e-02	2.14210947e-04
3.25000000e-01	1.67978195e-02	2.14274984e-04
3.25500000e-01	1.68708927e-02	2.15820394e-04
3.26000000e-01	1.68774055e-02	2.15460028e-04
3.26500000e-01	1.67538456e-02	2.14501194e-04
3.27000000e-01	1.67089581e-02	2.13685350e-04
3.27500000e-01	1.68025275e-02	2.13701063e-04
3.28000000e-01	1.67230361e-02	2.13539304e-04
3.28500000e-01	1.67680490e-02	2.13302906e-04
3.29000000e-01	1.66384734e-02	2.12322867e-04
3.29500000e-01	1.68276597e-02	2.14426652e-04
3.30000000e-01	1.66502507e-02	2.11858758e-04
3.30500000e-01	1.67066610e-02	2.12204137e-04
3.31000000e-01	1.68898456e-02	2.13642252e-04
3.31500000e-01	1.68072845e-02	2.13083148e-04
3.32000000e-01	1.68097495e-02	2.13003792e-04
3.32500000e-01	1.66926505e-02	2.11430390e-04
3.33000000e-01	1.66181899e-02	2.10230863e-04
3.33500000e-01	1.65342189e-02	2.09311033e-04
3.34000000e-01	1.66586373e-02	2.10575862e-04
3.34500000e-01	1.66586180e-02	2.10555494e-04
3.35000000e-01	1.64585269e-02	2.08130747e-04
3.35500000e-01	1.67969236e-02	2.12272987e-04
3.36000000e-01	1.64326781e-02	2.07380593e-04
3.36500000e-01	1.67422271e-02	2.11643089e-04
3.37000000e-01	1.67266711e-02	2.10288977e-04
3.37500000e-01	1.66642756e-02	2.09714097e-04
3.38000000e-01	1.65524384e-02	2.08060187e-04
3.38500000e-01	1.65698355e-02	2.07647806e-04
3.39000000e-01	1.65659715e-02	2.09057590e-04
3.39500000e-01	1.67195384e-02	2.09190752e-04
3.40000000e-01	1.64679774e-02	2.06624833e-04
3.40500000e-01	1.63850462e-02	2.06298575e-04
3.41000000e-01	1.63327277e-02	2.04695402e-04
3.41500000e-01	1.65793531e-02	2.07919063e-04
3.42000000e-01	1.64417884e-02	2.05347363e-04
3.42500000e-01	1.64343673e-02	2.05259707e-04
3.43000000e-01	1.64464944e-02	2.05426450e-04
3.43500000e-01	1.65014304e-02	2.05606598e-04
3.44000000e-01	1.63362216e-02	2.04151680e-04
3.44500000e-01	1.63457774e-02	2.03990384e-04
3.45000000e-01	1.65286094e-02	2.05048545e-04
3.45500000e-01	1.63889109e-02	2.03760580e-04
3.46000000e-01	1.65095903e-02	2.05576908e-04
3.46500000e-01	1.63012595e-02	2.02636569e-04
3.47000000e-01	1.65268207e-02	2.04224870e-04
3.47500000e-01	1.64711427e-02	2.03485054e-04
3.48000000e-01	1.61975835e-02	2.01090922e-04
3.48500000e-01	1.63805121e-02	2.03762347e-04
3.49000000e-01	1.62740566e-02	2.01490129e-04
3.49500000e-01	1.64152097e-02	2.02419223e-04
3.50000000e-01	1.65576627e-02	1.67128211e-04
3.51000000e-01	1.63336106e-02	1.42927114e-04
3.52000000e-01	1.63500616e-02	1.42659236e-04
3.53000000e-01	1.63923383e-02	1.42313552e-04
3.54000000e-01	1.61742144e-02	1.40443994e-04
3.55000000e-01	1.63813181e-02	1.42072867e-04
3.56000000e-01	1.63641945e-02	1.42920366e-04
3.57000000e-01	1.61925399e-02	1.43431066e-04
3.58000000e-01	1.61918175e-02	1.45041840e-04
3.59000000e-01	1.61809477e-02	1.45861296e-04
3.60000000e-01	1.62094585e-02	1.47067279e-04
3.61000000e-01	1.61819123e-02	1.47093883e-04
3.62000000e-01	1.61874539e-02	1.48069181e-04
3.63000000e-01	1.60973657e-02	1.47770250e-04
3.64000000e-01	1.60580122e-02	1.48067684e-04
3.65000000e-01	1.59700587e-02	1.47619636e-04
3.66000000e-01	1.60980212e-02	1.47389905e-04
3.67000000e-01	1.61307574e-02	1.45473294e-04
3.68000000e-01	1.59695350e-02	1.43443739e-04
3.69000000e-01	1.61254312e-02	1.43668160e-04
3.70000000e-01	1.61319513e-02	1.42901079e-04
3.71000000e-01	1.60234573e-02	1.43888950e-04
3.72000000e-01	1.60886260e-02	1.45590891e-04
3.73000000e-01	1.59728016e-02	1.44655630e-04
3.74000000e-01	1.60333710e-02	1.45548170e-04
3.75000000e-01	1.59018674e-02	1.44771563e-04
3.76000000e-01	1.58548599e-02	1.44037494e-04
3.77000000e-01	1.58915398e-02	1.44661724e-04
3.78000000e-01	1.59337364e-02	1.44915015e-04
3.79000000e-01	1.58650442e-02	1.44020409e-04
3.80000000e-01	1.58398784e-02	1.43519441e-04
3.81000000e-01	1.58173483e-02	1.43359365e-04
3.82000000e-01	1.58940391e-02	1.43943006e-04
3.83000000e-01	1.59651445e-02	1.44449951e-04
3.84000000e-01	1.58189589e-02	1.43551793e-04
3.85000000e-01	1.57719519e-02	1.43267100e-04
3.86000000e-01	1.58038826e-02	1.43222383e-04
3.87000000e-01	1.59010174e-02	1.43920220e-04
3.88000000e-01	1.57115812e-02	1.42564814e-04
3.89000000e-01	1.59727908e-02	1.44305727e-04
3.90000000e-01	1.57713845e-02	1.42295660e-04
3.91000000e-01	1.56289824e-02	1.41328448e-04
3.92000000e-01	1.56045490e-02	1.40978173e-04
3.93000000e-01	1.57154934e-02	1.41818018e-04
3.94000000e-01	1.56254782e-02	1.41174111e-04
3.95000000e-01	1.56769285e-02	1.41799081e-04
3.96000000e-01	1.56662295e-02	1.41499346e-04
3.97000000e-01	1.56140836e-02	1.41215945e-04
3.98000000e-01	1.56355900e-02	1.41852414e-04
3.99000000e-01	1.56556462e-02	1.41369875e-04
4.00000000e-01	1.56364521e-02	1.41361432e-04
4.01000000e-01	1.56802848e-02	1.41507940e-04
4.02000000e-01	1.56951748e-02	1.41544086e-04
4.03000000e-01	1.54767351e-02	1.39969243e-04
4.04000000e-01	1.55610921e-02	1.40666029e-04
4.05000000e-01	1.54770515e-02	1.39824559e-04
4.06000000e-01	1.54825615e-02	1.39610374e-04
4.07000000e-01	1.54191989e-02	1.39185234e-04
4.08000000e-01	1.54572099e-02	1.39288230e-04
4.09000000e-01	1.55719253e-02	1.39879287e-04
4.10000000e-01	1.54586496e-02	1.39042951e-04
4.11000000e-01	1.55323734e-02	1.39834885e-04
4.12000000e-01	1.55259810e-02	1.40111352e-04
4.13000000e-01	1.54251936e-02	1.38787746e-04
4.14000000e-01	1.54041324e-02	1.38725016e-04
4.15000000e-01	1.53745447e-02	1.38237275e-04
4.16000000e-01	1.54450697e-02	1.38657428e-04
4.17000000e-01	1.55350337e-02	1.39508274e-04
4.18000000e-01	1.53949675e-02	1.39909923e-04
4.19000000e-01	1.55280820e-02	1.43291251e-04
4.20000000e-01	1.55126342e-02	1.43372728e-04
4.21000000e-01	1.55004540e-02	1.43896758e-04
4.22000000e-01	1.54321024e-02	1.43561306e-04
4.23000000e-01	1.54902338e-02	1.44407164e-04
4.24000000e-01	1.54158858e-02	1.44966812e-04
4.25000000e-01	1.54618282e-02	1.44791533e-04
4.26000000e-01	1.55111776e-02	1.45239433e-04
4.27000000e-01	1.54791670e-02	1.45247878e-04
4.28000000e-01	1.53382238e-02	1.44332167e-04
4.29000000e-01	1.54325259e-02	1.45599732e-04
4.30000000e-01	1.54841675e-02	1.45524351e-04
4.31000000e-01	1.53478195e-02	1.44309038e-04
4.32000000e-01	1.53713202e-02	1.45060447e-04
4.33000000e-01	1.54362158e-02	1.45427736e-04
4.34000000e-01	1.53697622e-02	1.45138601e-04
4.35000000e-01	1.52619408e-02	1.44584787e-04
4.36000000e-01	1.54119919e-02	1.45759906e-04
4.37000000e-01	1.53316212e-02	1.45243827e-04
4.38000000e-01	1.53082204e-02	1.45144428e-04
4.39000000e-01	1.52050477e-02	1.44746637e-04
4.40000000e-01	1.52526879e-02	1.44699424e-04
4.41000000e-01	1.53288440e-02	1.46157088e-04
4.42000000e-01	1.52192512e-02	1.45341041e-04
4.43000000e-01	1.51539992e-02	1.44854456e-04
4.44000000e-01	1.52356456e-02	1.45689347e-04
4.45000000e-01	1.52059454e-02	1.45629101e-04
4.46000000e-01	1.52889962e-02	1.46321160e-04
4.47000000e-01	1.53113569e-02	1.46577518e-04
4.48000000e-01	1.52014973e-02	1.45777567e-04
4.49000000e-01	1.51927789e-02	1.46401198e-04
4.50000000e-01	1.51610934e-02	1.45705850e-04
4.51000000e-01	1.51724261e-02	1.45774069e-04
4.52000000e-01	1.53287788e-02	1.47511089e-04
4.53000000e-01	1.51820152e-02	1.46193463e-04
4.54000000e-01	1.51629056e-02	1.46305014e-04
4.55000000e-01	1.51647261e-02	1.46106640e-04
4.56000000e-01	1.52181297e-02	1.46731230e-04
4.57000000e-01	1.50235162e-02	1.45239548e-04
4.58000000e-01	1.50271403e-02	1.45736198e-04
4.59000000e-01	1.50640137e-02	1.45978062e-04
4.60000000e-01	1.50517892e-02	1.46332365e-04
4.61000000e-01	1.50522772e-02	1.46047534e-04
4.62000000e-01	1.49792698e-02	1.45610776e-04
4.63000000e-01	1.51023961e-02	1.47141421e-04
4.64000000e-01	1.51022324e-02	1.46994845e-04
4.65000000e-01	1.49274168e-02	1.45852467e-04
4.66000000e-01	1.50214886e-02	1.46332514e-04
4.67000000e-01	1.50702454e-02	1.46925853e-04
4.68000000e-01	1.50929319e-02	1.47294151e-04
4.69000000e-01	1.49962512e-02	1.46923635e-04
4.70000000e-01	1.49909154e-02	1.46220400e-04
4.71000000e-01	1.50129956e-02	1.46784681e-04
4.72000000e-01	1.49120761e-02	1.45606682e-04
4.73000000e-01	1.49713754e-02	1.46453015e-04
4.74000000e-01	1.50037708e-02	1.45889017e-04
4.75000000e-01	1.48886935e-02	1.45112773e-04
4.76000000e-01	1.49321591e-02	1.45383392e-04
4.77000000e-01	1.49087285e-02	1.45558522e-04
4.78000000e-01	1.48423183e-02	1.45084016e-04
4.79000000e-01	1.50056774e-02	1.46583418e-04
4.80000000e-01	1.48743266e-02	1.45604892e-04
4.81000000e-01	1.47731374e-02	1.45004887e-04
4.82000000e-01	1.48613959e-02	1.44997497e-04
4.83000000e-01	1.49152056e-02	1.46073333e-04
4.84000000e-01	1.47668071e-02	1.44761807e-04
4.85000000e-01	1.48027622e-02	1.45060491e-04
4.86000000e-01	1.47223477e-02	1.44971475e-04
4.87000000e-01	1.48075002e-02	1.45442080e-04
4.88000000e-01	1.48011892e-02	1.45251709e-04
4.89000000e-01	1.47524451e-02	1.45483462e-04
4.90000000e-01	1.47504463e-02	1.44990763e-04
4.91000000e-01	1.47783822e-02	1.45673772e-04
4.92000000e-01	1.49489513e-02	1.47157048e-04
4.93000000e-01	1.48409656e-02	1.46080421e-04
4.94000000e-01	1.47969772e-02	1.45868745e-04
4.95000000e-01	1.46832126e-02	1.46488132e-04
4.96000000e-01	1.48141301e-02	1.51487434e-04
4.97000000e-01	1.47225449e-02	1.53709972e-04
4.98000000e-01	1.46344335e-02	1.54425943e-04
4.99000000e-01	1.47747100e-02	1.57420496e-04
5.00000000e-01	1.47268365e-02	1.59158234e-04
5.01000000e-01	1.48340551e-02	1.61374832e-04
5.02000000e-01	1.48142839e-02	1.62792879e-04
5.03000000e-01	1.46771549e-02	1.63176258e-04
5.04000000e-01	1.48129493e-02	1.65750638e-04
5.05000000e-01	1.47392122e-02	1.62222917e-04
5.06000000e-01	1.48714095e-02	1.60205171e-04
5.07000000e-01	1.49164182e-02	1.59128052e-04
5.08000000e-01	1.45403687e-02	1.54793457e-04
5.09000000e-01	1.46603673e-02	1.55407028e-04
5.10000000e-01	1.47516826e-02	1.55286103e-04
5.11000000e-01	1.47307244e-02	1.54359059e-04
5.12000000e-01	1.47698347e-02	1.54248843e-04
5.13000000e-01	1.48233560e-02	1.54695149e-04
5.14000000e-01	1.47114321e-02	1.53148072e-04
5.15000000e-01	1.46421148e-02	1.51840533e-04
5.16000000e-01	1.46292451e-02	1.51801799e-04
5.17000000e-01	1.46765134e-02	1.52392842e-04
5.18000000e-01	1.46170938e-02	1.51693208e-04
5.19000000e-01	1.45986893e-02	1.50762666e-04
5.20000000e-01	1.45484987e-02	1.50026709e-04
5.21000000e-01	1.45420626e-02	1.49795724e-04
5.22000000e-01	1.46011798e-02	1.50560223e-04
5.23000000e-01	1.44840368e-02	1.49524825e-04
5.24000000e-01	1.47060256e-02	1.50736836e-04
5.25000000e-01	1.46749848e-02	1.50469247e-04
5.26000000e-01	1.44785093e-02	1.48491130e-04
5.27000000e-01	1.46156785e-02	1.50079854e-04
5.28000000e-01	1.45375373e-02	1.49566580e-04
5.29000000e-01	1.44364055e-02	1.48961883e-04
5.30000000e-01	1.44155739e-02	1.47971116e-04
5.31000000e-01	1.45198569e-02	1.49170343e-04
5.32000000e-01	1.45181103e-02	1.49829966e-04
5.33000000e-01	1.43375792e-02	1.47284692e-04
5.34000000e-01	1.44260064e-02	1.48855154e-04
5.35000000e-01	1.44599655e-02	1.48614020e-04
5.36000000e-01	1.42233962e-02	1.46293533e-04
5.37000000e-01	1.43775683e-02	1.48506550e-04
5.38000000e-01	1.43300723e-02	1.47273053e-04
5.39000000e-01	1.43882182e-02	1.47674440e-04
5.40000000e-01	1.42755493e-02	1.47014800e-04
5.41000000e-01	1.44428009e-02	1.48433199e-04
5.42000000e-01	1.44350843e-02	1.48005443e-04
5.43000000e-01	1.42800956e-02	1.46896262e-04
5.44000000e-01	1.43242562e-02	1.47636081e-04
5.45000000e-01	1.43098093e-02	1.47063613e-04
5.46000000e-01	1.43050774e-02	1.47064614e-04
5.47000000e-01	1.41989197e-02	1.46386678e-04
5.48000000e-01	1.41865514e-02	1.46059202e-04
5.49000000e-01	1.42666152e-02	1.46298290e-04
5.50000000e-01	1.42112802e-02	1.45952196e-04
5.51000000e-01	1.42114065e-02	1.45890827e-04
5.52000000e-01	1.42478263e-02	1.46216032e-04
5.53000000e-01	1.43049741e-02	1.46407938e-04
5.54000000e-01	1.43040378e-02	1.46468964e-04
5.55000000e-01	1.42587547e-02	1.45809454e-04
5.56000000e-01	1.42089938e-02	1.45319891e-04
5.57000000e-01	1.42006172e-02	1.44815300e-04
5.58000000e-01	1.40684874e-02	1.44466770e-04
5.59000000e-01	1.42122425e-02	1.45432288e-04
5.60000000e-01	1.41528432e-02	1.45310200e-04
5.61000000e-01	1.42046037e-02	1.45129597e-04
5.62000000e-01	1.40599666e-02	1.43936422e-04
5.63000000e-01	1.40814340e-02	1.43782389e-04
5.64000000e-01	1.42046490e-02	1.44774563e-04
5.65000000e-01	1.40629664e-02	1.43921400e-04
5.66000000e-01	1.41351368e-02	1.44200793e-04
5.67000000e-01	1.40858066e-02	1.44513803e-04
5.68000000e-01	1.42311199e-02	1.45650723e-04
5.69000000e-01	1.41631901e-02	1.44368305e-04
5.70000000e-01	1.42034472e-02	1.45167712e-04
5.71000000e-01	1.40112803e-02	1.43268263e-04
5.72000000e-01	1.40886148e-02	1.43849799e-04
5.73000000e-01	1.40485786e-02	1.43612998e-04
5.74000000e-01	1.39965846e-02	1.43567749e-04
5.75000000e-01	1.38161701e-02	1.41759996e-04
5.76000000e-01	1.39558483e-02	1.43191723e-04
5.77000000e-01	1.40134782e-02	1.43656073e-04
5.78000000e-01	1.38528905e-02	1.42571326e-04
5.79000000e-01	1.40546735e-02	1.44077863e-04
5.80000000e-01	1.39664217e-02	1.43450370e-04
5.81000000e-01	1.38720256e-02	1.42802972e-04
5.82000000e-01	1.39609142e-02	1.43161021e-04
5.83000000e-01	1.38873756e-02	1.42265618e-04
5.84000000e-01	1.38815434e-02	1.42562415e-04
5.85000000e-01	1.38855425e-02	1.42695233e-04
5.86000000e-01	1.38736224e-02	1.42770070e-04
5.87000000e-01	1.38605142e-02	1.42152387e-04
5.88000000e-01	1.38634371e-02	1.42446534e-04
5.89000000e-01	1.39349515e-02	1.43280047e-04
5.90000000e-01	1.39057195e-02	1.42419470e-04
5.91000000e-01	1.37638832e-02	1.41553758e-04
5.92000000e-01	1.38998279e-02	1.42963497e-04
5.93000000e-01	1.38279106e-02	1.42129907e-04
5.94000000e-01	1.38550776e-02	1.42558677e-04
5.95000000e-01	1.37519763e-02	1.41421990e-04
5.96000000e-01	1.37059533e-02	1.41292542e-04
5.97000000e-01	1.37826702e-02	1.41826464e-04
5.98000000e-01	1.38391505e-02	1.42260214e-04
5.99000000e-01	1.38258845e-02	1.42574499e-04
6.00000000e-01	1.38508290e-02	1.42184075e-04
6.01000000e-01	1.37190497e-02	1.41714151e-04
6.02000000e-01	1.38381250e-02	1.42703465e-04
6.03000000e-01	1.37840296e-02	1.41768929e-04
6.04000000e-01	1.37423789e-02	1.41380338e-04
6.05000000e-01	1.37336640e-02	1.41130833e-04
6.06000000e-01	1.37193309e-02	1.41685588e-04
6.07000000e-01	1.36832162e-02	1.40909164e-04
6.08000000e-01	1.36882469e-02	1.41146765e-04
6.09000000e-01	1.36403360e-02	1.40872368e-04
6.10000000e-01	1.36789226e-02	1.41053457e-04
6.11000000e-01	1.37636302e-02	1.41918117e-04
6.12000000e-01	1.37198252e-02	1.41527834e-04
6.13000000e-01	1.36114134e-02	1.40913310e-04
6.14000000e-01	1.35106430e-02	1.39906715e-04
6.15000000e-01	1.36589696e-02	1.41303203e-04
6.16000000e-01	1.36005631e-02	1.40876752e-04
6.17000000e-01	1.36928949e-02	1.41544922e-04
6.18000000e-01	1.35435820e-02	1.40086387e-04
6.19000000e-01	1.35346397e-02	1.39291163e-04
6.20000000e-01	1.35562854e-02	1.40282965e-04
6.21000000e-01	1.36366369e-02	1.40725838e-04
6.22000000e-01	1.36124132e-02	1.39744954e-04
6.23000000e-01	1.35663587e-02	1.39220488e-04
6.24000000e-01	1.35652895e-02	1.39332778e-04
6.25000000e-01	1.35793981e-02	1.38937880e-04
6.26000000e-01	1.35586376e-02	1.39003598e-04
6.27000000e-01	1.36214456e-02	1.39646303e-04
6.28000000e-01	1.35196468e-02	1.38871919e-04
6.29000000e-01	1.34986767e-02	1.38650954e-04
6.30000000e-01	1.34401883e-02	1.38377940e-04
6.31000000e-01	1.37653347e-02	1.41015158e-04
6.32000000e-01	1.35166237e-02	1.39473747e-04
6.33000000e-01	1.34852666e-02	1.38443485e-04
6.34000000e-01	1.36462552e-02	1.43341451e-04
6.35000000e-01	1.37301142e-02	1.48463189e-04
6.36000000e-01	1.36470976e-02	1.50267127e-04
6.37000000e-01	1.34371870e-02	1.50320202e-04
6.38000000e-01	1.35168617e-02	1.52951626e-04
6.39000000e-01	1.35378680e-02	1.55302992e-04
6.40000000e-01	1.35358190e-02	1.57467581e-04
6.41000000e-01	1.36471874e-02	1.59746247e-04
6.42000000e-01	1.34552870e-02	1.60478666e-04
6.43000000e-01	1.35360084e-02	1.60142601e-04
6.44000000e-01	1.37154068e-02	1.56679144e-04
6.45000000e-01	1.36057784e-02	1.53330121e-04
6.46000000e-01	1.35823932e-02	1.52180163e-04
6.47000000e-01	1.34461293e-02	1.49443445e-04
6.48000000e-01	1.37364787e-02	1.51582576e-04
6.49000000e-01	1.34613731e-02	1.48217660e-04
6.50000000e-01	1.34849713e-02	1.47199978e-04
6.51000000e-01	1.35646643e-02	1.47370809e-04
6.52000000e-01	1.34024297e-02	1.44799489e-04
6.53000000e-01	1.34639139e-02	1.45766372e-04
6.54000000e-01	1.35430131e-02	1.45247517e-04
6.55000000e-01	1.36183475e-02	1.45682159e-04
6.56000000e-01	1.34603690e-02	1.44697615e-04
6.57000000e-01	1.34363050e-02	1.44073742e-04
6.58000000e-01	1.35643066e-02	1.44658539e-04
6.59000000e-01	1.34778296e-02	1.44257970e-04
6.60000000e-01	1.36052444e-02	1.45109467e-04
6.61000000e-01	1.34677593e-02	1.44164619e-04
6.62000000e-01	1.34336473e-02	1.43494017e-04
6.63000000e-01	1.34737155e-02	1.44114007e-04
6.64000000e-01	1.34465456e-02	1.42808758e-04
6.65000000e-01	1.33717232e-02	1.42534477e-04
6.66000000e-01	1.32915708e-02	1.41610754e-04
6.67000000e-01	1.34134641e-02	1.42748029e-04
6.68000000e-01	1.33487183e-02	1.42351745e-04
6.69000000e-01	1.33573061e-02	1.42164059e-04
6.70000000e-01	1.33949695e-02	1.42306021e-04
6.71000000e-01	1.34684069e-02	1.43247010e-04
6.72000000e-01	1.35299099e-02	1.43668176e-04
6.73000000e-01	1.33482707e-02	1.41995437e-04
6.74000000e-01	1.33610389e-02	1.41720420e-04
6.75000000e-01	1.33780634e-02	1.42342834e-04
6.76000000e-01	1.34208861e-02	1.42525115e-04
6.77000000e-01	1.33929186e-02	1.42234396e-04
6.78000000e-01	1.32736215e-02	1.40990843e-04
6.79000000e-01	1.33411519e-02	1.41606073e-04
6.80000000e-01	1.32624200e-02	1.40764807e-04
6.81000000e-01	1.32929319e-02	1.41455638e-04
6.82000000e-01	1.32660439e-02	1.40936630e-04
6.83000000e-01	1.31815186e-02	1.39839523e-04
6.84000000e-01	1.33385225e-02	1.41519414e-04
6.85000000e-01	1.32857660e-02	1.40662512e-04
6.86000000e-01	1.32006389e-02	1.39980640e-04
6.87000000e-01	1.33669214e-02	1.41679145e-04
6.88000000e-01	1.34183028e-02	1.41927688e-04
6.89000000e-01	1.32299069e-02	1.40034659e-04
6.90000000e-01	1.31631107e-02	1.39680376e-04
6.91000000e-01	1.32024825e-02	1.39900406e-04
6.92000000e-01	1.30965652e-02	1.38803085e-04
6.93000000e-01	1.31656335e-02	1.39488352e-04
6.94000000e-01	1.31696802e-02	1.39434050e-04
6.95000000e-01	1.32483753e-02	1.40249558e-04
6.96000000e-01	1.31494502e-02	1.39072257e-04
6.97000000e-01	1.31256266e-02	1.39057479e-04
6.98000000e-01	1.32108203e-02	1.39680764e-04
6.99000000e-01	1.31097686e-02	1.39112056e-04
7.00000000e-01	1.31735244e-02	1.39088086e-04
7.01000000e-01	1.31183813e-02	1.39019629e-04
7.02000000e-01	1.30982720e-02	1.38957899e-04
7.03000000e-01	1.30616941e-02	1.38758342e-04
7.04000000e-01	1.30625070e-02	1.38166814e-04
7.05000000e-01	1.30787274e-02	1.38433685e-04
7.06000000e-01	1.31087143e-02	1.38739364e-04
7.07000000e-01	1.30115066e-02	1.37418770e-04
7.08000000e-01	1.30561611e-02	1.37776848e-04
7.09000000e-01	1.31203639e-02	1.38435096e-04
7.10000000e-01	1.29970400e-02	1.37570858e-04
7.11000000e-01	1.30074041e-02	1.37364712e-04
7.12000000e-01	1.29042441e-02	1.36489752e-04
7.13000000e-01	1.30079957e-02	1.37614183e-04
7.14000000e-01	1.29617337e-02	1.37602305e-04
7.15000000e-01	1.28498762e-02	1.35956271e-04
7.16000000e-01	1.29821078e-02	1.37569011e-04
7.17000000e-01	1.28189744e-02	1.36234528e-04
7.18000000e-01	1.29047914e-02	1.36539606e-04
7.19000000e-01	1.30219428e-02	1.37784233e-04
7.20000000e-01	1.29136677e-02	1.36397150e-04
7.21000000e-01	1.29199826e-02	1.36774989e-04
7.22000000e-01	1.29759609e-02	1.37104668e-04
7.23000000e-01	1.28218920e-02	1.36421485e-04
7.24000000e-01	1.27224134e-02	1.35073394e-04
7.25000000e-01	1.27769637e-02	1.34937221e-04
7.26000000e-01	1.27335678e-02	1.35113233e-04
7.27000000e-01	1.27878990e-02	1.35211296e-04
7.28000000e-01	1.27246484e-02	1.35161385e-04
7.29000000e-01	1.27792567e-02	1.35637469e-04
7.30000000e-01	1.26539062e-02	1.34296721e-04
7.31000000e-01	1.28063398e-02	1.35623231e-04
7.32000000e-01	1.27298028e-02	1.35128308e-04
7.33000000e-01	1.27254009e-02	1.35002076e-04
7.34000000e-01	1.27771727e-02	1.35518344e-04
7.35000000e-01	1.26868904e-02	1.34055835e-04
7.36000000e-01	1.27435366e-02	1.34175909e-04
7.37000000e-01	1.27753969e-02	1.34289804e-04
7.38000000e-01	1.27785285e-02	1.34251314e-04
7.39000000e-01	1.26265047e-02	1.32630922e-04
7.40000000e-01	1.27021012e-02	1.33445980e-04
7.41000000e-01	1.26313381e-02	1.32554293e-04
7.42000000e-01	1.27570266e-02	1.33625120e-04
7.43000000e-01	1.27242773e-02	1.33233905e-04
7.44000000e-01	1.25384668e-02	1.31539731e-04
7.45000000e-01	1.26555958e-02	1.32983788e-04
7.46000000e-01	1.26336801e-02	1.32328971e-04
7.47000000e-01	1.25708052e-02	1.32150016e-04
7.48000000e-01	1.25533985e-02	1.32121186e-04
7.49000000e-01	1.27196600e-02	1.33169757e-04
7.50000000e-01	1.25833877e-02	1.31894047e-04
7.51000000e-01	1.26310289e-02	1.32476436e-04
7.52000000e-01	1.27333421e-02	1.33594748e-04
7.53000000e-01	1.27673304e-02	1.33724533e-04
7.54000000e-01	1.25191038e-02	1.31452745e-04
7.55000000e-01	1.26204847e-02	1.32334240e-04
7.56000000e-01	1.25036857e-02	1.31665217e-04
7.57000000e-01	1.25819801e-02	1.32173764e-04
7.58000000e-01	1.25452714e-02	1.31998376e-04
7.59000000e-01	1.25647665e-02	1.32065237e-04
7.60000000e-01	1.25370866e-02	1.31031187e-04
7.61000000e-01	1.24450029e-02	1.30282718e-04
7.62000000e-01	1.24092360e-02	1.29825209e-04
7.63000000e-01	1.24602297e-02	1.29983016e-04
7.64000000e-01	1.23599925e-02	1.29278928e-04
7.65000000e-01	1.25330309e-02	1.30685277e-04
7.66000000e-01	1.24190649e-02	1.29352643e-04
7.67000000e-01	1.23773741e-02	1.29033768e-04
7.68000000e-01	1.23256768e-02	1.28665708e-04
7.69000000e-01	1.23513608e-02	1.28894793e-04
7.70000000e-01	1.23682918e-02	1.29052371e-04
7.71000000e-01	1.22941415e-02	1.28242994e-04
7.72000000e-01	1.23124309e-02	1.32382927e-04
7.73000000e-01	1.23049578e-02	1.36545685e-04
7.74000000e-01	1.23710469e-02	1.40005398e-04
7.75000000e-01	1.23873695e-02	1.42902031e-04
7.76000000e-01	1.24641225e-02	1.45455441e-04
7.77000000e-01	1.23195320e-02	1.46085956e-04
7.78000000e-01	1.22404321e-02	1.47568728e-04
7.79000000e-01	1.22129435e-02	1.48183048e-04
7.80000000e-01	1.22087993e-02	1.50273669e-04
7.81000000e-01	1.23306944e-02	1.53278107e-04
7.82000000e-01	1.22356069e-02	1.53800081e-04
7.83000000e-01	1.22125771e-02	1.55660014e-04
7.84000000e-01	1.21300049e-02	1.55919236e-04
7.85000000e-01	1.21862565e-02	1.58199431e-04
7.86000000e-01	1.21852318e-02	1.59838059e-04
7.87000000e-01	1.22110766e-02	1.61855040e-04
7.88000000e-01	1.22836535e-02	1.64747061e-04
7.89000000e-01	1.20838329e-02	1.63640817e-04
7.90000000e-01	1.21846631e-02	1.66633695e-04
7.91000000e-01	1.21924274e-02	1.67598685e-04
7.92000000e-01	1.20922077e-02	1.68447437e-04
7.93000000e-01	1.22825019e-02	1.71462116e-04
7.94000000e-01	1.19474563e-02	1.69895273e-04
7.95000000e-01	1.19653052e-02	1.71391305e-04
7.96000000e-01	1.21425700e-02	1.76095414e-04
7.97000000e-01	1.19425175e-02	1.75744495e-04
7.98000000e-01	1.20011816e-02	1.78883761e-04
7.99000000e-01	1.20076044e-02	1.79777704e-04
8.00000000e-01	1.19479797e-02	1.80034178e-04
8.01000000e-01	1.19528607e-02	1.82025584e-04
8.02000000e-01	1.22100069e-02	1.87389549e-04
8.03000000e-01	1.20420516e-02	1.88654228e-04
8.04000000e-01	1.18078891e-02	1.86973331e-04
8.05000000e-01	1.18225704e-02	1.89166136e-04
8.06000000e-01	1.19825177e-02	1.93748571e-04
8.07000000e-01	1.19986555e-02	1.95760802e-04
8.08000000e-01	1.20156317e-02	1.97032986e-04
8.09000000e-01	1.19034742e-02	1.98908109e-04
8.10000000e-01	1.19945413e-02	2.02428501e-04
8.11000000e-01	1.16999224e-02	1.99738195e-04
8.12000000e-01	1.18748912e-02	2.05122883e-04
8.13000000e-01	1.17892038e-02	2.06839958e-04
8.14000000e-01	1.18329000e-02	2.08781881e-04
8.15000000e-01	1.17635043e-02	2.10862002e-04
8.16000000e-01	1.19201721e-02	2.15349552e-04
8.17000000e-01	1.17357694e-02	2.15722896e-04
8.18000000e-01	1.16539007e-02	2.16501903e-04
8.19000000e-01	1.16641388e-02	2.19341569e-04
8.20000000e-01	1.17335455e-02	2.22856457e-04
8.21000000e-01	1.17537712e-02	2.25920115e-04
8.22000000e-01	1.16866557e-02	2.29717792e-04
8.23000000e-01	1.18812735e-02	2.34364716e-04
8.24000000e-01	1.17655294e-02	2.36218384e-04
8.25000000e-01	1.18795708e-02	2.42211885e-04
8.26000000e-01	1.18029741e-02	2.43989126e-04
8.27000000e-01	1.15382839e-02	2.42043230e-04
8.28000000e-01	1.18054001e-02	2.50186436e-04
8.29000000e-01	1.14146049e-02	2.47112235e-04
8.30000000e-01	1.17517012e-02	2.58247686e-04
8.31000000e-01	1.13715713e-02	2.54693325e-04
8.32000000e-01	1.15665458e-02	2.62693903e-04
8.33000000e-01	1.15282587e-02	2.65752190e-04
8.34000000e-01	1.16564017e-02	2.72487221e-04
8.35000000e-01	1.15044524e-02	2.74108312e-04
8.36000000e-01	1.16697657e-02	2.84701145e-04
8.37000000e-01	1.12900263e-02	2.81452047e-04
8.38000000e-01	1.16172446e-02	2.95159581e-04
8.39000000e-01	1.15735383e-02	2.99207822e-04
8.40000000e-01	1.13843590e-02	3.01549595e-04
8.41000000e-01	1.12912827e-02	3.04247607e-04
8.42000000e-01	1.14172792e-02	3.14957353e-04
8.43000000e-01	1.14398977e-02	3.23402949e-04
8.44000000e-01	1.11639726e-02	3.24111361e-04
8.45000000e-01	1.14224417e-02	3.38131616e-04
8.46000000e-01	1.12432106e-02	3.45027814e-04
8.47000000e-01	1.13456172e-02	3.55184937e-04
8.48000000e-01	1.14824077e-02	3.71397671e-04
8.49000000e-01	1.16979208e-02	3.93661547e-04
8.50000000e-01	1.14638536e-02	3.94270444e-04
8.51000000e-01	1.12683959e-02	4.06163192e-04
8.52000000e-01	1.18276555e-02	4.35945757e-04
8.53000000e-01	1.16922684e-02	4.50308666e-04
8.54000000e-01	1.13774413e-02	4.65345373e-04
8.55000000e-01	1.10464904e-02	4.68589473e-04
8.56000000e-01	1.12883798e-02	4.90690848e-04
8.57000000e-01	1.12055320e-02	4.96877929e-04
8.58000000e-01	1.10461035e-02	5.03655345e-04
8.59000000e-01	1.15787969e-02	5.41569459e-04
8.60000000e-01	1.07178545e-02	5.18605783e-04
8.61000000e-01	1.09597745e-02	5.52747526e-04
8.62000000e-01	1.05869683e-02	5.55075650e-04
8.63000000e-01	1.06498593e-02	5.74250028e-04
8.64000000e-01	1.12165810e-02	6.36029946e-04
8.65000000e-01	1.12367670e-02	6.71259716e-04
8.66000000e-01	1.11837383e-02	7.11776091e-04
8.67000000e-01	1.08560423e-02	7.25514166e-04
8.68000000e-01	1.11389903e-02	7.80130550e-04
8.69000000e-01	1.07528069e-02	8.12812459e-04
8.70000000e-01	1.06882058e-02	8.94387065e-04
8.71000000e-01	1.12256848e-02	1.07301680e-03
8.72000000e-01	1.18555503e-02	1.19925251e-03
8.73000000e-01	1.05286529e-02	1.29592047e-03
8.74000000e-01	1.16245699e-02	1.94375609e-03
8.75000000e-01	1.14833062e-02	4.01234794e-03
