% Filename : SEC9_00044_00010.h5
% Date & Time : 30-Oct-2025 18:04:10
% X-ray Energy (keV) : 13.30001
% Exposure Time (s) : 0.500
% Beam Center : 1461.24000, 208.98300
% Sample to Detector Distance (SDD) (mm) : 1990.750
% Detector Pixel Size (mm) : 0.075
% Photodiode Value : 141346.000
% I0 of Sample : 0
% I0 of Standard : 1
% 
% q(A^-1)   I(q)    I(q)_SE
0.00000000e+00	1.27819186e-02	6.76355872e-03
2.50000000e-04	0.00000000e+00	0.00000000e+00
5.00000000e-04	0.00000000e+00	0.00000000e+00
7.50000000e-04	0.00000000e+00	0.00000000e+00
1.00000000e-03	0.00000000e+00	0.00000000e+00
1.25000000e-03	0.00000000e+00	0.00000000e+00
1.50000000e-03	0.00000000e+00	0.00000000e+00
1.75000000e-03	0.00000000e+00	0.00000000e+00
2.00000000e-03	0.00000000e+00	0.00000000e+00
2.25000000e-03	0.00000000e+00	0.00000000e+00
2.50000000e-03	0.00000000e+00	0.00000000e+00
2.75000000e-03	0.00000000e+00	0.00000000e+00
3.00000000e-03	0.00000000e+00	0.00000000e+00
3.25000000e-03	4.18334890e+02	2.41989891e+02
3.50000000e-03	5.19084364e+02	1.22417709e+02
3.75000000e-03	4.14433394e+02	7.59552695e+01
4.00000000e-03	3.27129853e+02	5.59699778e+01
4.25000000e-03	2.45496015e+02	3.51061743e+01
4.50000000e-03	2.34110655e+02	3.00496209e+01
4.75000000e-03	2.01135386e+02	2.32843678e+01
5.00000000e-03	1.57962903e+02	1.76485402e+01
5.25000000e-03	1.32435336e+02	1.47397270e+01
5.50000000e-03	1.10458438e+02	1.17631779e+01
5.75000000e-03	9.26329644e+01	9.57924871e+00
6.00000000e-03	7.44278137e+01	7.27328887e+00
6.25000000e-03	6.24519350e+01	6.04088411e+00
6.50000000e-03	5.22837144e+01	4.88253815e+00
6.75000000e-03	4.55304557e+01	4.20093765e+00
7.00000000e-03	4.08933206e+01	3.71320189e+00
7.25000000e-03	3.44327994e+01	3.00253139e+00
7.50000000e-03	2.98461015e+01	2.58981244e+00
7.75000000e-03	2.61884661e+01	2.20895940e+00
8.00000000e-03	2.37790108e+01	1.99086331e+00
8.25000000e-03	2.06315404e+01	1.66161321e+00
8.50000000e-03	1.81758908e+01	1.44777732e+00
8.75000000e-03	1.62447179e+01	1.28390342e+00
9.00000000e-03	1.44481537e+01	1.13516745e+00
9.25000000e-03	1.30709946e+01	9.92559904e-01
9.50000000e-03	1.18739817e+01	8.85823995e-01
9.75000000e-03	1.07227653e+01	7.96494710e-01
1.00000000e-02	9.74016069e+00	7.06409313e-01
1.02500000e-02	8.77583616e+00	6.42668707e-01
1.05000000e-02	8.10727315e+00	5.71322714e-01
1.07500000e-02	7.24123412e+00	5.07361607e-01
1.10000000e-02	6.59216449e+00	4.48626064e-01
1.12500000e-02	6.08081006e+00	4.21106991e-01
1.15000000e-02	5.56339947e+00	3.74915563e-01
1.17500000e-02	5.09448933e+00	3.33315396e-01
1.20000000e-02	4.77567888e+00	3.11696846e-01
1.22500000e-02	4.39920225e+00	2.83712158e-01
1.25000000e-02	4.03200486e+00	2.56804109e-01
1.27500000e-02	3.74715941e+00	2.36033640e-01
1.30000000e-02	3.49472092e+00	2.16043155e-01
1.32500000e-02	3.24723153e+00	1.95829815e-01
1.35000000e-02	3.02984682e+00	1.83913196e-01
1.37500000e-02	2.80065470e+00	1.69218228e-01
1.40000000e-02	2.59974866e+00	1.55611645e-01
1.42500000e-02	2.46407902e+00	1.44655587e-01
1.45000000e-02	2.30584068e+00	1.34808674e-01
1.47500000e-02	2.15300803e+00	1.25375214e-01
1.50000000e-02	2.01093775e+00	1.16459569e-01
1.52500000e-02	1.89037577e+00	1.08095792e-01
1.55000000e-02	1.80509202e+00	1.01782319e-01
1.57500000e-02	1.67323080e+00	9.45609454e-02
1.60000000e-02	1.58590310e+00	8.81723484e-02
1.62500000e-02	1.48038832e+00	8.28336336e-02
1.65000000e-02	1.37773096e+00	7.54437464e-02
1.67500000e-02	1.31729489e+00	7.09647073e-02
1.70000000e-02	1.23802672e+00	6.62574640e-02
1.72500000e-02	1.16570044e+00	6.24048501e-02
1.75000000e-02	1.10327846e+00	5.86371405e-02
1.77500000e-02	1.03969839e+00	5.39615031e-02
1.80000000e-02	9.92372803e-01	5.16053128e-02
1.82500000e-02	9.39550038e-01	4.75035970e-02
1.85000000e-02	8.85441573e-01	4.61425278e-02
1.87500000e-02	8.42550151e-01	4.28346094e-02
1.90000000e-02	7.99058200e-01	4.03579585e-02
1.92500000e-02	7.63427549e-01	3.79222165e-02
1.95000000e-02	7.27636139e-01	3.59784185e-02
1.97500000e-02	6.87086786e-01	3.42188569e-02
2.00000000e-02	6.59150635e-01	3.24742487e-02
2.02500000e-02	6.27458078e-01	3.07159403e-02
2.05000000e-02	6.07748397e-01	2.91981661e-02
2.07500000e-02	5.71989692e-01	2.74416428e-02
2.10000000e-02	5.54411833e-01	2.68412664e-02
2.12500000e-02	5.33096413e-01	2.58075635e-02
2.15000000e-02	5.09682267e-01	2.44157319e-02
2.17500000e-02	4.97184460e-01	2.39921483e-02
2.20000000e-02	4.74771778e-01	2.30323081e-02
2.22500000e-02	4.54392207e-01	2.18365867e-02
2.25000000e-02	4.33907951e-01	2.11045578e-02
2.27500000e-02	4.15828674e-01	1.98956908e-02
2.30000000e-02	4.03756944e-01	1.94772497e-02
2.32500000e-02	3.86001838e-01	1.83878447e-02
2.35000000e-02	3.75718556e-01	1.81570941e-02
2.37500000e-02	3.60068949e-01	1.72767666e-02
2.40000000e-02	3.46140749e-01	1.66501086e-02
2.42500000e-02	3.31505912e-01	1.58905961e-02
2.45000000e-02	3.20295902e-01	1.53408108e-02
2.47500000e-02	3.11516330e-01	1.47236302e-02
2.50000000e-02	3.00466495e-01	1.42572838e-02
2.52500000e-02	2.88416615e-01	1.37747136e-02
2.55000000e-02	2.80519194e-01	1.30889887e-02
2.57500000e-02	2.73154210e-01	1.27962046e-02
2.60000000e-02	2.60241722e-01	1.21282619e-02
2.62500000e-02	2.58165732e-01	1.22179970e-02
2.65000000e-02	2.42963693e-01	1.12964147e-02
2.67500000e-02	2.40310654e-01	1.11433801e-02
2.70000000e-02	2.31446032e-01	1.07829378e-02
2.72500000e-02	2.21852397e-01	1.01838199e-02
2.75000000e-02	2.14932270e-01	1.00919822e-02
2.77500000e-02	2.07576158e-01	9.68716870e-03
2.80000000e-02	2.02439289e-01	9.25573025e-03
2.82500000e-02	1.98856214e-01	9.05904262e-03
2.85000000e-02	1.94145480e-01	8.85959505e-03
2.87500000e-02	1.85967008e-01	8.53722464e-03
2.90000000e-02	1.81985116e-01	8.33335657e-03
2.92500000e-02	1.76262520e-01	7.83318023e-03
2.95000000e-02	1.72376012e-01	7.85305760e-03
2.97500000e-02	1.68384879e-01	7.59131798e-03
3.00000000e-02	1.63009575e-01	7.41387343e-03
3.02500000e-02	1.58780106e-01	7.19289528e-03
3.05000000e-02	1.51707303e-01	6.68613302e-03
3.07500000e-02	1.51230781e-01	6.74618301e-03
3.10000000e-02	1.47090539e-01	6.56438172e-03
3.12500000e-02	1.40709069e-01	6.35859636e-03
3.15000000e-02	1.37175407e-01	6.12415738e-03
3.17500000e-02	1.35603996e-01	5.94751158e-03
3.20000000e-02	1.32460547e-01	5.87326832e-03
3.22500000e-02	1.28094288e-01	5.69992658e-03
3.25000000e-02	1.25889483e-01	5.60880712e-03
3.27500000e-02	1.21095790e-01	5.30808082e-03
3.30000000e-02	1.17641740e-01	5.13576758e-03
3.32500000e-02	1.17271402e-01	5.09832402e-03
3.35000000e-02	1.13645221e-01	5.01737505e-03
3.37500000e-02	1.08470325e-01	4.72221413e-03
3.40000000e-02	1.08979788e-01	4.75806408e-03
3.42500000e-02	1.08816964e-01	4.71116205e-03
3.45000000e-02	1.02230752e-01	4.43801476e-03
3.47500000e-02	1.01263164e-01	4.37735567e-03
3.50000000e-02	9.70334298e-02	4.20290666e-03
3.52500000e-02	9.53146073e-02	4.11255136e-03
3.55000000e-02	9.54181163e-02	4.05205680e-03
3.57500000e-02	9.19526876e-02	3.95610323e-03
3.60000000e-02	9.24191572e-02	3.97217929e-03
3.62500000e-02	9.04142260e-02	3.89014581e-03
3.65000000e-02	8.91465182e-02	3.80688387e-03
3.67500000e-02	8.61410796e-02	3.66753743e-03
3.70000000e-02	8.18696994e-02	3.47915052e-03
3.72500000e-02	8.21598119e-02	3.47838309e-03
3.75000000e-02	8.03533090e-02	3.42521264e-03
3.77500000e-02	7.99661949e-02	3.38223680e-03
3.80000000e-02	7.77085368e-02	3.27132461e-03
3.82500000e-02	7.51186057e-02	3.14803716e-03
3.85000000e-02	7.63158410e-02	3.23426607e-03
3.87500000e-02	7.47722058e-02	3.12090407e-03
3.90000000e-02	7.32249664e-02	3.08589784e-03
3.92500000e-02	7.29793119e-02	3.02087653e-03
3.95000000e-02	6.93890540e-02	2.90002471e-03
3.97500000e-02	7.06534816e-02	2.93438219e-03
4.00000000e-02	6.80692451e-02	2.83886661e-03
4.02500000e-02	6.81415099e-02	2.82377388e-03
4.05000000e-02	6.61782635e-02	2.72495364e-03
4.07500000e-02	6.57878564e-02	2.68952012e-03
4.10000000e-02	6.34246646e-02	2.61694021e-03
4.12500000e-02	6.21969458e-02	2.56479297e-03
4.15000000e-02	6.15245236e-02	2.50274786e-03
4.17500000e-02	6.19963077e-02	2.52675952e-03
4.20000000e-02	6.06220540e-02	2.44446099e-03
4.22500000e-02	5.99066825e-02	2.42240183e-03
4.25000000e-02	6.01363917e-02	2.44664819e-03
4.27500000e-02	5.87512667e-02	2.37363051e-03
4.30000000e-02	5.70742172e-02	2.29581411e-03
4.32500000e-02	5.71053906e-02	2.29468566e-03
4.35000000e-02	5.62894188e-02	2.28239739e-03
4.37500000e-02	5.43145870e-02	2.17292710e-03
4.40000000e-02	5.55499979e-02	2.22911824e-03
4.42500000e-02	5.38224540e-02	2.14794577e-03
4.45000000e-02	5.31886614e-02	2.11964970e-03
4.47500000e-02	5.22391731e-02	2.08410862e-03
4.50000000e-02	5.10632688e-02	2.03993980e-03
4.52500000e-02	5.15083360e-02	2.04606022e-03
4.55000000e-02	5.11231481e-02	2.01877459e-03
4.57500000e-02	4.95591294e-02	1.94184225e-03
4.60000000e-02	4.94464672e-02	1.95350092e-03
4.62500000e-02	4.84833604e-02	1.91538862e-03
4.65000000e-02	4.87619778e-02	1.90869194e-03
4.67500000e-02	4.80457732e-02	1.87388689e-03
4.70000000e-02	4.76510625e-02	1.85591190e-03
4.72500000e-02	4.76285323e-02	1.86263234e-03
4.75000000e-02	4.76034184e-02	1.87006644e-03
4.77500000e-02	4.66723486e-02	1.80486409e-03
4.80000000e-02	4.44052851e-02	1.72305951e-03
4.82500000e-02	4.48379972e-02	1.73240173e-03
4.85000000e-02	4.47291232e-02	1.75796469e-03
4.87500000e-02	4.37096492e-02	1.68960655e-03
4.90000000e-02	4.40370870e-02	1.69916554e-03
4.92500000e-02	4.40827368e-02	1.69535165e-03
4.95000000e-02	4.30182025e-02	1.65829546e-03
4.97500000e-02	4.25204451e-02	1.63745793e-03
5.00000000e-02	4.29384924e-02	1.65026418e-03
5.02500000e-02	4.13269047e-02	1.57469525e-03
5.05000000e-02	4.09407986e-02	1.56212768e-03
5.07500000e-02	3.99056532e-02	1.53540820e-03
5.10000000e-02	4.08002646e-02	1.55139927e-03
5.12500000e-02	4.06113811e-02	1.55418927e-03
5.15000000e-02	4.03985154e-02	1.52992237e-03
5.17500000e-02	3.94164851e-02	1.50698244e-03
5.20000000e-02	3.89231211e-02	1.46252148e-03
5.22500000e-02	3.95317463e-02	1.50091153e-03
5.25000000e-02	3.89203130e-02	1.45849196e-03
5.27500000e-02	3.84216153e-02	1.44496252e-03
5.30000000e-02	3.76063585e-02	1.42957215e-03
5.32500000e-02	3.79947034e-02	1.42819510e-03
5.35000000e-02	3.72952382e-02	1.40833222e-03
5.37500000e-02	3.69197077e-02	1.38024654e-03
5.40000000e-02	3.68796053e-02	1.37556462e-03
5.42500000e-02	3.65952170e-02	1.36201922e-03
5.45000000e-02	3.65126539e-02	1.35732100e-03
5.47500000e-02	3.61297010e-02	1.34568435e-03
5.50000000e-02	3.59249753e-02	1.33853999e-03
5.52500000e-02	3.50622475e-02	1.30128755e-03
5.55000000e-02	3.51024871e-02	1.29860063e-03
5.57500000e-02	3.46858381e-02	1.29124536e-03
5.60000000e-02	3.55363501e-02	1.30345398e-03
5.62500000e-02	3.47054769e-02	1.29260342e-03
5.65000000e-02	3.46501877e-02	1.28227653e-03
5.67500000e-02	3.49840644e-02	1.29567763e-03
5.70000000e-02	3.36204505e-02	1.23700669e-03
5.72500000e-02	3.41046398e-02	1.25253163e-03
5.75000000e-02	3.35664119e-02	1.23968553e-03
5.77500000e-02	3.36637236e-02	1.22768074e-03
5.80000000e-02	3.38688146e-02	1.24400746e-03
5.82500000e-02	3.42057148e-02	1.24537706e-03
5.85000000e-02	3.39114743e-02	1.23455613e-03
5.87500000e-02	3.27877168e-02	1.18533432e-03
5.90000000e-02	3.27635391e-02	1.19334969e-03
5.92500000e-02	3.27603228e-02	1.18344223e-03
5.95000000e-02	3.24341739e-02	1.17470959e-03
5.97500000e-02	3.29778419e-02	1.19240426e-03
6.00000000e-02	3.23839951e-02	1.16871425e-03
6.02500000e-02	3.19839678e-02	1.14813810e-03
6.05000000e-02	3.16317550e-02	1.13233254e-03
6.07500000e-02	3.20760972e-02	1.15392083e-03
6.10000000e-02	3.13267543e-02	1.12940064e-03
6.12500000e-02	3.08095329e-02	1.10467410e-03
6.15000000e-02	3.01404641e-02	1.07756205e-03
6.17500000e-02	3.08299194e-02	1.10056226e-03
6.20000000e-02	3.05635663e-02	1.08945686e-03
6.22500000e-02	3.10383159e-02	1.10067665e-03
6.25000000e-02	3.01113139e-02	1.07804636e-03
6.27500000e-02	3.08433528e-02	1.08942833e-03
6.30000000e-02	2.99914674e-02	1.06806851e-03
6.32500000e-02	2.99327232e-02	1.05741786e-03
6.35000000e-02	3.04285661e-02	1.07407594e-03
6.37500000e-02	2.94946409e-02	1.04175212e-03
6.40000000e-02	3.05690720e-02	1.07323751e-03
6.42500000e-02	2.98437561e-02	1.04394332e-03
6.45000000e-02	2.91172126e-02	1.02579538e-03
6.47500000e-02	2.97222267e-02	1.04763210e-03
6.50000000e-02	2.95816649e-02	1.04095518e-03
6.52500000e-02	2.94301611e-02	1.03262749e-03
6.55000000e-02	2.94560770e-02	1.02254873e-03
6.57500000e-02	2.82843502e-02	9.94563152e-04
6.60000000e-02	2.89352029e-02	1.00751920e-03
6.62500000e-02	2.91618722e-02	1.01514883e-03
6.65000000e-02	2.86108135e-02	9.97001405e-04
6.67500000e-02	2.87960663e-02	9.93887692e-04
6.70000000e-02	2.78931175e-02	9.75674199e-04
6.72500000e-02	2.83841917e-02	9.86267402e-04
6.75000000e-02	2.84975536e-02	9.80432273e-04
6.77500000e-02	2.84868409e-02	9.77521610e-04
6.80000000e-02	2.75632560e-02	9.56266068e-04
6.82500000e-02	2.90201515e-02	9.92208101e-04
6.85000000e-02	2.76340317e-02	9.54398814e-04
6.87500000e-02	2.76676691e-02	9.50108475e-04
6.90000000e-02	2.77254578e-02	9.48237021e-04
6.92500000e-02	2.74367166e-02	9.42062139e-04
6.95000000e-02	2.71110135e-02	9.30082489e-04
6.97500000e-02	2.69328418e-02	9.24159509e-04
7.00000000e-02	2.64796065e-02	9.00177884e-04
7.02500000e-02	2.67636126e-02	9.11922237e-04
7.05000000e-02	2.71270688e-02	9.20140758e-04
7.07500000e-02	2.61499692e-02	8.96303821e-04
7.10000000e-02	2.74003936e-02	9.19712882e-04
7.12500000e-02	2.69974247e-02	9.18590728e-04
7.15000000e-02	2.69919459e-02	9.12054489e-04
7.17500000e-02	2.64721165e-02	8.99610521e-04
7.20000000e-02	2.64203169e-02	9.01288123e-04
7.22500000e-02	2.69279847e-02	9.07949962e-04
7.25000000e-02	2.66269535e-02	8.96259092e-04
7.27500000e-02	2.63271110e-02	8.87442590e-04
7.30000000e-02	2.66396306e-02	8.96136925e-04
7.32500000e-02	2.68540827e-02	8.87899111e-04
7.35000000e-02	2.65938186e-02	8.89581435e-04
7.37500000e-02	2.67071658e-02	8.83968275e-04
7.40000000e-02	2.62649043e-02	8.78466739e-04
7.42500000e-02	2.61772495e-02	8.75846690e-04
7.45000000e-02	2.57405032e-02	8.52061025e-04
7.47500000e-02	2.59983877e-02	8.68040320e-04
7.50000000e-02	2.53194761e-02	8.45807695e-04
7.52500000e-02	2.60897000e-02	8.67962687e-04
7.55000000e-02	2.58871539e-02	8.56918858e-04
7.57500000e-02	2.58669210e-02	8.53471842e-04
7.60000000e-02	2.59942767e-02	8.60774400e-04
7.62500000e-02	2.59979045e-02	8.59985776e-04
7.65000000e-02	2.51327213e-02	8.31041046e-04
7.67500000e-02	2.54443634e-02	8.35470015e-04
7.70000000e-02	2.48513572e-02	8.21744415e-04
7.72500000e-02	2.58350577e-02	8.63640408e-04
7.75000000e-02	2.52277664e-02	8.54200587e-04
7.77500000e-02	2.51879242e-02	8.60513236e-04
7.80000000e-02	2.55528528e-02	8.70521461e-04
7.82500000e-02	2.52277933e-02	8.65332285e-04
7.85000000e-02	2.49678289e-02	8.67254495e-04
7.87500000e-02	2.53034615e-02	8.66021548e-04
7.90000000e-02	2.55354786e-02	8.83107882e-04
7.92500000e-02	2.47769231e-02	8.68290632e-04
7.95000000e-02	2.48419010e-02	8.71600421e-04
7.97500000e-02	2.46921228e-02	8.68492742e-04
8.00000000e-02	2.51674505e-02	8.82763295e-04
8.02500000e-02	2.50669085e-02	8.82359279e-04
8.05000000e-02	2.51684996e-02	8.81921650e-04
8.07500000e-02	2.48392639e-02	8.83554261e-04
8.10000000e-02	2.46315920e-02	8.75037289e-04
8.12500000e-02	2.52627334e-02	8.93608980e-04
8.15000000e-02	2.55404826e-02	9.00247347e-04
8.17500000e-02	2.57469544e-02	9.10628815e-04
8.20000000e-02	2.42853943e-02	8.68299626e-04
8.22500000e-02	2.46425976e-02	8.86073138e-04
8.25000000e-02	2.42965960e-02	8.75354853e-04
8.27500000e-02	2.36464332e-02	8.43676858e-04
8.30000000e-02	2.50354922e-02	9.00078141e-04
8.32500000e-02	2.43220950e-02	8.79655436e-04
8.35000000e-02	2.40839964e-02	8.77183122e-04
8.37500000e-02	2.44316196e-02	8.66001275e-04
8.40000000e-02	2.37855189e-02	8.57575382e-04
8.42500000e-02	2.40073979e-02	8.75175515e-04
8.45000000e-02	2.43844146e-02	8.84910468e-04
8.47500000e-02	2.41369220e-02	8.82665343e-04
8.50000000e-02	2.37214180e-02	8.59008753e-04
8.52500000e-02	2.37359692e-02	8.67513662e-04
8.55000000e-02	2.42723987e-02	8.83626986e-04
8.57500000e-02	2.39295328e-02	8.74319644e-04
8.60000000e-02	2.42080173e-02	8.84557977e-04
8.62500000e-02	2.34943132e-02	8.62204285e-04
8.65000000e-02	2.45358066e-02	8.91766192e-04
8.67500000e-02	2.45995210e-02	8.91074166e-04
8.70000000e-02	2.40143802e-02	8.64029717e-04
8.72500000e-02	2.33436276e-02	8.20425589e-04
8.75000000e-02	2.38500375e-02	8.28523028e-04
8.77500000e-02	2.38540848e-02	8.25315438e-04
8.80000000e-02	2.38113494e-02	8.23372171e-04
8.82500000e-02	2.35668023e-02	8.10039121e-04
8.85000000e-02	2.38256518e-02	8.21920092e-04
8.87500000e-02	2.36922572e-02	7.95806051e-04
8.90000000e-02	2.38996096e-02	8.18318158e-04
8.92500000e-02	2.34142123e-02	7.91469581e-04
8.95000000e-02	2.28263743e-02	7.75863464e-04
8.97500000e-02	2.34903311e-02	7.84599686e-04
9.00000000e-02	2.30672407e-02	7.73519336e-04
9.02500000e-02	2.35517306e-02	7.91391067e-04
9.05000000e-02	2.28302411e-02	7.66681199e-04
9.07500000e-02	2.36808517e-02	7.92824364e-04
9.10000000e-02	2.34478321e-02	7.78736538e-04
9.12500000e-02	2.27999020e-02	7.53337821e-04
9.15000000e-02	2.32258937e-02	7.67339459e-04
9.17500000e-02	2.36506193e-02	7.85057618e-04
9.20000000e-02	2.29478577e-02	7.57562833e-04
9.22500000e-02	2.29839861e-02	7.57552322e-04
9.25000000e-02	2.30196070e-02	7.52470362e-04
9.27500000e-02	2.26519865e-02	7.40140763e-04
9.30000000e-02	2.33262191e-02	7.61005269e-04
9.32500000e-02	2.29522546e-02	7.48011512e-04
9.35000000e-02	2.28165829e-02	7.40632666e-04
9.37500000e-02	2.28747308e-02	7.42547044e-04
9.40000000e-02	2.27635862e-02	7.42234566e-04
9.42500000e-02	2.31488108e-02	7.45371631e-04
9.45000000e-02	2.26518237e-02	7.29618667e-04
9.47500000e-02	2.30056345e-02	7.41627056e-04
9.50000000e-02	2.27433221e-02	7.29507919e-04
9.52500000e-02	2.26206124e-02	7.25832438e-04
9.55000000e-02	2.27785019e-02	7.28816016e-04
9.57500000e-02	2.23386277e-02	7.18898933e-04
9.60000000e-02	2.27102160e-02	7.21410756e-04
9.62500000e-02	2.23833964e-02	7.11828982e-04
9.65000000e-02	2.29344015e-02	7.32971245e-04
9.67500000e-02	2.24169139e-02	7.12212560e-04
9.70000000e-02	2.24066393e-02	7.12480674e-04
9.72500000e-02	2.26731371e-02	7.19404768e-04
9.75000000e-02	2.24088413e-02	7.12736930e-04
9.77500000e-02	2.25866483e-02	7.10430680e-04
9.80000000e-02	2.19642448e-02	6.96813254e-04
9.82500000e-02	2.21774121e-02	6.96005730e-04
9.85000000e-02	2.19906740e-02	6.94220158e-04
9.87500000e-02	2.22750504e-02	6.99224174e-04
9.90000000e-02	2.24378106e-02	7.05075803e-04
9.92500000e-02	2.22627870e-02	7.02894248e-04
9.95000000e-02	2.22525455e-02	6.98465414e-04
9.97500000e-02	2.23862296e-02	7.00044077e-04
1.00000000e-01	2.21916852e-02	5.65837998e-04
1.00500000e-01	2.23337796e-02	4.90569761e-04
1.01000000e-01	2.20995099e-02	4.83397303e-04
1.01500000e-01	2.21431475e-02	4.87640927e-04
1.02000000e-01	2.22653500e-02	4.85480544e-04
1.02500000e-01	2.23952646e-02	4.85275095e-04
1.03000000e-01	2.20978658e-02	4.78761987e-04
1.03500000e-01	2.21054289e-02	4.77895135e-04
1.04000000e-01	2.23354290e-02	4.82126536e-04
1.04500000e-01	2.25583500e-02	4.82634300e-04
1.05000000e-01	2.19758426e-02	4.70191779e-04
1.05500000e-01	2.17696609e-02	4.66237638e-04
1.06000000e-01	2.23509869e-02	4.75149835e-04
1.06500000e-01	2.19366291e-02	4.66667227e-04
1.07000000e-01	2.17285753e-02	4.70866741e-04
1.07500000e-01	2.22357409e-02	4.86756943e-04
1.08000000e-01	2.19178128e-02	4.86947985e-04
1.08500000e-01	2.16290654e-02	4.83380942e-04
1.09000000e-01	2.18193556e-02	4.88618353e-04
1.09500000e-01	2.17164459e-02	4.89678373e-04
1.10000000e-01	2.20069961e-02	4.87902276e-04
1.10500000e-01	2.15587564e-02	4.71832138e-04
1.11000000e-01	2.20730433e-02	4.75063619e-04
1.11500000e-01	2.16346007e-02	4.60885921e-04
1.12000000e-01	2.14397911e-02	4.56222132e-04
1.12500000e-01	2.17294671e-02	4.56697605e-04
1.13000000e-01	2.17721995e-02	4.56977748e-04
1.13500000e-01	2.16095703e-02	4.54542297e-04
1.14000000e-01	2.16119873e-02	4.51383142e-04
1.14500000e-01	2.13363839e-02	4.45803400e-04
1.15000000e-01	2.19506702e-02	4.52824915e-04
1.15500000e-01	2.15602117e-02	4.47749247e-04
1.16000000e-01	2.15692508e-02	4.44061286e-04
1.16500000e-01	2.15677859e-02	4.42361810e-04
1.17000000e-01	2.13364914e-02	4.37906945e-04
1.17500000e-01	2.12783107e-02	4.33603403e-04
1.18000000e-01	2.11577067e-02	4.33199116e-04
1.18500000e-01	2.12172043e-02	4.31951651e-04
1.19000000e-01	2.12093570e-02	4.31616292e-04
1.19500000e-01	2.19251839e-02	4.44131850e-04
1.20000000e-01	2.14463033e-02	4.32093182e-04
1.20500000e-01	2.12369068e-02	4.28637242e-04
1.21000000e-01	2.14464585e-02	4.31384072e-04
1.21500000e-01	2.16283002e-02	4.35212773e-04
1.22000000e-01	2.13139087e-02	4.26140801e-04
1.22500000e-01	2.10863363e-02	4.21909352e-04
1.23000000e-01	2.12171359e-02	4.22791469e-04
1.23500000e-01	2.14289250e-02	4.26283356e-04
1.24000000e-01	2.13373466e-02	4.25779667e-04
1.24500000e-01	2.14536313e-02	4.24110116e-04
1.25000000e-01	2.16653108e-02	4.29226526e-04
1.25500000e-01	2.13658937e-02	4.21891635e-04
1.26000000e-01	2.16132090e-02	4.25250704e-04
1.26500000e-01	2.16632525e-02	4.24800255e-04
1.27000000e-01	2.14481625e-02	4.21148543e-04
1.27500000e-01	2.13816431e-02	4.17338000e-04
1.28000000e-01	2.16058108e-02	4.22925349e-04
1.28500000e-01	2.15675514e-02	4.19816578e-04
1.29000000e-01	2.12733565e-02	4.14097165e-04
1.29500000e-01	2.14324003e-02	4.15386656e-04
1.30000000e-01	2.14062547e-02	4.15160055e-04
1.30500000e-01	2.12269011e-02	4.09065958e-04
1.31000000e-01	2.14642687e-02	4.14276404e-04
1.31500000e-01	2.12820323e-02	4.09222943e-04
1.32000000e-01	2.17410983e-02	4.18462771e-04
1.32500000e-01	2.13879480e-02	4.10751694e-04
1.33000000e-01	2.13542148e-02	4.09055589e-04
1.33500000e-01	2.12769933e-02	4.05464126e-04
1.34000000e-01	2.15370306e-02	4.08698650e-04
1.34500000e-01	2.10929179e-02	3.97659646e-04
1.35000000e-01	2.14037146e-02	4.03585485e-04
1.35500000e-01	2.12206054e-02	3.99720166e-04
1.36000000e-01	2.09035224e-02	3.92460273e-04
1.36500000e-01	2.14866315e-02	4.04828359e-04
1.37000000e-01	2.12385864e-02	3.98598432e-04
1.37500000e-01	2.10951761e-02	3.97756202e-04
1.38000000e-01	2.12521948e-02	4.00395036e-04
1.38500000e-01	2.10777984e-02	3.93588146e-04
1.39000000e-01	2.09833294e-02	3.92087614e-04
1.39500000e-01	2.11345030e-02	3.95062354e-04
1.40000000e-01	2.08010316e-02	3.89613779e-04
1.40500000e-01	2.08399501e-02	3.88337845e-04
1.41000000e-01	2.07729036e-02	3.88291119e-04
1.41500000e-01	2.07666833e-02	3.88609036e-04
1.42000000e-01	2.07234815e-02	3.84816374e-04
1.42500000e-01	2.06162331e-02	3.81560941e-04
1.43000000e-01	2.07925062e-02	3.86332262e-04
1.43500000e-01	2.05033030e-02	3.81737387e-04
1.44000000e-01	2.05490570e-02	3.80460081e-04
1.44500000e-01	2.07752163e-02	3.82159393e-04
1.45000000e-01	2.07791379e-02	3.82094061e-04
1.45500000e-01	2.07438571e-02	3.79562261e-04
1.46000000e-01	2.07193915e-02	3.78689841e-04
1.46500000e-01	2.05361447e-02	3.78153743e-04
1.47000000e-01	2.08891980e-02	3.80369117e-04
1.47500000e-01	2.06547010e-02	3.76612453e-04
1.48000000e-01	2.03363988e-02	3.71014591e-04
1.48500000e-01	2.02633919e-02	3.68923341e-04
1.49000000e-01	2.03091907e-02	3.68960274e-04
1.49500000e-01	2.01256776e-02	3.65354256e-04
1.50000000e-01	2.02453579e-02	3.66140940e-04
1.50500000e-01	2.04977710e-02	3.71058912e-04
1.51000000e-01	2.05968964e-02	3.70865829e-04
1.51500000e-01	2.03384035e-02	3.64528187e-04
1.52000000e-01	2.04012245e-02	3.64799738e-04
1.52500000e-01	2.03851603e-02	3.67771758e-04
1.53000000e-01	2.04274819e-02	3.67064045e-04
1.53500000e-01	2.02499388e-02	3.63895999e-04
1.54000000e-01	2.01110953e-02	3.59390514e-04
1.54500000e-01	2.01806788e-02	3.67669822e-04
1.55000000e-01	2.03402297e-02	3.74165702e-04
1.55500000e-01	2.04863240e-02	3.79999066e-04
1.56000000e-01	2.02370892e-02	3.77983608e-04
1.56500000e-01	2.03860786e-02	3.78928639e-04
1.57000000e-01	2.00550286e-02	3.74213066e-04
1.57500000e-01	2.01821584e-02	3.69086060e-04
1.58000000e-01	2.04383265e-02	3.68890217e-04
1.58500000e-01	2.00943951e-02	3.60867244e-04
1.59000000e-01	1.98961986e-02	3.56226400e-04
1.59500000e-01	2.03496443e-02	3.63038833e-04
1.60000000e-01	1.98023336e-02	3.54292801e-04
1.60500000e-01	2.02889093e-02	3.59144091e-04
1.61000000e-01	2.01230645e-02	3.55984564e-04
1.61500000e-01	1.97686916e-02	3.50238346e-04
1.62000000e-01	1.96774271e-02	3.47604496e-04
1.62500000e-01	2.01199249e-02	3.53943203e-04
1.63000000e-01	1.96561612e-02	3.45303079e-04
1.63500000e-01	1.98341318e-02	3.50483952e-04
1.64000000e-01	1.99255028e-02	3.47157338e-04
1.64500000e-01	1.98704952e-02	3.49181578e-04
1.65000000e-01	2.00657693e-02	3.50984733e-04
1.65500000e-01	2.01306420e-02	3.50565476e-04
1.66000000e-01	1.98642968e-02	3.46464123e-04
1.66500000e-01	2.01054928e-02	3.48373854e-04
1.67000000e-01	1.97109735e-02	3.41052553e-04
1.67500000e-01	1.99351911e-02	3.45398120e-04
1.68000000e-01	1.98050909e-02	3.43179295e-04
1.68500000e-01	1.98738351e-02	3.43667151e-04
1.69000000e-01	2.00199960e-02	3.45630095e-04
1.69500000e-01	1.98547691e-02	3.42255577e-04
1.70000000e-01	1.99007679e-02	3.42169834e-04
1.70500000e-01	1.96181408e-02	3.37582003e-04
1.71000000e-01	1.97094644e-02	3.38052687e-04
1.71500000e-01	1.99003057e-02	3.40522280e-04
1.72000000e-01	1.98753333e-02	3.39565235e-04
1.72500000e-01	1.97036358e-02	3.37269433e-04
1.73000000e-01	1.97593727e-02	3.36042012e-04
1.73500000e-01	1.96022747e-02	3.32892874e-04
1.74000000e-01	1.93439544e-02	3.28744206e-04
1.74500000e-01	1.96364919e-02	3.32337880e-04
1.75000000e-01	1.96792945e-02	3.30948626e-04
1.75500000e-01	1.97288901e-02	3.31213455e-04
1.76000000e-01	1.95806508e-02	3.28099065e-04
1.76500000e-01	1.95809348e-02	3.28484795e-04
1.77000000e-01	1.95948388e-02	3.28026235e-04
1.77500000e-01	1.95987752e-02	3.29669911e-04
1.78000000e-01	1.94803155e-02	3.25554622e-04
1.78500000e-01	1.96069825e-02	3.28256902e-04
1.79000000e-01	1.94827232e-02	3.26132604e-04
1.79500000e-01	1.94009835e-02	3.25870767e-04
1.80000000e-01	1.94628494e-02	3.26426490e-04
1.80500000e-01	1.95549914e-02	3.25584341e-04
1.81000000e-01	1.95239192e-02	3.25656610e-04
1.81500000e-01	1.94474710e-02	3.23025372e-04
1.82000000e-01	1.96475934e-02	3.25952036e-04
1.82500000e-01	1.94802912e-02	3.22543975e-04
1.83000000e-01	1.94098886e-02	3.21336073e-04
1.83500000e-01	1.95686417e-02	3.23206924e-04
1.84000000e-01	1.94005646e-02	3.20032296e-04
1.84500000e-01	1.94171982e-02	3.20451947e-04
1.85000000e-01	1.92344746e-02	3.18543512e-04
1.85500000e-01	1.92468169e-02	3.17068291e-04
1.86000000e-01	1.90224984e-02	3.13370804e-04
1.86500000e-01	1.95980765e-02	3.21623474e-04
1.87000000e-01	1.90401790e-02	3.13551303e-04
1.87500000e-01	1.96105190e-02	3.19525629e-04
1.88000000e-01	1.93680668e-02	3.17104777e-04
1.88500000e-01	1.92962171e-02	3.14631996e-04
1.89000000e-01	1.93213784e-02	3.15057946e-04
1.89500000e-01	1.94290036e-02	3.16463073e-04
1.90000000e-01	1.94495575e-02	3.16618542e-04
1.90500000e-01	1.92745865e-02	3.15159678e-04
1.91000000e-01	1.93284297e-02	3.14887389e-04
1.91500000e-01	1.93208090e-02	3.12605871e-04
1.92000000e-01	1.93045288e-02	3.11304970e-04
1.92500000e-01	1.91087692e-02	3.09299492e-04
1.93000000e-01	1.90736135e-02	3.08831224e-04
1.93500000e-01	1.93335485e-02	3.12240081e-04
1.94000000e-01	1.93554390e-02	3.10905776e-04
1.94500000e-01	1.93543577e-02	3.11324389e-04
1.95000000e-01	1.94270479e-02	3.12075496e-04
1.95500000e-01	1.90341588e-02	3.07165103e-04
1.96000000e-01	1.90912152e-02	3.06473705e-04
1.96500000e-01	1.91101304e-02	3.07066382e-04
1.97000000e-01	1.90319619e-02	3.04913802e-04
1.97500000e-01	1.91724041e-02	3.05354600e-04
1.98000000e-01	1.90103024e-02	3.04200260e-04
1.98500000e-01	1.92662840e-02	3.06134155e-04
1.99000000e-01	1.90948144e-02	3.03751666e-04
1.99500000e-01	1.91442926e-02	3.03829727e-04
2.00000000e-01	1.91041135e-02	3.03361314e-04
2.00500000e-01	1.89631220e-02	3.01557027e-04
2.01000000e-01	1.89968265e-02	3.00308886e-04
2.01500000e-01	1.90899361e-02	3.02987613e-04
2.02000000e-01	1.91065323e-02	3.02943772e-04
2.02500000e-01	1.92651462e-02	3.03159729e-04
2.03000000e-01	1.88594038e-02	2.98300597e-04
2.03500000e-01	1.91238346e-02	3.00709320e-04
2.04000000e-01	1.90962533e-02	3.00347418e-04
2.04500000e-01	1.92156339e-02	3.02188205e-04
2.05000000e-01	1.89078636e-02	2.95519690e-04
2.05500000e-01	1.90414487e-02	2.97386439e-04
2.06000000e-01	1.88297201e-02	2.95130061e-04
2.06500000e-01	1.90609192e-02	2.98980554e-04
2.07000000e-01	1.88768424e-02	2.94574221e-04
2.07500000e-01	1.89231466e-02	2.95007016e-04
2.08000000e-01	1.87741386e-02	2.94268695e-04
2.08500000e-01	1.86984606e-02	2.90979408e-04
2.09000000e-01	1.90174272e-02	2.95236199e-04
2.09500000e-01	1.89322692e-02	2.93454761e-04
2.10000000e-01	1.87036568e-02	2.90625276e-04
2.10500000e-01	1.89220586e-02	2.94739520e-04
2.11000000e-01	1.87368418e-02	2.88880860e-04
2.11500000e-01	1.89545574e-02	2.93611942e-04
2.12000000e-01	1.87873819e-02	2.90389435e-04
2.12500000e-01	1.90561950e-02	2.93678012e-04
2.13000000e-01	1.90383659e-02	2.92907769e-04
2.13500000e-01	1.87541932e-02	2.88564680e-04
2.14000000e-01	1.88943597e-02	2.91512804e-04
2.14500000e-01	1.89146792e-02	2.89628978e-04
2.15000000e-01	1.89701049e-02	2.91230783e-04
2.15500000e-01	1.86986940e-02	2.85886310e-04
2.16000000e-01	1.87845199e-02	2.88276799e-04
2.16500000e-01	1.87615673e-02	2.87767463e-04
2.17000000e-01	1.87891569e-02	2.90855940e-04
2.17500000e-01	1.88875516e-02	2.97386040e-04
2.18000000e-01	1.88206664e-02	2.96630079e-04
2.18500000e-01	1.89145971e-02	3.00530250e-04
2.19000000e-01	1.88319290e-02	3.00738365e-04
2.19500000e-01	1.87140546e-02	3.00078442e-04
2.20000000e-01	1.85843695e-02	2.99528692e-04
2.20500000e-01	1.86717264e-02	3.00564353e-04
2.21000000e-01	1.84150237e-02	2.97942914e-04
2.21500000e-01	1.83455703e-02	2.98959642e-04
2.22000000e-01	1.83950963e-02	2.98723977e-04
2.22500000e-01	1.86592279e-02	3.03026399e-04
2.23000000e-01	1.84978705e-02	3.01933938e-04
2.23500000e-01	1.85986446e-02	3.03749313e-04
2.24000000e-01	1.84301018e-02	3.03680658e-04
2.24500000e-01	1.81611403e-02	3.01602498e-04
2.25000000e-01	1.86690876e-02	3.08063547e-04
2.25500000e-01	1.87487345e-02	3.09465853e-04
2.26000000e-01	1.85957490e-02	3.08765333e-04
2.26500000e-01	1.88915478e-02	3.07326571e-04
2.27000000e-01	1.85174620e-02	2.98035279e-04
2.27500000e-01	1.86597878e-02	2.98041947e-04
2.28000000e-01	1.84076068e-02	2.92686324e-04
2.28500000e-01	1.84960076e-02	2.93773746e-04
2.29000000e-01	1.81531048e-02	2.86428788e-04
2.29500000e-01	1.86090633e-02	2.92220179e-04
2.30000000e-01	1.84667308e-02	2.89968594e-04
2.30500000e-01	1.87520560e-02	2.91546881e-04
2.31000000e-01	1.86700307e-02	2.91565335e-04
2.31500000e-01	1.84332054e-02	2.86932440e-04
2.32000000e-01	1.84517348e-02	2.86979704e-04
2.32500000e-01	1.85327430e-02	2.87628684e-04
2.33000000e-01	1.84579101e-02	2.84392735e-04
2.33500000e-01	1.86954582e-02	2.87006560e-04
2.34000000e-01	1.84832487e-02	2.83792421e-04
2.34500000e-01	1.85497428e-02	2.83319934e-04
2.35000000e-01	1.81797216e-02	2.78844892e-04
2.35500000e-01	1.84722103e-02	2.81218969e-04
2.36000000e-01	1.85730965e-02	2.83232805e-04
2.36500000e-01	1.84410477e-02	2.81408959e-04
2.37000000e-01	1.84791432e-02	2.80552033e-04
2.37500000e-01	1.84270677e-02	2.79917841e-04
2.38000000e-01	1.82599625e-02	2.76073301e-04
2.38500000e-01	1.84797467e-02	2.79960563e-04
2.39000000e-01	1.82924540e-02	2.76089310e-04
2.39500000e-01	1.83594436e-02	2.78083687e-04
2.40000000e-01	1.81332639e-02	2.72807740e-04
2.40500000e-01	1.84631379e-02	2.76495684e-04
2.41000000e-01	1.82469573e-02	2.73927653e-04
2.41500000e-01	1.82353556e-02	2.73134102e-04
2.42000000e-01	1.83212323e-02	2.73254207e-04
2.42500000e-01	1.82608851e-02	2.73056485e-04
2.43000000e-01	1.84020665e-02	2.73797987e-04
2.43500000e-01	1.82872959e-02	2.72736642e-04
2.44000000e-01	1.82113246e-02	2.70082280e-04
2.44500000e-01	1.82180989e-02	2.69978309e-04
2.45000000e-01	1.83210491e-02	2.71359086e-04
2.45500000e-01	1.83792407e-02	2.71358398e-04
2.46000000e-01	1.83118777e-02	2.71203233e-04
2.46500000e-01	1.82815333e-02	2.70019142e-04
2.47000000e-01	1.83613658e-02	2.71362426e-04
2.47500000e-01	1.82637458e-02	2.68381794e-04
2.48000000e-01	1.80658198e-02	2.67091375e-04
2.48500000e-01	1.78335362e-02	2.62860297e-04
2.49000000e-01	1.81660808e-02	2.66875369e-04
2.49500000e-01	1.81929019e-02	2.66566680e-04
2.50000000e-01	1.81697946e-02	2.66528196e-04
2.50500000e-01	1.82445520e-02	2.67872408e-04
2.51000000e-01	1.81829884e-02	2.65578015e-04
2.51500000e-01	1.81290672e-02	2.65136338e-04
2.52000000e-01	1.82696762e-02	2.66407680e-04
2.52500000e-01	1.81115113e-02	2.64363292e-04
2.53000000e-01	1.81895269e-02	2.65453307e-04
2.53500000e-01	1.80728629e-02	2.63776382e-04
2.54000000e-01	1.79544844e-02	2.62219408e-04
2.54500000e-01	1.83327193e-02	2.65466053e-04
2.55000000e-01	1.78457084e-02	2.60425719e-04
2.55500000e-01	1.79546574e-02	2.59965567e-04
2.56000000e-01	1.80659001e-02	2.61269109e-04
2.56500000e-01	1.80647414e-02	2.60612640e-04
2.57000000e-01	1.79627723e-02	2.58522238e-04
2.57500000e-01	1.78547682e-02	2.57758398e-04
2.58000000e-01	1.81906994e-02	2.60636148e-04
2.58500000e-01	1.80646878e-02	2.58894001e-04
2.59000000e-01	1.80119660e-02	2.59228212e-04
2.59500000e-01	1.80229317e-02	2.57482772e-04
2.60000000e-01	1.81185133e-02	2.60728327e-04
2.60500000e-01	1.80319950e-02	2.58885655e-04
2.61000000e-01	1.79288200e-02	2.55834094e-04
2.61500000e-01	1.79392726e-02	2.56843010e-04
2.62000000e-01	1.79238202e-02	2.56102409e-04
2.62500000e-01	1.79803748e-02	2.56227158e-04
2.63000000e-01	1.79765708e-02	2.56379030e-04
2.63500000e-01	1.79438898e-02	2.55205561e-04
2.64000000e-01	1.77750374e-02	2.53159208e-04
2.64500000e-01	1.77992433e-02	2.52861444e-04
2.65000000e-01	1.78664764e-02	2.55103533e-04
2.65500000e-01	1.80336130e-02	2.55146349e-04
2.66000000e-01	1.77880853e-02	2.52433687e-04
2.66500000e-01	1.79828353e-02	2.55331941e-04
2.67000000e-01	1.81414021e-02	2.56982392e-04
2.67500000e-01	1.79498075e-02	2.52522251e-04
2.68000000e-01	1.80317583e-02	2.54578748e-04
2.68500000e-01	1.79446501e-02	2.51373529e-04
2.69000000e-01	1.78202922e-02	2.50098937e-04
2.69500000e-01	1.78843772e-02	2.50298353e-04
2.70000000e-01	1.78754716e-02	2.50784121e-04
2.70500000e-01	1.76448004e-02	2.47656641e-04
2.71000000e-01	1.77437728e-02	2.49048419e-04
2.71500000e-01	1.77383877e-02	2.48104942e-04
2.72000000e-01	1.78570966e-02	2.48949990e-04
2.72500000e-01	1.79157192e-02	2.50040112e-04
2.73000000e-01	1.77629567e-02	2.47497296e-04
2.73500000e-01	1.78309242e-02	2.48621717e-04
2.74000000e-01	1.78526050e-02	2.47877814e-04
2.74500000e-01	1.79576448e-02	2.48696825e-04
2.75000000e-01	1.75910994e-02	2.45343851e-04
2.75500000e-01	1.78119630e-02	2.48256308e-04
2.76000000e-01	1.76004671e-02	2.44819268e-04
2.76500000e-01	1.76530567e-02	2.46771751e-04
2.77000000e-01	1.75958002e-02	2.43582134e-04
2.77500000e-01	1.78316176e-02	2.46535734e-04
2.78000000e-01	1.76558612e-02	2.44308740e-04
2.78500000e-01	1.77279433e-02	2.45593817e-04
2.79000000e-01	1.77831579e-02	2.44926417e-04
2.79500000e-01	1.77742996e-02	2.44594438e-04
2.80000000e-01	1.75862445e-02	2.43010143e-04
2.80500000e-01	1.78591122e-02	2.46848922e-04
2.81000000e-01	1.77250348e-02	2.44405029e-04
2.81500000e-01	1.76553010e-02	2.42870815e-04
2.82000000e-01	1.75275660e-02	2.41737079e-04
2.82500000e-01	1.72515901e-02	2.38208746e-04
2.83000000e-01	1.77698533e-02	2.42916911e-04
2.83500000e-01	1.75406303e-02	2.40053512e-04
2.84000000e-01	1.73913720e-02	2.38411349e-04
2.84500000e-01	1.77527871e-02	2.42988216e-04
2.85000000e-01	1.77036836e-02	2.42185641e-04
2.85500000e-01	1.75639252e-02	2.39084703e-04
2.86000000e-01	1.76131915e-02	2.41164483e-04
2.86500000e-01	1.74312189e-02	2.38090107e-04
2.87000000e-01	1.76520617e-02	2.41175177e-04
2.87500000e-01	1.75138254e-02	2.37231318e-04
2.88000000e-01	1.75271712e-02	2.38169128e-04
2.88500000e-01	1.77832247e-02	2.41305650e-04
2.89000000e-01	1.74966894e-02	2.37354221e-04
2.89500000e-01	1.75451500e-02	2.38109644e-04
2.90000000e-01	1.73667740e-02	2.35171514e-04
2.90500000e-01	1.73510678e-02	2.34879537e-04
2.91000000e-01	1.74122337e-02	2.35544014e-04
2.91500000e-01	1.75493470e-02	2.36258651e-04
2.92000000e-01	1.74395239e-02	2.34941106e-04
2.92500000e-01	1.74639457e-02	2.34573094e-04
2.93000000e-01	1.72718428e-02	2.31918067e-04
2.93500000e-01	1.73745334e-02	2.33071551e-04
2.94000000e-01	1.74113281e-02	2.34646567e-04
2.94500000e-01	1.74410294e-02	2.34022411e-04
2.95000000e-01	1.75894285e-02	2.35572844e-04
2.95500000e-01	1.73814298e-02	2.33968950e-04
2.96000000e-01	1.75760776e-02	2.35891553e-04
2.96500000e-01	1.75019422e-02	2.34073627e-04
2.97000000e-01	1.74218696e-02	2.33892809e-04
2.97500000e-01	1.74019263e-02	2.32698980e-04
2.98000000e-01	1.72949249e-02	2.31098466e-04
2.98500000e-01	1.74277174e-02	2.32818643e-04
2.99000000e-01	1.72337909e-02	2.30002812e-04
2.99500000e-01	1.72591322e-02	2.30364110e-04
3.00000000e-01	1.73052212e-02	2.30932458e-04
3.00500000e-01	1.74072044e-02	2.31414720e-04
3.01000000e-01	1.72273682e-02	2.28770548e-04
3.01500000e-01	1.72884210e-02	2.30207038e-04
3.02000000e-01	1.71966023e-02	2.27787527e-04
3.02500000e-01	1.72105826e-02	2.28261572e-04
3.03000000e-01	1.72145366e-02	2.28200790e-04
3.03500000e-01	1.70758973e-02	2.25999723e-04
3.04000000e-01	1.73407169e-02	2.29978675e-04
3.04500000e-01	1.72710693e-02	2.27711661e-04
3.05000000e-01	1.71221300e-02	2.26585199e-04
3.05500000e-01	1.72089717e-02	2.26952181e-04
3.06000000e-01	1.72689166e-02	2.26024133e-04
3.06500000e-01	1.72080949e-02	2.27393589e-04
3.07000000e-01	1.72442112e-02	2.26614511e-04
3.07500000e-01	1.70539307e-02	2.24192633e-04
3.08000000e-01	1.72323357e-02	2.26468255e-04
3.08500000e-01	1.74438800e-02	2.27819543e-04
3.09000000e-01	1.71674114e-02	2.25526164e-04
3.09500000e-01	1.71416383e-02	2.23777064e-04
3.10000000e-01	1.70585606e-02	2.23671922e-04
3.10500000e-01	1.69849778e-02	2.23068947e-04
3.11000000e-01	1.72377072e-02	2.25120713e-04
3.11500000e-01	1.71513352e-02	2.24043268e-04
3.12000000e-01	1.72496043e-02	2.25131231e-04
3.12500000e-01	1.70709466e-02	2.23076694e-04
3.13000000e-01	1.71665713e-02	2.23845506e-04
3.13500000e-01	1.70218388e-02	2.21796340e-04
3.14000000e-01	1.68645897e-02	2.20109730e-04
3.14500000e-01	1.70266700e-02	2.21336487e-04
3.15000000e-01	1.71118009e-02	2.23241869e-04
3.15500000e-01	1.69905609e-02	2.20089187e-04
3.16000000e-01	1.68807869e-02	2.19139204e-04
3.16500000e-01	1.69814718e-02	2.19418220e-04
3.17000000e-01	1.69287918e-02	2.18649212e-04
3.17500000e-01	1.69510955e-02	2.20262740e-04
3.18000000e-01	1.70464136e-02	2.20617422e-04
3.18500000e-01	1.71918068e-02	2.22028760e-04
3.19000000e-01	1.67771291e-02	2.16874008e-04
3.19500000e-01	1.68954553e-02	2.18414692e-04
3.20000000e-01	1.69720448e-02	2.19730818e-04
3.20500000e-01	1.68910958e-02	2.17490842e-04
3.21000000e-01	1.68116882e-02	2.17678618e-04
3.21500000e-01	1.69310638e-02	2.17564919e-04
3.22000000e-01	1.70051674e-02	2.18695142e-04
3.22500000e-01	1.69241991e-02	2.16909598e-04
3.23000000e-01	1.67958629e-02	2.15368807e-04
3.23500000e-01	1.67476442e-02	2.14874192e-04
3.24000000e-01	1.67083939e-02	2.14051594e-04
3.24500000e-01	1.67035124e-02	2.15258089e-04
3.25000000e-01	1.67230183e-02	2.13710215e-04
3.25500000e-01	1.68650497e-02	2.15609028e-04
3.26000000e-01	1.67498343e-02	2.13417931e-04
3.26500000e-01	1.66782442e-02	2.13194131e-04
3.27000000e-01	1.66746530e-02	2.13271935e-04
3.27500000e-01	1.66926209e-02	2.12990447e-04
3.28000000e-01	1.68322594e-02	2.14655258e-04
3.28500000e-01	1.65827516e-02	2.11081923e-04
3.29000000e-01	1.66620441e-02	2.12025603e-04
3.29500000e-01	1.68164275e-02	2.14534558e-04
3.30000000e-01	1.66962637e-02	2.12224087e-04
3.30500000e-01	1.66954494e-02	2.12761974e-04
3.31000000e-01	1.67713406e-02	2.13349165e-04
3.31500000e-01	1.66706993e-02	2.11728391e-04
3.32000000e-01	1.67404555e-02	2.12372007e-04
3.32500000e-01	1.68998383e-02	2.13718493e-04
3.33000000e-01	1.67500019e-02	2.11984308e-04
3.33500000e-01	1.65934187e-02	2.10272154e-04
3.34000000e-01	1.68196684e-02	2.12755596e-04
3.34500000e-01	1.66089916e-02	2.09697810e-04
3.35000000e-01	1.68191477e-02	2.11624103e-04
3.35500000e-01	1.65853173e-02	2.10129232e-04
3.36000000e-01	1.65116406e-02	2.07882954e-04
3.36500000e-01	1.65842102e-02	2.09469682e-04
3.37000000e-01	1.65697194e-02	2.08580214e-04
3.37500000e-01	1.67300835e-02	2.10347125e-04
3.38000000e-01	1.65082864e-02	2.07143234e-04
3.38500000e-01	1.64614376e-02	2.06830145e-04
3.39000000e-01	1.66163415e-02	2.09230562e-04
3.39500000e-01	1.65393089e-02	2.07582585e-04
3.40000000e-01	1.63654201e-02	2.05864791e-04
3.40500000e-01	1.65648174e-02	2.07569694e-04
3.41000000e-01	1.65597558e-02	2.07290952e-04
3.41500000e-01	1.64512802e-02	2.06201678e-04
3.42000000e-01	1.65149766e-02	2.05796651e-04
3.42500000e-01	1.64499691e-02	2.06147048e-04
3.43000000e-01	1.64591839e-02	2.05290608e-04
3.43500000e-01	1.65250140e-02	2.05812639e-04
3.44000000e-01	1.66741196e-02	2.08358296e-04
3.44500000e-01	1.65073222e-02	2.05578859e-04
3.45000000e-01	1.64866245e-02	2.06019795e-04
3.45500000e-01	1.64532633e-02	2.04882294e-04
3.46000000e-01	1.65647581e-02	2.05896286e-04
3.46500000e-01	1.63085284e-02	2.02865793e-04
3.47000000e-01	1.64512509e-02	2.04085294e-04
3.47500000e-01	1.64645485e-02	2.04907048e-04
3.48000000e-01	1.63964997e-02	2.02562821e-04
3.48500000e-01	1.62963180e-02	2.02956131e-04
3.49000000e-01	1.63666295e-02	2.02310536e-04
3.49500000e-01	1.64316498e-02	2.03409946e-04
3.50000000e-01	1.62715460e-02	1.64219121e-04
3.51000000e-01	1.64128951e-02	1.42984879e-04
3.52000000e-01	1.63297115e-02	1.42489813e-04
3.53000000e-01	1.63449424e-02	1.41867539e-04
3.54000000e-01	1.62529496e-02	1.41080401e-04
3.55000000e-01	1.62180690e-02	1.40984751e-04
3.56000000e-01	1.63576051e-02	1.42247553e-04
3.57000000e-01	1.62064579e-02	1.43772167e-04
3.58000000e-01	1.61486811e-02	1.44741394e-04
3.59000000e-01	1.61050108e-02	1.45015550e-04
3.60000000e-01	1.61454830e-02	1.46578933e-04
3.61000000e-01	1.61568996e-02	1.47831918e-04
3.62000000e-01	1.60747371e-02	1.47389099e-04
3.63000000e-01	1.60053418e-02	1.47029846e-04
3.64000000e-01	1.60008630e-02	1.47986738e-04
3.65000000e-01	1.60707221e-02	1.48712596e-04
3.66000000e-01	1.61560420e-02	1.47718953e-04
3.67000000e-01	1.60355158e-02	1.44715918e-04
3.68000000e-01	1.60861856e-02	1.43981489e-04
3.69000000e-01	1.60832413e-02	1.43196291e-04
3.70000000e-01	1.60601484e-02	1.42684824e-04
3.71000000e-01	1.59831090e-02	1.43562264e-04
3.72000000e-01	1.61109121e-02	1.45621833e-04
3.73000000e-01	1.60158906e-02	1.45052096e-04
3.74000000e-01	1.59698021e-02	1.45143225e-04
3.75000000e-01	1.60077396e-02	1.44728769e-04
3.76000000e-01	1.59530799e-02	1.44615038e-04
3.77000000e-01	1.58278113e-02	1.43723732e-04
3.78000000e-01	1.58553897e-02	1.44081829e-04
3.79000000e-01	1.59352446e-02	1.44387364e-04
3.80000000e-01	1.58726719e-02	1.43747461e-04
3.81000000e-01	1.58397909e-02	1.43313928e-04
3.82000000e-01	1.58006335e-02	1.43155573e-04
3.83000000e-01	1.58667275e-02	1.43661531e-04
3.84000000e-01	1.59311180e-02	1.44432236e-04
3.85000000e-01	1.57971209e-02	1.43316951e-04
3.86000000e-01	1.58856338e-02	1.43829707e-04
3.87000000e-01	1.56914927e-02	1.42591991e-04
3.88000000e-01	1.58204543e-02	1.42907015e-04
3.89000000e-01	1.57306177e-02	1.42416801e-04
3.90000000e-01	1.57316801e-02	1.42159656e-04
3.91000000e-01	1.56781522e-02	1.42348831e-04
3.92000000e-01	1.57449578e-02	1.42186320e-04
3.93000000e-01	1.56736730e-02	1.41762528e-04
3.94000000e-01	1.57948996e-02	1.42622629e-04
3.95000000e-01	1.56793541e-02	1.41436787e-04
3.96000000e-01	1.56711020e-02	1.41531141e-04
3.97000000e-01	1.56290996e-02	1.41100325e-04
3.98000000e-01	1.57545175e-02	1.41834697e-04
3.99000000e-01	1.56003639e-02	1.40780153e-04
4.00000000e-01	1.56583067e-02	1.41276483e-04
4.01000000e-01	1.56957335e-02	1.41848392e-04
4.02000000e-01	1.56144385e-02	1.40924508e-04
4.03000000e-01	1.55703282e-02	1.40794216e-04
4.04000000e-01	1.54759635e-02	1.39591806e-04
4.05000000e-01	1.54615780e-02	1.39806675e-04
4.06000000e-01	1.56202837e-02	1.40699713e-04
4.07000000e-01	1.55662162e-02	1.40273034e-04
4.08000000e-01	1.54680073e-02	1.39454082e-04
4.09000000e-01	1.55341015e-02	1.39812360e-04
4.10000000e-01	1.56065701e-02	1.40775614e-04
4.11000000e-01	1.55562439e-02	1.40287445e-04
4.12000000e-01	1.53758924e-02	1.38879360e-04
4.13000000e-01	1.55040863e-02	1.39415976e-04
4.14000000e-01	1.54896833e-02	1.39485967e-04
4.15000000e-01	1.54201617e-02	1.38770529e-04
4.16000000e-01	1.54620778e-02	1.38909792e-04
4.17000000e-01	1.54307716e-02	1.38912445e-04
4.18000000e-01	1.55023826e-02	1.40779390e-04
4.19000000e-01	1.53974790e-02	1.41827930e-04
4.20000000e-01	1.53795513e-02	1.42153094e-04
4.21000000e-01	1.54702704e-02	1.43576634e-04
4.22000000e-01	1.55123555e-02	1.43981668e-04
4.23000000e-01	1.54949181e-02	1.45188296e-04
4.24000000e-01	1.55816277e-02	1.45723431e-04
4.25000000e-01	1.54822999e-02	1.44894252e-04
4.26000000e-01	1.54285280e-02	1.44246402e-04
4.27000000e-01	1.54870123e-02	1.45387610e-04
4.28000000e-01	1.55113912e-02	1.45770887e-04
4.29000000e-01	1.54326989e-02	1.45539255e-04
4.30000000e-01	1.53305912e-02	1.44186137e-04
4.31000000e-01	1.53774365e-02	1.44423161e-04
4.32000000e-01	1.53441000e-02	1.44552462e-04
4.33000000e-01	1.53895366e-02	1.45022210e-04
4.34000000e-01	1.53518854e-02	1.44759703e-04
4.35000000e-01	1.53289186e-02	1.44912122e-04
4.36000000e-01	1.53344073e-02	1.45261907e-04
4.37000000e-01	1.52229870e-02	1.44132586e-04
4.38000000e-01	1.52941857e-02	1.44988776e-04
4.39000000e-01	1.53584943e-02	1.46269285e-04
4.40000000e-01	1.52975689e-02	1.45015774e-04
4.41000000e-01	1.54896956e-02	1.47301080e-04
4.42000000e-01	1.53322927e-02	1.46165840e-04
4.43000000e-01	1.51943716e-02	1.45126610e-04
4.44000000e-01	1.53907937e-02	1.46920717e-04
4.45000000e-01	1.53060234e-02	1.46102206e-04
4.46000000e-01	1.53497519e-02	1.46748713e-04
4.47000000e-01	1.52562736e-02	1.46491052e-04
4.48000000e-01	1.51227941e-02	1.45421266e-04
4.49000000e-01	1.51880304e-02	1.45630750e-04
4.50000000e-01	1.53083194e-02	1.47244403e-04
4.51000000e-01	1.52081419e-02	1.46127844e-04
4.52000000e-01	1.51304541e-02	1.45994471e-04
4.53000000e-01	1.52536222e-02	1.47343946e-04
4.54000000e-01	1.51114735e-02	1.45917028e-04
4.55000000e-01	1.51698413e-02	1.46808068e-04
4.56000000e-01	1.51238535e-02	1.46185430e-04
4.57000000e-01	1.53286541e-02	1.48157035e-04
4.58000000e-01	1.51843729e-02	1.47443969e-04
4.59000000e-01	1.51414526e-02	1.46434831e-04
4.60000000e-01	1.50597320e-02	1.46071171e-04
4.61000000e-01	1.51885843e-02	1.47370663e-04
4.62000000e-01	1.51665888e-02	1.47309839e-04
4.63000000e-01	1.50750291e-02	1.46708637e-04
4.64000000e-01	1.50344335e-02	1.46316671e-04
4.65000000e-01	1.50244690e-02	1.46031238e-04
4.66000000e-01	1.51115125e-02	1.47467262e-04
4.67000000e-01	1.51056519e-02	1.47363972e-04
4.68000000e-01	1.52259724e-02	1.48286638e-04
4.69000000e-01	1.50412610e-02	1.46921194e-04
4.70000000e-01	1.50085786e-02	1.46905565e-04
4.71000000e-01	1.50292773e-02	1.46860373e-04
4.72000000e-01	1.49536760e-02	1.46195281e-04
4.73000000e-01	1.49585502e-02	1.46207156e-04
4.74000000e-01	1.49756721e-02	1.46256363e-04
4.75000000e-01	1.48732537e-02	1.45373565e-04
4.76000000e-01	1.49977457e-02	1.46115710e-04
4.77000000e-01	1.50361005e-02	1.46669241e-04
4.78000000e-01	1.48399692e-02	1.44920774e-04
4.79000000e-01	1.49149285e-02	1.45502054e-04
4.80000000e-01	1.50896202e-02	1.47094258e-04
4.81000000e-01	1.49197386e-02	1.45833964e-04
4.82000000e-01	1.50164132e-02	1.47177189e-04
4.83000000e-01	1.48121888e-02	1.45561429e-04
4.84000000e-01	1.48606730e-02	1.45819084e-04
4.85000000e-01	1.48102796e-02	1.45365876e-04
4.86000000e-01	1.48961679e-02	1.45879312e-04
4.87000000e-01	1.49044643e-02	1.46431802e-04
4.88000000e-01	1.48380372e-02	1.46054883e-04
4.89000000e-01	1.46718285e-02	1.44224603e-04
4.90000000e-01	1.47712394e-02	1.44996706e-04
4.91000000e-01	1.48061307e-02	1.45617870e-04
4.92000000e-01	1.48415449e-02	1.45954981e-04
4.93000000e-01	1.47332673e-02	1.45418682e-04
4.94000000e-01	1.48419244e-02	1.46393524e-04
4.95000000e-01	1.47705903e-02	1.46934661e-04
4.96000000e-01	1.48004454e-02	1.51578730e-04
4.97000000e-01	1.47613958e-02	1.53760162e-04
4.98000000e-01	1.48885094e-02	1.56690704e-04
4.99000000e-01	1.47303914e-02	1.57393962e-04
5.00000000e-01	1.47798068e-02	1.59454298e-04
5.01000000e-01	1.47950581e-02	1.61119655e-04
5.02000000e-01	1.48402760e-02	1.62676430e-04
5.03000000e-01	1.47404565e-02	1.63786310e-04
5.04000000e-01	1.47669570e-02	1.65328740e-04
5.05000000e-01	1.47285217e-02	1.62052186e-04
5.06000000e-01	1.47067331e-02	1.59045933e-04
5.07000000e-01	1.47987017e-02	1.58270017e-04
5.08000000e-01	1.48149829e-02	1.56942514e-04
5.09000000e-01	1.46521599e-02	1.55244593e-04
5.10000000e-01	1.47167563e-02	1.54484289e-04
5.11000000e-01	1.45716594e-02	1.53077756e-04
5.12000000e-01	1.47731096e-02	1.54589090e-04
5.13000000e-01	1.48349817e-02	1.55091246e-04
5.14000000e-01	1.47429617e-02	1.53832856e-04
5.15000000e-01	1.45695883e-02	1.51542775e-04
5.16000000e-01	1.46589603e-02	1.51975487e-04
5.17000000e-01	1.45507707e-02	1.50601763e-04
5.18000000e-01	1.45843953e-02	1.51186523e-04
5.19000000e-01	1.45999471e-02	1.50851323e-04
5.20000000e-01	1.45390431e-02	1.49627122e-04
5.21000000e-01	1.45167148e-02	1.49845840e-04
5.22000000e-01	1.45974616e-02	1.49834303e-04
5.23000000e-01	1.46246807e-02	1.50607216e-04
5.24000000e-01	1.44838580e-02	1.49726749e-04
5.25000000e-01	1.45774865e-02	1.49914257e-04
5.26000000e-01	1.45880294e-02	1.49994638e-04
5.27000000e-01	1.46357865e-02	1.50276597e-04
5.28000000e-01	1.44834927e-02	1.49312172e-04
5.29000000e-01	1.45663068e-02	1.49905128e-04
5.30000000e-01	1.46609698e-02	1.50331357e-04
5.31000000e-01	1.44723633e-02	1.48922871e-04
5.32000000e-01	1.44940918e-02	1.48579708e-04
5.33000000e-01	1.45037082e-02	1.49265766e-04
5.34000000e-01	1.45007995e-02	1.48845458e-04
5.35000000e-01	1.46362040e-02	1.50566662e-04
5.36000000e-01	1.44481374e-02	1.48191959e-04
5.37000000e-01	1.45144037e-02	1.49460429e-04
5.38000000e-01	1.44972087e-02	1.48743364e-04
5.39000000e-01	1.43260587e-02	1.47420370e-04
5.40000000e-01	1.45130315e-02	1.48833446e-04
5.41000000e-01	1.43433623e-02	1.47722575e-04
5.42000000e-01	1.45821048e-02	1.49490897e-04
5.43000000e-01	1.43943690e-02	1.48073577e-04
5.44000000e-01	1.44121357e-02	1.47990373e-04
5.45000000e-01	1.43250415e-02	1.47576213e-04
5.46000000e-01	1.44367523e-02	1.48803251e-04
5.47000000e-01	1.43630772e-02	1.47413025e-04
5.48000000e-01	1.43144016e-02	1.47320815e-04
5.49000000e-01	1.43982951e-02	1.48051599e-04
5.50000000e-01	1.43275259e-02	1.47254499e-04
5.51000000e-01	1.42598507e-02	1.46479434e-04
5.52000000e-01	1.43228435e-02	1.46413140e-04
5.53000000e-01	1.41618298e-02	1.44832618e-04
5.54000000e-01	1.42454249e-02	1.45161155e-04
5.55000000e-01	1.43475932e-02	1.46595160e-04
5.56000000e-01	1.41627570e-02	1.44749201e-04
5.57000000e-01	1.41500199e-02	1.45229076e-04
5.58000000e-01	1.43009062e-02	1.46227617e-04
5.59000000e-01	1.43169336e-02	1.45956785e-04
5.60000000e-01	1.42506227e-02	1.45770431e-04
5.61000000e-01	1.41424727e-02	1.44735570e-04
5.62000000e-01	1.41189555e-02	1.44126702e-04
5.63000000e-01	1.42576351e-02	1.45552986e-04
5.64000000e-01	1.42614851e-02	1.45506132e-04
5.65000000e-01	1.42107268e-02	1.45431240e-04
5.66000000e-01	1.42035754e-02	1.44959461e-04
5.67000000e-01	1.41721867e-02	1.45413022e-04
5.68000000e-01	1.42233711e-02	1.45706490e-04
5.69000000e-01	1.41510529e-02	1.44240096e-04
5.70000000e-01	1.42396895e-02	1.45278285e-04
5.71000000e-01	1.40771757e-02	1.44405920e-04
5.72000000e-01	1.41141132e-02	1.44348575e-04
5.73000000e-01	1.40892556e-02	1.44515203e-04
5.74000000e-01	1.40581177e-02	1.43925455e-04
5.75000000e-01	1.41226998e-02	1.44781527e-04
5.76000000e-01	1.40025891e-02	1.44008712e-04
5.77000000e-01	1.41200062e-02	1.44132238e-04
5.78000000e-01	1.40504736e-02	1.44226986e-04
5.79000000e-01	1.40289938e-02	1.43459189e-04
5.80000000e-01	1.39807617e-02	1.43464711e-04
5.81000000e-01	1.40140047e-02	1.44040491e-04
5.82000000e-01	1.41507095e-02	1.45020135e-04
5.83000000e-01	1.39727643e-02	1.43326737e-04
5.84000000e-01	1.39520346e-02	1.43301937e-04
5.85000000e-01	1.39463038e-02	1.43731576e-04
5.86000000e-01	1.41440627e-02	1.45230430e-04
5.87000000e-01	1.39462039e-02	1.43376504e-04
5.88000000e-01	1.40745716e-02	1.44614564e-04
5.89000000e-01	1.39507851e-02	1.43237172e-04
5.90000000e-01	1.40052586e-02	1.43820918e-04
5.91000000e-01	1.38170552e-02	1.42227820e-04
5.92000000e-01	1.38384217e-02	1.42104654e-04
5.93000000e-01	1.39255081e-02	1.43129646e-04
5.94000000e-01	1.38358527e-02	1.42383243e-04
5.95000000e-01	1.39965049e-02	1.44326665e-04
5.96000000e-01	1.40337495e-02	1.44599567e-04
5.97000000e-01	1.40016241e-02	1.43696734e-04
5.98000000e-01	1.38512645e-02	1.42895806e-04
5.99000000e-01	1.39494631e-02	1.43083949e-04
6.00000000e-01	1.37805556e-02	1.41765409e-04
6.01000000e-01	1.37588436e-02	1.41626048e-04
6.02000000e-01	1.38369015e-02	1.42266727e-04
6.03000000e-01	1.37936699e-02	1.41956148e-04
6.04000000e-01	1.38045902e-02	1.42608057e-04
6.05000000e-01	1.37667969e-02	1.42020857e-04
6.06000000e-01	1.37437954e-02	1.41535491e-04
6.07000000e-01	1.39345872e-02	1.43527269e-04
6.08000000e-01	1.38514669e-02	1.42324195e-04
6.09000000e-01	1.38200522e-02	1.42579293e-04
6.10000000e-01	1.36738192e-02	1.40999574e-04
6.11000000e-01	1.37121991e-02	1.41567456e-04
6.12000000e-01	1.37541300e-02	1.41800211e-04
6.13000000e-01	1.36104673e-02	1.40631980e-04
6.14000000e-01	1.37032420e-02	1.41706754e-04
6.15000000e-01	1.37085241e-02	1.41797809e-04
6.16000000e-01	1.38184428e-02	1.42424804e-04
6.17000000e-01	1.36203333e-02	1.40749788e-04
6.18000000e-01	1.37222007e-02	1.41822887e-04
6.19000000e-01	1.37352758e-02	1.41630473e-04
6.20000000e-01	1.34969570e-02	1.39620575e-04
6.21000000e-01	1.36492271e-02	1.40510716e-04
6.22000000e-01	1.35906078e-02	1.40377925e-04
6.23000000e-01	1.36772978e-02	1.40092644e-04
6.24000000e-01	1.36577606e-02	1.40417503e-04
6.25000000e-01	1.36857839e-02	1.40118159e-04
6.26000000e-01	1.35475924e-02	1.39284077e-04
6.27000000e-01	1.36480628e-02	1.39985577e-04
6.28000000e-01	1.37611175e-02	1.41190349e-04
6.29000000e-01	1.37118187e-02	1.39798571e-04
6.30000000e-01	1.37442637e-02	1.40838078e-04
6.31000000e-01	1.35664682e-02	1.38910266e-04
6.32000000e-01	1.34254246e-02	1.37655771e-04
6.33000000e-01	1.35853824e-02	1.39333794e-04
6.34000000e-01	1.35913536e-02	1.42829057e-04
6.35000000e-01	1.35566229e-02	1.47061006e-04
6.36000000e-01	1.36683503e-02	1.50574844e-04
6.37000000e-01	1.36448909e-02	1.52362897e-04
6.38000000e-01	1.36373335e-02	1.54374035e-04
6.39000000e-01	1.36443918e-02	1.56794275e-04
6.40000000e-01	1.35870136e-02	1.57880366e-04
6.41000000e-01	1.36080166e-02	1.59663474e-04
6.42000000e-01	1.36316392e-02	1.61856182e-04
6.43000000e-01	1.37359674e-02	1.62734736e-04
6.44000000e-01	1.37147162e-02	1.56858738e-04
6.45000000e-01	1.35806773e-02	1.53604926e-04
6.46000000e-01	1.37533033e-02	1.53608807e-04
6.47000000e-01	1.37390805e-02	1.52291429e-04
6.48000000e-01	1.36698419e-02	1.50962271e-04
6.49000000e-01	1.34680929e-02	1.47961445e-04
6.50000000e-01	1.36540332e-02	1.48157375e-04
6.51000000e-01	1.36697560e-02	1.48537479e-04
6.52000000e-01	1.35402762e-02	1.47009540e-04
6.53000000e-01	1.35524031e-02	1.46453076e-04
6.54000000e-01	1.34628656e-02	1.45047345e-04
6.55000000e-01	1.34818408e-02	1.44925190e-04
6.56000000e-01	1.35778585e-02	1.45441681e-04
6.57000000e-01	1.35826144e-02	1.45712350e-04
6.58000000e-01	1.36319865e-02	1.46071152e-04
6.59000000e-01	1.37467893e-02	1.46451554e-04
6.60000000e-01	1.35264439e-02	1.44512589e-04
6.61000000e-01	1.36054697e-02	1.44522317e-04
6.62000000e-01	1.35009768e-02	1.44263356e-04
6.63000000e-01	1.36781959e-02	1.46414260e-04
6.64000000e-01	1.35032013e-02	1.43608620e-04
6.65000000e-01	1.34933461e-02	1.44326624e-04
6.66000000e-01	1.35970222e-02	1.44958898e-04
6.67000000e-01	1.35986947e-02	1.44566564e-04
6.68000000e-01	1.36016625e-02	1.45019821e-04
6.69000000e-01	1.35513078e-02	1.43913156e-04
6.70000000e-01	1.35940885e-02	1.44400064e-04
6.71000000e-01	1.35515899e-02	1.44091138e-04
6.72000000e-01	1.35004033e-02	1.43525360e-04
6.73000000e-01	1.34911654e-02	1.42789165e-04
6.74000000e-01	1.35049184e-02	1.43600992e-04
6.75000000e-01	1.33907523e-02	1.42034072e-04
6.76000000e-01	1.34913177e-02	1.43612488e-04
6.77000000e-01	1.34483082e-02	1.42740774e-04
6.78000000e-01	1.34508742e-02	1.42705382e-04
6.79000000e-01	1.33856719e-02	1.42226666e-04
6.80000000e-01	1.34204520e-02	1.42004424e-04
6.81000000e-01	1.34311430e-02	1.41883302e-04
6.82000000e-01	1.34754063e-02	1.42785735e-04
6.83000000e-01	1.34130587e-02	1.42258341e-04
6.84000000e-01	1.33078588e-02	1.41250707e-04
6.85000000e-01	1.33429115e-02	1.41575949e-04
6.86000000e-01	1.34641788e-02	1.42815556e-04
6.87000000e-01	1.32529884e-02	1.40610165e-04
6.88000000e-01	1.33671335e-02	1.41496164e-04
6.89000000e-01	1.33407558e-02	1.41205888e-04
6.90000000e-01	1.34088051e-02	1.41923451e-04
6.91000000e-01	1.34306769e-02	1.41921007e-04
6.92000000e-01	1.33406042e-02	1.41106293e-04
6.93000000e-01	1.32961896e-02	1.40893440e-04
6.94000000e-01	1.33454630e-02	1.41129117e-04
6.95000000e-01	1.34199980e-02	1.41871095e-04
6.96000000e-01	1.32996728e-02	1.41181010e-04
6.97000000e-01	1.32734435e-02	1.40678432e-04
6.98000000e-01	1.33338899e-02	1.40562645e-04
6.99000000e-01	1.33238007e-02	1.41103071e-04
7.00000000e-01	1.33617317e-02	1.40979520e-04
7.01000000e-01	1.33060881e-02	1.40232152e-04
7.02000000e-01	1.31660000e-02	1.39554172e-04
7.03000000e-01	1.32253900e-02	1.39986613e-04
7.04000000e-01	1.32698079e-02	1.40783575e-04
7.05000000e-01	1.31948571e-02	1.39932789e-04
7.06000000e-01	1.33376458e-02	1.41024953e-04
7.07000000e-01	1.33012991e-02	1.40370213e-04
7.08000000e-01	1.31590441e-02	1.38695156e-04
7.09000000e-01	1.32222211e-02	1.39297850e-04
7.10000000e-01	1.31882466e-02	1.39285098e-04
7.11000000e-01	1.30881222e-02	1.38361478e-04
7.12000000e-01	1.29461330e-02	1.36689345e-04
7.13000000e-01	1.31325386e-02	1.38936303e-04
7.14000000e-01	1.30898216e-02	1.38674370e-04
7.15000000e-01	1.30442410e-02	1.38269946e-04
7.16000000e-01	1.29409914e-02	1.37474007e-04
7.17000000e-01	1.30006019e-02	1.37574762e-04
7.18000000e-01	1.30048435e-02	1.37248734e-04
7.19000000e-01	1.30849728e-02	1.38536619e-04
7.20000000e-01	1.28364334e-02	1.36304880e-04
7.21000000e-01	1.29278929e-02	1.36854187e-04
7.22000000e-01	1.31240781e-02	1.38764932e-04
7.23000000e-01	1.29009537e-02	1.37127234e-04
7.24000000e-01	1.30597280e-02	1.37806398e-04
7.25000000e-01	1.29537649e-02	1.36999562e-04
7.26000000e-01	1.29473964e-02	1.36721251e-04
7.27000000e-01	1.28562374e-02	1.35888016e-04
7.28000000e-01	1.28198819e-02	1.35842640e-04
7.29000000e-01	1.29159811e-02	1.36846008e-04
7.30000000e-01	1.28470076e-02	1.36471619e-04
7.31000000e-01	1.28140721e-02	1.35084380e-04
7.32000000e-01	1.28119736e-02	1.35563766e-04
7.33000000e-01	1.28066433e-02	1.35565315e-04
7.34000000e-01	1.28085669e-02	1.35543788e-04
7.35000000e-01	1.28287540e-02	1.35228093e-04
7.36000000e-01	1.28170124e-02	1.35042878e-04
7.37000000e-01	1.27440239e-02	1.34187613e-04
7.38000000e-01	1.28190940e-02	1.35143676e-04
7.39000000e-01	1.28669067e-02	1.34980039e-04
7.40000000e-01	1.28078639e-02	1.34396290e-04
7.41000000e-01	1.29003201e-02	1.34961789e-04
7.42000000e-01	1.27677972e-02	1.33683987e-04
7.43000000e-01	1.28086565e-02	1.34562600e-04
7.44000000e-01	1.28431083e-02	1.34368501e-04
7.45000000e-01	1.26157783e-02	1.32385784e-04
7.46000000e-01	1.27370219e-02	1.33251142e-04
7.47000000e-01	1.27336665e-02	1.33320116e-04
7.48000000e-01	1.26926937e-02	1.33188509e-04
7.49000000e-01	1.26594913e-02	1.33220600e-04
7.50000000e-01	1.26543186e-02	1.32710302e-04
7.51000000e-01	1.26127880e-02	1.32420981e-04
7.52000000e-01	1.26704003e-02	1.32927096e-04
7.53000000e-01	1.27452975e-02	1.33630398e-04
7.54000000e-01	1.27703109e-02	1.33936467e-04
7.55000000e-01	1.26947261e-02	1.33627099e-04
7.56000000e-01	1.26585377e-02	1.32858780e-04
7.57000000e-01	1.26313024e-02	1.32449376e-04
7.58000000e-01	1.25796786e-02	1.32310352e-04
7.59000000e-01	1.26988968e-02	1.32750148e-04
7.60000000e-01	1.27023291e-02	1.33005732e-04
7.61000000e-01	1.27218074e-02	1.32958746e-04
7.62000000e-01	1.24234925e-02	1.30037967e-04
7.63000000e-01	1.25152670e-02	1.30290086e-04
7.64000000e-01	1.24355805e-02	1.29730854e-04
7.65000000e-01	1.25180761e-02	1.30354086e-04
7.66000000e-01	1.26601062e-02	1.31384045e-04
7.67000000e-01	1.24171594e-02	1.29435514e-04
7.68000000e-01	1.24150713e-02	1.29280776e-04
7.69000000e-01	1.24610303e-02	1.30185108e-04
7.70000000e-01	1.26237363e-02	1.31261366e-04
7.71000000e-01	1.25588222e-02	1.30853826e-04
7.72000000e-01	1.23829244e-02	1.33039158e-04
7.73000000e-01	1.25711327e-02	1.39182998e-04
7.74000000e-01	1.23492756e-02	1.39951760e-04
7.75000000e-01	1.24698932e-02	1.43185573e-04
7.76000000e-01	1.23033971e-02	1.43987265e-04
7.77000000e-01	1.25932235e-02	1.49386893e-04
7.78000000e-01	1.24574847e-02	1.49351565e-04
7.79000000e-01	1.23410024e-02	1.49921649e-04
7.80000000e-01	1.23060833e-02	1.51274594e-04
7.81000000e-01	1.22523143e-02	1.52401104e-04
7.82000000e-01	1.24310189e-02	1.56342622e-04
7.83000000e-01	1.23268334e-02	1.56181020e-04
7.84000000e-01	1.22879850e-02	1.57778265e-04
7.85000000e-01	1.24146407e-02	1.61162772e-04
7.86000000e-01	1.21910412e-02	1.60218907e-04
7.87000000e-01	1.22362970e-02	1.62504155e-04
7.88000000e-01	1.22535026e-02	1.63658651e-04
7.89000000e-01	1.23675131e-02	1.66472823e-04
7.90000000e-01	1.20983866e-02	1.65597281e-04
7.91000000e-01	1.20897488e-02	1.66880795e-04
7.92000000e-01	1.22636627e-02	1.69900849e-04
7.93000000e-01	1.21993008e-02	1.71240407e-04
7.94000000e-01	1.20055644e-02	1.71322671e-04
7.95000000e-01	1.21401580e-02	1.74495949e-04
7.96000000e-01	1.21388638e-02	1.75590161e-04
7.97000000e-01	1.20749580e-02	1.77267522e-04
7.98000000e-01	1.21423581e-02	1.79580596e-04
7.99000000e-01	1.22043677e-02	1.82486521e-04
8.00000000e-01	1.19377209e-02	1.80581931e-04
8.01000000e-01	1.18914917e-02	1.82321674e-04
8.02000000e-01	1.21955531e-02	1.88358599e-04
8.03000000e-01	1.22573534e-02	1.90428938e-04
8.04000000e-01	1.20750192e-02	1.90432900e-04
8.05000000e-01	1.20912083e-02	1.93050170e-04
8.06000000e-01	1.20987560e-02	1.94680240e-04
8.07000000e-01	1.21271453e-02	1.96966664e-04
8.08000000e-01	1.18700818e-02	1.95534740e-04
8.09000000e-01	1.21972665e-02	2.01959665e-04
8.10000000e-01	1.19942066e-02	2.00643748e-04
8.11000000e-01	1.21596906e-02	2.06696788e-04
8.12000000e-01	1.19063540e-02	2.04607458e-04
8.13000000e-01	1.20427176e-02	2.08932383e-04
8.14000000e-01	1.21516175e-02	2.12902711e-04
8.15000000e-01	1.20523252e-02	2.14483824e-04
8.16000000e-01	1.18291186e-02	2.13954463e-04
8.17000000e-01	1.17994450e-02	2.15709953e-04
8.18000000e-01	1.19907985e-02	2.22226499e-04
8.19000000e-01	1.18958665e-02	2.22245299e-04
8.20000000e-01	1.16949086e-02	2.21892053e-04
8.21000000e-01	1.16606823e-02	2.24065059e-04
8.22000000e-01	1.17057998e-02	2.27531550e-04
8.23000000e-01	1.17656998e-02	2.33717099e-04
8.24000000e-01	1.16655113e-02	2.34240239e-04
8.25000000e-01	1.20885806e-02	2.45170891e-04
8.26000000e-01	1.18586491e-02	2.43892062e-04
8.27000000e-01	1.16239980e-02	2.43597659e-04
8.28000000e-01	1.15960956e-02	2.46613622e-04
8.29000000e-01	1.15725028e-02	2.50068793e-04
8.30000000e-01	1.17859833e-02	2.57751957e-04
8.31000000e-01	1.19758425e-02	2.65982010e-04
8.32000000e-01	1.15740694e-02	2.62540770e-04
8.33000000e-01	1.16146334e-02	2.65459665e-04
8.34000000e-01	1.14895279e-02	2.69045381e-04
8.35000000e-01	1.19059467e-02	2.82009613e-04
8.36000000e-01	1.16231996e-02	2.81092670e-04
8.37000000e-01	1.14672811e-02	2.84915122e-04
8.38000000e-01	1.15219297e-02	2.90506341e-04
8.39000000e-01	1.18570130e-02	3.03154455e-04
8.40000000e-01	1.16555263e-02	3.05770356e-04
8.41000000e-01	1.14586676e-02	3.08920854e-04
8.42000000e-01	1.15780164e-02	3.17753068e-04
8.43000000e-01	1.11855705e-02	3.16890170e-04
8.44000000e-01	1.12518051e-02	3.27151804e-04
8.45000000e-01	1.13080874e-02	3.36453408e-04
8.46000000e-01	1.12168040e-02	3.42350240e-04
8.47000000e-01	1.12257675e-02	3.51215206e-04
8.48000000e-01	1.11347405e-02	3.61225463e-04
8.49000000e-01	1.12367616e-02	3.74773480e-04
8.50000000e-01	1.13782222e-02	3.97288268e-04
8.51000000e-01	1.14524254e-02	4.06517636e-04
8.52000000e-01	1.07869088e-02	4.04259586e-04
8.53000000e-01	1.13859485e-02	4.43299465e-04
8.54000000e-01	1.14501690e-02	4.65756339e-04
8.55000000e-01	1.13729192e-02	4.76262881e-04
8.56000000e-01	1.11236633e-02	4.79295338e-04
8.57000000e-01	1.16711342e-02	5.08270551e-04
8.58000000e-01	1.13389872e-02	5.05026615e-04
8.59000000e-01	1.08761344e-02	5.28099154e-04
8.60000000e-01	1.09631304e-02	5.42114180e-04
8.61000000e-01	1.06294579e-02	5.37148730e-04
8.62000000e-01	1.10805638e-02	5.78497623e-04
8.63000000e-01	1.06476217e-02	5.82643258e-04
8.64000000e-01	1.11448194e-02	6.31171005e-04
8.65000000e-01	1.08317126e-02	6.50493693e-04
8.66000000e-01	1.16465065e-02	7.26876317e-04
8.67000000e-01	1.14359698e-02	7.55284623e-04
8.68000000e-01	1.10701278e-02	7.84496638e-04
8.69000000e-01	1.07106001e-02	8.15512275e-04
8.70000000e-01	1.08280866e-02	9.10573738e-04
8.71000000e-01	1.10649677e-02	1.00715990e-03
8.72000000e-01	1.23760320e-02	1.25253066e-03
8.73000000e-01	1.12466872e-02	1.31261409e-03
8.74000000e-01	1.42958250e-02	2.17750932e-03
8.75000000e-01	1.02252871e-02	3.35475036e-03
