% Filename : SEC9_00044_00016.h5
% Date & Time : 30-Oct-2025 18:04:27
% X-ray Energy (keV) : 13.30001
% Exposure Time (s) : 0.500
% Beam Center : 1461.24000, 208.98300
% Sample to Detector Distance (SDD) (mm) : 1990.750
% Detector Pixel Size (mm) : 0.075
% Photodiode Value : 141104.000
% I0 of Sample : 0
% I0 of Standard : 1
% 
% q(A^-1)   I(q)    I(q)_SE
0.00000000e+00	1.15234380e-02	6.65306004e-03
2.50000000e-04	0.00000000e+00	0.00000000e+00
5.00000000e-04	0.00000000e+00	0.00000000e+00
7.50000000e-04	0.00000000e+00	0.00000000e+00
1.00000000e-03	0.00000000e+00	0.00000000e+00
1.25000000e-03	0.00000000e+00	0.00000000e+00
1.50000000e-03	0.00000000e+00	0.00000000e+00
1.75000000e-03	0.00000000e+00	0.00000000e+00
2.00000000e-03	0.00000000e+00	0.00000000e+00
2.25000000e-03	0.00000000e+00	0.00000000e+00
2.50000000e-03	0.00000000e+00	0.00000000e+00
2.75000000e-03	0.00000000e+00	0.00000000e+00
3.00000000e-03	0.00000000e+00	0.00000000e+00
3.25000000e-03	7.75812241e+02	4.52255611e+02
3.50000000e-03	8.48720103e+02	1.84505958e+02
3.75000000e-03	6.76099751e+02	1.14312387e+02
4.00000000e-03	5.18900130e+02	7.89203926e+01
4.25000000e-03	3.85743657e+02	4.87195069e+01
4.50000000e-03	3.23515589e+02	3.63829598e+01
4.75000000e-03	2.70484698e+02	2.77553848e+01
5.00000000e-03	2.17090484e+02	2.12383339e+01
5.25000000e-03	1.80320372e+02	1.74837135e+01
5.50000000e-03	1.50251229e+02	1.40088548e+01
5.75000000e-03	1.26652159e+02	1.15931163e+01
6.00000000e-03	1.05640361e+02	9.28988239e+00
6.25000000e-03	8.89590361e+01	7.76761127e+00
6.50000000e-03	7.57140652e+01	6.45305248e+00
6.75000000e-03	6.50505740e+01	5.46634952e+00
7.00000000e-03	5.68420085e+01	4.66285874e+00
7.25000000e-03	4.88225814e+01	3.90963564e+00
7.50000000e-03	4.30616003e+01	3.43507032e+00
7.75000000e-03	3.77881184e+01	2.94799720e+00
8.00000000e-03	3.35787139e+01	2.59212372e+00
8.25000000e-03	2.96292128e+01	2.19817161e+00
8.50000000e-03	2.60669182e+01	1.90268210e+00
8.75000000e-03	2.34324677e+01	1.70286666e+00
9.00000000e-03	2.08693804e+01	1.49992135e+00
9.25000000e-03	1.85337831e+01	1.30092820e+00
9.50000000e-03	1.66983787e+01	1.14833399e+00
9.75000000e-03	1.51187241e+01	1.03379618e+00
1.00000000e-02	1.39035405e+01	9.38212097e-01
1.02500000e-02	1.25919038e+01	8.52217665e-01
1.05000000e-02	1.15459739e+01	7.52295049e-01
1.07500000e-02	1.04534952e+01	6.80511598e-01
1.10000000e-02	9.60393347e+00	6.10755692e-01
1.12500000e-02	8.80736236e+00	5.71130259e-01
1.15000000e-02	8.02909993e+00	5.07504277e-01
1.17500000e-02	7.33090318e+00	4.52391047e-01
1.20000000e-02	6.83142490e+00	4.21458527e-01
1.22500000e-02	6.27303056e+00	3.79401607e-01
1.25000000e-02	5.80943110e+00	3.51076708e-01
1.27500000e-02	5.39321331e+00	3.21670726e-01
1.30000000e-02	5.01224152e+00	2.95269405e-01
1.32500000e-02	4.62931904e+00	2.66552477e-01
1.35000000e-02	4.30341482e+00	2.47985057e-01
1.37500000e-02	3.99798510e+00	2.30247316e-01
1.40000000e-02	3.69516330e+00	2.09552917e-01
1.42500000e-02	3.48550447e+00	1.94619222e-01
1.45000000e-02	3.29033635e+00	1.82543281e-01
1.47500000e-02	3.05663825e+00	1.68622346e-01
1.50000000e-02	2.87846477e+00	1.57834545e-01
1.52500000e-02	2.70812961e+00	1.46642146e-01
1.55000000e-02	2.54673093e+00	1.36004938e-01
1.57500000e-02	2.35723871e+00	1.25708640e-01
1.60000000e-02	2.22933166e+00	1.16771881e-01
1.62500000e-02	2.10437089e+00	1.11715243e-01
1.65000000e-02	1.98652161e+00	1.02969411e-01
1.67500000e-02	1.86768383e+00	9.55572646e-02
1.70000000e-02	1.76631560e+00	9.01087102e-02
1.72500000e-02	1.67437446e+00	8.50555219e-02
1.75000000e-02	1.57431654e+00	7.97678523e-02
1.77500000e-02	1.48826248e+00	7.39002406e-02
1.80000000e-02	1.41065460e+00	7.03098883e-02
1.82500000e-02	1.34026244e+00	6.48487101e-02
1.85000000e-02	1.26121998e+00	6.26917943e-02
1.87500000e-02	1.21328385e+00	5.89497592e-02
1.90000000e-02	1.14600171e+00	5.54658720e-02
1.92500000e-02	1.09804789e+00	5.23194086e-02
1.95000000e-02	1.03132021e+00	4.88628991e-02
1.97500000e-02	9.80779524e-01	4.67481668e-02
2.00000000e-02	9.40779778e-01	4.43458611e-02
2.02500000e-02	8.88307467e-01	4.16106060e-02
2.05000000e-02	8.58245722e-01	3.94028986e-02
2.07500000e-02	8.12184127e-01	3.73241494e-02
2.10000000e-02	7.78937330e-01	3.60746856e-02
2.12500000e-02	7.39878139e-01	3.43036967e-02
2.15000000e-02	7.20977894e-01	3.31033814e-02
2.17500000e-02	6.91010004e-01	3.20001593e-02
2.20000000e-02	6.65401187e-01	3.09808649e-02
2.22500000e-02	6.42686861e-01	2.97224492e-02
2.25000000e-02	6.08894618e-01	2.84519082e-02
2.27500000e-02	5.81173624e-01	2.66954190e-02
2.30000000e-02	5.69688594e-01	2.65555899e-02
2.32500000e-02	5.41236540e-01	2.49181344e-02
2.35000000e-02	5.23567309e-01	2.44187470e-02
2.37500000e-02	4.97375561e-01	2.30011702e-02
2.40000000e-02	4.82054590e-01	2.24359975e-02
2.42500000e-02	4.62001357e-01	2.13287518e-02
2.45000000e-02	4.48088967e-01	2.07481813e-02
2.47500000e-02	4.30494567e-01	1.97149643e-02
2.50000000e-02	4.13027995e-01	1.89381687e-02
2.52500000e-02	3.96270692e-01	1.83308893e-02
2.55000000e-02	3.89709601e-01	1.76314757e-02
2.57500000e-02	3.72402129e-01	1.69453308e-02
2.60000000e-02	3.60354441e-01	1.62767030e-02
2.62500000e-02	3.49994778e-01	1.60492277e-02
2.65000000e-02	3.33862886e-01	1.51052188e-02
2.67500000e-02	3.24990953e-01	1.46152520e-02
2.70000000e-02	3.13491805e-01	1.41882801e-02
2.72500000e-02	3.03698958e-01	1.35596939e-02
2.75000000e-02	2.95814378e-01	1.34430950e-02
2.77500000e-02	2.82571664e-01	1.28340857e-02
2.80000000e-02	2.78719871e-01	1.23341483e-02
2.82500000e-02	2.65174697e-01	1.17610804e-02
2.85000000e-02	2.60366381e-01	1.15715239e-02
2.87500000e-02	2.51256170e-01	1.12496450e-02
2.90000000e-02	2.46890812e-01	1.10273911e-02
2.92500000e-02	2.36793131e-01	1.02590497e-02
2.95000000e-02	2.32628794e-01	1.03176131e-02
2.97500000e-02	2.24045865e-01	9.85662061e-03
3.00000000e-02	2.16858385e-01	9.60632384e-03
3.02500000e-02	2.10092612e-01	9.27640945e-03
3.05000000e-02	2.07278920e-01	8.93666142e-03
3.07500000e-02	2.02498759e-01	8.85606203e-03
3.10000000e-02	1.94435334e-01	8.47631307e-03
3.12500000e-02	1.88185852e-01	8.28578729e-03
3.15000000e-02	1.83268797e-01	7.97123759e-03
3.17500000e-02	1.78529559e-01	7.63676601e-03
3.20000000e-02	1.78196136e-01	7.72812532e-03
3.22500000e-02	1.70149622e-01	7.36590639e-03
3.25000000e-02	1.66647649e-01	7.24263731e-03
3.27500000e-02	1.61188057e-01	6.91279483e-03
3.30000000e-02	1.56003429e-01	6.67833971e-03
3.32500000e-02	1.53925334e-01	6.55447136e-03
3.35000000e-02	1.50030429e-01	6.46459022e-03
3.37500000e-02	1.46244833e-01	6.22926342e-03
3.40000000e-02	1.40090454e-01	5.97077333e-03
3.42500000e-02	1.40084389e-01	5.91104488e-03
3.45000000e-02	1.36210283e-01	5.79326936e-03
3.47500000e-02	1.33607437e-01	5.66076308e-03
3.50000000e-02	1.29231808e-01	5.45461144e-03
3.52500000e-02	1.24926736e-01	5.28988176e-03
3.55000000e-02	1.26851831e-01	5.27791002e-03
3.57500000e-02	1.20895944e-01	5.10175634e-03
3.60000000e-02	1.19303700e-01	5.01214423e-03
3.62500000e-02	1.15166074e-01	4.85175803e-03
3.65000000e-02	1.12059726e-01	4.68587035e-03
3.67500000e-02	1.12124625e-01	4.68475259e-03
3.70000000e-02	1.11193777e-01	4.62460070e-03
3.72500000e-02	1.07121056e-01	4.44967930e-03
3.75000000e-02	1.03927107e-01	4.32942174e-03
3.77500000e-02	1.02085375e-01	4.22252955e-03
3.80000000e-02	1.02399812e-01	4.23218513e-03
3.82500000e-02	9.71929638e-02	3.98556235e-03
3.85000000e-02	9.49865880e-02	3.93408433e-03
3.87500000e-02	9.45048885e-02	3.87619532e-03
3.90000000e-02	9.16861909e-02	3.79631198e-03
3.92500000e-02	9.14522042e-02	3.71192109e-03
3.95000000e-02	9.02015971e-02	3.69046522e-03
3.97500000e-02	8.85366948e-02	3.61984554e-03
4.00000000e-02	8.65544887e-02	3.52714689e-03
4.02500000e-02	8.62964860e-02	3.52596682e-03
4.05000000e-02	8.37153292e-02	3.38426102e-03
4.07500000e-02	8.22365242e-02	3.30729215e-03
4.10000000e-02	8.05692694e-02	3.27565802e-03
4.12500000e-02	7.99322773e-02	3.22882257e-03
4.15000000e-02	7.75805557e-02	3.10739898e-03
4.17500000e-02	7.62431108e-02	3.05847930e-03
4.20000000e-02	7.67994733e-02	3.05804735e-03
4.22500000e-02	7.49453995e-02	2.98367788e-03
4.25000000e-02	7.32120308e-02	2.93055833e-03
4.27500000e-02	7.35101220e-02	2.91064137e-03
4.30000000e-02	7.05220074e-02	2.80647591e-03
4.32500000e-02	7.10675084e-02	2.80868219e-03
4.35000000e-02	6.89800000e-02	2.75342284e-03
4.37500000e-02	6.77639203e-02	2.66724418e-03
4.40000000e-02	6.69221685e-02	2.65599859e-03
4.42500000e-02	6.67827443e-02	2.63864276e-03
4.45000000e-02	6.44974440e-02	2.53434631e-03
4.47500000e-02	6.55433861e-02	2.56511351e-03
4.50000000e-02	6.46445386e-02	2.53644307e-03
4.52500000e-02	6.27968778e-02	2.46055086e-03
4.55000000e-02	6.35898568e-02	2.47377188e-03
4.57500000e-02	6.02258353e-02	2.34427904e-03
4.60000000e-02	6.01858483e-02	2.34357422e-03
4.62500000e-02	5.96021450e-02	2.32410232e-03
4.65000000e-02	5.95586243e-02	2.30376942e-03
4.67500000e-02	5.84602030e-02	2.24126616e-03
4.70000000e-02	5.74758307e-02	2.22038263e-03
4.72500000e-02	5.77652153e-02	2.23987715e-03
4.75000000e-02	5.62727611e-02	2.18117798e-03
4.77500000e-02	5.64264512e-02	2.16507503e-03
4.80000000e-02	5.54017962e-02	2.12262493e-03
4.82500000e-02	5.52077553e-02	2.11349379e-03
4.85000000e-02	5.42365006e-02	2.09229223e-03
4.87500000e-02	5.38913121e-02	2.05417660e-03
4.90000000e-02	5.22131974e-02	1.98268477e-03
4.92500000e-02	5.04181857e-02	1.91589891e-03
4.95000000e-02	5.10071011e-02	1.93905113e-03
4.97500000e-02	5.04959337e-02	1.93357433e-03
5.00000000e-02	5.02221096e-02	1.89747812e-03
5.02500000e-02	4.86581985e-02	1.82563124e-03
5.05000000e-02	4.95768485e-02	1.85990149e-03
5.07500000e-02	4.89817954e-02	1.86479182e-03
5.10000000e-02	4.92184203e-02	1.85379049e-03
5.12500000e-02	4.81295802e-02	1.81566592e-03
5.15000000e-02	4.82522362e-02	1.80293386e-03
5.17500000e-02	4.62905907e-02	1.73465439e-03
5.20000000e-02	4.59570531e-02	1.71784113e-03
5.22500000e-02	4.56273560e-02	1.71425972e-03
5.25000000e-02	4.65177384e-02	1.73570815e-03
5.27500000e-02	4.53243912e-02	1.67710381e-03
5.30000000e-02	4.55241647e-02	1.69957388e-03
5.32500000e-02	4.40966076e-02	1.63803839e-03
5.35000000e-02	4.37186087e-02	1.63105299e-03
5.37500000e-02	4.43089912e-02	1.63781336e-03
5.40000000e-02	4.36619556e-02	1.61632964e-03
5.42500000e-02	4.24788147e-02	1.56259054e-03
5.45000000e-02	4.20724877e-02	1.55336744e-03
5.47500000e-02	4.21996016e-02	1.54862704e-03
5.50000000e-02	4.21200492e-02	1.55315016e-03
5.52500000e-02	4.15180308e-02	1.52301357e-03
5.55000000e-02	4.17083048e-02	1.52315733e-03
5.57500000e-02	4.20677126e-02	1.54362337e-03
5.60000000e-02	4.06321502e-02	1.48654837e-03
5.62500000e-02	3.97645873e-02	1.46114997e-03
5.65000000e-02	3.99901126e-02	1.45322451e-03
5.67500000e-02	4.00318073e-02	1.45387561e-03
5.70000000e-02	4.01872768e-02	1.45599112e-03
5.72500000e-02	4.02289369e-02	1.46019441e-03
5.75000000e-02	3.89213484e-02	1.41625531e-03
5.77500000e-02	3.94715672e-02	1.41648436e-03
5.80000000e-02	3.83310405e-02	1.39016157e-03
5.82500000e-02	3.68240661e-02	1.33552568e-03
5.85000000e-02	3.83211871e-02	1.38662228e-03
5.87500000e-02	3.79621926e-02	1.35817679e-03
5.90000000e-02	3.73873367e-02	1.34574999e-03
5.92500000e-02	3.63802156e-02	1.30280091e-03
5.95000000e-02	3.66502839e-02	1.31126078e-03
5.97500000e-02	3.62029364e-02	1.30214995e-03
6.00000000e-02	3.67118686e-02	1.31501407e-03
6.02500000e-02	3.66317022e-02	1.29965911e-03
6.05000000e-02	3.62141607e-02	1.28853775e-03
6.07500000e-02	3.51840651e-02	1.25653859e-03
6.10000000e-02	3.57065403e-02	1.26358241e-03
6.12500000e-02	3.50933275e-02	1.25534622e-03
6.15000000e-02	3.51749563e-02	1.24340356e-03
6.17500000e-02	3.51141345e-02	1.23621906e-03
6.20000000e-02	3.42319597e-02	1.21504834e-03
6.22500000e-02	3.50105595e-02	1.23338542e-03
6.25000000e-02	3.46692554e-02	1.21908382e-03
6.27500000e-02	3.48869940e-02	1.21555201e-03
6.30000000e-02	3.35058935e-02	1.17294065e-03
6.32500000e-02	3.40251097e-02	1.20860829e-03
6.35000000e-02	3.40164554e-02	1.19323131e-03
6.37500000e-02	3.35113508e-02	1.17534763e-03
6.40000000e-02	3.32033952e-02	1.16129813e-03
6.42500000e-02	3.27962460e-02	1.14682437e-03
6.45000000e-02	3.32187243e-02	1.15417720e-03
6.47500000e-02	3.22648374e-02	1.12632118e-03
6.50000000e-02	3.30210571e-02	1.15702069e-03
6.52500000e-02	3.30846884e-02	1.14489842e-03
6.55000000e-02	3.21512991e-02	1.10879293e-03
6.57500000e-02	3.15206292e-02	1.09597848e-03
6.60000000e-02	3.14560032e-02	1.08698267e-03
6.62500000e-02	3.12166741e-02	1.07501540e-03
6.65000000e-02	3.21520099e-02	1.10193982e-03
6.67500000e-02	3.09740628e-02	1.06893539e-03
6.70000000e-02	3.19083246e-02	1.10514246e-03
6.72500000e-02	3.19117410e-02	1.09487077e-03
6.75000000e-02	3.16914593e-02	1.08323076e-03
6.77500000e-02	3.12304849e-02	1.06875162e-03
6.80000000e-02	3.07070361e-02	1.05540779e-03
6.82500000e-02	3.08616975e-02	1.05031040e-03
6.85000000e-02	3.05704942e-02	1.05024309e-03
6.87500000e-02	3.06547535e-02	1.04599536e-03
6.90000000e-02	3.05814591e-02	1.03872414e-03
6.92500000e-02	3.05463058e-02	1.03803879e-03
6.95000000e-02	2.98039843e-02	1.01422951e-03
6.97500000e-02	2.97655298e-02	1.01661135e-03
7.00000000e-02	2.93130084e-02	9.95898431e-04
7.02500000e-02	3.02458819e-02	1.01848051e-03
7.05000000e-02	2.94307935e-02	9.90431146e-04
7.07500000e-02	2.94617900e-02	1.00455207e-03
7.10000000e-02	2.97849786e-02	1.00378356e-03
7.12500000e-02	2.98621914e-02	1.00394201e-03
7.15000000e-02	2.92982078e-02	9.82558416e-04
7.17500000e-02	2.92380021e-02	9.83691994e-04
7.20000000e-02	2.91580300e-02	9.78899232e-04
7.22500000e-02	2.88110322e-02	9.63005789e-04
7.25000000e-02	2.90887561e-02	9.69583006e-04
7.27500000e-02	2.88287138e-02	9.67647968e-04
7.30000000e-02	2.84386812e-02	9.58717198e-04
7.32500000e-02	2.90457786e-02	9.59550126e-04
7.35000000e-02	2.83513890e-02	9.46720812e-04
7.37500000e-02	2.83025140e-02	9.39253048e-04
7.40000000e-02	2.81229752e-02	9.36389960e-04
7.42500000e-02	2.86652307e-02	9.56889125e-04
7.45000000e-02	2.84096573e-02	9.40715146e-04
7.47500000e-02	2.81145766e-02	9.29848216e-04
7.50000000e-02	2.77883141e-02	9.21897524e-04
7.52500000e-02	2.78299272e-02	9.23899067e-04
7.55000000e-02	2.73643099e-02	8.98497389e-04
7.57500000e-02	2.76417630e-02	9.12593574e-04
7.60000000e-02	2.74329781e-02	9.10902864e-04
7.62500000e-02	2.73482822e-02	9.01551502e-04
7.65000000e-02	2.77961194e-02	9.11612610e-04
7.67500000e-02	2.79986654e-02	9.17826069e-04
7.70000000e-02	2.77464604e-02	9.02677815e-04
7.72500000e-02	2.72942050e-02	9.04609658e-04
7.75000000e-02	2.70120538e-02	9.10055134e-04
7.77500000e-02	2.76147857e-02	9.26381141e-04
7.80000000e-02	2.74215447e-02	9.32377871e-04
7.82500000e-02	2.65663804e-02	9.14995780e-04
7.85000000e-02	2.72452613e-02	9.40155582e-04
7.87500000e-02	2.75989225e-02	9.44996164e-04
7.90000000e-02	2.67058477e-02	9.20906783e-04
7.92500000e-02	2.68069875e-02	9.30478581e-04
7.95000000e-02	2.71937965e-02	9.39778589e-04
7.97500000e-02	2.70825497e-02	9.43482557e-04
8.00000000e-02	2.72460318e-02	9.46108546e-04
8.02500000e-02	2.67317197e-02	9.30750418e-04
8.05000000e-02	2.71529937e-02	9.46783392e-04
8.07500000e-02	2.68313276e-02	9.49267361e-04
8.10000000e-02	2.70145405e-02	9.43940007e-04
8.12500000e-02	2.62588329e-02	9.28178560e-04
8.15000000e-02	2.65976793e-02	9.38783210e-04
8.17500000e-02	2.56112353e-02	9.12313325e-04
8.20000000e-02	2.71937087e-02	9.61631194e-04
8.22500000e-02	2.61587418e-02	9.30027016e-04
8.25000000e-02	2.61040663e-02	9.20853303e-04
8.27500000e-02	2.56371216e-02	9.08559705e-04
8.30000000e-02	2.53410027e-02	9.10952832e-04
8.32500000e-02	2.60196010e-02	9.26692880e-04
8.35000000e-02	2.63467947e-02	9.56776656e-04
8.37500000e-02	2.58664090e-02	9.23780181e-04
8.40000000e-02	2.55950069e-02	9.20014161e-04
8.42500000e-02	2.57422862e-02	9.25790312e-04
8.45000000e-02	2.50750567e-02	9.05949204e-04
8.47500000e-02	2.60217780e-02	9.39395695e-04
8.50000000e-02	2.55222570e-02	9.20837384e-04
8.52500000e-02	2.57094270e-02	9.30322538e-04
8.55000000e-02	2.58737334e-02	9.34152142e-04
8.57500000e-02	2.50816457e-02	9.13556785e-04
8.60000000e-02	2.55229254e-02	9.28952140e-04
8.62500000e-02	2.49225313e-02	9.02564274e-04
8.65000000e-02	2.61259704e-02	9.49811366e-04
8.67500000e-02	2.59944610e-02	9.30409422e-04
8.70000000e-02	2.47705593e-02	8.90132387e-04
8.72500000e-02	2.55335917e-02	8.92989683e-04
8.75000000e-02	2.51320293e-02	8.73863913e-04
8.77500000e-02	2.55696707e-02	8.71858390e-04
8.80000000e-02	2.52692468e-02	8.68482356e-04
8.82500000e-02	2.51676648e-02	8.67345058e-04
8.85000000e-02	2.45904825e-02	8.44619304e-04
8.87500000e-02	2.49202418e-02	8.36312198e-04
8.90000000e-02	2.46026829e-02	8.41831526e-04
8.92500000e-02	2.47966511e-02	8.36821950e-04
8.95000000e-02	2.52893628e-02	8.49892810e-04
8.97500000e-02	2.46187931e-02	8.27338817e-04
9.00000000e-02	2.48527923e-02	8.26115766e-04
9.02500000e-02	2.48568932e-02	8.23387745e-04
9.05000000e-02	2.46633457e-02	8.17376625e-04
9.07500000e-02	2.45888786e-02	8.13244432e-04
9.10000000e-02	2.45618369e-02	8.12060567e-04
9.12500000e-02	2.46804977e-02	8.13547116e-04
9.15000000e-02	2.42538471e-02	7.92585605e-04
9.17500000e-02	2.41694263e-02	7.98630121e-04
9.20000000e-02	2.38463415e-02	7.80855935e-04
9.22500000e-02	2.51891692e-02	8.23756461e-04
9.25000000e-02	2.50077419e-02	8.11809178e-04
9.27500000e-02	2.44055079e-02	7.97652166e-04
9.30000000e-02	2.38389775e-02	7.74949391e-04
9.32500000e-02	2.42303720e-02	7.92327176e-04
9.35000000e-02	2.43074193e-02	7.84843258e-04
9.37500000e-02	2.39240504e-02	7.70789912e-04
9.40000000e-02	2.43837361e-02	7.90824549e-04
9.42500000e-02	2.36580878e-02	7.62970534e-04
9.45000000e-02	2.42703761e-02	7.80938324e-04
9.47500000e-02	2.41114001e-02	7.72503093e-04
9.50000000e-02	2.43682522e-02	7.82743471e-04
9.52500000e-02	2.40442198e-02	7.72231445e-04
9.55000000e-02	2.45117965e-02	7.81514004e-04
9.57500000e-02	2.39380232e-02	7.64322092e-04
9.60000000e-02	2.40134708e-02	7.64547859e-04
9.62500000e-02	2.35330930e-02	7.48756981e-04
9.65000000e-02	2.34010181e-02	7.44804836e-04
9.67500000e-02	2.42768447e-02	7.62720126e-04
9.70000000e-02	2.35504117e-02	7.50416952e-04
9.72500000e-02	2.41156203e-02	7.60995727e-04
9.75000000e-02	2.37432580e-02	7.47286227e-04
9.77500000e-02	2.36178686e-02	7.38674225e-04
9.80000000e-02	2.32801012e-02	7.33227349e-04
9.82500000e-02	2.32583880e-02	7.30062445e-04
9.85000000e-02	2.37188463e-02	7.42491165e-04
9.87500000e-02	2.37420417e-02	7.46448674e-04
9.90000000e-02	2.31468071e-02	7.26791970e-04
9.92500000e-02	2.35224429e-02	7.41457296e-04
9.95000000e-02	2.33886758e-02	7.28691297e-04
9.97500000e-02	2.37589479e-02	7.41116637e-04
1.00000000e-01	2.33854282e-02	5.93754812e-04
1.00500000e-01	2.35019260e-02	5.18064503e-04
1.01000000e-01	2.33631406e-02	5.08476055e-04
1.01500000e-01	2.33574106e-02	5.10094087e-04
1.02000000e-01	2.32382525e-02	5.05950935e-04
1.02500000e-01	2.33636163e-02	5.04409509e-04
1.03000000e-01	2.30467176e-02	4.98790877e-04
1.03500000e-01	2.34759444e-02	5.07586755e-04
1.04000000e-01	2.28590084e-02	4.92143950e-04
1.04500000e-01	2.30785894e-02	4.96378830e-04
1.05000000e-01	2.32673964e-02	4.95626438e-04
1.05500000e-01	2.26590660e-02	4.85142010e-04
1.06000000e-01	2.30306030e-02	4.90768105e-04
1.06500000e-01	2.29695622e-02	4.86805813e-04
1.07000000e-01	2.30164897e-02	4.93471186e-04
1.07500000e-01	2.30907088e-02	5.04618775e-04
1.08000000e-01	2.24946509e-02	4.94910925e-04
1.08500000e-01	2.24291810e-02	5.00692379e-04
1.09000000e-01	2.27673905e-02	5.07562374e-04
1.09500000e-01	2.24986095e-02	5.07169563e-04
1.10000000e-01	2.25779822e-02	5.00753924e-04
1.10500000e-01	2.30983463e-02	5.02644549e-04
1.11000000e-01	2.28172466e-02	4.87512621e-04
1.11500000e-01	2.25237232e-02	4.77853392e-04
1.12000000e-01	2.26375553e-02	4.78587941e-04
1.12500000e-01	2.25887976e-02	4.74854971e-04
1.13000000e-01	2.28984946e-02	4.79862711e-04
1.13500000e-01	2.26616783e-02	4.73947056e-04
1.14000000e-01	2.22314513e-02	4.61230840e-04
1.14500000e-01	2.28859526e-02	4.70466855e-04
1.15000000e-01	2.28514870e-02	4.68234326e-04
1.15500000e-01	2.26056244e-02	4.65805604e-04
1.16000000e-01	2.20801017e-02	4.54558482e-04
1.16500000e-01	2.27167606e-02	4.65679162e-04
1.17000000e-01	2.27253562e-02	4.65333757e-04
1.17500000e-01	2.26090264e-02	4.62473452e-04
1.18000000e-01	2.19529833e-02	4.46170672e-04
1.18500000e-01	2.22526790e-02	4.50056306e-04
1.19000000e-01	2.20576606e-02	4.47652523e-04
1.19500000e-01	2.21289697e-02	4.47857084e-04
1.20000000e-01	2.23087859e-02	4.51920199e-04
1.20500000e-01	2.23735604e-02	4.50528310e-04
1.21000000e-01	2.21000933e-02	4.41373809e-04
1.21500000e-01	2.21287636e-02	4.42771825e-04
1.22000000e-01	2.21181380e-02	4.42020376e-04
1.22500000e-01	2.23774627e-02	4.44782340e-04
1.23000000e-01	2.21987702e-02	4.41751460e-04
1.23500000e-01	2.23033532e-02	4.44363645e-04
1.24000000e-01	2.22886600e-02	4.41673589e-04
1.24500000e-01	2.20532514e-02	4.34926702e-04
1.25000000e-01	2.26194291e-02	4.43822793e-04
1.25500000e-01	2.25240877e-02	4.41417663e-04
1.26000000e-01	2.23722669e-02	4.39814343e-04
1.26500000e-01	2.26373057e-02	4.41801104e-04
1.27000000e-01	2.24934399e-02	4.39964321e-04
1.27500000e-01	2.24500540e-02	4.37448526e-04
1.28000000e-01	2.27513271e-02	4.43057549e-04
1.28500000e-01	2.21982581e-02	4.32479258e-04
1.29000000e-01	2.23402951e-02	4.32441516e-04
1.29500000e-01	2.24677235e-02	4.35036813e-04
1.30000000e-01	2.23453648e-02	4.32208912e-04
1.30500000e-01	2.22555332e-02	4.29215421e-04
1.31000000e-01	2.22251086e-02	4.26099190e-04
1.31500000e-01	2.24938766e-02	4.29999451e-04
1.32000000e-01	2.24812031e-02	4.30517524e-04
1.32500000e-01	2.20528434e-02	4.21536514e-04
1.33000000e-01	2.26124527e-02	4.30117471e-04
1.33500000e-01	2.18737898e-02	4.16158591e-04
1.34000000e-01	2.24208102e-02	4.26003876e-04
1.34500000e-01	2.23187092e-02	4.19608009e-04
1.35000000e-01	2.22723876e-02	4.20833860e-04
1.35500000e-01	2.19004095e-02	4.13803175e-04
1.36000000e-01	2.20139548e-02	4.13539661e-04
1.36500000e-01	2.19970472e-02	4.12836929e-04
1.37000000e-01	2.18988292e-02	4.09152913e-04
1.37500000e-01	2.22351575e-02	4.16469498e-04
1.38000000e-01	2.21572494e-02	4.13870938e-04
1.38500000e-01	2.14378855e-02	4.01328192e-04
1.39000000e-01	2.20109278e-02	4.11605664e-04
1.39500000e-01	2.17852714e-02	4.05715427e-04
1.40000000e-01	2.16047231e-02	4.02797711e-04
1.40500000e-01	2.14897237e-02	3.99964282e-04
1.41000000e-01	2.16803844e-02	4.02343253e-04
1.41500000e-01	2.11202656e-02	3.94181546e-04
1.42000000e-01	2.15198330e-02	3.96955855e-04
1.42500000e-01	2.13645773e-02	3.97799467e-04
1.43000000e-01	2.12894446e-02	3.92560173e-04
1.43500000e-01	2.09452235e-02	3.86644989e-04
1.44000000e-01	2.11893168e-02	3.91339060e-04
1.44500000e-01	2.11300935e-02	3.87798520e-04
1.45000000e-01	2.11600728e-02	3.88418422e-04
1.45500000e-01	2.08919451e-02	3.84100786e-04
1.46000000e-01	2.10304157e-02	3.83798525e-04
1.46500000e-01	2.13370689e-02	3.90846627e-04
1.47000000e-01	2.07368252e-02	3.79091031e-04
1.47500000e-01	2.11688027e-02	3.85165368e-04
1.48000000e-01	2.10639322e-02	3.83405595e-04
1.48500000e-01	2.07236259e-02	3.77530867e-04
1.49000000e-01	2.10168681e-02	3.79085432e-04
1.49500000e-01	2.08785511e-02	3.77445897e-04
1.50000000e-01	2.09063236e-02	3.78560875e-04
1.50500000e-01	2.10005133e-02	3.80550441e-04
1.51000000e-01	2.08100736e-02	3.75430845e-04
1.51500000e-01	2.07472381e-02	3.74334397e-04
1.52000000e-01	2.08834297e-02	3.72444217e-04
1.52500000e-01	2.08550351e-02	3.74696583e-04
1.53000000e-01	2.06358068e-02	3.69996936e-04
1.53500000e-01	2.09126650e-02	3.71983856e-04
1.54000000e-01	2.07025190e-02	3.68509716e-04
1.54500000e-01	2.05552434e-02	3.72447427e-04
1.55000000e-01	2.04609184e-02	3.77192725e-04
1.55500000e-01	2.05255913e-02	3.79475248e-04
1.56000000e-01	2.03318013e-02	3.77805511e-04
1.56500000e-01	2.06615837e-02	3.85323424e-04
1.57000000e-01	2.05957156e-02	3.83689543e-04
1.57500000e-01	2.05795922e-02	3.77772286e-04
1.58000000e-01	2.06627177e-02	3.72736567e-04
1.58500000e-01	2.02622042e-02	3.64485156e-04
1.59000000e-01	2.05057510e-02	3.66793389e-04
1.59500000e-01	2.03947458e-02	3.63491512e-04
1.60000000e-01	2.04077109e-02	3.65166707e-04
1.60500000e-01	2.06642355e-02	3.65103387e-04
1.61000000e-01	2.02472668e-02	3.59933527e-04
1.61500000e-01	2.04361585e-02	3.60352826e-04
1.62000000e-01	2.03454948e-02	3.58087461e-04
1.62500000e-01	2.03326902e-02	3.58587900e-04
1.63000000e-01	2.02286133e-02	3.54368685e-04
1.63500000e-01	2.04131981e-02	3.59122060e-04
1.64000000e-01	2.03773597e-02	3.54330143e-04
1.64500000e-01	2.03014412e-02	3.55059566e-04
1.65000000e-01	2.04172588e-02	3.55841759e-04
1.65500000e-01	2.02549086e-02	3.50638622e-04
1.66000000e-01	2.03719050e-02	3.53948118e-04
1.66500000e-01	2.02747548e-02	3.50131354e-04
1.67000000e-01	2.01693974e-02	3.50779334e-04
1.67500000e-01	1.99789782e-02	3.46908538e-04
1.68000000e-01	2.04998408e-02	3.52786801e-04
1.68500000e-01	1.99007814e-02	3.42777442e-04
1.69000000e-01	2.01934565e-02	3.47801810e-04
1.69500000e-01	2.00598187e-02	3.45700610e-04
1.70000000e-01	2.02440222e-02	3.47664258e-04
1.70500000e-01	2.00292760e-02	3.43220739e-04
1.71000000e-01	2.00843555e-02	3.43768388e-04
1.71500000e-01	2.01993375e-02	3.46183755e-04
1.72000000e-01	2.03524723e-02	3.45443490e-04
1.72500000e-01	2.03072356e-02	3.46034082e-04
1.73000000e-01	2.03635087e-02	3.46201845e-04
1.73500000e-01	2.00301468e-02	3.39084635e-04
1.74000000e-01	1.99305657e-02	3.36936349e-04
1.74500000e-01	2.02025612e-02	3.39748753e-04
1.75000000e-01	2.02858824e-02	3.39254453e-04
1.75500000e-01	2.02972801e-02	3.38847713e-04
1.76000000e-01	1.98734416e-02	3.34149945e-04
1.76500000e-01	1.96573242e-02	3.31350196e-04
1.77000000e-01	1.96720731e-02	3.29587038e-04
1.77500000e-01	2.00369599e-02	3.35482034e-04
1.78000000e-01	1.97747414e-02	3.29800648e-04
1.78500000e-01	2.01386597e-02	3.34784386e-04
1.79000000e-01	1.98366756e-02	3.31023700e-04
1.79500000e-01	1.98900783e-02	3.32078735e-04
1.80000000e-01	1.99023537e-02	3.33092889e-04
1.80500000e-01	1.97684746e-02	3.30550487e-04
1.81000000e-01	1.98145334e-02	3.29873522e-04
1.81500000e-01	1.99447324e-02	3.30595538e-04
1.82000000e-01	1.99711744e-02	3.31893537e-04
1.82500000e-01	2.00796636e-02	3.32065424e-04
1.83000000e-01	1.98356144e-02	3.27864385e-04
1.83500000e-01	1.97919019e-02	3.25952866e-04
1.84000000e-01	1.96393085e-02	3.24653082e-04
1.84500000e-01	1.97058695e-02	3.25093781e-04
1.85000000e-01	1.95450512e-02	3.23633959e-04
1.85500000e-01	1.98055616e-02	3.26179033e-04
1.86000000e-01	1.96058863e-02	3.21646216e-04
1.86500000e-01	1.96810434e-02	3.23498026e-04
1.87000000e-01	1.96647787e-02	3.22492977e-04
1.87500000e-01	1.96697167e-02	3.20420848e-04
1.88000000e-01	1.95983862e-02	3.21143928e-04
1.88500000e-01	1.97140109e-02	3.20712341e-04
1.89000000e-01	1.97212498e-02	3.20736131e-04
1.89500000e-01	1.96906592e-02	3.20050942e-04
1.90000000e-01	1.96322978e-02	3.18495190e-04
1.90500000e-01	1.96189042e-02	3.18069569e-04
1.91000000e-01	1.95707913e-02	3.16749862e-04
1.91500000e-01	1.92354668e-02	3.13862614e-04
1.92000000e-01	1.94051096e-02	3.13604763e-04
1.92500000e-01	1.97557918e-02	3.18313316e-04
1.93000000e-01	1.96831630e-02	3.18098067e-04
1.93500000e-01	1.97470542e-02	3.17406648e-04
1.94000000e-01	1.94154569e-02	3.12472714e-04
1.94500000e-01	1.93710961e-02	3.11468040e-04
1.95000000e-01	1.93430477e-02	3.11415923e-04
1.95500000e-01	1.95781764e-02	3.12777926e-04
1.96000000e-01	1.95583381e-02	3.12207998e-04
1.96500000e-01	1.94984063e-02	3.12393566e-04
1.97000000e-01	1.94099574e-02	3.09090091e-04
1.97500000e-01	1.94756688e-02	3.10121810e-04
1.98000000e-01	1.96485178e-02	3.13483827e-04
1.98500000e-01	1.92319271e-02	3.05453989e-04
1.99000000e-01	1.90500253e-02	3.03249459e-04
1.99500000e-01	1.92491793e-02	3.05313416e-04
2.00000000e-01	1.93841604e-02	3.08258238e-04
2.00500000e-01	1.91456967e-02	3.05470561e-04
2.01000000e-01	1.94451434e-02	3.07468543e-04
2.01500000e-01	1.93813731e-02	3.06819543e-04
2.02000000e-01	1.91958467e-02	3.02477478e-04
2.02500000e-01	1.93316316e-02	3.04087241e-04
2.03000000e-01	1.91808121e-02	3.02246788e-04
2.03500000e-01	1.92127121e-02	3.01798084e-04
2.04000000e-01	1.91623508e-02	3.02078215e-04
2.04500000e-01	1.91100825e-02	3.01148442e-04
2.05000000e-01	1.90521167e-02	2.97147142e-04
2.05500000e-01	1.92566190e-02	3.00993358e-04
2.06000000e-01	1.92298836e-02	2.99450518e-04
2.06500000e-01	1.93004518e-02	3.01299947e-04
2.07000000e-01	1.93579883e-02	3.00876207e-04
2.07500000e-01	1.92770785e-02	3.00721270e-04
2.08000000e-01	1.92551897e-02	3.00077952e-04
2.08500000e-01	1.89007114e-02	2.92905000e-04
2.09000000e-01	1.91201856e-02	2.96788057e-04
2.09500000e-01	1.93385974e-02	3.00146415e-04
2.10000000e-01	1.92947250e-02	2.99926763e-04
2.10500000e-01	1.91900833e-02	2.97600179e-04
2.11000000e-01	1.91430896e-02	2.95676743e-04
2.11500000e-01	1.90877979e-02	2.95114786e-04
2.12000000e-01	1.89110018e-02	2.91614503e-04
2.12500000e-01	1.89691653e-02	2.93484670e-04
2.13000000e-01	1.90240731e-02	2.92703236e-04
2.13500000e-01	1.89091009e-02	2.90218961e-04
2.14000000e-01	1.87082025e-02	2.88842185e-04
2.14500000e-01	1.91320543e-02	2.92153260e-04
2.15000000e-01	1.90514816e-02	2.93292592e-04
2.15500000e-01	1.90188435e-02	2.90696433e-04
2.16000000e-01	1.88769430e-02	2.88719233e-04
2.16500000e-01	1.90440188e-02	2.90126851e-04
2.17000000e-01	1.88670683e-02	2.92310911e-04
2.17500000e-01	1.91651363e-02	3.00762541e-04
2.18000000e-01	1.92552642e-02	3.03545082e-04
2.18500000e-01	1.89030803e-02	3.01310751e-04
2.19000000e-01	1.89005099e-02	3.01388992e-04
2.19500000e-01	1.89690056e-02	3.03210231e-04
2.20000000e-01	1.88223154e-02	3.03340062e-04
2.20500000e-01	1.87981299e-02	3.03121274e-04
2.21000000e-01	1.87848307e-02	3.03095697e-04
2.21500000e-01	1.90054425e-02	3.08178275e-04
2.22000000e-01	1.89757280e-02	3.07675032e-04
2.22500000e-01	1.88814838e-02	3.07119457e-04
2.23000000e-01	1.88578795e-02	3.07665773e-04
2.23500000e-01	1.89718811e-02	3.09655272e-04
2.24000000e-01	1.89079788e-02	3.09893420e-04
2.24500000e-01	1.87810690e-02	3.09205774e-04
2.25000000e-01	1.88104630e-02	3.08826462e-04
2.25500000e-01	1.87733728e-02	3.09711943e-04
2.26000000e-01	1.88964134e-02	3.11836328e-04
2.26500000e-01	1.87930980e-02	3.04746611e-04
2.27000000e-01	1.88414956e-02	3.02951970e-04
2.27500000e-01	1.90374286e-02	3.05228386e-04
2.28000000e-01	1.86848997e-02	2.97258297e-04
2.28500000e-01	1.89986553e-02	3.00823221e-04
2.29000000e-01	1.89792149e-02	2.98633526e-04
2.29500000e-01	1.86117226e-02	2.91953603e-04
2.30000000e-01	1.87077412e-02	2.93339373e-04
2.30500000e-01	1.87525040e-02	2.91665601e-04
2.31000000e-01	1.88584210e-02	2.94245651e-04
2.31500000e-01	1.84629111e-02	2.87788176e-04
2.32000000e-01	1.86523605e-02	2.89732725e-04
2.32500000e-01	1.85550618e-02	2.87925991e-04
2.33000000e-01	1.85984497e-02	2.86680963e-04
2.33500000e-01	1.86798021e-02	2.87530749e-04
2.34000000e-01	1.87680797e-02	2.87764358e-04
2.34500000e-01	1.88825581e-02	2.89759452e-04
2.35000000e-01	1.87352084e-02	2.86325708e-04
2.35500000e-01	1.86078564e-02	2.83344672e-04
2.36000000e-01	1.86545780e-02	2.85502119e-04
2.36500000e-01	1.86064622e-02	2.83868528e-04
2.37000000e-01	1.86119030e-02	2.82329658e-04
2.37500000e-01	1.86870051e-02	2.83630186e-04
2.38000000e-01	1.85969459e-02	2.81250263e-04
2.38500000e-01	1.87050974e-02	2.82204733e-04
2.39000000e-01	1.83668818e-02	2.76949470e-04
2.39500000e-01	1.84456278e-02	2.77636867e-04
2.40000000e-01	1.84935183e-02	2.77710008e-04
2.40500000e-01	1.87156791e-02	2.80736111e-04
2.41000000e-01	1.85489091e-02	2.77299756e-04
2.41500000e-01	1.84122122e-02	2.74598005e-04
2.42000000e-01	1.83279531e-02	2.74302227e-04
2.42500000e-01	1.86116254e-02	2.77893104e-04
2.43000000e-01	1.85700688e-02	2.76686247e-04
2.43500000e-01	1.83771575e-02	2.74041589e-04
2.44000000e-01	1.84917064e-02	2.73464322e-04
2.44500000e-01	1.82892844e-02	2.72205738e-04
2.45000000e-01	1.81610739e-02	2.69313566e-04
2.45500000e-01	1.84288923e-02	2.73168202e-04
2.46000000e-01	1.83812380e-02	2.71955797e-04
2.46500000e-01	1.83368749e-02	2.71592479e-04
2.47000000e-01	1.83636395e-02	2.71662084e-04
2.47500000e-01	1.85634028e-02	2.72113148e-04
2.48000000e-01	1.84623348e-02	2.70460122e-04
2.48500000e-01	1.84395369e-02	2.69837452e-04
2.49000000e-01	1.85603005e-02	2.72027284e-04
2.49500000e-01	1.84739342e-02	2.70287473e-04
2.50000000e-01	1.80882369e-02	2.65374324e-04
2.50500000e-01	1.84459247e-02	2.69948025e-04
2.51000000e-01	1.81923966e-02	2.65613903e-04
2.51500000e-01	1.85020753e-02	2.70129434e-04
2.52000000e-01	1.84467937e-02	2.69028566e-04
2.52500000e-01	1.81950591e-02	2.65077346e-04
2.53000000e-01	1.83034076e-02	2.66394757e-04
2.53500000e-01	1.83768650e-02	2.67045173e-04
2.54000000e-01	1.83837487e-02	2.67259320e-04
2.54500000e-01	1.82812340e-02	2.65522796e-04
2.55000000e-01	1.83463544e-02	2.66412726e-04
2.55500000e-01	1.82628479e-02	2.64931658e-04
2.56000000e-01	1.85358545e-02	2.67481446e-04
2.56500000e-01	1.84986348e-02	2.67104064e-04
2.57000000e-01	1.83412731e-02	2.64241816e-04
2.57500000e-01	1.83865296e-02	2.63529208e-04
2.58000000e-01	1.82463793e-02	2.62068436e-04
2.58500000e-01	1.84441167e-02	2.64305655e-04
2.59000000e-01	1.82003807e-02	2.61393602e-04
2.59500000e-01	1.83639318e-02	2.62294095e-04
2.60000000e-01	1.82400164e-02	2.60845800e-04
2.60500000e-01	1.85076058e-02	2.64407572e-04
2.61000000e-01	1.82073810e-02	2.60737669e-04
2.61500000e-01	1.82441761e-02	2.61332343e-04
2.62000000e-01	1.83201169e-02	2.61241585e-04
2.62500000e-01	1.80984623e-02	2.58193592e-04
2.63000000e-01	1.81325747e-02	2.57914121e-04
2.63500000e-01	1.81837820e-02	2.58076220e-04
2.64000000e-01	1.80559122e-02	2.56990327e-04
2.64500000e-01	1.81380652e-02	2.56606450e-04
2.65000000e-01	1.80149046e-02	2.55916153e-04
2.65500000e-01	1.80322431e-02	2.54867859e-04
2.66000000e-01	1.78948279e-02	2.52288255e-04
2.66500000e-01	1.79377390e-02	2.52930168e-04
2.67000000e-01	1.82241048e-02	2.56533950e-04
2.67500000e-01	1.82456871e-02	2.56097902e-04
2.68000000e-01	1.80891118e-02	2.54191926e-04
2.68500000e-01	1.79754260e-02	2.52417508e-04
2.69000000e-01	1.81944084e-02	2.54761399e-04
2.69500000e-01	1.80315021e-02	2.52915858e-04
2.70000000e-01	1.81848767e-02	2.54166104e-04
2.70500000e-01	1.79703872e-02	2.52143119e-04
2.71000000e-01	1.81327060e-02	2.52572894e-04
2.71500000e-01	1.80064633e-02	2.51012866e-04
2.72000000e-01	1.79852244e-02	2.51628381e-04
2.72500000e-01	1.79709029e-02	2.50867437e-04
2.73000000e-01	1.78901036e-02	2.49825469e-04
2.73500000e-01	1.77576199e-02	2.47609052e-04
2.74000000e-01	1.79514592e-02	2.49886033e-04
2.74500000e-01	1.80126100e-02	2.49107327e-04
2.75000000e-01	1.79719551e-02	2.49968103e-04
2.75500000e-01	1.79832599e-02	2.49594535e-04
2.76000000e-01	1.79643146e-02	2.49314705e-04
2.76500000e-01	1.81824739e-02	2.51687079e-04
2.77000000e-01	1.78929143e-02	2.47809002e-04
2.77500000e-01	1.78471762e-02	2.46965407e-04
2.78000000e-01	1.81069742e-02	2.50110241e-04
2.78500000e-01	1.80823969e-02	2.49403163e-04
2.79000000e-01	1.78561190e-02	2.46108681e-04
2.79500000e-01	1.80758808e-02	2.49154371e-04
2.80000000e-01	1.80291155e-02	2.48023304e-04
2.80500000e-01	1.79570519e-02	2.46551033e-04
2.81000000e-01	1.78110335e-02	2.45208857e-04
2.81500000e-01	1.80133239e-02	2.46904387e-04
2.82000000e-01	1.78532387e-02	2.45869870e-04
2.82500000e-01	1.78183056e-02	2.44174424e-04
2.83000000e-01	1.77475617e-02	2.42484424e-04
2.83500000e-01	1.78915795e-02	2.44644694e-04
2.84000000e-01	1.77833482e-02	2.43928364e-04
2.84500000e-01	1.77730164e-02	2.43150984e-04
2.85000000e-01	1.77595789e-02	2.42529704e-04
2.85500000e-01	1.78803245e-02	2.43773863e-04
2.86000000e-01	1.78080524e-02	2.43510475e-04
2.86500000e-01	1.76109228e-02	2.40210729e-04
2.87000000e-01	1.76264964e-02	2.40407161e-04
2.87500000e-01	1.74811701e-02	2.37503767e-04
2.88000000e-01	1.76864391e-02	2.39179410e-04
2.88500000e-01	1.75287102e-02	2.38581360e-04
2.89000000e-01	1.76149151e-02	2.38789996e-04
2.89500000e-01	1.76719976e-02	2.39346808e-04
2.90000000e-01	1.76288934e-02	2.38407276e-04
2.90500000e-01	1.77428075e-02	2.39336791e-04
2.91000000e-01	1.76539954e-02	2.38594278e-04
2.91500000e-01	1.76178574e-02	2.36941635e-04
2.92000000e-01	1.77656458e-02	2.39278673e-04
2.92500000e-01	1.77661456e-02	2.39295053e-04
2.93000000e-01	1.75806687e-02	2.36128823e-04
2.93500000e-01	1.75137090e-02	2.36053712e-04
2.94000000e-01	1.76428898e-02	2.36411948e-04
2.94500000e-01	1.75225134e-02	2.35836376e-04
2.95000000e-01	1.77580895e-02	2.37339238e-04
2.95500000e-01	1.75453449e-02	2.35198542e-04
2.96000000e-01	1.74322207e-02	2.33281419e-04
2.96500000e-01	1.74252950e-02	2.33222876e-04
2.97000000e-01	1.76593826e-02	2.35866747e-04
2.97500000e-01	1.74484064e-02	2.32328063e-04
2.98000000e-01	1.75352423e-02	2.33971444e-04
2.98500000e-01	1.74645525e-02	2.33306867e-04
2.99000000e-01	1.74947783e-02	2.33288497e-04
2.99500000e-01	1.76829651e-02	2.35369841e-04
3.00000000e-01	1.75224242e-02	2.32901170e-04
3.00500000e-01	1.74501648e-02	2.31849577e-04
3.01000000e-01	1.72199089e-02	2.28836845e-04
3.01500000e-01	1.75545897e-02	2.32315424e-04
3.02000000e-01	1.75173555e-02	2.32078286e-04
3.02500000e-01	1.72606004e-02	2.28389468e-04
3.03000000e-01	1.73569370e-02	2.29751068e-04
3.03500000e-01	1.73523072e-02	2.29167688e-04
3.04000000e-01	1.73451723e-02	2.29350185e-04
3.04500000e-01	1.74239040e-02	2.29666111e-04
3.05000000e-01	1.73645061e-02	2.28845609e-04
3.05500000e-01	1.74483632e-02	2.30107709e-04
3.06000000e-01	1.74645235e-02	2.28509423e-04
3.06500000e-01	1.74060733e-02	2.29330717e-04
3.07000000e-01	1.74175448e-02	2.28287739e-04
3.07500000e-01	1.73444983e-02	2.28140758e-04
3.08000000e-01	1.72766594e-02	2.26721526e-04
3.08500000e-01	1.74290220e-02	2.28134918e-04
3.09000000e-01	1.72825105e-02	2.26303119e-04
3.09500000e-01	1.71850347e-02	2.24935427e-04
3.10000000e-01	1.74934463e-02	2.28650932e-04
3.10500000e-01	1.73722300e-02	2.26676346e-04
3.11000000e-01	1.73336603e-02	2.25920786e-04
3.11500000e-01	1.73656610e-02	2.26495566e-04
3.12000000e-01	1.72361936e-02	2.24121013e-04
3.12500000e-01	1.72529823e-02	2.25323362e-04
3.13000000e-01	1.72493596e-02	2.24757855e-04
3.13500000e-01	1.71340057e-02	2.23690095e-04
3.14000000e-01	1.71874103e-02	2.23835050e-04
3.14500000e-01	1.72628796e-02	2.24120548e-04
3.15000000e-01	1.75657719e-02	2.28341148e-04
3.15500000e-01	1.73576365e-02	2.24620299e-04
3.16000000e-01	1.71373289e-02	2.21908307e-04
3.16500000e-01	1.72293994e-02	2.23095945e-04
3.17000000e-01	1.72063926e-02	2.23210094e-04
3.17500000e-01	1.72539258e-02	2.23314274e-04
3.18000000e-01	1.71346109e-02	2.21545063e-04
3.18500000e-01	1.69462798e-02	2.19032081e-04
3.19000000e-01	1.71359372e-02	2.21114131e-04
3.19500000e-01	1.69922299e-02	2.19382068e-04
3.20000000e-01	1.70729090e-02	2.20222501e-04
3.20500000e-01	1.72313867e-02	2.21735856e-04
3.21000000e-01	1.70422155e-02	2.20132013e-04
3.21500000e-01	1.70242674e-02	2.18387210e-04
3.22000000e-01	1.70580460e-02	2.18861002e-04
3.22500000e-01	1.69461952e-02	2.18255894e-04
3.23000000e-01	1.69521906e-02	2.17771337e-04
3.23500000e-01	1.69253120e-02	2.17785909e-04
3.24000000e-01	1.70401375e-02	2.17852593e-04
3.24500000e-01	1.68190111e-02	2.15540270e-04
3.25000000e-01	1.71055722e-02	2.18375641e-04
3.25500000e-01	1.70188756e-02	2.18039551e-04
3.26000000e-01	1.70903067e-02	2.17870038e-04
3.26500000e-01	1.70148227e-02	2.16587139e-04
3.27000000e-01	1.68067350e-02	2.13974775e-04
3.27500000e-01	1.68206238e-02	2.14256780e-04
3.28000000e-01	1.68920003e-02	2.15446682e-04
3.28500000e-01	1.69278636e-02	2.15460849e-04
3.29000000e-01	1.68433038e-02	2.13895666e-04
3.29500000e-01	1.67994167e-02	2.14578236e-04
3.30000000e-01	1.70720620e-02	2.16465935e-04
3.30500000e-01	1.70107380e-02	2.16349874e-04
3.31000000e-01	1.67622299e-02	2.12467679e-04
3.31500000e-01	1.70518731e-02	2.15744483e-04
3.32000000e-01	1.70255830e-02	2.16472434e-04
3.32500000e-01	1.68261075e-02	2.13151240e-04
3.33000000e-01	1.68530644e-02	2.13876587e-04
3.33500000e-01	1.68452967e-02	2.12754228e-04
3.34000000e-01	1.67855852e-02	2.11440360e-04
3.34500000e-01	1.69515894e-02	2.14390249e-04
3.35000000e-01	1.68994958e-02	2.12666918e-04
3.35500000e-01	1.67090066e-02	2.10908054e-04
3.36000000e-01	1.66422270e-02	2.09692225e-04
3.36500000e-01	1.68690726e-02	2.12000300e-04
3.37000000e-01	1.67012046e-02	2.10274994e-04
3.37500000e-01	1.68564629e-02	2.12464338e-04
3.38000000e-01	1.67400603e-02	2.10150544e-04
3.38500000e-01	1.65679260e-02	2.07879104e-04
3.39000000e-01	1.66954488e-02	2.09687842e-04
3.39500000e-01	1.67878834e-02	2.09954668e-04
3.40000000e-01	1.68947098e-02	2.11706825e-04
3.40500000e-01	1.67196992e-02	2.08913974e-04
3.41000000e-01	1.66206735e-02	2.08106962e-04
3.41500000e-01	1.67059545e-02	2.09099229e-04
3.42000000e-01	1.67053608e-02	2.08808036e-04
3.42500000e-01	1.67559512e-02	2.08663179e-04
3.43000000e-01	1.68287013e-02	2.09183758e-04
3.43500000e-01	1.66585325e-02	2.07367737e-04
3.44000000e-01	1.67345334e-02	2.08272277e-04
3.44500000e-01	1.65105656e-02	2.06244257e-04
3.45000000e-01	1.66332129e-02	2.06737864e-04
3.45500000e-01	1.64654352e-02	2.04938321e-04
3.46000000e-01	1.66438686e-02	2.07074929e-04
3.46500000e-01	1.65887787e-02	2.05660325e-04
3.47000000e-01	1.65173396e-02	2.05018623e-04
3.47500000e-01	1.66267049e-02	2.05972288e-04
3.48000000e-01	1.65256744e-02	2.04577171e-04
3.48500000e-01	1.65783616e-02	2.05332841e-04
3.49000000e-01	1.65929695e-02	2.05425242e-04
3.49500000e-01	1.66196292e-02	2.06067324e-04
3.50000000e-01	1.65576526e-02	1.66751749e-04
3.51000000e-01	1.66550325e-02	1.45123569e-04
3.52000000e-01	1.63936825e-02	1.42836890e-04
3.53000000e-01	1.65692250e-02	1.43516610e-04
3.54000000e-01	1.64828855e-02	1.43137871e-04
3.55000000e-01	1.65505851e-02	1.43572451e-04
3.56000000e-01	1.65405501e-02	1.44127454e-04
3.57000000e-01	1.65285464e-02	1.46154051e-04
3.58000000e-01	1.63067945e-02	1.45936635e-04
3.59000000e-01	1.63294771e-02	1.46686607e-04
3.60000000e-01	1.62480541e-02	1.47462940e-04
3.61000000e-01	1.62607158e-02	1.47982390e-04
3.62000000e-01	1.62822197e-02	1.48858206e-04
3.63000000e-01	1.63747829e-02	1.50367340e-04
3.64000000e-01	1.62641652e-02	1.50173098e-04
3.65000000e-01	1.63179023e-02	1.50693011e-04
3.66000000e-01	1.62334631e-02	1.48497957e-04
3.67000000e-01	1.62996192e-02	1.46638656e-04
3.68000000e-01	1.61862761e-02	1.44895649e-04
3.69000000e-01	1.61226929e-02	1.43669284e-04
3.70000000e-01	1.61066642e-02	1.42500311e-04
3.71000000e-01	1.62187308e-02	1.45562921e-04
3.72000000e-01	1.63318402e-02	1.47187437e-04
3.73000000e-01	1.61175505e-02	1.46095855e-04
3.74000000e-01	1.61994644e-02	1.47110475e-04
3.75000000e-01	1.59794489e-02	1.45149630e-04
3.76000000e-01	1.61432066e-02	1.46319604e-04
3.77000000e-01	1.61138607e-02	1.46243821e-04
3.78000000e-01	1.61598211e-02	1.46601712e-04
3.79000000e-01	1.60939781e-02	1.46104067e-04
3.80000000e-01	1.61262887e-02	1.45829360e-04
3.81000000e-01	1.60869707e-02	1.45634858e-04
3.82000000e-01	1.60438040e-02	1.45187737e-04
3.83000000e-01	1.60859417e-02	1.45044309e-04
3.84000000e-01	1.59045807e-02	1.44033961e-04
3.85000000e-01	1.59841219e-02	1.44446834e-04
3.86000000e-01	1.59338379e-02	1.44436248e-04
3.87000000e-01	1.59665492e-02	1.44645364e-04
3.88000000e-01	1.59580508e-02	1.43905140e-04
3.89000000e-01	1.59948934e-02	1.44498654e-04
3.90000000e-01	1.58883555e-02	1.43222030e-04
3.91000000e-01	1.60066120e-02	1.44318363e-04
3.92000000e-01	1.59461508e-02	1.44020392e-04
3.93000000e-01	1.57939618e-02	1.42390653e-04
3.94000000e-01	1.58198147e-02	1.42796667e-04
3.95000000e-01	1.59438244e-02	1.43665693e-04
3.96000000e-01	1.58202429e-02	1.42331770e-04
3.97000000e-01	1.57684426e-02	1.42628143e-04
3.98000000e-01	1.57579251e-02	1.42268032e-04
3.99000000e-01	1.57419881e-02	1.42113636e-04
4.00000000e-01	1.57730512e-02	1.42203088e-04
4.01000000e-01	1.57406253e-02	1.41876555e-04
4.02000000e-01	1.56957580e-02	1.41260731e-04
4.03000000e-01	1.57326158e-02	1.41586977e-04
4.04000000e-01	1.58323336e-02	1.42566947e-04
4.05000000e-01	1.57387365e-02	1.41682545e-04
4.06000000e-01	1.57884445e-02	1.42430623e-04
4.07000000e-01	1.56627280e-02	1.41130270e-04
4.08000000e-01	1.57549328e-02	1.41612561e-04
4.09000000e-01	1.55856763e-02	1.40397767e-04
4.10000000e-01	1.56573528e-02	1.40948468e-04
4.11000000e-01	1.55875425e-02	1.40325196e-04
4.12000000e-01	1.56756424e-02	1.40766011e-04
4.13000000e-01	1.54895117e-02	1.39642940e-04
4.14000000e-01	1.56884405e-02	1.40936630e-04
4.15000000e-01	1.55056941e-02	1.39303204e-04
4.16000000e-01	1.55167769e-02	1.39709953e-04
4.17000000e-01	1.56156350e-02	1.40050034e-04
4.18000000e-01	1.55590542e-02	1.41189940e-04
4.19000000e-01	1.55569385e-02	1.43225325e-04
4.20000000e-01	1.56132166e-02	1.44570358e-04
4.21000000e-01	1.56225366e-02	1.44843743e-04
4.22000000e-01	1.56178745e-02	1.44758357e-04
4.23000000e-01	1.55837872e-02	1.45382164e-04
4.24000000e-01	1.56719864e-02	1.46573233e-04
4.25000000e-01	1.56532344e-02	1.46619447e-04
4.26000000e-01	1.56474170e-02	1.46723810e-04
4.27000000e-01	1.56847075e-02	1.47188675e-04
4.28000000e-01	1.55762129e-02	1.46379143e-04
4.29000000e-01	1.56104263e-02	1.47005557e-04
4.30000000e-01	1.56664917e-02	1.47057546e-04
4.31000000e-01	1.56138389e-02	1.46367256e-04
4.32000000e-01	1.56404807e-02	1.47021920e-04
4.33000000e-01	1.55799050e-02	1.46704923e-04
4.34000000e-01	1.54808897e-02	1.45916881e-04
4.35000000e-01	1.55254181e-02	1.46333249e-04
4.36000000e-01	1.55391146e-02	1.46952301e-04
4.37000000e-01	1.54287555e-02	1.45808942e-04
4.38000000e-01	1.54378464e-02	1.46659462e-04
4.39000000e-01	1.54440503e-02	1.46338938e-04
4.40000000e-01	1.54107955e-02	1.46424191e-04
4.41000000e-01	1.53748679e-02	1.45885617e-04
4.42000000e-01	1.53113819e-02	1.46027992e-04
4.43000000e-01	1.55141881e-02	1.47728936e-04
4.44000000e-01	1.54393190e-02	1.47108475e-04
4.45000000e-01	1.53520413e-02	1.46537146e-04
4.46000000e-01	1.53126094e-02	1.46684615e-04
4.47000000e-01	1.54083555e-02	1.46971340e-04
4.48000000e-01	1.53023626e-02	1.46828710e-04
4.49000000e-01	1.53975907e-02	1.48064017e-04
4.50000000e-01	1.53230171e-02	1.47597127e-04
4.51000000e-01	1.52710166e-02	1.46743296e-04
4.52000000e-01	1.54470227e-02	1.48349623e-04
4.53000000e-01	1.53381997e-02	1.48141855e-04
4.54000000e-01	1.53845801e-02	1.48715347e-04
4.55000000e-01	1.53691556e-02	1.48165792e-04
4.56000000e-01	1.52215117e-02	1.46909743e-04
4.57000000e-01	1.53099943e-02	1.48284058e-04
4.58000000e-01	1.52306100e-02	1.47396944e-04
4.59000000e-01	1.52085813e-02	1.47065717e-04
4.60000000e-01	1.52733812e-02	1.47668873e-04
4.61000000e-01	1.53443130e-02	1.48669490e-04
4.62000000e-01	1.54151623e-02	1.49107650e-04
4.63000000e-01	1.52481002e-02	1.47683910e-04
4.64000000e-01	1.51926025e-02	1.47645833e-04
4.65000000e-01	1.53395389e-02	1.49110926e-04
4.66000000e-01	1.50700683e-02	1.46660440e-04
4.67000000e-01	1.51890368e-02	1.48273535e-04
4.68000000e-01	1.52556780e-02	1.48582676e-04
4.69000000e-01	1.52367016e-02	1.48976626e-04
4.70000000e-01	1.51825472e-02	1.48239381e-04
4.71000000e-01	1.51241610e-02	1.47667758e-04
4.72000000e-01	1.50598722e-02	1.47243832e-04
4.73000000e-01	1.51160582e-02	1.47569005e-04
4.74000000e-01	1.51358557e-02	1.47730937e-04
4.75000000e-01	1.50459147e-02	1.46998106e-04
4.76000000e-01	1.51167193e-02	1.47088711e-04
4.77000000e-01	1.51614748e-02	1.47821960e-04
4.78000000e-01	1.52437514e-02	1.48798407e-04
4.79000000e-01	1.50426770e-02	1.46927819e-04
4.80000000e-01	1.49191329e-02	1.46094961e-04
4.81000000e-01	1.50921972e-02	1.47489755e-04
4.82000000e-01	1.52034415e-02	1.48498061e-04
4.83000000e-01	1.49706148e-02	1.46630503e-04
4.84000000e-01	1.49708882e-02	1.47145872e-04
4.85000000e-01	1.50535218e-02	1.47542723e-04
4.86000000e-01	1.49449117e-02	1.46605191e-04
4.87000000e-01	1.49198679e-02	1.46328094e-04
4.88000000e-01	1.49012584e-02	1.46285534e-04
4.89000000e-01	1.49362106e-02	1.46926478e-04
4.90000000e-01	1.50215517e-02	1.47090482e-04
4.91000000e-01	1.49487996e-02	1.46735307e-04
4.92000000e-01	1.48954491e-02	1.46288078e-04
4.93000000e-01	1.50107736e-02	1.47633869e-04
4.94000000e-01	1.50037854e-02	1.47660214e-04
4.95000000e-01	1.49416784e-02	1.48251759e-04
4.96000000e-01	1.50131438e-02	1.53358851e-04
4.97000000e-01	1.49224374e-02	1.54930953e-04
4.98000000e-01	1.48722168e-02	1.56368688e-04
4.99000000e-01	1.50495472e-02	1.60226213e-04
5.00000000e-01	1.49695393e-02	1.61030760e-04
5.01000000e-01	1.47892017e-02	1.61045341e-04
5.02000000e-01	1.49031213e-02	1.64020072e-04
5.03000000e-01	1.50150971e-02	1.66601906e-04
5.04000000e-01	1.49963493e-02	1.67928994e-04
5.05000000e-01	1.50434948e-02	1.65111013e-04
5.06000000e-01	1.49568017e-02	1.61209598e-04
5.07000000e-01	1.47563035e-02	1.57268845e-04
5.08000000e-01	1.47666769e-02	1.56667331e-04
5.09000000e-01	1.49021951e-02	1.56792834e-04
5.10000000e-01	1.48913608e-02	1.56473047e-04
5.11000000e-01	1.48063280e-02	1.55205756e-04
5.12000000e-01	1.48235989e-02	1.55812482e-04
5.13000000e-01	1.47995106e-02	1.54674247e-04
5.14000000e-01	1.48419103e-02	1.55145180e-04
5.15000000e-01	1.47356474e-02	1.53275725e-04
5.16000000e-01	1.48709959e-02	1.54376569e-04
5.17000000e-01	1.48161053e-02	1.54092902e-04
5.18000000e-01	1.47992559e-02	1.53479559e-04
5.19000000e-01	1.47841798e-02	1.52489629e-04
5.20000000e-01	1.49717307e-02	1.53669708e-04
5.21000000e-01	1.47728798e-02	1.51913320e-04
5.22000000e-01	1.48270152e-02	1.52400390e-04
5.23000000e-01	1.49191022e-02	1.52787448e-04
5.24000000e-01	1.48067740e-02	1.52127164e-04
5.25000000e-01	1.47037868e-02	1.50790470e-04
5.26000000e-01	1.46446955e-02	1.50281031e-04
5.27000000e-01	1.48553563e-02	1.52163151e-04
5.28000000e-01	1.47473952e-02	1.51782335e-04
5.29000000e-01	1.46365216e-02	1.50253397e-04
5.30000000e-01	1.46424931e-02	1.50702937e-04
5.31000000e-01	1.46560851e-02	1.50775557e-04
5.32000000e-01	1.47224084e-02	1.51512272e-04
5.33000000e-01	1.47623582e-02	1.51090017e-04
5.34000000e-01	1.45641341e-02	1.50045335e-04
5.35000000e-01	1.45984013e-02	1.49733909e-04
5.36000000e-01	1.47034997e-02	1.50749192e-04
5.37000000e-01	1.47200814e-02	1.51282273e-04
5.38000000e-01	1.46145265e-02	1.49812417e-04
5.39000000e-01	1.47139202e-02	1.50936754e-04
5.40000000e-01	1.45474155e-02	1.49318345e-04
5.41000000e-01	1.45479367e-02	1.49055222e-04
5.42000000e-01	1.45544739e-02	1.49502820e-04
5.43000000e-01	1.44166850e-02	1.48304358e-04
5.44000000e-01	1.43909970e-02	1.48161936e-04
5.45000000e-01	1.44663495e-02	1.48388108e-04
5.46000000e-01	1.46018802e-02	1.49683840e-04
5.47000000e-01	1.45260034e-02	1.49300193e-04
5.48000000e-01	1.45863177e-02	1.49696613e-04
5.49000000e-01	1.46819846e-02	1.50549278e-04
5.50000000e-01	1.45306962e-02	1.48889959e-04
5.51000000e-01	1.45551266e-02	1.48954253e-04
5.52000000e-01	1.44648394e-02	1.48230289e-04
5.53000000e-01	1.44179966e-02	1.47037051e-04
5.54000000e-01	1.42967667e-02	1.46121260e-04
5.55000000e-01	1.43975384e-02	1.46690755e-04
5.56000000e-01	1.45193419e-02	1.48200831e-04
5.57000000e-01	1.45181859e-02	1.47773697e-04
5.58000000e-01	1.44166162e-02	1.47087692e-04
5.59000000e-01	1.43410992e-02	1.46422531e-04
5.60000000e-01	1.44231633e-02	1.47606043e-04
5.61000000e-01	1.43738367e-02	1.46796580e-04
5.62000000e-01	1.43654642e-02	1.46968628e-04
5.63000000e-01	1.43464560e-02	1.46987202e-04
5.64000000e-01	1.44411094e-02	1.47073030e-04
5.65000000e-01	1.44633496e-02	1.47476894e-04
5.66000000e-01	1.43180971e-02	1.46297707e-04
5.67000000e-01	1.43661702e-02	1.46855897e-04
5.68000000e-01	1.43218944e-02	1.46281412e-04
5.69000000e-01	1.42946714e-02	1.45936281e-04
5.70000000e-01	1.42121023e-02	1.45096507e-04
5.71000000e-01	1.43152657e-02	1.46313148e-04
5.72000000e-01	1.42343504e-02	1.45770669e-04
5.73000000e-01	1.42962920e-02	1.46226443e-04
5.74000000e-01	1.41590373e-02	1.44351996e-04
5.75000000e-01	1.43008399e-02	1.46282491e-04
5.76000000e-01	1.42780562e-02	1.46624181e-04
5.77000000e-01	1.40996636e-02	1.44516906e-04
5.78000000e-01	1.42865457e-02	1.46395034e-04
5.79000000e-01	1.41370970e-02	1.44730302e-04
5.80000000e-01	1.40638675e-02	1.44257588e-04
5.81000000e-01	1.41069424e-02	1.44379888e-04
5.82000000e-01	1.42450485e-02	1.45604426e-04
5.83000000e-01	1.41636496e-02	1.45613400e-04
5.84000000e-01	1.40770058e-02	1.44795637e-04
5.85000000e-01	1.43250265e-02	1.46763575e-04
5.86000000e-01	1.40843145e-02	1.44767015e-04
5.87000000e-01	1.43080401e-02	1.46407795e-04
5.88000000e-01	1.39861191e-02	1.43627595e-04
5.89000000e-01	1.40225820e-02	1.44014084e-04
5.90000000e-01	1.40100699e-02	1.43616172e-04
5.91000000e-01	1.40057711e-02	1.43976396e-04
5.92000000e-01	1.40301161e-02	1.44052939e-04
5.93000000e-01	1.41245976e-02	1.45422819e-04
5.94000000e-01	1.42029395e-02	1.46244486e-04
5.95000000e-01	1.41198970e-02	1.45343331e-04
5.96000000e-01	1.41463826e-02	1.45232670e-04
5.97000000e-01	1.40181780e-02	1.44262378e-04
5.98000000e-01	1.39269209e-02	1.43684182e-04
5.99000000e-01	1.39922622e-02	1.43923648e-04
6.00000000e-01	1.40923337e-02	1.44415305e-04
6.01000000e-01	1.40458661e-02	1.44195752e-04
6.02000000e-01	1.40469339e-02	1.44535340e-04
6.03000000e-01	1.39960697e-02	1.44238640e-04
6.04000000e-01	1.39293775e-02	1.43378797e-04
6.05000000e-01	1.40195046e-02	1.44012691e-04
6.06000000e-01	1.39237344e-02	1.43102070e-04
6.07000000e-01	1.39825223e-02	1.43964996e-04
6.08000000e-01	1.39587312e-02	1.43709738e-04
6.09000000e-01	1.38800107e-02	1.42837995e-04
6.10000000e-01	1.41078130e-02	1.44859286e-04
6.11000000e-01	1.38883178e-02	1.42985720e-04
6.12000000e-01	1.39109609e-02	1.43808046e-04
6.13000000e-01	1.40025359e-02	1.44097719e-04
6.14000000e-01	1.38975027e-02	1.42744609e-04
6.15000000e-01	1.39485530e-02	1.43205189e-04
6.16000000e-01	1.38314762e-02	1.42831387e-04
6.17000000e-01	1.39363201e-02	1.43790074e-04
6.18000000e-01	1.38748062e-02	1.43142792e-04
6.19000000e-01	1.38857336e-02	1.42896208e-04
6.20000000e-01	1.39442391e-02	1.43422749e-04
6.21000000e-01	1.37736697e-02	1.41388709e-04
6.22000000e-01	1.37414389e-02	1.41328556e-04
6.23000000e-01	1.37747943e-02	1.41106627e-04
6.24000000e-01	1.39007730e-02	1.41931042e-04
6.25000000e-01	1.37504147e-02	1.40836749e-04
6.26000000e-01	1.36766770e-02	1.40465255e-04
6.27000000e-01	1.38270442e-02	1.41481116e-04
6.28000000e-01	1.37020487e-02	1.40352125e-04
6.29000000e-01	1.38451654e-02	1.41454653e-04
6.30000000e-01	1.37693906e-02	1.41031448e-04
6.31000000e-01	1.37641851e-02	1.41360800e-04
6.32000000e-01	1.37774540e-02	1.41246721e-04
6.33000000e-01	1.37229798e-02	1.40576222e-04
6.34000000e-01	1.38720621e-02	1.45363230e-04
6.35000000e-01	1.38644114e-02	1.49030362e-04
6.36000000e-01	1.38544378e-02	1.51845515e-04
6.37000000e-01	1.37429053e-02	1.53784209e-04
6.38000000e-01	1.39253538e-02	1.57361214e-04
6.39000000e-01	1.37643611e-02	1.58065624e-04
6.40000000e-01	1.37057828e-02	1.59214644e-04
6.41000000e-01	1.37384298e-02	1.61111457e-04
6.42000000e-01	1.37375268e-02	1.62820237e-04
6.43000000e-01	1.37501247e-02	1.62534640e-04
6.44000000e-01	1.39560862e-02	1.59686286e-04
6.45000000e-01	1.39610492e-02	1.57175425e-04
6.46000000e-01	1.38473155e-02	1.54776404e-04
6.47000000e-01	1.38000153e-02	1.52416348e-04
6.48000000e-01	1.39839631e-02	1.53533162e-04
6.49000000e-01	1.37936397e-02	1.51450880e-04
6.50000000e-01	1.37346569e-02	1.49745412e-04
6.51000000e-01	1.37028333e-02	1.48882392e-04
6.52000000e-01	1.39556608e-02	1.50537606e-04
6.53000000e-01	1.37116162e-02	1.47585028e-04
6.54000000e-01	1.40003948e-02	1.50281301e-04
6.55000000e-01	1.38685097e-02	1.48333113e-04
6.56000000e-01	1.38317677e-02	1.47716352e-04
6.57000000e-01	1.38221263e-02	1.47366677e-04
6.58000000e-01	1.36211313e-02	1.45289443e-04
6.59000000e-01	1.38780326e-02	1.48009926e-04
6.60000000e-01	1.37692458e-02	1.47005566e-04
6.61000000e-01	1.38102953e-02	1.46993963e-04
6.62000000e-01	1.37099994e-02	1.46150471e-04
6.63000000e-01	1.37547361e-02	1.46781486e-04
6.64000000e-01	1.37867084e-02	1.46364021e-04
6.65000000e-01	1.38198687e-02	1.46909883e-04
6.66000000e-01	1.37078479e-02	1.45776828e-04
6.67000000e-01	1.37710136e-02	1.46370162e-04
6.68000000e-01	1.38315006e-02	1.46781246e-04
6.69000000e-01	1.37195058e-02	1.45904077e-04
6.70000000e-01	1.37287065e-02	1.45385284e-04
6.71000000e-01	1.34626150e-02	1.43192557e-04
6.72000000e-01	1.36023126e-02	1.43914531e-04
6.73000000e-01	1.35741432e-02	1.44027846e-04
6.74000000e-01	1.35671865e-02	1.43753422e-04
6.75000000e-01	1.37020681e-02	1.45304329e-04
6.76000000e-01	1.36615814e-02	1.44266433e-04
6.77000000e-01	1.36870937e-02	1.44910428e-04
6.78000000e-01	1.37322357e-02	1.45177147e-04
6.79000000e-01	1.36594677e-02	1.44671862e-04
6.80000000e-01	1.34670731e-02	1.42360664e-04
6.81000000e-01	1.36437779e-02	1.44404211e-04
6.82000000e-01	1.34666201e-02	1.42735762e-04
6.83000000e-01	1.34815355e-02	1.43125750e-04
6.84000000e-01	1.35642862e-02	1.43570851e-04
6.85000000e-01	1.36137994e-02	1.43954276e-04
6.86000000e-01	1.34711650e-02	1.42582163e-04
6.87000000e-01	1.36141912e-02	1.44081636e-04
6.88000000e-01	1.35442807e-02	1.43580066e-04
6.89000000e-01	1.33994915e-02	1.41409015e-04
6.90000000e-01	1.35053037e-02	1.42707946e-04
6.91000000e-01	1.35502145e-02	1.43421023e-04
6.92000000e-01	1.33696699e-02	1.41742931e-04
6.93000000e-01	1.33812688e-02	1.41191111e-04
6.94000000e-01	1.34854272e-02	1.42709980e-04
6.95000000e-01	1.34269552e-02	1.41972972e-04
6.96000000e-01	1.34976713e-02	1.42975935e-04
6.97000000e-01	1.33784463e-02	1.41280392e-04
6.98000000e-01	1.34864653e-02	1.42881874e-04
6.99000000e-01	1.34590012e-02	1.42322439e-04
7.00000000e-01	1.34899612e-02	1.42490658e-04
7.01000000e-01	1.34515046e-02	1.42030316e-04
7.02000000e-01	1.34102276e-02	1.41858266e-04
7.03000000e-01	1.32908301e-02	1.40996054e-04
7.04000000e-01	1.34258472e-02	1.41389331e-04
7.05000000e-01	1.33453721e-02	1.40984063e-04
7.06000000e-01	1.34201041e-02	1.41423898e-04
7.07000000e-01	1.34210553e-02	1.40957359e-04
7.08000000e-01	1.33640220e-02	1.40635534e-04
7.09000000e-01	1.33074177e-02	1.40069203e-04
7.10000000e-01	1.32174335e-02	1.39616955e-04
7.11000000e-01	1.31615745e-02	1.39154317e-04
7.12000000e-01	1.32079197e-02	1.39825803e-04
7.13000000e-01	1.32701036e-02	1.40735361e-04
7.14000000e-01	1.32908902e-02	1.40427817e-04
7.15000000e-01	1.32949997e-02	1.40368163e-04
7.16000000e-01	1.30329347e-02	1.37912533e-04
7.17000000e-01	1.32669379e-02	1.39999191e-04
7.18000000e-01	1.32745359e-02	1.39627605e-04
7.19000000e-01	1.31464382e-02	1.39128207e-04
7.20000000e-01	1.32058093e-02	1.39510077e-04
7.21000000e-01	1.31106574e-02	1.38577761e-04
7.22000000e-01	1.31904937e-02	1.39287927e-04
7.23000000e-01	1.32133723e-02	1.39497958e-04
7.24000000e-01	1.30538152e-02	1.38209134e-04
7.25000000e-01	1.31970793e-02	1.39431901e-04
7.26000000e-01	1.30323085e-02	1.37996169e-04
7.27000000e-01	1.31402114e-02	1.38481650e-04
7.28000000e-01	1.30552237e-02	1.37976201e-04
7.29000000e-01	1.30817641e-02	1.39060349e-04
7.30000000e-01	1.29979514e-02	1.37467974e-04
7.31000000e-01	1.30980756e-02	1.38392022e-04
7.32000000e-01	1.31016206e-02	1.38498713e-04
7.33000000e-01	1.30999163e-02	1.38514005e-04
7.34000000e-01	1.29359874e-02	1.36915758e-04
7.35000000e-01	1.29518162e-02	1.36713213e-04
7.36000000e-01	1.29218957e-02	1.36262204e-04
7.37000000e-01	1.29680317e-02	1.36786854e-04
7.38000000e-01	1.29194509e-02	1.35669280e-04
7.39000000e-01	1.31204784e-02	1.37034125e-04
7.40000000e-01	1.28045047e-02	1.34355855e-04
7.41000000e-01	1.29164335e-02	1.35374263e-04
7.42000000e-01	1.29200396e-02	1.35599264e-04
7.43000000e-01	1.30026728e-02	1.35881395e-04
7.44000000e-01	1.28065846e-02	1.34150145e-04
7.45000000e-01	1.29885438e-02	1.35940386e-04
7.46000000e-01	1.28093386e-02	1.34231266e-04
7.47000000e-01	1.29029704e-02	1.35250109e-04
7.48000000e-01	1.29802745e-02	1.35890922e-04
7.49000000e-01	1.29888462e-02	1.36122164e-04
7.50000000e-01	1.27702751e-02	1.33832191e-04
7.51000000e-01	1.26953280e-02	1.33630978e-04
7.52000000e-01	1.28918606e-02	1.35078826e-04
7.53000000e-01	1.28337213e-02	1.34898212e-04
7.54000000e-01	1.28330880e-02	1.34634565e-04
7.55000000e-01	1.27329587e-02	1.33693063e-04
7.56000000e-01	1.27444123e-02	1.33330527e-04
7.57000000e-01	1.29720162e-02	1.35721910e-04
7.58000000e-01	1.27923336e-02	1.33976904e-04
7.59000000e-01	1.28085818e-02	1.34204030e-04
7.60000000e-01	1.28448887e-02	1.34323487e-04
7.61000000e-01	1.26109566e-02	1.31544231e-04
7.62000000e-01	1.27983249e-02	1.33577110e-04
7.63000000e-01	1.27491903e-02	1.33138317e-04
7.64000000e-01	1.28226614e-02	1.33321212e-04
7.65000000e-01	1.27064715e-02	1.31833396e-04
7.66000000e-01	1.26299563e-02	1.31194671e-04
7.67000000e-01	1.25124270e-02	1.30422995e-04
7.68000000e-01	1.26525689e-02	1.31253239e-04
7.69000000e-01	1.26425685e-02	1.31802832e-04
7.70000000e-01	1.27382594e-02	1.32442905e-04
7.71000000e-01	1.26751722e-02	1.31589072e-04
7.72000000e-01	1.26624125e-02	1.36003169e-04
7.73000000e-01	1.26301108e-02	1.39737300e-04
7.74000000e-01	1.25465122e-02	1.41566140e-04
7.75000000e-01	1.25934060e-02	1.44725960e-04
7.76000000e-01	1.26097367e-02	1.47173566e-04
7.77000000e-01	1.24788928e-02	1.47840531e-04
7.78000000e-01	1.25206415e-02	1.50680171e-04
7.79000000e-01	1.25907537e-02	1.52541964e-04
7.80000000e-01	1.24824532e-02	1.53499613e-04
7.81000000e-01	1.24255692e-02	1.54281190e-04
7.82000000e-01	1.24340581e-02	1.55644994e-04
7.83000000e-01	1.25854147e-02	1.59593782e-04
7.84000000e-01	1.24543680e-02	1.59323144e-04
7.85000000e-01	1.26304816e-02	1.63289011e-04
7.86000000e-01	1.24546041e-02	1.63411706e-04
7.87000000e-01	1.25628288e-02	1.65847142e-04
7.88000000e-01	1.23101249e-02	1.63833226e-04
7.89000000e-01	1.22839484e-02	1.65832656e-04
7.90000000e-01	1.23806458e-02	1.68543643e-04
7.91000000e-01	1.23899486e-02	1.71008045e-04
7.92000000e-01	1.23896946e-02	1.71891026e-04
7.93000000e-01	1.25264562e-02	1.75407062e-04
7.94000000e-01	1.25492865e-02	1.77671555e-04
7.95000000e-01	1.24431724e-02	1.77890320e-04
7.96000000e-01	1.21983978e-02	1.76889379e-04
7.97000000e-01	1.24043409e-02	1.81411934e-04
7.98000000e-01	1.23674195e-02	1.82760497e-04
7.99000000e-01	1.22810032e-02	1.83235735e-04
8.00000000e-01	1.23639364e-02	1.86334680e-04
8.01000000e-01	1.22653782e-02	1.87484195e-04
8.02000000e-01	1.22618183e-02	1.89264733e-04
8.03000000e-01	1.23703738e-02	1.91885063e-04
8.04000000e-01	1.23783334e-02	1.93775399e-04
8.05000000e-01	1.22406658e-02	1.93960010e-04
8.06000000e-01	1.22532182e-02	1.96494721e-04
8.07000000e-01	1.22603311e-02	1.99767185e-04
8.08000000e-01	1.20671206e-02	1.98980700e-04
8.09000000e-01	1.22211668e-02	2.03336467e-04
8.10000000e-01	1.23563990e-02	2.07392167e-04
8.11000000e-01	1.22752060e-02	2.08044537e-04
8.12000000e-01	1.22535219e-02	2.10340033e-04
8.13000000e-01	1.21745315e-02	2.11357453e-04
8.14000000e-01	1.20488387e-02	2.12209695e-04
8.15000000e-01	1.20935758e-02	2.15792534e-04
8.16000000e-01	1.20094714e-02	2.17366562e-04
8.17000000e-01	1.18460580e-02	2.16046576e-04
8.18000000e-01	1.22386649e-02	2.25514850e-04
8.19000000e-01	1.21102547e-02	2.25930392e-04
8.20000000e-01	1.19651556e-02	2.27208568e-04
8.21000000e-01	1.18700820e-02	2.30019403e-04
8.22000000e-01	1.18292244e-02	2.30920183e-04
8.23000000e-01	1.18109769e-02	2.32776842e-04
8.24000000e-01	1.20380559e-02	2.41508162e-04
8.25000000e-01	1.21505461e-02	2.45388146e-04
8.26000000e-01	1.18713725e-02	2.45073191e-04
8.27000000e-01	1.19156281e-02	2.49616538e-04
8.28000000e-01	1.19301850e-02	2.52159372e-04
8.29000000e-01	1.17337775e-02	2.52638066e-04
8.30000000e-01	1.20559758e-02	2.62544394e-04
8.31000000e-01	1.18655268e-02	2.64908147e-04
8.32000000e-01	1.19520664e-02	2.70871476e-04
8.33000000e-01	1.16667362e-02	2.69216394e-04
8.34000000e-01	1.16597424e-02	2.74333320e-04
8.35000000e-01	1.17963415e-02	2.83004728e-04
8.36000000e-01	1.15151171e-02	2.80218551e-04
8.37000000e-01	1.15986593e-02	2.87405684e-04
8.38000000e-01	1.19121033e-02	2.99789260e-04
8.39000000e-01	1.17799734e-02	3.02623052e-04
8.40000000e-01	1.13794894e-02	3.00680249e-04
8.41000000e-01	1.15561206e-02	3.14986836e-04
8.42000000e-01	1.15355384e-02	3.20288428e-04
8.43000000e-01	1.17771755e-02	3.31079286e-04
8.44000000e-01	1.14434937e-02	3.32556508e-04
8.45000000e-01	1.13180887e-02	3.38814421e-04
8.46000000e-01	1.17179670e-02	3.56123344e-04
8.47000000e-01	1.19379900e-02	3.72220323e-04
8.48000000e-01	1.14776208e-02	3.72650165e-04
8.49000000e-01	1.16001150e-02	3.89706278e-04
8.50000000e-01	1.15841601e-02	3.96885094e-04
8.51000000e-01	1.16594644e-02	4.19171778e-04
8.52000000e-01	1.15733599e-02	4.30254117e-04
8.53000000e-01	1.14430473e-02	4.41032752e-04
8.54000000e-01	1.15990094e-02	4.71774812e-04
8.55000000e-01	1.16121007e-02	4.90073768e-04
8.56000000e-01	1.14529915e-02	4.97456348e-04
8.57000000e-01	1.13630904e-02	5.02350503e-04
8.58000000e-01	1.12177448e-02	5.14116243e-04
8.59000000e-01	1.13671086e-02	5.26657281e-04
8.60000000e-01	1.16541250e-02	5.72165481e-04
8.61000000e-01	1.11863627e-02	5.55319981e-04
8.62000000e-01	1.12355220e-02	5.99014365e-04
8.63000000e-01	1.09490436e-02	5.95672785e-04
8.64000000e-01	1.13127763e-02	6.52358214e-04
8.65000000e-01	1.15385951e-02	6.91376091e-04
8.66000000e-01	1.11115929e-02	7.06935328e-04
8.67000000e-01	1.09561685e-02	7.38991501e-04
8.68000000e-01	1.14256749e-02	7.99890326e-04
8.69000000e-01	1.14428568e-02	8.67063472e-04
8.70000000e-01	1.17202128e-02	9.78773761e-04
8.71000000e-01	1.08429886e-02	9.99855464e-04
8.72000000e-01	1.08186875e-02	1.12708881e-03
8.73000000e-01	1.21284277e-02	1.45939855e-03
8.74000000e-01	1.11907364e-02	1.87287370e-03
8.75000000e-01	1.02428265e-02	3.67133698e-03
