Created as New Dataset,Sample 355 By YargerLab Date Tuesday, November 11 2025
cm-1,A
4000.00,0.0062
3999.00,0.0062
3998.00,0.0062
3997.00,0.0062
3996.00,0.0062
3995.00,0.0062
3994.00,0.0062
3993.00,0.0062
3992.00,0.0062
3991.00,0.0062
3990.00,0.0062
3989.00,0.0062
3988.00,0.0062
3987.00,0.0063
3986.00,0.0062
3985.00,0.0062
3984.00,0.0062
3983.00,0.0062
3982.00,0.0062
3981.00,0.0062
3980.00,0.0062
3979.00,0.0062
3978.00,0.0062
3977.00,0.0062
3976.00,0.0062
3975.00,0.0062
3974.00,0.0062
3973.00,0.0062
3972.00,0.0062
3971.00,0.0062
3970.00,0.0062
3969.00,0.0062
3968.00,0.0062
3967.00,0.0062
3966.00,0.0062
3965.00,0.0062
3964.00,0.0062
3963.00,0.0062
3962.00,0.0062
3961.00,0.0062
3960.00,0.0062
3959.00,0.0062
3958.00,0.0062
3957.00,0.0062
3956.00,0.0062
3955.00,0.0062
3954.00,0.0062
3953.00,0.0062
3952.00,0.0062
3951.00,0.0062
3950.00,0.0062
3949.00,0.0062
3948.00,0.0062
3947.00,0.0062
3946.00,0.0062
3945.00,0.0062
3944.00,0.0062
3943.00,0.0062
3942.00,0.0062
3941.00,0.0062
3940.00,0.0062
3939.00,0.0062
3938.00,0.0062
3937.00,0.0062
3936.00,0.0062
3935.00,0.0062
3934.00,0.0062
3933.00,0.0062
3932.00,0.0062
3931.00,0.0062
3930.00,0.0061
3929.00,0.0061
3928.00,0.0061
3927.00,0.0061
3926.00,0.0061
3925.00,0.0061
3924.00,0.0061
3923.00,0.0061
3922.00,0.0061
3921.00,0.0061
3920.00,0.0061
3919.00,0.0061
3918.00,0.0061
3917.00,0.0062
3916.00,0.0062
3915.00,0.0062
3914.00,0.0062
3913.00,0.0062
3912.00,0.0062
3911.00,0.0062
3910.00,0.0062
3909.00,0.0062
3908.00,0.0062
3907.00,0.0062
3906.00,0.0062
3905.00,0.0062
3904.00,0.0062
3903.00,0.0062
3902.00,0.0061
3901.00,0.0062
3900.00,0.0062
3899.00,0.0062
3898.00,0.0062
3897.00,0.0062
3896.00,0.0062
3895.00,0.0062
3894.00,0.0062
3893.00,0.0062
3892.00,0.0062
3891.00,0.0061
3890.00,0.0061
3889.00,0.0061
3888.00,0.0061
3887.00,0.0061
3886.00,0.0060
3885.00,0.0060
3884.00,0.0060
3883.00,0.0061
3882.00,0.0061
3881.00,0.0061
3880.00,0.0061
3879.00,0.0062
3878.00,0.0062
3877.00,0.0062
3876.00,0.0062
3875.00,0.0062
3874.00,0.0061
3873.00,0.0061
3872.00,0.0061
3871.00,0.0061
3870.00,0.0061
3869.00,0.0060
3868.00,0.0060
3867.00,0.0060
3866.00,0.0060
3865.00,0.0060
3864.00,0.0061
3863.00,0.0061
3862.00,0.0061
3861.00,0.0061
3860.00,0.0062
3859.00,0.0062
3858.00,0.0062
3857.00,0.0062
3856.00,0.0062
3855.00,0.0062
3854.00,0.0062
3853.00,0.0062
3852.00,0.0061
3851.00,0.0061
3850.00,0.0061
3849.00,0.0061
3848.00,0.0062
3847.00,0.0062
3846.00,0.0062
3845.00,0.0062
3844.00,0.0061
3843.00,0.0061
3842.00,0.0061
3841.00,0.0061
3840.00,0.0061
3839.00,0.0061
3838.00,0.0061
3837.00,0.0061
3836.00,0.0061
3835.00,0.0061
3834.00,0.0061
3833.00,0.0061
3832.00,0.0061
3831.00,0.0061
3830.00,0.0062
3829.00,0.0062
3828.00,0.0062
3827.00,0.0062
3826.00,0.0062
3825.00,0.0062
3824.00,0.0062
3823.00,0.0062
3822.00,0.0061
3821.00,0.0061
3820.00,0.0061
3819.00,0.0062
3818.00,0.0062
3817.00,0.0062
3816.00,0.0062
3815.00,0.0062
3814.00,0.0062
3813.00,0.0062
3812.00,0.0062
3811.00,0.0062
3810.00,0.0062
3809.00,0.0062
3808.00,0.0062
3807.00,0.0061
3806.00,0.0061
3805.00,0.0061
3804.00,0.0061
3803.00,0.0061
3802.00,0.0061
3801.00,0.0061
3800.00,0.0061
3799.00,0.0061
3798.00,0.0061
3797.00,0.0061
3796.00,0.0061
3795.00,0.0061
3794.00,0.0061
3793.00,0.0061
3792.00,0.0061
3791.00,0.0061
3790.00,0.0061
3789.00,0.0061
3788.00,0.0061
3787.00,0.0061
3786.00,0.0061
3785.00,0.0061
3784.00,0.0061
3783.00,0.0061
3782.00,0.0061
3781.00,0.0062
3780.00,0.0062
3779.00,0.0062
3778.00,0.0062
3777.00,0.0062
3776.00,0.0061
3775.00,0.0061
3774.00,0.0061
3773.00,0.0061
3772.00,0.0061
3771.00,0.0061
3770.00,0.0061
3769.00,0.0061
3768.00,0.0061
3767.00,0.0061
3766.00,0.0062
3765.00,0.0062
3764.00,0.0062
3763.00,0.0061
3762.00,0.0061
3761.00,0.0061
3760.00,0.0061
3759.00,0.0061
3758.00,0.0061
3757.00,0.0061
3756.00,0.0061
3755.00,0.0061
3754.00,0.0061
3753.00,0.0061
3752.00,0.0061
3751.00,0.0062
3750.00,0.0062
3749.00,0.0061
3748.00,0.0061
3747.00,0.0061
3746.00,0.0061
3745.00,0.0060
3744.00,0.0060
3743.00,0.0060
3742.00,0.0060
3741.00,0.0060
3740.00,0.0061
3739.00,0.0061
3738.00,0.0061
3737.00,0.0060
3736.00,0.0060
3735.00,0.0060
3734.00,0.0060
3733.00,0.0060
3732.00,0.0060
3731.00,0.0060
3730.00,0.0061
3729.00,0.0061
3728.00,0.0061
3727.00,0.0061
3726.00,0.0061
3725.00,0.0061
3724.00,0.0061
3723.00,0.0061
3722.00,0.0060
3721.00,0.0060
3720.00,0.0061
3719.00,0.0061
3718.00,0.0061
3717.00,0.0061
3716.00,0.0061
3715.00,0.0061
3714.00,0.0061
3713.00,0.0061
3712.00,0.0060
3711.00,0.0060
3710.00,0.0060
3709.00,0.0060
3708.00,0.0060
3707.00,0.0061
3706.00,0.0061
3705.00,0.0060
3704.00,0.0060
3703.00,0.0060
3702.00,0.0060
3701.00,0.0060
3700.00,0.0060
3699.00,0.0060
3698.00,0.0060
3697.00,0.0060
3696.00,0.0061
3695.00,0.0061
3694.00,0.0061
3693.00,0.0061
3692.00,0.0061
3691.00,0.0061
3690.00,0.0061
3689.00,0.0061
3688.00,0.0061
3687.00,0.0061
3686.00,0.0061
3685.00,0.0062
3684.00,0.0062
3683.00,0.0062
3682.00,0.0062
3681.00,0.0062
3680.00,0.0062
3679.00,0.0062
3678.00,0.0062
3677.00,0.0062
3676.00,0.0062
3675.00,0.0062
3674.00,0.0062
3673.00,0.0062
3672.00,0.0062
3671.00,0.0062
3670.00,0.0062
3669.00,0.0062
3668.00,0.0062
3667.00,0.0062
3666.00,0.0062
3665.00,0.0063
3664.00,0.0063
3663.00,0.0063
3662.00,0.0063
3661.00,0.0063
3660.00,0.0063
3659.00,0.0063
3658.00,0.0063
3657.00,0.0063
3656.00,0.0063
3655.00,0.0063
3654.00,0.0063
3653.00,0.0063
3652.00,0.0063
3651.00,0.0063
3650.00,0.0063
3649.00,0.0063
3648.00,0.0064
3647.00,0.0064
3646.00,0.0064
3645.00,0.0065
3644.00,0.0065
3643.00,0.0065
3642.00,0.0065
3641.00,0.0066
3640.00,0.0066
3639.00,0.0066
3638.00,0.0066
3637.00,0.0066
3636.00,0.0066
3635.00,0.0066
3634.00,0.0066
3633.00,0.0066
3632.00,0.0067
3631.00,0.0067
3630.00,0.0067
3629.00,0.0068
3628.00,0.0068
3627.00,0.0069
3626.00,0.0069
3625.00,0.0069
3624.00,0.0069
3623.00,0.0069
3622.00,0.0069
3621.00,0.0070
3620.00,0.0070
3619.00,0.0071
3618.00,0.0071
3617.00,0.0071
3616.00,0.0071
3615.00,0.0072
3614.00,0.0072
3613.00,0.0072
3612.00,0.0073
3611.00,0.0073
3610.00,0.0074
3609.00,0.0074
3608.00,0.0074
3607.00,0.0074
3606.00,0.0075
3605.00,0.0075
3604.00,0.0076
3603.00,0.0076
3602.00,0.0077
3601.00,0.0077
3600.00,0.0077
3599.00,0.0077
3598.00,0.0077
3597.00,0.0078
3596.00,0.0078
3595.00,0.0079
3594.00,0.0079
3593.00,0.0080
3592.00,0.0080
3591.00,0.0080
3590.00,0.0080
3589.00,0.0080
3588.00,0.0081
3587.00,0.0081
3586.00,0.0082
3585.00,0.0082
3584.00,0.0083
3583.00,0.0083
3582.00,0.0084
3581.00,0.0085
3580.00,0.0085
3579.00,0.0086
3578.00,0.0086
3577.00,0.0087
3576.00,0.0087
3575.00,0.0087
3574.00,0.0087
3573.00,0.0088
3572.00,0.0088
3571.00,0.0088
3570.00,0.0089
3569.00,0.0089
3568.00,0.0090
3567.00,0.0091
3566.00,0.0092
3565.00,0.0092
3564.00,0.0093
3563.00,0.0093
3562.00,0.0093
3561.00,0.0093
3560.00,0.0093
3559.00,0.0094
3558.00,0.0094
3557.00,0.0095
3556.00,0.0095
3555.00,0.0096
3554.00,0.0097
3553.00,0.0097
3552.00,0.0097
3551.00,0.0098
3550.00,0.0098
3549.00,0.0098
3548.00,0.0099
3547.00,0.0099
3546.00,0.0100
3545.00,0.0101
3544.00,0.0101
3543.00,0.0101
3542.00,0.0102
3541.00,0.0102
3540.00,0.0102
3539.00,0.0102
3538.00,0.0102
3537.00,0.0103
3536.00,0.0103
3535.00,0.0104
3534.00,0.0104
3533.00,0.0105
3532.00,0.0105
3531.00,0.0106
3530.00,0.0106
3529.00,0.0106
3528.00,0.0107
3527.00,0.0108
3526.00,0.0108
3525.00,0.0109
3524.00,0.0109
3523.00,0.0110
3522.00,0.0110
3521.00,0.0110
3520.00,0.0111
3519.00,0.0111
3518.00,0.0111
3517.00,0.0112
3516.00,0.0112
3515.00,0.0113
3514.00,0.0113
3513.00,0.0114
3512.00,0.0114
3511.00,0.0115
3510.00,0.0115
3509.00,0.0116
3508.00,0.0116
3507.00,0.0117
3506.00,0.0117
3505.00,0.0117
3504.00,0.0118
3503.00,0.0118
3502.00,0.0119
3501.00,0.0119
3500.00,0.0120
3499.00,0.0120
3498.00,0.0121
3497.00,0.0121
3496.00,0.0122
3495.00,0.0123
3494.00,0.0123
3493.00,0.0124
3492.00,0.0124
3491.00,0.0124
3490.00,0.0125
3489.00,0.0126
3488.00,0.0126
3487.00,0.0127
3486.00,0.0127
3485.00,0.0128
3484.00,0.0128
3483.00,0.0128
3482.00,0.0129
3481.00,0.0129
3480.00,0.0130
3479.00,0.0131
3478.00,0.0131
3477.00,0.0132
3476.00,0.0133
3475.00,0.0134
3474.00,0.0134
3473.00,0.0134
3472.00,0.0135
3471.00,0.0135
3470.00,0.0135
3469.00,0.0136
3468.00,0.0137
3467.00,0.0137
3466.00,0.0138
3465.00,0.0139
3464.00,0.0139
3463.00,0.0140
3462.00,0.0140
3461.00,0.0141
3460.00,0.0141
3459.00,0.0142
3458.00,0.0142
3457.00,0.0143
3456.00,0.0143
3455.00,0.0144
3454.00,0.0144
3453.00,0.0145
3452.00,0.0145
3451.00,0.0145
3450.00,0.0146
3449.00,0.0146
3448.00,0.0147
3447.00,0.0147
3446.00,0.0148
3445.00,0.0149
3444.00,0.0149
3443.00,0.0150
3442.00,0.0150
3441.00,0.0151
3440.00,0.0151
3439.00,0.0152
3438.00,0.0152
3437.00,0.0152
3436.00,0.0153
3435.00,0.0154
3434.00,0.0154
3433.00,0.0155
3432.00,0.0156
3431.00,0.0156
3430.00,0.0157
3429.00,0.0158
3428.00,0.0158
3427.00,0.0159
3426.00,0.0159
3425.00,0.0160
3424.00,0.0161
3423.00,0.0161
3422.00,0.0162
3421.00,0.0162
3420.00,0.0163
3419.00,0.0164
3418.00,0.0164
3417.00,0.0165
3416.00,0.0165
3415.00,0.0166
3414.00,0.0167
3413.00,0.0167
3412.00,0.0168
3411.00,0.0169
3410.00,0.0170
3409.00,0.0170
3408.00,0.0171
3407.00,0.0172
3406.00,0.0173
3405.00,0.0173
3404.00,0.0174
3403.00,0.0174
3402.00,0.0175
3401.00,0.0176
3400.00,0.0177
3399.00,0.0178
3398.00,0.0179
3397.00,0.0180
3396.00,0.0181
3395.00,0.0182
3394.00,0.0182
3393.00,0.0183
3392.00,0.0184
3391.00,0.0185
3390.00,0.0186
3389.00,0.0187
3388.00,0.0189
3387.00,0.0190
3386.00,0.0191
3385.00,0.0192
3384.00,0.0193
3383.00,0.0194
3382.00,0.0195
3381.00,0.0195
3380.00,0.0196
3379.00,0.0197
3378.00,0.0198
3377.00,0.0199
3376.00,0.0201
3375.00,0.0202
3374.00,0.0202
3373.00,0.0203
3372.00,0.0203
3371.00,0.0202
3370.00,0.0203
3369.00,0.0204
3368.00,0.0205
3367.00,0.0207
3366.00,0.0208
3365.00,0.0210
3364.00,0.0211
3363.00,0.0212
3362.00,0.0213
3361.00,0.0214
3360.00,0.0215
3359.00,0.0216
3358.00,0.0217
3357.00,0.0218
3356.00,0.0219
3355.00,0.0220
3354.00,0.0220
3353.00,0.0220
3352.00,0.0220
3351.00,0.0221
3350.00,0.0223
3349.00,0.0224
3348.00,0.0225
3347.00,0.0226
3346.00,0.0227
3345.00,0.0227
3344.00,0.0227
3343.00,0.0228
3342.00,0.0228
3341.00,0.0229
3340.00,0.0229
3339.00,0.0229
3338.00,0.0230
3337.00,0.0232
3336.00,0.0234
3335.00,0.0235
3334.00,0.0237
3333.00,0.0237
3332.00,0.0238
3331.00,0.0239
3330.00,0.0239
3329.00,0.0239
3328.00,0.0239
3327.00,0.0239
3326.00,0.0240
3325.00,0.0240
3324.00,0.0241
3323.00,0.0243
3322.00,0.0244
3321.00,0.0245
3320.00,0.0246
3319.00,0.0246
3318.00,0.0247
3317.00,0.0247
3316.00,0.0248
3315.00,0.0248
3314.00,0.0249
3313.00,0.0249
3312.00,0.0249
3311.00,0.0248
3310.00,0.0248
3309.00,0.0247
3308.00,0.0247
3307.00,0.0247
3306.00,0.0248
3305.00,0.0249
3304.00,0.0251
3303.00,0.0252
3302.00,0.0254
3301.00,0.0255
3300.00,0.0255
3299.00,0.0255
3298.00,0.0255
3297.00,0.0254
3296.00,0.0254
3295.00,0.0254
3294.00,0.0254
3293.00,0.0255
3292.00,0.0255
3291.00,0.0256
3290.00,0.0258
3289.00,0.0259
3288.00,0.0259
3287.00,0.0260
3286.00,0.0260
3285.00,0.0260
3284.00,0.0260
3283.00,0.0260
3282.00,0.0260
3281.00,0.0260
3280.00,0.0261
3279.00,0.0261
3278.00,0.0261
3277.00,0.0260
3276.00,0.0260
3275.00,0.0260
3274.00,0.0259
3273.00,0.0259
3272.00,0.0259
3271.00,0.0259
3270.00,0.0260
3269.00,0.0261
3268.00,0.0261
3267.00,0.0262
3266.00,0.0262
3265.00,0.0262
3264.00,0.0262
3263.00,0.0262
3262.00,0.0262
3261.00,0.0262
3260.00,0.0262
3259.00,0.0262
3258.00,0.0262
3257.00,0.0262
3256.00,0.0262
3255.00,0.0262
3254.00,0.0262
3253.00,0.0262
3252.00,0.0262
3251.00,0.0262
3250.00,0.0262
3249.00,0.0262
3248.00,0.0262
3247.00,0.0262
3246.00,0.0263
3245.00,0.0263
3244.00,0.0263
3243.00,0.0263
3242.00,0.0263
3241.00,0.0263
3240.00,0.0263
3239.00,0.0263
3238.00,0.0263
3237.00,0.0262
3236.00,0.0261
3235.00,0.0261
3234.00,0.0261
3233.00,0.0261
3232.00,0.0261
3231.00,0.0261
3230.00,0.0261
3229.00,0.0261
3228.00,0.0261
3227.00,0.0261
3226.00,0.0261
3225.00,0.0261
3224.00,0.0261
3223.00,0.0261
3222.00,0.0260
3221.00,0.0260
3220.00,0.0260
3219.00,0.0260
3218.00,0.0259
3217.00,0.0259
3216.00,0.0259
3215.00,0.0259
3214.00,0.0260
3213.00,0.0260
3212.00,0.0260
3211.00,0.0260
3210.00,0.0260
3209.00,0.0260
3208.00,0.0260
3207.00,0.0260
3206.00,0.0260
3205.00,0.0260
3204.00,0.0260
3203.00,0.0259
3202.00,0.0259
3201.00,0.0259
3200.00,0.0259
3199.00,0.0259
3198.00,0.0259
3197.00,0.0259
3196.00,0.0259
3195.00,0.0258
3194.00,0.0258
3193.00,0.0257
3192.00,0.0256
3191.00,0.0255
3190.00,0.0255
3189.00,0.0255
3188.00,0.0255
3187.00,0.0255
3186.00,0.0254
3185.00,0.0254
3184.00,0.0253
3183.00,0.0252
3182.00,0.0252
3181.00,0.0251
3180.00,0.0251
3179.00,0.0251
3178.00,0.0250
3177.00,0.0249
3176.00,0.0249
3175.00,0.0248
3174.00,0.0248
3173.00,0.0247
3172.00,0.0247
3171.00,0.0246
3170.00,0.0246
3169.00,0.0245
3168.00,0.0244
3167.00,0.0243
3166.00,0.0242
3165.00,0.0241
3164.00,0.0240
3163.00,0.0240
3162.00,0.0239
3161.00,0.0238
3160.00,0.0238
3159.00,0.0237
3158.00,0.0236
3157.00,0.0235
3156.00,0.0234
3155.00,0.0233
3154.00,0.0232
3153.00,0.0232
3152.00,0.0231
3151.00,0.0231
3150.00,0.0230
3149.00,0.0230
3148.00,0.0229
3147.00,0.0228
3146.00,0.0228
3145.00,0.0227
3144.00,0.0227
3143.00,0.0226
3142.00,0.0226
3141.00,0.0225
3140.00,0.0224
3139.00,0.0223
3138.00,0.0223
3137.00,0.0223
3136.00,0.0222
3135.00,0.0222
3134.00,0.0222
3133.00,0.0221
3132.00,0.0220
3131.00,0.0220
3130.00,0.0219
3129.00,0.0218
3128.00,0.0218
3127.00,0.0217
3126.00,0.0217
3125.00,0.0216
3124.00,0.0215
3123.00,0.0215
3122.00,0.0214
3121.00,0.0213
3120.00,0.0212
3119.00,0.0211
3118.00,0.0210
3117.00,0.0210
3116.00,0.0209
3115.00,0.0208
3114.00,0.0207
3113.00,0.0207
3112.00,0.0206
3111.00,0.0205
3110.00,0.0204
3109.00,0.0203
3108.00,0.0203
3107.00,0.0202
3106.00,0.0201
3105.00,0.0200
3104.00,0.0199
3103.00,0.0198
3102.00,0.0197
3101.00,0.0196
3100.00,0.0196
3099.00,0.0195
3098.00,0.0194
3097.00,0.0193
3096.00,0.0193
3095.00,0.0192
3094.00,0.0191
3093.00,0.0190
3092.00,0.0189
3091.00,0.0188
3090.00,0.0187
3089.00,0.0186
3088.00,0.0185
3087.00,0.0185
3086.00,0.0184
3085.00,0.0183
3084.00,0.0182
3083.00,0.0181
3082.00,0.0180
3081.00,0.0180
3080.00,0.0179
3079.00,0.0179
3078.00,0.0178
3077.00,0.0178
3076.00,0.0177
3075.00,0.0176
3074.00,0.0176
3073.00,0.0175
3072.00,0.0175
3071.00,0.0174
3070.00,0.0173
3069.00,0.0173
3068.00,0.0172
3067.00,0.0171
3066.00,0.0171
3065.00,0.0171
3064.00,0.0170
3063.00,0.0170
3062.00,0.0170
3061.00,0.0170
3060.00,0.0169
3059.00,0.0169
3058.00,0.0169
3057.00,0.0168
3056.00,0.0168
3055.00,0.0168
3054.00,0.0167
3053.00,0.0167
3052.00,0.0166
3051.00,0.0166
3050.00,0.0165
3049.00,0.0165
3048.00,0.0164
3047.00,0.0164
3046.00,0.0163
3045.00,0.0163
3044.00,0.0162
3043.00,0.0162
3042.00,0.0161
3041.00,0.0161
3040.00,0.0161
3039.00,0.0160
3038.00,0.0160
3037.00,0.0160
3036.00,0.0160
3035.00,0.0160
3034.00,0.0160
3033.00,0.0160
3032.00,0.0160
3031.00,0.0160
3030.00,0.0160
3029.00,0.0160
3028.00,0.0160
3027.00,0.0159
3026.00,0.0159
3025.00,0.0159
3024.00,0.0159
3023.00,0.0159
3022.00,0.0159
3021.00,0.0159
3020.00,0.0158
3019.00,0.0159
3018.00,0.0159
3017.00,0.0159
3016.00,0.0160
3015.00,0.0160
3014.00,0.0161
3013.00,0.0161
3012.00,0.0162
3011.00,0.0163
3010.00,0.0165
3009.00,0.0166
3008.00,0.0168
3007.00,0.0169
3006.00,0.0171
3005.00,0.0173
3004.00,0.0175
3003.00,0.0178
3002.00,0.0181
3001.00,0.0184
3000.00,0.0187
2999.00,0.0191
2998.00,0.0195
2997.00,0.0199
2996.00,0.0203
2995.00,0.0208
2994.00,0.0213
2993.00,0.0218
2992.00,0.0223
2991.00,0.0228
2990.00,0.0234
2989.00,0.0239
2988.00,0.0244
2987.00,0.0249
2986.00,0.0254
2985.00,0.0259
2984.00,0.0263
2983.00,0.0267
2982.00,0.0271
2981.00,0.0275
2980.00,0.0280
2979.00,0.0284
2978.00,0.0288
2977.00,0.0292
2976.00,0.0296
2975.00,0.0300
2974.00,0.0304
2973.00,0.0308
2972.00,0.0313
2971.00,0.0318
2970.00,0.0323
2969.00,0.0329
2968.00,0.0334
2967.00,0.0340
2966.00,0.0346
2965.00,0.0352
2964.00,0.0358
2963.00,0.0364
2962.00,0.0369
2961.00,0.0374
2960.00,0.0379
2959.00,0.0384
2958.00,0.0387
2957.00,0.0390
2956.00,0.0392
2955.00,0.0394
2954.00,0.0394
2953.00,0.0394
2952.00,0.0394
2951.00,0.0392
2950.00,0.0391
2949.00,0.0389
2948.00,0.0387
2947.00,0.0385
2946.00,0.0384
2945.00,0.0384
2944.00,0.0384
2943.00,0.0386
2942.00,0.0388
2941.00,0.0391
2940.00,0.0395
2939.00,0.0400
2938.00,0.0405
2937.00,0.0412
2936.00,0.0418
2935.00,0.0425
2934.00,0.0432
2933.00,0.0439
2932.00,0.0445
2931.00,0.0452
2930.00,0.0458
2929.00,0.0464
2928.00,0.0469
2927.00,0.0473
2926.00,0.0476
2925.00,0.0478
2924.00,0.0480
2923.00,0.0482
2922.00,0.0482
2921.00,0.0482
2920.00,0.0482
2919.00,0.0480
2918.00,0.0478
2917.00,0.0475
2916.00,0.0471
2915.00,0.0467
2914.00,0.0462
2913.00,0.0456
2912.00,0.0450
2911.00,0.0444
2910.00,0.0437
2909.00,0.0430
2908.00,0.0424
2907.00,0.0417
2906.00,0.0410
2905.00,0.0404
2904.00,0.0399
2903.00,0.0394
2902.00,0.0390
2901.00,0.0386
2900.00,0.0383
2899.00,0.0380
2898.00,0.0377
2897.00,0.0375
2896.00,0.0373
2895.00,0.0371
2894.00,0.0369
2893.00,0.0367
2892.00,0.0365
2891.00,0.0364
2890.00,0.0362
2889.00,0.0360
2888.00,0.0358
2887.00,0.0356
2886.00,0.0354
2885.00,0.0353
2884.00,0.0351
2883.00,0.0350
2882.00,0.0349
2881.00,0.0349
2880.00,0.0349
2879.00,0.0349
2878.00,0.0350
2877.00,0.0350
2876.00,0.0351
2875.00,0.0351
2874.00,0.0352
2873.00,0.0353
2872.00,0.0354
2871.00,0.0354
2870.00,0.0354
2869.00,0.0354
2868.00,0.0353
2867.00,0.0352
2866.00,0.0351
2865.00,0.0351
2864.00,0.0352
2863.00,0.0354
2862.00,0.0356
2861.00,0.0359
2860.00,0.0361
2859.00,0.0364
2858.00,0.0366
2857.00,0.0366
2856.00,0.0366
2855.00,0.0364
2854.00,0.0360
2853.00,0.0356
2852.00,0.0350
2851.00,0.0343
2850.00,0.0336
2849.00,0.0328
2848.00,0.0320
2847.00,0.0312
2846.00,0.0304
2845.00,0.0297
2844.00,0.0289
2843.00,0.0282
2842.00,0.0275
2841.00,0.0268
2840.00,0.0261
2839.00,0.0255
2838.00,0.0249
2837.00,0.0244
2836.00,0.0239
2835.00,0.0234
2834.00,0.0230
2833.00,0.0226
2832.00,0.0222
2831.00,0.0218
2830.00,0.0214
2829.00,0.0210
2828.00,0.0206
2827.00,0.0203
2826.00,0.0199
2825.00,0.0195
2824.00,0.0191
2823.00,0.0188
2822.00,0.0184
2821.00,0.0181
2820.00,0.0178
2819.00,0.0175
2818.00,0.0172
2817.00,0.0170
2816.00,0.0167
2815.00,0.0165
2814.00,0.0163
2813.00,0.0161
2812.00,0.0158
2811.00,0.0156
2810.00,0.0155
2809.00,0.0153
2808.00,0.0152
2807.00,0.0151
2806.00,0.0149
2805.00,0.0148
2804.00,0.0147
2803.00,0.0146
2802.00,0.0145
2801.00,0.0144
2800.00,0.0143
2799.00,0.0142
2798.00,0.0141
2797.00,0.0141
2796.00,0.0140
2795.00,0.0139
2794.00,0.0139
2793.00,0.0138
2792.00,0.0137
2791.00,0.0136
2790.00,0.0136
2789.00,0.0135
2788.00,0.0135
2787.00,0.0135
2786.00,0.0135
2785.00,0.0134
2784.00,0.0134
2783.00,0.0133
2782.00,0.0133
2781.00,0.0132
2780.00,0.0132
2779.00,0.0131
2778.00,0.0131
2777.00,0.0130
2776.00,0.0130
2775.00,0.0129
2774.00,0.0129
2773.00,0.0129
2772.00,0.0128
2771.00,0.0128
2770.00,0.0128
2769.00,0.0127
2768.00,0.0127
2767.00,0.0126
2766.00,0.0126
2765.00,0.0126
2764.00,0.0126
2763.00,0.0126
2762.00,0.0126
2761.00,0.0125
2760.00,0.0126
2759.00,0.0126
2758.00,0.0126
2757.00,0.0126
2756.00,0.0126
2755.00,0.0126
2754.00,0.0126
2753.00,0.0126
2752.00,0.0125
2751.00,0.0125
2750.00,0.0125
2749.00,0.0125
2748.00,0.0125
2747.00,0.0125
2746.00,0.0126
2745.00,0.0126
2744.00,0.0126
2743.00,0.0126
2742.00,0.0126
2741.00,0.0126
2740.00,0.0127
2739.00,0.0127
2738.00,0.0127
2737.00,0.0127
2736.00,0.0128
2735.00,0.0128
2734.00,0.0128
2733.00,0.0128
2732.00,0.0128
2731.00,0.0128
2730.00,0.0128
2729.00,0.0128
2728.00,0.0128
2727.00,0.0127
2726.00,0.0127
2725.00,0.0127
2724.00,0.0127
2723.00,0.0127
2722.00,0.0127
2721.00,0.0127
2720.00,0.0127
2719.00,0.0127
2718.00,0.0126
2717.00,0.0126
2716.00,0.0126
2715.00,0.0126
2714.00,0.0126
2713.00,0.0126
2712.00,0.0126
2711.00,0.0125
2710.00,0.0125
2709.00,0.0125
2708.00,0.0125
2707.00,0.0124
2706.00,0.0124
2705.00,0.0124
2704.00,0.0124
2703.00,0.0124
2702.00,0.0124
2701.00,0.0124
2700.00,0.0124
2699.00,0.0124
2698.00,0.0124
2697.00,0.0123
2696.00,0.0123
2695.00,0.0123
2694.00,0.0123
2693.00,0.0123
2692.00,0.0122
2691.00,0.0122
2690.00,0.0122
2689.00,0.0122
2688.00,0.0122
2687.00,0.0121
2686.00,0.0121
2685.00,0.0121
2684.00,0.0121
2683.00,0.0121
2682.00,0.0121
2681.00,0.0121
2680.00,0.0121
2679.00,0.0120
2678.00,0.0120
2677.00,0.0120
2676.00,0.0120
2675.00,0.0120
2674.00,0.0120
2673.00,0.0120
2672.00,0.0119
2671.00,0.0119
2670.00,0.0119
2669.00,0.0119
2668.00,0.0119
2667.00,0.0119
2666.00,0.0119
2665.00,0.0119
2664.00,0.0119
2663.00,0.0119
2662.00,0.0119
2661.00,0.0120
2660.00,0.0120
2659.00,0.0119
2658.00,0.0119
2657.00,0.0119
2656.00,0.0119
2655.00,0.0119
2654.00,0.0118
2653.00,0.0118
2652.00,0.0118
2651.00,0.0118
2650.00,0.0117
2649.00,0.0117
2648.00,0.0117
2647.00,0.0117
2646.00,0.0116
2645.00,0.0116
2644.00,0.0116
2643.00,0.0116
2642.00,0.0115
2641.00,0.0115
2640.00,0.0115
2639.00,0.0114
2638.00,0.0114
2637.00,0.0114
2636.00,0.0114
2635.00,0.0113
2634.00,0.0113
2633.00,0.0113
2632.00,0.0113
2631.00,0.0112
2630.00,0.0112
2629.00,0.0112
2628.00,0.0111
2627.00,0.0111
2626.00,0.0111
2625.00,0.0110
2624.00,0.0110
2623.00,0.0109
2622.00,0.0109
2621.00,0.0109
2620.00,0.0109
2619.00,0.0109
2618.00,0.0109
2617.00,0.0108
2616.00,0.0108
2615.00,0.0108
2614.00,0.0108
2613.00,0.0108
2612.00,0.0108
2611.00,0.0107
2610.00,0.0107
2609.00,0.0107
2608.00,0.0106
2607.00,0.0106
2606.00,0.0106
2605.00,0.0106
2604.00,0.0106
2603.00,0.0106
2602.00,0.0105
2601.00,0.0105
2600.00,0.0105
2599.00,0.0105
2598.00,0.0105
2597.00,0.0105
2596.00,0.0106
2595.00,0.0106
2594.00,0.0106
2593.00,0.0106
2592.00,0.0106
2591.00,0.0106
2590.00,0.0106
2589.00,0.0106
2588.00,0.0106
2587.00,0.0105
2586.00,0.0105
2585.00,0.0105
2584.00,0.0105
2583.00,0.0105
2582.00,0.0105
2581.00,0.0105
2580.00,0.0105
2579.00,0.0105
2578.00,0.0105
2577.00,0.0105
2576.00,0.0105
2575.00,0.0105
2574.00,0.0105
2573.00,0.0104
2572.00,0.0104
2571.00,0.0104
2570.00,0.0103
2569.00,0.0103
2568.00,0.0102
2567.00,0.0102
2566.00,0.0102
2565.00,0.0102
2564.00,0.0102
2563.00,0.0102
2562.00,0.0101
2561.00,0.0101
2560.00,0.0101
2559.00,0.0101
2558.00,0.0101
2557.00,0.0100
2556.00,0.0100
2555.00,0.0099
2554.00,0.0099
2553.00,0.0099
2552.00,0.0098
2551.00,0.0099
2550.00,0.0099
2549.00,0.0099
2548.00,0.0099
2547.00,0.0099
2546.00,0.0098
2545.00,0.0098
2544.00,0.0098
2543.00,0.0098
2542.00,0.0098
2541.00,0.0098
2540.00,0.0098
2539.00,0.0098
2538.00,0.0098
2537.00,0.0098
2536.00,0.0098
2535.00,0.0098
2534.00,0.0098
2533.00,0.0098
2532.00,0.0098
2531.00,0.0097
2530.00,0.0098
2529.00,0.0098
2528.00,0.0098
2527.00,0.0097
2526.00,0.0097
2525.00,0.0097
2524.00,0.0097
2523.00,0.0096
2522.00,0.0096
2521.00,0.0096
2520.00,0.0096
2519.00,0.0095
2518.00,0.0095
2517.00,0.0096
2516.00,0.0096
2515.00,0.0096
2514.00,0.0095
2513.00,0.0095
2512.00,0.0095
2511.00,0.0095
2510.00,0.0094
2509.00,0.0094
2508.00,0.0094
2507.00,0.0093
2506.00,0.0093
2505.00,0.0093
2504.00,0.0093
2503.00,0.0093
2502.00,0.0093
2501.00,0.0093
2500.00,0.0093
2499.00,0.0093
2498.00,0.0092
2497.00,0.0092
2496.00,0.0092
2495.00,0.0093
2494.00,0.0093
2493.00,0.0092
2492.00,0.0092
2491.00,0.0092
2490.00,0.0092
2489.00,0.0092
2488.00,0.0092
2487.00,0.0092
2486.00,0.0092
2485.00,0.0092
2484.00,0.0092
2483.00,0.0092
2482.00,0.0091
2481.00,0.0091
2480.00,0.0091
2479.00,0.0090
2478.00,0.0090
2477.00,0.0090
2476.00,0.0090
2475.00,0.0090
2474.00,0.0090
2473.00,0.0090
2472.00,0.0090
2471.00,0.0090
2470.00,0.0090
2469.00,0.0090
2468.00,0.0090
2467.00,0.0090
2466.00,0.0089
2465.00,0.0089
2464.00,0.0089
2463.00,0.0089
2462.00,0.0088
2461.00,0.0088
2460.00,0.0089
2459.00,0.0089
2458.00,0.0090
2457.00,0.0090
2456.00,0.0090
2455.00,0.0089
2454.00,0.0089
2453.00,0.0089
2452.00,0.0089
2451.00,0.0089
2450.00,0.0089
2449.00,0.0089
2448.00,0.0089
2447.00,0.0089
2446.00,0.0089
2445.00,0.0088
2444.00,0.0089
2443.00,0.0088
2442.00,0.0088
2441.00,0.0089
2440.00,0.0089
2439.00,0.0089
2438.00,0.0089
2437.00,0.0089
2436.00,0.0088
2435.00,0.0088
2434.00,0.0087
2433.00,0.0087
2432.00,0.0087
2431.00,0.0087
2430.00,0.0087
2429.00,0.0087
2428.00,0.0087
2427.00,0.0087
2426.00,0.0086
2425.00,0.0086
2424.00,0.0087
2423.00,0.0087
2422.00,0.0087
2421.00,0.0087
2420.00,0.0087
2419.00,0.0087
2418.00,0.0087
2417.00,0.0087
2416.00,0.0087
2415.00,0.0087
2414.00,0.0087
2413.00,0.0087
2412.00,0.0087
2411.00,0.0087
2410.00,0.0087
2409.00,0.0087
2408.00,0.0086
2407.00,0.0086
2406.00,0.0086
2405.00,0.0086
2404.00,0.0086
2403.00,0.0086
2402.00,0.0086
2401.00,0.0086
2400.00,0.0086
2399.00,0.0086
2398.00,0.0086
2397.00,0.0086
2396.00,0.0086
2395.00,0.0086
2394.00,0.0086
2393.00,0.0086
2392.00,0.0085
2391.00,0.0085
2390.00,0.0085
2389.00,0.0085
2388.00,0.0085
2387.00,0.0085
2386.00,0.0085
2385.00,0.0085
2384.00,0.0085
2383.00,0.0085
2382.00,0.0084
2381.00,0.0084
2380.00,0.0084
2379.00,0.0084
2378.00,0.0084
2377.00,0.0084
2376.00,0.0084
2375.00,0.0084
2374.00,0.0084
2373.00,0.0084
2372.00,0.0084
2371.00,0.0084
2370.00,0.0084
2369.00,0.0084
2368.00,0.0084
2367.00,0.0084
2366.00,0.0084
2365.00,0.0084
2364.00,0.0085
2363.00,0.0085
2362.00,0.0084
2361.00,0.0084
2360.00,0.0085
2359.00,0.0085
2358.00,0.0085
2357.00,0.0085
2356.00,0.0085
2355.00,0.0085
2354.00,0.0084
2353.00,0.0084
2352.00,0.0084
2351.00,0.0085
2350.00,0.0085
2349.00,0.0086
2348.00,0.0086
2347.00,0.0086
2346.00,0.0086
2345.00,0.0086
2344.00,0.0086
2343.00,0.0086
2342.00,0.0086
2341.00,0.0087
2340.00,0.0087
2339.00,0.0087
2338.00,0.0087
2337.00,0.0087
2336.00,0.0086
2335.00,0.0086
2334.00,0.0086
2333.00,0.0086
2332.00,0.0086
2331.00,0.0087
2330.00,0.0087
2329.00,0.0089
2328.00,0.0091
2327.00,0.0093
2326.00,0.0094
2325.00,0.0095
2324.00,0.0094
2323.00,0.0093
2322.00,0.0092
2321.00,0.0091
2320.00,0.0091
2319.00,0.0090
2318.00,0.0089
2317.00,0.0089
2316.00,0.0089
2315.00,0.0089
2314.00,0.0088
2313.00,0.0089
2312.00,0.0089
2311.00,0.0089
2310.00,0.0088
2309.00,0.0088
2308.00,0.0088
2307.00,0.0087
2306.00,0.0087
2305.00,0.0087
2304.00,0.0087
2303.00,0.0088
2302.00,0.0088
2301.00,0.0088
2300.00,0.0088
2299.00,0.0088
2298.00,0.0088
2297.00,0.0088
2296.00,0.0089
2295.00,0.0089
2294.00,0.0089
2293.00,0.0090
2292.00,0.0090
2291.00,0.0090
2290.00,0.0090
2289.00,0.0090
2288.00,0.0091
2287.00,0.0091
2286.00,0.0090
2285.00,0.0090
2284.00,0.0089
2283.00,0.0088
2282.00,0.0088
2281.00,0.0088
2280.00,0.0088
2279.00,0.0088
2278.00,0.0087
2277.00,0.0087
2276.00,0.0086
2275.00,0.0086
2274.00,0.0086
2273.00,0.0086
2272.00,0.0086
2271.00,0.0086
2270.00,0.0086
2269.00,0.0085
2268.00,0.0085
2267.00,0.0085
2266.00,0.0085
2265.00,0.0084
2264.00,0.0084
2263.00,0.0084
2262.00,0.0084
2261.00,0.0085
2260.00,0.0085
2259.00,0.0084
2258.00,0.0083
2257.00,0.0082
2256.00,0.0082
2255.00,0.0083
2254.00,0.0083
2253.00,0.0083
2252.00,0.0083
2251.00,0.0083
2250.00,0.0083
2249.00,0.0083
2248.00,0.0083
2247.00,0.0084
2246.00,0.0084
2245.00,0.0084
2244.00,0.0085
2243.00,0.0085
2242.00,0.0085
2241.00,0.0085
2240.00,0.0085
2239.00,0.0084
2238.00,0.0084
2237.00,0.0083
2236.00,0.0083
2235.00,0.0084
2234.00,0.0084
2233.00,0.0083
2232.00,0.0083
2231.00,0.0083
2230.00,0.0082
2229.00,0.0082
2228.00,0.0082
2227.00,0.0082
2226.00,0.0082
2225.00,0.0083
2224.00,0.0083
2223.00,0.0084
2222.00,0.0084
2221.00,0.0084
2220.00,0.0084
2219.00,0.0084
2218.00,0.0085
2217.00,0.0086
2216.00,0.0085
2215.00,0.0085
2214.00,0.0084
2213.00,0.0083
2212.00,0.0083
2211.00,0.0083
2210.00,0.0084
2209.00,0.0084
2208.00,0.0083
2207.00,0.0083
2206.00,0.0082
2205.00,0.0082
2204.00,0.0083
2203.00,0.0083
2202.00,0.0084
2201.00,0.0085
2200.00,0.0085
2199.00,0.0085
2198.00,0.0085
2197.00,0.0084
2196.00,0.0084
2195.00,0.0083
2194.00,0.0082
2193.00,0.0083
2192.00,0.0084
2191.00,0.0084
2190.00,0.0084
2189.00,0.0084
2188.00,0.0084
2187.00,0.0085
2186.00,0.0084
2185.00,0.0084
2184.00,0.0083
2183.00,0.0082
2182.00,0.0080
2181.00,0.0079
2180.00,0.0079
2179.00,0.0079
2178.00,0.0078
2177.00,0.0077
2176.00,0.0077
2175.00,0.0078
2174.00,0.0079
2173.00,0.0081
2172.00,0.0082
2171.00,0.0083
2170.00,0.0084
2169.00,0.0085
2168.00,0.0086
2167.00,0.0086
2166.00,0.0086
2165.00,0.0087
2164.00,0.0090
2163.00,0.0092
2162.00,0.0089
2161.00,0.0081
2160.00,0.0072
2159.00,0.0064
2158.00,0.0060
2157.00,0.0061
2156.00,0.0064
2155.00,0.0067
2154.00,0.0068
2153.00,0.0069
2152.00,0.0069
2151.00,0.0068
2150.00,0.0068
2149.00,0.0068
2148.00,0.0069
2147.00,0.0069
2146.00,0.0068
2145.00,0.0068
2144.00,0.0068
2143.00,0.0068
2142.00,0.0068
2141.00,0.0069
2140.00,0.0070
2139.00,0.0070
2138.00,0.0069
2137.00,0.0068
2136.00,0.0067
2135.00,0.0066
2134.00,0.0067
2133.00,0.0068
2132.00,0.0069
2131.00,0.0070
2130.00,0.0070
2129.00,0.0071
2128.00,0.0071
2127.00,0.0072
2126.00,0.0073
2125.00,0.0074
2124.00,0.0075
2123.00,0.0076
2122.00,0.0076
2121.00,0.0077
2120.00,0.0077
2119.00,0.0078
2118.00,0.0078
2117.00,0.0079
2116.00,0.0079
2115.00,0.0079
2114.00,0.0079
2113.00,0.0079
2112.00,0.0079
2111.00,0.0078
2110.00,0.0077
2109.00,0.0076
2108.00,0.0076
2107.00,0.0077
2106.00,0.0077
2105.00,0.0078
2104.00,0.0078
2103.00,0.0078
2102.00,0.0077
2101.00,0.0076
2100.00,0.0075
2099.00,0.0075
2098.00,0.0074
2097.00,0.0073
2096.00,0.0073
2095.00,0.0072
2094.00,0.0071
2093.00,0.0071
2092.00,0.0072
2091.00,0.0073
2090.00,0.0074
2089.00,0.0075
2088.00,0.0076
2087.00,0.0076
2086.00,0.0076
2085.00,0.0076
2084.00,0.0076
2083.00,0.0076
2082.00,0.0077
2081.00,0.0078
2080.00,0.0079
2079.00,0.0079
2078.00,0.0078
2077.00,0.0078
2076.00,0.0078
2075.00,0.0078
2074.00,0.0077
2073.00,0.0077
2072.00,0.0077
2071.00,0.0077
2070.00,0.0076
2069.00,0.0076
2068.00,0.0076
2067.00,0.0075
2066.00,0.0074
2065.00,0.0074
2064.00,0.0074
2063.00,0.0075
2062.00,0.0075
2061.00,0.0075
2060.00,0.0076
2059.00,0.0076
2058.00,0.0077
2057.00,0.0077
2056.00,0.0076
2055.00,0.0076
2054.00,0.0077
2053.00,0.0080
2052.00,0.0082
2051.00,0.0082
2050.00,0.0080
2049.00,0.0077
2048.00,0.0076
2047.00,0.0074
2046.00,0.0073
2045.00,0.0074
2044.00,0.0075
2043.00,0.0076
2042.00,0.0075
2041.00,0.0075
2040.00,0.0075
2039.00,0.0075
2038.00,0.0074
2037.00,0.0074
2036.00,0.0074
2035.00,0.0073
2034.00,0.0072
2033.00,0.0072
2032.00,0.0072
2031.00,0.0072
2030.00,0.0070
2029.00,0.0070
2028.00,0.0071
2027.00,0.0072
2026.00,0.0072
2025.00,0.0072
2024.00,0.0071
2023.00,0.0069
2022.00,0.0066
2021.00,0.0065
2020.00,0.0066
2019.00,0.0068
2018.00,0.0069
2017.00,0.0071
2016.00,0.0072
2015.00,0.0072
2014.00,0.0072
2013.00,0.0071
2012.00,0.0071
2011.00,0.0071
2010.00,0.0070
2009.00,0.0070
2008.00,0.0069
2007.00,0.0068
2006.00,0.0067
2005.00,0.0067
2004.00,0.0069
2003.00,0.0070
2002.00,0.0070
2001.00,0.0071
2000.00,0.0072
1999.00,0.0073
1998.00,0.0074
1997.00,0.0074
1996.00,0.0076
1995.00,0.0076
1994.00,0.0075
1993.00,0.0075
1992.00,0.0075
1991.00,0.0075
1990.00,0.0075
1989.00,0.0075
1988.00,0.0076
1987.00,0.0075
1986.00,0.0074
1985.00,0.0075
1984.00,0.0077
1983.00,0.0079
1982.00,0.0080
1981.00,0.0080
1980.00,0.0078
1979.00,0.0073
1978.00,0.0068
1977.00,0.0065
1976.00,0.0066
1975.00,0.0067
1974.00,0.0068
1973.00,0.0068
1972.00,0.0069
1971.00,0.0069
1970.00,0.0067
1969.00,0.0066
1968.00,0.0066
1967.00,0.0066
1966.00,0.0065
1965.00,0.0066
1964.00,0.0068
1963.00,0.0068
1962.00,0.0067
1961.00,0.0065
1960.00,0.0064
1959.00,0.0063
1958.00,0.0063
1957.00,0.0064
1956.00,0.0066
1955.00,0.0066
1954.00,0.0065
1953.00,0.0064
1952.00,0.0065
1951.00,0.0066
1950.00,0.0066
1949.00,0.0067
1948.00,0.0069
1947.00,0.0069
1946.00,0.0068
1945.00,0.0068
1944.00,0.0069
1943.00,0.0070
1942.00,0.0069
1941.00,0.0070
1940.00,0.0070
1939.00,0.0069
1938.00,0.0069
1937.00,0.0068
1936.00,0.0069
1935.00,0.0069
1934.00,0.0069
1933.00,0.0068
1932.00,0.0068
1931.00,0.0069
1930.00,0.0070
1929.00,0.0071
1928.00,0.0071
1927.00,0.0071
1926.00,0.0070
1925.00,0.0070
1924.00,0.0070
1923.00,0.0071
1922.00,0.0071
1921.00,0.0071
1920.00,0.0072
1919.00,0.0072
1918.00,0.0071
1917.00,0.0071
1916.00,0.0072
1915.00,0.0072
1914.00,0.0071
1913.00,0.0071
1912.00,0.0071
1911.00,0.0072
1910.00,0.0072
1909.00,0.0072
1908.00,0.0073
1907.00,0.0072
1906.00,0.0071
1905.00,0.0071
1904.00,0.0072
1903.00,0.0072
1902.00,0.0072
1901.00,0.0072
1900.00,0.0072
1899.00,0.0072
1898.00,0.0072
1897.00,0.0072
1896.00,0.0073
1895.00,0.0072
1894.00,0.0072
1893.00,0.0072
1892.00,0.0072
1891.00,0.0072
1890.00,0.0071
1889.00,0.0070
1888.00,0.0071
1887.00,0.0071
1886.00,0.0072
1885.00,0.0073
1884.00,0.0073
1883.00,0.0073
1882.00,0.0072
1881.00,0.0072
1880.00,0.0072
1879.00,0.0072
1878.00,0.0072
1877.00,0.0071
1876.00,0.0071
1875.00,0.0071
1874.00,0.0071
1873.00,0.0071
1872.00,0.0072
1871.00,0.0072
1870.00,0.0071
1869.00,0.0071
1868.00,0.0071
1867.00,0.0072
1866.00,0.0072
1865.00,0.0072
1864.00,0.0073
1863.00,0.0073
1862.00,0.0073
1861.00,0.0072
1860.00,0.0073
1859.00,0.0073
1858.00,0.0072
1857.00,0.0072
1856.00,0.0072
1855.00,0.0072
1854.00,0.0072
1853.00,0.0072
1852.00,0.0072
1851.00,0.0072
1850.00,0.0072
1849.00,0.0072
1848.00,0.0072
1847.00,0.0072
1846.00,0.0071
1845.00,0.0071
1844.00,0.0071
1843.00,0.0071
1842.00,0.0071
1841.00,0.0071
1840.00,0.0072
1839.00,0.0072
1838.00,0.0072
1837.00,0.0072
1836.00,0.0072
1835.00,0.0072
1834.00,0.0072
1833.00,0.0072
1832.00,0.0072
1831.00,0.0072
1830.00,0.0071
1829.00,0.0071
1828.00,0.0071
1827.00,0.0071
1826.00,0.0071
1825.00,0.0071
1824.00,0.0072
1823.00,0.0072
1822.00,0.0071
1821.00,0.0071
1820.00,0.0071
1819.00,0.0070
1818.00,0.0069
1817.00,0.0069
1816.00,0.0070
1815.00,0.0070
1814.00,0.0070
1813.00,0.0071
1812.00,0.0071
1811.00,0.0071
1810.00,0.0071
1809.00,0.0071
1808.00,0.0071
1807.00,0.0071
1806.00,0.0070
1805.00,0.0070
1804.00,0.0070
1803.00,0.0070
1802.00,0.0070
1801.00,0.0070
1800.00,0.0071
1799.00,0.0071
1798.00,0.0071
1797.00,0.0071
1796.00,0.0072
1795.00,0.0071
1794.00,0.0070
1793.00,0.0070
1792.00,0.0070
1791.00,0.0070
1790.00,0.0071
1789.00,0.0071
1788.00,0.0071
1787.00,0.0071
1786.00,0.0071
1785.00,0.0071
1784.00,0.0071
1783.00,0.0072
1782.00,0.0072
1781.00,0.0072
1780.00,0.0072
1779.00,0.0072
1778.00,0.0072
1777.00,0.0073
1776.00,0.0073
1775.00,0.0073
1774.00,0.0073
1773.00,0.0072
1772.00,0.0072
1771.00,0.0072
1770.00,0.0072
1769.00,0.0073
1768.00,0.0074
1767.00,0.0074
1766.00,0.0074
1765.00,0.0074
1764.00,0.0074
1763.00,0.0075
1762.00,0.0074
1761.00,0.0075
1760.00,0.0076
1759.00,0.0076
1758.00,0.0076
1757.00,0.0076
1756.00,0.0077
1755.00,0.0077
1754.00,0.0078
1753.00,0.0078
1752.00,0.0079
1751.00,0.0079
1750.00,0.0079
1749.00,0.0080
1748.00,0.0081
1747.00,0.0082
1746.00,0.0082
1745.00,0.0082
1744.00,0.0083
1743.00,0.0083
1742.00,0.0082
1741.00,0.0082
1740.00,0.0083
1739.00,0.0084
1738.00,0.0085
1737.00,0.0086
1736.00,0.0087
1735.00,0.0087
1734.00,0.0087
1733.00,0.0089
1732.00,0.0091
1731.00,0.0093
1730.00,0.0094
1729.00,0.0095
1728.00,0.0097
1727.00,0.0099
1726.00,0.0101
1725.00,0.0103
1724.00,0.0105
1723.00,0.0108
1722.00,0.0109
1721.00,0.0111
1720.00,0.0114
1719.00,0.0117
1718.00,0.0119
1717.00,0.0123
1716.00,0.0128
1715.00,0.0133
1714.00,0.0138
1713.00,0.0144
1712.00,0.0151
1711.00,0.0158
1710.00,0.0166
1709.00,0.0174
1708.00,0.0185
1707.00,0.0198
1706.00,0.0213
1705.00,0.0230
1704.00,0.0248
1703.00,0.0265
1702.00,0.0284
1701.00,0.0316
1700.00,0.0361
1699.00,0.0403
1698.00,0.0438
1697.00,0.0478
1696.00,0.0533
1695.00,0.0594
1694.00,0.0649
1693.00,0.0696
1692.00,0.0744
1691.00,0.0797
1690.00,0.0853
1689.00,0.0908
1688.00,0.0957
1687.00,0.0998
1686.00,0.1038
1685.00,0.1091
1684.00,0.1155
1683.00,0.1209
1682.00,0.1242
1681.00,0.1264
1680.00,0.1282
1679.00,0.1298
1678.00,0.1309
1677.00,0.1318
1676.00,0.1333
1675.00,0.1352
1674.00,0.1368
1673.00,0.1379
1672.00,0.1387
1671.00,0.1401
1670.00,0.1423
1669.00,0.1454
1668.00,0.1484
1667.00,0.1509
1666.00,0.1529
1665.00,0.1550
1664.00,0.1578
1663.00,0.1613
1662.00,0.1651
1661.00,0.1683
1660.00,0.1708
1659.00,0.1728
1658.00,0.1742
1657.00,0.1750
1656.00,0.1752
1655.00,0.1750
1654.00,0.1756
1653.00,0.1771
1652.00,0.1777
1651.00,0.1760
1650.00,0.1729
1649.00,0.1689
1648.00,0.1642
1647.00,0.1589
1646.00,0.1532
1645.00,0.1473
1644.00,0.1412
1643.00,0.1349
1642.00,0.1284
1641.00,0.1218
1640.00,0.1155
1639.00,0.1095
1638.00,0.1039
1637.00,0.0982
1636.00,0.0926
1635.00,0.0876
1634.00,0.0835
1633.00,0.0801
1632.00,0.0769
1631.00,0.0740
1630.00,0.0713
1629.00,0.0690
1628.00,0.0671
1627.00,0.0656
1626.00,0.0644
1625.00,0.0634
1624.00,0.0627
1623.00,0.0623
1622.00,0.0619
1621.00,0.0614
1620.00,0.0607
1619.00,0.0599
1618.00,0.0590
1617.00,0.0579
1616.00,0.0568
1615.00,0.0556
1614.00,0.0542
1613.00,0.0528
1612.00,0.0514
1611.00,0.0501
1610.00,0.0491
1609.00,0.0485
1608.00,0.0482
1607.00,0.0485
1606.00,0.0492
1605.00,0.0503
1604.00,0.0518
1603.00,0.0536
1602.00,0.0555
1601.00,0.0572
1600.00,0.0585
1599.00,0.0594
1598.00,0.0596
1597.00,0.0593
1596.00,0.0584
1595.00,0.0571
1594.00,0.0555
1593.00,0.0537
1592.00,0.0519
1591.00,0.0503
1590.00,0.0487
1589.00,0.0472
1588.00,0.0459
1587.00,0.0446
1586.00,0.0433
1585.00,0.0420
1584.00,0.0407
1583.00,0.0393
1582.00,0.0380
1581.00,0.0367
1580.00,0.0354
1579.00,0.0343
1578.00,0.0332
1577.00,0.0320
1576.00,0.0309
1575.00,0.0301
1574.00,0.0294
1573.00,0.0287
1572.00,0.0280
1571.00,0.0273
1570.00,0.0267
1569.00,0.0262
1568.00,0.0257
1567.00,0.0254
1566.00,0.0250
1565.00,0.0246
1564.00,0.0242
1563.00,0.0238
1562.00,0.0234
1561.00,0.0229
1560.00,0.0225
1559.00,0.0222
1558.00,0.0221
1557.00,0.0221
1556.00,0.0221
1555.00,0.0220
1554.00,0.0219
1553.00,0.0218
1552.00,0.0217
1551.00,0.0216
1550.00,0.0216
1549.00,0.0215
1548.00,0.0215
1547.00,0.0214
1546.00,0.0214
1545.00,0.0215
1544.00,0.0215
1543.00,0.0215
1542.00,0.0214
1541.00,0.0214
1540.00,0.0214
1539.00,0.0215
1538.00,0.0215
1537.00,0.0215
1536.00,0.0214
1535.00,0.0213
1534.00,0.0211
1533.00,0.0210
1532.00,0.0209
1531.00,0.0208
1530.00,0.0207
1529.00,0.0206
1528.00,0.0206
1527.00,0.0205
1526.00,0.0205
1525.00,0.0204
1524.00,0.0204
1523.00,0.0205
1522.00,0.0205
1521.00,0.0206
1520.00,0.0208
1519.00,0.0209
1518.00,0.0210
1517.00,0.0210
1516.00,0.0210
1515.00,0.0210
1514.00,0.0210
1513.00,0.0210
1512.00,0.0211
1511.00,0.0212
1510.00,0.0213
1509.00,0.0215
1508.00,0.0219
1507.00,0.0224
1506.00,0.0232
1505.00,0.0242
1504.00,0.0252
1503.00,0.0263
1502.00,0.0275
1501.00,0.0289
1500.00,0.0305
1499.00,0.0323
1498.00,0.0343
1497.00,0.0364
1496.00,0.0383
1495.00,0.0398
1494.00,0.0406
1493.00,0.0408
1492.00,0.0406
1491.00,0.0397
1490.00,0.0385
1489.00,0.0368
1488.00,0.0350
1487.00,0.0331
1486.00,0.0313
1485.00,0.0297
1484.00,0.0284
1483.00,0.0272
1482.00,0.0263
1481.00,0.0256
1480.00,0.0252
1479.00,0.0250
1478.00,0.0250
1477.00,0.0253
1476.00,0.0259
1475.00,0.0268
1474.00,0.0280
1473.00,0.0301
1472.00,0.0329
1471.00,0.0360
1470.00,0.0392
1469.00,0.0426
1468.00,0.0464
1467.00,0.0505
1466.00,0.0552
1465.00,0.0606
1464.00,0.0657
1463.00,0.0697
1462.00,0.0724
1461.00,0.0739
1460.00,0.0744
1459.00,0.0739
1458.00,0.0725
1457.00,0.0704
1456.00,0.0680
1455.00,0.0659
1454.00,0.0641
1453.00,0.0628
1452.00,0.0620
1451.00,0.0618
1450.00,0.0624
1449.00,0.0638
1448.00,0.0661
1447.00,0.0690
1446.00,0.0722
1445.00,0.0756
1444.00,0.0792
1443.00,0.0829
1442.00,0.0866
1441.00,0.0902
1440.00,0.0934
1439.00,0.0963
1438.00,0.0995
1437.00,0.1035
1436.00,0.1080
1435.00,0.1120
1434.00,0.1154
1433.00,0.1187
1432.00,0.1223
1431.00,0.1259
1430.00,0.1293
1429.00,0.1322
1428.00,0.1344
1427.00,0.1358
1426.00,0.1368
1425.00,0.1378
1424.00,0.1387
1423.00,0.1387
1422.00,0.1377
1421.00,0.1354
1420.00,0.1315
1419.00,0.1258
1418.00,0.1189
1417.00,0.1117
1416.00,0.1042
1415.00,0.0967
1414.00,0.0896
1413.00,0.0832
1412.00,0.0774
1411.00,0.0724
1410.00,0.0682
1409.00,0.0647
1408.00,0.0619
1407.00,0.0594
1406.00,0.0574
1405.00,0.0558
1404.00,0.0545
1403.00,0.0534
1402.00,0.0525
1401.00,0.0519
1400.00,0.0513
1399.00,0.0509
1398.00,0.0507
1397.00,0.0506
1396.00,0.0504
1395.00,0.0504
1394.00,0.0506
1393.00,0.0509
1392.00,0.0512
1391.00,0.0515
1390.00,0.0520
1389.00,0.0527
1388.00,0.0536
1387.00,0.0548
1386.00,0.0561
1385.00,0.0575
1384.00,0.0588
1383.00,0.0601
1382.00,0.0614
1381.00,0.0627
1380.00,0.0638
1379.00,0.0648
1378.00,0.0658
1377.00,0.0664
1376.00,0.0667
1375.00,0.0666
1374.00,0.0661
1373.00,0.0652
1372.00,0.0641
1371.00,0.0628
1370.00,0.0616
1369.00,0.0603
1368.00,0.0589
1367.00,0.0576
1366.00,0.0563
1365.00,0.0549
1364.00,0.0535
1363.00,0.0522
1362.00,0.0510
1361.00,0.0499
1360.00,0.0489
1359.00,0.0480
1358.00,0.0474
1357.00,0.0469
1356.00,0.0464
1355.00,0.0461
1354.00,0.0458
1353.00,0.0454
1352.00,0.0450
1351.00,0.0445
1350.00,0.0440
1349.00,0.0434
1348.00,0.0427
1347.00,0.0420
1346.00,0.0414
1345.00,0.0408
1344.00,0.0403
1343.00,0.0398
1342.00,0.0395
1341.00,0.0393
1340.00,0.0391
1339.00,0.0390
1338.00,0.0390
1337.00,0.0390
1336.00,0.0391
1335.00,0.0392
1334.00,0.0395
1333.00,0.0398
1332.00,0.0402
1331.00,0.0408
1330.00,0.0415
1329.00,0.0424
1328.00,0.0435
1327.00,0.0447
1326.00,0.0460
1325.00,0.0474
1324.00,0.0489
1323.00,0.0504
1322.00,0.0518
1321.00,0.0532
1320.00,0.0543
1319.00,0.0551
1318.00,0.0556
1317.00,0.0558
1316.00,0.0556
1315.00,0.0551
1314.00,0.0544
1313.00,0.0535
1312.00,0.0524
1311.00,0.0514
1310.00,0.0504
1309.00,0.0496
1308.00,0.0489
1307.00,0.0485
1306.00,0.0484
1305.00,0.0486
1304.00,0.0493
1303.00,0.0504
1302.00,0.0521
1301.00,0.0544
1300.00,0.0576
1299.00,0.0616
1298.00,0.0666
1297.00,0.0726
1296.00,0.0795
1295.00,0.0870
1294.00,0.0949
1293.00,0.1027
1292.00,0.1101
1291.00,0.1168
1290.00,0.1225
1289.00,0.1271
1288.00,0.1305
1287.00,0.1325
1286.00,0.1331
1285.00,0.1324
1284.00,0.1306
1283.00,0.1277
1282.00,0.1244
1281.00,0.1211
1280.00,0.1181
1279.00,0.1159
1278.00,0.1146
1277.00,0.1142
1276.00,0.1145
1275.00,0.1153
1274.00,0.1163
1273.00,0.1171
1272.00,0.1174
1271.00,0.1170
1270.00,0.1157
1269.00,0.1136
1268.00,0.1107
1267.00,0.1072
1266.00,0.1032
1265.00,0.0991
1264.00,0.0949
1263.00,0.0907
1262.00,0.0867
1261.00,0.0829
1260.00,0.0794
1259.00,0.0761
1258.00,0.0731
1257.00,0.0704
1256.00,0.0678
1255.00,0.0655
1254.00,0.0633
1253.00,0.0613
1252.00,0.0594
1251.00,0.0577
1250.00,0.0561
1249.00,0.0548
1248.00,0.0535
1247.00,0.0525
1246.00,0.0516
1245.00,0.0509
1244.00,0.0505
1243.00,0.0502
1242.00,0.0501
1241.00,0.0503
1240.00,0.0507
1239.00,0.0514
1238.00,0.0523
1237.00,0.0536
1236.00,0.0551
1235.00,0.0568
1234.00,0.0587
1233.00,0.0607
1232.00,0.0627
1231.00,0.0646
1230.00,0.0661
1229.00,0.0674
1228.00,0.0682
1227.00,0.0688
1226.00,0.0690
1225.00,0.0689
1224.00,0.0687
1223.00,0.0684
1222.00,0.0679
1221.00,0.0673
1220.00,0.0665
1219.00,0.0657
1218.00,0.0646
1217.00,0.0634
1216.00,0.0621
1215.00,0.0607
1214.00,0.0592
1213.00,0.0578
1212.00,0.0563
1211.00,0.0550
1210.00,0.0538
1209.00,0.0527
1208.00,0.0517
1207.00,0.0509
1206.00,0.0502
1205.00,0.0495
1204.00,0.0489
1203.00,0.0483
1202.00,0.0477
1201.00,0.0471
1200.00,0.0464
1199.00,0.0458
1198.00,0.0452
1197.00,0.0446
1196.00,0.0440
1195.00,0.0434
1194.00,0.0429
1193.00,0.0425
1192.00,0.0421
1191.00,0.0418
1190.00,0.0416
1189.00,0.0413
1188.00,0.0411
1187.00,0.0410
1186.00,0.0409
1185.00,0.0408
1184.00,0.0408
1183.00,0.0408
1182.00,0.0410
1181.00,0.0413
1180.00,0.0417
1179.00,0.0422
1178.00,0.0429
1177.00,0.0438
1176.00,0.0449
1175.00,0.0462
1174.00,0.0476
1173.00,0.0492
1172.00,0.0508
1171.00,0.0525
1170.00,0.0542
1169.00,0.0558
1168.00,0.0572
1167.00,0.0584
1166.00,0.0593
1165.00,0.0597
1164.00,0.0598
1163.00,0.0594
1162.00,0.0586
1161.00,0.0576
1160.00,0.0563
1159.00,0.0550
1158.00,0.0536
1157.00,0.0523
1156.00,0.0509
1155.00,0.0495
1154.00,0.0482
1153.00,0.0468
1152.00,0.0455
1151.00,0.0441
1150.00,0.0428
1149.00,0.0415
1148.00,0.0403
1147.00,0.0390
1146.00,0.0378
1145.00,0.0367
1144.00,0.0357
1143.00,0.0349
1142.00,0.0341
1141.00,0.0335
1140.00,0.0330
1139.00,0.0325
1138.00,0.0319
1137.00,0.0314
1136.00,0.0309
1135.00,0.0304
1134.00,0.0300
1133.00,0.0295
1132.00,0.0291
1131.00,0.0288
1130.00,0.0285
1129.00,0.0283
1128.00,0.0282
1127.00,0.0281
1126.00,0.0280
1125.00,0.0280
1124.00,0.0280
1123.00,0.0280
1122.00,0.0280
1121.00,0.0280
1120.00,0.0281
1119.00,0.0282
1118.00,0.0285
1117.00,0.0287
1116.00,0.0291
1115.00,0.0295
1114.00,0.0300
1113.00,0.0306
1112.00,0.0311
1111.00,0.0316
1110.00,0.0320
1109.00,0.0324
1108.00,0.0326
1107.00,0.0327
1106.00,0.0327
1105.00,0.0326
1104.00,0.0325
1103.00,0.0324
1102.00,0.0324
1101.00,0.0326
1100.00,0.0328
1099.00,0.0331
1098.00,0.0335
1097.00,0.0339
1096.00,0.0342
1095.00,0.0345
1094.00,0.0348
1093.00,0.0350
1092.00,0.0351
1091.00,0.0353
1090.00,0.0355
1089.00,0.0359
1088.00,0.0364
1087.00,0.0370
1086.00,0.0377
1085.00,0.0383
1084.00,0.0388
1083.00,0.0392
1082.00,0.0393
1081.00,0.0392
1080.00,0.0389
1079.00,0.0385
1078.00,0.0380
1077.00,0.0375
1076.00,0.0370
1075.00,0.0364
1074.00,0.0359
1073.00,0.0353
1072.00,0.0346
1071.00,0.0339
1070.00,0.0333
1069.00,0.0327
1068.00,0.0322
1067.00,0.0318
1066.00,0.0316
1065.00,0.0314
1064.00,0.0315
1063.00,0.0317
1062.00,0.0322
1061.00,0.0330
1060.00,0.0342
1059.00,0.0358
1058.00,0.0380
1057.00,0.0409
1056.00,0.0445
1055.00,0.0487
1054.00,0.0535
1053.00,0.0586
1052.00,0.0637
1051.00,0.0681
1050.00,0.0715
1049.00,0.0735
1048.00,0.0741
1047.00,0.0735
1046.00,0.0718
1045.00,0.0697
1044.00,0.0673
1043.00,0.0651
1042.00,0.0631
1041.00,0.0613
1040.00,0.0599
1039.00,0.0587
1038.00,0.0577
1037.00,0.0568
1036.00,0.0559
1035.00,0.0550
1034.00,0.0541
1033.00,0.0532
1032.00,0.0523
1031.00,0.0514
1030.00,0.0507
1029.00,0.0500
1028.00,0.0494
1027.00,0.0488
1026.00,0.0483
1025.00,0.0479
1024.00,0.0477
1023.00,0.0474
1022.00,0.0472
1021.00,0.0471
1020.00,0.0468
1019.00,0.0465
1018.00,0.0461
1017.00,0.0454
1016.00,0.0444
1015.00,0.0431
1014.00,0.0416
1013.00,0.0401
1012.00,0.0387
1011.00,0.0373
1010.00,0.0363
1009.00,0.0355
1008.00,0.0351
1007.00,0.0350
1006.00,0.0352
1005.00,0.0357
1004.00,0.0363
1003.00,0.0367
1002.00,0.0370
1001.00,0.0369
1000.00,0.0365
999.00,0.0359
998.00,0.0352
997.00,0.0344
996.00,0.0337
995.00,0.0331
994.00,0.0327
993.00,0.0323
992.00,0.0321
991.00,0.0321
990.00,0.0321
989.00,0.0323
988.00,0.0324
987.00,0.0325
986.00,0.0324
985.00,0.0323
984.00,0.0320
983.00,0.0317
982.00,0.0313
981.00,0.0308
980.00,0.0304
979.00,0.0300
978.00,0.0297
977.00,0.0293
976.00,0.0290
975.00,0.0287
974.00,0.0284
973.00,0.0281
972.00,0.0278
971.00,0.0274
970.00,0.0270
969.00,0.0266
968.00,0.0262
967.00,0.0258
966.00,0.0255
965.00,0.0251
964.00,0.0248
963.00,0.0245
962.00,0.0243
961.00,0.0241
960.00,0.0239
959.00,0.0237
958.00,0.0235
957.00,0.0232
956.00,0.0229
955.00,0.0227
954.00,0.0223
953.00,0.0221
952.00,0.0218
951.00,0.0216
950.00,0.0214
949.00,0.0212
948.00,0.0211
947.00,0.0210
946.00,0.0209
945.00,0.0209
944.00,0.0210
943.00,0.0211
942.00,0.0212
941.00,0.0215
940.00,0.0218
939.00,0.0222
938.00,0.0227
937.00,0.0234
936.00,0.0241
935.00,0.0248
934.00,0.0255
933.00,0.0259
932.00,0.0260
931.00,0.0258
930.00,0.0254
929.00,0.0249
928.00,0.0245
927.00,0.0243
926.00,0.0242
925.00,0.0242
924.00,0.0242
923.00,0.0243
922.00,0.0244
921.00,0.0245
920.00,0.0247
919.00,0.0249
918.00,0.0251
917.00,0.0254
916.00,0.0256
915.00,0.0258
914.00,0.0260
913.00,0.0263
912.00,0.0266
911.00,0.0269
910.00,0.0272
909.00,0.0274
908.00,0.0277
907.00,0.0278
906.00,0.0279
905.00,0.0280
904.00,0.0279
903.00,0.0279
902.00,0.0278
901.00,0.0278
900.00,0.0279
899.00,0.0280
898.00,0.0281
897.00,0.0282
896.00,0.0283
895.00,0.0283
894.00,0.0282
893.00,0.0280
892.00,0.0278
891.00,0.0275
890.00,0.0272
889.00,0.0270
888.00,0.0268
887.00,0.0266
886.00,0.0265
885.00,0.0265
884.00,0.0265
883.00,0.0265
882.00,0.0265
881.00,0.0266
880.00,0.0267
879.00,0.0267
878.00,0.0268
877.00,0.0269
876.00,0.0270
875.00,0.0272
874.00,0.0273
873.00,0.0275
872.00,0.0277
871.00,0.0279
870.00,0.0282
869.00,0.0285
868.00,0.0289
867.00,0.0294
866.00,0.0299
865.00,0.0304
864.00,0.0311
863.00,0.0318
862.00,0.0326
861.00,0.0335
860.00,0.0345
859.00,0.0355
858.00,0.0366
857.00,0.0378
856.00,0.0390
855.00,0.0403
854.00,0.0416
853.00,0.0429
852.00,0.0443
851.00,0.0455
850.00,0.0467
849.00,0.0477
848.00,0.0487
847.00,0.0495
846.00,0.0504
845.00,0.0511
844.00,0.0517
843.00,0.0522
842.00,0.0527
841.00,0.0531
840.00,0.0534
839.00,0.0538
838.00,0.0542
837.00,0.0545
836.00,0.0549
835.00,0.0552
834.00,0.0555
833.00,0.0558
832.00,0.0560
831.00,0.0561
830.00,0.0560
829.00,0.0558
828.00,0.0554
827.00,0.0548
826.00,0.0539
825.00,0.0528
824.00,0.0515
823.00,0.0501
822.00,0.0486
821.00,0.0471
820.00,0.0456
819.00,0.0443
818.00,0.0430
817.00,0.0418
816.00,0.0406
815.00,0.0396
814.00,0.0386
813.00,0.0377
812.00,0.0369
811.00,0.0363
810.00,0.0357
809.00,0.0352
808.00,0.0347
807.00,0.0343
806.00,0.0340
805.00,0.0337
804.00,0.0335
803.00,0.0334
802.00,0.0334
801.00,0.0334
800.00,0.0335
799.00,0.0337
798.00,0.0340
797.00,0.0343
796.00,0.0345
795.00,0.0348
794.00,0.0349
793.00,0.0350
792.00,0.0351
791.00,0.0352
790.00,0.0353
789.00,0.0354
788.00,0.0355
787.00,0.0356
786.00,0.0357
785.00,0.0359
784.00,0.0361
783.00,0.0364
782.00,0.0366
781.00,0.0369
780.00,0.0372
779.00,0.0374
778.00,0.0376
777.00,0.0377
776.00,0.0379
775.00,0.0380
774.00,0.0381
773.00,0.0382
772.00,0.0382
771.00,0.0382
770.00,0.0382
769.00,0.0382
768.00,0.0383
767.00,0.0385
766.00,0.0386
765.00,0.0389
764.00,0.0392
763.00,0.0396
762.00,0.0400
761.00,0.0405
760.00,0.0411
759.00,0.0417
758.00,0.0424
757.00,0.0432
756.00,0.0440
755.00,0.0448
754.00,0.0455
753.00,0.0463
752.00,0.0471
751.00,0.0479
750.00,0.0488
749.00,0.0496
748.00,0.0504
747.00,0.0512
746.00,0.0519
745.00,0.0526
744.00,0.0534
743.00,0.0540
742.00,0.0547
741.00,0.0553
740.00,0.0558
739.00,0.0562
738.00,0.0566
737.00,0.0569
736.00,0.0572
735.00,0.0573
734.00,0.0572
733.00,0.0569
732.00,0.0564
731.00,0.0556
730.00,0.0547
729.00,0.0536
728.00,0.0524
727.00,0.0512
726.00,0.0501
725.00,0.0490
724.00,0.0479
723.00,0.0470
722.00,0.0461
721.00,0.0454
720.00,0.0448
719.00,0.0443
718.00,0.0439
717.00,0.0436
716.00,0.0433
715.00,0.0431
714.00,0.0430
713.00,0.0429
712.00,0.0428
711.00,0.0428
710.00,0.0428
709.00,0.0428
708.00,0.0429
707.00,0.0430
706.00,0.0431
705.00,0.0432
704.00,0.0432
703.00,0.0433
702.00,0.0434
701.00,0.0436
700.00,0.0438
699.00,0.0441
698.00,0.0443
697.00,0.0446
696.00,0.0448
695.00,0.0450
694.00,0.0453
693.00,0.0455
692.00,0.0459
691.00,0.0462
690.00,0.0466
689.00,0.0471
688.00,0.0475
687.00,0.0480
686.00,0.0486
685.00,0.0491
684.00,0.0496
683.00,0.0501
682.00,0.0506
681.00,0.0510
680.00,0.0515
679.00,0.0519
678.00,0.0523
677.00,0.0527
676.00,0.0532
675.00,0.0538
674.00,0.0543
673.00,0.0548
672.00,0.0553
671.00,0.0557
670.00,0.0562
669.00,0.0569
668.00,0.0581
667.00,0.0592
666.00,0.0600
665.00,0.0607
664.00,0.0614
663.00,0.0623
662.00,0.0633
661.00,0.0643
660.00,0.0655
659.00,0.0667
658.00,0.0679
657.00,0.0692
656.00,0.0706
655.00,0.0719
654.00,0.0731
653.00,0.0742
652.00,0.0752
651.00,0.0760
650.00,0.0765
649.00,0.0769
648.00,0.0771
647.00,0.0770
646.00,0.0765
645.00,0.0757
644.00,0.0748
643.00,0.0736
642.00,0.0723
641.00,0.0709
640.00,0.0695
639.00,0.0681
638.00,0.0667
637.00,0.0654
636.00,0.0642
635.00,0.0630
634.00,0.0618
633.00,0.0608
632.00,0.0598
631.00,0.0589
630.00,0.0579
629.00,0.0571
628.00,0.0562
627.00,0.0554
626.00,0.0547
625.00,0.0541
624.00,0.0535
623.00,0.0530
622.00,0.0525
621.00,0.0522
620.00,0.0520
619.00,0.0519
618.00,0.0518
617.00,0.0517
616.00,0.0516
615.00,0.0516
614.00,0.0515
613.00,0.0514
612.00,0.0514
611.00,0.0515
610.00,0.0517
609.00,0.0520
608.00,0.0523
607.00,0.0526
606.00,0.0529
605.00,0.0532
604.00,0.0536
603.00,0.0540
602.00,0.0544
601.00,0.0547
600.00,0.0550
599.00,0.0552
598.00,0.0555
597.00,0.0559
596.00,0.0563
595.00,0.0568
594.00,0.0573
593.00,0.0578
592.00,0.0585
591.00,0.0592
590.00,0.0599
589.00,0.0606
588.00,0.0614
587.00,0.0623
586.00,0.0634
585.00,0.0646
584.00,0.0660
583.00,0.0674
582.00,0.0689
581.00,0.0702
580.00,0.0715
579.00,0.0724
578.00,0.0730
577.00,0.0735
576.00,0.0740
575.00,0.0743
574.00,0.0744
573.00,0.0744
572.00,0.0742
571.00,0.0739
570.00,0.0734
569.00,0.0728
568.00,0.0722
567.00,0.0715
566.00,0.0708
565.00,0.0700
564.00,0.0690
563.00,0.0678
562.00,0.0665
561.00,0.0652
560.00,0.0640
559.00,0.0629
558.00,0.0619
557.00,0.0610
556.00,0.0600
555.00,0.0590
554.00,0.0581
553.00,0.0572
552.00,0.0565
551.00,0.0559
550.00,0.0554
549.00,0.0550
548.00,0.0545
547.00,0.0540
546.00,0.0535
545.00,0.0532
544.00,0.0530
543.00,0.0528
542.00,0.0527
541.00,0.0526
540.00,0.0524
539.00,0.0521
538.00,0.0518
537.00,0.0515
536.00,0.0513
535.00,0.0511
534.00,0.0510
533.00,0.0509
532.00,0.0509
531.00,0.0510
530.00,0.0510
529.00,0.0508
528.00,0.0505
527.00,0.0502
526.00,0.0500
525.00,0.0498
524.00,0.0497
523.00,0.0496
522.00,0.0494
521.00,0.0491
520.00,0.0487
519.00,0.0484
518.00,0.0482
517.00,0.0481
516.00,0.0480
515.00,0.0479
514.00,0.0477
513.00,0.0474
512.00,0.0471
511.00,0.0468
510.00,0.0466
509.00,0.0464
508.00,0.0462
507.00,0.0461
506.00,0.0460
505.00,0.0461
504.00,0.0464
503.00,0.0465
502.00,0.0464
501.00,0.0462
500.00,0.0461
499.00,0.0461
498.00,0.0463
497.00,0.0466
496.00,0.0468
495.00,0.0471
494.00,0.0472
493.00,0.0473
492.00,0.0472
491.00,0.0472
490.00,0.0473
489.00,0.0474
488.00,0.0475
487.00,0.0474
486.00,0.0475
485.00,0.0476
484.00,0.0477
483.00,0.0477
482.00,0.0478
481.00,0.0479
480.00,0.0481
479.00,0.0482
478.00,0.0484
477.00,0.0485
476.00,0.0486
475.00,0.0486
474.00,0.0487
473.00,0.0489
472.00,0.0490
471.00,0.0490
470.00,0.0489
469.00,0.0487
468.00,0.0486
467.00,0.0485
466.00,0.0487
465.00,0.0489
464.00,0.0490
463.00,0.0490
462.00,0.0489
461.00,0.0488
460.00,0.0488
459.00,0.0488
458.00,0.0491
457.00,0.0494
456.00,0.0497
455.00,0.0499
454.00,0.0499
453.00,0.0499
452.00,0.0500
451.00,0.0501
450.00,0.0501
449.00,0.0500
448.00,0.0499
447.00,0.0497
446.00,0.0494
445.00,0.0490
444.00,0.0486
443.00,0.0481
442.00,0.0475
441.00,0.0472
440.00,0.0471
439.00,0.0471
438.00,0.0470
437.00,0.0467
436.00,0.0463
435.00,0.0460
434.00,0.0459
433.00,0.0462
432.00,0.0465
431.00,0.0464
430.00,0.0461
429.00,0.0457
428.00,0.0457
427.00,0.0459
426.00,0.0461
425.00,0.0458
424.00,0.0454
423.00,0.0449
422.00,0.0446
421.00,0.0443
420.00,0.0441
419.00,0.0440
418.00,0.0439
417.00,0.0439
416.00,0.0439
415.00,0.0437
414.00,0.0436
413.00,0.0439
412.00,0.0448
411.00,0.0459
410.00,0.0468
409.00,0.0472
408.00,0.0469
407.00,0.0464
406.00,0.0458
405.00,0.0456
404.00,0.0455
403.00,0.0454
402.00,0.0451
401.00,0.0446
400.00,0.0441
