Created as New Dataset,Sample 271 By YargerLab Date Saturday, October 18 2025
cm-1,A
4000.00,0.0044
3999.00,0.0044
3998.00,0.0044
3997.00,0.0043
3996.00,0.0044
3995.00,0.0044
3994.00,0.0044
3993.00,0.0044
3992.00,0.0044
3991.00,0.0044
3990.00,0.0043
3989.00,0.0043
3988.00,0.0043
3987.00,0.0043
3986.00,0.0043
3985.00,0.0043
3984.00,0.0044
3983.00,0.0044
3982.00,0.0044
3981.00,0.0043
3980.00,0.0043
3979.00,0.0043
3978.00,0.0043
3977.00,0.0043
3976.00,0.0043
3975.00,0.0043
3974.00,0.0043
3973.00,0.0043
3972.00,0.0043
3971.00,0.0043
3970.00,0.0043
3969.00,0.0043
3968.00,0.0043
3967.00,0.0043
3966.00,0.0043
3965.00,0.0043
3964.00,0.0043
3963.00,0.0043
3962.00,0.0043
3961.00,0.0043
3960.00,0.0043
3959.00,0.0043
3958.00,0.0043
3957.00,0.0043
3956.00,0.0043
3955.00,0.0043
3954.00,0.0043
3953.00,0.0042
3952.00,0.0042
3951.00,0.0042
3950.00,0.0042
3949.00,0.0042
3948.00,0.0042
3947.00,0.0042
3946.00,0.0042
3945.00,0.0042
3944.00,0.0042
3943.00,0.0042
3942.00,0.0042
3941.00,0.0042
3940.00,0.0042
3939.00,0.0042
3938.00,0.0042
3937.00,0.0042
3936.00,0.0042
3935.00,0.0043
3934.00,0.0043
3933.00,0.0043
3932.00,0.0043
3931.00,0.0043
3930.00,0.0042
3929.00,0.0042
3928.00,0.0042
3927.00,0.0042
3926.00,0.0042
3925.00,0.0042
3924.00,0.0043
3923.00,0.0043
3922.00,0.0043
3921.00,0.0042
3920.00,0.0042
3919.00,0.0042
3918.00,0.0042
3917.00,0.0042
3916.00,0.0042
3915.00,0.0042
3914.00,0.0042
3913.00,0.0043
3912.00,0.0043
3911.00,0.0043
3910.00,0.0043
3909.00,0.0043
3908.00,0.0042
3907.00,0.0042
3906.00,0.0042
3905.00,0.0042
3904.00,0.0042
3903.00,0.0042
3902.00,0.0042
3901.00,0.0042
3900.00,0.0042
3899.00,0.0042
3898.00,0.0042
3897.00,0.0041
3896.00,0.0041
3895.00,0.0041
3894.00,0.0041
3893.00,0.0041
3892.00,0.0041
3891.00,0.0041
3890.00,0.0041
3889.00,0.0041
3888.00,0.0041
3887.00,0.0041
3886.00,0.0041
3885.00,0.0041
3884.00,0.0041
3883.00,0.0041
3882.00,0.0041
3881.00,0.0041
3880.00,0.0042
3879.00,0.0042
3878.00,0.0042
3877.00,0.0042
3876.00,0.0042
3875.00,0.0042
3874.00,0.0042
3873.00,0.0041
3872.00,0.0041
3871.00,0.0041
3870.00,0.0041
3869.00,0.0041
3868.00,0.0041
3867.00,0.0041
3866.00,0.0041
3865.00,0.0041
3864.00,0.0041
3863.00,0.0041
3862.00,0.0041
3861.00,0.0041
3860.00,0.0041
3859.00,0.0041
3858.00,0.0041
3857.00,0.0041
3856.00,0.0041
3855.00,0.0041
3854.00,0.0040
3853.00,0.0040
3852.00,0.0040
3851.00,0.0040
3850.00,0.0040
3849.00,0.0040
3848.00,0.0040
3847.00,0.0040
3846.00,0.0040
3845.00,0.0040
3844.00,0.0041
3843.00,0.0041
3842.00,0.0041
3841.00,0.0040
3840.00,0.0040
3839.00,0.0040
3838.00,0.0040
3837.00,0.0039
3836.00,0.0039
3835.00,0.0039
3834.00,0.0040
3833.00,0.0040
3832.00,0.0040
3831.00,0.0041
3830.00,0.0041
3829.00,0.0041
3828.00,0.0041
3827.00,0.0041
3826.00,0.0041
3825.00,0.0041
3824.00,0.0041
3823.00,0.0041
3822.00,0.0041
3821.00,0.0041
3820.00,0.0041
3819.00,0.0041
3818.00,0.0041
3817.00,0.0041
3816.00,0.0041
3815.00,0.0041
3814.00,0.0041
3813.00,0.0041
3812.00,0.0041
3811.00,0.0040
3810.00,0.0040
3809.00,0.0040
3808.00,0.0040
3807.00,0.0040
3806.00,0.0040
3805.00,0.0039
3804.00,0.0039
3803.00,0.0039
3802.00,0.0039
3801.00,0.0039
3800.00,0.0039
3799.00,0.0039
3798.00,0.0039
3797.00,0.0039
3796.00,0.0040
3795.00,0.0040
3794.00,0.0040
3793.00,0.0040
3792.00,0.0040
3791.00,0.0041
3790.00,0.0041
3789.00,0.0041
3788.00,0.0040
3787.00,0.0040
3786.00,0.0040
3785.00,0.0040
3784.00,0.0040
3783.00,0.0040
3782.00,0.0040
3781.00,0.0040
3780.00,0.0040
3779.00,0.0040
3778.00,0.0040
3777.00,0.0040
3776.00,0.0040
3775.00,0.0040
3774.00,0.0040
3773.00,0.0040
3772.00,0.0041
3771.00,0.0040
3770.00,0.0040
3769.00,0.0040
3768.00,0.0040
3767.00,0.0040
3766.00,0.0040
3765.00,0.0040
3764.00,0.0040
3763.00,0.0040
3762.00,0.0040
3761.00,0.0040
3760.00,0.0040
3759.00,0.0039
3758.00,0.0039
3757.00,0.0039
3756.00,0.0039
3755.00,0.0038
3754.00,0.0038
3753.00,0.0038
3752.00,0.0038
3751.00,0.0039
3750.00,0.0039
3749.00,0.0039
3748.00,0.0039
3747.00,0.0039
3746.00,0.0039
3745.00,0.0039
3744.00,0.0039
3743.00,0.0039
3742.00,0.0038
3741.00,0.0038
3740.00,0.0038
3739.00,0.0038
3738.00,0.0038
3737.00,0.0039
3736.00,0.0039
3735.00,0.0038
3734.00,0.0038
3733.00,0.0037
3732.00,0.0037
3731.00,0.0037
3730.00,0.0038
3729.00,0.0038
3728.00,0.0038
3727.00,0.0038
3726.00,0.0038
3725.00,0.0038
3724.00,0.0038
3723.00,0.0038
3722.00,0.0038
3721.00,0.0038
3720.00,0.0038
3719.00,0.0038
3718.00,0.0038
3717.00,0.0038
3716.00,0.0039
3715.00,0.0039
3714.00,0.0039
3713.00,0.0038
3712.00,0.0038
3711.00,0.0037
3710.00,0.0037
3709.00,0.0038
3708.00,0.0038
3707.00,0.0038
3706.00,0.0038
3705.00,0.0038
3704.00,0.0037
3703.00,0.0037
3702.00,0.0037
3701.00,0.0037
3700.00,0.0038
3699.00,0.0038
3698.00,0.0038
3697.00,0.0038
3696.00,0.0038
3695.00,0.0038
3694.00,0.0038
3693.00,0.0037
3692.00,0.0037
3691.00,0.0037
3690.00,0.0037
3689.00,0.0037
3688.00,0.0038
3687.00,0.0038
3686.00,0.0038
3685.00,0.0039
3684.00,0.0039
3683.00,0.0040
3682.00,0.0040
3681.00,0.0040
3680.00,0.0039
3679.00,0.0039
3678.00,0.0039
3677.00,0.0038
3676.00,0.0038
3675.00,0.0038
3674.00,0.0038
3673.00,0.0039
3672.00,0.0039
3671.00,0.0039
3670.00,0.0038
3669.00,0.0039
3668.00,0.0039
3667.00,0.0039
3666.00,0.0039
3665.00,0.0039
3664.00,0.0039
3663.00,0.0040
3662.00,0.0040
3661.00,0.0039
3660.00,0.0039
3659.00,0.0040
3658.00,0.0040
3657.00,0.0040
3656.00,0.0040
3655.00,0.0040
3654.00,0.0040
3653.00,0.0040
3652.00,0.0040
3651.00,0.0040
3650.00,0.0040
3649.00,0.0040
3648.00,0.0040
3647.00,0.0040
3646.00,0.0040
3645.00,0.0041
3644.00,0.0041
3643.00,0.0041
3642.00,0.0041
3641.00,0.0041
3640.00,0.0041
3639.00,0.0041
3638.00,0.0041
3637.00,0.0041
3636.00,0.0042
3635.00,0.0042
3634.00,0.0042
3633.00,0.0042
3632.00,0.0042
3631.00,0.0043
3630.00,0.0043
3629.00,0.0043
3628.00,0.0043
3627.00,0.0043
3626.00,0.0043
3625.00,0.0043
3624.00,0.0044
3623.00,0.0044
3622.00,0.0044
3621.00,0.0044
3620.00,0.0045
3619.00,0.0045
3618.00,0.0045
3617.00,0.0046
3616.00,0.0046
3615.00,0.0046
3614.00,0.0046
3613.00,0.0047
3612.00,0.0047
3611.00,0.0048
3610.00,0.0048
3609.00,0.0048
3608.00,0.0048
3607.00,0.0048
3606.00,0.0048
3605.00,0.0048
3604.00,0.0048
3603.00,0.0048
3602.00,0.0048
3601.00,0.0048
3600.00,0.0048
3599.00,0.0048
3598.00,0.0048
3597.00,0.0048
3596.00,0.0049
3595.00,0.0049
3594.00,0.0050
3593.00,0.0050
3592.00,0.0050
3591.00,0.0050
3590.00,0.0050
3589.00,0.0050
3588.00,0.0050
3587.00,0.0050
3586.00,0.0051
3585.00,0.0051
3584.00,0.0051
3583.00,0.0052
3582.00,0.0052
3581.00,0.0053
3580.00,0.0053
3579.00,0.0053
3578.00,0.0054
3577.00,0.0054
3576.00,0.0054
3575.00,0.0054
3574.00,0.0054
3573.00,0.0054
3572.00,0.0055
3571.00,0.0056
3570.00,0.0056
3569.00,0.0057
3568.00,0.0057
3567.00,0.0057
3566.00,0.0057
3565.00,0.0057
3564.00,0.0057
3563.00,0.0057
3562.00,0.0058
3561.00,0.0058
3560.00,0.0058
3559.00,0.0059
3558.00,0.0059
3557.00,0.0060
3556.00,0.0061
3555.00,0.0061
3554.00,0.0062
3553.00,0.0062
3552.00,0.0062
3551.00,0.0063
3550.00,0.0063
3549.00,0.0063
3548.00,0.0064
3547.00,0.0064
3546.00,0.0064
3545.00,0.0065
3544.00,0.0066
3543.00,0.0066
3542.00,0.0067
3541.00,0.0068
3540.00,0.0068
3539.00,0.0069
3538.00,0.0070
3537.00,0.0070
3536.00,0.0070
3535.00,0.0071
3534.00,0.0071
3533.00,0.0072
3532.00,0.0073
3531.00,0.0073
3530.00,0.0074
3529.00,0.0074
3528.00,0.0075
3527.00,0.0075
3526.00,0.0076
3525.00,0.0076
3524.00,0.0077
3523.00,0.0077
3522.00,0.0077
3521.00,0.0078
3520.00,0.0079
3519.00,0.0080
3518.00,0.0081
3517.00,0.0081
3516.00,0.0082
3515.00,0.0082
3514.00,0.0083
3513.00,0.0084
3512.00,0.0084
3511.00,0.0085
3510.00,0.0085
3509.00,0.0086
3508.00,0.0087
3507.00,0.0088
3506.00,0.0088
3505.00,0.0089
3504.00,0.0090
3503.00,0.0090
3502.00,0.0091
3501.00,0.0091
3500.00,0.0092
3499.00,0.0092
3498.00,0.0093
3497.00,0.0094
3496.00,0.0095
3495.00,0.0096
3494.00,0.0096
3493.00,0.0097
3492.00,0.0098
3491.00,0.0098
3490.00,0.0099
3489.00,0.0100
3488.00,0.0100
3487.00,0.0101
3486.00,0.0102
3485.00,0.0103
3484.00,0.0104
3483.00,0.0105
3482.00,0.0106
3481.00,0.0106
3480.00,0.0107
3479.00,0.0107
3478.00,0.0108
3477.00,0.0109
3476.00,0.0110
3475.00,0.0111
3474.00,0.0112
3473.00,0.0113
3472.00,0.0114
3471.00,0.0115
3470.00,0.0116
3469.00,0.0116
3468.00,0.0117
3467.00,0.0118
3466.00,0.0119
3465.00,0.0120
3464.00,0.0120
3463.00,0.0121
3462.00,0.0122
3461.00,0.0124
3460.00,0.0125
3459.00,0.0126
3458.00,0.0127
3457.00,0.0127
3456.00,0.0128
3455.00,0.0129
3454.00,0.0130
3453.00,0.0131
3452.00,0.0132
3451.00,0.0133
3450.00,0.0134
3449.00,0.0135
3448.00,0.0136
3447.00,0.0137
3446.00,0.0138
3445.00,0.0140
3444.00,0.0141
3443.00,0.0142
3442.00,0.0143
3441.00,0.0144
3440.00,0.0145
3439.00,0.0146
3438.00,0.0147
3437.00,0.0148
3436.00,0.0149
3435.00,0.0150
3434.00,0.0152
3433.00,0.0153
3432.00,0.0154
3431.00,0.0155
3430.00,0.0157
3429.00,0.0158
3428.00,0.0159
3427.00,0.0160
3426.00,0.0161
3425.00,0.0162
3424.00,0.0164
3423.00,0.0165
3422.00,0.0166
3421.00,0.0168
3420.00,0.0169
3419.00,0.0170
3418.00,0.0171
3417.00,0.0173
3416.00,0.0174
3415.00,0.0175
3414.00,0.0177
3413.00,0.0178
3412.00,0.0180
3411.00,0.0181
3410.00,0.0183
3409.00,0.0184
3408.00,0.0186
3407.00,0.0187
3406.00,0.0188
3405.00,0.0190
3404.00,0.0191
3403.00,0.0193
3402.00,0.0194
3401.00,0.0196
3400.00,0.0197
3399.00,0.0199
3398.00,0.0201
3397.00,0.0203
3396.00,0.0204
3395.00,0.0206
3394.00,0.0207
3393.00,0.0208
3392.00,0.0210
3391.00,0.0211
3390.00,0.0213
3389.00,0.0215
3388.00,0.0216
3387.00,0.0218
3386.00,0.0220
3385.00,0.0222
3384.00,0.0223
3383.00,0.0225
3382.00,0.0227
3381.00,0.0228
3380.00,0.0230
3379.00,0.0232
3378.00,0.0234
3377.00,0.0235
3376.00,0.0237
3375.00,0.0238
3374.00,0.0240
3373.00,0.0241
3372.00,0.0243
3371.00,0.0244
3370.00,0.0245
3369.00,0.0247
3368.00,0.0248
3367.00,0.0250
3366.00,0.0252
3365.00,0.0254
3364.00,0.0256
3363.00,0.0257
3362.00,0.0258
3361.00,0.0260
3360.00,0.0261
3359.00,0.0263
3358.00,0.0265
3357.00,0.0267
3356.00,0.0268
3355.00,0.0269
3354.00,0.0270
3353.00,0.0271
3352.00,0.0272
3351.00,0.0273
3350.00,0.0274
3349.00,0.0276
3348.00,0.0278
3347.00,0.0279
3346.00,0.0280
3345.00,0.0281
3344.00,0.0282
3343.00,0.0283
3342.00,0.0284
3341.00,0.0285
3340.00,0.0286
3339.00,0.0288
3338.00,0.0289
3337.00,0.0291
3336.00,0.0292
3335.00,0.0293
3334.00,0.0294
3333.00,0.0296
3332.00,0.0297
3331.00,0.0298
3330.00,0.0299
3329.00,0.0300
3328.00,0.0300
3327.00,0.0300
3326.00,0.0301
3325.00,0.0302
3324.00,0.0304
3323.00,0.0305
3322.00,0.0306
3321.00,0.0307
3320.00,0.0309
3319.00,0.0309
3318.00,0.0310
3317.00,0.0311
3316.00,0.0312
3315.00,0.0313
3314.00,0.0313
3313.00,0.0314
3312.00,0.0314
3311.00,0.0314
3310.00,0.0313
3309.00,0.0313
3308.00,0.0313
3307.00,0.0313
3306.00,0.0314
3305.00,0.0316
3304.00,0.0317
3303.00,0.0319
3302.00,0.0320
3301.00,0.0321
3300.00,0.0322
3299.00,0.0322
3298.00,0.0321
3297.00,0.0321
3296.00,0.0321
3295.00,0.0322
3294.00,0.0322
3293.00,0.0323
3292.00,0.0324
3291.00,0.0325
3290.00,0.0326
3289.00,0.0326
3288.00,0.0327
3287.00,0.0327
3286.00,0.0327
3285.00,0.0327
3284.00,0.0328
3283.00,0.0328
3282.00,0.0328
3281.00,0.0328
3280.00,0.0328
3279.00,0.0328
3278.00,0.0328
3277.00,0.0328
3276.00,0.0328
3275.00,0.0328
3274.00,0.0328
3273.00,0.0327
3272.00,0.0327
3271.00,0.0327
3270.00,0.0328
3269.00,0.0329
3268.00,0.0329
3267.00,0.0330
3266.00,0.0330
3265.00,0.0330
3264.00,0.0329
3263.00,0.0329
3262.00,0.0329
3261.00,0.0329
3260.00,0.0329
3259.00,0.0329
3258.00,0.0329
3257.00,0.0329
3256.00,0.0329
3255.00,0.0329
3254.00,0.0329
3253.00,0.0329
3252.00,0.0329
3251.00,0.0329
3250.00,0.0328
3249.00,0.0328
3248.00,0.0328
3247.00,0.0328
3246.00,0.0328
3245.00,0.0328
3244.00,0.0328
3243.00,0.0328
3242.00,0.0328
3241.00,0.0327
3240.00,0.0327
3239.00,0.0327
3238.00,0.0327
3237.00,0.0326
3236.00,0.0326
3235.00,0.0325
3234.00,0.0325
3233.00,0.0325
3232.00,0.0325
3231.00,0.0324
3230.00,0.0324
3229.00,0.0324
3228.00,0.0323
3227.00,0.0323
3226.00,0.0322
3225.00,0.0322
3224.00,0.0322
3223.00,0.0322
3222.00,0.0322
3221.00,0.0322
3220.00,0.0321
3219.00,0.0321
3218.00,0.0321
3217.00,0.0321
3216.00,0.0321
3215.00,0.0321
3214.00,0.0321
3213.00,0.0321
3212.00,0.0321
3211.00,0.0321
3210.00,0.0321
3209.00,0.0320
3208.00,0.0320
3207.00,0.0320
3206.00,0.0320
3205.00,0.0319
3204.00,0.0319
3203.00,0.0319
3202.00,0.0318
3201.00,0.0318
3200.00,0.0318
3199.00,0.0317
3198.00,0.0317
3197.00,0.0316
3196.00,0.0315
3195.00,0.0315
3194.00,0.0314
3193.00,0.0313
3192.00,0.0313
3191.00,0.0312
3190.00,0.0311
3189.00,0.0310
3188.00,0.0310
3187.00,0.0309
3186.00,0.0308
3185.00,0.0307
3184.00,0.0306
3183.00,0.0305
3182.00,0.0304
3181.00,0.0303
3180.00,0.0302
3179.00,0.0301
3178.00,0.0300
3177.00,0.0300
3176.00,0.0299
3175.00,0.0298
3174.00,0.0297
3173.00,0.0295
3172.00,0.0294
3171.00,0.0293
3170.00,0.0291
3169.00,0.0290
3168.00,0.0289
3167.00,0.0288
3166.00,0.0287
3165.00,0.0286
3164.00,0.0285
3163.00,0.0284
3162.00,0.0282
3161.00,0.0281
3160.00,0.0280
3159.00,0.0279
3158.00,0.0277
3157.00,0.0276
3156.00,0.0275
3155.00,0.0274
3154.00,0.0273
3153.00,0.0272
3152.00,0.0271
3151.00,0.0270
3150.00,0.0269
3149.00,0.0268
3148.00,0.0267
3147.00,0.0266
3146.00,0.0264
3145.00,0.0263
3144.00,0.0262
3143.00,0.0262
3142.00,0.0260
3141.00,0.0259
3140.00,0.0258
3139.00,0.0258
3138.00,0.0257
3137.00,0.0257
3136.00,0.0256
3135.00,0.0255
3134.00,0.0255
3133.00,0.0254
3132.00,0.0253
3131.00,0.0252
3130.00,0.0251
3129.00,0.0250
3128.00,0.0249
3127.00,0.0248
3126.00,0.0247
3125.00,0.0246
3124.00,0.0245
3123.00,0.0243
3122.00,0.0242
3121.00,0.0240
3120.00,0.0239
3119.00,0.0238
3118.00,0.0237
3117.00,0.0236
3116.00,0.0235
3115.00,0.0233
3114.00,0.0232
3113.00,0.0231
3112.00,0.0230
3111.00,0.0229
3110.00,0.0227
3109.00,0.0226
3108.00,0.0225
3107.00,0.0224
3106.00,0.0223
3105.00,0.0221
3104.00,0.0220
3103.00,0.0218
3102.00,0.0217
3101.00,0.0215
3100.00,0.0214
3099.00,0.0213
3098.00,0.0212
3097.00,0.0211
3096.00,0.0210
3095.00,0.0208
3094.00,0.0207
3093.00,0.0206
3092.00,0.0205
3091.00,0.0204
3090.00,0.0202
3089.00,0.0201
3088.00,0.0200
3087.00,0.0199
3086.00,0.0198
3085.00,0.0197
3084.00,0.0196
3083.00,0.0195
3082.00,0.0194
3081.00,0.0193
3080.00,0.0192
3079.00,0.0191
3078.00,0.0191
3077.00,0.0190
3076.00,0.0189
3075.00,0.0188
3074.00,0.0187
3073.00,0.0187
3072.00,0.0186
3071.00,0.0185
3070.00,0.0185
3069.00,0.0184
3068.00,0.0183
3067.00,0.0183
3066.00,0.0182
3065.00,0.0182
3064.00,0.0181
3063.00,0.0181
3062.00,0.0181
3061.00,0.0180
3060.00,0.0180
3059.00,0.0180
3058.00,0.0180
3057.00,0.0179
3056.00,0.0179
3055.00,0.0179
3054.00,0.0178
3053.00,0.0178
3052.00,0.0177
3051.00,0.0177
3050.00,0.0176
3049.00,0.0175
3048.00,0.0175
3047.00,0.0174
3046.00,0.0173
3045.00,0.0172
3044.00,0.0172
3043.00,0.0172
3042.00,0.0171
3041.00,0.0171
3040.00,0.0171
3039.00,0.0171
3038.00,0.0170
3037.00,0.0170
3036.00,0.0170
3035.00,0.0170
3034.00,0.0170
3033.00,0.0170
3032.00,0.0170
3031.00,0.0170
3030.00,0.0171
3029.00,0.0171
3028.00,0.0171
3027.00,0.0171
3026.00,0.0171
3025.00,0.0170
3024.00,0.0170
3023.00,0.0170
3022.00,0.0169
3021.00,0.0169
3020.00,0.0169
3019.00,0.0169
3018.00,0.0169
3017.00,0.0169
3016.00,0.0169
3015.00,0.0169
3014.00,0.0169
3013.00,0.0170
3012.00,0.0171
3011.00,0.0172
3010.00,0.0173
3009.00,0.0174
3008.00,0.0176
3007.00,0.0177
3006.00,0.0179
3005.00,0.0182
3004.00,0.0184
3003.00,0.0187
3002.00,0.0190
3001.00,0.0194
3000.00,0.0197
2999.00,0.0201
2998.00,0.0206
2997.00,0.0210
2996.00,0.0215
2995.00,0.0220
2994.00,0.0225
2993.00,0.0230
2992.00,0.0236
2991.00,0.0242
2990.00,0.0248
2989.00,0.0253
2988.00,0.0259
2987.00,0.0265
2986.00,0.0270
2985.00,0.0275
2984.00,0.0280
2983.00,0.0285
2982.00,0.0289
2981.00,0.0293
2980.00,0.0298
2979.00,0.0303
2978.00,0.0308
2977.00,0.0314
2976.00,0.0319
2975.00,0.0325
2974.00,0.0332
2973.00,0.0339
2972.00,0.0347
2971.00,0.0355
2970.00,0.0364
2969.00,0.0373
2968.00,0.0383
2967.00,0.0393
2966.00,0.0403
2965.00,0.0412
2964.00,0.0421
2963.00,0.0430
2962.00,0.0438
2961.00,0.0445
2960.00,0.0451
2959.00,0.0456
2958.00,0.0460
2957.00,0.0462
2956.00,0.0463
2955.00,0.0463
2954.00,0.0461
2953.00,0.0458
2952.00,0.0454
2951.00,0.0449
2950.00,0.0444
2949.00,0.0439
2948.00,0.0435
2947.00,0.0432
2946.00,0.0432
2945.00,0.0433
2944.00,0.0436
2943.00,0.0441
2942.00,0.0448
2941.00,0.0456
2940.00,0.0467
2939.00,0.0478
2938.00,0.0491
2937.00,0.0505
2936.00,0.0519
2935.00,0.0534
2934.00,0.0549
2933.00,0.0564
2932.00,0.0578
2931.00,0.0591
2930.00,0.0603
2929.00,0.0613
2928.00,0.0622
2927.00,0.0630
2926.00,0.0636
2925.00,0.0641
2924.00,0.0644
2923.00,0.0647
2922.00,0.0648
2921.00,0.0649
2920.00,0.0649
2919.00,0.0648
2918.00,0.0646
2917.00,0.0641
2916.00,0.0634
2915.00,0.0625
2914.00,0.0614
2913.00,0.0602
2912.00,0.0589
2911.00,0.0577
2910.00,0.0565
2909.00,0.0553
2908.00,0.0541
2907.00,0.0530
2906.00,0.0519
2905.00,0.0509
2904.00,0.0500
2903.00,0.0492
2902.00,0.0484
2901.00,0.0476
2900.00,0.0469
2899.00,0.0463
2898.00,0.0457
2897.00,0.0451
2896.00,0.0446
2895.00,0.0442
2894.00,0.0437
2893.00,0.0433
2892.00,0.0428
2891.00,0.0424
2890.00,0.0419
2889.00,0.0414
2888.00,0.0410
2887.00,0.0406
2886.00,0.0402
2885.00,0.0399
2884.00,0.0396
2883.00,0.0393
2882.00,0.0391
2881.00,0.0389
2880.00,0.0389
2879.00,0.0389
2878.00,0.0390
2877.00,0.0392
2876.00,0.0394
2875.00,0.0397
2874.00,0.0400
2873.00,0.0403
2872.00,0.0405
2871.00,0.0407
2870.00,0.0407
2869.00,0.0407
2868.00,0.0406
2867.00,0.0406
2866.00,0.0407
2865.00,0.0409
2864.00,0.0413
2863.00,0.0418
2862.00,0.0424
2861.00,0.0432
2860.00,0.0440
2859.00,0.0448
2858.00,0.0455
2857.00,0.0460
2856.00,0.0463
2855.00,0.0464
2854.00,0.0463
2853.00,0.0459
2852.00,0.0454
2851.00,0.0447
2850.00,0.0437
2849.00,0.0426
2848.00,0.0412
2847.00,0.0397
2846.00,0.0380
2845.00,0.0364
2844.00,0.0349
2843.00,0.0334
2842.00,0.0320
2841.00,0.0307
2840.00,0.0295
2839.00,0.0284
2838.00,0.0275
2837.00,0.0266
2836.00,0.0258
2835.00,0.0251
2834.00,0.0244
2833.00,0.0238
2832.00,0.0232
2831.00,0.0226
2830.00,0.0220
2829.00,0.0215
2828.00,0.0209
2827.00,0.0204
2826.00,0.0198
2825.00,0.0193
2824.00,0.0188
2823.00,0.0182
2822.00,0.0177
2821.00,0.0173
2820.00,0.0168
2819.00,0.0164
2818.00,0.0160
2817.00,0.0157
2816.00,0.0154
2815.00,0.0151
2814.00,0.0148
2813.00,0.0146
2812.00,0.0143
2811.00,0.0141
2810.00,0.0139
2809.00,0.0138
2808.00,0.0136
2807.00,0.0135
2806.00,0.0134
2805.00,0.0133
2804.00,0.0132
2803.00,0.0130
2802.00,0.0129
2801.00,0.0128
2800.00,0.0126
2799.00,0.0125
2798.00,0.0124
2797.00,0.0123
2796.00,0.0122
2795.00,0.0121
2794.00,0.0121
2793.00,0.0120
2792.00,0.0119
2791.00,0.0118
2790.00,0.0118
2789.00,0.0117
2788.00,0.0117
2787.00,0.0116
2786.00,0.0116
2785.00,0.0116
2784.00,0.0115
2783.00,0.0115
2782.00,0.0114
2781.00,0.0114
2780.00,0.0113
2779.00,0.0113
2778.00,0.0112
2777.00,0.0112
2776.00,0.0112
2775.00,0.0111
2774.00,0.0111
2773.00,0.0111
2772.00,0.0110
2771.00,0.0110
2770.00,0.0110
2769.00,0.0110
2768.00,0.0109
2767.00,0.0109
2766.00,0.0109
2765.00,0.0109
2764.00,0.0109
2763.00,0.0109
2762.00,0.0109
2761.00,0.0109
2760.00,0.0109
2759.00,0.0109
2758.00,0.0109
2757.00,0.0109
2756.00,0.0109
2755.00,0.0109
2754.00,0.0109
2753.00,0.0109
2752.00,0.0109
2751.00,0.0109
2750.00,0.0109
2749.00,0.0110
2748.00,0.0110
2747.00,0.0110
2746.00,0.0110
2745.00,0.0110
2744.00,0.0111
2743.00,0.0111
2742.00,0.0111
2741.00,0.0112
2740.00,0.0112
2739.00,0.0113
2738.00,0.0113
2737.00,0.0114
2736.00,0.0114
2735.00,0.0115
2734.00,0.0115
2733.00,0.0115
2732.00,0.0116
2731.00,0.0116
2730.00,0.0116
2729.00,0.0116
2728.00,0.0116
2727.00,0.0116
2726.00,0.0116
2725.00,0.0116
2724.00,0.0116
2723.00,0.0115
2722.00,0.0115
2721.00,0.0115
2720.00,0.0114
2719.00,0.0114
2718.00,0.0113
2717.00,0.0113
2716.00,0.0113
2715.00,0.0112
2714.00,0.0112
2713.00,0.0112
2712.00,0.0112
2711.00,0.0111
2710.00,0.0111
2709.00,0.0110
2708.00,0.0110
2707.00,0.0110
2706.00,0.0110
2705.00,0.0110
2704.00,0.0110
2703.00,0.0109
2702.00,0.0109
2701.00,0.0109
2700.00,0.0109
2699.00,0.0108
2698.00,0.0108
2697.00,0.0108
2696.00,0.0108
2695.00,0.0108
2694.00,0.0108
2693.00,0.0108
2692.00,0.0107
2691.00,0.0107
2690.00,0.0107
2689.00,0.0107
2688.00,0.0107
2687.00,0.0107
2686.00,0.0107
2685.00,0.0107
2684.00,0.0106
2683.00,0.0106
2682.00,0.0106
2681.00,0.0106
2680.00,0.0105
2679.00,0.0105
2678.00,0.0105
2677.00,0.0105
2676.00,0.0105
2675.00,0.0105
2674.00,0.0105
2673.00,0.0104
2672.00,0.0104
2671.00,0.0104
2670.00,0.0104
2669.00,0.0104
2668.00,0.0104
2667.00,0.0104
2666.00,0.0104
2665.00,0.0104
2664.00,0.0105
2663.00,0.0105
2662.00,0.0105
2661.00,0.0104
2660.00,0.0104
2659.00,0.0104
2658.00,0.0104
2657.00,0.0103
2656.00,0.0103
2655.00,0.0103
2654.00,0.0102
2653.00,0.0102
2652.00,0.0102
2651.00,0.0102
2650.00,0.0102
2649.00,0.0101
2648.00,0.0101
2647.00,0.0100
2646.00,0.0100
2645.00,0.0099
2644.00,0.0099
2643.00,0.0099
2642.00,0.0098
2641.00,0.0098
2640.00,0.0098
2639.00,0.0097
2638.00,0.0097
2637.00,0.0097
2636.00,0.0096
2635.00,0.0096
2634.00,0.0095
2633.00,0.0095
2632.00,0.0095
2631.00,0.0094
2630.00,0.0094
2629.00,0.0093
2628.00,0.0093
2627.00,0.0093
2626.00,0.0092
2625.00,0.0092
2624.00,0.0091
2623.00,0.0091
2622.00,0.0090
2621.00,0.0090
2620.00,0.0089
2619.00,0.0089
2618.00,0.0088
2617.00,0.0088
2616.00,0.0088
2615.00,0.0088
2614.00,0.0087
2613.00,0.0087
2612.00,0.0087
2611.00,0.0086
2610.00,0.0086
2609.00,0.0086
2608.00,0.0086
2607.00,0.0086
2606.00,0.0086
2605.00,0.0086
2604.00,0.0085
2603.00,0.0085
2602.00,0.0085
2601.00,0.0085
2600.00,0.0085
2599.00,0.0085
2598.00,0.0085
2597.00,0.0084
2596.00,0.0084
2595.00,0.0084
2594.00,0.0084
2593.00,0.0084
2592.00,0.0084
2591.00,0.0084
2590.00,0.0084
2589.00,0.0084
2588.00,0.0084
2587.00,0.0084
2586.00,0.0084
2585.00,0.0083
2584.00,0.0083
2583.00,0.0083
2582.00,0.0083
2581.00,0.0083
2580.00,0.0083
2579.00,0.0082
2578.00,0.0082
2577.00,0.0082
2576.00,0.0081
2575.00,0.0081
2574.00,0.0080
2573.00,0.0080
2572.00,0.0080
2571.00,0.0080
2570.00,0.0080
2569.00,0.0080
2568.00,0.0079
2567.00,0.0079
2566.00,0.0078
2565.00,0.0078
2564.00,0.0077
2563.00,0.0077
2562.00,0.0077
2561.00,0.0077
2560.00,0.0077
2559.00,0.0076
2558.00,0.0076
2557.00,0.0075
2556.00,0.0075
2555.00,0.0075
2554.00,0.0075
2553.00,0.0075
2552.00,0.0075
2551.00,0.0075
2550.00,0.0074
2549.00,0.0074
2548.00,0.0074
2547.00,0.0074
2546.00,0.0073
2545.00,0.0073
2544.00,0.0073
2543.00,0.0073
2542.00,0.0073
2541.00,0.0073
2540.00,0.0073
2539.00,0.0072
2538.00,0.0072
2537.00,0.0072
2536.00,0.0072
2535.00,0.0072
2534.00,0.0072
2533.00,0.0072
2532.00,0.0071
2531.00,0.0071
2530.00,0.0071
2529.00,0.0071
2528.00,0.0072
2527.00,0.0072
2526.00,0.0072
2525.00,0.0071
2524.00,0.0071
2523.00,0.0071
2522.00,0.0070
2521.00,0.0070
2520.00,0.0070
2519.00,0.0070
2518.00,0.0069
2517.00,0.0069
2516.00,0.0069
2515.00,0.0069
2514.00,0.0069
2513.00,0.0069
2512.00,0.0069
2511.00,0.0069
2510.00,0.0068
2509.00,0.0068
2508.00,0.0068
2507.00,0.0068
2506.00,0.0068
2505.00,0.0067
2504.00,0.0067
2503.00,0.0067
2502.00,0.0067
2501.00,0.0066
2500.00,0.0066
2499.00,0.0066
2498.00,0.0066
2497.00,0.0066
2496.00,0.0066
2495.00,0.0066
2494.00,0.0066
2493.00,0.0066
2492.00,0.0066
2491.00,0.0066
2490.00,0.0065
2489.00,0.0065
2488.00,0.0065
2487.00,0.0065
2486.00,0.0065
2485.00,0.0065
2484.00,0.0064
2483.00,0.0064
2482.00,0.0063
2481.00,0.0063
2480.00,0.0063
2479.00,0.0064
2478.00,0.0064
2477.00,0.0064
2476.00,0.0063
2475.00,0.0063
2474.00,0.0062
2473.00,0.0062
2472.00,0.0062
2471.00,0.0062
2470.00,0.0062
2469.00,0.0062
2468.00,0.0062
2467.00,0.0062
2466.00,0.0062
2465.00,0.0062
2464.00,0.0062
2463.00,0.0062
2462.00,0.0061
2461.00,0.0061
2460.00,0.0062
2459.00,0.0062
2458.00,0.0062
2457.00,0.0062
2456.00,0.0062
2455.00,0.0062
2454.00,0.0061
2453.00,0.0061
2452.00,0.0061
2451.00,0.0061
2450.00,0.0061
2449.00,0.0061
2448.00,0.0060
2447.00,0.0060
2446.00,0.0060
2445.00,0.0060
2444.00,0.0059
2443.00,0.0059
2442.00,0.0059
2441.00,0.0059
2440.00,0.0059
2439.00,0.0059
2438.00,0.0059
2437.00,0.0059
2436.00,0.0059
2435.00,0.0059
2434.00,0.0059
2433.00,0.0059
2432.00,0.0058
2431.00,0.0058
2430.00,0.0058
2429.00,0.0058
2428.00,0.0058
2427.00,0.0058
2426.00,0.0058
2425.00,0.0057
2424.00,0.0057
2423.00,0.0057
2422.00,0.0057
2421.00,0.0056
2420.00,0.0057
2419.00,0.0057
2418.00,0.0057
2417.00,0.0057
2416.00,0.0057
2415.00,0.0057
2414.00,0.0057
2413.00,0.0058
2412.00,0.0058
2411.00,0.0058
2410.00,0.0057
2409.00,0.0057
2408.00,0.0057
2407.00,0.0057
2406.00,0.0057
2405.00,0.0057
2404.00,0.0057
2403.00,0.0057
2402.00,0.0057
2401.00,0.0057
2400.00,0.0057
2399.00,0.0057
2398.00,0.0057
2397.00,0.0057
2396.00,0.0057
2395.00,0.0057
2394.00,0.0057
2393.00,0.0057
2392.00,0.0056
2391.00,0.0056
2390.00,0.0056
2389.00,0.0056
2388.00,0.0056
2387.00,0.0056
2386.00,0.0055
2385.00,0.0055
2384.00,0.0054
2383.00,0.0054
2382.00,0.0053
2381.00,0.0053
2380.00,0.0053
2379.00,0.0052
2378.00,0.0052
2377.00,0.0052
2376.00,0.0052
2375.00,0.0052
2374.00,0.0052
2373.00,0.0052
2372.00,0.0051
2371.00,0.0051
2370.00,0.0050
2369.00,0.0050
2368.00,0.0050
2367.00,0.0049
2366.00,0.0049
2365.00,0.0050
2364.00,0.0051
2363.00,0.0051
2362.00,0.0051
2361.00,0.0051
2360.00,0.0051
2359.00,0.0051
2358.00,0.0050
2357.00,0.0050
2356.00,0.0051
2355.00,0.0051
2354.00,0.0051
2353.00,0.0051
2352.00,0.0051
2351.00,0.0051
2350.00,0.0051
2349.00,0.0051
2348.00,0.0051
2347.00,0.0051
2346.00,0.0051
2345.00,0.0051
2344.00,0.0051
2343.00,0.0051
2342.00,0.0052
2341.00,0.0052
2340.00,0.0053
2339.00,0.0053
2338.00,0.0053
2337.00,0.0053
2336.00,0.0053
2335.00,0.0054
2334.00,0.0053
2333.00,0.0053
2332.00,0.0053
2331.00,0.0053
2330.00,0.0053
2329.00,0.0054
2328.00,0.0056
2327.00,0.0059
2326.00,0.0062
2325.00,0.0063
2324.00,0.0062
2323.00,0.0060
2322.00,0.0058
2321.00,0.0057
2320.00,0.0056
2319.00,0.0055
2318.00,0.0055
2317.00,0.0055
2316.00,0.0056
2315.00,0.0056
2314.00,0.0056
2313.00,0.0055
2312.00,0.0055
2311.00,0.0054
2310.00,0.0054
2309.00,0.0053
2308.00,0.0053
2307.00,0.0053
2306.00,0.0053
2305.00,0.0053
2304.00,0.0053
2303.00,0.0054
2302.00,0.0054
2301.00,0.0054
2300.00,0.0054
2299.00,0.0054
2298.00,0.0055
2297.00,0.0055
2296.00,0.0056
2295.00,0.0057
2294.00,0.0057
2293.00,0.0057
2292.00,0.0057
2291.00,0.0057
2290.00,0.0057
2289.00,0.0058
2288.00,0.0058
2287.00,0.0059
2286.00,0.0058
2285.00,0.0058
2284.00,0.0057
2283.00,0.0056
2282.00,0.0055
2281.00,0.0055
2280.00,0.0055
2279.00,0.0055
2278.00,0.0055
2277.00,0.0055
2276.00,0.0055
2275.00,0.0054
2274.00,0.0054
2273.00,0.0054
2272.00,0.0054
2271.00,0.0054
2270.00,0.0054
2269.00,0.0054
2268.00,0.0054
2267.00,0.0053
2266.00,0.0052
2265.00,0.0051
2264.00,0.0051
2263.00,0.0051
2262.00,0.0051
2261.00,0.0051
2260.00,0.0051
2259.00,0.0051
2258.00,0.0051
2257.00,0.0051
2256.00,0.0051
2255.00,0.0050
2254.00,0.0050
2253.00,0.0050
2252.00,0.0050
2251.00,0.0050
2250.00,0.0050
2249.00,0.0051
2248.00,0.0051
2247.00,0.0051
2246.00,0.0051
2245.00,0.0052
2244.00,0.0052
2243.00,0.0052
2242.00,0.0052
2241.00,0.0052
2240.00,0.0052
2239.00,0.0052
2238.00,0.0052
2237.00,0.0052
2236.00,0.0053
2235.00,0.0052
2234.00,0.0052
2233.00,0.0052
2232.00,0.0053
2231.00,0.0053
2230.00,0.0052
2229.00,0.0051
2228.00,0.0050
2227.00,0.0049
2226.00,0.0049
2225.00,0.0050
2224.00,0.0051
2223.00,0.0051
2222.00,0.0051
2221.00,0.0050
2220.00,0.0050
2219.00,0.0050
2218.00,0.0051
2217.00,0.0052
2216.00,0.0052
2215.00,0.0052
2214.00,0.0052
2213.00,0.0053
2212.00,0.0053
2211.00,0.0053
2210.00,0.0053
2209.00,0.0052
2208.00,0.0052
2207.00,0.0052
2206.00,0.0052
2205.00,0.0053
2204.00,0.0054
2203.00,0.0054
2202.00,0.0054
2201.00,0.0053
2200.00,0.0052
2199.00,0.0052
2198.00,0.0051
2197.00,0.0051
2196.00,0.0051
2195.00,0.0051
2194.00,0.0051
2193.00,0.0050
2192.00,0.0049
2191.00,0.0050
2190.00,0.0050
2189.00,0.0051
2188.00,0.0052
2187.00,0.0053
2186.00,0.0053
2185.00,0.0054
2184.00,0.0053
2183.00,0.0050
2182.00,0.0048
2181.00,0.0047
2180.00,0.0048
2179.00,0.0049
2178.00,0.0048
2177.00,0.0048
2176.00,0.0048
2175.00,0.0049
2174.00,0.0050
2173.00,0.0051
2172.00,0.0052
2171.00,0.0053
2170.00,0.0055
2169.00,0.0056
2168.00,0.0056
2167.00,0.0056
2166.00,0.0056
2165.00,0.0057
2164.00,0.0060
2163.00,0.0062
2162.00,0.0059
2161.00,0.0052
2160.00,0.0042
2159.00,0.0032
2158.00,0.0026
2157.00,0.0025
2156.00,0.0027
2155.00,0.0030
2154.00,0.0032
2153.00,0.0034
2152.00,0.0036
2151.00,0.0036
2150.00,0.0035
2149.00,0.0035
2148.00,0.0035
2147.00,0.0035
2146.00,0.0035
2145.00,0.0035
2144.00,0.0035
2143.00,0.0035
2142.00,0.0035
2141.00,0.0035
2140.00,0.0036
2139.00,0.0036
2138.00,0.0035
2137.00,0.0035
2136.00,0.0034
2135.00,0.0033
2134.00,0.0033
2133.00,0.0034
2132.00,0.0035
2131.00,0.0037
2130.00,0.0038
2129.00,0.0039
2128.00,0.0040
2127.00,0.0041
2126.00,0.0041
2125.00,0.0041
2124.00,0.0042
2123.00,0.0042
2122.00,0.0043
2121.00,0.0043
2120.00,0.0044
2119.00,0.0044
2118.00,0.0044
2117.00,0.0045
2116.00,0.0046
2115.00,0.0047
2114.00,0.0046
2113.00,0.0045
2112.00,0.0044
2111.00,0.0044
2110.00,0.0044
2109.00,0.0045
2108.00,0.0045
2107.00,0.0045
2106.00,0.0044
2105.00,0.0043
2104.00,0.0043
2103.00,0.0043
2102.00,0.0043
2101.00,0.0043
2100.00,0.0043
2099.00,0.0043
2098.00,0.0042
2097.00,0.0041
2096.00,0.0040
2095.00,0.0039
2094.00,0.0039
2093.00,0.0039
2092.00,0.0040
2091.00,0.0041
2090.00,0.0042
2089.00,0.0043
2088.00,0.0043
2087.00,0.0044
2086.00,0.0043
2085.00,0.0043
2084.00,0.0044
2083.00,0.0044
2082.00,0.0044
2081.00,0.0043
2080.00,0.0044
2079.00,0.0044
2078.00,0.0045
2077.00,0.0045
2076.00,0.0046
2075.00,0.0045
2074.00,0.0044
2073.00,0.0044
2072.00,0.0044
2071.00,0.0044
2070.00,0.0043
2069.00,0.0043
2068.00,0.0043
2067.00,0.0043
2066.00,0.0043
2065.00,0.0043
2064.00,0.0044
2063.00,0.0044
2062.00,0.0044
2061.00,0.0044
2060.00,0.0044
2059.00,0.0044
2058.00,0.0044
2057.00,0.0044
2056.00,0.0044
2055.00,0.0045
2054.00,0.0046
2053.00,0.0048
2052.00,0.0050
2051.00,0.0049
2050.00,0.0045
2049.00,0.0042
2048.00,0.0040
2047.00,0.0040
2046.00,0.0040
2045.00,0.0040
2044.00,0.0042
2043.00,0.0044
2042.00,0.0045
2041.00,0.0045
2040.00,0.0046
2039.00,0.0045
2038.00,0.0044
2037.00,0.0043
2036.00,0.0043
2035.00,0.0042
2034.00,0.0041
2033.00,0.0040
2032.00,0.0040
2031.00,0.0040
2030.00,0.0040
2029.00,0.0040
2028.00,0.0041
2027.00,0.0041
2026.00,0.0040
2025.00,0.0039
2024.00,0.0039
2023.00,0.0039
2022.00,0.0039
2021.00,0.0039
2020.00,0.0040
2019.00,0.0040
2018.00,0.0039
2017.00,0.0039
2016.00,0.0040
2015.00,0.0041
2014.00,0.0040
2013.00,0.0040
2012.00,0.0040
2011.00,0.0040
2010.00,0.0039
2009.00,0.0038
2008.00,0.0036
2007.00,0.0034
2006.00,0.0033
2005.00,0.0034
2004.00,0.0036
2003.00,0.0038
2002.00,0.0038
2001.00,0.0038
2000.00,0.0039
1999.00,0.0040
1998.00,0.0040
1997.00,0.0040
1996.00,0.0041
1995.00,0.0041
1994.00,0.0042
1993.00,0.0043
1992.00,0.0045
1991.00,0.0045
1990.00,0.0045
1989.00,0.0044
1988.00,0.0044
1987.00,0.0043
1986.00,0.0043
1985.00,0.0044
1984.00,0.0046
1983.00,0.0048
1982.00,0.0050
1981.00,0.0050
1980.00,0.0049
1979.00,0.0044
1978.00,0.0039
1977.00,0.0036
1976.00,0.0036
1975.00,0.0037
1974.00,0.0036
1973.00,0.0036
1972.00,0.0037
1971.00,0.0036
1970.00,0.0036
1969.00,0.0036
1968.00,0.0037
1967.00,0.0037
1966.00,0.0037
1965.00,0.0036
1964.00,0.0037
1963.00,0.0036
1962.00,0.0034
1961.00,0.0033
1960.00,0.0032
1959.00,0.0033
1958.00,0.0034
1957.00,0.0036
1956.00,0.0038
1955.00,0.0038
1954.00,0.0037
1953.00,0.0036
1952.00,0.0037
1951.00,0.0038
1950.00,0.0039
1949.00,0.0039
1948.00,0.0040
1947.00,0.0040
1946.00,0.0039
1945.00,0.0039
1944.00,0.0039
1943.00,0.0040
1942.00,0.0040
1941.00,0.0040
1940.00,0.0040
1939.00,0.0040
1938.00,0.0040
1937.00,0.0039
1936.00,0.0039
1935.00,0.0039
1934.00,0.0040
1933.00,0.0040
1932.00,0.0041
1931.00,0.0041
1930.00,0.0041
1929.00,0.0041
1928.00,0.0041
1927.00,0.0041
1926.00,0.0040
1925.00,0.0039
1924.00,0.0039
1923.00,0.0040
1922.00,0.0041
1921.00,0.0041
1920.00,0.0042
1919.00,0.0042
1918.00,0.0042
1917.00,0.0041
1916.00,0.0041
1915.00,0.0041
1914.00,0.0042
1913.00,0.0042
1912.00,0.0042
1911.00,0.0042
1910.00,0.0042
1909.00,0.0042
1908.00,0.0042
1907.00,0.0042
1906.00,0.0042
1905.00,0.0042
1904.00,0.0042
1903.00,0.0042
1902.00,0.0042
1901.00,0.0042
1900.00,0.0042
1899.00,0.0043
1898.00,0.0042
1897.00,0.0042
1896.00,0.0043
1895.00,0.0043
1894.00,0.0042
1893.00,0.0042
1892.00,0.0042
1891.00,0.0042
1890.00,0.0042
1889.00,0.0042
1888.00,0.0042
1887.00,0.0042
1886.00,0.0042
1885.00,0.0042
1884.00,0.0043
1883.00,0.0043
1882.00,0.0044
1881.00,0.0044
1880.00,0.0044
1879.00,0.0043
1878.00,0.0043
1877.00,0.0043
1876.00,0.0043
1875.00,0.0043
1874.00,0.0043
1873.00,0.0044
1872.00,0.0044
1871.00,0.0044
1870.00,0.0044
1869.00,0.0044
1868.00,0.0044
1867.00,0.0045
1866.00,0.0045
1865.00,0.0044
1864.00,0.0044
1863.00,0.0044
1862.00,0.0044
1861.00,0.0045
1860.00,0.0045
1859.00,0.0045
1858.00,0.0044
1857.00,0.0044
1856.00,0.0044
1855.00,0.0044
1854.00,0.0044
1853.00,0.0043
1852.00,0.0044
1851.00,0.0044
1850.00,0.0044
1849.00,0.0044
1848.00,0.0045
1847.00,0.0045
1846.00,0.0045
1845.00,0.0045
1844.00,0.0045
1843.00,0.0045
1842.00,0.0045
1841.00,0.0045
1840.00,0.0045
1839.00,0.0045
1838.00,0.0045
1837.00,0.0045
1836.00,0.0045
1835.00,0.0045
1834.00,0.0045
1833.00,0.0045
1832.00,0.0045
1831.00,0.0046
1830.00,0.0045
1829.00,0.0045
1828.00,0.0045
1827.00,0.0046
1826.00,0.0046
1825.00,0.0046
1824.00,0.0047
1823.00,0.0047
1822.00,0.0046
1821.00,0.0046
1820.00,0.0046
1819.00,0.0045
1818.00,0.0044
1817.00,0.0044
1816.00,0.0044
1815.00,0.0044
1814.00,0.0045
1813.00,0.0045
1812.00,0.0046
1811.00,0.0047
1810.00,0.0047
1809.00,0.0047
1808.00,0.0047
1807.00,0.0047
1806.00,0.0047
1805.00,0.0047
1804.00,0.0047
1803.00,0.0048
1802.00,0.0048
1801.00,0.0048
1800.00,0.0048
1799.00,0.0048
1798.00,0.0048
1797.00,0.0048
1796.00,0.0048
1795.00,0.0048
1794.00,0.0048
1793.00,0.0048
1792.00,0.0048
1791.00,0.0048
1790.00,0.0048
1789.00,0.0048
1788.00,0.0049
1787.00,0.0049
1786.00,0.0049
1785.00,0.0049
1784.00,0.0050
1783.00,0.0050
1782.00,0.0050
1781.00,0.0050
1780.00,0.0051
1779.00,0.0051
1778.00,0.0051
1777.00,0.0051
1776.00,0.0052
1775.00,0.0052
1774.00,0.0051
1773.00,0.0051
1772.00,0.0051
1771.00,0.0052
1770.00,0.0052
1769.00,0.0052
1768.00,0.0053
1767.00,0.0054
1766.00,0.0053
1765.00,0.0054
1764.00,0.0055
1763.00,0.0055
1762.00,0.0055
1761.00,0.0055
1760.00,0.0055
1759.00,0.0056
1758.00,0.0056
1757.00,0.0056
1756.00,0.0057
1755.00,0.0057
1754.00,0.0057
1753.00,0.0057
1752.00,0.0058
1751.00,0.0059
1750.00,0.0059
1749.00,0.0059
1748.00,0.0061
1747.00,0.0061
1746.00,0.0062
1745.00,0.0062
1744.00,0.0063
1743.00,0.0064
1742.00,0.0064
1741.00,0.0063
1740.00,0.0063
1739.00,0.0064
1738.00,0.0064
1737.00,0.0065
1736.00,0.0066
1735.00,0.0067
1734.00,0.0067
1733.00,0.0067
1732.00,0.0069
1731.00,0.0071
1730.00,0.0073
1729.00,0.0075
1728.00,0.0076
1727.00,0.0078
1726.00,0.0079
1725.00,0.0080
1724.00,0.0082
1723.00,0.0084
1722.00,0.0085
1721.00,0.0087
1720.00,0.0088
1719.00,0.0090
1718.00,0.0092
1717.00,0.0094
1716.00,0.0097
1715.00,0.0100
1714.00,0.0103
1713.00,0.0107
1712.00,0.0112
1711.00,0.0118
1710.00,0.0123
1709.00,0.0128
1708.00,0.0135
1707.00,0.0143
1706.00,0.0152
1705.00,0.0162
1704.00,0.0173
1703.00,0.0183
1702.00,0.0194
1701.00,0.0210
1700.00,0.0232
1699.00,0.0255
1698.00,0.0277
1697.00,0.0304
1696.00,0.0339
1695.00,0.0376
1694.00,0.0411
1693.00,0.0443
1692.00,0.0478
1691.00,0.0514
1690.00,0.0551
1689.00,0.0587
1688.00,0.0620
1687.00,0.0648
1686.00,0.0674
1685.00,0.0699
1684.00,0.0724
1683.00,0.0744
1682.00,0.0761
1681.00,0.0779
1680.00,0.0798
1679.00,0.0817
1678.00,0.0836
1677.00,0.0859
1676.00,0.0887
1675.00,0.0920
1674.00,0.0957
1673.00,0.0996
1672.00,0.1041
1671.00,0.1092
1670.00,0.1148
1669.00,0.1208
1668.00,0.1267
1667.00,0.1322
1666.00,0.1374
1665.00,0.1425
1664.00,0.1477
1663.00,0.1526
1662.00,0.1569
1661.00,0.1607
1660.00,0.1642
1659.00,0.1673
1658.00,0.1699
1657.00,0.1722
1656.00,0.1744
1655.00,0.1756
1654.00,0.1741
1653.00,0.1689
1652.00,0.1642
1651.00,0.1620
1650.00,0.1609
1649.00,0.1590
1648.00,0.1548
1647.00,0.1475
1646.00,0.1390
1645.00,0.1317
1644.00,0.1258
1643.00,0.1207
1642.00,0.1154
1641.00,0.1099
1640.00,0.1046
1639.00,0.1000
1638.00,0.0955
1637.00,0.0906
1636.00,0.0850
1635.00,0.0796
1634.00,0.0756
1633.00,0.0731
1632.00,0.0715
1631.00,0.0701
1630.00,0.0688
1629.00,0.0678
1628.00,0.0670
1627.00,0.0667
1626.00,0.0666
1625.00,0.0668
1624.00,0.0670
1623.00,0.0672
1622.00,0.0672
1621.00,0.0672
1620.00,0.0671
1619.00,0.0668
1618.00,0.0657
1617.00,0.0638
1616.00,0.0615
1615.00,0.0594
1614.00,0.0576
1613.00,0.0559
1612.00,0.0543
1611.00,0.0528
1610.00,0.0516
1609.00,0.0510
1608.00,0.0510
1607.00,0.0518
1606.00,0.0533
1605.00,0.0556
1604.00,0.0585
1603.00,0.0618
1602.00,0.0653
1601.00,0.0687
1600.00,0.0715
1599.00,0.0736
1598.00,0.0748
1597.00,0.0750
1596.00,0.0743
1595.00,0.0729
1594.00,0.0708
1593.00,0.0686
1592.00,0.0663
1591.00,0.0641
1590.00,0.0621
1589.00,0.0601
1588.00,0.0582
1587.00,0.0563
1586.00,0.0544
1585.00,0.0522
1584.00,0.0500
1583.00,0.0477
1582.00,0.0454
1581.00,0.0431
1580.00,0.0410
1579.00,0.0392
1578.00,0.0374
1577.00,0.0354
1576.00,0.0334
1575.00,0.0316
1574.00,0.0305
1573.00,0.0296
1572.00,0.0289
1571.00,0.0280
1570.00,0.0270
1569.00,0.0260
1568.00,0.0252
1567.00,0.0246
1566.00,0.0241
1565.00,0.0236
1564.00,0.0232
1563.00,0.0228
1562.00,0.0224
1561.00,0.0220
1560.00,0.0214
1559.00,0.0207
1558.00,0.0201
1557.00,0.0199
1556.00,0.0199
1555.00,0.0200
1554.00,0.0200
1553.00,0.0199
1552.00,0.0199
1551.00,0.0200
1550.00,0.0200
1549.00,0.0200
1548.00,0.0200
1547.00,0.0200
1546.00,0.0202
1545.00,0.0203
1544.00,0.0205
1543.00,0.0206
1542.00,0.0206
1541.00,0.0206
1540.00,0.0208
1539.00,0.0209
1538.00,0.0210
1537.00,0.0212
1536.00,0.0214
1535.00,0.0215
1534.00,0.0214
1533.00,0.0213
1532.00,0.0211
1531.00,0.0210
1530.00,0.0210
1529.00,0.0210
1528.00,0.0211
1527.00,0.0211
1526.00,0.0211
1525.00,0.0211
1524.00,0.0212
1523.00,0.0213
1522.00,0.0214
1521.00,0.0215
1520.00,0.0216
1519.00,0.0217
1518.00,0.0218
1517.00,0.0219
1516.00,0.0219
1515.00,0.0218
1514.00,0.0217
1513.00,0.0216
1512.00,0.0215
1511.00,0.0215
1510.00,0.0215
1509.00,0.0216
1508.00,0.0217
1507.00,0.0218
1506.00,0.0220
1505.00,0.0225
1504.00,0.0234
1503.00,0.0245
1502.00,0.0259
1501.00,0.0274
1500.00,0.0291
1499.00,0.0310
1498.00,0.0330
1497.00,0.0351
1496.00,0.0370
1495.00,0.0383
1494.00,0.0391
1493.00,0.0394
1492.00,0.0391
1491.00,0.0381
1490.00,0.0363
1489.00,0.0342
1488.00,0.0321
1487.00,0.0301
1486.00,0.0284
1485.00,0.0270
1484.00,0.0260
1483.00,0.0251
1482.00,0.0245
1481.00,0.0241
1480.00,0.0240
1479.00,0.0240
1478.00,0.0243
1477.00,0.0249
1476.00,0.0258
1475.00,0.0268
1474.00,0.0283
1473.00,0.0306
1472.00,0.0337
1471.00,0.0372
1470.00,0.0409
1469.00,0.0450
1468.00,0.0495
1467.00,0.0542
1466.00,0.0592
1465.00,0.0645
1464.00,0.0692
1463.00,0.0728
1462.00,0.0751
1461.00,0.0764
1460.00,0.0769
1459.00,0.0764
1458.00,0.0745
1457.00,0.0718
1456.00,0.0694
1455.00,0.0681
1454.00,0.0677
1453.00,0.0680
1452.00,0.0688
1451.00,0.0701
1450.00,0.0719
1449.00,0.0744
1448.00,0.0777
1447.00,0.0814
1446.00,0.0853
1445.00,0.0894
1444.00,0.0936
1443.00,0.0977
1442.00,0.1017
1441.00,0.1055
1440.00,0.1090
1439.00,0.1121
1438.00,0.1151
1437.00,0.1182
1436.00,0.1215
1435.00,0.1250
1434.00,0.1289
1433.00,0.1335
1432.00,0.1384
1431.00,0.1433
1430.00,0.1476
1429.00,0.1511
1428.00,0.1532
1427.00,0.1539
1426.00,0.1535
1425.00,0.1519
1424.00,0.1492
1423.00,0.1457
1422.00,0.1417
1421.00,0.1369
1420.00,0.1299
1419.00,0.1203
1418.00,0.1104
1417.00,0.1018
1416.00,0.0944
1415.00,0.0877
1414.00,0.0816
1413.00,0.0763
1412.00,0.0717
1411.00,0.0678
1410.00,0.0647
1409.00,0.0623
1408.00,0.0604
1407.00,0.0589
1406.00,0.0579
1405.00,0.0570
1404.00,0.0564
1403.00,0.0559
1402.00,0.0558
1401.00,0.0558
1400.00,0.0559
1399.00,0.0561
1398.00,0.0564
1397.00,0.0568
1396.00,0.0573
1395.00,0.0577
1394.00,0.0583
1393.00,0.0590
1392.00,0.0597
1391.00,0.0606
1390.00,0.0617
1389.00,0.0629
1388.00,0.0644
1387.00,0.0660
1386.00,0.0679
1385.00,0.0699
1384.00,0.0719
1383.00,0.0738
1382.00,0.0756
1381.00,0.0773
1380.00,0.0787
1379.00,0.0799
1378.00,0.0808
1377.00,0.0815
1376.00,0.0815
1375.00,0.0808
1374.00,0.0793
1373.00,0.0772
1372.00,0.0750
1371.00,0.0730
1370.00,0.0712
1369.00,0.0695
1368.00,0.0679
1367.00,0.0664
1366.00,0.0652
1365.00,0.0640
1364.00,0.0628
1363.00,0.0615
1362.00,0.0603
1361.00,0.0593
1360.00,0.0585
1359.00,0.0580
1358.00,0.0576
1357.00,0.0574
1356.00,0.0573
1355.00,0.0572
1354.00,0.0572
1353.00,0.0571
1352.00,0.0570
1351.00,0.0567
1350.00,0.0562
1349.00,0.0556
1348.00,0.0548
1347.00,0.0539
1346.00,0.0530
1345.00,0.0521
1344.00,0.0512
1343.00,0.0505
1342.00,0.0499
1341.00,0.0494
1340.00,0.0490
1339.00,0.0487
1338.00,0.0484
1337.00,0.0482
1336.00,0.0480
1335.00,0.0479
1334.00,0.0478
1333.00,0.0479
1332.00,0.0480
1331.00,0.0483
1330.00,0.0487
1329.00,0.0492
1328.00,0.0500
1327.00,0.0509
1326.00,0.0519
1325.00,0.0532
1324.00,0.0545
1323.00,0.0559
1322.00,0.0572
1321.00,0.0584
1320.00,0.0595
1319.00,0.0603
1318.00,0.0608
1317.00,0.0610
1316.00,0.0608
1315.00,0.0604
1314.00,0.0598
1313.00,0.0590
1312.00,0.0582
1311.00,0.0573
1310.00,0.0565
1309.00,0.0558
1308.00,0.0553
1307.00,0.0549
1306.00,0.0547
1305.00,0.0550
1304.00,0.0556
1303.00,0.0567
1302.00,0.0585
1301.00,0.0609
1300.00,0.0643
1299.00,0.0686
1298.00,0.0741
1297.00,0.0807
1296.00,0.0882
1295.00,0.0962
1294.00,0.1043
1293.00,0.1117
1292.00,0.1181
1291.00,0.1228
1290.00,0.1259
1289.00,0.1272
1288.00,0.1270
1287.00,0.1253
1286.00,0.1227
1285.00,0.1194
1284.00,0.1157
1283.00,0.1119
1282.00,0.1084
1281.00,0.1055
1280.00,0.1035
1279.00,0.1022
1278.00,0.1018
1277.00,0.1019
1276.00,0.1024
1275.00,0.1028
1274.00,0.1029
1273.00,0.1024
1272.00,0.1013
1271.00,0.0995
1270.00,0.0971
1269.00,0.0942
1268.00,0.0909
1267.00,0.0874
1266.00,0.0839
1265.00,0.0804
1264.00,0.0771
1263.00,0.0739
1262.00,0.0711
1261.00,0.0685
1260.00,0.0662
1259.00,0.0641
1258.00,0.0622
1257.00,0.0605
1256.00,0.0588
1255.00,0.0572
1254.00,0.0556
1253.00,0.0541
1252.00,0.0526
1251.00,0.0511
1250.00,0.0497
1249.00,0.0483
1248.00,0.0471
1247.00,0.0460
1246.00,0.0451
1245.00,0.0443
1244.00,0.0438
1243.00,0.0434
1242.00,0.0433
1241.00,0.0434
1240.00,0.0438
1239.00,0.0445
1238.00,0.0455
1237.00,0.0470
1236.00,0.0488
1235.00,0.0510
1234.00,0.0536
1233.00,0.0563
1232.00,0.0591
1231.00,0.0617
1230.00,0.0641
1229.00,0.0660
1228.00,0.0676
1227.00,0.0686
1226.00,0.0692
1225.00,0.0695
1224.00,0.0695
1223.00,0.0694
1222.00,0.0691
1221.00,0.0687
1220.00,0.0681
1219.00,0.0674
1218.00,0.0665
1217.00,0.0654
1216.00,0.0641
1215.00,0.0626
1214.00,0.0611
1213.00,0.0595
1212.00,0.0579
1211.00,0.0564
1210.00,0.0551
1209.00,0.0540
1208.00,0.0530
1207.00,0.0521
1206.00,0.0514
1205.00,0.0508
1204.00,0.0502
1203.00,0.0497
1202.00,0.0491
1201.00,0.0485
1200.00,0.0478
1199.00,0.0471
1198.00,0.0463
1197.00,0.0455
1196.00,0.0447
1195.00,0.0439
1194.00,0.0433
1193.00,0.0427
1192.00,0.0422
1191.00,0.0419
1190.00,0.0416
1189.00,0.0414
1188.00,0.0413
1187.00,0.0412
1186.00,0.0412
1185.00,0.0413
1184.00,0.0414
1183.00,0.0416
1182.00,0.0420
1181.00,0.0426
1180.00,0.0433
1179.00,0.0443
1178.00,0.0456
1177.00,0.0471
1176.00,0.0488
1175.00,0.0507
1174.00,0.0527
1173.00,0.0550
1172.00,0.0573
1171.00,0.0598
1170.00,0.0622
1169.00,0.0646
1168.00,0.0668
1167.00,0.0688
1166.00,0.0704
1165.00,0.0715
1164.00,0.0722
1163.00,0.0722
1162.00,0.0717
1161.00,0.0708
1160.00,0.0695
1159.00,0.0679
1158.00,0.0663
1157.00,0.0646
1156.00,0.0628
1155.00,0.0609
1154.00,0.0589
1153.00,0.0569
1152.00,0.0548
1151.00,0.0527
1150.00,0.0506
1149.00,0.0484
1148.00,0.0462
1147.00,0.0440
1146.00,0.0419
1145.00,0.0400
1144.00,0.0384
1143.00,0.0370
1142.00,0.0359
1141.00,0.0351
1140.00,0.0343
1139.00,0.0336
1138.00,0.0329
1137.00,0.0322
1136.00,0.0314
1135.00,0.0306
1134.00,0.0298
1133.00,0.0290
1132.00,0.0283
1131.00,0.0276
1130.00,0.0270
1129.00,0.0265
1128.00,0.0260
1127.00,0.0256
1126.00,0.0253
1125.00,0.0250
1124.00,0.0248
1123.00,0.0247
1122.00,0.0246
1121.00,0.0246
1120.00,0.0247
1119.00,0.0248
1118.00,0.0251
1117.00,0.0256
1116.00,0.0262
1115.00,0.0269
1114.00,0.0278
1113.00,0.0288
1112.00,0.0299
1111.00,0.0309
1110.00,0.0317
1109.00,0.0323
1108.00,0.0326
1107.00,0.0327
1106.00,0.0327
1105.00,0.0324
1104.00,0.0322
1103.00,0.0320
1102.00,0.0320
1101.00,0.0321
1100.00,0.0325
1099.00,0.0330
1098.00,0.0336
1097.00,0.0343
1096.00,0.0349
1095.00,0.0354
1094.00,0.0358
1093.00,0.0361
1092.00,0.0362
1091.00,0.0364
1090.00,0.0367
1089.00,0.0373
1088.00,0.0382
1087.00,0.0393
1086.00,0.0405
1085.00,0.0417
1084.00,0.0427
1083.00,0.0434
1082.00,0.0437
1081.00,0.0436
1080.00,0.0430
1079.00,0.0421
1078.00,0.0410
1077.00,0.0399
1076.00,0.0387
1075.00,0.0375
1074.00,0.0363
1073.00,0.0352
1072.00,0.0341
1071.00,0.0331
1070.00,0.0321
1069.00,0.0313
1068.00,0.0307
1067.00,0.0303
1066.00,0.0300
1065.00,0.0300
1064.00,0.0302
1063.00,0.0307
1062.00,0.0315
1061.00,0.0327
1060.00,0.0343
1059.00,0.0364
1058.00,0.0392
1057.00,0.0430
1056.00,0.0477
1055.00,0.0534
1054.00,0.0601
1053.00,0.0676
1052.00,0.0755
1051.00,0.0832
1050.00,0.0901
1049.00,0.0956
1048.00,0.0995
1047.00,0.1014
1046.00,0.1016
1045.00,0.1004
1044.00,0.0981
1043.00,0.0952
1042.00,0.0921
1041.00,0.0891
1040.00,0.0863
1039.00,0.0837
1038.00,0.0812
1037.00,0.0789
1036.00,0.0767
1035.00,0.0746
1034.00,0.0725
1033.00,0.0706
1032.00,0.0688
1031.00,0.0671
1030.00,0.0656
1029.00,0.0643
1028.00,0.0631
1027.00,0.0621
1026.00,0.0612
1025.00,0.0604
1024.00,0.0596
1023.00,0.0588
1022.00,0.0580
1021.00,0.0571
1020.00,0.0561
1019.00,0.0549
1018.00,0.0535
1017.00,0.0518
1016.00,0.0498
1015.00,0.0477
1014.00,0.0454
1013.00,0.0432
1012.00,0.0411
1011.00,0.0393
1010.00,0.0379
1009.00,0.0370
1008.00,0.0364
1007.00,0.0362
1006.00,0.0363
1005.00,0.0366
1004.00,0.0369
1003.00,0.0372
1002.00,0.0372
1001.00,0.0369
1000.00,0.0364
999.00,0.0357
998.00,0.0350
997.00,0.0343
996.00,0.0337
995.00,0.0333
994.00,0.0330
993.00,0.0330
992.00,0.0331
991.00,0.0334
990.00,0.0339
989.00,0.0344
988.00,0.0350
987.00,0.0355
986.00,0.0357
985.00,0.0357
984.00,0.0354
983.00,0.0348
982.00,0.0341
981.00,0.0334
980.00,0.0327
979.00,0.0320
978.00,0.0315
977.00,0.0310
976.00,0.0306
975.00,0.0301
974.00,0.0296
973.00,0.0291
972.00,0.0285
971.00,0.0279
970.00,0.0273
969.00,0.0267
968.00,0.0261
967.00,0.0255
966.00,0.0249
965.00,0.0243
964.00,0.0238
963.00,0.0232
962.00,0.0227
961.00,0.0222
960.00,0.0216
959.00,0.0210
958.00,0.0204
957.00,0.0199
956.00,0.0194
955.00,0.0189
954.00,0.0185
953.00,0.0182
952.00,0.0179
951.00,0.0177
950.00,0.0175
949.00,0.0173
948.00,0.0171
947.00,0.0170
946.00,0.0170
945.00,0.0169
944.00,0.0169
943.00,0.0169
942.00,0.0170
941.00,0.0171
940.00,0.0174
939.00,0.0177
938.00,0.0182
937.00,0.0187
936.00,0.0193
935.00,0.0200
934.00,0.0206
933.00,0.0210
932.00,0.0211
931.00,0.0209
930.00,0.0206
929.00,0.0203
928.00,0.0201
927.00,0.0200
926.00,0.0201
925.00,0.0203
924.00,0.0206
923.00,0.0210
922.00,0.0214
921.00,0.0219
920.00,0.0225
919.00,0.0231
918.00,0.0237
917.00,0.0242
916.00,0.0248
915.00,0.0253
914.00,0.0259
913.00,0.0266
912.00,0.0273
911.00,0.0280
910.00,0.0286
909.00,0.0292
908.00,0.0297
907.00,0.0299
906.00,0.0300
905.00,0.0298
904.00,0.0295
903.00,0.0290
902.00,0.0286
901.00,0.0281
900.00,0.0277
899.00,0.0273
898.00,0.0271
897.00,0.0269
896.00,0.0267
895.00,0.0265
894.00,0.0262
893.00,0.0259
892.00,0.0256
891.00,0.0252
890.00,0.0249
889.00,0.0247
888.00,0.0246
887.00,0.0245
886.00,0.0245
885.00,0.0246
884.00,0.0247
883.00,0.0249
882.00,0.0251
881.00,0.0253
880.00,0.0255
879.00,0.0257
878.00,0.0259
877.00,0.0261
876.00,0.0264
875.00,0.0266
874.00,0.0269
873.00,0.0271
872.00,0.0273
871.00,0.0275
870.00,0.0277
869.00,0.0281
868.00,0.0285
867.00,0.0290
866.00,0.0297
865.00,0.0304
864.00,0.0313
863.00,0.0322
862.00,0.0333
861.00,0.0344
860.00,0.0357
859.00,0.0370
858.00,0.0383
857.00,0.0397
856.00,0.0411
855.00,0.0426
854.00,0.0441
853.00,0.0456
852.00,0.0470
851.00,0.0483
850.00,0.0495
849.00,0.0506
848.00,0.0517
847.00,0.0527
846.00,0.0536
845.00,0.0544
844.00,0.0552
843.00,0.0559
842.00,0.0567
841.00,0.0575
840.00,0.0583
839.00,0.0591
838.00,0.0600
837.00,0.0609
836.00,0.0619
835.00,0.0629
834.00,0.0639
833.00,0.0648
832.00,0.0657
831.00,0.0664
830.00,0.0669
829.00,0.0671
828.00,0.0670
827.00,0.0666
826.00,0.0658
825.00,0.0646
824.00,0.0630
823.00,0.0611
822.00,0.0591
821.00,0.0568
820.00,0.0546
819.00,0.0523
818.00,0.0502
817.00,0.0482
816.00,0.0464
815.00,0.0448
814.00,0.0432
813.00,0.0419
812.00,0.0406
811.00,0.0395
810.00,0.0385
809.00,0.0376
808.00,0.0369
807.00,0.0363
806.00,0.0358
805.00,0.0354
804.00,0.0351
803.00,0.0348
802.00,0.0347
801.00,0.0347
800.00,0.0349
799.00,0.0352
798.00,0.0356
797.00,0.0362
796.00,0.0367
795.00,0.0372
794.00,0.0377
793.00,0.0380
792.00,0.0383
791.00,0.0385
790.00,0.0386
789.00,0.0387
788.00,0.0387
787.00,0.0388
786.00,0.0390
785.00,0.0392
784.00,0.0395
783.00,0.0399
782.00,0.0403
781.00,0.0408
780.00,0.0412
779.00,0.0416
778.00,0.0419
777.00,0.0422
776.00,0.0424
775.00,0.0425
774.00,0.0426
773.00,0.0425
772.00,0.0425
771.00,0.0423
770.00,0.0421
769.00,0.0420
768.00,0.0419
767.00,0.0418
766.00,0.0418
765.00,0.0418
764.00,0.0419
763.00,0.0422
762.00,0.0425
761.00,0.0430
760.00,0.0436
759.00,0.0443
758.00,0.0451
757.00,0.0459
756.00,0.0468
755.00,0.0477
754.00,0.0486
753.00,0.0497
752.00,0.0507
751.00,0.0518
750.00,0.0529
749.00,0.0539
748.00,0.0549
747.00,0.0559
746.00,0.0569
745.00,0.0579
744.00,0.0587
743.00,0.0595
742.00,0.0602
741.00,0.0609
740.00,0.0615
739.00,0.0620
738.00,0.0625
737.00,0.0627
736.00,0.0628
735.00,0.0626
734.00,0.0622
733.00,0.0615
732.00,0.0607
731.00,0.0597
730.00,0.0585
729.00,0.0572
728.00,0.0558
727.00,0.0543
726.00,0.0529
725.00,0.0516
724.00,0.0504
723.00,0.0492
722.00,0.0482
721.00,0.0473
720.00,0.0465
719.00,0.0459
718.00,0.0454
717.00,0.0451
716.00,0.0448
715.00,0.0447
714.00,0.0446
713.00,0.0445
712.00,0.0445
711.00,0.0445
710.00,0.0445
709.00,0.0446
708.00,0.0447
707.00,0.0449
706.00,0.0450
705.00,0.0451
704.00,0.0453
703.00,0.0454
702.00,0.0456
701.00,0.0459
700.00,0.0462
699.00,0.0465
698.00,0.0467
697.00,0.0471
696.00,0.0474
695.00,0.0477
694.00,0.0480
693.00,0.0483
692.00,0.0486
691.00,0.0490
690.00,0.0494
689.00,0.0498
688.00,0.0504
687.00,0.0509
686.00,0.0515
685.00,0.0520
684.00,0.0525
683.00,0.0530
682.00,0.0536
681.00,0.0541
680.00,0.0547
679.00,0.0552
678.00,0.0557
677.00,0.0562
676.00,0.0568
675.00,0.0574
674.00,0.0579
673.00,0.0585
672.00,0.0591
671.00,0.0596
670.00,0.0602
669.00,0.0610
668.00,0.0619
667.00,0.0629
666.00,0.0636
665.00,0.0641
664.00,0.0648
663.00,0.0655
662.00,0.0662
661.00,0.0669
660.00,0.0676
659.00,0.0684
658.00,0.0691
657.00,0.0698
656.00,0.0705
655.00,0.0711
654.00,0.0718
653.00,0.0724
652.00,0.0730
651.00,0.0734
650.00,0.0736
649.00,0.0735
648.00,0.0732
647.00,0.0727
646.00,0.0720
645.00,0.0710
644.00,0.0698
643.00,0.0685
642.00,0.0671
641.00,0.0657
640.00,0.0643
639.00,0.0628
638.00,0.0615
637.00,0.0602
636.00,0.0591
635.00,0.0581
634.00,0.0570
633.00,0.0560
632.00,0.0550
631.00,0.0541
630.00,0.0531
629.00,0.0523
628.00,0.0516
627.00,0.0509
626.00,0.0502
625.00,0.0496
624.00,0.0490
623.00,0.0486
622.00,0.0482
621.00,0.0478
620.00,0.0476
619.00,0.0474
618.00,0.0473
617.00,0.0473
616.00,0.0473
615.00,0.0474
614.00,0.0474
613.00,0.0475
612.00,0.0475
611.00,0.0476
610.00,0.0478
609.00,0.0481
608.00,0.0486
607.00,0.0492
606.00,0.0499
605.00,0.0505
604.00,0.0512
603.00,0.0518
602.00,0.0524
601.00,0.0529
600.00,0.0534
599.00,0.0538
598.00,0.0543
597.00,0.0548
596.00,0.0553
595.00,0.0558
594.00,0.0563
593.00,0.0568
592.00,0.0575
591.00,0.0581
590.00,0.0589
589.00,0.0597
588.00,0.0606
587.00,0.0615
586.00,0.0625
585.00,0.0635
584.00,0.0646
583.00,0.0656
582.00,0.0666
581.00,0.0675
580.00,0.0682
579.00,0.0686
578.00,0.0687
577.00,0.0685
576.00,0.0680
575.00,0.0673
574.00,0.0664
573.00,0.0654
572.00,0.0646
571.00,0.0638
570.00,0.0630
569.00,0.0622
568.00,0.0615
567.00,0.0608
566.00,0.0600
565.00,0.0592
564.00,0.0583
563.00,0.0572
562.00,0.0561
561.00,0.0549
560.00,0.0537
559.00,0.0524
558.00,0.0511
557.00,0.0498
556.00,0.0487
555.00,0.0477
554.00,0.0469
553.00,0.0462
552.00,0.0457
551.00,0.0453
550.00,0.0449
549.00,0.0447
548.00,0.0446
547.00,0.0446
546.00,0.0445
545.00,0.0445
544.00,0.0445
543.00,0.0445
542.00,0.0444
541.00,0.0443
540.00,0.0442
539.00,0.0441
538.00,0.0440
537.00,0.0439
536.00,0.0439
535.00,0.0439
534.00,0.0439
533.00,0.0439
532.00,0.0439
531.00,0.0437
530.00,0.0434
529.00,0.0430
528.00,0.0427
527.00,0.0425
526.00,0.0422
525.00,0.0420
524.00,0.0418
523.00,0.0415
522.00,0.0412
521.00,0.0409
520.00,0.0407
519.00,0.0405
518.00,0.0403
517.00,0.0402
516.00,0.0400
515.00,0.0397
514.00,0.0393
513.00,0.0389
512.00,0.0386
511.00,0.0385
510.00,0.0383
509.00,0.0380
508.00,0.0378
507.00,0.0376
506.00,0.0376
505.00,0.0377
504.00,0.0378
503.00,0.0378
502.00,0.0377
501.00,0.0376
500.00,0.0376
499.00,0.0378
498.00,0.0380
497.00,0.0383
496.00,0.0386
495.00,0.0387
494.00,0.0389
493.00,0.0391
492.00,0.0394
491.00,0.0397
490.00,0.0399
489.00,0.0400
488.00,0.0399
487.00,0.0398
486.00,0.0397
485.00,0.0396
484.00,0.0396
483.00,0.0397
482.00,0.0398
481.00,0.0400
480.00,0.0402
479.00,0.0403
478.00,0.0402
477.00,0.0400
476.00,0.0398
475.00,0.0397
474.00,0.0399
473.00,0.0402
472.00,0.0405
471.00,0.0407
470.00,0.0407
469.00,0.0407
468.00,0.0407
467.00,0.0406
466.00,0.0406
465.00,0.0407
464.00,0.0410
463.00,0.0414
462.00,0.0416
461.00,0.0416
460.00,0.0417
459.00,0.0419
458.00,0.0423
457.00,0.0431
456.00,0.0439
455.00,0.0446
454.00,0.0449
453.00,0.0450
452.00,0.0447
451.00,0.0444
450.00,0.0440
449.00,0.0439
448.00,0.0439
447.00,0.0438
446.00,0.0433
445.00,0.0426
444.00,0.0419
443.00,0.0414
442.00,0.0411
441.00,0.0408
440.00,0.0406
439.00,0.0403
438.00,0.0399
437.00,0.0396
436.00,0.0395
435.00,0.0396
434.00,0.0397
433.00,0.0396
432.00,0.0395
431.00,0.0393
430.00,0.0391
429.00,0.0387
428.00,0.0383
427.00,0.0379
426.00,0.0377
425.00,0.0377
424.00,0.0380
423.00,0.0381
422.00,0.0381
421.00,0.0381
420.00,0.0381
419.00,0.0382
418.00,0.0382
417.00,0.0382
416.00,0.0384
415.00,0.0386
414.00,0.0385
413.00,0.0382
412.00,0.0381
411.00,0.0386
410.00,0.0398
409.00,0.0412
408.00,0.0421
407.00,0.0424
406.00,0.0423
405.00,0.0421
404.00,0.0420
403.00,0.0421
402.00,0.0423
401.00,0.0425
400.00,0.0428
