Created as New Dataset,Sample 353 By YargerLab Date Tuesday, November 11 2025
cm-1,A
4000.00,0.0045
3999.00,0.0045
3998.00,0.0045
3997.00,0.0045
3996.00,0.0045
3995.00,0.0045
3994.00,0.0045
3993.00,0.0045
3992.00,0.0045
3991.00,0.0045
3990.00,0.0045
3989.00,0.0045
3988.00,0.0045
3987.00,0.0045
3986.00,0.0045
3985.00,0.0045
3984.00,0.0045
3983.00,0.0045
3982.00,0.0045
3981.00,0.0045
3980.00,0.0045
3979.00,0.0045
3978.00,0.0045
3977.00,0.0045
3976.00,0.0045
3975.00,0.0045
3974.00,0.0045
3973.00,0.0045
3972.00,0.0045
3971.00,0.0045
3970.00,0.0045
3969.00,0.0045
3968.00,0.0045
3967.00,0.0044
3966.00,0.0044
3965.00,0.0044
3964.00,0.0044
3963.00,0.0044
3962.00,0.0045
3961.00,0.0045
3960.00,0.0045
3959.00,0.0045
3958.00,0.0045
3957.00,0.0045
3956.00,0.0045
3955.00,0.0045
3954.00,0.0045
3953.00,0.0045
3952.00,0.0045
3951.00,0.0044
3950.00,0.0044
3949.00,0.0044
3948.00,0.0044
3947.00,0.0044
3946.00,0.0044
3945.00,0.0044
3944.00,0.0044
3943.00,0.0044
3942.00,0.0044
3941.00,0.0045
3940.00,0.0045
3939.00,0.0045
3938.00,0.0044
3937.00,0.0044
3936.00,0.0044
3935.00,0.0044
3934.00,0.0044
3933.00,0.0044
3932.00,0.0044
3931.00,0.0044
3930.00,0.0044
3929.00,0.0044
3928.00,0.0043
3927.00,0.0043
3926.00,0.0043
3925.00,0.0043
3924.00,0.0044
3923.00,0.0044
3922.00,0.0044
3921.00,0.0044
3920.00,0.0044
3919.00,0.0044
3918.00,0.0044
3917.00,0.0044
3916.00,0.0044
3915.00,0.0044
3914.00,0.0044
3913.00,0.0044
3912.00,0.0044
3911.00,0.0044
3910.00,0.0044
3909.00,0.0044
3908.00,0.0044
3907.00,0.0044
3906.00,0.0044
3905.00,0.0044
3904.00,0.0044
3903.00,0.0043
3902.00,0.0043
3901.00,0.0043
3900.00,0.0044
3899.00,0.0044
3898.00,0.0044
3897.00,0.0044
3896.00,0.0044
3895.00,0.0044
3894.00,0.0044
3893.00,0.0044
3892.00,0.0044
3891.00,0.0044
3890.00,0.0044
3889.00,0.0044
3888.00,0.0044
3887.00,0.0044
3886.00,0.0044
3885.00,0.0044
3884.00,0.0043
3883.00,0.0043
3882.00,0.0044
3881.00,0.0044
3880.00,0.0044
3879.00,0.0044
3878.00,0.0044
3877.00,0.0044
3876.00,0.0044
3875.00,0.0044
3874.00,0.0044
3873.00,0.0044
3872.00,0.0043
3871.00,0.0043
3870.00,0.0043
3869.00,0.0043
3868.00,0.0043
3867.00,0.0043
3866.00,0.0043
3865.00,0.0043
3864.00,0.0044
3863.00,0.0044
3862.00,0.0044
3861.00,0.0044
3860.00,0.0044
3859.00,0.0043
3858.00,0.0043
3857.00,0.0043
3856.00,0.0043
3855.00,0.0043
3854.00,0.0043
3853.00,0.0043
3852.00,0.0043
3851.00,0.0043
3850.00,0.0043
3849.00,0.0044
3848.00,0.0044
3847.00,0.0044
3846.00,0.0044
3845.00,0.0044
3844.00,0.0044
3843.00,0.0043
3842.00,0.0043
3841.00,0.0043
3840.00,0.0043
3839.00,0.0043
3838.00,0.0043
3837.00,0.0043
3836.00,0.0043
3835.00,0.0044
3834.00,0.0044
3833.00,0.0045
3832.00,0.0045
3831.00,0.0045
3830.00,0.0045
3829.00,0.0045
3828.00,0.0045
3827.00,0.0045
3826.00,0.0045
3825.00,0.0045
3824.00,0.0044
3823.00,0.0044
3822.00,0.0044
3821.00,0.0043
3820.00,0.0043
3819.00,0.0043
3818.00,0.0044
3817.00,0.0044
3816.00,0.0044
3815.00,0.0044
3814.00,0.0044
3813.00,0.0044
3812.00,0.0044
3811.00,0.0044
3810.00,0.0044
3809.00,0.0044
3808.00,0.0044
3807.00,0.0044
3806.00,0.0044
3805.00,0.0043
3804.00,0.0043
3803.00,0.0043
3802.00,0.0043
3801.00,0.0043
3800.00,0.0043
3799.00,0.0043
3798.00,0.0043
3797.00,0.0044
3796.00,0.0044
3795.00,0.0044
3794.00,0.0043
3793.00,0.0043
3792.00,0.0044
3791.00,0.0044
3790.00,0.0044
3789.00,0.0044
3788.00,0.0044
3787.00,0.0044
3786.00,0.0044
3785.00,0.0044
3784.00,0.0044
3783.00,0.0044
3782.00,0.0044
3781.00,0.0044
3780.00,0.0044
3779.00,0.0045
3778.00,0.0045
3777.00,0.0045
3776.00,0.0044
3775.00,0.0044
3774.00,0.0044
3773.00,0.0044
3772.00,0.0044
3771.00,0.0044
3770.00,0.0044
3769.00,0.0044
3768.00,0.0044
3767.00,0.0044
3766.00,0.0044
3765.00,0.0044
3764.00,0.0044
3763.00,0.0044
3762.00,0.0043
3761.00,0.0043
3760.00,0.0043
3759.00,0.0043
3758.00,0.0043
3757.00,0.0043
3756.00,0.0043
3755.00,0.0043
3754.00,0.0043
3753.00,0.0043
3752.00,0.0043
3751.00,0.0043
3750.00,0.0043
3749.00,0.0042
3748.00,0.0042
3747.00,0.0042
3746.00,0.0042
3745.00,0.0042
3744.00,0.0042
3743.00,0.0042
3742.00,0.0042
3741.00,0.0043
3740.00,0.0043
3739.00,0.0043
3738.00,0.0043
3737.00,0.0043
3736.00,0.0043
3735.00,0.0043
3734.00,0.0042
3733.00,0.0042
3732.00,0.0042
3731.00,0.0042
3730.00,0.0042
3729.00,0.0043
3728.00,0.0043
3727.00,0.0043
3726.00,0.0043
3725.00,0.0043
3724.00,0.0043
3723.00,0.0043
3722.00,0.0043
3721.00,0.0043
3720.00,0.0043
3719.00,0.0043
3718.00,0.0043
3717.00,0.0043
3716.00,0.0043
3715.00,0.0042
3714.00,0.0042
3713.00,0.0042
3712.00,0.0042
3711.00,0.0042
3710.00,0.0042
3709.00,0.0043
3708.00,0.0042
3707.00,0.0042
3706.00,0.0042
3705.00,0.0042
3704.00,0.0042
3703.00,0.0042
3702.00,0.0042
3701.00,0.0042
3700.00,0.0042
3699.00,0.0042
3698.00,0.0042
3697.00,0.0042
3696.00,0.0042
3695.00,0.0043
3694.00,0.0043
3693.00,0.0043
3692.00,0.0042
3691.00,0.0042
3690.00,0.0042
3689.00,0.0043
3688.00,0.0043
3687.00,0.0043
3686.00,0.0043
3685.00,0.0043
3684.00,0.0044
3683.00,0.0044
3682.00,0.0044
3681.00,0.0044
3680.00,0.0044
3679.00,0.0043
3678.00,0.0043
3677.00,0.0043
3676.00,0.0043
3675.00,0.0043
3674.00,0.0043
3673.00,0.0043
3672.00,0.0043
3671.00,0.0043
3670.00,0.0043
3669.00,0.0044
3668.00,0.0044
3667.00,0.0044
3666.00,0.0044
3665.00,0.0044
3664.00,0.0044
3663.00,0.0044
3662.00,0.0045
3661.00,0.0045
3660.00,0.0045
3659.00,0.0045
3658.00,0.0045
3657.00,0.0045
3656.00,0.0045
3655.00,0.0044
3654.00,0.0044
3653.00,0.0044
3652.00,0.0044
3651.00,0.0045
3650.00,0.0045
3649.00,0.0045
3648.00,0.0045
3647.00,0.0045
3646.00,0.0045
3645.00,0.0046
3644.00,0.0046
3643.00,0.0046
3642.00,0.0047
3641.00,0.0047
3640.00,0.0047
3639.00,0.0047
3638.00,0.0047
3637.00,0.0047
3636.00,0.0047
3635.00,0.0047
3634.00,0.0048
3633.00,0.0048
3632.00,0.0048
3631.00,0.0048
3630.00,0.0049
3629.00,0.0049
3628.00,0.0049
3627.00,0.0049
3626.00,0.0050
3625.00,0.0050
3624.00,0.0050
3623.00,0.0050
3622.00,0.0050
3621.00,0.0050
3620.00,0.0050
3619.00,0.0050
3618.00,0.0051
3617.00,0.0051
3616.00,0.0051
3615.00,0.0051
3614.00,0.0052
3613.00,0.0052
3612.00,0.0052
3611.00,0.0052
3610.00,0.0052
3609.00,0.0052
3608.00,0.0053
3607.00,0.0053
3606.00,0.0054
3605.00,0.0054
3604.00,0.0055
3603.00,0.0055
3602.00,0.0055
3601.00,0.0056
3600.00,0.0056
3599.00,0.0056
3598.00,0.0056
3597.00,0.0057
3596.00,0.0057
3595.00,0.0057
3594.00,0.0057
3593.00,0.0057
3592.00,0.0057
3591.00,0.0058
3590.00,0.0058
3589.00,0.0058
3588.00,0.0059
3587.00,0.0060
3586.00,0.0060
3585.00,0.0061
3584.00,0.0061
3583.00,0.0061
3582.00,0.0062
3581.00,0.0062
3580.00,0.0063
3579.00,0.0063
3578.00,0.0064
3577.00,0.0064
3576.00,0.0064
3575.00,0.0064
3574.00,0.0065
3573.00,0.0065
3572.00,0.0065
3571.00,0.0066
3570.00,0.0066
3569.00,0.0066
3568.00,0.0067
3567.00,0.0067
3566.00,0.0068
3565.00,0.0068
3564.00,0.0069
3563.00,0.0069
3562.00,0.0070
3561.00,0.0070
3560.00,0.0070
3559.00,0.0071
3558.00,0.0071
3557.00,0.0071
3556.00,0.0072
3555.00,0.0072
3554.00,0.0073
3553.00,0.0073
3552.00,0.0074
3551.00,0.0074
3550.00,0.0074
3549.00,0.0074
3548.00,0.0074
3547.00,0.0075
3546.00,0.0075
3545.00,0.0075
3544.00,0.0076
3543.00,0.0077
3542.00,0.0077
3541.00,0.0077
3540.00,0.0078
3539.00,0.0078
3538.00,0.0078
3537.00,0.0079
3536.00,0.0079
3535.00,0.0080
3534.00,0.0080
3533.00,0.0081
3532.00,0.0081
3531.00,0.0082
3530.00,0.0082
3529.00,0.0083
3528.00,0.0083
3527.00,0.0083
3526.00,0.0084
3525.00,0.0084
3524.00,0.0085
3523.00,0.0085
3522.00,0.0086
3521.00,0.0086
3520.00,0.0086
3519.00,0.0087
3518.00,0.0087
3517.00,0.0087
3516.00,0.0088
3515.00,0.0088
3514.00,0.0089
3513.00,0.0089
3512.00,0.0089
3511.00,0.0090
3510.00,0.0090
3509.00,0.0091
3508.00,0.0092
3507.00,0.0092
3506.00,0.0092
3505.00,0.0093
3504.00,0.0093
3503.00,0.0094
3502.00,0.0094
3501.00,0.0095
3500.00,0.0095
3499.00,0.0096
3498.00,0.0096
3497.00,0.0097
3496.00,0.0097
3495.00,0.0098
3494.00,0.0098
3493.00,0.0099
3492.00,0.0099
3491.00,0.0100
3490.00,0.0100
3489.00,0.0100
3488.00,0.0101
3487.00,0.0102
3486.00,0.0102
3485.00,0.0103
3484.00,0.0103
3483.00,0.0104
3482.00,0.0104
3481.00,0.0105
3480.00,0.0105
3479.00,0.0106
3478.00,0.0106
3477.00,0.0107
3476.00,0.0108
3475.00,0.0108
3474.00,0.0109
3473.00,0.0109
3472.00,0.0109
3471.00,0.0110
3470.00,0.0110
3469.00,0.0111
3468.00,0.0112
3467.00,0.0112
3466.00,0.0113
3465.00,0.0113
3464.00,0.0114
3463.00,0.0114
3462.00,0.0115
3461.00,0.0115
3460.00,0.0116
3459.00,0.0116
3458.00,0.0117
3457.00,0.0117
3456.00,0.0117
3455.00,0.0118
3454.00,0.0119
3453.00,0.0119
3452.00,0.0120
3451.00,0.0120
3450.00,0.0121
3449.00,0.0121
3448.00,0.0122
3447.00,0.0122
3446.00,0.0122
3445.00,0.0123
3444.00,0.0123
3443.00,0.0124
3442.00,0.0125
3441.00,0.0125
3440.00,0.0126
3439.00,0.0126
3438.00,0.0127
3437.00,0.0127
3436.00,0.0128
3435.00,0.0128
3434.00,0.0129
3433.00,0.0129
3432.00,0.0130
3431.00,0.0131
3430.00,0.0131
3429.00,0.0132
3428.00,0.0133
3427.00,0.0133
3426.00,0.0134
3425.00,0.0134
3424.00,0.0135
3423.00,0.0135
3422.00,0.0136
3421.00,0.0136
3420.00,0.0137
3419.00,0.0138
3418.00,0.0138
3417.00,0.0139
3416.00,0.0139
3415.00,0.0140
3414.00,0.0141
3413.00,0.0141
3412.00,0.0142
3411.00,0.0143
3410.00,0.0144
3409.00,0.0144
3408.00,0.0145
3407.00,0.0146
3406.00,0.0147
3405.00,0.0147
3404.00,0.0148
3403.00,0.0148
3402.00,0.0149
3401.00,0.0149
3400.00,0.0150
3399.00,0.0151
3398.00,0.0152
3397.00,0.0153
3396.00,0.0154
3395.00,0.0154
3394.00,0.0155
3393.00,0.0156
3392.00,0.0156
3391.00,0.0157
3390.00,0.0158
3389.00,0.0159
3388.00,0.0161
3387.00,0.0162
3386.00,0.0162
3385.00,0.0163
3384.00,0.0164
3383.00,0.0165
3382.00,0.0165
3381.00,0.0166
3380.00,0.0167
3379.00,0.0168
3378.00,0.0169
3377.00,0.0170
3376.00,0.0171
3375.00,0.0172
3374.00,0.0172
3373.00,0.0173
3372.00,0.0173
3371.00,0.0173
3370.00,0.0174
3369.00,0.0174
3368.00,0.0175
3367.00,0.0177
3366.00,0.0178
3365.00,0.0179
3364.00,0.0180
3363.00,0.0181
3362.00,0.0182
3361.00,0.0183
3360.00,0.0183
3359.00,0.0184
3358.00,0.0185
3357.00,0.0186
3356.00,0.0187
3355.00,0.0188
3354.00,0.0188
3353.00,0.0189
3352.00,0.0189
3351.00,0.0190
3350.00,0.0191
3349.00,0.0192
3348.00,0.0193
3347.00,0.0193
3346.00,0.0194
3345.00,0.0194
3344.00,0.0195
3343.00,0.0195
3342.00,0.0196
3341.00,0.0196
3340.00,0.0196
3339.00,0.0197
3338.00,0.0197
3337.00,0.0198
3336.00,0.0200
3335.00,0.0201
3334.00,0.0202
3333.00,0.0203
3332.00,0.0203
3331.00,0.0204
3330.00,0.0204
3329.00,0.0204
3328.00,0.0204
3327.00,0.0204
3326.00,0.0205
3325.00,0.0206
3324.00,0.0207
3323.00,0.0208
3322.00,0.0209
3321.00,0.0209
3320.00,0.0210
3319.00,0.0210
3318.00,0.0211
3317.00,0.0211
3316.00,0.0211
3315.00,0.0212
3314.00,0.0212
3313.00,0.0213
3312.00,0.0213
3311.00,0.0213
3310.00,0.0213
3309.00,0.0212
3308.00,0.0212
3307.00,0.0212
3306.00,0.0213
3305.00,0.0213
3304.00,0.0215
3303.00,0.0216
3302.00,0.0217
3301.00,0.0218
3300.00,0.0218
3299.00,0.0218
3298.00,0.0218
3297.00,0.0218
3296.00,0.0218
3295.00,0.0218
3294.00,0.0218
3293.00,0.0218
3292.00,0.0219
3291.00,0.0220
3290.00,0.0220
3289.00,0.0221
3288.00,0.0221
3287.00,0.0222
3286.00,0.0222
3285.00,0.0222
3284.00,0.0222
3283.00,0.0222
3282.00,0.0223
3281.00,0.0223
3280.00,0.0223
3279.00,0.0223
3278.00,0.0223
3277.00,0.0223
3276.00,0.0223
3275.00,0.0223
3274.00,0.0223
3273.00,0.0222
3272.00,0.0222
3271.00,0.0223
3270.00,0.0223
3269.00,0.0223
3268.00,0.0224
3267.00,0.0224
3266.00,0.0224
3265.00,0.0224
3264.00,0.0225
3263.00,0.0225
3262.00,0.0225
3261.00,0.0225
3260.00,0.0225
3259.00,0.0224
3258.00,0.0224
3257.00,0.0224
3256.00,0.0224
3255.00,0.0224
3254.00,0.0225
3253.00,0.0225
3252.00,0.0225
3251.00,0.0225
3250.00,0.0224
3249.00,0.0224
3248.00,0.0224
3247.00,0.0225
3246.00,0.0225
3245.00,0.0225
3244.00,0.0225
3243.00,0.0225
3242.00,0.0225
3241.00,0.0225
3240.00,0.0225
3239.00,0.0224
3238.00,0.0224
3237.00,0.0224
3236.00,0.0224
3235.00,0.0223
3234.00,0.0223
3233.00,0.0223
3232.00,0.0223
3231.00,0.0223
3230.00,0.0223
3229.00,0.0223
3228.00,0.0223
3227.00,0.0223
3226.00,0.0223
3225.00,0.0223
3224.00,0.0223
3223.00,0.0222
3222.00,0.0222
3221.00,0.0222
3220.00,0.0222
3219.00,0.0221
3218.00,0.0221
3217.00,0.0221
3216.00,0.0222
3215.00,0.0222
3214.00,0.0222
3213.00,0.0221
3212.00,0.0221
3211.00,0.0221
3210.00,0.0221
3209.00,0.0222
3208.00,0.0222
3207.00,0.0222
3206.00,0.0222
3205.00,0.0222
3204.00,0.0221
3203.00,0.0221
3202.00,0.0221
3201.00,0.0221
3200.00,0.0220
3199.00,0.0220
3198.00,0.0220
3197.00,0.0220
3196.00,0.0220
3195.00,0.0220
3194.00,0.0219
3193.00,0.0219
3192.00,0.0218
3191.00,0.0217
3190.00,0.0217
3189.00,0.0216
3188.00,0.0216
3187.00,0.0216
3186.00,0.0215
3185.00,0.0215
3184.00,0.0215
3183.00,0.0214
3182.00,0.0214
3181.00,0.0213
3180.00,0.0213
3179.00,0.0213
3178.00,0.0212
3177.00,0.0211
3176.00,0.0211
3175.00,0.0210
3174.00,0.0210
3173.00,0.0209
3172.00,0.0209
3171.00,0.0208
3170.00,0.0207
3169.00,0.0207
3168.00,0.0206
3167.00,0.0205
3166.00,0.0204
3165.00,0.0204
3164.00,0.0203
3163.00,0.0202
3162.00,0.0202
3161.00,0.0201
3160.00,0.0201
3159.00,0.0200
3158.00,0.0199
3157.00,0.0198
3156.00,0.0197
3155.00,0.0197
3154.00,0.0196
3153.00,0.0196
3152.00,0.0195
3151.00,0.0195
3150.00,0.0194
3149.00,0.0194
3148.00,0.0193
3147.00,0.0192
3146.00,0.0192
3145.00,0.0191
3144.00,0.0190
3143.00,0.0190
3142.00,0.0189
3141.00,0.0189
3140.00,0.0188
3139.00,0.0188
3138.00,0.0187
3137.00,0.0187
3136.00,0.0187
3135.00,0.0187
3134.00,0.0186
3133.00,0.0186
3132.00,0.0185
3131.00,0.0184
3130.00,0.0184
3129.00,0.0183
3128.00,0.0182
3127.00,0.0182
3126.00,0.0181
3125.00,0.0181
3124.00,0.0180
3123.00,0.0179
3122.00,0.0179
3121.00,0.0178
3120.00,0.0177
3119.00,0.0177
3118.00,0.0176
3117.00,0.0175
3116.00,0.0175
3115.00,0.0174
3114.00,0.0173
3113.00,0.0172
3112.00,0.0171
3111.00,0.0171
3110.00,0.0170
3109.00,0.0169
3108.00,0.0169
3107.00,0.0168
3106.00,0.0167
3105.00,0.0166
3104.00,0.0166
3103.00,0.0165
3102.00,0.0164
3101.00,0.0163
3100.00,0.0163
3099.00,0.0162
3098.00,0.0161
3097.00,0.0160
3096.00,0.0159
3095.00,0.0158
3094.00,0.0157
3093.00,0.0157
3092.00,0.0156
3091.00,0.0155
3090.00,0.0155
3089.00,0.0154
3088.00,0.0154
3087.00,0.0153
3086.00,0.0152
3085.00,0.0151
3084.00,0.0150
3083.00,0.0150
3082.00,0.0149
3081.00,0.0148
3080.00,0.0147
3079.00,0.0147
3078.00,0.0146
3077.00,0.0146
3076.00,0.0145
3075.00,0.0145
3074.00,0.0144
3073.00,0.0144
3072.00,0.0144
3071.00,0.0143
3070.00,0.0143
3069.00,0.0142
3068.00,0.0142
3067.00,0.0141
3066.00,0.0141
3065.00,0.0140
3064.00,0.0140
3063.00,0.0140
3062.00,0.0140
3061.00,0.0139
3060.00,0.0139
3059.00,0.0139
3058.00,0.0139
3057.00,0.0139
3056.00,0.0138
3055.00,0.0138
3054.00,0.0137
3053.00,0.0137
3052.00,0.0136
3051.00,0.0136
3050.00,0.0135
3049.00,0.0135
3048.00,0.0135
3047.00,0.0134
3046.00,0.0134
3045.00,0.0134
3044.00,0.0133
3043.00,0.0133
3042.00,0.0132
3041.00,0.0132
3040.00,0.0131
3039.00,0.0131
3038.00,0.0131
3037.00,0.0131
3036.00,0.0131
3035.00,0.0131
3034.00,0.0131
3033.00,0.0131
3032.00,0.0131
3031.00,0.0130
3030.00,0.0130
3029.00,0.0130
3028.00,0.0130
3027.00,0.0130
3026.00,0.0130
3025.00,0.0130
3024.00,0.0130
3023.00,0.0130
3022.00,0.0130
3021.00,0.0130
3020.00,0.0130
3019.00,0.0130
3018.00,0.0130
3017.00,0.0131
3016.00,0.0131
3015.00,0.0131
3014.00,0.0132
3013.00,0.0133
3012.00,0.0133
3011.00,0.0134
3010.00,0.0135
3009.00,0.0136
3008.00,0.0138
3007.00,0.0139
3006.00,0.0141
3005.00,0.0143
3004.00,0.0145
3003.00,0.0147
3002.00,0.0149
3001.00,0.0152
3000.00,0.0155
2999.00,0.0158
2998.00,0.0162
2997.00,0.0165
2996.00,0.0169
2995.00,0.0173
2994.00,0.0177
2993.00,0.0182
2992.00,0.0186
2991.00,0.0191
2990.00,0.0196
2989.00,0.0200
2988.00,0.0205
2987.00,0.0210
2986.00,0.0214
2985.00,0.0218
2984.00,0.0221
2983.00,0.0225
2982.00,0.0228
2981.00,0.0232
2980.00,0.0236
2979.00,0.0240
2978.00,0.0245
2977.00,0.0249
2976.00,0.0253
2975.00,0.0256
2974.00,0.0260
2973.00,0.0264
2972.00,0.0268
2971.00,0.0273
2970.00,0.0278
2969.00,0.0283
2968.00,0.0288
2967.00,0.0294
2966.00,0.0299
2965.00,0.0304
2964.00,0.0309
2963.00,0.0314
2962.00,0.0318
2961.00,0.0323
2960.00,0.0327
2959.00,0.0330
2958.00,0.0333
2957.00,0.0335
2956.00,0.0337
2955.00,0.0338
2954.00,0.0338
2953.00,0.0337
2952.00,0.0336
2951.00,0.0335
2950.00,0.0334
2949.00,0.0332
2948.00,0.0330
2947.00,0.0329
2946.00,0.0328
2945.00,0.0328
2944.00,0.0328
2943.00,0.0330
2942.00,0.0332
2941.00,0.0335
2940.00,0.0339
2939.00,0.0343
2938.00,0.0348
2937.00,0.0354
2936.00,0.0360
2935.00,0.0366
2934.00,0.0372
2933.00,0.0379
2932.00,0.0385
2931.00,0.0390
2930.00,0.0395
2929.00,0.0400
2928.00,0.0404
2927.00,0.0408
2926.00,0.0411
2925.00,0.0413
2924.00,0.0415
2923.00,0.0416
2922.00,0.0416
2921.00,0.0416
2920.00,0.0415
2919.00,0.0413
2918.00,0.0411
2917.00,0.0409
2916.00,0.0405
2915.00,0.0402
2914.00,0.0397
2913.00,0.0393
2912.00,0.0387
2911.00,0.0382
2910.00,0.0376
2909.00,0.0370
2908.00,0.0364
2907.00,0.0358
2906.00,0.0352
2905.00,0.0347
2904.00,0.0343
2903.00,0.0338
2902.00,0.0334
2901.00,0.0331
2900.00,0.0327
2899.00,0.0325
2898.00,0.0322
2897.00,0.0320
2896.00,0.0318
2895.00,0.0317
2894.00,0.0315
2893.00,0.0313
2892.00,0.0311
2891.00,0.0309
2890.00,0.0307
2889.00,0.0306
2888.00,0.0304
2887.00,0.0302
2886.00,0.0301
2885.00,0.0300
2884.00,0.0298
2883.00,0.0297
2882.00,0.0296
2881.00,0.0296
2880.00,0.0296
2879.00,0.0296
2878.00,0.0296
2877.00,0.0297
2876.00,0.0297
2875.00,0.0298
2874.00,0.0299
2873.00,0.0300
2872.00,0.0300
2871.00,0.0301
2870.00,0.0300
2869.00,0.0300
2868.00,0.0299
2867.00,0.0298
2866.00,0.0298
2865.00,0.0298
2864.00,0.0299
2863.00,0.0301
2862.00,0.0303
2861.00,0.0305
2860.00,0.0307
2859.00,0.0310
2858.00,0.0311
2857.00,0.0312
2856.00,0.0311
2855.00,0.0309
2854.00,0.0306
2853.00,0.0302
2852.00,0.0297
2851.00,0.0291
2850.00,0.0285
2849.00,0.0278
2848.00,0.0271
2847.00,0.0264
2846.00,0.0257
2845.00,0.0250
2844.00,0.0243
2843.00,0.0236
2842.00,0.0230
2841.00,0.0224
2840.00,0.0218
2839.00,0.0213
2838.00,0.0208
2837.00,0.0203
2836.00,0.0199
2835.00,0.0195
2834.00,0.0191
2833.00,0.0187
2832.00,0.0183
2831.00,0.0180
2830.00,0.0176
2829.00,0.0173
2828.00,0.0170
2827.00,0.0167
2826.00,0.0163
2825.00,0.0160
2824.00,0.0157
2823.00,0.0154
2822.00,0.0151
2821.00,0.0148
2820.00,0.0146
2819.00,0.0143
2818.00,0.0141
2817.00,0.0138
2816.00,0.0136
2815.00,0.0134
2814.00,0.0132
2813.00,0.0130
2812.00,0.0128
2811.00,0.0126
2810.00,0.0125
2809.00,0.0123
2808.00,0.0122
2807.00,0.0121
2806.00,0.0120
2805.00,0.0119
2804.00,0.0118
2803.00,0.0117
2802.00,0.0116
2801.00,0.0115
2800.00,0.0114
2799.00,0.0113
2798.00,0.0112
2797.00,0.0112
2796.00,0.0111
2795.00,0.0110
2794.00,0.0110
2793.00,0.0109
2792.00,0.0109
2791.00,0.0108
2790.00,0.0108
2789.00,0.0107
2788.00,0.0107
2787.00,0.0106
2786.00,0.0106
2785.00,0.0106
2784.00,0.0105
2783.00,0.0105
2782.00,0.0104
2781.00,0.0104
2780.00,0.0104
2779.00,0.0103
2778.00,0.0103
2777.00,0.0102
2776.00,0.0102
2775.00,0.0102
2774.00,0.0101
2773.00,0.0101
2772.00,0.0101
2771.00,0.0101
2770.00,0.0100
2769.00,0.0100
2768.00,0.0099
2767.00,0.0099
2766.00,0.0099
2765.00,0.0099
2764.00,0.0098
2763.00,0.0098
2762.00,0.0098
2761.00,0.0098
2760.00,0.0098
2759.00,0.0098
2758.00,0.0098
2757.00,0.0098
2756.00,0.0098
2755.00,0.0098
2754.00,0.0098
2753.00,0.0098
2752.00,0.0098
2751.00,0.0098
2750.00,0.0098
2749.00,0.0098
2748.00,0.0098
2747.00,0.0098
2746.00,0.0099
2745.00,0.0099
2744.00,0.0099
2743.00,0.0099
2742.00,0.0099
2741.00,0.0099
2740.00,0.0099
2739.00,0.0099
2738.00,0.0099
2737.00,0.0099
2736.00,0.0100
2735.00,0.0100
2734.00,0.0100
2733.00,0.0100
2732.00,0.0100
2731.00,0.0100
2730.00,0.0100
2729.00,0.0100
2728.00,0.0100
2727.00,0.0100
2726.00,0.0100
2725.00,0.0100
2724.00,0.0100
2723.00,0.0100
2722.00,0.0100
2721.00,0.0100
2720.00,0.0100
2719.00,0.0100
2718.00,0.0099
2717.00,0.0099
2716.00,0.0099
2715.00,0.0099
2714.00,0.0098
2713.00,0.0098
2712.00,0.0098
2711.00,0.0098
2710.00,0.0097
2709.00,0.0097
2708.00,0.0097
2707.00,0.0097
2706.00,0.0097
2705.00,0.0097
2704.00,0.0097
2703.00,0.0097
2702.00,0.0097
2701.00,0.0096
2700.00,0.0096
2699.00,0.0096
2698.00,0.0096
2697.00,0.0096
2696.00,0.0096
2695.00,0.0096
2694.00,0.0095
2693.00,0.0095
2692.00,0.0095
2691.00,0.0095
2690.00,0.0095
2689.00,0.0095
2688.00,0.0095
2687.00,0.0094
2686.00,0.0094
2685.00,0.0094
2684.00,0.0094
2683.00,0.0094
2682.00,0.0094
2681.00,0.0094
2680.00,0.0094
2679.00,0.0094
2678.00,0.0094
2677.00,0.0094
2676.00,0.0093
2675.00,0.0093
2674.00,0.0093
2673.00,0.0093
2672.00,0.0093
2671.00,0.0093
2670.00,0.0093
2669.00,0.0093
2668.00,0.0093
2667.00,0.0093
2666.00,0.0093
2665.00,0.0093
2664.00,0.0093
2663.00,0.0093
2662.00,0.0094
2661.00,0.0094
2660.00,0.0094
2659.00,0.0093
2658.00,0.0093
2657.00,0.0093
2656.00,0.0093
2655.00,0.0093
2654.00,0.0092
2653.00,0.0092
2652.00,0.0092
2651.00,0.0092
2650.00,0.0092
2649.00,0.0091
2648.00,0.0091
2647.00,0.0091
2646.00,0.0091
2645.00,0.0090
2644.00,0.0090
2643.00,0.0090
2642.00,0.0089
2641.00,0.0089
2640.00,0.0089
2639.00,0.0088
2638.00,0.0088
2637.00,0.0088
2636.00,0.0088
2635.00,0.0088
2634.00,0.0087
2633.00,0.0087
2632.00,0.0087
2631.00,0.0087
2630.00,0.0086
2629.00,0.0086
2628.00,0.0086
2627.00,0.0086
2626.00,0.0086
2625.00,0.0086
2624.00,0.0085
2623.00,0.0085
2622.00,0.0084
2621.00,0.0084
2620.00,0.0083
2619.00,0.0083
2618.00,0.0083
2617.00,0.0083
2616.00,0.0082
2615.00,0.0082
2614.00,0.0082
2613.00,0.0082
2612.00,0.0082
2611.00,0.0082
2610.00,0.0081
2609.00,0.0081
2608.00,0.0081
2607.00,0.0081
2606.00,0.0081
2605.00,0.0081
2604.00,0.0081
2603.00,0.0081
2602.00,0.0081
2601.00,0.0081
2600.00,0.0080
2599.00,0.0081
2598.00,0.0081
2597.00,0.0081
2596.00,0.0081
2595.00,0.0080
2594.00,0.0080
2593.00,0.0080
2592.00,0.0080
2591.00,0.0081
2590.00,0.0081
2589.00,0.0080
2588.00,0.0080
2587.00,0.0080
2586.00,0.0080
2585.00,0.0080
2584.00,0.0080
2583.00,0.0080
2582.00,0.0079
2581.00,0.0079
2580.00,0.0079
2579.00,0.0079
2578.00,0.0079
2577.00,0.0079
2576.00,0.0079
2575.00,0.0079
2574.00,0.0079
2573.00,0.0079
2572.00,0.0079
2571.00,0.0079
2570.00,0.0078
2569.00,0.0078
2568.00,0.0077
2567.00,0.0077
2566.00,0.0077
2565.00,0.0077
2564.00,0.0077
2563.00,0.0076
2562.00,0.0076
2561.00,0.0076
2560.00,0.0076
2559.00,0.0076
2558.00,0.0076
2557.00,0.0076
2556.00,0.0075
2555.00,0.0075
2554.00,0.0074
2553.00,0.0074
2552.00,0.0074
2551.00,0.0074
2550.00,0.0074
2549.00,0.0074
2548.00,0.0074
2547.00,0.0074
2546.00,0.0074
2545.00,0.0074
2544.00,0.0074
2543.00,0.0073
2542.00,0.0073
2541.00,0.0073
2540.00,0.0073
2539.00,0.0073
2538.00,0.0073
2537.00,0.0073
2536.00,0.0073
2535.00,0.0073
2534.00,0.0073
2533.00,0.0073
2532.00,0.0072
2531.00,0.0072
2530.00,0.0073
2529.00,0.0073
2528.00,0.0073
2527.00,0.0073
2526.00,0.0072
2525.00,0.0072
2524.00,0.0072
2523.00,0.0072
2522.00,0.0072
2521.00,0.0071
2520.00,0.0071
2519.00,0.0071
2518.00,0.0071
2517.00,0.0071
2516.00,0.0071
2515.00,0.0071
2514.00,0.0071
2513.00,0.0071
2512.00,0.0071
2511.00,0.0070
2510.00,0.0070
2509.00,0.0070
2508.00,0.0069
2507.00,0.0069
2506.00,0.0069
2505.00,0.0069
2504.00,0.0069
2503.00,0.0069
2502.00,0.0069
2501.00,0.0069
2500.00,0.0068
2499.00,0.0068
2498.00,0.0068
2497.00,0.0068
2496.00,0.0069
2495.00,0.0069
2494.00,0.0069
2493.00,0.0069
2492.00,0.0069
2491.00,0.0069
2490.00,0.0069
2489.00,0.0068
2488.00,0.0068
2487.00,0.0068
2486.00,0.0068
2485.00,0.0068
2484.00,0.0068
2483.00,0.0068
2482.00,0.0068
2481.00,0.0068
2480.00,0.0067
2479.00,0.0067
2478.00,0.0066
2477.00,0.0066
2476.00,0.0066
2475.00,0.0066
2474.00,0.0066
2473.00,0.0066
2472.00,0.0066
2471.00,0.0066
2470.00,0.0066
2469.00,0.0066
2468.00,0.0066
2467.00,0.0066
2466.00,0.0066
2465.00,0.0065
2464.00,0.0065
2463.00,0.0065
2462.00,0.0065
2461.00,0.0065
2460.00,0.0066
2459.00,0.0066
2458.00,0.0067
2457.00,0.0067
2456.00,0.0066
2455.00,0.0066
2454.00,0.0065
2453.00,0.0065
2452.00,0.0065
2451.00,0.0065
2450.00,0.0065
2449.00,0.0065
2448.00,0.0065
2447.00,0.0065
2446.00,0.0065
2445.00,0.0065
2444.00,0.0065
2443.00,0.0065
2442.00,0.0065
2441.00,0.0065
2440.00,0.0065
2439.00,0.0065
2438.00,0.0065
2437.00,0.0065
2436.00,0.0065
2435.00,0.0064
2434.00,0.0063
2433.00,0.0063
2432.00,0.0063
2431.00,0.0063
2430.00,0.0063
2429.00,0.0063
2428.00,0.0063
2427.00,0.0063
2426.00,0.0063
2425.00,0.0063
2424.00,0.0063
2423.00,0.0063
2422.00,0.0063
2421.00,0.0063
2420.00,0.0063
2419.00,0.0063
2418.00,0.0063
2417.00,0.0063
2416.00,0.0063
2415.00,0.0063
2414.00,0.0063
2413.00,0.0063
2412.00,0.0063
2411.00,0.0063
2410.00,0.0063
2409.00,0.0063
2408.00,0.0063
2407.00,0.0063
2406.00,0.0063
2405.00,0.0063
2404.00,0.0063
2403.00,0.0062
2402.00,0.0062
2401.00,0.0062
2400.00,0.0062
2399.00,0.0062
2398.00,0.0062
2397.00,0.0063
2396.00,0.0063
2395.00,0.0063
2394.00,0.0063
2393.00,0.0063
2392.00,0.0063
2391.00,0.0062
2390.00,0.0062
2389.00,0.0062
2388.00,0.0062
2387.00,0.0062
2386.00,0.0062
2385.00,0.0062
2384.00,0.0062
2383.00,0.0061
2382.00,0.0061
2381.00,0.0061
2380.00,0.0061
2379.00,0.0061
2378.00,0.0061
2377.00,0.0061
2376.00,0.0061
2375.00,0.0061
2374.00,0.0061
2373.00,0.0061
2372.00,0.0061
2371.00,0.0061
2370.00,0.0060
2369.00,0.0059
2368.00,0.0059
2367.00,0.0059
2366.00,0.0060
2365.00,0.0060
2364.00,0.0061
2363.00,0.0061
2362.00,0.0062
2361.00,0.0061
2360.00,0.0061
2359.00,0.0061
2358.00,0.0062
2357.00,0.0062
2356.00,0.0062
2355.00,0.0062
2354.00,0.0062
2353.00,0.0061
2352.00,0.0061
2351.00,0.0062
2350.00,0.0062
2349.00,0.0063
2348.00,0.0063
2347.00,0.0063
2346.00,0.0063
2345.00,0.0063
2344.00,0.0063
2343.00,0.0063
2342.00,0.0064
2341.00,0.0064
2340.00,0.0065
2339.00,0.0064
2338.00,0.0064
2337.00,0.0063
2336.00,0.0063
2335.00,0.0063
2334.00,0.0064
2333.00,0.0064
2332.00,0.0064
2331.00,0.0064
2330.00,0.0064
2329.00,0.0065
2328.00,0.0067
2327.00,0.0070
2326.00,0.0072
2325.00,0.0073
2324.00,0.0072
2323.00,0.0071
2322.00,0.0069
2321.00,0.0068
2320.00,0.0068
2319.00,0.0067
2318.00,0.0066
2317.00,0.0066
2316.00,0.0066
2315.00,0.0066
2314.00,0.0066
2313.00,0.0066
2312.00,0.0066
2311.00,0.0066
2310.00,0.0066
2309.00,0.0065
2308.00,0.0065
2307.00,0.0064
2306.00,0.0064
2305.00,0.0064
2304.00,0.0064
2303.00,0.0064
2302.00,0.0064
2301.00,0.0064
2300.00,0.0064
2299.00,0.0065
2298.00,0.0065
2297.00,0.0065
2296.00,0.0066
2295.00,0.0066
2294.00,0.0066
2293.00,0.0067
2292.00,0.0067
2291.00,0.0068
2290.00,0.0068
2289.00,0.0068
2288.00,0.0068
2287.00,0.0068
2286.00,0.0067
2285.00,0.0067
2284.00,0.0066
2283.00,0.0065
2282.00,0.0065
2281.00,0.0065
2280.00,0.0065
2279.00,0.0065
2278.00,0.0064
2277.00,0.0064
2276.00,0.0064
2275.00,0.0065
2274.00,0.0065
2273.00,0.0065
2272.00,0.0065
2271.00,0.0064
2270.00,0.0064
2269.00,0.0063
2268.00,0.0063
2267.00,0.0062
2266.00,0.0062
2265.00,0.0062
2264.00,0.0062
2263.00,0.0062
2262.00,0.0062
2261.00,0.0062
2260.00,0.0063
2259.00,0.0063
2258.00,0.0062
2257.00,0.0062
2256.00,0.0062
2255.00,0.0061
2254.00,0.0061
2253.00,0.0060
2252.00,0.0060
2251.00,0.0059
2250.00,0.0060
2249.00,0.0060
2248.00,0.0061
2247.00,0.0062
2246.00,0.0062
2245.00,0.0063
2244.00,0.0063
2243.00,0.0063
2242.00,0.0063
2241.00,0.0063
2240.00,0.0062
2239.00,0.0062
2238.00,0.0061
2237.00,0.0061
2236.00,0.0060
2235.00,0.0060
2234.00,0.0060
2233.00,0.0060
2232.00,0.0059
2231.00,0.0059
2230.00,0.0059
2229.00,0.0059
2228.00,0.0059
2227.00,0.0059
2226.00,0.0059
2225.00,0.0060
2224.00,0.0061
2223.00,0.0061
2222.00,0.0061
2221.00,0.0062
2220.00,0.0062
2219.00,0.0062
2218.00,0.0063
2217.00,0.0063
2216.00,0.0064
2215.00,0.0063
2214.00,0.0063
2213.00,0.0062
2212.00,0.0061
2211.00,0.0060
2210.00,0.0059
2209.00,0.0059
2208.00,0.0059
2207.00,0.0059
2206.00,0.0058
2205.00,0.0058
2204.00,0.0058
2203.00,0.0058
2202.00,0.0059
2201.00,0.0059
2200.00,0.0059
2199.00,0.0060
2198.00,0.0060
2197.00,0.0061
2196.00,0.0062
2195.00,0.0062
2194.00,0.0062
2193.00,0.0062
2192.00,0.0063
2191.00,0.0063
2190.00,0.0063
2189.00,0.0063
2188.00,0.0063
2187.00,0.0063
2186.00,0.0063
2185.00,0.0062
2184.00,0.0061
2183.00,0.0059
2182.00,0.0057
2181.00,0.0056
2180.00,0.0056
2179.00,0.0057
2178.00,0.0057
2177.00,0.0057
2176.00,0.0056
2175.00,0.0056
2174.00,0.0057
2173.00,0.0058
2172.00,0.0060
2171.00,0.0061
2170.00,0.0063
2169.00,0.0064
2168.00,0.0066
2167.00,0.0067
2166.00,0.0067
2165.00,0.0069
2164.00,0.0070
2163.00,0.0070
2162.00,0.0066
2161.00,0.0058
2160.00,0.0049
2159.00,0.0041
2158.00,0.0038
2157.00,0.0038
2156.00,0.0041
2155.00,0.0044
2154.00,0.0046
2153.00,0.0048
2152.00,0.0048
2151.00,0.0048
2150.00,0.0048
2149.00,0.0048
2148.00,0.0047
2147.00,0.0047
2146.00,0.0046
2145.00,0.0046
2144.00,0.0047
2143.00,0.0047
2142.00,0.0047
2141.00,0.0047
2140.00,0.0046
2139.00,0.0046
2138.00,0.0044
2137.00,0.0043
2136.00,0.0042
2135.00,0.0042
2134.00,0.0042
2133.00,0.0043
2132.00,0.0045
2131.00,0.0046
2130.00,0.0047
2129.00,0.0048
2128.00,0.0050
2127.00,0.0051
2126.00,0.0052
2125.00,0.0052
2124.00,0.0053
2123.00,0.0054
2122.00,0.0054
2121.00,0.0055
2120.00,0.0055
2119.00,0.0055
2118.00,0.0055
2117.00,0.0056
2116.00,0.0057
2115.00,0.0058
2114.00,0.0058
2113.00,0.0058
2112.00,0.0058
2111.00,0.0057
2110.00,0.0056
2109.00,0.0056
2108.00,0.0056
2107.00,0.0056
2106.00,0.0056
2105.00,0.0056
2104.00,0.0056
2103.00,0.0056
2102.00,0.0055
2101.00,0.0055
2100.00,0.0055
2099.00,0.0054
2098.00,0.0054
2097.00,0.0052
2096.00,0.0051
2095.00,0.0050
2094.00,0.0050
2093.00,0.0050
2092.00,0.0050
2091.00,0.0051
2090.00,0.0051
2089.00,0.0052
2088.00,0.0054
2087.00,0.0054
2086.00,0.0055
2085.00,0.0055
2084.00,0.0055
2083.00,0.0055
2082.00,0.0054
2081.00,0.0055
2080.00,0.0055
2079.00,0.0056
2078.00,0.0056
2077.00,0.0056
2076.00,0.0056
2075.00,0.0056
2074.00,0.0056
2073.00,0.0056
2072.00,0.0056
2071.00,0.0056
2070.00,0.0055
2069.00,0.0055
2068.00,0.0055
2067.00,0.0055
2066.00,0.0054
2065.00,0.0054
2064.00,0.0054
2063.00,0.0054
2062.00,0.0054
2061.00,0.0054
2060.00,0.0053
2059.00,0.0053
2058.00,0.0053
2057.00,0.0053
2056.00,0.0053
2055.00,0.0054
2054.00,0.0056
2053.00,0.0059
2052.00,0.0062
2051.00,0.0063
2050.00,0.0061
2049.00,0.0058
2048.00,0.0056
2047.00,0.0054
2046.00,0.0052
2045.00,0.0052
2044.00,0.0053
2043.00,0.0054
2042.00,0.0054
2041.00,0.0055
2040.00,0.0055
2039.00,0.0054
2038.00,0.0053
2037.00,0.0053
2036.00,0.0054
2035.00,0.0054
2034.00,0.0054
2033.00,0.0054
2032.00,0.0054
2031.00,0.0053
2030.00,0.0051
2029.00,0.0050
2028.00,0.0050
2027.00,0.0050
2026.00,0.0050
2025.00,0.0050
2024.00,0.0050
2023.00,0.0049
2022.00,0.0047
2021.00,0.0046
2020.00,0.0047
2019.00,0.0048
2018.00,0.0050
2017.00,0.0051
2016.00,0.0052
2015.00,0.0051
2014.00,0.0050
2013.00,0.0051
2012.00,0.0052
2011.00,0.0052
2010.00,0.0051
2009.00,0.0049
2008.00,0.0047
2007.00,0.0045
2006.00,0.0044
2005.00,0.0044
2004.00,0.0045
2003.00,0.0046
2002.00,0.0048
2001.00,0.0050
2000.00,0.0052
1999.00,0.0054
1998.00,0.0054
1997.00,0.0054
1996.00,0.0053
1995.00,0.0053
1994.00,0.0051
1993.00,0.0051
1992.00,0.0052
1991.00,0.0054
1990.00,0.0054
1989.00,0.0055
1988.00,0.0055
1987.00,0.0054
1986.00,0.0054
1985.00,0.0054
1984.00,0.0057
1983.00,0.0060
1982.00,0.0062
1981.00,0.0062
1980.00,0.0059
1979.00,0.0054
1978.00,0.0049
1977.00,0.0046
1976.00,0.0046
1975.00,0.0046
1974.00,0.0045
1973.00,0.0045
1972.00,0.0046
1971.00,0.0046
1970.00,0.0045
1969.00,0.0045
1968.00,0.0045
1967.00,0.0045
1966.00,0.0045
1965.00,0.0045
1964.00,0.0046
1963.00,0.0046
1962.00,0.0045
1961.00,0.0044
1960.00,0.0045
1959.00,0.0044
1958.00,0.0044
1957.00,0.0044
1956.00,0.0045
1955.00,0.0045
1954.00,0.0044
1953.00,0.0043
1952.00,0.0044
1951.00,0.0045
1950.00,0.0046
1949.00,0.0047
1948.00,0.0048
1947.00,0.0048
1946.00,0.0048
1945.00,0.0047
1944.00,0.0048
1943.00,0.0047
1942.00,0.0047
1941.00,0.0047
1940.00,0.0047
1939.00,0.0047
1938.00,0.0047
1937.00,0.0047
1936.00,0.0047
1935.00,0.0048
1934.00,0.0047
1933.00,0.0047
1932.00,0.0048
1931.00,0.0049
1930.00,0.0049
1929.00,0.0049
1928.00,0.0050
1927.00,0.0049
1926.00,0.0049
1925.00,0.0049
1924.00,0.0049
1923.00,0.0049
1922.00,0.0049
1921.00,0.0050
1920.00,0.0051
1919.00,0.0051
1918.00,0.0051
1917.00,0.0050
1916.00,0.0051
1915.00,0.0051
1914.00,0.0051
1913.00,0.0051
1912.00,0.0051
1911.00,0.0051
1910.00,0.0051
1909.00,0.0051
1908.00,0.0051
1907.00,0.0050
1906.00,0.0050
1905.00,0.0050
1904.00,0.0050
1903.00,0.0050
1902.00,0.0051
1901.00,0.0051
1900.00,0.0051
1899.00,0.0051
1898.00,0.0050
1897.00,0.0050
1896.00,0.0050
1895.00,0.0050
1894.00,0.0050
1893.00,0.0050
1892.00,0.0051
1891.00,0.0051
1890.00,0.0050
1889.00,0.0050
1888.00,0.0050
1887.00,0.0050
1886.00,0.0050
1885.00,0.0050
1884.00,0.0050
1883.00,0.0050
1882.00,0.0050
1881.00,0.0050
1880.00,0.0050
1879.00,0.0051
1878.00,0.0051
1877.00,0.0051
1876.00,0.0051
1875.00,0.0051
1874.00,0.0051
1873.00,0.0051
1872.00,0.0051
1871.00,0.0051
1870.00,0.0051
1869.00,0.0050
1868.00,0.0051
1867.00,0.0051
1866.00,0.0052
1865.00,0.0052
1864.00,0.0053
1863.00,0.0053
1862.00,0.0052
1861.00,0.0052
1860.00,0.0052
1859.00,0.0051
1858.00,0.0051
1857.00,0.0051
1856.00,0.0051
1855.00,0.0051
1854.00,0.0051
1853.00,0.0051
1852.00,0.0051
1851.00,0.0052
1850.00,0.0052
1849.00,0.0052
1848.00,0.0052
1847.00,0.0052
1846.00,0.0052
1845.00,0.0051
1844.00,0.0052
1843.00,0.0052
1842.00,0.0052
1841.00,0.0052
1840.00,0.0052
1839.00,0.0052
1838.00,0.0052
1837.00,0.0052
1836.00,0.0052
1835.00,0.0052
1834.00,0.0052
1833.00,0.0052
1832.00,0.0052
1831.00,0.0052
1830.00,0.0052
1829.00,0.0052
1828.00,0.0052
1827.00,0.0052
1826.00,0.0052
1825.00,0.0052
1824.00,0.0052
1823.00,0.0052
1822.00,0.0052
1821.00,0.0051
1820.00,0.0051
1819.00,0.0050
1818.00,0.0050
1817.00,0.0050
1816.00,0.0050
1815.00,0.0051
1814.00,0.0051
1813.00,0.0051
1812.00,0.0052
1811.00,0.0052
1810.00,0.0052
1809.00,0.0052
1808.00,0.0052
1807.00,0.0052
1806.00,0.0052
1805.00,0.0052
1804.00,0.0052
1803.00,0.0052
1802.00,0.0052
1801.00,0.0052
1800.00,0.0052
1799.00,0.0053
1798.00,0.0052
1797.00,0.0052
1796.00,0.0052
1795.00,0.0052
1794.00,0.0052
1793.00,0.0051
1792.00,0.0052
1791.00,0.0052
1790.00,0.0052
1789.00,0.0052
1788.00,0.0053
1787.00,0.0053
1786.00,0.0053
1785.00,0.0053
1784.00,0.0053
1783.00,0.0054
1782.00,0.0054
1781.00,0.0054
1780.00,0.0054
1779.00,0.0054
1778.00,0.0053
1777.00,0.0053
1776.00,0.0054
1775.00,0.0054
1774.00,0.0054
1773.00,0.0054
1772.00,0.0054
1771.00,0.0055
1770.00,0.0055
1769.00,0.0055
1768.00,0.0056
1767.00,0.0056
1766.00,0.0056
1765.00,0.0056
1764.00,0.0057
1763.00,0.0057
1762.00,0.0057
1761.00,0.0058
1760.00,0.0058
1759.00,0.0059
1758.00,0.0059
1757.00,0.0058
1756.00,0.0059
1755.00,0.0059
1754.00,0.0059
1753.00,0.0060
1752.00,0.0060
1751.00,0.0061
1750.00,0.0061
1749.00,0.0062
1748.00,0.0063
1747.00,0.0063
1746.00,0.0063
1745.00,0.0063
1744.00,0.0064
1743.00,0.0064
1742.00,0.0064
1741.00,0.0065
1740.00,0.0066
1739.00,0.0066
1738.00,0.0066
1737.00,0.0066
1736.00,0.0067
1735.00,0.0068
1734.00,0.0069
1733.00,0.0070
1732.00,0.0073
1731.00,0.0074
1730.00,0.0075
1729.00,0.0076
1728.00,0.0078
1727.00,0.0080
1726.00,0.0081
1725.00,0.0083
1724.00,0.0085
1723.00,0.0087
1722.00,0.0088
1721.00,0.0090
1720.00,0.0092
1719.00,0.0094
1718.00,0.0096
1717.00,0.0099
1716.00,0.0104
1715.00,0.0109
1714.00,0.0113
1713.00,0.0118
1712.00,0.0124
1711.00,0.0130
1710.00,0.0136
1709.00,0.0144
1708.00,0.0153
1707.00,0.0164
1706.00,0.0177
1705.00,0.0191
1704.00,0.0205
1703.00,0.0220
1702.00,0.0237
1701.00,0.0264
1700.00,0.0300
1699.00,0.0334
1698.00,0.0363
1697.00,0.0397
1696.00,0.0442
1695.00,0.0491
1694.00,0.0537
1693.00,0.0577
1692.00,0.0618
1691.00,0.0662
1690.00,0.0708
1689.00,0.0753
1688.00,0.0794
1687.00,0.0829
1686.00,0.0864
1685.00,0.0905
1684.00,0.0950
1683.00,0.0988
1682.00,0.1014
1681.00,0.1034
1680.00,0.1051
1679.00,0.1067
1678.00,0.1079
1677.00,0.1089
1676.00,0.1101
1675.00,0.1113
1674.00,0.1125
1673.00,0.1136
1672.00,0.1148
1671.00,0.1162
1670.00,0.1181
1669.00,0.1203
1668.00,0.1227
1667.00,0.1250
1666.00,0.1272
1665.00,0.1294
1664.00,0.1320
1663.00,0.1348
1662.00,0.1377
1661.00,0.1402
1660.00,0.1424
1659.00,0.1443
1658.00,0.1458
1657.00,0.1470
1656.00,0.1478
1655.00,0.1484
1654.00,0.1484
1653.00,0.1478
1652.00,0.1469
1651.00,0.1457
1650.00,0.1441
1649.00,0.1417
1648.00,0.1382
1647.00,0.1335
1646.00,0.1281
1645.00,0.1229
1644.00,0.1179
1643.00,0.1130
1642.00,0.1078
1641.00,0.1025
1640.00,0.0973
1639.00,0.0924
1638.00,0.0878
1637.00,0.0830
1636.00,0.0780
1635.00,0.0734
1634.00,0.0697
1633.00,0.0668
1632.00,0.0643
1631.00,0.0619
1630.00,0.0597
1629.00,0.0578
1628.00,0.0562
1627.00,0.0549
1626.00,0.0540
1625.00,0.0532
1624.00,0.0526
1623.00,0.0522
1622.00,0.0518
1621.00,0.0515
1620.00,0.0510
1619.00,0.0504
1618.00,0.0496
1617.00,0.0486
1616.00,0.0476
1615.00,0.0465
1614.00,0.0454
1613.00,0.0442
1612.00,0.0430
1611.00,0.0419
1610.00,0.0410
1609.00,0.0405
1608.00,0.0403
1607.00,0.0405
1606.00,0.0412
1605.00,0.0422
1604.00,0.0436
1603.00,0.0452
1602.00,0.0468
1601.00,0.0483
1600.00,0.0495
1599.00,0.0503
1598.00,0.0505
1597.00,0.0502
1596.00,0.0495
1595.00,0.0483
1594.00,0.0469
1593.00,0.0454
1592.00,0.0439
1591.00,0.0424
1590.00,0.0410
1589.00,0.0398
1588.00,0.0386
1587.00,0.0375
1586.00,0.0364
1585.00,0.0352
1584.00,0.0341
1583.00,0.0329
1582.00,0.0317
1581.00,0.0305
1580.00,0.0293
1579.00,0.0283
1578.00,0.0273
1577.00,0.0263
1576.00,0.0254
1575.00,0.0246
1574.00,0.0240
1573.00,0.0235
1572.00,0.0229
1571.00,0.0223
1570.00,0.0218
1569.00,0.0214
1568.00,0.0210
1567.00,0.0206
1566.00,0.0203
1565.00,0.0199
1564.00,0.0195
1563.00,0.0191
1562.00,0.0187
1561.00,0.0184
1560.00,0.0181
1559.00,0.0179
1558.00,0.0179
1557.00,0.0179
1556.00,0.0178
1555.00,0.0178
1554.00,0.0177
1553.00,0.0176
1552.00,0.0175
1551.00,0.0175
1550.00,0.0174
1549.00,0.0174
1548.00,0.0173
1547.00,0.0173
1546.00,0.0173
1545.00,0.0173
1544.00,0.0173
1543.00,0.0173
1542.00,0.0173
1541.00,0.0173
1540.00,0.0173
1539.00,0.0174
1538.00,0.0174
1537.00,0.0174
1536.00,0.0174
1535.00,0.0173
1534.00,0.0172
1533.00,0.0171
1532.00,0.0171
1531.00,0.0170
1530.00,0.0169
1529.00,0.0168
1528.00,0.0167
1527.00,0.0167
1526.00,0.0167
1525.00,0.0167
1524.00,0.0167
1523.00,0.0167
1522.00,0.0167
1521.00,0.0168
1520.00,0.0170
1519.00,0.0171
1518.00,0.0171
1517.00,0.0172
1516.00,0.0172
1515.00,0.0172
1514.00,0.0172
1513.00,0.0172
1512.00,0.0173
1511.00,0.0173
1510.00,0.0174
1509.00,0.0176
1508.00,0.0179
1507.00,0.0184
1506.00,0.0192
1505.00,0.0200
1504.00,0.0209
1503.00,0.0219
1502.00,0.0229
1501.00,0.0242
1500.00,0.0256
1499.00,0.0272
1498.00,0.0289
1497.00,0.0307
1496.00,0.0323
1495.00,0.0335
1494.00,0.0342
1493.00,0.0345
1492.00,0.0342
1491.00,0.0335
1490.00,0.0324
1489.00,0.0310
1488.00,0.0294
1487.00,0.0278
1486.00,0.0262
1485.00,0.0249
1484.00,0.0238
1483.00,0.0228
1482.00,0.0220
1481.00,0.0215
1480.00,0.0212
1479.00,0.0210
1478.00,0.0211
1477.00,0.0214
1476.00,0.0219
1475.00,0.0227
1474.00,0.0238
1473.00,0.0256
1472.00,0.0280
1471.00,0.0307
1470.00,0.0336
1469.00,0.0366
1468.00,0.0399
1467.00,0.0434
1466.00,0.0475
1465.00,0.0519
1464.00,0.0561
1463.00,0.0594
1462.00,0.0617
1461.00,0.0630
1460.00,0.0636
1459.00,0.0633
1458.00,0.0620
1457.00,0.0599
1456.00,0.0578
1455.00,0.0560
1454.00,0.0546
1453.00,0.0537
1452.00,0.0531
1451.00,0.0531
1450.00,0.0537
1449.00,0.0550
1448.00,0.0569
1447.00,0.0593
1446.00,0.0620
1445.00,0.0649
1444.00,0.0680
1443.00,0.0711
1442.00,0.0743
1441.00,0.0773
1440.00,0.0800
1439.00,0.0825
1438.00,0.0851
1437.00,0.0882
1436.00,0.0916
1435.00,0.0947
1434.00,0.0976
1433.00,0.1005
1432.00,0.1036
1431.00,0.1066
1430.00,0.1094
1429.00,0.1117
1428.00,0.1135
1427.00,0.1146
1426.00,0.1154
1425.00,0.1162
1424.00,0.1167
1423.00,0.1166
1422.00,0.1158
1421.00,0.1140
1420.00,0.1107
1419.00,0.1057
1418.00,0.0997
1417.00,0.0936
1416.00,0.0875
1415.00,0.0813
1414.00,0.0754
1413.00,0.0700
1412.00,0.0652
1411.00,0.0610
1410.00,0.0575
1409.00,0.0546
1408.00,0.0522
1407.00,0.0502
1406.00,0.0486
1405.00,0.0472
1404.00,0.0460
1403.00,0.0451
1402.00,0.0445
1401.00,0.0439
1400.00,0.0435
1399.00,0.0432
1398.00,0.0430
1397.00,0.0429
1396.00,0.0428
1395.00,0.0428
1394.00,0.0430
1393.00,0.0433
1392.00,0.0436
1391.00,0.0439
1390.00,0.0443
1389.00,0.0449
1388.00,0.0457
1387.00,0.0468
1386.00,0.0480
1385.00,0.0492
1384.00,0.0504
1383.00,0.0516
1382.00,0.0527
1381.00,0.0538
1380.00,0.0548
1379.00,0.0558
1378.00,0.0566
1377.00,0.0571
1376.00,0.0574
1375.00,0.0573
1374.00,0.0568
1373.00,0.0560
1372.00,0.0549
1371.00,0.0538
1370.00,0.0527
1369.00,0.0516
1368.00,0.0505
1367.00,0.0494
1366.00,0.0483
1365.00,0.0471
1364.00,0.0460
1363.00,0.0448
1362.00,0.0437
1361.00,0.0428
1360.00,0.0419
1359.00,0.0412
1358.00,0.0406
1357.00,0.0401
1356.00,0.0398
1355.00,0.0394
1354.00,0.0392
1353.00,0.0389
1352.00,0.0386
1351.00,0.0382
1350.00,0.0377
1349.00,0.0371
1348.00,0.0366
1347.00,0.0360
1346.00,0.0354
1345.00,0.0349
1344.00,0.0344
1343.00,0.0341
1342.00,0.0338
1341.00,0.0336
1340.00,0.0334
1339.00,0.0333
1338.00,0.0333
1337.00,0.0333
1336.00,0.0333
1335.00,0.0335
1334.00,0.0337
1333.00,0.0339
1332.00,0.0343
1331.00,0.0347
1330.00,0.0354
1329.00,0.0361
1328.00,0.0370
1327.00,0.0380
1326.00,0.0392
1325.00,0.0404
1324.00,0.0417
1323.00,0.0430
1322.00,0.0443
1321.00,0.0454
1320.00,0.0464
1319.00,0.0471
1318.00,0.0476
1317.00,0.0477
1316.00,0.0476
1315.00,0.0472
1314.00,0.0466
1313.00,0.0459
1312.00,0.0451
1311.00,0.0442
1310.00,0.0434
1309.00,0.0427
1308.00,0.0422
1307.00,0.0418
1306.00,0.0418
1305.00,0.0420
1304.00,0.0425
1303.00,0.0435
1302.00,0.0449
1301.00,0.0469
1300.00,0.0496
1299.00,0.0531
1298.00,0.0574
1297.00,0.0625
1296.00,0.0683
1295.00,0.0747
1294.00,0.0812
1293.00,0.0877
1292.00,0.0938
1291.00,0.0993
1290.00,0.1039
1289.00,0.1076
1288.00,0.1102
1287.00,0.1118
1286.00,0.1122
1285.00,0.1116
1284.00,0.1099
1283.00,0.1076
1282.00,0.1048
1281.00,0.1021
1280.00,0.0997
1279.00,0.0978
1278.00,0.0967
1277.00,0.0964
1276.00,0.0966
1275.00,0.0973
1274.00,0.0980
1273.00,0.0986
1272.00,0.0988
1271.00,0.0985
1270.00,0.0974
1269.00,0.0956
1268.00,0.0931
1267.00,0.0901
1266.00,0.0868
1265.00,0.0833
1264.00,0.0797
1263.00,0.0762
1262.00,0.0729
1261.00,0.0697
1260.00,0.0667
1259.00,0.0639
1258.00,0.0614
1257.00,0.0591
1256.00,0.0569
1255.00,0.0549
1254.00,0.0531
1253.00,0.0514
1252.00,0.0498
1251.00,0.0483
1250.00,0.0470
1249.00,0.0458
1248.00,0.0448
1247.00,0.0439
1246.00,0.0432
1245.00,0.0426
1244.00,0.0422
1243.00,0.0420
1242.00,0.0420
1241.00,0.0421
1240.00,0.0425
1239.00,0.0431
1238.00,0.0439
1237.00,0.0450
1236.00,0.0463
1235.00,0.0479
1234.00,0.0495
1233.00,0.0513
1232.00,0.0530
1231.00,0.0547
1230.00,0.0561
1229.00,0.0572
1228.00,0.0580
1227.00,0.0584
1226.00,0.0586
1225.00,0.0586
1224.00,0.0584
1223.00,0.0581
1222.00,0.0577
1221.00,0.0572
1220.00,0.0566
1219.00,0.0558
1218.00,0.0550
1217.00,0.0540
1216.00,0.0528
1215.00,0.0516
1214.00,0.0504
1213.00,0.0491
1212.00,0.0478
1211.00,0.0467
1210.00,0.0457
1209.00,0.0447
1208.00,0.0439
1207.00,0.0432
1206.00,0.0426
1205.00,0.0420
1204.00,0.0414
1203.00,0.0409
1202.00,0.0404
1201.00,0.0399
1200.00,0.0393
1199.00,0.0388
1198.00,0.0382
1197.00,0.0377
1196.00,0.0371
1195.00,0.0366
1194.00,0.0362
1193.00,0.0358
1192.00,0.0355
1191.00,0.0352
1190.00,0.0350
1189.00,0.0348
1188.00,0.0347
1187.00,0.0346
1186.00,0.0345
1185.00,0.0345
1184.00,0.0345
1183.00,0.0346
1182.00,0.0347
1181.00,0.0350
1180.00,0.0353
1179.00,0.0358
1178.00,0.0365
1177.00,0.0373
1176.00,0.0383
1175.00,0.0394
1174.00,0.0407
1173.00,0.0421
1172.00,0.0436
1171.00,0.0451
1170.00,0.0466
1169.00,0.0481
1168.00,0.0495
1167.00,0.0506
1166.00,0.0514
1165.00,0.0520
1164.00,0.0521
1163.00,0.0518
1162.00,0.0512
1161.00,0.0504
1160.00,0.0493
1159.00,0.0481
1158.00,0.0469
1157.00,0.0457
1156.00,0.0444
1155.00,0.0432
1154.00,0.0420
1153.00,0.0408
1152.00,0.0395
1151.00,0.0383
1150.00,0.0370
1149.00,0.0358
1148.00,0.0347
1147.00,0.0336
1146.00,0.0325
1145.00,0.0315
1144.00,0.0306
1143.00,0.0299
1142.00,0.0292
1141.00,0.0287
1140.00,0.0282
1139.00,0.0278
1138.00,0.0274
1137.00,0.0270
1136.00,0.0265
1135.00,0.0262
1134.00,0.0258
1133.00,0.0255
1132.00,0.0252
1131.00,0.0249
1130.00,0.0247
1129.00,0.0245
1128.00,0.0244
1127.00,0.0242
1126.00,0.0240
1125.00,0.0239
1124.00,0.0239
1123.00,0.0238
1122.00,0.0239
1121.00,0.0239
1120.00,0.0240
1119.00,0.0241
1118.00,0.0242
1117.00,0.0245
1116.00,0.0248
1115.00,0.0253
1114.00,0.0258
1113.00,0.0263
1112.00,0.0269
1111.00,0.0273
1110.00,0.0277
1109.00,0.0280
1108.00,0.0282
1107.00,0.0283
1106.00,0.0283
1105.00,0.0283
1104.00,0.0282
1103.00,0.0281
1102.00,0.0282
1101.00,0.0283
1100.00,0.0285
1099.00,0.0287
1098.00,0.0290
1097.00,0.0293
1096.00,0.0296
1095.00,0.0299
1094.00,0.0301
1093.00,0.0302
1092.00,0.0303
1091.00,0.0304
1090.00,0.0306
1089.00,0.0309
1088.00,0.0314
1087.00,0.0319
1086.00,0.0325
1085.00,0.0331
1084.00,0.0335
1083.00,0.0338
1082.00,0.0339
1081.00,0.0338
1080.00,0.0335
1079.00,0.0331
1078.00,0.0326
1077.00,0.0321
1076.00,0.0315
1075.00,0.0310
1074.00,0.0305
1073.00,0.0299
1072.00,0.0293
1071.00,0.0288
1070.00,0.0282
1069.00,0.0278
1068.00,0.0273
1067.00,0.0270
1066.00,0.0268
1065.00,0.0267
1064.00,0.0267
1063.00,0.0269
1062.00,0.0274
1061.00,0.0281
1060.00,0.0292
1059.00,0.0307
1058.00,0.0328
1057.00,0.0354
1056.00,0.0386
1055.00,0.0424
1054.00,0.0467
1053.00,0.0513
1052.00,0.0557
1051.00,0.0596
1050.00,0.0626
1049.00,0.0645
1048.00,0.0651
1047.00,0.0646
1046.00,0.0633
1045.00,0.0615
1044.00,0.0596
1043.00,0.0577
1042.00,0.0560
1041.00,0.0546
1040.00,0.0534
1039.00,0.0525
1038.00,0.0517
1037.00,0.0509
1036.00,0.0502
1035.00,0.0495
1034.00,0.0488
1033.00,0.0480
1032.00,0.0472
1031.00,0.0465
1030.00,0.0457
1029.00,0.0451
1028.00,0.0445
1027.00,0.0439
1026.00,0.0435
1025.00,0.0431
1024.00,0.0427
1023.00,0.0424
1022.00,0.0421
1021.00,0.0418
1020.00,0.0415
1019.00,0.0411
1018.00,0.0405
1017.00,0.0398
1016.00,0.0387
1015.00,0.0375
1014.00,0.0362
1013.00,0.0348
1012.00,0.0335
1011.00,0.0323
1010.00,0.0313
1009.00,0.0306
1008.00,0.0302
1007.00,0.0301
1006.00,0.0303
1005.00,0.0306
1004.00,0.0311
1003.00,0.0314
1002.00,0.0316
1001.00,0.0315
1000.00,0.0311
999.00,0.0305
998.00,0.0299
997.00,0.0292
996.00,0.0286
995.00,0.0281
994.00,0.0277
993.00,0.0275
992.00,0.0273
991.00,0.0273
990.00,0.0274
989.00,0.0275
988.00,0.0277
987.00,0.0278
986.00,0.0277
985.00,0.0276
984.00,0.0273
983.00,0.0270
982.00,0.0266
981.00,0.0262
980.00,0.0259
979.00,0.0255
978.00,0.0252
977.00,0.0249
976.00,0.0246
975.00,0.0243
974.00,0.0240
973.00,0.0237
972.00,0.0234
971.00,0.0231
970.00,0.0228
969.00,0.0225
968.00,0.0221
967.00,0.0218
966.00,0.0215
965.00,0.0212
964.00,0.0210
963.00,0.0208
962.00,0.0207
961.00,0.0207
960.00,0.0206
959.00,0.0205
958.00,0.0204
957.00,0.0203
956.00,0.0202
955.00,0.0200
954.00,0.0199
953.00,0.0196
952.00,0.0194
951.00,0.0191
950.00,0.0189
949.00,0.0186
948.00,0.0184
947.00,0.0182
946.00,0.0180
945.00,0.0179
944.00,0.0178
943.00,0.0178
942.00,0.0179
941.00,0.0180
940.00,0.0183
939.00,0.0186
938.00,0.0190
937.00,0.0195
936.00,0.0202
935.00,0.0208
934.00,0.0213
933.00,0.0217
932.00,0.0218
931.00,0.0217
930.00,0.0213
929.00,0.0209
928.00,0.0206
927.00,0.0203
926.00,0.0202
925.00,0.0202
924.00,0.0203
923.00,0.0203
922.00,0.0204
921.00,0.0206
920.00,0.0207
919.00,0.0209
918.00,0.0211
917.00,0.0213
916.00,0.0216
915.00,0.0218
914.00,0.0221
913.00,0.0223
912.00,0.0226
911.00,0.0228
910.00,0.0230
909.00,0.0233
908.00,0.0235
907.00,0.0236
906.00,0.0237
905.00,0.0237
904.00,0.0237
903.00,0.0236
902.00,0.0235
901.00,0.0235
900.00,0.0236
899.00,0.0236
898.00,0.0237
897.00,0.0238
896.00,0.0238
895.00,0.0238
894.00,0.0238
893.00,0.0236
892.00,0.0233
891.00,0.0231
890.00,0.0228
889.00,0.0226
888.00,0.0224
887.00,0.0222
886.00,0.0222
885.00,0.0221
884.00,0.0221
883.00,0.0221
882.00,0.0222
881.00,0.0223
880.00,0.0224
879.00,0.0224
878.00,0.0225
877.00,0.0226
876.00,0.0227
875.00,0.0228
874.00,0.0230
873.00,0.0232
872.00,0.0233
871.00,0.0234
870.00,0.0236
869.00,0.0239
868.00,0.0243
867.00,0.0247
866.00,0.0252
865.00,0.0257
864.00,0.0262
863.00,0.0268
862.00,0.0276
861.00,0.0284
860.00,0.0292
859.00,0.0301
858.00,0.0311
857.00,0.0321
856.00,0.0332
855.00,0.0343
854.00,0.0354
853.00,0.0366
852.00,0.0377
851.00,0.0388
850.00,0.0397
849.00,0.0406
848.00,0.0415
847.00,0.0423
846.00,0.0430
845.00,0.0436
844.00,0.0442
843.00,0.0446
842.00,0.0450
841.00,0.0453
840.00,0.0457
839.00,0.0460
838.00,0.0463
837.00,0.0466
836.00,0.0469
835.00,0.0471
834.00,0.0474
833.00,0.0477
832.00,0.0479
831.00,0.0481
830.00,0.0480
829.00,0.0478
828.00,0.0475
827.00,0.0469
826.00,0.0462
825.00,0.0453
824.00,0.0442
823.00,0.0430
822.00,0.0418
821.00,0.0405
820.00,0.0393
819.00,0.0381
818.00,0.0370
817.00,0.0359
816.00,0.0349
815.00,0.0339
814.00,0.0330
813.00,0.0322
812.00,0.0314
811.00,0.0308
810.00,0.0302
809.00,0.0297
808.00,0.0293
807.00,0.0290
806.00,0.0287
805.00,0.0284
804.00,0.0283
803.00,0.0282
802.00,0.0282
801.00,0.0282
800.00,0.0283
799.00,0.0285
798.00,0.0287
797.00,0.0290
796.00,0.0292
795.00,0.0294
794.00,0.0295
793.00,0.0296
792.00,0.0297
791.00,0.0299
790.00,0.0300
789.00,0.0301
788.00,0.0302
787.00,0.0302
786.00,0.0303
785.00,0.0305
784.00,0.0308
783.00,0.0310
782.00,0.0313
781.00,0.0315
780.00,0.0318
779.00,0.0320
778.00,0.0322
777.00,0.0323
776.00,0.0324
775.00,0.0325
774.00,0.0326
773.00,0.0326
772.00,0.0326
771.00,0.0326
770.00,0.0326
769.00,0.0327
768.00,0.0328
767.00,0.0329
766.00,0.0330
765.00,0.0332
764.00,0.0334
763.00,0.0337
762.00,0.0341
761.00,0.0345
760.00,0.0351
759.00,0.0356
758.00,0.0363
757.00,0.0370
756.00,0.0377
755.00,0.0383
754.00,0.0390
753.00,0.0397
752.00,0.0403
751.00,0.0410
750.00,0.0418
749.00,0.0425
748.00,0.0432
747.00,0.0438
746.00,0.0445
745.00,0.0451
744.00,0.0457
743.00,0.0463
742.00,0.0468
741.00,0.0473
740.00,0.0478
739.00,0.0482
738.00,0.0486
737.00,0.0488
736.00,0.0490
735.00,0.0491
734.00,0.0490
733.00,0.0487
732.00,0.0482
731.00,0.0475
730.00,0.0467
729.00,0.0458
728.00,0.0448
727.00,0.0437
726.00,0.0427
725.00,0.0418
724.00,0.0409
723.00,0.0401
722.00,0.0394
721.00,0.0387
720.00,0.0381
719.00,0.0377
718.00,0.0374
717.00,0.0371
716.00,0.0370
715.00,0.0368
714.00,0.0367
713.00,0.0366
712.00,0.0365
711.00,0.0364
710.00,0.0364
709.00,0.0365
708.00,0.0366
707.00,0.0367
706.00,0.0368
705.00,0.0368
704.00,0.0369
703.00,0.0370
702.00,0.0372
701.00,0.0373
700.00,0.0375
699.00,0.0377
698.00,0.0379
697.00,0.0381
696.00,0.0383
695.00,0.0385
694.00,0.0388
693.00,0.0390
692.00,0.0393
691.00,0.0395
690.00,0.0398
689.00,0.0402
688.00,0.0406
687.00,0.0410
686.00,0.0415
685.00,0.0419
684.00,0.0424
683.00,0.0429
682.00,0.0433
681.00,0.0438
680.00,0.0442
679.00,0.0446
678.00,0.0449
677.00,0.0453
676.00,0.0457
675.00,0.0461
674.00,0.0466
673.00,0.0470
672.00,0.0474
671.00,0.0479
670.00,0.0484
669.00,0.0490
668.00,0.0499
667.00,0.0507
666.00,0.0513
665.00,0.0519
664.00,0.0525
663.00,0.0533
662.00,0.0542
661.00,0.0551
660.00,0.0561
659.00,0.0571
658.00,0.0582
657.00,0.0592
656.00,0.0603
655.00,0.0613
654.00,0.0622
653.00,0.0630
652.00,0.0638
651.00,0.0644
650.00,0.0649
649.00,0.0653
648.00,0.0654
647.00,0.0653
646.00,0.0649
645.00,0.0642
644.00,0.0633
643.00,0.0623
642.00,0.0612
641.00,0.0600
640.00,0.0589
639.00,0.0577
638.00,0.0565
637.00,0.0554
636.00,0.0544
635.00,0.0534
634.00,0.0525
633.00,0.0516
632.00,0.0508
631.00,0.0500
630.00,0.0492
629.00,0.0486
628.00,0.0479
627.00,0.0473
626.00,0.0467
625.00,0.0461
624.00,0.0456
623.00,0.0452
622.00,0.0449
621.00,0.0446
620.00,0.0444
619.00,0.0442
618.00,0.0441
617.00,0.0441
616.00,0.0440
615.00,0.0441
614.00,0.0441
613.00,0.0441
612.00,0.0441
611.00,0.0441
610.00,0.0442
609.00,0.0444
608.00,0.0447
607.00,0.0450
606.00,0.0453
605.00,0.0455
604.00,0.0458
603.00,0.0462
602.00,0.0465
601.00,0.0467
600.00,0.0470
599.00,0.0472
598.00,0.0475
597.00,0.0479
596.00,0.0482
595.00,0.0486
594.00,0.0489
593.00,0.0494
592.00,0.0499
591.00,0.0505
590.00,0.0511
589.00,0.0517
588.00,0.0524
587.00,0.0531
586.00,0.0541
585.00,0.0551
584.00,0.0563
583.00,0.0575
582.00,0.0585
581.00,0.0596
580.00,0.0605
579.00,0.0613
578.00,0.0619
577.00,0.0623
576.00,0.0625
575.00,0.0627
574.00,0.0627
573.00,0.0627
572.00,0.0626
571.00,0.0624
570.00,0.0621
569.00,0.0616
568.00,0.0611
567.00,0.0606
566.00,0.0601
565.00,0.0595
564.00,0.0586
563.00,0.0575
562.00,0.0563
561.00,0.0551
560.00,0.0541
559.00,0.0532
558.00,0.0523
557.00,0.0515
556.00,0.0506
555.00,0.0498
554.00,0.0490
553.00,0.0483
552.00,0.0477
551.00,0.0472
550.00,0.0468
549.00,0.0464
548.00,0.0460
547.00,0.0455
546.00,0.0452
545.00,0.0449
544.00,0.0448
543.00,0.0447
542.00,0.0446
541.00,0.0445
540.00,0.0443
539.00,0.0440
538.00,0.0438
537.00,0.0435
536.00,0.0433
535.00,0.0432
534.00,0.0431
533.00,0.0432
532.00,0.0433
531.00,0.0434
530.00,0.0433
529.00,0.0431
528.00,0.0428
527.00,0.0425
526.00,0.0423
525.00,0.0421
524.00,0.0420
523.00,0.0419
522.00,0.0418
521.00,0.0415
520.00,0.0413
519.00,0.0411
518.00,0.0410
517.00,0.0409
516.00,0.0409
515.00,0.0407
514.00,0.0405
513.00,0.0402
512.00,0.0399
511.00,0.0396
510.00,0.0394
509.00,0.0392
508.00,0.0391
507.00,0.0391
506.00,0.0392
505.00,0.0395
504.00,0.0396
503.00,0.0397
502.00,0.0396
501.00,0.0394
500.00,0.0393
499.00,0.0393
498.00,0.0394
497.00,0.0397
496.00,0.0399
495.00,0.0400
494.00,0.0402
493.00,0.0402
492.00,0.0401
491.00,0.0400
490.00,0.0401
489.00,0.0402
488.00,0.0403
487.00,0.0404
486.00,0.0405
485.00,0.0406
484.00,0.0408
483.00,0.0409
482.00,0.0410
481.00,0.0411
480.00,0.0411
479.00,0.0411
478.00,0.0412
477.00,0.0413
476.00,0.0415
475.00,0.0417
474.00,0.0418
473.00,0.0418
472.00,0.0418
471.00,0.0417
470.00,0.0417
469.00,0.0417
468.00,0.0417
467.00,0.0417
466.00,0.0417
465.00,0.0416
464.00,0.0416
463.00,0.0417
462.00,0.0418
461.00,0.0418
460.00,0.0419
459.00,0.0420
458.00,0.0422
457.00,0.0425
456.00,0.0428
455.00,0.0430
454.00,0.0429
453.00,0.0428
452.00,0.0426
451.00,0.0426
450.00,0.0425
449.00,0.0425
448.00,0.0425
447.00,0.0424
446.00,0.0423
445.00,0.0421
444.00,0.0418
443.00,0.0414
442.00,0.0411
441.00,0.0407
440.00,0.0403
439.00,0.0399
438.00,0.0395
437.00,0.0390
436.00,0.0387
435.00,0.0385
434.00,0.0387
433.00,0.0391
432.00,0.0394
431.00,0.0394
430.00,0.0391
429.00,0.0391
428.00,0.0393
427.00,0.0397
426.00,0.0397
425.00,0.0392
424.00,0.0385
423.00,0.0378
422.00,0.0374
421.00,0.0372
420.00,0.0372
419.00,0.0373
418.00,0.0374
417.00,0.0374
416.00,0.0373
415.00,0.0372
414.00,0.0372
413.00,0.0373
412.00,0.0376
411.00,0.0382
410.00,0.0388
409.00,0.0393
408.00,0.0397
407.00,0.0403
406.00,0.0412
405.00,0.0420
404.00,0.0424
403.00,0.0421
402.00,0.0411
401.00,0.0397
400.00,0.0384
