Created as New Dataset,Sample 411 By YargerLab Date Thursday, December 04 2025
cm-1,A
4000.00,0.0044
3999.00,0.0044
3998.00,0.0044
3997.00,0.0044
3996.00,0.0044
3995.00,0.0044
3994.00,0.0044
3993.00,0.0044
3992.00,0.0044
3991.00,0.0044
3990.00,0.0044
3989.00,0.0044
3988.00,0.0044
3987.00,0.0044
3986.00,0.0044
3985.00,0.0044
3984.00,0.0044
3983.00,0.0044
3982.00,0.0044
3981.00,0.0044
3980.00,0.0044
3979.00,0.0044
3978.00,0.0044
3977.00,0.0044
3976.00,0.0044
3975.00,0.0044
3974.00,0.0044
3973.00,0.0044
3972.00,0.0044
3971.00,0.0044
3970.00,0.0044
3969.00,0.0043
3968.00,0.0044
3967.00,0.0044
3966.00,0.0044
3965.00,0.0044
3964.00,0.0044
3963.00,0.0044
3962.00,0.0044
3961.00,0.0044
3960.00,0.0044
3959.00,0.0044
3958.00,0.0044
3957.00,0.0044
3956.00,0.0044
3955.00,0.0044
3954.00,0.0044
3953.00,0.0044
3952.00,0.0044
3951.00,0.0044
3950.00,0.0044
3949.00,0.0044
3948.00,0.0044
3947.00,0.0044
3946.00,0.0044
3945.00,0.0044
3944.00,0.0044
3943.00,0.0044
3942.00,0.0044
3941.00,0.0044
3940.00,0.0044
3939.00,0.0044
3938.00,0.0044
3937.00,0.0044
3936.00,0.0044
3935.00,0.0044
3934.00,0.0044
3933.00,0.0044
3932.00,0.0044
3931.00,0.0044
3930.00,0.0044
3929.00,0.0044
3928.00,0.0044
3927.00,0.0044
3926.00,0.0044
3925.00,0.0044
3924.00,0.0044
3923.00,0.0044
3922.00,0.0044
3921.00,0.0044
3920.00,0.0044
3919.00,0.0044
3918.00,0.0043
3917.00,0.0044
3916.00,0.0044
3915.00,0.0044
3914.00,0.0044
3913.00,0.0044
3912.00,0.0043
3911.00,0.0043
3910.00,0.0043
3909.00,0.0043
3908.00,0.0044
3907.00,0.0044
3906.00,0.0044
3905.00,0.0044
3904.00,0.0044
3903.00,0.0043
3902.00,0.0043
3901.00,0.0043
3900.00,0.0043
3899.00,0.0043
3898.00,0.0043
3897.00,0.0043
3896.00,0.0043
3895.00,0.0043
3894.00,0.0043
3893.00,0.0042
3892.00,0.0042
3891.00,0.0043
3890.00,0.0043
3889.00,0.0043
3888.00,0.0043
3887.00,0.0043
3886.00,0.0043
3885.00,0.0043
3884.00,0.0043
3883.00,0.0043
3882.00,0.0043
3881.00,0.0043
3880.00,0.0043
3879.00,0.0043
3878.00,0.0043
3877.00,0.0043
3876.00,0.0043
3875.00,0.0043
3874.00,0.0043
3873.00,0.0043
3872.00,0.0043
3871.00,0.0042
3870.00,0.0042
3869.00,0.0042
3868.00,0.0043
3867.00,0.0043
3866.00,0.0043
3865.00,0.0043
3864.00,0.0043
3863.00,0.0043
3862.00,0.0043
3861.00,0.0042
3860.00,0.0042
3859.00,0.0042
3858.00,0.0042
3857.00,0.0042
3856.00,0.0042
3855.00,0.0042
3854.00,0.0042
3853.00,0.0042
3852.00,0.0042
3851.00,0.0042
3850.00,0.0042
3849.00,0.0042
3848.00,0.0043
3847.00,0.0043
3846.00,0.0043
3845.00,0.0043
3844.00,0.0043
3843.00,0.0042
3842.00,0.0042
3841.00,0.0042
3840.00,0.0042
3839.00,0.0042
3838.00,0.0042
3837.00,0.0042
3836.00,0.0042
3835.00,0.0042
3834.00,0.0043
3833.00,0.0043
3832.00,0.0043
3831.00,0.0043
3830.00,0.0043
3829.00,0.0043
3828.00,0.0043
3827.00,0.0043
3826.00,0.0043
3825.00,0.0043
3824.00,0.0043
3823.00,0.0042
3822.00,0.0042
3821.00,0.0042
3820.00,0.0042
3819.00,0.0042
3818.00,0.0042
3817.00,0.0042
3816.00,0.0043
3815.00,0.0043
3814.00,0.0043
3813.00,0.0043
3812.00,0.0043
3811.00,0.0043
3810.00,0.0043
3809.00,0.0043
3808.00,0.0043
3807.00,0.0043
3806.00,0.0043
3805.00,0.0043
3804.00,0.0043
3803.00,0.0043
3802.00,0.0043
3801.00,0.0043
3800.00,0.0043
3799.00,0.0043
3798.00,0.0043
3797.00,0.0043
3796.00,0.0043
3795.00,0.0044
3794.00,0.0044
3793.00,0.0044
3792.00,0.0044
3791.00,0.0044
3790.00,0.0043
3789.00,0.0043
3788.00,0.0043
3787.00,0.0043
3786.00,0.0043
3785.00,0.0043
3784.00,0.0043
3783.00,0.0043
3782.00,0.0043
3781.00,0.0043
3780.00,0.0043
3779.00,0.0044
3778.00,0.0044
3777.00,0.0044
3776.00,0.0044
3775.00,0.0043
3774.00,0.0043
3773.00,0.0043
3772.00,0.0043
3771.00,0.0043
3770.00,0.0043
3769.00,0.0043
3768.00,0.0043
3767.00,0.0043
3766.00,0.0043
3765.00,0.0044
3764.00,0.0044
3763.00,0.0044
3762.00,0.0043
3761.00,0.0043
3760.00,0.0043
3759.00,0.0042
3758.00,0.0042
3757.00,0.0042
3756.00,0.0042
3755.00,0.0042
3754.00,0.0042
3753.00,0.0042
3752.00,0.0042
3751.00,0.0042
3750.00,0.0042
3749.00,0.0041
3748.00,0.0041
3747.00,0.0041
3746.00,0.0041
3745.00,0.0042
3744.00,0.0042
3743.00,0.0043
3742.00,0.0043
3741.00,0.0042
3740.00,0.0042
3739.00,0.0042
3738.00,0.0042
3737.00,0.0042
3736.00,0.0042
3735.00,0.0042
3734.00,0.0042
3733.00,0.0042
3732.00,0.0042
3731.00,0.0042
3730.00,0.0042
3729.00,0.0043
3728.00,0.0043
3727.00,0.0043
3726.00,0.0043
3725.00,0.0043
3724.00,0.0043
3723.00,0.0042
3722.00,0.0042
3721.00,0.0042
3720.00,0.0042
3719.00,0.0042
3718.00,0.0042
3717.00,0.0042
3716.00,0.0042
3715.00,0.0041
3714.00,0.0041
3713.00,0.0041
3712.00,0.0041
3711.00,0.0041
3710.00,0.0041
3709.00,0.0041
3708.00,0.0041
3707.00,0.0041
3706.00,0.0041
3705.00,0.0041
3704.00,0.0041
3703.00,0.0041
3702.00,0.0041
3701.00,0.0042
3700.00,0.0042
3699.00,0.0042
3698.00,0.0042
3697.00,0.0042
3696.00,0.0041
3695.00,0.0041
3694.00,0.0041
3693.00,0.0041
3692.00,0.0041
3691.00,0.0042
3690.00,0.0042
3689.00,0.0043
3688.00,0.0044
3687.00,0.0044
3686.00,0.0045
3685.00,0.0044
3684.00,0.0044
3683.00,0.0044
3682.00,0.0044
3681.00,0.0044
3680.00,0.0044
3679.00,0.0044
3678.00,0.0044
3677.00,0.0044
3676.00,0.0043
3675.00,0.0044
3674.00,0.0044
3673.00,0.0045
3672.00,0.0045
3671.00,0.0045
3670.00,0.0046
3669.00,0.0046
3668.00,0.0046
3667.00,0.0046
3666.00,0.0046
3665.00,0.0046
3664.00,0.0046
3663.00,0.0046
3662.00,0.0047
3661.00,0.0047
3660.00,0.0047
3659.00,0.0047
3658.00,0.0048
3657.00,0.0048
3656.00,0.0048
3655.00,0.0048
3654.00,0.0048
3653.00,0.0048
3652.00,0.0048
3651.00,0.0049
3650.00,0.0049
3649.00,0.0050
3648.00,0.0050
3647.00,0.0050
3646.00,0.0051
3645.00,0.0051
3644.00,0.0051
3643.00,0.0052
3642.00,0.0052
3641.00,0.0052
3640.00,0.0053
3639.00,0.0053
3638.00,0.0053
3637.00,0.0053
3636.00,0.0053
3635.00,0.0053
3634.00,0.0053
3633.00,0.0054
3632.00,0.0054
3631.00,0.0055
3630.00,0.0055
3629.00,0.0056
3628.00,0.0057
3627.00,0.0057
3626.00,0.0058
3625.00,0.0058
3624.00,0.0059
3623.00,0.0059
3622.00,0.0060
3621.00,0.0060
3620.00,0.0061
3619.00,0.0062
3618.00,0.0062
3617.00,0.0063
3616.00,0.0063
3615.00,0.0063
3614.00,0.0063
3613.00,0.0064
3612.00,0.0064
3611.00,0.0065
3610.00,0.0065
3609.00,0.0065
3608.00,0.0066
3607.00,0.0067
3606.00,0.0068
3605.00,0.0068
3604.00,0.0069
3603.00,0.0069
3602.00,0.0070
3601.00,0.0071
3600.00,0.0072
3599.00,0.0073
3598.00,0.0073
3597.00,0.0074
3596.00,0.0074
3595.00,0.0074
3594.00,0.0075
3593.00,0.0076
3592.00,0.0076
3591.00,0.0077
3590.00,0.0078
3589.00,0.0079
3588.00,0.0080
3587.00,0.0081
3586.00,0.0082
3585.00,0.0083
3584.00,0.0084
3583.00,0.0084
3582.00,0.0085
3581.00,0.0085
3580.00,0.0086
3579.00,0.0086
3578.00,0.0087
3577.00,0.0088
3576.00,0.0089
3575.00,0.0090
3574.00,0.0091
3573.00,0.0092
3572.00,0.0093
3571.00,0.0094
3570.00,0.0094
3569.00,0.0095
3568.00,0.0095
3567.00,0.0096
3566.00,0.0097
3565.00,0.0098
3564.00,0.0099
3563.00,0.0099
3562.00,0.0100
3561.00,0.0101
3560.00,0.0101
3559.00,0.0102
3558.00,0.0102
3557.00,0.0103
3556.00,0.0104
3555.00,0.0104
3554.00,0.0105
3553.00,0.0106
3552.00,0.0107
3551.00,0.0108
3550.00,0.0108
3549.00,0.0109
3548.00,0.0110
3547.00,0.0110
3546.00,0.0111
3545.00,0.0111
3544.00,0.0112
3543.00,0.0112
3542.00,0.0112
3541.00,0.0113
3540.00,0.0113
3539.00,0.0114
3538.00,0.0114
3537.00,0.0115
3536.00,0.0115
3535.00,0.0116
3534.00,0.0116
3533.00,0.0117
3532.00,0.0117
3531.00,0.0117
3530.00,0.0118
3529.00,0.0119
3528.00,0.0119
3527.00,0.0120
3526.00,0.0120
3525.00,0.0120
3524.00,0.0121
3523.00,0.0121
3522.00,0.0122
3521.00,0.0122
3520.00,0.0123
3519.00,0.0123
3518.00,0.0123
3517.00,0.0123
3516.00,0.0124
3515.00,0.0124
3514.00,0.0124
3513.00,0.0125
3512.00,0.0125
3511.00,0.0126
3510.00,0.0126
3509.00,0.0127
3508.00,0.0127
3507.00,0.0127
3506.00,0.0128
3505.00,0.0128
3504.00,0.0128
3503.00,0.0129
3502.00,0.0129
3501.00,0.0130
3500.00,0.0130
3499.00,0.0131
3498.00,0.0131
3497.00,0.0132
3496.00,0.0132
3495.00,0.0132
3494.00,0.0133
3493.00,0.0133
3492.00,0.0133
3491.00,0.0134
3490.00,0.0134
3489.00,0.0134
3488.00,0.0135
3487.00,0.0135
3486.00,0.0136
3485.00,0.0136
3484.00,0.0136
3483.00,0.0137
3482.00,0.0137
3481.00,0.0137
3480.00,0.0138
3479.00,0.0138
3478.00,0.0139
3477.00,0.0139
3476.00,0.0140
3475.00,0.0140
3474.00,0.0140
3473.00,0.0141
3472.00,0.0141
3471.00,0.0142
3470.00,0.0142
3469.00,0.0142
3468.00,0.0142
3467.00,0.0142
3466.00,0.0142
3465.00,0.0143
3464.00,0.0143
3463.00,0.0144
3462.00,0.0144
3461.00,0.0145
3460.00,0.0145
3459.00,0.0145
3458.00,0.0145
3457.00,0.0145
3456.00,0.0145
3455.00,0.0145
3454.00,0.0145
3453.00,0.0145
3452.00,0.0145
3451.00,0.0145
3450.00,0.0146
3449.00,0.0146
3448.00,0.0146
3447.00,0.0146
3446.00,0.0146
3445.00,0.0147
3444.00,0.0147
3443.00,0.0147
3442.00,0.0147
3441.00,0.0147
3440.00,0.0147
3439.00,0.0147
3438.00,0.0147
3437.00,0.0147
3436.00,0.0147
3435.00,0.0147
3434.00,0.0148
3433.00,0.0148
3432.00,0.0148
3431.00,0.0148
3430.00,0.0148
3429.00,0.0148
3428.00,0.0148
3427.00,0.0148
3426.00,0.0148
3425.00,0.0148
3424.00,0.0148
3423.00,0.0148
3422.00,0.0148
3421.00,0.0148
3420.00,0.0148
3419.00,0.0148
3418.00,0.0148
3417.00,0.0148
3416.00,0.0148
3415.00,0.0147
3414.00,0.0147
3413.00,0.0148
3412.00,0.0148
3411.00,0.0148
3410.00,0.0148
3409.00,0.0148
3408.00,0.0148
3407.00,0.0148
3406.00,0.0148
3405.00,0.0148
3404.00,0.0148
3403.00,0.0148
3402.00,0.0148
3401.00,0.0148
3400.00,0.0148
3399.00,0.0148
3398.00,0.0148
3397.00,0.0148
3396.00,0.0148
3395.00,0.0148
3394.00,0.0148
3393.00,0.0148
3392.00,0.0148
3391.00,0.0149
3390.00,0.0149
3389.00,0.0150
3388.00,0.0150
3387.00,0.0150
3386.00,0.0151
3385.00,0.0150
3384.00,0.0150
3383.00,0.0150
3382.00,0.0150
3381.00,0.0151
3380.00,0.0151
3379.00,0.0151
3378.00,0.0151
3377.00,0.0151
3376.00,0.0152
3375.00,0.0152
3374.00,0.0152
3373.00,0.0151
3372.00,0.0150
3371.00,0.0149
3370.00,0.0149
3369.00,0.0149
3368.00,0.0149
3367.00,0.0150
3366.00,0.0151
3365.00,0.0152
3364.00,0.0152
3363.00,0.0153
3362.00,0.0153
3361.00,0.0153
3360.00,0.0154
3359.00,0.0154
3358.00,0.0155
3357.00,0.0155
3356.00,0.0155
3355.00,0.0155
3354.00,0.0155
3353.00,0.0154
3352.00,0.0154
3351.00,0.0154
3350.00,0.0154
3349.00,0.0155
3348.00,0.0156
3347.00,0.0157
3346.00,0.0157
3345.00,0.0156
3344.00,0.0156
3343.00,0.0155
3342.00,0.0155
3341.00,0.0155
3340.00,0.0154
3339.00,0.0154
3338.00,0.0155
3337.00,0.0155
3336.00,0.0156
3335.00,0.0157
3334.00,0.0157
3333.00,0.0157
3332.00,0.0157
3331.00,0.0157
3330.00,0.0157
3329.00,0.0156
3328.00,0.0155
3327.00,0.0155
3326.00,0.0154
3325.00,0.0154
3324.00,0.0155
3323.00,0.0155
3322.00,0.0156
3321.00,0.0157
3320.00,0.0157
3319.00,0.0157
3318.00,0.0157
3317.00,0.0157
3316.00,0.0157
3315.00,0.0157
3314.00,0.0156
3313.00,0.0156
3312.00,0.0155
3311.00,0.0154
3310.00,0.0153
3309.00,0.0151
3308.00,0.0150
3307.00,0.0150
3306.00,0.0150
3305.00,0.0151
3304.00,0.0153
3303.00,0.0155
3302.00,0.0156
3301.00,0.0156
3300.00,0.0157
3299.00,0.0156
3298.00,0.0155
3297.00,0.0155
3296.00,0.0154
3295.00,0.0154
3294.00,0.0154
3293.00,0.0154
3292.00,0.0155
3291.00,0.0156
3290.00,0.0156
3289.00,0.0157
3288.00,0.0157
3287.00,0.0157
3286.00,0.0157
3285.00,0.0157
3284.00,0.0157
3283.00,0.0156
3282.00,0.0156
3281.00,0.0156
3280.00,0.0156
3279.00,0.0156
3278.00,0.0156
3277.00,0.0155
3276.00,0.0155
3275.00,0.0155
3274.00,0.0154
3273.00,0.0153
3272.00,0.0153
3271.00,0.0153
3270.00,0.0153
3269.00,0.0154
3268.00,0.0154
3267.00,0.0155
3266.00,0.0155
3265.00,0.0155
3264.00,0.0154
3263.00,0.0154
3262.00,0.0153
3261.00,0.0153
3260.00,0.0153
3259.00,0.0152
3258.00,0.0152
3257.00,0.0152
3256.00,0.0152
3255.00,0.0152
3254.00,0.0152
3253.00,0.0152
3252.00,0.0152
3251.00,0.0152
3250.00,0.0152
3249.00,0.0151
3248.00,0.0151
3247.00,0.0151
3246.00,0.0151
3245.00,0.0151
3244.00,0.0151
3243.00,0.0151
3242.00,0.0151
3241.00,0.0151
3240.00,0.0151
3239.00,0.0150
3238.00,0.0150
3237.00,0.0149
3236.00,0.0149
3235.00,0.0148
3234.00,0.0148
3233.00,0.0149
3232.00,0.0149
3231.00,0.0149
3230.00,0.0149
3229.00,0.0149
3228.00,0.0149
3227.00,0.0148
3226.00,0.0148
3225.00,0.0148
3224.00,0.0148
3223.00,0.0147
3222.00,0.0147
3221.00,0.0147
3220.00,0.0147
3219.00,0.0147
3218.00,0.0147
3217.00,0.0147
3216.00,0.0147
3215.00,0.0146
3214.00,0.0146
3213.00,0.0146
3212.00,0.0145
3211.00,0.0145
3210.00,0.0145
3209.00,0.0145
3208.00,0.0144
3207.00,0.0144
3206.00,0.0144
3205.00,0.0143
3204.00,0.0143
3203.00,0.0143
3202.00,0.0143
3201.00,0.0142
3200.00,0.0142
3199.00,0.0142
3198.00,0.0142
3197.00,0.0142
3196.00,0.0142
3195.00,0.0142
3194.00,0.0141
3193.00,0.0141
3192.00,0.0141
3191.00,0.0140
3190.00,0.0140
3189.00,0.0140
3188.00,0.0140
3187.00,0.0140
3186.00,0.0140
3185.00,0.0140
3184.00,0.0139
3183.00,0.0139
3182.00,0.0139
3181.00,0.0138
3180.00,0.0138
3179.00,0.0138
3178.00,0.0138
3177.00,0.0138
3176.00,0.0138
3175.00,0.0138
3174.00,0.0138
3173.00,0.0138
3172.00,0.0138
3171.00,0.0138
3170.00,0.0137
3169.00,0.0137
3168.00,0.0137
3167.00,0.0136
3166.00,0.0136
3165.00,0.0136
3164.00,0.0135
3163.00,0.0135
3162.00,0.0135
3161.00,0.0135
3160.00,0.0135
3159.00,0.0135
3158.00,0.0134
3157.00,0.0134
3156.00,0.0134
3155.00,0.0133
3154.00,0.0133
3153.00,0.0132
3152.00,0.0132
3151.00,0.0132
3150.00,0.0132
3149.00,0.0132
3148.00,0.0132
3147.00,0.0132
3146.00,0.0131
3145.00,0.0131
3144.00,0.0131
3143.00,0.0130
3142.00,0.0130
3141.00,0.0130
3140.00,0.0130
3139.00,0.0129
3138.00,0.0129
3137.00,0.0129
3136.00,0.0129
3135.00,0.0129
3134.00,0.0129
3133.00,0.0129
3132.00,0.0129
3131.00,0.0129
3130.00,0.0129
3129.00,0.0129
3128.00,0.0129
3127.00,0.0128
3126.00,0.0128
3125.00,0.0128
3124.00,0.0128
3123.00,0.0128
3122.00,0.0127
3121.00,0.0127
3120.00,0.0127
3119.00,0.0127
3118.00,0.0127
3117.00,0.0127
3116.00,0.0127
3115.00,0.0126
3114.00,0.0126
3113.00,0.0126
3112.00,0.0126
3111.00,0.0125
3110.00,0.0125
3109.00,0.0124
3108.00,0.0124
3107.00,0.0124
3106.00,0.0124
3105.00,0.0124
3104.00,0.0123
3103.00,0.0123
3102.00,0.0123
3101.00,0.0123
3100.00,0.0123
3099.00,0.0123
3098.00,0.0123
3097.00,0.0123
3096.00,0.0123
3095.00,0.0122
3094.00,0.0122
3093.00,0.0122
3092.00,0.0122
3091.00,0.0122
3090.00,0.0122
3089.00,0.0122
3088.00,0.0122
3087.00,0.0122
3086.00,0.0122
3085.00,0.0122
3084.00,0.0122
3083.00,0.0122
3082.00,0.0122
3081.00,0.0122
3080.00,0.0122
3079.00,0.0122
3078.00,0.0122
3077.00,0.0122
3076.00,0.0122
3075.00,0.0121
3074.00,0.0121
3073.00,0.0121
3072.00,0.0121
3071.00,0.0120
3070.00,0.0120
3069.00,0.0120
3068.00,0.0119
3067.00,0.0119
3066.00,0.0119
3065.00,0.0119
3064.00,0.0119
3063.00,0.0118
3062.00,0.0118
3061.00,0.0118
3060.00,0.0118
3059.00,0.0118
3058.00,0.0117
3057.00,0.0117
3056.00,0.0117
3055.00,0.0117
3054.00,0.0117
3053.00,0.0117
3052.00,0.0117
3051.00,0.0117
3050.00,0.0117
3049.00,0.0116
3048.00,0.0116
3047.00,0.0115
3046.00,0.0115
3045.00,0.0115
3044.00,0.0115
3043.00,0.0115
3042.00,0.0115
3041.00,0.0115
3040.00,0.0115
3039.00,0.0115
3038.00,0.0115
3037.00,0.0115
3036.00,0.0115
3035.00,0.0115
3034.00,0.0115
3033.00,0.0115
3032.00,0.0115
3031.00,0.0115
3030.00,0.0115
3029.00,0.0115
3028.00,0.0115
3027.00,0.0115
3026.00,0.0115
3025.00,0.0115
3024.00,0.0115
3023.00,0.0115
3022.00,0.0115
3021.00,0.0115
3020.00,0.0115
3019.00,0.0115
3018.00,0.0116
3017.00,0.0116
3016.00,0.0117
3015.00,0.0117
3014.00,0.0118
3013.00,0.0119
3012.00,0.0120
3011.00,0.0122
3010.00,0.0123
3009.00,0.0124
3008.00,0.0126
3007.00,0.0128
3006.00,0.0130
3005.00,0.0132
3004.00,0.0135
3003.00,0.0137
3002.00,0.0140
3001.00,0.0143
3000.00,0.0147
2999.00,0.0151
2998.00,0.0155
2997.00,0.0160
2996.00,0.0164
2995.00,0.0169
2994.00,0.0174
2993.00,0.0179
2992.00,0.0184
2991.00,0.0190
2990.00,0.0196
2989.00,0.0202
2988.00,0.0207
2987.00,0.0213
2986.00,0.0218
2985.00,0.0222
2984.00,0.0226
2983.00,0.0230
2982.00,0.0234
2981.00,0.0238
2980.00,0.0242
2979.00,0.0247
2978.00,0.0251
2977.00,0.0254
2976.00,0.0257
2975.00,0.0260
2974.00,0.0263
2973.00,0.0265
2972.00,0.0268
2971.00,0.0271
2970.00,0.0274
2969.00,0.0278
2968.00,0.0282
2967.00,0.0285
2966.00,0.0289
2965.00,0.0293
2964.00,0.0297
2963.00,0.0300
2962.00,0.0304
2961.00,0.0308
2960.00,0.0312
2959.00,0.0316
2958.00,0.0319
2957.00,0.0323
2956.00,0.0326
2955.00,0.0328
2954.00,0.0330
2953.00,0.0332
2952.00,0.0333
2951.00,0.0333
2950.00,0.0333
2949.00,0.0333
2948.00,0.0333
2947.00,0.0332
2946.00,0.0331
2945.00,0.0331
2944.00,0.0331
2943.00,0.0330
2942.00,0.0330
2941.00,0.0331
2940.00,0.0331
2939.00,0.0332
2938.00,0.0334
2937.00,0.0336
2936.00,0.0338
2935.00,0.0340
2934.00,0.0342
2933.00,0.0344
2932.00,0.0346
2931.00,0.0348
2930.00,0.0350
2929.00,0.0352
2928.00,0.0354
2927.00,0.0356
2926.00,0.0357
2925.00,0.0357
2924.00,0.0357
2923.00,0.0356
2922.00,0.0355
2921.00,0.0354
2920.00,0.0351
2919.00,0.0349
2918.00,0.0345
2917.00,0.0341
2916.00,0.0337
2915.00,0.0332
2914.00,0.0328
2913.00,0.0323
2912.00,0.0318
2911.00,0.0313
2910.00,0.0308
2909.00,0.0303
2908.00,0.0298
2907.00,0.0293
2906.00,0.0289
2905.00,0.0285
2904.00,0.0282
2903.00,0.0279
2902.00,0.0277
2901.00,0.0275
2900.00,0.0274
2899.00,0.0273
2898.00,0.0273
2897.00,0.0273
2896.00,0.0272
2895.00,0.0272
2894.00,0.0272
2893.00,0.0272
2892.00,0.0272
2891.00,0.0271
2890.00,0.0271
2889.00,0.0271
2888.00,0.0271
2887.00,0.0271
2886.00,0.0270
2885.00,0.0270
2884.00,0.0270
2883.00,0.0271
2882.00,0.0271
2881.00,0.0272
2880.00,0.0272
2879.00,0.0273
2878.00,0.0274
2877.00,0.0274
2876.00,0.0275
2875.00,0.0275
2874.00,0.0276
2873.00,0.0277
2872.00,0.0278
2871.00,0.0278
2870.00,0.0278
2869.00,0.0277
2868.00,0.0276
2867.00,0.0275
2866.00,0.0273
2865.00,0.0273
2864.00,0.0272
2863.00,0.0271
2862.00,0.0271
2861.00,0.0270
2860.00,0.0270
2859.00,0.0269
2858.00,0.0268
2857.00,0.0266
2856.00,0.0263
2855.00,0.0260
2854.00,0.0256
2853.00,0.0251
2852.00,0.0246
2851.00,0.0240
2850.00,0.0235
2849.00,0.0229
2848.00,0.0223
2847.00,0.0218
2846.00,0.0213
2845.00,0.0208
2844.00,0.0203
2843.00,0.0197
2842.00,0.0193
2841.00,0.0188
2840.00,0.0183
2839.00,0.0179
2838.00,0.0176
2837.00,0.0173
2836.00,0.0171
2835.00,0.0168
2834.00,0.0165
2833.00,0.0163
2832.00,0.0160
2831.00,0.0157
2830.00,0.0155
2829.00,0.0152
2828.00,0.0149
2827.00,0.0147
2826.00,0.0145
2825.00,0.0142
2824.00,0.0140
2823.00,0.0138
2822.00,0.0137
2821.00,0.0135
2820.00,0.0133
2819.00,0.0131
2818.00,0.0130
2817.00,0.0128
2816.00,0.0126
2815.00,0.0125
2814.00,0.0123
2813.00,0.0122
2812.00,0.0121
2811.00,0.0120
2810.00,0.0118
2809.00,0.0117
2808.00,0.0116
2807.00,0.0115
2806.00,0.0114
2805.00,0.0113
2804.00,0.0112
2803.00,0.0111
2802.00,0.0110
2801.00,0.0110
2800.00,0.0109
2799.00,0.0108
2798.00,0.0108
2797.00,0.0107
2796.00,0.0106
2795.00,0.0106
2794.00,0.0105
2793.00,0.0105
2792.00,0.0104
2791.00,0.0103
2790.00,0.0103
2789.00,0.0102
2788.00,0.0102
2787.00,0.0101
2786.00,0.0101
2785.00,0.0101
2784.00,0.0100
2783.00,0.0100
2782.00,0.0100
2781.00,0.0099
2780.00,0.0099
2779.00,0.0098
2778.00,0.0098
2777.00,0.0097
2776.00,0.0097
2775.00,0.0096
2774.00,0.0096
2773.00,0.0096
2772.00,0.0095
2771.00,0.0095
2770.00,0.0094
2769.00,0.0094
2768.00,0.0094
2767.00,0.0094
2766.00,0.0094
2765.00,0.0094
2764.00,0.0094
2763.00,0.0093
2762.00,0.0093
2761.00,0.0093
2760.00,0.0092
2759.00,0.0092
2758.00,0.0092
2757.00,0.0092
2756.00,0.0092
2755.00,0.0093
2754.00,0.0093
2753.00,0.0093
2752.00,0.0092
2751.00,0.0092
2750.00,0.0092
2749.00,0.0092
2748.00,0.0093
2747.00,0.0093
2746.00,0.0093
2745.00,0.0093
2744.00,0.0093
2743.00,0.0093
2742.00,0.0093
2741.00,0.0093
2740.00,0.0093
2739.00,0.0093
2738.00,0.0093
2737.00,0.0093
2736.00,0.0093
2735.00,0.0093
2734.00,0.0093
2733.00,0.0093
2732.00,0.0093
2731.00,0.0093
2730.00,0.0093
2729.00,0.0092
2728.00,0.0092
2727.00,0.0091
2726.00,0.0091
2725.00,0.0091
2724.00,0.0091
2723.00,0.0091
2722.00,0.0090
2721.00,0.0090
2720.00,0.0090
2719.00,0.0090
2718.00,0.0089
2717.00,0.0089
2716.00,0.0089
2715.00,0.0089
2714.00,0.0089
2713.00,0.0089
2712.00,0.0089
2711.00,0.0089
2710.00,0.0088
2709.00,0.0088
2708.00,0.0088
2707.00,0.0088
2706.00,0.0088
2705.00,0.0087
2704.00,0.0087
2703.00,0.0087
2702.00,0.0087
2701.00,0.0086
2700.00,0.0086
2699.00,0.0086
2698.00,0.0086
2697.00,0.0086
2696.00,0.0086
2695.00,0.0085
2694.00,0.0085
2693.00,0.0085
2692.00,0.0084
2691.00,0.0084
2690.00,0.0084
2689.00,0.0084
2688.00,0.0084
2687.00,0.0084
2686.00,0.0084
2685.00,0.0083
2684.00,0.0083
2683.00,0.0083
2682.00,0.0083
2681.00,0.0082
2680.00,0.0082
2679.00,0.0082
2678.00,0.0082
2677.00,0.0082
2676.00,0.0082
2675.00,0.0082
2674.00,0.0082
2673.00,0.0082
2672.00,0.0082
2671.00,0.0082
2670.00,0.0082
2669.00,0.0082
2668.00,0.0082
2667.00,0.0082
2666.00,0.0083
2665.00,0.0083
2664.00,0.0084
2663.00,0.0084
2662.00,0.0084
2661.00,0.0084
2660.00,0.0084
2659.00,0.0084
2658.00,0.0084
2657.00,0.0084
2656.00,0.0084
2655.00,0.0085
2654.00,0.0085
2653.00,0.0085
2652.00,0.0085
2651.00,0.0084
2650.00,0.0084
2649.00,0.0084
2648.00,0.0084
2647.00,0.0083
2646.00,0.0083
2645.00,0.0083
2644.00,0.0083
2643.00,0.0083
2642.00,0.0083
2641.00,0.0083
2640.00,0.0083
2639.00,0.0082
2638.00,0.0082
2637.00,0.0082
2636.00,0.0082
2635.00,0.0082
2634.00,0.0082
2633.00,0.0082
2632.00,0.0082
2631.00,0.0082
2630.00,0.0081
2629.00,0.0081
2628.00,0.0081
2627.00,0.0081
2626.00,0.0081
2625.00,0.0081
2624.00,0.0081
2623.00,0.0081
2622.00,0.0080
2621.00,0.0080
2620.00,0.0080
2619.00,0.0080
2618.00,0.0079
2617.00,0.0079
2616.00,0.0079
2615.00,0.0079
2614.00,0.0079
2613.00,0.0078
2612.00,0.0078
2611.00,0.0078
2610.00,0.0078
2609.00,0.0078
2608.00,0.0077
2607.00,0.0077
2606.00,0.0077
2605.00,0.0078
2604.00,0.0078
2603.00,0.0077
2602.00,0.0077
2601.00,0.0077
2600.00,0.0077
2599.00,0.0077
2598.00,0.0077
2597.00,0.0077
2596.00,0.0076
2595.00,0.0076
2594.00,0.0076
2593.00,0.0076
2592.00,0.0076
2591.00,0.0076
2590.00,0.0076
2589.00,0.0076
2588.00,0.0076
2587.00,0.0076
2586.00,0.0076
2585.00,0.0076
2584.00,0.0076
2583.00,0.0076
2582.00,0.0076
2581.00,0.0076
2580.00,0.0076
2579.00,0.0076
2578.00,0.0075
2577.00,0.0076
2576.00,0.0076
2575.00,0.0076
2574.00,0.0076
2573.00,0.0076
2572.00,0.0076
2571.00,0.0076
2570.00,0.0076
2569.00,0.0075
2568.00,0.0075
2567.00,0.0075
2566.00,0.0075
2565.00,0.0074
2564.00,0.0074
2563.00,0.0074
2562.00,0.0074
2561.00,0.0074
2560.00,0.0074
2559.00,0.0074
2558.00,0.0074
2557.00,0.0073
2556.00,0.0073
2555.00,0.0073
2554.00,0.0073
2553.00,0.0072
2552.00,0.0072
2551.00,0.0072
2550.00,0.0072
2549.00,0.0072
2548.00,0.0072
2547.00,0.0072
2546.00,0.0072
2545.00,0.0072
2544.00,0.0071
2543.00,0.0071
2542.00,0.0071
2541.00,0.0071
2540.00,0.0070
2539.00,0.0070
2538.00,0.0070
2537.00,0.0069
2536.00,0.0069
2535.00,0.0069
2534.00,0.0069
2533.00,0.0069
2532.00,0.0069
2531.00,0.0069
2530.00,0.0068
2529.00,0.0068
2528.00,0.0068
2527.00,0.0068
2526.00,0.0067
2525.00,0.0067
2524.00,0.0066
2523.00,0.0066
2522.00,0.0066
2521.00,0.0066
2520.00,0.0066
2519.00,0.0066
2518.00,0.0066
2517.00,0.0065
2516.00,0.0065
2515.00,0.0065
2514.00,0.0065
2513.00,0.0065
2512.00,0.0065
2511.00,0.0065
2510.00,0.0065
2509.00,0.0065
2508.00,0.0064
2507.00,0.0064
2506.00,0.0064
2505.00,0.0064
2504.00,0.0064
2503.00,0.0064
2502.00,0.0064
2501.00,0.0063
2500.00,0.0063
2499.00,0.0063
2498.00,0.0063
2497.00,0.0063
2496.00,0.0063
2495.00,0.0063
2494.00,0.0063
2493.00,0.0063
2492.00,0.0063
2491.00,0.0063
2490.00,0.0063
2489.00,0.0063
2488.00,0.0063
2487.00,0.0063
2486.00,0.0063
2485.00,0.0062
2484.00,0.0062
2483.00,0.0062
2482.00,0.0062
2481.00,0.0062
2480.00,0.0062
2479.00,0.0062
2478.00,0.0062
2477.00,0.0062
2476.00,0.0062
2475.00,0.0062
2474.00,0.0062
2473.00,0.0062
2472.00,0.0062
2471.00,0.0062
2470.00,0.0062
2469.00,0.0062
2468.00,0.0062
2467.00,0.0062
2466.00,0.0062
2465.00,0.0061
2464.00,0.0061
2463.00,0.0061
2462.00,0.0061
2461.00,0.0061
2460.00,0.0062
2459.00,0.0062
2458.00,0.0063
2457.00,0.0063
2456.00,0.0063
2455.00,0.0063
2454.00,0.0063
2453.00,0.0062
2452.00,0.0062
2451.00,0.0061
2450.00,0.0062
2449.00,0.0062
2448.00,0.0062
2447.00,0.0062
2446.00,0.0062
2445.00,0.0062
2444.00,0.0062
2443.00,0.0062
2442.00,0.0062
2441.00,0.0061
2440.00,0.0061
2439.00,0.0061
2438.00,0.0061
2437.00,0.0061
2436.00,0.0061
2435.00,0.0061
2434.00,0.0061
2433.00,0.0060
2432.00,0.0060
2431.00,0.0060
2430.00,0.0060
2429.00,0.0060
2428.00,0.0060
2427.00,0.0060
2426.00,0.0060
2425.00,0.0060
2424.00,0.0059
2423.00,0.0059
2422.00,0.0059
2421.00,0.0060
2420.00,0.0060
2419.00,0.0060
2418.00,0.0060
2417.00,0.0060
2416.00,0.0059
2415.00,0.0059
2414.00,0.0059
2413.00,0.0059
2412.00,0.0060
2411.00,0.0060
2410.00,0.0059
2409.00,0.0059
2408.00,0.0058
2407.00,0.0058
2406.00,0.0058
2405.00,0.0058
2404.00,0.0058
2403.00,0.0058
2402.00,0.0058
2401.00,0.0057
2400.00,0.0057
2399.00,0.0057
2398.00,0.0057
2397.00,0.0057
2396.00,0.0057
2395.00,0.0057
2394.00,0.0057
2393.00,0.0057
2392.00,0.0057
2391.00,0.0057
2390.00,0.0057
2389.00,0.0056
2388.00,0.0056
2387.00,0.0055
2386.00,0.0054
2385.00,0.0054
2384.00,0.0053
2383.00,0.0052
2382.00,0.0052
2381.00,0.0052
2380.00,0.0052
2379.00,0.0053
2378.00,0.0053
2377.00,0.0053
2376.00,0.0053
2375.00,0.0053
2374.00,0.0052
2373.00,0.0052
2372.00,0.0052
2371.00,0.0052
2370.00,0.0052
2369.00,0.0052
2368.00,0.0052
2367.00,0.0052
2366.00,0.0052
2365.00,0.0052
2364.00,0.0052
2363.00,0.0052
2362.00,0.0052
2361.00,0.0052
2360.00,0.0052
2359.00,0.0052
2358.00,0.0052
2357.00,0.0053
2356.00,0.0053
2355.00,0.0053
2354.00,0.0053
2353.00,0.0053
2352.00,0.0053
2351.00,0.0053
2350.00,0.0053
2349.00,0.0053
2348.00,0.0052
2347.00,0.0053
2346.00,0.0053
2345.00,0.0054
2344.00,0.0055
2343.00,0.0056
2342.00,0.0056
2341.00,0.0057
2340.00,0.0057
2339.00,0.0057
2338.00,0.0057
2337.00,0.0058
2336.00,0.0058
2335.00,0.0058
2334.00,0.0057
2333.00,0.0057
2332.00,0.0057
2331.00,0.0057
2330.00,0.0058
2329.00,0.0061
2328.00,0.0064
2327.00,0.0068
2326.00,0.0070
2325.00,0.0071
2324.00,0.0070
2323.00,0.0068
2322.00,0.0067
2321.00,0.0066
2320.00,0.0065
2319.00,0.0065
2318.00,0.0064
2317.00,0.0063
2316.00,0.0062
2315.00,0.0061
2314.00,0.0060
2313.00,0.0060
2312.00,0.0060
2311.00,0.0060
2310.00,0.0060
2309.00,0.0060
2308.00,0.0061
2307.00,0.0061
2306.00,0.0061
2305.00,0.0061
2304.00,0.0061
2303.00,0.0061
2302.00,0.0061
2301.00,0.0061
2300.00,0.0061
2299.00,0.0062
2298.00,0.0062
2297.00,0.0062
2296.00,0.0063
2295.00,0.0064
2294.00,0.0064
2293.00,0.0065
2292.00,0.0067
2291.00,0.0067
2290.00,0.0068
2289.00,0.0068
2288.00,0.0068
2287.00,0.0068
2286.00,0.0067
2285.00,0.0067
2284.00,0.0066
2283.00,0.0065
2282.00,0.0064
2281.00,0.0064
2280.00,0.0063
2279.00,0.0063
2278.00,0.0062
2277.00,0.0062
2276.00,0.0062
2275.00,0.0063
2274.00,0.0062
2273.00,0.0062
2272.00,0.0062
2271.00,0.0062
2270.00,0.0061
2269.00,0.0061
2268.00,0.0060
2267.00,0.0060
2266.00,0.0059
2265.00,0.0059
2264.00,0.0059
2263.00,0.0059
2262.00,0.0059
2261.00,0.0059
2260.00,0.0059
2259.00,0.0059
2258.00,0.0059
2257.00,0.0058
2256.00,0.0057
2255.00,0.0057
2254.00,0.0057
2253.00,0.0058
2252.00,0.0058
2251.00,0.0059
2250.00,0.0059
2249.00,0.0059
2248.00,0.0059
2247.00,0.0058
2246.00,0.0058
2245.00,0.0058
2244.00,0.0059
2243.00,0.0059
2242.00,0.0060
2241.00,0.0060
2240.00,0.0060
2239.00,0.0060
2238.00,0.0059
2237.00,0.0058
2236.00,0.0058
2235.00,0.0058
2234.00,0.0059
2233.00,0.0059
2232.00,0.0059
2231.00,0.0059
2230.00,0.0059
2229.00,0.0058
2228.00,0.0058
2227.00,0.0058
2226.00,0.0058
2225.00,0.0058
2224.00,0.0058
2223.00,0.0058
2222.00,0.0058
2221.00,0.0058
2220.00,0.0058
2219.00,0.0058
2218.00,0.0058
2217.00,0.0059
2216.00,0.0059
2215.00,0.0059
2214.00,0.0058
2213.00,0.0057
2212.00,0.0057
2211.00,0.0057
2210.00,0.0056
2209.00,0.0056
2208.00,0.0055
2207.00,0.0054
2206.00,0.0054
2205.00,0.0055
2204.00,0.0056
2203.00,0.0057
2202.00,0.0057
2201.00,0.0057
2200.00,0.0057
2199.00,0.0057
2198.00,0.0057
2197.00,0.0057
2196.00,0.0059
2195.00,0.0060
2194.00,0.0061
2193.00,0.0062
2192.00,0.0063
2191.00,0.0063
2190.00,0.0062
2189.00,0.0061
2188.00,0.0061
2187.00,0.0061
2186.00,0.0060
2185.00,0.0059
2184.00,0.0057
2183.00,0.0054
2182.00,0.0053
2181.00,0.0053
2180.00,0.0054
2179.00,0.0053
2178.00,0.0051
2177.00,0.0049
2176.00,0.0049
2175.00,0.0050
2174.00,0.0052
2173.00,0.0056
2172.00,0.0060
2171.00,0.0062
2170.00,0.0063
2169.00,0.0063
2168.00,0.0064
2167.00,0.0064
2166.00,0.0064
2165.00,0.0066
2164.00,0.0068
2163.00,0.0068
2162.00,0.0062
2161.00,0.0051
2160.00,0.0036
2159.00,0.0025
2158.00,0.0020
2157.00,0.0022
2156.00,0.0027
2155.00,0.0030
2154.00,0.0033
2153.00,0.0034
2152.00,0.0036
2151.00,0.0037
2150.00,0.0038
2149.00,0.0038
2148.00,0.0037
2147.00,0.0035
2146.00,0.0034
2145.00,0.0035
2144.00,0.0037
2143.00,0.0039
2142.00,0.0039
2141.00,0.0039
2140.00,0.0039
2139.00,0.0038
2138.00,0.0037
2137.00,0.0035
2136.00,0.0035
2135.00,0.0035
2134.00,0.0035
2133.00,0.0037
2132.00,0.0038
2131.00,0.0039
2130.00,0.0041
2129.00,0.0042
2128.00,0.0044
2127.00,0.0045
2126.00,0.0045
2125.00,0.0046
2124.00,0.0047
2123.00,0.0047
2122.00,0.0047
2121.00,0.0047
2120.00,0.0049
2119.00,0.0050
2118.00,0.0052
2117.00,0.0053
2116.00,0.0054
2115.00,0.0054
2114.00,0.0054
2113.00,0.0054
2112.00,0.0054
2111.00,0.0053
2110.00,0.0052
2109.00,0.0052
2108.00,0.0052
2107.00,0.0053
2106.00,0.0052
2105.00,0.0052
2104.00,0.0052
2103.00,0.0052
2102.00,0.0052
2101.00,0.0052
2100.00,0.0052
2099.00,0.0052
2098.00,0.0051
2097.00,0.0049
2096.00,0.0048
2095.00,0.0047
2094.00,0.0047
2093.00,0.0049
2092.00,0.0050
2091.00,0.0051
2090.00,0.0051
2089.00,0.0052
2088.00,0.0052
2087.00,0.0052
2086.00,0.0052
2085.00,0.0052
2084.00,0.0053
2083.00,0.0054
2082.00,0.0054
2081.00,0.0054
2080.00,0.0055
2079.00,0.0055
2078.00,0.0055
2077.00,0.0054
2076.00,0.0053
2075.00,0.0052
2074.00,0.0051
2073.00,0.0051
2072.00,0.0052
2071.00,0.0052
2070.00,0.0053
2069.00,0.0052
2068.00,0.0052
2067.00,0.0052
2066.00,0.0051
2065.00,0.0051
2064.00,0.0051
2063.00,0.0050
2062.00,0.0049
2061.00,0.0049
2060.00,0.0049
2059.00,0.0050
2058.00,0.0051
2057.00,0.0051
2056.00,0.0051
2055.00,0.0051
2054.00,0.0054
2053.00,0.0058
2052.00,0.0061
2051.00,0.0062
2050.00,0.0059
2049.00,0.0056
2048.00,0.0053
2047.00,0.0052
2046.00,0.0051
2045.00,0.0051
2044.00,0.0051
2043.00,0.0052
2042.00,0.0051
2041.00,0.0051
2040.00,0.0052
2039.00,0.0052
2038.00,0.0052
2037.00,0.0051
2036.00,0.0050
2035.00,0.0049
2034.00,0.0046
2033.00,0.0044
2032.00,0.0043
2031.00,0.0041
2030.00,0.0040
2029.00,0.0040
2028.00,0.0040
2027.00,0.0040
2026.00,0.0040
2025.00,0.0041
2024.00,0.0043
2023.00,0.0044
2022.00,0.0044
2021.00,0.0043
2020.00,0.0042
2019.00,0.0041
2018.00,0.0039
2017.00,0.0039
2016.00,0.0041
2015.00,0.0042
2014.00,0.0042
2013.00,0.0042
2012.00,0.0044
2011.00,0.0044
2010.00,0.0044
2009.00,0.0042
2008.00,0.0040
2007.00,0.0037
2006.00,0.0035
2005.00,0.0034
2004.00,0.0036
2003.00,0.0038
2002.00,0.0039
2001.00,0.0040
2000.00,0.0040
1999.00,0.0041
1998.00,0.0042
1997.00,0.0044
1996.00,0.0045
1995.00,0.0046
1994.00,0.0046
1993.00,0.0047
1992.00,0.0048
1991.00,0.0049
1990.00,0.0048
1989.00,0.0048
1988.00,0.0048
1987.00,0.0048
1986.00,0.0049
1985.00,0.0050
1984.00,0.0053
1983.00,0.0056
1982.00,0.0058
1981.00,0.0059
1980.00,0.0056
1979.00,0.0050
1978.00,0.0043
1977.00,0.0039
1976.00,0.0038
1975.00,0.0038
1974.00,0.0038
1973.00,0.0037
1972.00,0.0036
1971.00,0.0035
1970.00,0.0035
1969.00,0.0036
1968.00,0.0039
1967.00,0.0040
1966.00,0.0041
1965.00,0.0041
1964.00,0.0042
1963.00,0.0042
1962.00,0.0040
1961.00,0.0039
1960.00,0.0037
1959.00,0.0036
1958.00,0.0035
1957.00,0.0035
1956.00,0.0037
1955.00,0.0039
1954.00,0.0040
1953.00,0.0041
1952.00,0.0042
1951.00,0.0042
1950.00,0.0041
1949.00,0.0042
1948.00,0.0043
1947.00,0.0044
1946.00,0.0043
1945.00,0.0042
1944.00,0.0042
1943.00,0.0041
1942.00,0.0041
1941.00,0.0041
1940.00,0.0041
1939.00,0.0042
1938.00,0.0041
1937.00,0.0042
1936.00,0.0042
1935.00,0.0042
1934.00,0.0042
1933.00,0.0042
1932.00,0.0042
1931.00,0.0043
1930.00,0.0042
1929.00,0.0042
1928.00,0.0043
1927.00,0.0043
1926.00,0.0043
1925.00,0.0044
1924.00,0.0045
1923.00,0.0046
1922.00,0.0046
1921.00,0.0047
1920.00,0.0047
1919.00,0.0048
1918.00,0.0048
1917.00,0.0047
1916.00,0.0047
1915.00,0.0046
1914.00,0.0046
1913.00,0.0046
1912.00,0.0046
1911.00,0.0046
1910.00,0.0046
1909.00,0.0045
1908.00,0.0046
1907.00,0.0046
1906.00,0.0046
1905.00,0.0046
1904.00,0.0046
1903.00,0.0046
1902.00,0.0045
1901.00,0.0045
1900.00,0.0046
1899.00,0.0047
1898.00,0.0047
1897.00,0.0047
1896.00,0.0047
1895.00,0.0046
1894.00,0.0046
1893.00,0.0046
1892.00,0.0046
1891.00,0.0046
1890.00,0.0046
1889.00,0.0046
1888.00,0.0046
1887.00,0.0046
1886.00,0.0046
1885.00,0.0046
1884.00,0.0046
1883.00,0.0046
1882.00,0.0046
1881.00,0.0046
1880.00,0.0046
1879.00,0.0046
1878.00,0.0045
1877.00,0.0045
1876.00,0.0046
1875.00,0.0046
1874.00,0.0046
1873.00,0.0046
1872.00,0.0047
1871.00,0.0047
1870.00,0.0047
1869.00,0.0047
1868.00,0.0047
1867.00,0.0046
1866.00,0.0045
1865.00,0.0045
1864.00,0.0046
1863.00,0.0046
1862.00,0.0046
1861.00,0.0046
1860.00,0.0047
1859.00,0.0047
1858.00,0.0046
1857.00,0.0046
1856.00,0.0047
1855.00,0.0047
1854.00,0.0047
1853.00,0.0047
1852.00,0.0047
1851.00,0.0047
1850.00,0.0046
1849.00,0.0047
1848.00,0.0048
1847.00,0.0048
1846.00,0.0048
1845.00,0.0048
1844.00,0.0048
1843.00,0.0048
1842.00,0.0048
1841.00,0.0047
1840.00,0.0047
1839.00,0.0047
1838.00,0.0046
1837.00,0.0046
1836.00,0.0047
1835.00,0.0047
1834.00,0.0048
1833.00,0.0048
1832.00,0.0048
1831.00,0.0049
1830.00,0.0048
1829.00,0.0048
1828.00,0.0048
1827.00,0.0048
1826.00,0.0047
1825.00,0.0047
1824.00,0.0047
1823.00,0.0047
1822.00,0.0047
1821.00,0.0046
1820.00,0.0046
1819.00,0.0045
1818.00,0.0044
1817.00,0.0043
1816.00,0.0044
1815.00,0.0045
1814.00,0.0045
1813.00,0.0046
1812.00,0.0046
1811.00,0.0046
1810.00,0.0046
1809.00,0.0047
1808.00,0.0047
1807.00,0.0047
1806.00,0.0046
1805.00,0.0046
1804.00,0.0047
1803.00,0.0047
1802.00,0.0047
1801.00,0.0047
1800.00,0.0048
1799.00,0.0048
1798.00,0.0048
1797.00,0.0048
1796.00,0.0049
1795.00,0.0049
1794.00,0.0049
1793.00,0.0049
1792.00,0.0049
1791.00,0.0049
1790.00,0.0048
1789.00,0.0048
1788.00,0.0049
1787.00,0.0049
1786.00,0.0049
1785.00,0.0049
1784.00,0.0050
1783.00,0.0050
1782.00,0.0050
1781.00,0.0050
1780.00,0.0051
1779.00,0.0051
1778.00,0.0051
1777.00,0.0051
1776.00,0.0052
1775.00,0.0053
1774.00,0.0053
1773.00,0.0054
1772.00,0.0055
1771.00,0.0054
1770.00,0.0054
1769.00,0.0053
1768.00,0.0054
1767.00,0.0054
1766.00,0.0054
1765.00,0.0054
1764.00,0.0055
1763.00,0.0055
1762.00,0.0055
1761.00,0.0055
1760.00,0.0056
1759.00,0.0056
1758.00,0.0056
1757.00,0.0056
1756.00,0.0057
1755.00,0.0058
1754.00,0.0058
1753.00,0.0059
1752.00,0.0060
1751.00,0.0061
1750.00,0.0061
1749.00,0.0061
1748.00,0.0062
1747.00,0.0062
1746.00,0.0063
1745.00,0.0063
1744.00,0.0065
1743.00,0.0065
1742.00,0.0066
1741.00,0.0066
1740.00,0.0068
1739.00,0.0070
1738.00,0.0070
1737.00,0.0071
1736.00,0.0073
1735.00,0.0074
1734.00,0.0076
1733.00,0.0077
1732.00,0.0079
1731.00,0.0080
1730.00,0.0081
1729.00,0.0082
1728.00,0.0085
1727.00,0.0087
1726.00,0.0089
1725.00,0.0092
1724.00,0.0096
1723.00,0.0100
1722.00,0.0103
1721.00,0.0107
1720.00,0.0112
1719.00,0.0117
1718.00,0.0122
1717.00,0.0129
1716.00,0.0136
1715.00,0.0143
1714.00,0.0150
1713.00,0.0158
1712.00,0.0168
1711.00,0.0179
1710.00,0.0191
1709.00,0.0204
1708.00,0.0220
1707.00,0.0238
1706.00,0.0259
1705.00,0.0283
1704.00,0.0306
1703.00,0.0328
1702.00,0.0353
1701.00,0.0392
1700.00,0.0441
1699.00,0.0484
1698.00,0.0519
1697.00,0.0559
1696.00,0.0613
1695.00,0.0672
1694.00,0.0724
1693.00,0.0768
1692.00,0.0813
1691.00,0.0864
1690.00,0.0918
1689.00,0.0972
1688.00,0.1020
1687.00,0.1062
1686.00,0.1107
1685.00,0.1168
1684.00,0.1239
1683.00,0.1298
1682.00,0.1336
1681.00,0.1366
1680.00,0.1395
1679.00,0.1423
1678.00,0.1446
1677.00,0.1468
1676.00,0.1495
1675.00,0.1524
1674.00,0.1544
1673.00,0.1554
1672.00,0.1560
1671.00,0.1567
1670.00,0.1577
1669.00,0.1589
1668.00,0.1597
1667.00,0.1598
1666.00,0.1596
1665.00,0.1593
1664.00,0.1596
1663.00,0.1602
1662.00,0.1610
1661.00,0.1613
1660.00,0.1612
1659.00,0.1609
1658.00,0.1604
1657.00,0.1594
1656.00,0.1581
1655.00,0.1568
1654.00,0.1562
1653.00,0.1561
1652.00,0.1552
1651.00,0.1526
1650.00,0.1491
1649.00,0.1453
1648.00,0.1415
1647.00,0.1376
1646.00,0.1335
1645.00,0.1291
1644.00,0.1244
1643.00,0.1196
1642.00,0.1148
1641.00,0.1101
1640.00,0.1055
1639.00,0.1010
1638.00,0.0967
1637.00,0.0925
1636.00,0.0883
1635.00,0.0844
1634.00,0.0809
1633.00,0.0775
1632.00,0.0744
1631.00,0.0715
1630.00,0.0690
1629.00,0.0668
1628.00,0.0651
1627.00,0.0639
1626.00,0.0632
1625.00,0.0628
1624.00,0.0630
1623.00,0.0637
1622.00,0.0645
1621.00,0.0649
1620.00,0.0649
1619.00,0.0646
1618.00,0.0640
1617.00,0.0632
1616.00,0.0620
1615.00,0.0605
1614.00,0.0590
1613.00,0.0574
1612.00,0.0560
1611.00,0.0548
1610.00,0.0535
1609.00,0.0521
1608.00,0.0504
1607.00,0.0484
1606.00,0.0463
1605.00,0.0440
1604.00,0.0416
1603.00,0.0394
1602.00,0.0374
1601.00,0.0355
1600.00,0.0339
1599.00,0.0326
1598.00,0.0316
1597.00,0.0309
1596.00,0.0304
1595.00,0.0303
1594.00,0.0307
1593.00,0.0314
1592.00,0.0324
1591.00,0.0339
1590.00,0.0356
1589.00,0.0373
1588.00,0.0390
1587.00,0.0403
1586.00,0.0410
1585.00,0.0412
1584.00,0.0406
1583.00,0.0396
1582.00,0.0382
1581.00,0.0366
1580.00,0.0349
1579.00,0.0334
1578.00,0.0319
1577.00,0.0305
1576.00,0.0293
1575.00,0.0283
1574.00,0.0275
1573.00,0.0267
1572.00,0.0260
1571.00,0.0254
1570.00,0.0248
1569.00,0.0242
1568.00,0.0236
1567.00,0.0230
1566.00,0.0225
1565.00,0.0220
1564.00,0.0217
1563.00,0.0213
1562.00,0.0211
1561.00,0.0208
1560.00,0.0205
1559.00,0.0203
1558.00,0.0200
1557.00,0.0195
1556.00,0.0191
1555.00,0.0187
1554.00,0.0184
1553.00,0.0182
1552.00,0.0179
1551.00,0.0177
1550.00,0.0175
1549.00,0.0173
1548.00,0.0172
1547.00,0.0171
1546.00,0.0171
1545.00,0.0170
1544.00,0.0170
1543.00,0.0169
1542.00,0.0168
1541.00,0.0167
1540.00,0.0166
1539.00,0.0165
1538.00,0.0163
1537.00,0.0162
1536.00,0.0161
1535.00,0.0160
1534.00,0.0159
1533.00,0.0159
1532.00,0.0159
1531.00,0.0158
1530.00,0.0158
1529.00,0.0159
1528.00,0.0160
1527.00,0.0161
1526.00,0.0163
1525.00,0.0165
1524.00,0.0167
1523.00,0.0168
1522.00,0.0171
1521.00,0.0175
1520.00,0.0178
1519.00,0.0181
1518.00,0.0183
1517.00,0.0185
1516.00,0.0187
1515.00,0.0189
1514.00,0.0190
1513.00,0.0192
1512.00,0.0195
1511.00,0.0198
1510.00,0.0201
1509.00,0.0204
1508.00,0.0208
1507.00,0.0215
1506.00,0.0225
1505.00,0.0235
1504.00,0.0244
1503.00,0.0255
1502.00,0.0269
1501.00,0.0286
1500.00,0.0307
1499.00,0.0328
1498.00,0.0351
1497.00,0.0372
1496.00,0.0390
1495.00,0.0402
1494.00,0.0407
1493.00,0.0407
1492.00,0.0402
1491.00,0.0393
1490.00,0.0380
1489.00,0.0363
1488.00,0.0344
1487.00,0.0323
1486.00,0.0304
1485.00,0.0286
1484.00,0.0270
1483.00,0.0257
1482.00,0.0245
1481.00,0.0237
1480.00,0.0232
1479.00,0.0228
1478.00,0.0228
1477.00,0.0232
1476.00,0.0237
1475.00,0.0246
1474.00,0.0259
1473.00,0.0279
1472.00,0.0304
1471.00,0.0333
1470.00,0.0362
1469.00,0.0393
1468.00,0.0428
1467.00,0.0465
1466.00,0.0508
1465.00,0.0555
1464.00,0.0599
1463.00,0.0634
1462.00,0.0659
1461.00,0.0675
1460.00,0.0683
1459.00,0.0682
1458.00,0.0671
1457.00,0.0649
1456.00,0.0622
1455.00,0.0593
1454.00,0.0567
1453.00,0.0545
1452.00,0.0528
1451.00,0.0518
1450.00,0.0514
1449.00,0.0519
1448.00,0.0530
1447.00,0.0546
1446.00,0.0566
1445.00,0.0588
1444.00,0.0613
1443.00,0.0640
1442.00,0.0669
1441.00,0.0697
1440.00,0.0724
1439.00,0.0750
1438.00,0.0778
1437.00,0.0813
1436.00,0.0847
1435.00,0.0873
1434.00,0.0891
1433.00,0.0906
1432.00,0.0921
1431.00,0.0936
1430.00,0.0952
1429.00,0.0971
1428.00,0.0993
1427.00,0.1016
1426.00,0.1043
1425.00,0.1075
1424.00,0.1107
1423.00,0.1132
1422.00,0.1146
1421.00,0.1148
1420.00,0.1138
1419.00,0.1111
1418.00,0.1070
1417.00,0.1019
1416.00,0.0962
1415.00,0.0902
1414.00,0.0844
1413.00,0.0790
1412.00,0.0742
1411.00,0.0700
1410.00,0.0666
1409.00,0.0640
1408.00,0.0620
1407.00,0.0605
1406.00,0.0594
1405.00,0.0587
1404.00,0.0581
1403.00,0.0575
1402.00,0.0567
1401.00,0.0556
1400.00,0.0541
1399.00,0.0523
1398.00,0.0502
1397.00,0.0480
1396.00,0.0457
1395.00,0.0434
1394.00,0.0414
1393.00,0.0398
1392.00,0.0385
1391.00,0.0375
1390.00,0.0369
1389.00,0.0367
1388.00,0.0368
1387.00,0.0372
1386.00,0.0379
1385.00,0.0388
1384.00,0.0398
1383.00,0.0409
1382.00,0.0422
1381.00,0.0435
1380.00,0.0446
1379.00,0.0456
1378.00,0.0464
1377.00,0.0469
1376.00,0.0471
1375.00,0.0472
1374.00,0.0472
1373.00,0.0471
1372.00,0.0467
1371.00,0.0463
1370.00,0.0458
1369.00,0.0452
1368.00,0.0447
1367.00,0.0441
1366.00,0.0437
1365.00,0.0434
1364.00,0.0432
1363.00,0.0431
1362.00,0.0429
1361.00,0.0425
1360.00,0.0418
1359.00,0.0407
1358.00,0.0392
1357.00,0.0376
1356.00,0.0359
1355.00,0.0342
1354.00,0.0328
1353.00,0.0316
1352.00,0.0307
1351.00,0.0299
1350.00,0.0294
1349.00,0.0290
1348.00,0.0286
1347.00,0.0283
1346.00,0.0281
1345.00,0.0279
1344.00,0.0277
1343.00,0.0276
1342.00,0.0275
1341.00,0.0275
1340.00,0.0276
1339.00,0.0277
1338.00,0.0279
1337.00,0.0282
1336.00,0.0285
1335.00,0.0288
1334.00,0.0293
1333.00,0.0297
1332.00,0.0302
1331.00,0.0308
1330.00,0.0316
1329.00,0.0323
1328.00,0.0332
1327.00,0.0342
1326.00,0.0353
1325.00,0.0366
1324.00,0.0378
1323.00,0.0392
1322.00,0.0405
1321.00,0.0418
1320.00,0.0429
1319.00,0.0438
1318.00,0.0445
1317.00,0.0449
1316.00,0.0449
1315.00,0.0447
1314.00,0.0443
1313.00,0.0437
1312.00,0.0430
1311.00,0.0423
1310.00,0.0418
1309.00,0.0415
1308.00,0.0413
1307.00,0.0414
1306.00,0.0418
1305.00,0.0423
1304.00,0.0431
1303.00,0.0443
1302.00,0.0458
1301.00,0.0478
1300.00,0.0504
1299.00,0.0536
1298.00,0.0575
1297.00,0.0621
1296.00,0.0673
1295.00,0.0732
1294.00,0.0794
1293.00,0.0860
1292.00,0.0926
1291.00,0.0991
1290.00,0.1052
1289.00,0.1107
1288.00,0.1155
1287.00,0.1193
1286.00,0.1219
1285.00,0.1233
1284.00,0.1234
1283.00,0.1224
1282.00,0.1205
1281.00,0.1181
1280.00,0.1156
1279.00,0.1134
1278.00,0.1117
1277.00,0.1107
1276.00,0.1103
1275.00,0.1106
1274.00,0.1113
1273.00,0.1120
1272.00,0.1126
1271.00,0.1127
1270.00,0.1122
1269.00,0.1110
1268.00,0.1090
1267.00,0.1063
1266.00,0.1030
1265.00,0.0994
1264.00,0.0954
1263.00,0.0913
1262.00,0.0872
1261.00,0.0832
1260.00,0.0793
1259.00,0.0756
1258.00,0.0722
1257.00,0.0690
1256.00,0.0660
1255.00,0.0634
1254.00,0.0611
1253.00,0.0591
1252.00,0.0573
1251.00,0.0558
1250.00,0.0547
1249.00,0.0540
1248.00,0.0535
1247.00,0.0533
1246.00,0.0534
1245.00,0.0538
1244.00,0.0544
1243.00,0.0550
1242.00,0.0558
1241.00,0.0565
1240.00,0.0571
1239.00,0.0577
1238.00,0.0583
1237.00,0.0588
1236.00,0.0593
1235.00,0.0598
1234.00,0.0603
1233.00,0.0607
1232.00,0.0610
1231.00,0.0611
1230.00,0.0612
1229.00,0.0611
1228.00,0.0609
1227.00,0.0606
1226.00,0.0604
1225.00,0.0601
1224.00,0.0598
1223.00,0.0596
1222.00,0.0594
1221.00,0.0591
1220.00,0.0588
1219.00,0.0585
1218.00,0.0579
1217.00,0.0572
1216.00,0.0562
1215.00,0.0550
1214.00,0.0536
1213.00,0.0520
1212.00,0.0504
1211.00,0.0488
1210.00,0.0473
1209.00,0.0459
1208.00,0.0447
1207.00,0.0438
1206.00,0.0430
1205.00,0.0424
1204.00,0.0421
1203.00,0.0420
1202.00,0.0421
1201.00,0.0425
1200.00,0.0431
1199.00,0.0438
1198.00,0.0446
1197.00,0.0454
1196.00,0.0461
1195.00,0.0466
1194.00,0.0468
1193.00,0.0466
1192.00,0.0459
1191.00,0.0449
1190.00,0.0437
1189.00,0.0424
1188.00,0.0410
1187.00,0.0397
1186.00,0.0386
1185.00,0.0376
1184.00,0.0368
1183.00,0.0361
1182.00,0.0356
1181.00,0.0353
1180.00,0.0351
1179.00,0.0350
1178.00,0.0351
1177.00,0.0352
1176.00,0.0355
1175.00,0.0358
1174.00,0.0362
1173.00,0.0367
1172.00,0.0372
1171.00,0.0376
1170.00,0.0380
1169.00,0.0383
1168.00,0.0385
1167.00,0.0387
1166.00,0.0389
1165.00,0.0391
1164.00,0.0394
1163.00,0.0397
1162.00,0.0403
1161.00,0.0410
1160.00,0.0417
1159.00,0.0424
1158.00,0.0430
1157.00,0.0432
1156.00,0.0430
1155.00,0.0424
1154.00,0.0415
1153.00,0.0403
1152.00,0.0388
1151.00,0.0372
1150.00,0.0356
1149.00,0.0340
1148.00,0.0324
1147.00,0.0310
1146.00,0.0297
1145.00,0.0286
1144.00,0.0276
1143.00,0.0268
1142.00,0.0262
1141.00,0.0257
1140.00,0.0254
1139.00,0.0254
1138.00,0.0256
1137.00,0.0262
1136.00,0.0271
1135.00,0.0284
1134.00,0.0302
1133.00,0.0322
1132.00,0.0341
1131.00,0.0357
1130.00,0.0368
1129.00,0.0370
1128.00,0.0363
1127.00,0.0351
1126.00,0.0334
1125.00,0.0317
1124.00,0.0301
1123.00,0.0287
1122.00,0.0277
1121.00,0.0269
1120.00,0.0263
1119.00,0.0259
1118.00,0.0256
1117.00,0.0255
1116.00,0.0254
1115.00,0.0254
1114.00,0.0255
1113.00,0.0256
1112.00,0.0257
1111.00,0.0259
1110.00,0.0261
1109.00,0.0264
1108.00,0.0266
1107.00,0.0269
1106.00,0.0274
1105.00,0.0280
1104.00,0.0286
1103.00,0.0292
1102.00,0.0299
1101.00,0.0303
1100.00,0.0304
1099.00,0.0303
1098.00,0.0300
1097.00,0.0296
1096.00,0.0290
1095.00,0.0283
1094.00,0.0277
1093.00,0.0272
1092.00,0.0266
1091.00,0.0262
1090.00,0.0258
1089.00,0.0255
1088.00,0.0253
1087.00,0.0252
1086.00,0.0251
1085.00,0.0252
1084.00,0.0253
1083.00,0.0255
1082.00,0.0258
1081.00,0.0262
1080.00,0.0267
1079.00,0.0271
1078.00,0.0277
1077.00,0.0283
1076.00,0.0289
1075.00,0.0296
1074.00,0.0303
1073.00,0.0310
1072.00,0.0318
1071.00,0.0327
1070.00,0.0338
1069.00,0.0351
1068.00,0.0365
1067.00,0.0383
1066.00,0.0404
1065.00,0.0428
1064.00,0.0453
1063.00,0.0479
1062.00,0.0506
1061.00,0.0531
1060.00,0.0551
1059.00,0.0566
1058.00,0.0574
1057.00,0.0572
1056.00,0.0561
1055.00,0.0542
1054.00,0.0518
1053.00,0.0489
1052.00,0.0460
1051.00,0.0433
1050.00,0.0410
1049.00,0.0392
1048.00,0.0377
1047.00,0.0368
1046.00,0.0362
1045.00,0.0359
1044.00,0.0357
1043.00,0.0358
1042.00,0.0360
1041.00,0.0363
1040.00,0.0366
1039.00,0.0369
1038.00,0.0372
1037.00,0.0374
1036.00,0.0376
1035.00,0.0379
1034.00,0.0383
1033.00,0.0386
1032.00,0.0389
1031.00,0.0390
1030.00,0.0389
1029.00,0.0385
1028.00,0.0378
1027.00,0.0370
1026.00,0.0362
1025.00,0.0355
1024.00,0.0349
1023.00,0.0345
1022.00,0.0343
1021.00,0.0343
1020.00,0.0343
1019.00,0.0342
1018.00,0.0341
1017.00,0.0338
1016.00,0.0333
1015.00,0.0326
1014.00,0.0318
1013.00,0.0309
1012.00,0.0300
1011.00,0.0292
1010.00,0.0287
1009.00,0.0285
1008.00,0.0285
1007.00,0.0288
1006.00,0.0293
1005.00,0.0299
1004.00,0.0305
1003.00,0.0310
1002.00,0.0313
1001.00,0.0313
1000.00,0.0310
999.00,0.0306
998.00,0.0301
997.00,0.0296
996.00,0.0290
995.00,0.0284
994.00,0.0278
993.00,0.0272
992.00,0.0266
991.00,0.0261
990.00,0.0255
989.00,0.0250
988.00,0.0244
987.00,0.0239
986.00,0.0234
985.00,0.0230
984.00,0.0226
983.00,0.0222
982.00,0.0220
981.00,0.0218
980.00,0.0216
979.00,0.0214
978.00,0.0213
977.00,0.0212
976.00,0.0210
975.00,0.0209
974.00,0.0207
973.00,0.0204
972.00,0.0201
971.00,0.0199
970.00,0.0196
969.00,0.0194
968.00,0.0191
967.00,0.0188
966.00,0.0186
965.00,0.0185
964.00,0.0183
963.00,0.0181
962.00,0.0180
961.00,0.0178
960.00,0.0176
959.00,0.0174
958.00,0.0173
957.00,0.0171
956.00,0.0169
955.00,0.0168
954.00,0.0167
953.00,0.0167
952.00,0.0166
951.00,0.0165
950.00,0.0165
949.00,0.0165
948.00,0.0165
947.00,0.0165
946.00,0.0167
945.00,0.0169
944.00,0.0172
943.00,0.0175
942.00,0.0179
941.00,0.0184
940.00,0.0191
939.00,0.0198
938.00,0.0207
937.00,0.0217
936.00,0.0227
935.00,0.0236
934.00,0.0243
933.00,0.0248
932.00,0.0249
931.00,0.0248
930.00,0.0245
929.00,0.0241
928.00,0.0238
927.00,0.0236
926.00,0.0235
925.00,0.0234
924.00,0.0232
923.00,0.0229
922.00,0.0226
921.00,0.0223
920.00,0.0219
919.00,0.0216
918.00,0.0213
917.00,0.0210
916.00,0.0207
915.00,0.0204
914.00,0.0201
913.00,0.0199
912.00,0.0197
911.00,0.0196
910.00,0.0197
909.00,0.0198
908.00,0.0200
907.00,0.0202
906.00,0.0207
905.00,0.0212
904.00,0.0217
903.00,0.0224
902.00,0.0232
901.00,0.0240
900.00,0.0246
899.00,0.0252
898.00,0.0257
897.00,0.0260
896.00,0.0260
895.00,0.0258
894.00,0.0255
893.00,0.0251
892.00,0.0246
891.00,0.0241
890.00,0.0237
889.00,0.0233
888.00,0.0230
887.00,0.0228
886.00,0.0227
885.00,0.0227
884.00,0.0228
883.00,0.0230
882.00,0.0232
881.00,0.0236
880.00,0.0239
879.00,0.0244
878.00,0.0251
877.00,0.0258
876.00,0.0265
875.00,0.0272
874.00,0.0280
873.00,0.0287
872.00,0.0292
871.00,0.0297
870.00,0.0301
869.00,0.0303
868.00,0.0304
867.00,0.0304
866.00,0.0305
865.00,0.0307
864.00,0.0308
863.00,0.0310
862.00,0.0313
861.00,0.0316
860.00,0.0319
859.00,0.0323
858.00,0.0328
857.00,0.0334
856.00,0.0340
855.00,0.0348
854.00,0.0357
853.00,0.0365
852.00,0.0373
851.00,0.0382
850.00,0.0391
849.00,0.0400
848.00,0.0407
847.00,0.0413
846.00,0.0418
845.00,0.0421
844.00,0.0422
843.00,0.0423
842.00,0.0423
841.00,0.0422
840.00,0.0420
839.00,0.0418
838.00,0.0416
837.00,0.0413
836.00,0.0410
835.00,0.0408
834.00,0.0406
833.00,0.0405
832.00,0.0403
831.00,0.0402
830.00,0.0400
829.00,0.0398
828.00,0.0395
827.00,0.0392
826.00,0.0390
825.00,0.0387
824.00,0.0384
823.00,0.0381
822.00,0.0380
821.00,0.0379
820.00,0.0378
819.00,0.0378
818.00,0.0378
817.00,0.0378
816.00,0.0376
815.00,0.0374
814.00,0.0371
813.00,0.0366
812.00,0.0358
811.00,0.0349
810.00,0.0339
809.00,0.0326
808.00,0.0312
807.00,0.0298
806.00,0.0284
805.00,0.0273
804.00,0.0262
803.00,0.0253
802.00,0.0247
801.00,0.0243
800.00,0.0240
799.00,0.0239
798.00,0.0238
797.00,0.0238
796.00,0.0237
795.00,0.0237
794.00,0.0238
793.00,0.0238
792.00,0.0238
791.00,0.0239
790.00,0.0240
789.00,0.0240
788.00,0.0240
787.00,0.0240
786.00,0.0240
785.00,0.0241
784.00,0.0241
783.00,0.0242
782.00,0.0244
781.00,0.0247
780.00,0.0249
779.00,0.0252
778.00,0.0256
777.00,0.0257
776.00,0.0257
775.00,0.0255
774.00,0.0253
773.00,0.0252
772.00,0.0251
771.00,0.0252
770.00,0.0253
769.00,0.0256
768.00,0.0258
767.00,0.0260
766.00,0.0264
765.00,0.0268
764.00,0.0271
763.00,0.0275
762.00,0.0281
761.00,0.0286
760.00,0.0291
759.00,0.0296
758.00,0.0302
757.00,0.0308
756.00,0.0313
755.00,0.0319
754.00,0.0325
753.00,0.0331
752.00,0.0337
751.00,0.0343
750.00,0.0349
749.00,0.0355
748.00,0.0361
747.00,0.0367
746.00,0.0374
745.00,0.0381
744.00,0.0388
743.00,0.0396
742.00,0.0407
741.00,0.0418
740.00,0.0429
739.00,0.0440
738.00,0.0450
737.00,0.0457
736.00,0.0460
735.00,0.0459
734.00,0.0455
733.00,0.0450
732.00,0.0442
731.00,0.0433
730.00,0.0423
729.00,0.0412
728.00,0.0401
727.00,0.0390
726.00,0.0380
725.00,0.0371
724.00,0.0362
723.00,0.0354
722.00,0.0347
721.00,0.0342
720.00,0.0336
719.00,0.0332
718.00,0.0329
717.00,0.0327
716.00,0.0325
715.00,0.0323
714.00,0.0323
713.00,0.0321
712.00,0.0320
711.00,0.0318
710.00,0.0316
709.00,0.0315
708.00,0.0313
707.00,0.0312
706.00,0.0312
705.00,0.0312
704.00,0.0313
703.00,0.0314
702.00,0.0315
701.00,0.0317
700.00,0.0319
699.00,0.0322
698.00,0.0327
697.00,0.0333
696.00,0.0340
695.00,0.0348
694.00,0.0356
693.00,0.0363
692.00,0.0368
691.00,0.0373
690.00,0.0377
689.00,0.0381
688.00,0.0383
687.00,0.0384
686.00,0.0385
685.00,0.0385
684.00,0.0385
683.00,0.0386
682.00,0.0388
681.00,0.0390
680.00,0.0392
679.00,0.0395
678.00,0.0399
677.00,0.0403
676.00,0.0408
675.00,0.0414
674.00,0.0420
673.00,0.0427
672.00,0.0433
671.00,0.0440
670.00,0.0449
669.00,0.0461
668.00,0.0477
667.00,0.0489
666.00,0.0494
665.00,0.0498
664.00,0.0504
663.00,0.0512
662.00,0.0523
661.00,0.0535
660.00,0.0547
659.00,0.0559
658.00,0.0572
657.00,0.0585
656.00,0.0597
655.00,0.0610
654.00,0.0623
653.00,0.0633
652.00,0.0642
651.00,0.0649
650.00,0.0655
649.00,0.0659
648.00,0.0661
647.00,0.0660
646.00,0.0657
645.00,0.0651
644.00,0.0643
643.00,0.0634
642.00,0.0625
641.00,0.0614
640.00,0.0603
639.00,0.0591
638.00,0.0580
637.00,0.0569
636.00,0.0558
635.00,0.0548
634.00,0.0540
633.00,0.0534
632.00,0.0527
631.00,0.0521
630.00,0.0517
629.00,0.0512
628.00,0.0507
627.00,0.0503
626.00,0.0501
625.00,0.0498
624.00,0.0494
623.00,0.0491
622.00,0.0488
621.00,0.0486
620.00,0.0482
619.00,0.0479
618.00,0.0477
617.00,0.0475
616.00,0.0473
615.00,0.0471
614.00,0.0471
613.00,0.0472
612.00,0.0472
611.00,0.0472
610.00,0.0474
609.00,0.0475
608.00,0.0476
607.00,0.0479
606.00,0.0482
605.00,0.0486
604.00,0.0488
603.00,0.0490
602.00,0.0493
601.00,0.0496
600.00,0.0497
599.00,0.0499
598.00,0.0500
597.00,0.0501
596.00,0.0500
595.00,0.0500
594.00,0.0502
593.00,0.0504
592.00,0.0507
591.00,0.0513
590.00,0.0522
589.00,0.0533
588.00,0.0545
587.00,0.0560
586.00,0.0579
585.00,0.0599
584.00,0.0616
583.00,0.0632
582.00,0.0646
581.00,0.0657
580.00,0.0665
579.00,0.0670
578.00,0.0676
577.00,0.0681
576.00,0.0684
575.00,0.0687
574.00,0.0690
573.00,0.0692
572.00,0.0691
571.00,0.0690
570.00,0.0690
569.00,0.0688
568.00,0.0683
567.00,0.0679
566.00,0.0674
565.00,0.0667
564.00,0.0658
563.00,0.0647
562.00,0.0639
561.00,0.0630
560.00,0.0620
559.00,0.0612
558.00,0.0606
557.00,0.0602
556.00,0.0595
555.00,0.0588
554.00,0.0581
553.00,0.0575
552.00,0.0567
551.00,0.0561
550.00,0.0557
549.00,0.0553
548.00,0.0547
547.00,0.0541
546.00,0.0536
545.00,0.0530
544.00,0.0524
543.00,0.0518
542.00,0.0514
541.00,0.0510
540.00,0.0506
539.00,0.0505
538.00,0.0508
537.00,0.0512
536.00,0.0515
535.00,0.0519
534.00,0.0524
533.00,0.0529
532.00,0.0530
531.00,0.0530
530.00,0.0529
529.00,0.0527
528.00,0.0521
527.00,0.0515
526.00,0.0510
525.00,0.0505
524.00,0.0498
523.00,0.0493
522.00,0.0491
521.00,0.0489
520.00,0.0485
519.00,0.0482
518.00,0.0482
517.00,0.0482
516.00,0.0479
515.00,0.0476
514.00,0.0476
513.00,0.0476
512.00,0.0474
511.00,0.0474
510.00,0.0476
509.00,0.0478
508.00,0.0479
507.00,0.0479
506.00,0.0481
505.00,0.0482
504.00,0.0480
503.00,0.0477
502.00,0.0477
501.00,0.0475
500.00,0.0472
499.00,0.0469
498.00,0.0469
497.00,0.0471
496.00,0.0471
495.00,0.0472
494.00,0.0476
493.00,0.0479
492.00,0.0479
491.00,0.0480
490.00,0.0483
489.00,0.0484
488.00,0.0483
487.00,0.0483
486.00,0.0487
485.00,0.0491
484.00,0.0491
483.00,0.0492
482.00,0.0494
481.00,0.0496
480.00,0.0495
479.00,0.0495
478.00,0.0499
477.00,0.0502
476.00,0.0504
475.00,0.0508
474.00,0.0516
473.00,0.0521
472.00,0.0518
471.00,0.0513
470.00,0.0510
469.00,0.0508
468.00,0.0504
467.00,0.0502
466.00,0.0503
465.00,0.0504
464.00,0.0500
463.00,0.0496
462.00,0.0493
461.00,0.0489
460.00,0.0482
459.00,0.0478
458.00,0.0480
457.00,0.0482
456.00,0.0477
455.00,0.0472
454.00,0.0472
453.00,0.0471
452.00,0.0467
451.00,0.0464
450.00,0.0465
449.00,0.0466
448.00,0.0462
447.00,0.0459
446.00,0.0462
445.00,0.0465
444.00,0.0462
443.00,0.0459
442.00,0.0459
441.00,0.0459
440.00,0.0455
439.00,0.0451
438.00,0.0450
437.00,0.0448
436.00,0.0440
435.00,0.0434
434.00,0.0436
433.00,0.0439
432.00,0.0436
431.00,0.0434
430.00,0.0438
429.00,0.0440
428.00,0.0438
427.00,0.0434
426.00,0.0435
425.00,0.0434
424.00,0.0428
423.00,0.0425
422.00,0.0432
421.00,0.0439
420.00,0.0436
419.00,0.0432
418.00,0.0437
417.00,0.0440
416.00,0.0438
415.00,0.0439
414.00,0.0452
413.00,0.0465
412.00,0.0468
411.00,0.0466
410.00,0.0467
409.00,0.0460
408.00,0.0443
407.00,0.0433
406.00,0.0439
405.00,0.0446
404.00,0.0442
403.00,0.0440
402.00,0.0455
401.00,0.0470
400.00,0.0472
