Created as New Dataset,Sample 334 By YargerLab Date Tuesday, November 11 2025
cm-1,A
4000.00,0.0120
3999.00,0.0120
3998.00,0.0120
3997.00,0.0120
3996.00,0.0120
3995.00,0.0120
3994.00,0.0120
3993.00,0.0120
3992.00,0.0119
3991.00,0.0119
3990.00,0.0119
3989.00,0.0119
3988.00,0.0119
3987.00,0.0119
3986.00,0.0119
3985.00,0.0119
3984.00,0.0119
3983.00,0.0119
3982.00,0.0119
3981.00,0.0119
3980.00,0.0119
3979.00,0.0119
3978.00,0.0119
3977.00,0.0119
3976.00,0.0119
3975.00,0.0119
3974.00,0.0119
3973.00,0.0119
3972.00,0.0119
3971.00,0.0119
3970.00,0.0119
3969.00,0.0118
3968.00,0.0118
3967.00,0.0118
3966.00,0.0118
3965.00,0.0119
3964.00,0.0119
3963.00,0.0119
3962.00,0.0119
3961.00,0.0119
3960.00,0.0119
3959.00,0.0119
3958.00,0.0118
3957.00,0.0118
3956.00,0.0118
3955.00,0.0118
3954.00,0.0118
3953.00,0.0118
3952.00,0.0118
3951.00,0.0118
3950.00,0.0118
3949.00,0.0118
3948.00,0.0118
3947.00,0.0118
3946.00,0.0118
3945.00,0.0118
3944.00,0.0118
3943.00,0.0118
3942.00,0.0118
3941.00,0.0118
3940.00,0.0118
3939.00,0.0118
3938.00,0.0118
3937.00,0.0118
3936.00,0.0118
3935.00,0.0118
3934.00,0.0118
3933.00,0.0118
3932.00,0.0118
3931.00,0.0118
3930.00,0.0118
3929.00,0.0118
3928.00,0.0118
3927.00,0.0118
3926.00,0.0118
3925.00,0.0118
3924.00,0.0117
3923.00,0.0117
3922.00,0.0117
3921.00,0.0117
3920.00,0.0117
3919.00,0.0117
3918.00,0.0117
3917.00,0.0117
3916.00,0.0117
3915.00,0.0117
3914.00,0.0117
3913.00,0.0117
3912.00,0.0118
3911.00,0.0118
3910.00,0.0117
3909.00,0.0117
3908.00,0.0117
3907.00,0.0117
3906.00,0.0117
3905.00,0.0117
3904.00,0.0116
3903.00,0.0116
3902.00,0.0117
3901.00,0.0117
3900.00,0.0117
3899.00,0.0116
3898.00,0.0116
3897.00,0.0116
3896.00,0.0116
3895.00,0.0116
3894.00,0.0117
3893.00,0.0117
3892.00,0.0117
3891.00,0.0116
3890.00,0.0116
3889.00,0.0116
3888.00,0.0116
3887.00,0.0117
3886.00,0.0117
3885.00,0.0116
3884.00,0.0116
3883.00,0.0117
3882.00,0.0117
3881.00,0.0117
3880.00,0.0116
3879.00,0.0116
3878.00,0.0116
3877.00,0.0116
3876.00,0.0116
3875.00,0.0116
3874.00,0.0116
3873.00,0.0116
3872.00,0.0116
3871.00,0.0116
3870.00,0.0116
3869.00,0.0116
3868.00,0.0116
3867.00,0.0116
3866.00,0.0117
3865.00,0.0117
3864.00,0.0117
3863.00,0.0116
3862.00,0.0116
3861.00,0.0116
3860.00,0.0116
3859.00,0.0115
3858.00,0.0115
3857.00,0.0114
3856.00,0.0114
3855.00,0.0114
3854.00,0.0115
3853.00,0.0116
3852.00,0.0116
3851.00,0.0116
3850.00,0.0117
3849.00,0.0117
3848.00,0.0117
3847.00,0.0117
3846.00,0.0116
3845.00,0.0116
3844.00,0.0116
3843.00,0.0116
3842.00,0.0115
3841.00,0.0115
3840.00,0.0115
3839.00,0.0115
3838.00,0.0115
3837.00,0.0115
3836.00,0.0115
3835.00,0.0115
3834.00,0.0116
3833.00,0.0116
3832.00,0.0116
3831.00,0.0116
3830.00,0.0115
3829.00,0.0116
3828.00,0.0115
3827.00,0.0115
3826.00,0.0115
3825.00,0.0114
3824.00,0.0115
3823.00,0.0115
3822.00,0.0115
3821.00,0.0115
3820.00,0.0115
3819.00,0.0115
3818.00,0.0115
3817.00,0.0116
3816.00,0.0116
3815.00,0.0115
3814.00,0.0115
3813.00,0.0115
3812.00,0.0115
3811.00,0.0114
3810.00,0.0114
3809.00,0.0114
3808.00,0.0114
3807.00,0.0114
3806.00,0.0115
3805.00,0.0115
3804.00,0.0116
3803.00,0.0116
3802.00,0.0116
3801.00,0.0116
3800.00,0.0115
3799.00,0.0116
3798.00,0.0116
3797.00,0.0115
3796.00,0.0115
3795.00,0.0114
3794.00,0.0114
3793.00,0.0114
3792.00,0.0114
3791.00,0.0114
3790.00,0.0114
3789.00,0.0114
3788.00,0.0114
3787.00,0.0114
3786.00,0.0114
3785.00,0.0114
3784.00,0.0113
3783.00,0.0113
3782.00,0.0113
3781.00,0.0113
3780.00,0.0114
3779.00,0.0114
3778.00,0.0114
3777.00,0.0114
3776.00,0.0114
3775.00,0.0114
3774.00,0.0114
3773.00,0.0113
3772.00,0.0113
3771.00,0.0113
3770.00,0.0113
3769.00,0.0113
3768.00,0.0113
3767.00,0.0113
3766.00,0.0113
3765.00,0.0113
3764.00,0.0113
3763.00,0.0113
3762.00,0.0113
3761.00,0.0113
3760.00,0.0114
3759.00,0.0114
3758.00,0.0113
3757.00,0.0113
3756.00,0.0113
3755.00,0.0112
3754.00,0.0112
3753.00,0.0112
3752.00,0.0113
3751.00,0.0113
3750.00,0.0113
3749.00,0.0113
3748.00,0.0114
3747.00,0.0114
3746.00,0.0114
3745.00,0.0114
3744.00,0.0114
3743.00,0.0113
3742.00,0.0114
3741.00,0.0113
3740.00,0.0113
3739.00,0.0113
3738.00,0.0113
3737.00,0.0114
3736.00,0.0113
3735.00,0.0113
3734.00,0.0112
3733.00,0.0112
3732.00,0.0112
3731.00,0.0112
3730.00,0.0112
3729.00,0.0112
3728.00,0.0112
3727.00,0.0111
3726.00,0.0111
3725.00,0.0110
3724.00,0.0110
3723.00,0.0110
3722.00,0.0110
3721.00,0.0110
3720.00,0.0111
3719.00,0.0111
3718.00,0.0111
3717.00,0.0110
3716.00,0.0110
3715.00,0.0111
3714.00,0.0111
3713.00,0.0111
3712.00,0.0111
3711.00,0.0111
3710.00,0.0111
3709.00,0.0110
3708.00,0.0111
3707.00,0.0111
3706.00,0.0111
3705.00,0.0111
3704.00,0.0110
3703.00,0.0110
3702.00,0.0110
3701.00,0.0110
3700.00,0.0110
3699.00,0.0110
3698.00,0.0110
3697.00,0.0110
3696.00,0.0110
3695.00,0.0110
3694.00,0.0110
3693.00,0.0110
3692.00,0.0110
3691.00,0.0110
3690.00,0.0111
3689.00,0.0111
3688.00,0.0111
3687.00,0.0112
3686.00,0.0113
3685.00,0.0114
3684.00,0.0114
3683.00,0.0114
3682.00,0.0114
3681.00,0.0113
3680.00,0.0113
3679.00,0.0113
3678.00,0.0113
3677.00,0.0113
3676.00,0.0114
3675.00,0.0114
3674.00,0.0114
3673.00,0.0114
3672.00,0.0115
3671.00,0.0115
3670.00,0.0115
3669.00,0.0115
3668.00,0.0114
3667.00,0.0115
3666.00,0.0115
3665.00,0.0115
3664.00,0.0115
3663.00,0.0115
3662.00,0.0115
3661.00,0.0114
3660.00,0.0114
3659.00,0.0114
3658.00,0.0115
3657.00,0.0115
3656.00,0.0115
3655.00,0.0115
3654.00,0.0116
3653.00,0.0116
3652.00,0.0117
3651.00,0.0117
3650.00,0.0118
3649.00,0.0119
3648.00,0.0120
3647.00,0.0120
3646.00,0.0120
3645.00,0.0120
3644.00,0.0120
3643.00,0.0120
3642.00,0.0120
3641.00,0.0119
3640.00,0.0119
3639.00,0.0119
3638.00,0.0120
3637.00,0.0120
3636.00,0.0120
3635.00,0.0120
3634.00,0.0120
3633.00,0.0120
3632.00,0.0120
3631.00,0.0121
3630.00,0.0121
3629.00,0.0122
3628.00,0.0122
3627.00,0.0122
3626.00,0.0123
3625.00,0.0124
3624.00,0.0124
3623.00,0.0124
3622.00,0.0124
3621.00,0.0124
3620.00,0.0124
3619.00,0.0125
3618.00,0.0125
3617.00,0.0125
3616.00,0.0126
3615.00,0.0127
3614.00,0.0127
3613.00,0.0128
3612.00,0.0128
3611.00,0.0128
3610.00,0.0129
3609.00,0.0129
3608.00,0.0129
3607.00,0.0129
3606.00,0.0129
3605.00,0.0130
3604.00,0.0130
3603.00,0.0131
3602.00,0.0131
3601.00,0.0131
3600.00,0.0131
3599.00,0.0131
3598.00,0.0132
3597.00,0.0133
3596.00,0.0133
3595.00,0.0134
3594.00,0.0134
3593.00,0.0134
3592.00,0.0135
3591.00,0.0135
3590.00,0.0136
3589.00,0.0137
3588.00,0.0137
3587.00,0.0137
3586.00,0.0138
3585.00,0.0139
3584.00,0.0140
3583.00,0.0140
3582.00,0.0141
3581.00,0.0141
3580.00,0.0142
3579.00,0.0142
3578.00,0.0143
3577.00,0.0143
3576.00,0.0144
3575.00,0.0145
3574.00,0.0145
3573.00,0.0145
3572.00,0.0146
3571.00,0.0146
3570.00,0.0147
3569.00,0.0148
3568.00,0.0149
3567.00,0.0149
3566.00,0.0150
3565.00,0.0150
3564.00,0.0151
3563.00,0.0151
3562.00,0.0152
3561.00,0.0152
3560.00,0.0152
3559.00,0.0153
3558.00,0.0153
3557.00,0.0154
3556.00,0.0154
3555.00,0.0155
3554.00,0.0156
3553.00,0.0156
3552.00,0.0157
3551.00,0.0157
3550.00,0.0158
3549.00,0.0158
3548.00,0.0159
3547.00,0.0159
3546.00,0.0160
3545.00,0.0160
3544.00,0.0161
3543.00,0.0161
3542.00,0.0161
3541.00,0.0161
3540.00,0.0161
3539.00,0.0162
3538.00,0.0162
3537.00,0.0163
3536.00,0.0163
3535.00,0.0163
3534.00,0.0164
3533.00,0.0164
3532.00,0.0164
3531.00,0.0165
3530.00,0.0166
3529.00,0.0166
3528.00,0.0166
3527.00,0.0167
3526.00,0.0167
3525.00,0.0167
3524.00,0.0168
3523.00,0.0168
3522.00,0.0168
3521.00,0.0169
3520.00,0.0169
3519.00,0.0170
3518.00,0.0170
3517.00,0.0170
3516.00,0.0171
3515.00,0.0171
3514.00,0.0171
3513.00,0.0171
3512.00,0.0172
3511.00,0.0172
3510.00,0.0173
3509.00,0.0173
3508.00,0.0174
3507.00,0.0174
3506.00,0.0175
3505.00,0.0175
3504.00,0.0175
3503.00,0.0176
3502.00,0.0176
3501.00,0.0176
3500.00,0.0177
3499.00,0.0177
3498.00,0.0177
3497.00,0.0177
3496.00,0.0178
3495.00,0.0178
3494.00,0.0179
3493.00,0.0180
3492.00,0.0180
3491.00,0.0181
3490.00,0.0181
3489.00,0.0181
3488.00,0.0181
3487.00,0.0182
3486.00,0.0182
3485.00,0.0182
3484.00,0.0183
3483.00,0.0183
3482.00,0.0184
3481.00,0.0184
3480.00,0.0184
3479.00,0.0185
3478.00,0.0185
3477.00,0.0186
3476.00,0.0186
3475.00,0.0187
3474.00,0.0187
3473.00,0.0187
3472.00,0.0187
3471.00,0.0187
3470.00,0.0188
3469.00,0.0188
3468.00,0.0189
3467.00,0.0189
3466.00,0.0190
3465.00,0.0190
3464.00,0.0191
3463.00,0.0191
3462.00,0.0191
3461.00,0.0191
3460.00,0.0192
3459.00,0.0192
3458.00,0.0192
3457.00,0.0193
3456.00,0.0193
3455.00,0.0193
3454.00,0.0193
3453.00,0.0193
3452.00,0.0193
3451.00,0.0194
3450.00,0.0194
3449.00,0.0194
3448.00,0.0195
3447.00,0.0195
3446.00,0.0196
3445.00,0.0196
3444.00,0.0196
3443.00,0.0197
3442.00,0.0197
3441.00,0.0197
3440.00,0.0197
3439.00,0.0197
3438.00,0.0197
3437.00,0.0197
3436.00,0.0197
3435.00,0.0197
3434.00,0.0198
3433.00,0.0198
3432.00,0.0199
3431.00,0.0199
3430.00,0.0199
3429.00,0.0199
3428.00,0.0199
3427.00,0.0200
3426.00,0.0200
3425.00,0.0200
3424.00,0.0200
3423.00,0.0200
3422.00,0.0200
3421.00,0.0200
3420.00,0.0201
3419.00,0.0201
3418.00,0.0201
3417.00,0.0202
3416.00,0.0202
3415.00,0.0201
3414.00,0.0201
3413.00,0.0201
3412.00,0.0202
3411.00,0.0202
3410.00,0.0202
3409.00,0.0203
3408.00,0.0203
3407.00,0.0203
3406.00,0.0203
3405.00,0.0203
3404.00,0.0203
3403.00,0.0203
3402.00,0.0203
3401.00,0.0203
3400.00,0.0203
3399.00,0.0203
3398.00,0.0204
3397.00,0.0204
3396.00,0.0205
3395.00,0.0205
3394.00,0.0205
3393.00,0.0205
3392.00,0.0205
3391.00,0.0206
3390.00,0.0207
3389.00,0.0208
3388.00,0.0208
3387.00,0.0209
3386.00,0.0209
3385.00,0.0209
3384.00,0.0210
3383.00,0.0210
3382.00,0.0210
3381.00,0.0210
3380.00,0.0210
3379.00,0.0211
3378.00,0.0211
3377.00,0.0211
3376.00,0.0212
3375.00,0.0212
3374.00,0.0212
3373.00,0.0212
3372.00,0.0211
3371.00,0.0210
3370.00,0.0210
3369.00,0.0210
3368.00,0.0211
3367.00,0.0212
3366.00,0.0214
3365.00,0.0215
3364.00,0.0216
3363.00,0.0217
3362.00,0.0217
3361.00,0.0218
3360.00,0.0218
3359.00,0.0218
3358.00,0.0219
3357.00,0.0219
3356.00,0.0220
3355.00,0.0220
3354.00,0.0220
3353.00,0.0219
3352.00,0.0219
3351.00,0.0219
3350.00,0.0220
3349.00,0.0221
3348.00,0.0222
3347.00,0.0223
3346.00,0.0223
3345.00,0.0223
3344.00,0.0223
3343.00,0.0223
3342.00,0.0222
3341.00,0.0222
3340.00,0.0222
3339.00,0.0222
3338.00,0.0223
3337.00,0.0224
3336.00,0.0225
3335.00,0.0227
3334.00,0.0228
3333.00,0.0228
3332.00,0.0229
3331.00,0.0228
3330.00,0.0228
3329.00,0.0228
3328.00,0.0228
3327.00,0.0228
3326.00,0.0228
3325.00,0.0229
3324.00,0.0230
3323.00,0.0231
3322.00,0.0231
3321.00,0.0232
3320.00,0.0232
3319.00,0.0232
3318.00,0.0233
3317.00,0.0233
3316.00,0.0234
3315.00,0.0234
3314.00,0.0234
3313.00,0.0234
3312.00,0.0234
3311.00,0.0233
3310.00,0.0232
3309.00,0.0231
3308.00,0.0230
3307.00,0.0230
3306.00,0.0231
3305.00,0.0232
3304.00,0.0234
3303.00,0.0236
3302.00,0.0237
3301.00,0.0238
3300.00,0.0238
3299.00,0.0238
3298.00,0.0238
3297.00,0.0237
3296.00,0.0238
3295.00,0.0238
3294.00,0.0238
3293.00,0.0239
3292.00,0.0239
3291.00,0.0240
3290.00,0.0241
3289.00,0.0242
3288.00,0.0242
3287.00,0.0243
3286.00,0.0243
3285.00,0.0244
3284.00,0.0244
3283.00,0.0244
3282.00,0.0244
3281.00,0.0244
3280.00,0.0244
3279.00,0.0244
3278.00,0.0243
3277.00,0.0243
3276.00,0.0242
3275.00,0.0242
3274.00,0.0242
3273.00,0.0242
3272.00,0.0241
3271.00,0.0241
3270.00,0.0242
3269.00,0.0242
3268.00,0.0243
3267.00,0.0243
3266.00,0.0244
3265.00,0.0243
3264.00,0.0243
3263.00,0.0243
3262.00,0.0243
3261.00,0.0243
3260.00,0.0243
3259.00,0.0242
3258.00,0.0242
3257.00,0.0241
3256.00,0.0241
3255.00,0.0241
3254.00,0.0241
3253.00,0.0241
3252.00,0.0241
3251.00,0.0240
3250.00,0.0240
3249.00,0.0239
3248.00,0.0239
3247.00,0.0239
3246.00,0.0239
3245.00,0.0240
3244.00,0.0240
3243.00,0.0240
3242.00,0.0240
3241.00,0.0240
3240.00,0.0240
3239.00,0.0239
3238.00,0.0239
3237.00,0.0239
3236.00,0.0238
3235.00,0.0238
3234.00,0.0237
3233.00,0.0237
3232.00,0.0237
3231.00,0.0238
3230.00,0.0238
3229.00,0.0238
3228.00,0.0239
3227.00,0.0238
3226.00,0.0238
3225.00,0.0238
3224.00,0.0238
3223.00,0.0237
3222.00,0.0237
3221.00,0.0237
3220.00,0.0237
3219.00,0.0237
3218.00,0.0237
3217.00,0.0237
3216.00,0.0237
3215.00,0.0236
3214.00,0.0236
3213.00,0.0236
3212.00,0.0236
3211.00,0.0236
3210.00,0.0236
3209.00,0.0235
3208.00,0.0235
3207.00,0.0234
3206.00,0.0234
3205.00,0.0234
3204.00,0.0234
3203.00,0.0234
3202.00,0.0234
3201.00,0.0234
3200.00,0.0234
3199.00,0.0234
3198.00,0.0234
3197.00,0.0234
3196.00,0.0233
3195.00,0.0233
3194.00,0.0232
3193.00,0.0232
3192.00,0.0232
3191.00,0.0232
3190.00,0.0232
3189.00,0.0232
3188.00,0.0232
3187.00,0.0232
3186.00,0.0232
3185.00,0.0232
3184.00,0.0232
3183.00,0.0232
3182.00,0.0231
3181.00,0.0231
3180.00,0.0231
3179.00,0.0231
3178.00,0.0231
3177.00,0.0231
3176.00,0.0230
3175.00,0.0230
3174.00,0.0230
3173.00,0.0230
3172.00,0.0230
3171.00,0.0230
3170.00,0.0229
3169.00,0.0229
3168.00,0.0229
3167.00,0.0229
3166.00,0.0228
3165.00,0.0228
3164.00,0.0228
3163.00,0.0227
3162.00,0.0227
3161.00,0.0227
3160.00,0.0226
3159.00,0.0226
3158.00,0.0225
3157.00,0.0225
3156.00,0.0224
3155.00,0.0223
3154.00,0.0223
3153.00,0.0222
3152.00,0.0222
3151.00,0.0223
3150.00,0.0223
3149.00,0.0223
3148.00,0.0223
3147.00,0.0223
3146.00,0.0223
3145.00,0.0222
3144.00,0.0222
3143.00,0.0221
3142.00,0.0220
3141.00,0.0219
3140.00,0.0219
3139.00,0.0218
3138.00,0.0219
3137.00,0.0219
3136.00,0.0219
3135.00,0.0219
3134.00,0.0219
3133.00,0.0219
3132.00,0.0219
3131.00,0.0218
3130.00,0.0218
3129.00,0.0218
3128.00,0.0218
3127.00,0.0218
3126.00,0.0218
3125.00,0.0218
3124.00,0.0217
3123.00,0.0216
3122.00,0.0216
3121.00,0.0215
3120.00,0.0215
3119.00,0.0215
3118.00,0.0215
3117.00,0.0215
3116.00,0.0214
3115.00,0.0214
3114.00,0.0215
3113.00,0.0215
3112.00,0.0215
3111.00,0.0214
3110.00,0.0214
3109.00,0.0213
3108.00,0.0213
3107.00,0.0213
3106.00,0.0213
3105.00,0.0213
3104.00,0.0213
3103.00,0.0212
3102.00,0.0212
3101.00,0.0212
3100.00,0.0211
3099.00,0.0211
3098.00,0.0211
3097.00,0.0212
3096.00,0.0212
3095.00,0.0212
3094.00,0.0212
3093.00,0.0212
3092.00,0.0212
3091.00,0.0212
3090.00,0.0212
3089.00,0.0212
3088.00,0.0212
3087.00,0.0212
3086.00,0.0211
3085.00,0.0211
3084.00,0.0211
3083.00,0.0211
3082.00,0.0211
3081.00,0.0211
3080.00,0.0211
3079.00,0.0211
3078.00,0.0212
3077.00,0.0213
3076.00,0.0213
3075.00,0.0213
3074.00,0.0213
3073.00,0.0213
3072.00,0.0212
3071.00,0.0212
3070.00,0.0211
3069.00,0.0210
3068.00,0.0210
3067.00,0.0210
3066.00,0.0209
3065.00,0.0209
3064.00,0.0209
3063.00,0.0209
3062.00,0.0209
3061.00,0.0208
3060.00,0.0208
3059.00,0.0207
3058.00,0.0207
3057.00,0.0206
3056.00,0.0206
3055.00,0.0206
3054.00,0.0205
3053.00,0.0205
3052.00,0.0205
3051.00,0.0204
3050.00,0.0204
3049.00,0.0204
3048.00,0.0204
3047.00,0.0203
3046.00,0.0203
3045.00,0.0202
3044.00,0.0201
3043.00,0.0201
3042.00,0.0201
3041.00,0.0201
3040.00,0.0201
3039.00,0.0201
3038.00,0.0201
3037.00,0.0200
3036.00,0.0200
3035.00,0.0200
3034.00,0.0200
3033.00,0.0200
3032.00,0.0199
3031.00,0.0199
3030.00,0.0199
3029.00,0.0198
3028.00,0.0198
3027.00,0.0197
3026.00,0.0197
3025.00,0.0196
3024.00,0.0196
3023.00,0.0195
3022.00,0.0195
3021.00,0.0195
3020.00,0.0194
3019.00,0.0193
3018.00,0.0193
3017.00,0.0193
3016.00,0.0193
3015.00,0.0194
3014.00,0.0195
3013.00,0.0196
3012.00,0.0197
3011.00,0.0198
3010.00,0.0199
3009.00,0.0201
3008.00,0.0202
3007.00,0.0204
3006.00,0.0205
3005.00,0.0207
3004.00,0.0209
3003.00,0.0211
3002.00,0.0213
3001.00,0.0215
3000.00,0.0218
2999.00,0.0222
2998.00,0.0225
2997.00,0.0230
2996.00,0.0234
2995.00,0.0238
2994.00,0.0243
2993.00,0.0247
2992.00,0.0253
2991.00,0.0259
2990.00,0.0265
2989.00,0.0270
2988.00,0.0276
2987.00,0.0281
2986.00,0.0286
2985.00,0.0291
2984.00,0.0296
2983.00,0.0301
2982.00,0.0305
2981.00,0.0309
2980.00,0.0314
2979.00,0.0318
2978.00,0.0322
2977.00,0.0325
2976.00,0.0328
2975.00,0.0332
2974.00,0.0335
2973.00,0.0338
2972.00,0.0341
2971.00,0.0344
2970.00,0.0346
2969.00,0.0350
2968.00,0.0353
2967.00,0.0356
2966.00,0.0359
2965.00,0.0363
2964.00,0.0367
2963.00,0.0370
2962.00,0.0374
2961.00,0.0377
2960.00,0.0381
2959.00,0.0383
2958.00,0.0386
2957.00,0.0388
2956.00,0.0390
2955.00,0.0391
2954.00,0.0392
2953.00,0.0392
2952.00,0.0391
2951.00,0.0391
2950.00,0.0390
2949.00,0.0389
2948.00,0.0387
2947.00,0.0386
2946.00,0.0386
2945.00,0.0386
2944.00,0.0386
2943.00,0.0388
2942.00,0.0390
2941.00,0.0392
2940.00,0.0395
2939.00,0.0397
2938.00,0.0401
2937.00,0.0404
2936.00,0.0408
2935.00,0.0411
2934.00,0.0415
2933.00,0.0418
2932.00,0.0421
2931.00,0.0425
2930.00,0.0428
2929.00,0.0430
2928.00,0.0433
2927.00,0.0434
2926.00,0.0435
2925.00,0.0435
2924.00,0.0435
2923.00,0.0434
2922.00,0.0432
2921.00,0.0429
2920.00,0.0425
2919.00,0.0421
2918.00,0.0416
2917.00,0.0411
2916.00,0.0405
2915.00,0.0399
2914.00,0.0394
2913.00,0.0388
2912.00,0.0382
2911.00,0.0377
2910.00,0.0371
2909.00,0.0366
2908.00,0.0361
2907.00,0.0356
2906.00,0.0351
2905.00,0.0347
2904.00,0.0344
2903.00,0.0340
2902.00,0.0338
2901.00,0.0336
2900.00,0.0334
2899.00,0.0332
2898.00,0.0330
2897.00,0.0329
2896.00,0.0328
2895.00,0.0328
2894.00,0.0327
2893.00,0.0327
2892.00,0.0326
2891.00,0.0325
2890.00,0.0325
2889.00,0.0324
2888.00,0.0324
2887.00,0.0323
2886.00,0.0323
2885.00,0.0323
2884.00,0.0322
2883.00,0.0323
2882.00,0.0323
2881.00,0.0324
2880.00,0.0325
2879.00,0.0326
2878.00,0.0328
2877.00,0.0329
2876.00,0.0330
2875.00,0.0332
2874.00,0.0333
2873.00,0.0335
2872.00,0.0336
2871.00,0.0338
2870.00,0.0338
2869.00,0.0338
2868.00,0.0337
2867.00,0.0336
2866.00,0.0335
2865.00,0.0334
2864.00,0.0334
2863.00,0.0334
2862.00,0.0335
2861.00,0.0336
2860.00,0.0337
2859.00,0.0337
2858.00,0.0337
2857.00,0.0337
2856.00,0.0335
2855.00,0.0332
2854.00,0.0328
2853.00,0.0323
2852.00,0.0318
2851.00,0.0312
2850.00,0.0306
2849.00,0.0300
2848.00,0.0293
2847.00,0.0287
2846.00,0.0282
2845.00,0.0276
2844.00,0.0270
2843.00,0.0265
2842.00,0.0259
2841.00,0.0254
2840.00,0.0249
2839.00,0.0244
2838.00,0.0241
2837.00,0.0238
2836.00,0.0235
2835.00,0.0232
2834.00,0.0229
2833.00,0.0227
2832.00,0.0224
2831.00,0.0221
2830.00,0.0219
2829.00,0.0216
2828.00,0.0214
2827.00,0.0211
2826.00,0.0209
2825.00,0.0207
2824.00,0.0205
2823.00,0.0203
2822.00,0.0201
2821.00,0.0199
2820.00,0.0198
2819.00,0.0196
2818.00,0.0194
2817.00,0.0193
2816.00,0.0192
2815.00,0.0190
2814.00,0.0189
2813.00,0.0188
2812.00,0.0187
2811.00,0.0186
2810.00,0.0185
2809.00,0.0184
2808.00,0.0183
2807.00,0.0183
2806.00,0.0182
2805.00,0.0181
2804.00,0.0181
2803.00,0.0180
2802.00,0.0179
2801.00,0.0178
2800.00,0.0177
2799.00,0.0177
2798.00,0.0176
2797.00,0.0176
2796.00,0.0175
2795.00,0.0175
2794.00,0.0174
2793.00,0.0174
2792.00,0.0173
2791.00,0.0173
2790.00,0.0172
2789.00,0.0172
2788.00,0.0172
2787.00,0.0171
2786.00,0.0171
2785.00,0.0171
2784.00,0.0170
2783.00,0.0170
2782.00,0.0170
2781.00,0.0169
2780.00,0.0169
2779.00,0.0168
2778.00,0.0168
2777.00,0.0167
2776.00,0.0166
2775.00,0.0166
2774.00,0.0166
2773.00,0.0166
2772.00,0.0165
2771.00,0.0165
2770.00,0.0164
2769.00,0.0164
2768.00,0.0164
2767.00,0.0164
2766.00,0.0163
2765.00,0.0163
2764.00,0.0163
2763.00,0.0163
2762.00,0.0163
2761.00,0.0163
2760.00,0.0163
2759.00,0.0163
2758.00,0.0162
2757.00,0.0162
2756.00,0.0162
2755.00,0.0162
2754.00,0.0162
2753.00,0.0162
2752.00,0.0162
2751.00,0.0162
2750.00,0.0162
2749.00,0.0162
2748.00,0.0162
2747.00,0.0162
2746.00,0.0162
2745.00,0.0162
2744.00,0.0163
2743.00,0.0163
2742.00,0.0163
2741.00,0.0163
2740.00,0.0163
2739.00,0.0163
2738.00,0.0163
2737.00,0.0162
2736.00,0.0162
2735.00,0.0162
2734.00,0.0162
2733.00,0.0162
2732.00,0.0162
2731.00,0.0162
2730.00,0.0162
2729.00,0.0161
2728.00,0.0161
2727.00,0.0161
2726.00,0.0160
2725.00,0.0160
2724.00,0.0160
2723.00,0.0160
2722.00,0.0160
2721.00,0.0159
2720.00,0.0159
2719.00,0.0159
2718.00,0.0159
2717.00,0.0159
2716.00,0.0158
2715.00,0.0158
2714.00,0.0158
2713.00,0.0157
2712.00,0.0157
2711.00,0.0157
2710.00,0.0157
2709.00,0.0157
2708.00,0.0156
2707.00,0.0156
2706.00,0.0156
2705.00,0.0155
2704.00,0.0155
2703.00,0.0155
2702.00,0.0155
2701.00,0.0155
2700.00,0.0154
2699.00,0.0154
2698.00,0.0154
2697.00,0.0154
2696.00,0.0153
2695.00,0.0153
2694.00,0.0153
2693.00,0.0152
2692.00,0.0152
2691.00,0.0152
2690.00,0.0152
2689.00,0.0152
2688.00,0.0151
2687.00,0.0151
2686.00,0.0151
2685.00,0.0151
2684.00,0.0150
2683.00,0.0150
2682.00,0.0150
2681.00,0.0150
2680.00,0.0150
2679.00,0.0149
2678.00,0.0149
2677.00,0.0149
2676.00,0.0149
2675.00,0.0149
2674.00,0.0149
2673.00,0.0149
2672.00,0.0149
2671.00,0.0149
2670.00,0.0149
2669.00,0.0149
2668.00,0.0149
2667.00,0.0149
2666.00,0.0149
2665.00,0.0149
2664.00,0.0149
2663.00,0.0149
2662.00,0.0150
2661.00,0.0150
2660.00,0.0150
2659.00,0.0150
2658.00,0.0150
2657.00,0.0150
2656.00,0.0150
2655.00,0.0149
2654.00,0.0149
2653.00,0.0149
2652.00,0.0149
2651.00,0.0149
2650.00,0.0149
2649.00,0.0149
2648.00,0.0148
2647.00,0.0148
2646.00,0.0148
2645.00,0.0148
2644.00,0.0148
2643.00,0.0147
2642.00,0.0147
2641.00,0.0146
2640.00,0.0146
2639.00,0.0146
2638.00,0.0146
2637.00,0.0146
2636.00,0.0146
2635.00,0.0146
2634.00,0.0146
2633.00,0.0146
2632.00,0.0146
2631.00,0.0146
2630.00,0.0146
2629.00,0.0146
2628.00,0.0145
2627.00,0.0145
2626.00,0.0145
2625.00,0.0145
2624.00,0.0145
2623.00,0.0145
2622.00,0.0145
2621.00,0.0144
2620.00,0.0144
2619.00,0.0144
2618.00,0.0143
2617.00,0.0143
2616.00,0.0143
2615.00,0.0143
2614.00,0.0142
2613.00,0.0142
2612.00,0.0142
2611.00,0.0142
2610.00,0.0141
2609.00,0.0141
2608.00,0.0141
2607.00,0.0141
2606.00,0.0141
2605.00,0.0141
2604.00,0.0141
2603.00,0.0141
2602.00,0.0141
2601.00,0.0140
2600.00,0.0140
2599.00,0.0140
2598.00,0.0140
2597.00,0.0139
2596.00,0.0139
2595.00,0.0139
2594.00,0.0139
2593.00,0.0139
2592.00,0.0140
2591.00,0.0140
2590.00,0.0139
2589.00,0.0139
2588.00,0.0139
2587.00,0.0138
2586.00,0.0138
2585.00,0.0138
2584.00,0.0138
2583.00,0.0138
2582.00,0.0138
2581.00,0.0138
2580.00,0.0137
2579.00,0.0137
2578.00,0.0137
2577.00,0.0137
2576.00,0.0138
2575.00,0.0138
2574.00,0.0137
2573.00,0.0137
2572.00,0.0137
2571.00,0.0136
2570.00,0.0136
2569.00,0.0136
2568.00,0.0136
2567.00,0.0137
2566.00,0.0137
2565.00,0.0137
2564.00,0.0136
2563.00,0.0136
2562.00,0.0135
2561.00,0.0134
2560.00,0.0134
2559.00,0.0134
2558.00,0.0134
2557.00,0.0134
2556.00,0.0134
2555.00,0.0134
2554.00,0.0134
2553.00,0.0133
2552.00,0.0133
2551.00,0.0133
2550.00,0.0132
2549.00,0.0132
2548.00,0.0132
2547.00,0.0132
2546.00,0.0132
2545.00,0.0132
2544.00,0.0132
2543.00,0.0132
2542.00,0.0132
2541.00,0.0132
2540.00,0.0131
2539.00,0.0131
2538.00,0.0130
2537.00,0.0130
2536.00,0.0129
2535.00,0.0129
2534.00,0.0129
2533.00,0.0129
2532.00,0.0129
2531.00,0.0129
2530.00,0.0128
2529.00,0.0128
2528.00,0.0127
2527.00,0.0127
2526.00,0.0127
2525.00,0.0126
2524.00,0.0126
2523.00,0.0126
2522.00,0.0126
2521.00,0.0127
2520.00,0.0127
2519.00,0.0126
2518.00,0.0126
2517.00,0.0125
2516.00,0.0125
2515.00,0.0125
2514.00,0.0125
2513.00,0.0124
2512.00,0.0124
2511.00,0.0124
2510.00,0.0123
2509.00,0.0123
2508.00,0.0123
2507.00,0.0123
2506.00,0.0123
2505.00,0.0123
2504.00,0.0123
2503.00,0.0122
2502.00,0.0122
2501.00,0.0122
2500.00,0.0122
2499.00,0.0122
2498.00,0.0122
2497.00,0.0122
2496.00,0.0122
2495.00,0.0123
2494.00,0.0123
2493.00,0.0122
2492.00,0.0122
2491.00,0.0122
2490.00,0.0122
2489.00,0.0121
2488.00,0.0121
2487.00,0.0121
2486.00,0.0121
2485.00,0.0121
2484.00,0.0121
2483.00,0.0121
2482.00,0.0121
2481.00,0.0120
2480.00,0.0120
2479.00,0.0120
2478.00,0.0119
2477.00,0.0119
2476.00,0.0120
2475.00,0.0120
2474.00,0.0120
2473.00,0.0119
2472.00,0.0119
2471.00,0.0119
2470.00,0.0119
2469.00,0.0120
2468.00,0.0120
2467.00,0.0119
2466.00,0.0119
2465.00,0.0119
2464.00,0.0119
2463.00,0.0119
2462.00,0.0119
2461.00,0.0119
2460.00,0.0120
2459.00,0.0120
2458.00,0.0120
2457.00,0.0120
2456.00,0.0120
2455.00,0.0120
2454.00,0.0120
2453.00,0.0120
2452.00,0.0120
2451.00,0.0119
2450.00,0.0119
2449.00,0.0119
2448.00,0.0119
2447.00,0.0118
2446.00,0.0118
2445.00,0.0118
2444.00,0.0118
2443.00,0.0118
2442.00,0.0118
2441.00,0.0117
2440.00,0.0117
2439.00,0.0117
2438.00,0.0117
2437.00,0.0117
2436.00,0.0117
2435.00,0.0117
2434.00,0.0117
2433.00,0.0116
2432.00,0.0116
2431.00,0.0115
2430.00,0.0115
2429.00,0.0115
2428.00,0.0116
2427.00,0.0116
2426.00,0.0116
2425.00,0.0116
2424.00,0.0116
2423.00,0.0116
2422.00,0.0115
2421.00,0.0115
2420.00,0.0115
2419.00,0.0115
2418.00,0.0115
2417.00,0.0115
2416.00,0.0115
2415.00,0.0115
2414.00,0.0115
2413.00,0.0115
2412.00,0.0115
2411.00,0.0114
2410.00,0.0114
2409.00,0.0114
2408.00,0.0113
2407.00,0.0113
2406.00,0.0112
2405.00,0.0111
2404.00,0.0111
2403.00,0.0111
2402.00,0.0111
2401.00,0.0112
2400.00,0.0112
2399.00,0.0112
2398.00,0.0112
2397.00,0.0112
2396.00,0.0111
2395.00,0.0111
2394.00,0.0111
2393.00,0.0111
2392.00,0.0111
2391.00,0.0111
2390.00,0.0111
2389.00,0.0111
2388.00,0.0110
2387.00,0.0110
2386.00,0.0109
2385.00,0.0109
2384.00,0.0109
2383.00,0.0108
2382.00,0.0108
2381.00,0.0107
2380.00,0.0106
2379.00,0.0106
2378.00,0.0106
2377.00,0.0107
2376.00,0.0107
2375.00,0.0107
2374.00,0.0107
2373.00,0.0107
2372.00,0.0107
2371.00,0.0107
2370.00,0.0107
2369.00,0.0106
2368.00,0.0105
2367.00,0.0105
2366.00,0.0105
2365.00,0.0105
2364.00,0.0106
2363.00,0.0106
2362.00,0.0106
2361.00,0.0106
2360.00,0.0106
2359.00,0.0106
2358.00,0.0106
2357.00,0.0107
2356.00,0.0108
2355.00,0.0108
2354.00,0.0109
2353.00,0.0109
2352.00,0.0109
2351.00,0.0109
2350.00,0.0109
2349.00,0.0108
2348.00,0.0108
2347.00,0.0107
2346.00,0.0106
2345.00,0.0105
2344.00,0.0104
2343.00,0.0105
2342.00,0.0105
2341.00,0.0106
2340.00,0.0108
2339.00,0.0109
2338.00,0.0110
2337.00,0.0110
2336.00,0.0110
2335.00,0.0110
2334.00,0.0110
2333.00,0.0110
2332.00,0.0110
2331.00,0.0110
2330.00,0.0111
2329.00,0.0112
2328.00,0.0115
2327.00,0.0118
2326.00,0.0120
2325.00,0.0120
2324.00,0.0120
2323.00,0.0119
2322.00,0.0118
2321.00,0.0118
2320.00,0.0118
2319.00,0.0117
2318.00,0.0117
2317.00,0.0116
2316.00,0.0115
2315.00,0.0114
2314.00,0.0113
2313.00,0.0113
2312.00,0.0113
2311.00,0.0112
2310.00,0.0112
2309.00,0.0111
2308.00,0.0110
2307.00,0.0110
2306.00,0.0110
2305.00,0.0110
2304.00,0.0110
2303.00,0.0110
2302.00,0.0110
2301.00,0.0110
2300.00,0.0110
2299.00,0.0110
2298.00,0.0111
2297.00,0.0111
2296.00,0.0112
2295.00,0.0112
2294.00,0.0113
2293.00,0.0113
2292.00,0.0114
2291.00,0.0115
2290.00,0.0116
2289.00,0.0117
2288.00,0.0117
2287.00,0.0117
2286.00,0.0116
2285.00,0.0115
2284.00,0.0114
2283.00,0.0113
2282.00,0.0113
2281.00,0.0112
2280.00,0.0112
2279.00,0.0112
2278.00,0.0112
2277.00,0.0112
2276.00,0.0111
2275.00,0.0110
2274.00,0.0110
2273.00,0.0110
2272.00,0.0110
2271.00,0.0111
2270.00,0.0111
2269.00,0.0110
2268.00,0.0109
2267.00,0.0108
2266.00,0.0107
2265.00,0.0107
2264.00,0.0107
2263.00,0.0108
2262.00,0.0108
2261.00,0.0109
2260.00,0.0110
2259.00,0.0109
2258.00,0.0108
2257.00,0.0107
2256.00,0.0106
2255.00,0.0106
2254.00,0.0106
2253.00,0.0107
2252.00,0.0107
2251.00,0.0107
2250.00,0.0107
2249.00,0.0108
2248.00,0.0108
2247.00,0.0109
2246.00,0.0109
2245.00,0.0108
2244.00,0.0108
2243.00,0.0108
2242.00,0.0107
2241.00,0.0107
2240.00,0.0108
2239.00,0.0108
2238.00,0.0108
2237.00,0.0108
2236.00,0.0108
2235.00,0.0107
2234.00,0.0107
2233.00,0.0107
2232.00,0.0107
2231.00,0.0107
2230.00,0.0107
2229.00,0.0107
2228.00,0.0107
2227.00,0.0107
2226.00,0.0107
2225.00,0.0107
2224.00,0.0107
2223.00,0.0106
2222.00,0.0106
2221.00,0.0106
2220.00,0.0106
2219.00,0.0106
2218.00,0.0106
2217.00,0.0107
2216.00,0.0107
2215.00,0.0106
2214.00,0.0106
2213.00,0.0105
2212.00,0.0105
2211.00,0.0105
2210.00,0.0104
2209.00,0.0104
2208.00,0.0104
2207.00,0.0105
2206.00,0.0106
2205.00,0.0107
2204.00,0.0108
2203.00,0.0108
2202.00,0.0107
2201.00,0.0106
2200.00,0.0106
2199.00,0.0105
2198.00,0.0105
2197.00,0.0106
2196.00,0.0106
2195.00,0.0107
2194.00,0.0107
2193.00,0.0108
2192.00,0.0109
2191.00,0.0110
2190.00,0.0109
2189.00,0.0109
2188.00,0.0109
2187.00,0.0109
2186.00,0.0109
2185.00,0.0108
2184.00,0.0106
2183.00,0.0102
2182.00,0.0099
2181.00,0.0099
2180.00,0.0100
2179.00,0.0102
2178.00,0.0102
2177.00,0.0101
2176.00,0.0101
2175.00,0.0101
2174.00,0.0102
2173.00,0.0105
2172.00,0.0107
2171.00,0.0109
2170.00,0.0109
2169.00,0.0110
2168.00,0.0112
2167.00,0.0113
2166.00,0.0114
2165.00,0.0116
2164.00,0.0117
2163.00,0.0116
2162.00,0.0111
2161.00,0.0101
2160.00,0.0089
2159.00,0.0079
2158.00,0.0075
2157.00,0.0075
2156.00,0.0078
2155.00,0.0081
2154.00,0.0084
2153.00,0.0086
2152.00,0.0088
2151.00,0.0089
2150.00,0.0090
2149.00,0.0090
2148.00,0.0091
2147.00,0.0090
2146.00,0.0089
2145.00,0.0088
2144.00,0.0088
2143.00,0.0088
2142.00,0.0087
2141.00,0.0088
2140.00,0.0089
2139.00,0.0089
2138.00,0.0088
2137.00,0.0086
2136.00,0.0084
2135.00,0.0083
2134.00,0.0083
2133.00,0.0085
2132.00,0.0087
2131.00,0.0088
2130.00,0.0089
2129.00,0.0090
2128.00,0.0091
2127.00,0.0091
2126.00,0.0091
2125.00,0.0092
2124.00,0.0092
2123.00,0.0092
2122.00,0.0092
2121.00,0.0093
2120.00,0.0094
2119.00,0.0096
2118.00,0.0097
2117.00,0.0098
2116.00,0.0098
2115.00,0.0098
2114.00,0.0098
2113.00,0.0098
2112.00,0.0097
2111.00,0.0097
2110.00,0.0096
2109.00,0.0095
2108.00,0.0094
2107.00,0.0093
2106.00,0.0093
2105.00,0.0094
2104.00,0.0096
2103.00,0.0098
2102.00,0.0098
2101.00,0.0098
2100.00,0.0097
2099.00,0.0097
2098.00,0.0096
2097.00,0.0095
2096.00,0.0094
2095.00,0.0094
2094.00,0.0095
2093.00,0.0097
2092.00,0.0098
2091.00,0.0098
2090.00,0.0098
2089.00,0.0097
2088.00,0.0097
2087.00,0.0096
2086.00,0.0096
2085.00,0.0097
2084.00,0.0098
2083.00,0.0099
2082.00,0.0099
2081.00,0.0099
2080.00,0.0100
2079.00,0.0100
2078.00,0.0100
2077.00,0.0100
2076.00,0.0100
2075.00,0.0099
2074.00,0.0098
2073.00,0.0097
2072.00,0.0097
2071.00,0.0097
2070.00,0.0097
2069.00,0.0097
2068.00,0.0097
2067.00,0.0097
2066.00,0.0096
2065.00,0.0096
2064.00,0.0096
2063.00,0.0096
2062.00,0.0096
2061.00,0.0097
2060.00,0.0097
2059.00,0.0098
2058.00,0.0097
2057.00,0.0097
2056.00,0.0096
2055.00,0.0097
2054.00,0.0099
2053.00,0.0102
2052.00,0.0104
2051.00,0.0103
2050.00,0.0100
2049.00,0.0097
2048.00,0.0096
2047.00,0.0096
2046.00,0.0095
2045.00,0.0095
2044.00,0.0095
2043.00,0.0095
2042.00,0.0095
2041.00,0.0096
2040.00,0.0097
2039.00,0.0097
2038.00,0.0096
2037.00,0.0093
2036.00,0.0091
2035.00,0.0088
2034.00,0.0086
2033.00,0.0086
2032.00,0.0088
2031.00,0.0089
2030.00,0.0090
2029.00,0.0091
2028.00,0.0091
2027.00,0.0091
2026.00,0.0089
2025.00,0.0090
2024.00,0.0091
2023.00,0.0092
2022.00,0.0092
2021.00,0.0091
2020.00,0.0090
2019.00,0.0088
2018.00,0.0086
2017.00,0.0083
2016.00,0.0080
2015.00,0.0075
2014.00,0.0071
2013.00,0.0071
2012.00,0.0075
2011.00,0.0081
2010.00,0.0083
2009.00,0.0082
2008.00,0.0079
2007.00,0.0075
2006.00,0.0075
2005.00,0.0077
2004.00,0.0081
2003.00,0.0085
2002.00,0.0087
2001.00,0.0089
2000.00,0.0092
1999.00,0.0093
1998.00,0.0093
1997.00,0.0092
1996.00,0.0092
1995.00,0.0091
1994.00,0.0090
1993.00,0.0090
1992.00,0.0089
1991.00,0.0089
1990.00,0.0089
1989.00,0.0089
1988.00,0.0089
1987.00,0.0090
1986.00,0.0090
1985.00,0.0093
1984.00,0.0097
1983.00,0.0101
1982.00,0.0104
1981.00,0.0105
1980.00,0.0103
1979.00,0.0097
1978.00,0.0090
1977.00,0.0085
1976.00,0.0084
1975.00,0.0083
1974.00,0.0082
1973.00,0.0081
1972.00,0.0081
1971.00,0.0081
1970.00,0.0081
1969.00,0.0083
1968.00,0.0085
1967.00,0.0086
1966.00,0.0085
1965.00,0.0085
1964.00,0.0084
1963.00,0.0084
1962.00,0.0082
1961.00,0.0082
1960.00,0.0083
1959.00,0.0083
1958.00,0.0083
1957.00,0.0083
1956.00,0.0083
1955.00,0.0082
1954.00,0.0082
1953.00,0.0084
1952.00,0.0085
1951.00,0.0085
1950.00,0.0084
1949.00,0.0083
1948.00,0.0083
1947.00,0.0082
1946.00,0.0081
1945.00,0.0082
1944.00,0.0083
1943.00,0.0084
1942.00,0.0084
1941.00,0.0084
1940.00,0.0084
1939.00,0.0084
1938.00,0.0084
1937.00,0.0084
1936.00,0.0085
1935.00,0.0085
1934.00,0.0084
1933.00,0.0084
1932.00,0.0084
1931.00,0.0084
1930.00,0.0084
1929.00,0.0083
1928.00,0.0083
1927.00,0.0083
1926.00,0.0083
1925.00,0.0084
1924.00,0.0085
1923.00,0.0086
1922.00,0.0086
1921.00,0.0085
1920.00,0.0085
1919.00,0.0085
1918.00,0.0085
1917.00,0.0085
1916.00,0.0085
1915.00,0.0085
1914.00,0.0085
1913.00,0.0085
1912.00,0.0085
1911.00,0.0086
1910.00,0.0086
1909.00,0.0086
1908.00,0.0087
1907.00,0.0087
1906.00,0.0086
1905.00,0.0086
1904.00,0.0086
1903.00,0.0086
1902.00,0.0085
1901.00,0.0085
1900.00,0.0085
1899.00,0.0085
1898.00,0.0084
1897.00,0.0085
1896.00,0.0085
1895.00,0.0085
1894.00,0.0084
1893.00,0.0084
1892.00,0.0085
1891.00,0.0085
1890.00,0.0085
1889.00,0.0085
1888.00,0.0085
1887.00,0.0084
1886.00,0.0084
1885.00,0.0085
1884.00,0.0085
1883.00,0.0085
1882.00,0.0084
1881.00,0.0084
1880.00,0.0084
1879.00,0.0083
1878.00,0.0082
1877.00,0.0082
1876.00,0.0083
1875.00,0.0083
1874.00,0.0083
1873.00,0.0083
1872.00,0.0084
1871.00,0.0084
1870.00,0.0084
1869.00,0.0084
1868.00,0.0084
1867.00,0.0083
1866.00,0.0083
1865.00,0.0082
1864.00,0.0082
1863.00,0.0082
1862.00,0.0082
1861.00,0.0082
1860.00,0.0083
1859.00,0.0083
1858.00,0.0083
1857.00,0.0083
1856.00,0.0083
1855.00,0.0083
1854.00,0.0082
1853.00,0.0082
1852.00,0.0082
1851.00,0.0082
1850.00,0.0082
1849.00,0.0083
1848.00,0.0083
1847.00,0.0084
1846.00,0.0083
1845.00,0.0082
1844.00,0.0081
1843.00,0.0081
1842.00,0.0081
1841.00,0.0081
1840.00,0.0082
1839.00,0.0082
1838.00,0.0082
1837.00,0.0082
1836.00,0.0082
1835.00,0.0081
1834.00,0.0081
1833.00,0.0081
1832.00,0.0082
1831.00,0.0082
1830.00,0.0081
1829.00,0.0080
1828.00,0.0080
1827.00,0.0081
1826.00,0.0081
1825.00,0.0081
1824.00,0.0081
1823.00,0.0081
1822.00,0.0080
1821.00,0.0079
1820.00,0.0079
1819.00,0.0078
1818.00,0.0078
1817.00,0.0077
1816.00,0.0078
1815.00,0.0078
1814.00,0.0078
1813.00,0.0079
1812.00,0.0080
1811.00,0.0080
1810.00,0.0080
1809.00,0.0079
1808.00,0.0080
1807.00,0.0079
1806.00,0.0079
1805.00,0.0080
1804.00,0.0081
1803.00,0.0081
1802.00,0.0082
1801.00,0.0081
1800.00,0.0081
1799.00,0.0080
1798.00,0.0079
1797.00,0.0080
1796.00,0.0081
1795.00,0.0081
1794.00,0.0081
1793.00,0.0080
1792.00,0.0080
1791.00,0.0079
1790.00,0.0079
1789.00,0.0079
1788.00,0.0080
1787.00,0.0080
1786.00,0.0080
1785.00,0.0080
1784.00,0.0080
1783.00,0.0080
1782.00,0.0081
1781.00,0.0081
1780.00,0.0081
1779.00,0.0081
1778.00,0.0080
1777.00,0.0080
1776.00,0.0081
1775.00,0.0081
1774.00,0.0081
1773.00,0.0081
1772.00,0.0081
1771.00,0.0080
1770.00,0.0080
1769.00,0.0080
1768.00,0.0081
1767.00,0.0081
1766.00,0.0080
1765.00,0.0081
1764.00,0.0082
1763.00,0.0082
1762.00,0.0081
1761.00,0.0081
1760.00,0.0081
1759.00,0.0082
1758.00,0.0083
1757.00,0.0083
1756.00,0.0083
1755.00,0.0083
1754.00,0.0084
1753.00,0.0086
1752.00,0.0088
1751.00,0.0089
1750.00,0.0089
1749.00,0.0089
1748.00,0.0089
1747.00,0.0089
1746.00,0.0089
1745.00,0.0090
1744.00,0.0090
1743.00,0.0090
1742.00,0.0090
1741.00,0.0089
1740.00,0.0089
1739.00,0.0090
1738.00,0.0090
1737.00,0.0092
1736.00,0.0094
1735.00,0.0095
1734.00,0.0094
1733.00,0.0093
1732.00,0.0095
1731.00,0.0097
1730.00,0.0098
1729.00,0.0099
1728.00,0.0100
1727.00,0.0102
1726.00,0.0103
1725.00,0.0104
1724.00,0.0107
1723.00,0.0109
1722.00,0.0110
1721.00,0.0112
1720.00,0.0115
1719.00,0.0118
1718.00,0.0121
1717.00,0.0125
1716.00,0.0129
1715.00,0.0133
1714.00,0.0137
1713.00,0.0143
1712.00,0.0150
1711.00,0.0157
1710.00,0.0165
1709.00,0.0175
1708.00,0.0187
1707.00,0.0201
1706.00,0.0218
1705.00,0.0237
1704.00,0.0256
1703.00,0.0274
1702.00,0.0295
1701.00,0.0330
1700.00,0.0376
1699.00,0.0418
1698.00,0.0454
1697.00,0.0495
1696.00,0.0549
1695.00,0.0608
1694.00,0.0659
1693.00,0.0703
1692.00,0.0748
1691.00,0.0796
1690.00,0.0848
1689.00,0.0898
1688.00,0.0942
1687.00,0.0978
1686.00,0.1015
1685.00,0.1068
1684.00,0.1134
1683.00,0.1187
1682.00,0.1219
1681.00,0.1240
1680.00,0.1259
1679.00,0.1275
1678.00,0.1285
1677.00,0.1293
1676.00,0.1306
1675.00,0.1322
1674.00,0.1333
1673.00,0.1335
1672.00,0.1331
1671.00,0.1329
1670.00,0.1333
1669.00,0.1340
1668.00,0.1345
1667.00,0.1345
1666.00,0.1341
1665.00,0.1337
1664.00,0.1338
1663.00,0.1345
1662.00,0.1355
1661.00,0.1361
1660.00,0.1363
1659.00,0.1360
1658.00,0.1355
1657.00,0.1344
1656.00,0.1328
1655.00,0.1312
1654.00,0.1306
1653.00,0.1314
1652.00,0.1314
1651.00,0.1297
1650.00,0.1268
1649.00,0.1234
1648.00,0.1201
1647.00,0.1170
1646.00,0.1140
1645.00,0.1107
1644.00,0.1072
1643.00,0.1036
1642.00,0.0998
1641.00,0.0961
1640.00,0.0925
1639.00,0.0891
1638.00,0.0857
1637.00,0.0825
1636.00,0.0796
1635.00,0.0770
1634.00,0.0747
1633.00,0.0726
1632.00,0.0706
1631.00,0.0687
1630.00,0.0671
1629.00,0.0661
1628.00,0.0654
1627.00,0.0652
1626.00,0.0654
1625.00,0.0660
1624.00,0.0673
1623.00,0.0690
1622.00,0.0706
1621.00,0.0716
1620.00,0.0720
1619.00,0.0718
1618.00,0.0714
1617.00,0.0707
1616.00,0.0696
1615.00,0.0683
1614.00,0.0669
1613.00,0.0654
1612.00,0.0640
1611.00,0.0628
1610.00,0.0616
1609.00,0.0601
1608.00,0.0583
1607.00,0.0562
1606.00,0.0538
1605.00,0.0513
1604.00,0.0487
1603.00,0.0463
1602.00,0.0442
1601.00,0.0423
1600.00,0.0406
1599.00,0.0393
1598.00,0.0383
1597.00,0.0377
1596.00,0.0374
1595.00,0.0375
1594.00,0.0381
1593.00,0.0391
1592.00,0.0405
1591.00,0.0424
1590.00,0.0446
1589.00,0.0468
1588.00,0.0488
1587.00,0.0504
1586.00,0.0513
1585.00,0.0515
1584.00,0.0510
1583.00,0.0498
1582.00,0.0482
1581.00,0.0464
1580.00,0.0446
1579.00,0.0429
1578.00,0.0413
1577.00,0.0399
1576.00,0.0387
1575.00,0.0378
1574.00,0.0370
1573.00,0.0363
1572.00,0.0356
1571.00,0.0350
1570.00,0.0345
1569.00,0.0340
1568.00,0.0336
1567.00,0.0332
1566.00,0.0328
1565.00,0.0324
1564.00,0.0320
1563.00,0.0317
1562.00,0.0312
1561.00,0.0308
1560.00,0.0306
1559.00,0.0306
1558.00,0.0305
1557.00,0.0303
1556.00,0.0303
1555.00,0.0303
1554.00,0.0302
1553.00,0.0302
1552.00,0.0302
1551.00,0.0302
1550.00,0.0302
1549.00,0.0301
1548.00,0.0300
1547.00,0.0300
1546.00,0.0300
1545.00,0.0301
1544.00,0.0301
1543.00,0.0300
1542.00,0.0299
1541.00,0.0299
1540.00,0.0300
1539.00,0.0300
1538.00,0.0300
1537.00,0.0301
1536.00,0.0301
1535.00,0.0301
1534.00,0.0302
1533.00,0.0303
1532.00,0.0303
1531.00,0.0303
1530.00,0.0304
1529.00,0.0305
1528.00,0.0307
1527.00,0.0309
1526.00,0.0310
1525.00,0.0311
1524.00,0.0312
1523.00,0.0315
1522.00,0.0319
1521.00,0.0324
1520.00,0.0328
1519.00,0.0332
1518.00,0.0335
1517.00,0.0339
1516.00,0.0342
1515.00,0.0343
1514.00,0.0343
1513.00,0.0342
1512.00,0.0342
1511.00,0.0342
1510.00,0.0341
1509.00,0.0341
1508.00,0.0343
1507.00,0.0345
1506.00,0.0348
1505.00,0.0351
1504.00,0.0357
1503.00,0.0365
1502.00,0.0375
1501.00,0.0387
1500.00,0.0402
1499.00,0.0419
1498.00,0.0437
1497.00,0.0454
1496.00,0.0467
1495.00,0.0473
1494.00,0.0473
1493.00,0.0468
1492.00,0.0459
1491.00,0.0447
1490.00,0.0432
1489.00,0.0415
1488.00,0.0395
1487.00,0.0376
1486.00,0.0357
1485.00,0.0341
1484.00,0.0327
1483.00,0.0315
1482.00,0.0305
1481.00,0.0297
1480.00,0.0292
1479.00,0.0288
1478.00,0.0288
1477.00,0.0290
1476.00,0.0295
1475.00,0.0302
1474.00,0.0313
1473.00,0.0330
1472.00,0.0353
1471.00,0.0377
1470.00,0.0402
1469.00,0.0428
1468.00,0.0456
1467.00,0.0487
1466.00,0.0521
1465.00,0.0558
1464.00,0.0594
1463.00,0.0621
1462.00,0.0640
1461.00,0.0650
1460.00,0.0654
1459.00,0.0652
1458.00,0.0643
1457.00,0.0628
1456.00,0.0608
1455.00,0.0587
1454.00,0.0568
1453.00,0.0552
1452.00,0.0539
1451.00,0.0532
1450.00,0.0530
1449.00,0.0535
1448.00,0.0546
1447.00,0.0560
1446.00,0.0576
1445.00,0.0594
1444.00,0.0613
1443.00,0.0633
1442.00,0.0653
1441.00,0.0673
1440.00,0.0691
1439.00,0.0708
1438.00,0.0729
1437.00,0.0756
1436.00,0.0786
1435.00,0.0809
1434.00,0.0824
1433.00,0.0836
1432.00,0.0847
1431.00,0.0859
1430.00,0.0871
1429.00,0.0884
1428.00,0.0899
1427.00,0.0915
1426.00,0.0933
1425.00,0.0954
1424.00,0.0976
1423.00,0.0991
1422.00,0.0995
1421.00,0.0988
1420.00,0.0971
1419.00,0.0943
1418.00,0.0906
1417.00,0.0863
1416.00,0.0818
1415.00,0.0773
1414.00,0.0732
1413.00,0.0697
1412.00,0.0668
1411.00,0.0646
1410.00,0.0631
1409.00,0.0621
1408.00,0.0616
1407.00,0.0615
1406.00,0.0618
1405.00,0.0623
1404.00,0.0628
1403.00,0.0631
1402.00,0.0629
1401.00,0.0624
1400.00,0.0614
1399.00,0.0599
1398.00,0.0580
1397.00,0.0558
1396.00,0.0534
1395.00,0.0510
1394.00,0.0488
1393.00,0.0469
1392.00,0.0454
1391.00,0.0443
1390.00,0.0435
1389.00,0.0430
1388.00,0.0430
1387.00,0.0433
1386.00,0.0438
1385.00,0.0445
1384.00,0.0454
1383.00,0.0464
1382.00,0.0476
1381.00,0.0486
1380.00,0.0495
1379.00,0.0501
1378.00,0.0504
1377.00,0.0504
1376.00,0.0502
1375.00,0.0498
1374.00,0.0494
1373.00,0.0489
1372.00,0.0483
1371.00,0.0477
1370.00,0.0472
1369.00,0.0467
1368.00,0.0464
1367.00,0.0462
1366.00,0.0461
1365.00,0.0463
1364.00,0.0468
1363.00,0.0474
1362.00,0.0479
1361.00,0.0481
1360.00,0.0477
1359.00,0.0467
1358.00,0.0453
1357.00,0.0436
1356.00,0.0417
1355.00,0.0400
1354.00,0.0385
1353.00,0.0372
1352.00,0.0363
1351.00,0.0356
1350.00,0.0351
1349.00,0.0347
1348.00,0.0343
1347.00,0.0340
1346.00,0.0338
1345.00,0.0336
1344.00,0.0335
1343.00,0.0334
1342.00,0.0334
1341.00,0.0335
1340.00,0.0336
1339.00,0.0338
1338.00,0.0339
1337.00,0.0340
1336.00,0.0342
1335.00,0.0344
1334.00,0.0346
1333.00,0.0349
1332.00,0.0353
1331.00,0.0357
1330.00,0.0361
1329.00,0.0366
1328.00,0.0371
1327.00,0.0377
1326.00,0.0385
1325.00,0.0394
1324.00,0.0403
1323.00,0.0413
1322.00,0.0423
1321.00,0.0432
1320.00,0.0440
1319.00,0.0446
1318.00,0.0450
1317.00,0.0451
1316.00,0.0450
1315.00,0.0448
1314.00,0.0443
1313.00,0.0438
1312.00,0.0432
1311.00,0.0427
1310.00,0.0424
1309.00,0.0422
1308.00,0.0422
1307.00,0.0424
1306.00,0.0427
1305.00,0.0433
1304.00,0.0440
1303.00,0.0450
1302.00,0.0462
1301.00,0.0478
1300.00,0.0499
1299.00,0.0525
1298.00,0.0557
1297.00,0.0595
1296.00,0.0638
1295.00,0.0687
1294.00,0.0738
1293.00,0.0791
1292.00,0.0845
1291.00,0.0896
1290.00,0.0944
1289.00,0.0986
1288.00,0.1022
1287.00,0.1049
1286.00,0.1065
1285.00,0.1070
1284.00,0.1065
1283.00,0.1049
1282.00,0.1027
1281.00,0.1001
1280.00,0.0975
1279.00,0.0953
1278.00,0.0935
1277.00,0.0925
1276.00,0.0921
1275.00,0.0922
1274.00,0.0926
1273.00,0.0930
1272.00,0.0932
1271.00,0.0929
1270.00,0.0921
1269.00,0.0907
1268.00,0.0887
1267.00,0.0861
1266.00,0.0832
1265.00,0.0801
1264.00,0.0768
1263.00,0.0735
1262.00,0.0703
1261.00,0.0672
1260.00,0.0643
1259.00,0.0616
1258.00,0.0592
1257.00,0.0569
1256.00,0.0549
1255.00,0.0532
1254.00,0.0518
1253.00,0.0506
1252.00,0.0496
1251.00,0.0489
1250.00,0.0485
1249.00,0.0483
1248.00,0.0485
1247.00,0.0490
1246.00,0.0497
1245.00,0.0507
1244.00,0.0518
1243.00,0.0530
1242.00,0.0542
1241.00,0.0552
1240.00,0.0561
1239.00,0.0569
1238.00,0.0575
1237.00,0.0581
1236.00,0.0585
1235.00,0.0589
1234.00,0.0593
1233.00,0.0595
1232.00,0.0595
1231.00,0.0595
1230.00,0.0594
1229.00,0.0593
1228.00,0.0591
1227.00,0.0589
1226.00,0.0587
1225.00,0.0585
1224.00,0.0584
1223.00,0.0583
1222.00,0.0583
1221.00,0.0583
1220.00,0.0582
1219.00,0.0581
1218.00,0.0577
1217.00,0.0571
1216.00,0.0563
1215.00,0.0551
1214.00,0.0538
1213.00,0.0523
1212.00,0.0507
1211.00,0.0491
1210.00,0.0476
1209.00,0.0463
1208.00,0.0451
1207.00,0.0442
1206.00,0.0435
1205.00,0.0431
1204.00,0.0429
1203.00,0.0430
1202.00,0.0434
1201.00,0.0440
1200.00,0.0449
1199.00,0.0459
1198.00,0.0470
1197.00,0.0482
1196.00,0.0492
1195.00,0.0500
1194.00,0.0503
1193.00,0.0501
1192.00,0.0494
1191.00,0.0483
1190.00,0.0468
1189.00,0.0452
1188.00,0.0436
1187.00,0.0421
1186.00,0.0407
1185.00,0.0395
1184.00,0.0385
1183.00,0.0376
1182.00,0.0370
1181.00,0.0365
1180.00,0.0362
1179.00,0.0360
1178.00,0.0360
1177.00,0.0361
1176.00,0.0363
1175.00,0.0365
1174.00,0.0368
1173.00,0.0372
1172.00,0.0376
1171.00,0.0379
1170.00,0.0383
1169.00,0.0386
1168.00,0.0389
1167.00,0.0391
1166.00,0.0395
1165.00,0.0399
1164.00,0.0406
1163.00,0.0415
1162.00,0.0426
1161.00,0.0439
1160.00,0.0453
1159.00,0.0466
1158.00,0.0476
1157.00,0.0482
1156.00,0.0484
1155.00,0.0480
1154.00,0.0471
1153.00,0.0458
1152.00,0.0443
1151.00,0.0426
1150.00,0.0409
1149.00,0.0392
1148.00,0.0375
1147.00,0.0360
1146.00,0.0347
1145.00,0.0335
1144.00,0.0326
1143.00,0.0318
1142.00,0.0312
1141.00,0.0308
1140.00,0.0306
1139.00,0.0306
1138.00,0.0310
1137.00,0.0317
1136.00,0.0329
1135.00,0.0346
1134.00,0.0367
1133.00,0.0391
1132.00,0.0414
1131.00,0.0434
1130.00,0.0446
1129.00,0.0449
1128.00,0.0441
1127.00,0.0424
1126.00,0.0402
1125.00,0.0379
1124.00,0.0357
1123.00,0.0340
1122.00,0.0326
1121.00,0.0315
1120.00,0.0307
1119.00,0.0301
1118.00,0.0297
1117.00,0.0294
1116.00,0.0293
1115.00,0.0293
1114.00,0.0293
1113.00,0.0294
1112.00,0.0295
1111.00,0.0296
1110.00,0.0298
1109.00,0.0301
1108.00,0.0305
1107.00,0.0309
1106.00,0.0315
1105.00,0.0322
1104.00,0.0330
1103.00,0.0339
1102.00,0.0347
1101.00,0.0354
1100.00,0.0357
1099.00,0.0357
1098.00,0.0353
1097.00,0.0347
1096.00,0.0340
1095.00,0.0332
1094.00,0.0325
1093.00,0.0319
1092.00,0.0313
1091.00,0.0308
1090.00,0.0304
1089.00,0.0301
1088.00,0.0300
1087.00,0.0299
1086.00,0.0298
1085.00,0.0298
1084.00,0.0299
1083.00,0.0301
1082.00,0.0303
1081.00,0.0306
1080.00,0.0311
1079.00,0.0315
1078.00,0.0321
1077.00,0.0327
1076.00,0.0334
1075.00,0.0340
1074.00,0.0347
1073.00,0.0355
1072.00,0.0364
1071.00,0.0375
1070.00,0.0388
1069.00,0.0404
1068.00,0.0423
1067.00,0.0445
1066.00,0.0471
1065.00,0.0500
1064.00,0.0531
1063.00,0.0565
1062.00,0.0598
1061.00,0.0629
1060.00,0.0656
1059.00,0.0676
1058.00,0.0688
1057.00,0.0688
1056.00,0.0676
1055.00,0.0653
1054.00,0.0622
1053.00,0.0586
1052.00,0.0549
1051.00,0.0514
1050.00,0.0482
1049.00,0.0456
1048.00,0.0436
1047.00,0.0419
1046.00,0.0407
1045.00,0.0397
1044.00,0.0390
1043.00,0.0385
1042.00,0.0381
1041.00,0.0379
1040.00,0.0377
1039.00,0.0376
1038.00,0.0375
1037.00,0.0376
1036.00,0.0378
1035.00,0.0382
1034.00,0.0387
1033.00,0.0393
1032.00,0.0400
1031.00,0.0404
1030.00,0.0405
1029.00,0.0402
1028.00,0.0396
1027.00,0.0387
1026.00,0.0378
1025.00,0.0370
1024.00,0.0363
1023.00,0.0359
1022.00,0.0355
1021.00,0.0354
1020.00,0.0353
1019.00,0.0352
1018.00,0.0351
1017.00,0.0349
1016.00,0.0345
1015.00,0.0340
1014.00,0.0333
1013.00,0.0326
1012.00,0.0320
1011.00,0.0315
1010.00,0.0311
1009.00,0.0311
1008.00,0.0313
1007.00,0.0318
1006.00,0.0325
1005.00,0.0332
1004.00,0.0337
1003.00,0.0339
1002.00,0.0339
1001.00,0.0337
1000.00,0.0333
999.00,0.0327
998.00,0.0321
997.00,0.0315
996.00,0.0309
995.00,0.0303
994.00,0.0298
993.00,0.0293
992.00,0.0288
991.00,0.0283
990.00,0.0278
989.00,0.0273
988.00,0.0267
987.00,0.0262
986.00,0.0257
985.00,0.0253
984.00,0.0249
983.00,0.0246
982.00,0.0244
981.00,0.0243
980.00,0.0243
979.00,0.0243
978.00,0.0244
977.00,0.0244
976.00,0.0244
975.00,0.0243
974.00,0.0242
973.00,0.0240
972.00,0.0239
971.00,0.0237
970.00,0.0235
969.00,0.0233
968.00,0.0231
967.00,0.0230
966.00,0.0228
965.00,0.0227
964.00,0.0226
963.00,0.0224
962.00,0.0223
961.00,0.0222
960.00,0.0221
959.00,0.0219
958.00,0.0218
957.00,0.0216
956.00,0.0214
955.00,0.0213
954.00,0.0212
953.00,0.0211
952.00,0.0210
951.00,0.0209
950.00,0.0208
949.00,0.0208
948.00,0.0208
947.00,0.0208
946.00,0.0209
945.00,0.0211
944.00,0.0213
943.00,0.0215
942.00,0.0219
941.00,0.0224
940.00,0.0230
939.00,0.0237
938.00,0.0245
937.00,0.0254
936.00,0.0262
935.00,0.0269
934.00,0.0275
933.00,0.0278
932.00,0.0279
931.00,0.0278
930.00,0.0276
929.00,0.0274
928.00,0.0273
927.00,0.0271
926.00,0.0270
925.00,0.0269
924.00,0.0267
923.00,0.0265
922.00,0.0262
921.00,0.0259
920.00,0.0256
919.00,0.0253
918.00,0.0250
917.00,0.0247
916.00,0.0244
915.00,0.0240
914.00,0.0237
913.00,0.0235
912.00,0.0233
911.00,0.0232
910.00,0.0232
909.00,0.0232
908.00,0.0234
907.00,0.0236
906.00,0.0239
905.00,0.0244
904.00,0.0250
903.00,0.0256
902.00,0.0263
901.00,0.0270
900.00,0.0276
899.00,0.0282
898.00,0.0286
897.00,0.0288
896.00,0.0287
895.00,0.0285
894.00,0.0281
893.00,0.0275
892.00,0.0269
891.00,0.0264
890.00,0.0259
889.00,0.0254
888.00,0.0252
887.00,0.0250
886.00,0.0250
885.00,0.0250
884.00,0.0252
883.00,0.0256
882.00,0.0260
881.00,0.0266
880.00,0.0272
879.00,0.0278
878.00,0.0286
877.00,0.0294
876.00,0.0303
875.00,0.0312
874.00,0.0320
873.00,0.0328
872.00,0.0334
871.00,0.0338
870.00,0.0341
869.00,0.0343
868.00,0.0344
867.00,0.0343
866.00,0.0343
865.00,0.0343
864.00,0.0343
863.00,0.0344
862.00,0.0345
861.00,0.0346
860.00,0.0347
859.00,0.0349
858.00,0.0352
857.00,0.0356
856.00,0.0361
855.00,0.0367
854.00,0.0374
853.00,0.0380
852.00,0.0387
851.00,0.0394
850.00,0.0399
849.00,0.0405
848.00,0.0410
847.00,0.0414
846.00,0.0417
845.00,0.0419
844.00,0.0421
843.00,0.0422
842.00,0.0422
841.00,0.0422
840.00,0.0421
839.00,0.0420
838.00,0.0419
837.00,0.0419
836.00,0.0419
835.00,0.0419
834.00,0.0419
833.00,0.0420
832.00,0.0421
831.00,0.0421
830.00,0.0421
829.00,0.0420
828.00,0.0419
827.00,0.0418
826.00,0.0417
825.00,0.0416
824.00,0.0416
823.00,0.0416
822.00,0.0418
821.00,0.0420
820.00,0.0423
819.00,0.0426
818.00,0.0429
817.00,0.0432
816.00,0.0434
815.00,0.0435
814.00,0.0434
813.00,0.0431
812.00,0.0426
811.00,0.0416
810.00,0.0403
809.00,0.0387
808.00,0.0370
807.00,0.0352
806.00,0.0335
805.00,0.0319
804.00,0.0307
803.00,0.0297
802.00,0.0289
801.00,0.0283
800.00,0.0280
799.00,0.0278
798.00,0.0276
797.00,0.0275
796.00,0.0275
795.00,0.0275
794.00,0.0276
793.00,0.0277
792.00,0.0278
791.00,0.0278
790.00,0.0279
789.00,0.0279
788.00,0.0280
787.00,0.0280
786.00,0.0281
785.00,0.0282
784.00,0.0284
783.00,0.0286
782.00,0.0289
781.00,0.0292
780.00,0.0296
779.00,0.0300
778.00,0.0303
777.00,0.0305
776.00,0.0305
775.00,0.0302
774.00,0.0298
773.00,0.0296
772.00,0.0294
771.00,0.0294
770.00,0.0295
769.00,0.0296
768.00,0.0297
767.00,0.0299
766.00,0.0301
765.00,0.0303
764.00,0.0305
763.00,0.0308
762.00,0.0311
761.00,0.0315
760.00,0.0319
759.00,0.0323
758.00,0.0327
757.00,0.0331
756.00,0.0336
755.00,0.0340
754.00,0.0345
753.00,0.0350
752.00,0.0355
751.00,0.0361
750.00,0.0365
749.00,0.0370
748.00,0.0375
747.00,0.0381
746.00,0.0387
745.00,0.0393
744.00,0.0401
743.00,0.0409
742.00,0.0419
741.00,0.0429
740.00,0.0441
739.00,0.0453
738.00,0.0463
737.00,0.0469
736.00,0.0471
735.00,0.0468
734.00,0.0461
733.00,0.0453
732.00,0.0443
731.00,0.0433
730.00,0.0423
729.00,0.0414
728.00,0.0405
727.00,0.0396
726.00,0.0388
725.00,0.0380
724.00,0.0374
723.00,0.0368
722.00,0.0363
721.00,0.0359
720.00,0.0356
719.00,0.0354
718.00,0.0353
717.00,0.0352
716.00,0.0352
715.00,0.0352
714.00,0.0351
713.00,0.0350
712.00,0.0349
711.00,0.0347
710.00,0.0345
709.00,0.0343
708.00,0.0342
707.00,0.0342
706.00,0.0343
705.00,0.0344
704.00,0.0345
703.00,0.0346
702.00,0.0347
701.00,0.0347
700.00,0.0349
699.00,0.0352
698.00,0.0356
697.00,0.0362
696.00,0.0370
695.00,0.0377
694.00,0.0385
693.00,0.0393
692.00,0.0399
691.00,0.0405
690.00,0.0408
689.00,0.0410
688.00,0.0410
687.00,0.0409
686.00,0.0406
685.00,0.0403
684.00,0.0401
683.00,0.0399
682.00,0.0397
681.00,0.0397
680.00,0.0398
679.00,0.0399
678.00,0.0402
677.00,0.0405
676.00,0.0408
675.00,0.0412
674.00,0.0416
673.00,0.0422
672.00,0.0428
671.00,0.0434
670.00,0.0441
669.00,0.0453
668.00,0.0470
667.00,0.0484
666.00,0.0488
665.00,0.0488
664.00,0.0491
663.00,0.0497
662.00,0.0506
661.00,0.0515
660.00,0.0524
659.00,0.0533
658.00,0.0542
657.00,0.0551
656.00,0.0560
655.00,0.0569
654.00,0.0576
653.00,0.0583
652.00,0.0589
651.00,0.0594
650.00,0.0597
649.00,0.0599
648.00,0.0600
647.00,0.0599
646.00,0.0595
645.00,0.0590
644.00,0.0583
643.00,0.0576
642.00,0.0567
641.00,0.0558
640.00,0.0548
639.00,0.0539
638.00,0.0529
637.00,0.0520
636.00,0.0512
635.00,0.0505
634.00,0.0498
633.00,0.0493
632.00,0.0488
631.00,0.0484
630.00,0.0480
629.00,0.0478
628.00,0.0476
627.00,0.0475
626.00,0.0474
625.00,0.0472
624.00,0.0471
623.00,0.0470
622.00,0.0468
621.00,0.0466
620.00,0.0464
619.00,0.0462
618.00,0.0460
617.00,0.0457
616.00,0.0455
615.00,0.0453
614.00,0.0452
613.00,0.0452
612.00,0.0453
611.00,0.0456
610.00,0.0458
609.00,0.0461
608.00,0.0463
607.00,0.0465
606.00,0.0467
605.00,0.0468
604.00,0.0471
603.00,0.0474
602.00,0.0478
601.00,0.0481
600.00,0.0484
599.00,0.0485
598.00,0.0485
597.00,0.0484
596.00,0.0484
595.00,0.0483
594.00,0.0483
593.00,0.0483
592.00,0.0485
591.00,0.0489
590.00,0.0496
589.00,0.0505
588.00,0.0519
587.00,0.0535
586.00,0.0554
585.00,0.0573
584.00,0.0590
583.00,0.0605
582.00,0.0615
581.00,0.0622
580.00,0.0628
579.00,0.0631
578.00,0.0631
577.00,0.0630
576.00,0.0629
575.00,0.0627
574.00,0.0625
573.00,0.0623
572.00,0.0621
571.00,0.0619
570.00,0.0618
569.00,0.0617
568.00,0.0616
567.00,0.0614
566.00,0.0611
565.00,0.0606
564.00,0.0602
563.00,0.0595
562.00,0.0588
561.00,0.0581
560.00,0.0576
559.00,0.0573
558.00,0.0570
557.00,0.0566
556.00,0.0560
555.00,0.0552
554.00,0.0544
553.00,0.0538
552.00,0.0536
551.00,0.0535
550.00,0.0533
549.00,0.0529
548.00,0.0524
547.00,0.0518
546.00,0.0512
545.00,0.0506
544.00,0.0502
543.00,0.0499
542.00,0.0497
541.00,0.0494
540.00,0.0492
539.00,0.0490
538.00,0.0491
537.00,0.0495
536.00,0.0502
535.00,0.0509
534.00,0.0516
533.00,0.0522
532.00,0.0527
531.00,0.0530
530.00,0.0529
529.00,0.0525
528.00,0.0519
527.00,0.0513
526.00,0.0505
525.00,0.0497
524.00,0.0490
523.00,0.0484
522.00,0.0478
521.00,0.0473
520.00,0.0469
519.00,0.0466
518.00,0.0463
517.00,0.0461
516.00,0.0459
515.00,0.0458
514.00,0.0456
513.00,0.0455
512.00,0.0456
511.00,0.0459
510.00,0.0462
509.00,0.0465
508.00,0.0469
507.00,0.0471
506.00,0.0470
505.00,0.0469
504.00,0.0468
503.00,0.0467
502.00,0.0465
501.00,0.0462
500.00,0.0460
499.00,0.0457
498.00,0.0455
497.00,0.0454
496.00,0.0455
495.00,0.0455
494.00,0.0455
493.00,0.0456
492.00,0.0459
491.00,0.0462
490.00,0.0465
489.00,0.0465
488.00,0.0465
487.00,0.0464
486.00,0.0461
485.00,0.0459
484.00,0.0458
483.00,0.0459
482.00,0.0459
481.00,0.0459
480.00,0.0458
479.00,0.0457
478.00,0.0456
477.00,0.0457
476.00,0.0459
475.00,0.0460
474.00,0.0460
473.00,0.0459
472.00,0.0459
471.00,0.0458
470.00,0.0455
469.00,0.0454
468.00,0.0454
467.00,0.0456
466.00,0.0457
465.00,0.0457
464.00,0.0457
463.00,0.0456
462.00,0.0456
461.00,0.0455
460.00,0.0455
459.00,0.0454
458.00,0.0451
457.00,0.0449
456.00,0.0447
455.00,0.0447
454.00,0.0445
453.00,0.0444
452.00,0.0444
451.00,0.0444
450.00,0.0443
449.00,0.0443
448.00,0.0445
447.00,0.0447
446.00,0.0446
445.00,0.0443
444.00,0.0439
443.00,0.0435
442.00,0.0431
441.00,0.0428
440.00,0.0427
439.00,0.0429
438.00,0.0431
437.00,0.0434
436.00,0.0437
435.00,0.0437
434.00,0.0431
433.00,0.0425
432.00,0.0421
431.00,0.0418
430.00,0.0417
429.00,0.0417
428.00,0.0419
427.00,0.0420
426.00,0.0418
425.00,0.0416
424.00,0.0419
423.00,0.0423
422.00,0.0426
421.00,0.0429
420.00,0.0434
419.00,0.0441
418.00,0.0444
417.00,0.0444
416.00,0.0444
415.00,0.0446
414.00,0.0448
413.00,0.0449
412.00,0.0450
411.00,0.0448
410.00,0.0447
409.00,0.0451
408.00,0.0460
407.00,0.0468
406.00,0.0469
405.00,0.0463
404.00,0.0456
403.00,0.0448
402.00,0.0441
401.00,0.0440
400.00,0.0446
