Created as New Dataset,Sample 336 By YargerLab Date Tuesday, November 11 2025
cm-1,A
4000.00,0.0301
3999.00,0.0301
3998.00,0.0301
3997.00,0.0301
3996.00,0.0301
3995.00,0.0301
3994.00,0.0300
3993.00,0.0300
3992.00,0.0300
3991.00,0.0300
3990.00,0.0300
3989.00,0.0300
3988.00,0.0300
3987.00,0.0300
3986.00,0.0300
3985.00,0.0299
3984.00,0.0299
3983.00,0.0299
3982.00,0.0299
3981.00,0.0299
3980.00,0.0299
3979.00,0.0298
3978.00,0.0298
3977.00,0.0297
3976.00,0.0297
3975.00,0.0297
3974.00,0.0297
3973.00,0.0297
3972.00,0.0297
3971.00,0.0296
3970.00,0.0296
3969.00,0.0296
3968.00,0.0296
3967.00,0.0296
3966.00,0.0297
3965.00,0.0298
3964.00,0.0299
3963.00,0.0299
3962.00,0.0300
3961.00,0.0299
3960.00,0.0298
3959.00,0.0297
3958.00,0.0296
3957.00,0.0295
3956.00,0.0295
3955.00,0.0295
3954.00,0.0295
3953.00,0.0295
3952.00,0.0294
3951.00,0.0294
3950.00,0.0293
3949.00,0.0293
3948.00,0.0292
3947.00,0.0292
3946.00,0.0292
3945.00,0.0292
3944.00,0.0292
3943.00,0.0292
3942.00,0.0292
3941.00,0.0292
3940.00,0.0292
3939.00,0.0292
3938.00,0.0291
3937.00,0.0291
3936.00,0.0291
3935.00,0.0291
3934.00,0.0292
3933.00,0.0292
3932.00,0.0292
3931.00,0.0292
3930.00,0.0292
3929.00,0.0292
3928.00,0.0292
3927.00,0.0292
3926.00,0.0291
3925.00,0.0291
3924.00,0.0290
3923.00,0.0289
3922.00,0.0289
3921.00,0.0289
3920.00,0.0289
3919.00,0.0289
3918.00,0.0290
3917.00,0.0290
3916.00,0.0290
3915.00,0.0290
3914.00,0.0289
3913.00,0.0289
3912.00,0.0288
3911.00,0.0288
3910.00,0.0287
3909.00,0.0287
3908.00,0.0287
3907.00,0.0287
3906.00,0.0287
3905.00,0.0287
3904.00,0.0287
3903.00,0.0287
3902.00,0.0286
3901.00,0.0285
3900.00,0.0284
3899.00,0.0284
3898.00,0.0284
3897.00,0.0285
3896.00,0.0286
3895.00,0.0286
3894.00,0.0286
3893.00,0.0286
3892.00,0.0286
3891.00,0.0286
3890.00,0.0286
3889.00,0.0286
3888.00,0.0286
3887.00,0.0286
3886.00,0.0286
3885.00,0.0285
3884.00,0.0285
3883.00,0.0285
3882.00,0.0285
3881.00,0.0285
3880.00,0.0284
3879.00,0.0283
3878.00,0.0283
3877.00,0.0283
3876.00,0.0284
3875.00,0.0284
3874.00,0.0284
3873.00,0.0284
3872.00,0.0284
3871.00,0.0285
3870.00,0.0286
3869.00,0.0285
3868.00,0.0285
3867.00,0.0285
3866.00,0.0285
3865.00,0.0284
3864.00,0.0284
3863.00,0.0283
3862.00,0.0282
3861.00,0.0282
3860.00,0.0281
3859.00,0.0281
3858.00,0.0280
3857.00,0.0279
3856.00,0.0278
3855.00,0.0279
3854.00,0.0280
3853.00,0.0281
3852.00,0.0281
3851.00,0.0281
3850.00,0.0281
3849.00,0.0281
3848.00,0.0280
3847.00,0.0280
3846.00,0.0280
3845.00,0.0280
3844.00,0.0281
3843.00,0.0281
3842.00,0.0281
3841.00,0.0281
3840.00,0.0280
3839.00,0.0278
3838.00,0.0277
3837.00,0.0276
3836.00,0.0275
3835.00,0.0276
3834.00,0.0277
3833.00,0.0278
3832.00,0.0278
3831.00,0.0278
3830.00,0.0278
3829.00,0.0278
3828.00,0.0278
3827.00,0.0278
3826.00,0.0278
3825.00,0.0277
3824.00,0.0277
3823.00,0.0277
3822.00,0.0278
3821.00,0.0278
3820.00,0.0277
3819.00,0.0277
3818.00,0.0277
3817.00,0.0277
3816.00,0.0276
3815.00,0.0276
3814.00,0.0275
3813.00,0.0275
3812.00,0.0275
3811.00,0.0274
3810.00,0.0274
3809.00,0.0273
3808.00,0.0273
3807.00,0.0273
3806.00,0.0273
3805.00,0.0273
3804.00,0.0274
3803.00,0.0276
3802.00,0.0276
3801.00,0.0276
3800.00,0.0275
3799.00,0.0274
3798.00,0.0274
3797.00,0.0274
3796.00,0.0273
3795.00,0.0272
3794.00,0.0272
3793.00,0.0272
3792.00,0.0272
3791.00,0.0272
3790.00,0.0272
3789.00,0.0272
3788.00,0.0272
3787.00,0.0272
3786.00,0.0271
3785.00,0.0271
3784.00,0.0270
3783.00,0.0269
3782.00,0.0269
3781.00,0.0269
3780.00,0.0270
3779.00,0.0270
3778.00,0.0270
3777.00,0.0269
3776.00,0.0270
3775.00,0.0270
3774.00,0.0269
3773.00,0.0269
3772.00,0.0269
3771.00,0.0269
3770.00,0.0270
3769.00,0.0269
3768.00,0.0269
3767.00,0.0270
3766.00,0.0269
3765.00,0.0269
3764.00,0.0269
3763.00,0.0268
3762.00,0.0268
3761.00,0.0268
3760.00,0.0269
3759.00,0.0269
3758.00,0.0269
3757.00,0.0268
3756.00,0.0268
3755.00,0.0267
3754.00,0.0267
3753.00,0.0268
3752.00,0.0268
3751.00,0.0269
3750.00,0.0268
3749.00,0.0267
3748.00,0.0266
3747.00,0.0266
3746.00,0.0266
3745.00,0.0265
3744.00,0.0265
3743.00,0.0264
3742.00,0.0265
3741.00,0.0265
3740.00,0.0266
3739.00,0.0266
3738.00,0.0267
3737.00,0.0267
3736.00,0.0267
3735.00,0.0266
3734.00,0.0265
3733.00,0.0264
3732.00,0.0263
3731.00,0.0263
3730.00,0.0263
3729.00,0.0264
3728.00,0.0264
3727.00,0.0264
3726.00,0.0263
3725.00,0.0262
3724.00,0.0262
3723.00,0.0261
3722.00,0.0261
3721.00,0.0260
3720.00,0.0260
3719.00,0.0260
3718.00,0.0260
3717.00,0.0260
3716.00,0.0260
3715.00,0.0260
3714.00,0.0260
3713.00,0.0260
3712.00,0.0260
3711.00,0.0260
3710.00,0.0260
3709.00,0.0260
3708.00,0.0260
3707.00,0.0260
3706.00,0.0260
3705.00,0.0259
3704.00,0.0259
3703.00,0.0259
3702.00,0.0259
3701.00,0.0259
3700.00,0.0258
3699.00,0.0258
3698.00,0.0258
3697.00,0.0258
3696.00,0.0258
3695.00,0.0258
3694.00,0.0258
3693.00,0.0259
3692.00,0.0259
3691.00,0.0259
3690.00,0.0260
3689.00,0.0260
3688.00,0.0260
3687.00,0.0260
3686.00,0.0261
3685.00,0.0261
3684.00,0.0261
3683.00,0.0262
3682.00,0.0262
3681.00,0.0263
3680.00,0.0264
3679.00,0.0264
3678.00,0.0264
3677.00,0.0265
3676.00,0.0265
3675.00,0.0264
3674.00,0.0263
3673.00,0.0263
3672.00,0.0264
3671.00,0.0265
3670.00,0.0265
3669.00,0.0264
3668.00,0.0263
3667.00,0.0263
3666.00,0.0263
3665.00,0.0263
3664.00,0.0264
3663.00,0.0264
3662.00,0.0264
3661.00,0.0263
3660.00,0.0262
3659.00,0.0262
3658.00,0.0262
3657.00,0.0263
3656.00,0.0263
3655.00,0.0263
3654.00,0.0263
3653.00,0.0264
3652.00,0.0265
3651.00,0.0266
3650.00,0.0267
3649.00,0.0268
3648.00,0.0269
3647.00,0.0269
3646.00,0.0269
3645.00,0.0268
3644.00,0.0268
3643.00,0.0267
3642.00,0.0267
3641.00,0.0266
3640.00,0.0266
3639.00,0.0266
3638.00,0.0267
3637.00,0.0268
3636.00,0.0268
3635.00,0.0269
3634.00,0.0269
3633.00,0.0269
3632.00,0.0270
3631.00,0.0270
3630.00,0.0270
3629.00,0.0270
3628.00,0.0269
3627.00,0.0269
3626.00,0.0270
3625.00,0.0271
3624.00,0.0271
3623.00,0.0272
3622.00,0.0272
3621.00,0.0273
3620.00,0.0274
3619.00,0.0274
3618.00,0.0275
3617.00,0.0275
3616.00,0.0276
3615.00,0.0277
3614.00,0.0278
3613.00,0.0278
3612.00,0.0278
3611.00,0.0279
3610.00,0.0279
3609.00,0.0280
3608.00,0.0279
3607.00,0.0279
3606.00,0.0278
3605.00,0.0279
3604.00,0.0280
3603.00,0.0280
3602.00,0.0281
3601.00,0.0281
3600.00,0.0282
3599.00,0.0283
3598.00,0.0284
3597.00,0.0285
3596.00,0.0286
3595.00,0.0287
3594.00,0.0287
3593.00,0.0287
3592.00,0.0287
3591.00,0.0289
3590.00,0.0290
3589.00,0.0292
3588.00,0.0292
3587.00,0.0292
3586.00,0.0292
3585.00,0.0292
3584.00,0.0293
3583.00,0.0295
3582.00,0.0296
3581.00,0.0297
3580.00,0.0298
3579.00,0.0299
3578.00,0.0299
3577.00,0.0300
3576.00,0.0301
3575.00,0.0301
3574.00,0.0302
3573.00,0.0303
3572.00,0.0304
3571.00,0.0305
3570.00,0.0307
3569.00,0.0309
3568.00,0.0310
3567.00,0.0310
3566.00,0.0310
3565.00,0.0311
3564.00,0.0311
3563.00,0.0313
3562.00,0.0313
3561.00,0.0314
3560.00,0.0315
3559.00,0.0315
3558.00,0.0316
3557.00,0.0316
3556.00,0.0317
3555.00,0.0319
3554.00,0.0321
3553.00,0.0322
3552.00,0.0322
3551.00,0.0322
3550.00,0.0322
3549.00,0.0323
3548.00,0.0324
3547.00,0.0325
3546.00,0.0325
3545.00,0.0326
3544.00,0.0326
3543.00,0.0326
3542.00,0.0327
3541.00,0.0327
3540.00,0.0328
3539.00,0.0329
3538.00,0.0330
3537.00,0.0330
3536.00,0.0331
3535.00,0.0331
3534.00,0.0332
3533.00,0.0333
3532.00,0.0334
3531.00,0.0336
3530.00,0.0337
3529.00,0.0337
3528.00,0.0338
3527.00,0.0338
3526.00,0.0339
3525.00,0.0340
3524.00,0.0341
3523.00,0.0342
3522.00,0.0342
3521.00,0.0342
3520.00,0.0342
3519.00,0.0342
3518.00,0.0342
3517.00,0.0343
3516.00,0.0344
3515.00,0.0345
3514.00,0.0346
3513.00,0.0347
3512.00,0.0348
3511.00,0.0349
3510.00,0.0350
3509.00,0.0351
3508.00,0.0352
3507.00,0.0352
3506.00,0.0353
3505.00,0.0354
3504.00,0.0354
3503.00,0.0355
3502.00,0.0356
3501.00,0.0357
3500.00,0.0358
3499.00,0.0359
3498.00,0.0360
3497.00,0.0360
3496.00,0.0361
3495.00,0.0362
3494.00,0.0364
3493.00,0.0366
3492.00,0.0368
3491.00,0.0369
3490.00,0.0369
3489.00,0.0369
3488.00,0.0369
3487.00,0.0370
3486.00,0.0371
3485.00,0.0372
3484.00,0.0373
3483.00,0.0374
3482.00,0.0374
3481.00,0.0375
3480.00,0.0375
3479.00,0.0376
3478.00,0.0377
3477.00,0.0378
3476.00,0.0380
3475.00,0.0381
3474.00,0.0382
3473.00,0.0382
3472.00,0.0383
3471.00,0.0383
3470.00,0.0383
3469.00,0.0383
3468.00,0.0384
3467.00,0.0385
3466.00,0.0386
3465.00,0.0387
3464.00,0.0388
3463.00,0.0389
3462.00,0.0390
3461.00,0.0391
3460.00,0.0392
3459.00,0.0393
3458.00,0.0394
3457.00,0.0394
3456.00,0.0395
3455.00,0.0395
3454.00,0.0396
3453.00,0.0396
3452.00,0.0397
3451.00,0.0397
3450.00,0.0398
3449.00,0.0399
3448.00,0.0400
3447.00,0.0401
3446.00,0.0401
3445.00,0.0401
3444.00,0.0401
3443.00,0.0401
3442.00,0.0401
3441.00,0.0401
3440.00,0.0402
3439.00,0.0402
3438.00,0.0403
3437.00,0.0403
3436.00,0.0403
3435.00,0.0403
3434.00,0.0404
3433.00,0.0404
3432.00,0.0405
3431.00,0.0406
3430.00,0.0407
3429.00,0.0407
3428.00,0.0408
3427.00,0.0408
3426.00,0.0407
3425.00,0.0408
3424.00,0.0408
3423.00,0.0409
3422.00,0.0409
3421.00,0.0410
3420.00,0.0410
3419.00,0.0410
3418.00,0.0410
3417.00,0.0409
3416.00,0.0409
3415.00,0.0408
3414.00,0.0408
3413.00,0.0408
3412.00,0.0409
3411.00,0.0410
3410.00,0.0411
3409.00,0.0411
3408.00,0.0412
3407.00,0.0412
3406.00,0.0411
3405.00,0.0411
3404.00,0.0410
3403.00,0.0409
3402.00,0.0408
3401.00,0.0408
3400.00,0.0409
3399.00,0.0410
3398.00,0.0411
3397.00,0.0412
3396.00,0.0412
3395.00,0.0412
3394.00,0.0412
3393.00,0.0411
3392.00,0.0410
3391.00,0.0410
3390.00,0.0411
3389.00,0.0412
3388.00,0.0412
3387.00,0.0412
3386.00,0.0412
3385.00,0.0413
3384.00,0.0413
3383.00,0.0412
3382.00,0.0412
3381.00,0.0412
3380.00,0.0412
3379.00,0.0412
3378.00,0.0412
3377.00,0.0412
3376.00,0.0412
3375.00,0.0413
3374.00,0.0413
3373.00,0.0412
3372.00,0.0411
3371.00,0.0409
3370.00,0.0408
3369.00,0.0407
3368.00,0.0406
3367.00,0.0407
3366.00,0.0409
3365.00,0.0411
3364.00,0.0413
3363.00,0.0414
3362.00,0.0414
3361.00,0.0413
3360.00,0.0413
3359.00,0.0413
3358.00,0.0413
3357.00,0.0413
3356.00,0.0413
3355.00,0.0413
3354.00,0.0412
3353.00,0.0411
3352.00,0.0410
3351.00,0.0409
3350.00,0.0409
3349.00,0.0410
3348.00,0.0411
3347.00,0.0411
3346.00,0.0411
3345.00,0.0411
3344.00,0.0410
3343.00,0.0410
3342.00,0.0409
3341.00,0.0409
3340.00,0.0408
3339.00,0.0408
3338.00,0.0408
3337.00,0.0408
3336.00,0.0410
3335.00,0.0411
3334.00,0.0412
3333.00,0.0412
3332.00,0.0412
3331.00,0.0411
3330.00,0.0410
3329.00,0.0409
3328.00,0.0408
3327.00,0.0407
3326.00,0.0407
3325.00,0.0407
3324.00,0.0407
3323.00,0.0408
3322.00,0.0408
3321.00,0.0409
3320.00,0.0409
3319.00,0.0410
3318.00,0.0410
3317.00,0.0410
3316.00,0.0409
3315.00,0.0409
3314.00,0.0409
3313.00,0.0408
3312.00,0.0407
3311.00,0.0406
3310.00,0.0404
3309.00,0.0403
3308.00,0.0401
3307.00,0.0400
3306.00,0.0400
3305.00,0.0401
3304.00,0.0403
3303.00,0.0404
3302.00,0.0405
3301.00,0.0406
3300.00,0.0407
3299.00,0.0406
3298.00,0.0406
3297.00,0.0405
3296.00,0.0404
3295.00,0.0403
3294.00,0.0403
3293.00,0.0403
3292.00,0.0404
3291.00,0.0405
3290.00,0.0406
3289.00,0.0407
3288.00,0.0408
3287.00,0.0408
3286.00,0.0408
3285.00,0.0408
3284.00,0.0408
3283.00,0.0408
3282.00,0.0407
3281.00,0.0406
3280.00,0.0406
3279.00,0.0405
3278.00,0.0405
3277.00,0.0404
3276.00,0.0403
3275.00,0.0402
3274.00,0.0401
3273.00,0.0400
3272.00,0.0400
3271.00,0.0400
3270.00,0.0401
3269.00,0.0401
3268.00,0.0402
3267.00,0.0402
3266.00,0.0402
3265.00,0.0402
3264.00,0.0402
3263.00,0.0402
3262.00,0.0401
3261.00,0.0401
3260.00,0.0400
3259.00,0.0400
3258.00,0.0399
3257.00,0.0399
3256.00,0.0399
3255.00,0.0399
3254.00,0.0400
3253.00,0.0400
3252.00,0.0399
3251.00,0.0399
3250.00,0.0398
3249.00,0.0396
3248.00,0.0395
3247.00,0.0395
3246.00,0.0395
3245.00,0.0395
3244.00,0.0396
3243.00,0.0397
3242.00,0.0397
3241.00,0.0397
3240.00,0.0398
3239.00,0.0397
3238.00,0.0397
3237.00,0.0396
3236.00,0.0395
3235.00,0.0393
3234.00,0.0392
3233.00,0.0392
3232.00,0.0392
3231.00,0.0392
3230.00,0.0392
3229.00,0.0392
3228.00,0.0392
3227.00,0.0391
3226.00,0.0391
3225.00,0.0391
3224.00,0.0391
3223.00,0.0391
3222.00,0.0391
3221.00,0.0390
3220.00,0.0390
3219.00,0.0389
3218.00,0.0389
3217.00,0.0389
3216.00,0.0388
3215.00,0.0388
3214.00,0.0387
3213.00,0.0387
3212.00,0.0386
3211.00,0.0385
3210.00,0.0384
3209.00,0.0383
3208.00,0.0382
3207.00,0.0382
3206.00,0.0382
3205.00,0.0382
3204.00,0.0382
3203.00,0.0382
3202.00,0.0382
3201.00,0.0382
3200.00,0.0382
3199.00,0.0382
3198.00,0.0381
3197.00,0.0381
3196.00,0.0380
3195.00,0.0379
3194.00,0.0379
3193.00,0.0379
3192.00,0.0378
3191.00,0.0378
3190.00,0.0378
3189.00,0.0378
3188.00,0.0378
3187.00,0.0378
3186.00,0.0378
3185.00,0.0378
3184.00,0.0377
3183.00,0.0377
3182.00,0.0376
3181.00,0.0376
3180.00,0.0375
3179.00,0.0375
3178.00,0.0374
3177.00,0.0373
3176.00,0.0372
3175.00,0.0372
3174.00,0.0372
3173.00,0.0372
3172.00,0.0373
3171.00,0.0373
3170.00,0.0373
3169.00,0.0372
3168.00,0.0372
3167.00,0.0371
3166.00,0.0370
3165.00,0.0369
3164.00,0.0368
3163.00,0.0368
3162.00,0.0367
3161.00,0.0367
3160.00,0.0366
3159.00,0.0366
3158.00,0.0365
3157.00,0.0364
3156.00,0.0364
3155.00,0.0363
3154.00,0.0362
3153.00,0.0362
3152.00,0.0361
3151.00,0.0361
3150.00,0.0360
3149.00,0.0360
3148.00,0.0360
3147.00,0.0360
3146.00,0.0359
3145.00,0.0358
3144.00,0.0358
3143.00,0.0357
3142.00,0.0356
3141.00,0.0355
3140.00,0.0355
3139.00,0.0355
3138.00,0.0354
3137.00,0.0355
3136.00,0.0355
3135.00,0.0355
3134.00,0.0355
3133.00,0.0355
3132.00,0.0354
3131.00,0.0354
3130.00,0.0353
3129.00,0.0352
3128.00,0.0352
3127.00,0.0352
3126.00,0.0352
3125.00,0.0352
3124.00,0.0352
3123.00,0.0351
3122.00,0.0349
3121.00,0.0348
3120.00,0.0348
3119.00,0.0347
3118.00,0.0347
3117.00,0.0346
3116.00,0.0346
3115.00,0.0347
3114.00,0.0347
3113.00,0.0347
3112.00,0.0346
3111.00,0.0345
3110.00,0.0344
3109.00,0.0344
3108.00,0.0343
3107.00,0.0343
3106.00,0.0342
3105.00,0.0341
3104.00,0.0341
3103.00,0.0341
3102.00,0.0340
3101.00,0.0340
3100.00,0.0340
3099.00,0.0340
3098.00,0.0340
3097.00,0.0340
3096.00,0.0340
3095.00,0.0339
3094.00,0.0339
3093.00,0.0338
3092.00,0.0338
3091.00,0.0338
3090.00,0.0338
3089.00,0.0338
3088.00,0.0338
3087.00,0.0337
3086.00,0.0337
3085.00,0.0337
3084.00,0.0336
3083.00,0.0336
3082.00,0.0335
3081.00,0.0335
3080.00,0.0336
3079.00,0.0337
3078.00,0.0337
3077.00,0.0337
3076.00,0.0337
3075.00,0.0336
3074.00,0.0335
3073.00,0.0334
3072.00,0.0333
3071.00,0.0333
3070.00,0.0333
3069.00,0.0332
3068.00,0.0331
3067.00,0.0331
3066.00,0.0331
3065.00,0.0330
3064.00,0.0330
3063.00,0.0330
3062.00,0.0330
3061.00,0.0329
3060.00,0.0328
3059.00,0.0327
3058.00,0.0326
3057.00,0.0326
3056.00,0.0325
3055.00,0.0325
3054.00,0.0325
3053.00,0.0324
3052.00,0.0323
3051.00,0.0322
3050.00,0.0322
3049.00,0.0323
3048.00,0.0322
3047.00,0.0322
3046.00,0.0320
3045.00,0.0319
3044.00,0.0319
3043.00,0.0319
3042.00,0.0319
3041.00,0.0319
3040.00,0.0320
3039.00,0.0320
3038.00,0.0320
3037.00,0.0319
3036.00,0.0319
3035.00,0.0318
3034.00,0.0318
3033.00,0.0318
3032.00,0.0318
3031.00,0.0319
3030.00,0.0318
3029.00,0.0318
3028.00,0.0317
3027.00,0.0315
3026.00,0.0314
3025.00,0.0312
3024.00,0.0311
3023.00,0.0310
3022.00,0.0309
3021.00,0.0309
3020.00,0.0308
3019.00,0.0308
3018.00,0.0309
3017.00,0.0310
3016.00,0.0312
3015.00,0.0314
3014.00,0.0315
3013.00,0.0315
3012.00,0.0316
3011.00,0.0319
3010.00,0.0322
3009.00,0.0325
3008.00,0.0329
3007.00,0.0332
3006.00,0.0336
3005.00,0.0339
3004.00,0.0342
3003.00,0.0346
3002.00,0.0350
3001.00,0.0355
3000.00,0.0361
2999.00,0.0367
2998.00,0.0373
2997.00,0.0380
2996.00,0.0387
2995.00,0.0395
2994.00,0.0404
2993.00,0.0412
2992.00,0.0422
2991.00,0.0431
2990.00,0.0441
2989.00,0.0451
2988.00,0.0462
2987.00,0.0472
2986.00,0.0483
2985.00,0.0495
2984.00,0.0506
2983.00,0.0517
2982.00,0.0528
2981.00,0.0538
2980.00,0.0548
2979.00,0.0558
2978.00,0.0568
2977.00,0.0577
2976.00,0.0586
2975.00,0.0594
2974.00,0.0603
2973.00,0.0611
2972.00,0.0620
2971.00,0.0628
2970.00,0.0636
2969.00,0.0643
2968.00,0.0650
2967.00,0.0655
2966.00,0.0659
2965.00,0.0663
2964.00,0.0665
2963.00,0.0666
2962.00,0.0667
2961.00,0.0668
2960.00,0.0668
2959.00,0.0668
2958.00,0.0668
2957.00,0.0667
2956.00,0.0665
2955.00,0.0662
2954.00,0.0658
2953.00,0.0652
2952.00,0.0647
2951.00,0.0642
2950.00,0.0637
2949.00,0.0632
2948.00,0.0627
2947.00,0.0623
2946.00,0.0620
2945.00,0.0619
2944.00,0.0619
2943.00,0.0620
2942.00,0.0622
2941.00,0.0626
2940.00,0.0630
2939.00,0.0634
2938.00,0.0639
2937.00,0.0644
2936.00,0.0650
2935.00,0.0655
2934.00,0.0661
2933.00,0.0666
2932.00,0.0672
2931.00,0.0677
2930.00,0.0682
2929.00,0.0686
2928.00,0.0689
2927.00,0.0691
2926.00,0.0692
2925.00,0.0692
2924.00,0.0690
2923.00,0.0688
2922.00,0.0684
2921.00,0.0679
2920.00,0.0672
2919.00,0.0665
2918.00,0.0657
2917.00,0.0649
2916.00,0.0639
2915.00,0.0630
2914.00,0.0621
2913.00,0.0612
2912.00,0.0604
2911.00,0.0595
2910.00,0.0586
2909.00,0.0578
2908.00,0.0569
2907.00,0.0562
2906.00,0.0555
2905.00,0.0549
2904.00,0.0543
2903.00,0.0539
2902.00,0.0535
2901.00,0.0532
2900.00,0.0530
2899.00,0.0528
2898.00,0.0526
2897.00,0.0525
2896.00,0.0525
2895.00,0.0525
2894.00,0.0525
2893.00,0.0524
2892.00,0.0523
2891.00,0.0521
2890.00,0.0521
2889.00,0.0521
2888.00,0.0521
2887.00,0.0521
2886.00,0.0521
2885.00,0.0521
2884.00,0.0521
2883.00,0.0521
2882.00,0.0521
2881.00,0.0522
2880.00,0.0523
2879.00,0.0524
2878.00,0.0526
2877.00,0.0528
2876.00,0.0530
2875.00,0.0532
2874.00,0.0534
2873.00,0.0537
2872.00,0.0539
2871.00,0.0540
2870.00,0.0540
2869.00,0.0538
2868.00,0.0537
2867.00,0.0535
2866.00,0.0533
2865.00,0.0533
2864.00,0.0532
2863.00,0.0532
2862.00,0.0532
2861.00,0.0532
2860.00,0.0532
2859.00,0.0532
2858.00,0.0531
2857.00,0.0529
2856.00,0.0525
2855.00,0.0519
2854.00,0.0512
2853.00,0.0503
2852.00,0.0493
2851.00,0.0482
2850.00,0.0472
2849.00,0.0461
2848.00,0.0451
2847.00,0.0441
2846.00,0.0432
2845.00,0.0423
2844.00,0.0414
2843.00,0.0405
2842.00,0.0396
2841.00,0.0387
2840.00,0.0380
2839.00,0.0373
2838.00,0.0367
2837.00,0.0362
2836.00,0.0357
2835.00,0.0353
2834.00,0.0348
2833.00,0.0344
2832.00,0.0339
2831.00,0.0335
2830.00,0.0331
2829.00,0.0327
2828.00,0.0324
2827.00,0.0320
2826.00,0.0317
2825.00,0.0313
2824.00,0.0310
2823.00,0.0306
2822.00,0.0303
2821.00,0.0301
2820.00,0.0298
2819.00,0.0296
2818.00,0.0294
2817.00,0.0292
2816.00,0.0290
2815.00,0.0288
2814.00,0.0286
2813.00,0.0284
2812.00,0.0283
2811.00,0.0281
2810.00,0.0280
2809.00,0.0279
2808.00,0.0277
2807.00,0.0276
2806.00,0.0275
2805.00,0.0274
2804.00,0.0273
2803.00,0.0272
2802.00,0.0271
2801.00,0.0269
2800.00,0.0268
2799.00,0.0267
2798.00,0.0265
2797.00,0.0265
2796.00,0.0264
2795.00,0.0263
2794.00,0.0262
2793.00,0.0261
2792.00,0.0260
2791.00,0.0259
2790.00,0.0259
2789.00,0.0258
2788.00,0.0258
2787.00,0.0257
2786.00,0.0256
2785.00,0.0256
2784.00,0.0255
2783.00,0.0255
2782.00,0.0254
2781.00,0.0254
2780.00,0.0254
2779.00,0.0253
2778.00,0.0252
2777.00,0.0251
2776.00,0.0250
2775.00,0.0249
2774.00,0.0249
2773.00,0.0248
2772.00,0.0248
2771.00,0.0247
2770.00,0.0247
2769.00,0.0246
2768.00,0.0246
2767.00,0.0245
2766.00,0.0245
2765.00,0.0245
2764.00,0.0245
2763.00,0.0245
2762.00,0.0244
2761.00,0.0244
2760.00,0.0244
2759.00,0.0243
2758.00,0.0243
2757.00,0.0244
2756.00,0.0244
2755.00,0.0244
2754.00,0.0244
2753.00,0.0244
2752.00,0.0244
2751.00,0.0243
2750.00,0.0243
2749.00,0.0243
2748.00,0.0243
2747.00,0.0243
2746.00,0.0243
2745.00,0.0244
2744.00,0.0244
2743.00,0.0244
2742.00,0.0244
2741.00,0.0245
2740.00,0.0245
2739.00,0.0245
2738.00,0.0245
2737.00,0.0245
2736.00,0.0245
2735.00,0.0245
2734.00,0.0245
2733.00,0.0245
2732.00,0.0244
2731.00,0.0244
2730.00,0.0243
2729.00,0.0243
2728.00,0.0242
2727.00,0.0242
2726.00,0.0241
2725.00,0.0241
2724.00,0.0241
2723.00,0.0240
2722.00,0.0240
2721.00,0.0240
2720.00,0.0239
2719.00,0.0239
2718.00,0.0239
2717.00,0.0239
2716.00,0.0239
2715.00,0.0238
2714.00,0.0238
2713.00,0.0238
2712.00,0.0237
2711.00,0.0236
2710.00,0.0236
2709.00,0.0235
2708.00,0.0235
2707.00,0.0235
2706.00,0.0235
2705.00,0.0235
2704.00,0.0234
2703.00,0.0234
2702.00,0.0233
2701.00,0.0232
2700.00,0.0232
2699.00,0.0232
2698.00,0.0231
2697.00,0.0231
2696.00,0.0230
2695.00,0.0230
2694.00,0.0229
2693.00,0.0228
2692.00,0.0228
2691.00,0.0228
2690.00,0.0228
2689.00,0.0227
2688.00,0.0227
2687.00,0.0226
2686.00,0.0226
2685.00,0.0226
2684.00,0.0225
2683.00,0.0224
2682.00,0.0224
2681.00,0.0223
2680.00,0.0223
2679.00,0.0222
2678.00,0.0222
2677.00,0.0222
2676.00,0.0222
2675.00,0.0222
2674.00,0.0222
2673.00,0.0222
2672.00,0.0222
2671.00,0.0222
2670.00,0.0222
2669.00,0.0222
2668.00,0.0221
2667.00,0.0221
2666.00,0.0222
2665.00,0.0222
2664.00,0.0222
2663.00,0.0223
2662.00,0.0223
2661.00,0.0223
2660.00,0.0223
2659.00,0.0223
2658.00,0.0223
2657.00,0.0223
2656.00,0.0223
2655.00,0.0222
2654.00,0.0222
2653.00,0.0221
2652.00,0.0221
2651.00,0.0221
2650.00,0.0221
2649.00,0.0220
2648.00,0.0220
2647.00,0.0219
2646.00,0.0219
2645.00,0.0218
2644.00,0.0218
2643.00,0.0218
2642.00,0.0217
2641.00,0.0216
2640.00,0.0216
2639.00,0.0215
2638.00,0.0215
2637.00,0.0215
2636.00,0.0215
2635.00,0.0215
2634.00,0.0214
2633.00,0.0214
2632.00,0.0213
2631.00,0.0212
2630.00,0.0212
2629.00,0.0211
2628.00,0.0211
2627.00,0.0210
2626.00,0.0210
2625.00,0.0211
2624.00,0.0211
2623.00,0.0211
2622.00,0.0211
2621.00,0.0210
2620.00,0.0210
2619.00,0.0209
2618.00,0.0209
2617.00,0.0209
2616.00,0.0209
2615.00,0.0209
2614.00,0.0209
2613.00,0.0209
2612.00,0.0210
2611.00,0.0210
2610.00,0.0209
2609.00,0.0209
2608.00,0.0209
2607.00,0.0209
2606.00,0.0208
2605.00,0.0208
2604.00,0.0208
2603.00,0.0207
2602.00,0.0207
2601.00,0.0206
2600.00,0.0206
2599.00,0.0205
2598.00,0.0204
2597.00,0.0204
2596.00,0.0204
2595.00,0.0204
2594.00,0.0203
2593.00,0.0203
2592.00,0.0203
2591.00,0.0203
2590.00,0.0203
2589.00,0.0204
2588.00,0.0204
2587.00,0.0203
2586.00,0.0203
2585.00,0.0203
2584.00,0.0203
2583.00,0.0203
2582.00,0.0203
2581.00,0.0202
2580.00,0.0202
2579.00,0.0201
2578.00,0.0200
2577.00,0.0200
2576.00,0.0200
2575.00,0.0200
2574.00,0.0200
2573.00,0.0200
2572.00,0.0200
2571.00,0.0200
2570.00,0.0200
2569.00,0.0199
2568.00,0.0199
2567.00,0.0199
2566.00,0.0198
2565.00,0.0198
2564.00,0.0197
2563.00,0.0197
2562.00,0.0197
2561.00,0.0196
2560.00,0.0196
2559.00,0.0196
2558.00,0.0196
2557.00,0.0196
2556.00,0.0195
2555.00,0.0194
2554.00,0.0194
2553.00,0.0194
2552.00,0.0194
2551.00,0.0194
2550.00,0.0193
2549.00,0.0193
2548.00,0.0192
2547.00,0.0192
2546.00,0.0192
2545.00,0.0191
2544.00,0.0190
2543.00,0.0190
2542.00,0.0190
2541.00,0.0191
2540.00,0.0191
2539.00,0.0190
2538.00,0.0189
2537.00,0.0189
2536.00,0.0189
2535.00,0.0188
2534.00,0.0188
2533.00,0.0187
2532.00,0.0187
2531.00,0.0186
2530.00,0.0185
2529.00,0.0185
2528.00,0.0185
2527.00,0.0185
2526.00,0.0185
2525.00,0.0185
2524.00,0.0185
2523.00,0.0184
2522.00,0.0184
2521.00,0.0184
2520.00,0.0184
2519.00,0.0184
2518.00,0.0183
2517.00,0.0183
2516.00,0.0183
2515.00,0.0183
2514.00,0.0183
2513.00,0.0182
2512.00,0.0181
2511.00,0.0181
2510.00,0.0180
2509.00,0.0179
2508.00,0.0178
2507.00,0.0178
2506.00,0.0177
2505.00,0.0177
2504.00,0.0177
2503.00,0.0177
2502.00,0.0177
2501.00,0.0177
2500.00,0.0177
2499.00,0.0177
2498.00,0.0177
2497.00,0.0177
2496.00,0.0177
2495.00,0.0176
2494.00,0.0176
2493.00,0.0175
2492.00,0.0175
2491.00,0.0175
2490.00,0.0175
2489.00,0.0175
2488.00,0.0175
2487.00,0.0174
2486.00,0.0172
2485.00,0.0170
2484.00,0.0169
2483.00,0.0169
2482.00,0.0171
2481.00,0.0172
2480.00,0.0173
2479.00,0.0173
2478.00,0.0173
2477.00,0.0172
2476.00,0.0172
2475.00,0.0172
2474.00,0.0171
2473.00,0.0171
2472.00,0.0171
2471.00,0.0170
2470.00,0.0170
2469.00,0.0169
2468.00,0.0169
2467.00,0.0169
2466.00,0.0169
2465.00,0.0170
2464.00,0.0170
2463.00,0.0170
2462.00,0.0170
2461.00,0.0170
2460.00,0.0171
2459.00,0.0171
2458.00,0.0171
2457.00,0.0171
2456.00,0.0170
2455.00,0.0170
2454.00,0.0170
2453.00,0.0170
2452.00,0.0170
2451.00,0.0171
2450.00,0.0171
2449.00,0.0171
2448.00,0.0170
2447.00,0.0169
2446.00,0.0168
2445.00,0.0167
2444.00,0.0167
2443.00,0.0167
2442.00,0.0167
2441.00,0.0167
2440.00,0.0166
2439.00,0.0166
2438.00,0.0165
2437.00,0.0165
2436.00,0.0165
2435.00,0.0165
2434.00,0.0166
2433.00,0.0166
2432.00,0.0166
2431.00,0.0165
2430.00,0.0165
2429.00,0.0164
2428.00,0.0165
2427.00,0.0165
2426.00,0.0165
2425.00,0.0165
2424.00,0.0165
2423.00,0.0166
2422.00,0.0167
2421.00,0.0167
2420.00,0.0167
2419.00,0.0166
2418.00,0.0165
2417.00,0.0165
2416.00,0.0165
2415.00,0.0166
2414.00,0.0166
2413.00,0.0166
2412.00,0.0166
2411.00,0.0166
2410.00,0.0165
2409.00,0.0164
2408.00,0.0163
2407.00,0.0162
2406.00,0.0162
2405.00,0.0161
2404.00,0.0161
2403.00,0.0161
2402.00,0.0160
2401.00,0.0160
2400.00,0.0161
2399.00,0.0161
2398.00,0.0160
2397.00,0.0160
2396.00,0.0159
2395.00,0.0159
2394.00,0.0159
2393.00,0.0158
2392.00,0.0157
2391.00,0.0156
2390.00,0.0156
2389.00,0.0156
2388.00,0.0157
2387.00,0.0158
2386.00,0.0158
2385.00,0.0157
2384.00,0.0156
2383.00,0.0155
2382.00,0.0154
2381.00,0.0152
2380.00,0.0151
2379.00,0.0151
2378.00,0.0150
2377.00,0.0151
2376.00,0.0151
2375.00,0.0151
2374.00,0.0151
2373.00,0.0150
2372.00,0.0150
2371.00,0.0149
2370.00,0.0148
2369.00,0.0147
2368.00,0.0146
2367.00,0.0146
2366.00,0.0146
2365.00,0.0146
2364.00,0.0147
2363.00,0.0146
2362.00,0.0146
2361.00,0.0147
2360.00,0.0149
2359.00,0.0151
2358.00,0.0152
2357.00,0.0150
2356.00,0.0147
2355.00,0.0146
2354.00,0.0146
2353.00,0.0146
2352.00,0.0145
2351.00,0.0145
2350.00,0.0146
2349.00,0.0146
2348.00,0.0145
2347.00,0.0143
2346.00,0.0141
2345.00,0.0139
2344.00,0.0138
2343.00,0.0138
2342.00,0.0140
2341.00,0.0141
2340.00,0.0143
2339.00,0.0145
2338.00,0.0146
2337.00,0.0147
2336.00,0.0148
2335.00,0.0148
2334.00,0.0149
2333.00,0.0149
2332.00,0.0149
2331.00,0.0150
2330.00,0.0151
2329.00,0.0152
2328.00,0.0154
2327.00,0.0156
2326.00,0.0158
2325.00,0.0158
2324.00,0.0158
2323.00,0.0157
2322.00,0.0157
2321.00,0.0157
2320.00,0.0157
2319.00,0.0156
2318.00,0.0156
2317.00,0.0155
2316.00,0.0155
2315.00,0.0154
2314.00,0.0154
2313.00,0.0153
2312.00,0.0153
2311.00,0.0152
2310.00,0.0152
2309.00,0.0151
2308.00,0.0151
2307.00,0.0150
2306.00,0.0150
2305.00,0.0150
2304.00,0.0150
2303.00,0.0150
2302.00,0.0150
2301.00,0.0150
2300.00,0.0150
2299.00,0.0151
2298.00,0.0151
2297.00,0.0151
2296.00,0.0151
2295.00,0.0151
2294.00,0.0152
2293.00,0.0153
2292.00,0.0155
2291.00,0.0155
2290.00,0.0156
2289.00,0.0156
2288.00,0.0157
2287.00,0.0157
2286.00,0.0156
2285.00,0.0155
2284.00,0.0154
2283.00,0.0153
2282.00,0.0152
2281.00,0.0151
2280.00,0.0151
2279.00,0.0151
2278.00,0.0151
2277.00,0.0151
2276.00,0.0151
2275.00,0.0151
2274.00,0.0150
2273.00,0.0150
2272.00,0.0150
2271.00,0.0151
2270.00,0.0150
2269.00,0.0150
2268.00,0.0150
2267.00,0.0151
2266.00,0.0152
2265.00,0.0152
2264.00,0.0151
2263.00,0.0150
2262.00,0.0149
2261.00,0.0148
2260.00,0.0148
2259.00,0.0148
2258.00,0.0147
2257.00,0.0147
2256.00,0.0147
2255.00,0.0146
2254.00,0.0146
2253.00,0.0146
2252.00,0.0146
2251.00,0.0147
2250.00,0.0147
2249.00,0.0147
2248.00,0.0147
2247.00,0.0147
2246.00,0.0147
2245.00,0.0148
2244.00,0.0148
2243.00,0.0148
2242.00,0.0147
2241.00,0.0146
2240.00,0.0146
2239.00,0.0148
2238.00,0.0149
2237.00,0.0149
2236.00,0.0148
2235.00,0.0147
2234.00,0.0146
2233.00,0.0146
2232.00,0.0146
2231.00,0.0146
2230.00,0.0145
2229.00,0.0144
2228.00,0.0143
2227.00,0.0144
2226.00,0.0145
2225.00,0.0145
2224.00,0.0146
2223.00,0.0147
2222.00,0.0147
2221.00,0.0148
2220.00,0.0148
2219.00,0.0148
2218.00,0.0148
2217.00,0.0149
2216.00,0.0149
2215.00,0.0148
2214.00,0.0146
2213.00,0.0146
2212.00,0.0147
2211.00,0.0148
2210.00,0.0148
2209.00,0.0148
2208.00,0.0147
2207.00,0.0146
2206.00,0.0145
2205.00,0.0144
2204.00,0.0144
2203.00,0.0144
2202.00,0.0142
2201.00,0.0140
2200.00,0.0138
2199.00,0.0137
2198.00,0.0137
2197.00,0.0139
2196.00,0.0142
2195.00,0.0146
2194.00,0.0148
2193.00,0.0149
2192.00,0.0149
2191.00,0.0149
2190.00,0.0147
2189.00,0.0147
2188.00,0.0146
2187.00,0.0144
2186.00,0.0141
2185.00,0.0140
2184.00,0.0140
2183.00,0.0140
2182.00,0.0140
2181.00,0.0141
2180.00,0.0143
2179.00,0.0143
2178.00,0.0142
2177.00,0.0142
2176.00,0.0141
2175.00,0.0142
2174.00,0.0143
2173.00,0.0146
2172.00,0.0148
2171.00,0.0150
2170.00,0.0150
2169.00,0.0151
2168.00,0.0151
2167.00,0.0151
2166.00,0.0151
2165.00,0.0152
2164.00,0.0156
2163.00,0.0158
2162.00,0.0153
2161.00,0.0143
2160.00,0.0129
2159.00,0.0119
2158.00,0.0116
2157.00,0.0119
2156.00,0.0122
2155.00,0.0122
2154.00,0.0121
2153.00,0.0121
2152.00,0.0125
2151.00,0.0128
2150.00,0.0129
2149.00,0.0128
2148.00,0.0124
2147.00,0.0121
2146.00,0.0119
2145.00,0.0119
2144.00,0.0121
2143.00,0.0122
2142.00,0.0121
2141.00,0.0121
2140.00,0.0122
2139.00,0.0124
2138.00,0.0123
2137.00,0.0123
2136.00,0.0123
2135.00,0.0123
2134.00,0.0123
2133.00,0.0123
2132.00,0.0123
2131.00,0.0124
2130.00,0.0124
2129.00,0.0125
2128.00,0.0124
2127.00,0.0123
2126.00,0.0123
2125.00,0.0124
2124.00,0.0126
2123.00,0.0128
2122.00,0.0128
2121.00,0.0128
2120.00,0.0127
2119.00,0.0126
2118.00,0.0126
2117.00,0.0127
2116.00,0.0128
2115.00,0.0129
2114.00,0.0128
2113.00,0.0127
2112.00,0.0126
2111.00,0.0126
2110.00,0.0126
2109.00,0.0128
2108.00,0.0129
2107.00,0.0129
2106.00,0.0129
2105.00,0.0127
2104.00,0.0127
2103.00,0.0127
2102.00,0.0127
2101.00,0.0128
2100.00,0.0128
2099.00,0.0127
2098.00,0.0124
2097.00,0.0123
2096.00,0.0124
2095.00,0.0125
2094.00,0.0126
2093.00,0.0127
2092.00,0.0127
2091.00,0.0126
2090.00,0.0125
2089.00,0.0125
2088.00,0.0126
2087.00,0.0127
2086.00,0.0127
2085.00,0.0127
2084.00,0.0129
2083.00,0.0130
2082.00,0.0132
2081.00,0.0133
2080.00,0.0133
2079.00,0.0132
2078.00,0.0129
2077.00,0.0125
2076.00,0.0122
2075.00,0.0121
2074.00,0.0122
2073.00,0.0123
2072.00,0.0124
2071.00,0.0123
2070.00,0.0122
2069.00,0.0122
2068.00,0.0125
2067.00,0.0127
2066.00,0.0128
2065.00,0.0126
2064.00,0.0124
2063.00,0.0121
2062.00,0.0119
2061.00,0.0120
2060.00,0.0122
2059.00,0.0123
2058.00,0.0123
2057.00,0.0121
2056.00,0.0121
2055.00,0.0122
2054.00,0.0124
2053.00,0.0129
2052.00,0.0133
2051.00,0.0133
2050.00,0.0130
2049.00,0.0125
2048.00,0.0123
2047.00,0.0122
2046.00,0.0120
2045.00,0.0120
2044.00,0.0120
2043.00,0.0121
2042.00,0.0122
2041.00,0.0124
2040.00,0.0127
2039.00,0.0129
2038.00,0.0129
2037.00,0.0129
2036.00,0.0129
2035.00,0.0127
2034.00,0.0125
2033.00,0.0124
2032.00,0.0124
2031.00,0.0123
2030.00,0.0122
2029.00,0.0120
2028.00,0.0118
2027.00,0.0114
2026.00,0.0110
2025.00,0.0110
2024.00,0.0113
2023.00,0.0116
2022.00,0.0116
2021.00,0.0118
2020.00,0.0123
2019.00,0.0129
2018.00,0.0130
2017.00,0.0126
2016.00,0.0117
2015.00,0.0109
2014.00,0.0108
2013.00,0.0116
2012.00,0.0126
2011.00,0.0132
2010.00,0.0131
2009.00,0.0127
2008.00,0.0123
2007.00,0.0119
2006.00,0.0118
2005.00,0.0121
2004.00,0.0125
2003.00,0.0124
2002.00,0.0118
2001.00,0.0112
2000.00,0.0109
1999.00,0.0110
1998.00,0.0113
1997.00,0.0117
1996.00,0.0122
1995.00,0.0124
1994.00,0.0122
1993.00,0.0119
1992.00,0.0116
1991.00,0.0114
1990.00,0.0114
1989.00,0.0115
1988.00,0.0116
1987.00,0.0115
1986.00,0.0114
1985.00,0.0115
1984.00,0.0120
1983.00,0.0126
1982.00,0.0130
1981.00,0.0130
1980.00,0.0126
1979.00,0.0119
1978.00,0.0111
1977.00,0.0108
1976.00,0.0110
1975.00,0.0113
1974.00,0.0114
1973.00,0.0115
1972.00,0.0115
1971.00,0.0113
1970.00,0.0112
1969.00,0.0114
1968.00,0.0118
1967.00,0.0121
1966.00,0.0121
1965.00,0.0119
1964.00,0.0117
1963.00,0.0114
1962.00,0.0110
1961.00,0.0107
1960.00,0.0106
1959.00,0.0105
1958.00,0.0105
1957.00,0.0106
1956.00,0.0108
1955.00,0.0111
1954.00,0.0112
1953.00,0.0110
1952.00,0.0104
1951.00,0.0096
1950.00,0.0091
1949.00,0.0093
1948.00,0.0098
1947.00,0.0102
1946.00,0.0102
1945.00,0.0101
1944.00,0.0102
1943.00,0.0103
1942.00,0.0105
1941.00,0.0107
1940.00,0.0109
1939.00,0.0110
1938.00,0.0109
1937.00,0.0109
1936.00,0.0109
1935.00,0.0109
1934.00,0.0109
1933.00,0.0109
1932.00,0.0110
1931.00,0.0110
1930.00,0.0109
1929.00,0.0109
1928.00,0.0109
1927.00,0.0109
1926.00,0.0108
1925.00,0.0108
1924.00,0.0108
1923.00,0.0107
1922.00,0.0107
1921.00,0.0108
1920.00,0.0109
1919.00,0.0110
1918.00,0.0108
1917.00,0.0106
1916.00,0.0105
1915.00,0.0105
1914.00,0.0105
1913.00,0.0105
1912.00,0.0106
1911.00,0.0106
1910.00,0.0107
1909.00,0.0107
1908.00,0.0108
1907.00,0.0109
1906.00,0.0108
1905.00,0.0108
1904.00,0.0108
1903.00,0.0107
1902.00,0.0106
1901.00,0.0106
1900.00,0.0106
1899.00,0.0107
1898.00,0.0107
1897.00,0.0107
1896.00,0.0107
1895.00,0.0107
1894.00,0.0106
1893.00,0.0106
1892.00,0.0107
1891.00,0.0108
1890.00,0.0107
1889.00,0.0105
1888.00,0.0103
1887.00,0.0102
1886.00,0.0101
1885.00,0.0102
1884.00,0.0104
1883.00,0.0106
1882.00,0.0107
1881.00,0.0107
1880.00,0.0107
1879.00,0.0107
1878.00,0.0106
1877.00,0.0105
1876.00,0.0105
1875.00,0.0105
1874.00,0.0104
1873.00,0.0104
1872.00,0.0105
1871.00,0.0105
1870.00,0.0105
1869.00,0.0105
1868.00,0.0105
1867.00,0.0105
1866.00,0.0105
1865.00,0.0104
1864.00,0.0104
1863.00,0.0103
1862.00,0.0102
1861.00,0.0102
1860.00,0.0103
1859.00,0.0103
1858.00,0.0103
1857.00,0.0102
1856.00,0.0103
1855.00,0.0103
1854.00,0.0103
1853.00,0.0103
1852.00,0.0103
1851.00,0.0104
1850.00,0.0103
1849.00,0.0103
1848.00,0.0104
1847.00,0.0104
1846.00,0.0105
1845.00,0.0106
1844.00,0.0106
1843.00,0.0106
1842.00,0.0105
1841.00,0.0104
1840.00,0.0104
1839.00,0.0104
1838.00,0.0103
1837.00,0.0102
1836.00,0.0102
1835.00,0.0102
1834.00,0.0102
1833.00,0.0103
1832.00,0.0104
1831.00,0.0104
1830.00,0.0103
1829.00,0.0102
1828.00,0.0102
1827.00,0.0103
1826.00,0.0103
1825.00,0.0103
1824.00,0.0103
1823.00,0.0103
1822.00,0.0102
1821.00,0.0101
1820.00,0.0100
1819.00,0.0099
1818.00,0.0098
1817.00,0.0097
1816.00,0.0097
1815.00,0.0098
1814.00,0.0098
1813.00,0.0099
1812.00,0.0100
1811.00,0.0100
1810.00,0.0099
1809.00,0.0099
1808.00,0.0099
1807.00,0.0099
1806.00,0.0099
1805.00,0.0100
1804.00,0.0100
1803.00,0.0100
1802.00,0.0100
1801.00,0.0100
1800.00,0.0101
1799.00,0.0101
1798.00,0.0101
1797.00,0.0101
1796.00,0.0101
1795.00,0.0100
1794.00,0.0100
1793.00,0.0100
1792.00,0.0101
1791.00,0.0101
1790.00,0.0101
1789.00,0.0101
1788.00,0.0102
1787.00,0.0102
1786.00,0.0102
1785.00,0.0102
1784.00,0.0102
1783.00,0.0103
1782.00,0.0103
1781.00,0.0103
1780.00,0.0104
1779.00,0.0104
1778.00,0.0104
1777.00,0.0104
1776.00,0.0105
1775.00,0.0105
1774.00,0.0105
1773.00,0.0106
1772.00,0.0107
1771.00,0.0107
1770.00,0.0108
1769.00,0.0108
1768.00,0.0108
1767.00,0.0108
1766.00,0.0108
1765.00,0.0108
1764.00,0.0108
1763.00,0.0108
1762.00,0.0107
1761.00,0.0107
1760.00,0.0108
1759.00,0.0109
1758.00,0.0109
1757.00,0.0110
1756.00,0.0111
1755.00,0.0111
1754.00,0.0111
1753.00,0.0112
1752.00,0.0114
1751.00,0.0115
1750.00,0.0115
1749.00,0.0114
1748.00,0.0115
1747.00,0.0115
1746.00,0.0115
1745.00,0.0115
1744.00,0.0117
1743.00,0.0117
1742.00,0.0117
1741.00,0.0118
1740.00,0.0120
1739.00,0.0121
1738.00,0.0122
1737.00,0.0123
1736.00,0.0126
1735.00,0.0128
1734.00,0.0128
1733.00,0.0129
1732.00,0.0131
1731.00,0.0133
1730.00,0.0135
1729.00,0.0136
1728.00,0.0139
1727.00,0.0141
1726.00,0.0142
1725.00,0.0145
1724.00,0.0148
1723.00,0.0152
1722.00,0.0154
1721.00,0.0158
1720.00,0.0162
1719.00,0.0167
1718.00,0.0171
1717.00,0.0175
1716.00,0.0182
1715.00,0.0189
1714.00,0.0195
1713.00,0.0203
1712.00,0.0212
1711.00,0.0222
1710.00,0.0232
1709.00,0.0244
1708.00,0.0260
1707.00,0.0278
1706.00,0.0298
1705.00,0.0321
1704.00,0.0346
1703.00,0.0372
1702.00,0.0402
1701.00,0.0446
1700.00,0.0502
1699.00,0.0555
1698.00,0.0600
1697.00,0.0653
1696.00,0.0723
1695.00,0.0802
1694.00,0.0875
1693.00,0.0942
1692.00,0.1012
1691.00,0.1086
1690.00,0.1164
1689.00,0.1242
1688.00,0.1316
1687.00,0.1383
1686.00,0.1450
1685.00,0.1524
1684.00,0.1604
1683.00,0.1673
1682.00,0.1725
1681.00,0.1769
1680.00,0.1810
1679.00,0.1848
1678.00,0.1881
1677.00,0.1910
1676.00,0.1938
1675.00,0.1961
1674.00,0.1980
1673.00,0.1999
1672.00,0.2018
1671.00,0.2036
1670.00,0.2052
1669.00,0.2070
1668.00,0.2090
1667.00,0.2111
1666.00,0.2131
1665.00,0.2152
1664.00,0.2173
1663.00,0.2191
1662.00,0.2204
1661.00,0.2215
1660.00,0.2223
1659.00,0.2227
1658.00,0.2227
1657.00,0.2225
1656.00,0.2220
1655.00,0.2206
1654.00,0.2168
1653.00,0.2103
1652.00,0.2039
1651.00,0.1995
1650.00,0.1957
1649.00,0.1911
1648.00,0.1847
1647.00,0.1764
1646.00,0.1674
1645.00,0.1594
1644.00,0.1523
1643.00,0.1456
1642.00,0.1389
1641.00,0.1322
1640.00,0.1258
1639.00,0.1199
1638.00,0.1143
1637.00,0.1085
1636.00,0.1023
1635.00,0.0965
1634.00,0.0917
1633.00,0.0880
1632.00,0.0849
1631.00,0.0821
1630.00,0.0797
1629.00,0.0779
1628.00,0.0767
1627.00,0.0763
1626.00,0.0767
1625.00,0.0778
1624.00,0.0798
1623.00,0.0824
1622.00,0.0850
1621.00,0.0872
1620.00,0.0887
1619.00,0.0894
1618.00,0.0890
1617.00,0.0876
1616.00,0.0853
1615.00,0.0831
1614.00,0.0812
1613.00,0.0794
1612.00,0.0779
1611.00,0.0764
1610.00,0.0748
1609.00,0.0728
1608.00,0.0703
1607.00,0.0673
1606.00,0.0639
1605.00,0.0603
1604.00,0.0567
1603.00,0.0532
1602.00,0.0501
1601.00,0.0473
1600.00,0.0451
1599.00,0.0433
1598.00,0.0421
1597.00,0.0412
1596.00,0.0409
1595.00,0.0412
1594.00,0.0421
1593.00,0.0438
1592.00,0.0461
1591.00,0.0491
1590.00,0.0526
1589.00,0.0561
1588.00,0.0594
1587.00,0.0620
1586.00,0.0636
1585.00,0.0639
1584.00,0.0630
1583.00,0.0612
1582.00,0.0586
1581.00,0.0557
1580.00,0.0529
1579.00,0.0503
1578.00,0.0478
1577.00,0.0454
1576.00,0.0431
1575.00,0.0414
1574.00,0.0402
1573.00,0.0393
1572.00,0.0384
1571.00,0.0375
1570.00,0.0365
1569.00,0.0355
1568.00,0.0346
1567.00,0.0339
1566.00,0.0332
1565.00,0.0324
1564.00,0.0318
1563.00,0.0312
1562.00,0.0308
1561.00,0.0305
1560.00,0.0301
1559.00,0.0295
1558.00,0.0289
1557.00,0.0285
1556.00,0.0281
1555.00,0.0278
1554.00,0.0275
1553.00,0.0272
1552.00,0.0269
1551.00,0.0267
1550.00,0.0265
1549.00,0.0262
1548.00,0.0261
1547.00,0.0260
1546.00,0.0259
1545.00,0.0257
1544.00,0.0256
1543.00,0.0256
1542.00,0.0256
1541.00,0.0254
1540.00,0.0251
1539.00,0.0249
1538.00,0.0248
1537.00,0.0248
1536.00,0.0249
1535.00,0.0249
1534.00,0.0249
1533.00,0.0248
1532.00,0.0248
1531.00,0.0249
1530.00,0.0250
1529.00,0.0251
1528.00,0.0253
1527.00,0.0256
1526.00,0.0258
1525.00,0.0262
1524.00,0.0265
1523.00,0.0269
1522.00,0.0273
1521.00,0.0279
1520.00,0.0285
1519.00,0.0290
1518.00,0.0295
1517.00,0.0300
1516.00,0.0304
1515.00,0.0307
1514.00,0.0309
1513.00,0.0311
1512.00,0.0313
1511.00,0.0314
1510.00,0.0316
1509.00,0.0318
1508.00,0.0321
1507.00,0.0325
1506.00,0.0334
1505.00,0.0346
1504.00,0.0360
1503.00,0.0375
1502.00,0.0395
1501.00,0.0419
1500.00,0.0448
1499.00,0.0480
1498.00,0.0512
1497.00,0.0541
1496.00,0.0563
1495.00,0.0575
1494.00,0.0579
1493.00,0.0575
1492.00,0.0564
1491.00,0.0545
1490.00,0.0520
1489.00,0.0492
1488.00,0.0464
1487.00,0.0437
1486.00,0.0412
1485.00,0.0391
1484.00,0.0373
1483.00,0.0357
1482.00,0.0344
1481.00,0.0336
1480.00,0.0331
1479.00,0.0329
1478.00,0.0331
1477.00,0.0337
1476.00,0.0347
1475.00,0.0361
1474.00,0.0380
1473.00,0.0409
1472.00,0.0445
1471.00,0.0486
1470.00,0.0529
1469.00,0.0575
1468.00,0.0625
1467.00,0.0678
1466.00,0.0737
1465.00,0.0800
1464.00,0.0859
1463.00,0.0905
1462.00,0.0938
1461.00,0.0960
1460.00,0.0969
1459.00,0.0963
1458.00,0.0938
1457.00,0.0895
1456.00,0.0848
1455.00,0.0808
1454.00,0.0777
1453.00,0.0753
1452.00,0.0735
1451.00,0.0725
1450.00,0.0725
1449.00,0.0736
1448.00,0.0756
1447.00,0.0783
1446.00,0.0815
1445.00,0.0849
1444.00,0.0886
1443.00,0.0923
1442.00,0.0960
1441.00,0.0995
1440.00,0.1028
1439.00,0.1058
1438.00,0.1088
1437.00,0.1119
1436.00,0.1148
1435.00,0.1172
1434.00,0.1190
1433.00,0.1206
1432.00,0.1221
1431.00,0.1235
1430.00,0.1251
1429.00,0.1270
1428.00,0.1294
1427.00,0.1322
1426.00,0.1354
1425.00,0.1388
1424.00,0.1419
1423.00,0.1440
1422.00,0.1446
1421.00,0.1433
1420.00,0.1395
1419.00,0.1331
1418.00,0.1254
1417.00,0.1178
1416.00,0.1107
1415.00,0.1041
1414.00,0.0981
1413.00,0.0931
1412.00,0.0891
1411.00,0.0859
1410.00,0.0837
1409.00,0.0825
1408.00,0.0819
1407.00,0.0818
1406.00,0.0822
1405.00,0.0828
1404.00,0.0834
1403.00,0.0838
1402.00,0.0837
1401.00,0.0829
1400.00,0.0812
1399.00,0.0785
1398.00,0.0752
1397.00,0.0717
1396.00,0.0679
1395.00,0.0641
1394.00,0.0605
1393.00,0.0576
1392.00,0.0554
1391.00,0.0538
1390.00,0.0527
1389.00,0.0522
1388.00,0.0521
1387.00,0.0527
1386.00,0.0537
1385.00,0.0553
1384.00,0.0572
1383.00,0.0595
1382.00,0.0619
1381.00,0.0643
1380.00,0.0663
1379.00,0.0679
1378.00,0.0689
1377.00,0.0693
1376.00,0.0693
1375.00,0.0687
1374.00,0.0678
1373.00,0.0667
1372.00,0.0656
1371.00,0.0644
1370.00,0.0634
1369.00,0.0625
1368.00,0.0618
1367.00,0.0614
1366.00,0.0613
1365.00,0.0616
1364.00,0.0622
1363.00,0.0628
1362.00,0.0634
1361.00,0.0634
1360.00,0.0627
1359.00,0.0610
1358.00,0.0585
1357.00,0.0555
1356.00,0.0524
1355.00,0.0495
1354.00,0.0471
1353.00,0.0452
1352.00,0.0439
1351.00,0.0429
1350.00,0.0422
1349.00,0.0417
1348.00,0.0414
1347.00,0.0412
1346.00,0.0411
1345.00,0.0411
1344.00,0.0412
1343.00,0.0413
1342.00,0.0415
1341.00,0.0417
1340.00,0.0419
1339.00,0.0421
1338.00,0.0423
1337.00,0.0427
1336.00,0.0430
1335.00,0.0435
1334.00,0.0440
1333.00,0.0445
1332.00,0.0451
1331.00,0.0458
1330.00,0.0465
1329.00,0.0473
1328.00,0.0483
1327.00,0.0494
1326.00,0.0507
1325.00,0.0522
1324.00,0.0537
1323.00,0.0552
1322.00,0.0568
1321.00,0.0582
1320.00,0.0595
1319.00,0.0604
1318.00,0.0609
1317.00,0.0610
1316.00,0.0608
1315.00,0.0603
1314.00,0.0596
1313.00,0.0588
1312.00,0.0580
1311.00,0.0574
1310.00,0.0570
1309.00,0.0570
1308.00,0.0572
1307.00,0.0578
1306.00,0.0586
1305.00,0.0598
1304.00,0.0613
1303.00,0.0632
1302.00,0.0655
1301.00,0.0685
1300.00,0.0722
1299.00,0.0769
1298.00,0.0827
1297.00,0.0897
1296.00,0.0976
1295.00,0.1064
1294.00,0.1156
1293.00,0.1250
1292.00,0.1340
1291.00,0.1423
1290.00,0.1496
1289.00,0.1556
1288.00,0.1602
1287.00,0.1630
1286.00,0.1641
1285.00,0.1634
1284.00,0.1610
1283.00,0.1574
1282.00,0.1529
1281.00,0.1482
1280.00,0.1438
1279.00,0.1401
1278.00,0.1375
1277.00,0.1359
1276.00,0.1353
1275.00,0.1353
1274.00,0.1354
1273.00,0.1353
1272.00,0.1347
1271.00,0.1332
1270.00,0.1307
1269.00,0.1272
1268.00,0.1229
1267.00,0.1179
1266.00,0.1125
1265.00,0.1069
1264.00,0.1014
1263.00,0.0960
1262.00,0.0909
1261.00,0.0861
1260.00,0.0817
1259.00,0.0776
1258.00,0.0738
1257.00,0.0706
1256.00,0.0677
1255.00,0.0652
1254.00,0.0630
1253.00,0.0612
1252.00,0.0597
1251.00,0.0586
1250.00,0.0580
1249.00,0.0578
1248.00,0.0581
1247.00,0.0588
1246.00,0.0599
1245.00,0.0614
1244.00,0.0631
1243.00,0.0650
1242.00,0.0668
1241.00,0.0684
1240.00,0.0697
1239.00,0.0709
1238.00,0.0718
1237.00,0.0725
1236.00,0.0732
1235.00,0.0737
1234.00,0.0741
1233.00,0.0744
1232.00,0.0744
1231.00,0.0743
1230.00,0.0740
1229.00,0.0736
1228.00,0.0732
1227.00,0.0727
1226.00,0.0723
1225.00,0.0720
1224.00,0.0719
1223.00,0.0719
1222.00,0.0719
1221.00,0.0720
1220.00,0.0720
1219.00,0.0719
1218.00,0.0715
1217.00,0.0707
1216.00,0.0694
1215.00,0.0677
1214.00,0.0656
1213.00,0.0633
1212.00,0.0609
1211.00,0.0585
1210.00,0.0563
1209.00,0.0544
1208.00,0.0527
1207.00,0.0514
1206.00,0.0505
1205.00,0.0500
1204.00,0.0499
1203.00,0.0502
1202.00,0.0509
1201.00,0.0521
1200.00,0.0536
1199.00,0.0553
1198.00,0.0573
1197.00,0.0592
1196.00,0.0610
1195.00,0.0624
1194.00,0.0631
1193.00,0.0630
1192.00,0.0620
1191.00,0.0603
1190.00,0.0580
1189.00,0.0555
1188.00,0.0530
1187.00,0.0507
1186.00,0.0487
1185.00,0.0470
1184.00,0.0456
1183.00,0.0445
1182.00,0.0437
1181.00,0.0431
1180.00,0.0427
1179.00,0.0426
1178.00,0.0428
1177.00,0.0431
1176.00,0.0436
1175.00,0.0442
1174.00,0.0450
1173.00,0.0459
1172.00,0.0469
1171.00,0.0479
1170.00,0.0490
1169.00,0.0501
1168.00,0.0513
1167.00,0.0525
1166.00,0.0538
1165.00,0.0553
1164.00,0.0570
1163.00,0.0589
1162.00,0.0611
1161.00,0.0633
1160.00,0.0655
1159.00,0.0675
1158.00,0.0688
1157.00,0.0695
1156.00,0.0693
1155.00,0.0682
1154.00,0.0663
1153.00,0.0638
1152.00,0.0610
1151.00,0.0580
1150.00,0.0550
1149.00,0.0521
1148.00,0.0495
1147.00,0.0471
1146.00,0.0451
1145.00,0.0434
1144.00,0.0420
1143.00,0.0411
1142.00,0.0404
1141.00,0.0402
1140.00,0.0404
1139.00,0.0411
1138.00,0.0423
1137.00,0.0440
1136.00,0.0465
1135.00,0.0496
1134.00,0.0534
1133.00,0.0574
1132.00,0.0614
1131.00,0.0646
1130.00,0.0666
1129.00,0.0667
1128.00,0.0650
1127.00,0.0618
1126.00,0.0576
1125.00,0.0533
1124.00,0.0493
1123.00,0.0459
1122.00,0.0432
1121.00,0.0412
1120.00,0.0397
1119.00,0.0387
1118.00,0.0380
1117.00,0.0377
1116.00,0.0376
1115.00,0.0378
1114.00,0.0381
1113.00,0.0385
1112.00,0.0390
1111.00,0.0396
1110.00,0.0402
1109.00,0.0409
1108.00,0.0416
1107.00,0.0425
1106.00,0.0434
1105.00,0.0446
1104.00,0.0458
1103.00,0.0471
1102.00,0.0482
1101.00,0.0491
1100.00,0.0493
1099.00,0.0489
1098.00,0.0478
1097.00,0.0463
1096.00,0.0446
1095.00,0.0429
1094.00,0.0412
1093.00,0.0397
1092.00,0.0384
1091.00,0.0373
1090.00,0.0363
1089.00,0.0354
1088.00,0.0347
1087.00,0.0341
1086.00,0.0337
1085.00,0.0336
1084.00,0.0335
1083.00,0.0336
1082.00,0.0337
1081.00,0.0339
1080.00,0.0344
1079.00,0.0350
1078.00,0.0358
1077.00,0.0367
1076.00,0.0376
1075.00,0.0385
1074.00,0.0395
1073.00,0.0406
1072.00,0.0419
1071.00,0.0433
1070.00,0.0451
1069.00,0.0473
1068.00,0.0500
1067.00,0.0534
1066.00,0.0573
1065.00,0.0617
1064.00,0.0666
1063.00,0.0718
1062.00,0.0770
1061.00,0.0818
1060.00,0.0859
1059.00,0.0890
1058.00,0.0906
1057.00,0.0904
1056.00,0.0883
1055.00,0.0844
1054.00,0.0791
1053.00,0.0731
1052.00,0.0671
1051.00,0.0615
1050.00,0.0565
1049.00,0.0525
1048.00,0.0493
1047.00,0.0469
1046.00,0.0451
1045.00,0.0437
1044.00,0.0427
1043.00,0.0420
1042.00,0.0416
1041.00,0.0413
1040.00,0.0412
1039.00,0.0412
1038.00,0.0413
1037.00,0.0415
1036.00,0.0419
1035.00,0.0425
1034.00,0.0432
1033.00,0.0440
1032.00,0.0449
1031.00,0.0456
1030.00,0.0458
1029.00,0.0455
1028.00,0.0445
1027.00,0.0432
1026.00,0.0418
1025.00,0.0405
1024.00,0.0396
1023.00,0.0390
1022.00,0.0387
1021.00,0.0386
1020.00,0.0387
1019.00,0.0388
1018.00,0.0388
1017.00,0.0387
1016.00,0.0382
1015.00,0.0375
1014.00,0.0365
1013.00,0.0354
1012.00,0.0344
1011.00,0.0336
1010.00,0.0334
1009.00,0.0338
1008.00,0.0348
1007.00,0.0360
1006.00,0.0372
1005.00,0.0381
1004.00,0.0388
1003.00,0.0393
1002.00,0.0395
1001.00,0.0393
1000.00,0.0387
999.00,0.0377
998.00,0.0366
997.00,0.0356
996.00,0.0347
995.00,0.0340
994.00,0.0333
993.00,0.0326
992.00,0.0319
991.00,0.0312
990.00,0.0304
989.00,0.0297
988.00,0.0290
987.00,0.0284
986.00,0.0278
985.00,0.0273
984.00,0.0268
983.00,0.0264
982.00,0.0262
981.00,0.0261
980.00,0.0262
979.00,0.0263
978.00,0.0264
977.00,0.0265
976.00,0.0266
975.00,0.0266
974.00,0.0265
973.00,0.0264
972.00,0.0263
971.00,0.0261
970.00,0.0260
969.00,0.0259
968.00,0.0259
967.00,0.0259
966.00,0.0261
965.00,0.0265
964.00,0.0272
963.00,0.0282
962.00,0.0296
961.00,0.0314
960.00,0.0335
959.00,0.0357
958.00,0.0379
957.00,0.0398
956.00,0.0411
955.00,0.0417
954.00,0.0415
953.00,0.0407
952.00,0.0394
951.00,0.0376
950.00,0.0356
949.00,0.0335
948.00,0.0317
947.00,0.0301
946.00,0.0289
945.00,0.0281
944.00,0.0276
943.00,0.0271
942.00,0.0268
941.00,0.0269
940.00,0.0273
939.00,0.0281
938.00,0.0291
937.00,0.0302
936.00,0.0313
935.00,0.0323
934.00,0.0330
933.00,0.0334
932.00,0.0334
931.00,0.0331
930.00,0.0325
929.00,0.0320
928.00,0.0316
927.00,0.0313
926.00,0.0311
925.00,0.0310
924.00,0.0307
923.00,0.0304
922.00,0.0299
921.00,0.0294
920.00,0.0289
919.00,0.0285
918.00,0.0280
917.00,0.0276
916.00,0.0271
915.00,0.0266
914.00,0.0261
913.00,0.0256
912.00,0.0253
911.00,0.0250
910.00,0.0249
909.00,0.0250
908.00,0.0252
907.00,0.0256
906.00,0.0261
905.00,0.0269
904.00,0.0278
903.00,0.0289
902.00,0.0299
901.00,0.0310
900.00,0.0320
899.00,0.0329
898.00,0.0335
897.00,0.0338
896.00,0.0337
895.00,0.0333
894.00,0.0326
893.00,0.0318
892.00,0.0309
891.00,0.0301
890.00,0.0293
889.00,0.0287
888.00,0.0283
887.00,0.0281
886.00,0.0281
885.00,0.0282
884.00,0.0285
883.00,0.0289
882.00,0.0295
881.00,0.0302
880.00,0.0311
879.00,0.0322
878.00,0.0335
877.00,0.0348
876.00,0.0362
875.00,0.0376
874.00,0.0388
873.00,0.0399
872.00,0.0408
871.00,0.0415
870.00,0.0419
869.00,0.0421
868.00,0.0420
867.00,0.0419
866.00,0.0418
865.00,0.0417
864.00,0.0417
863.00,0.0418
862.00,0.0419
861.00,0.0420
860.00,0.0422
859.00,0.0425
858.00,0.0429
857.00,0.0435
856.00,0.0442
855.00,0.0451
854.00,0.0460
853.00,0.0470
852.00,0.0480
851.00,0.0490
850.00,0.0499
849.00,0.0507
848.00,0.0515
847.00,0.0521
846.00,0.0526
845.00,0.0529
844.00,0.0530
843.00,0.0530
842.00,0.0530
841.00,0.0528
840.00,0.0527
839.00,0.0526
838.00,0.0524
837.00,0.0523
836.00,0.0523
835.00,0.0524
834.00,0.0524
833.00,0.0525
832.00,0.0525
831.00,0.0526
830.00,0.0525
829.00,0.0523
828.00,0.0520
827.00,0.0517
826.00,0.0516
825.00,0.0517
824.00,0.0521
823.00,0.0528
822.00,0.0537
821.00,0.0547
820.00,0.0559
819.00,0.0570
818.00,0.0577
817.00,0.0581
816.00,0.0581
815.00,0.0576
814.00,0.0569
813.00,0.0558
812.00,0.0543
811.00,0.0524
810.00,0.0500
809.00,0.0472
808.00,0.0442
807.00,0.0413
806.00,0.0386
805.00,0.0363
804.00,0.0345
803.00,0.0331
802.00,0.0320
801.00,0.0312
800.00,0.0307
799.00,0.0304
798.00,0.0302
797.00,0.0302
796.00,0.0302
795.00,0.0302
794.00,0.0302
793.00,0.0302
792.00,0.0303
791.00,0.0303
790.00,0.0303
789.00,0.0304
788.00,0.0305
787.00,0.0306
786.00,0.0306
785.00,0.0308
784.00,0.0310
783.00,0.0312
782.00,0.0314
781.00,0.0318
780.00,0.0322
779.00,0.0327
778.00,0.0331
777.00,0.0332
776.00,0.0332
775.00,0.0329
774.00,0.0325
773.00,0.0321
772.00,0.0320
771.00,0.0320
770.00,0.0322
769.00,0.0324
768.00,0.0327
767.00,0.0330
766.00,0.0333
765.00,0.0336
764.00,0.0340
763.00,0.0345
762.00,0.0350
761.00,0.0356
760.00,0.0363
759.00,0.0370
758.00,0.0377
757.00,0.0384
756.00,0.0391
755.00,0.0397
754.00,0.0404
753.00,0.0411
752.00,0.0418
751.00,0.0426
750.00,0.0433
749.00,0.0440
748.00,0.0447
747.00,0.0455
746.00,0.0463
745.00,0.0471
744.00,0.0481
743.00,0.0492
742.00,0.0506
741.00,0.0521
740.00,0.0539
739.00,0.0556
738.00,0.0569
737.00,0.0578
736.00,0.0580
735.00,0.0576
734.00,0.0566
733.00,0.0553
732.00,0.0539
731.00,0.0524
730.00,0.0508
729.00,0.0493
728.00,0.0479
727.00,0.0466
726.00,0.0453
725.00,0.0442
724.00,0.0432
723.00,0.0423
722.00,0.0415
721.00,0.0408
720.00,0.0403
719.00,0.0399
718.00,0.0397
717.00,0.0395
716.00,0.0394
715.00,0.0394
714.00,0.0393
713.00,0.0391
712.00,0.0389
711.00,0.0387
710.00,0.0383
709.00,0.0380
708.00,0.0379
707.00,0.0378
706.00,0.0377
705.00,0.0377
704.00,0.0379
703.00,0.0379
702.00,0.0380
701.00,0.0380
700.00,0.0383
699.00,0.0387
698.00,0.0392
697.00,0.0400
696.00,0.0410
695.00,0.0421
694.00,0.0432
693.00,0.0443
692.00,0.0452
691.00,0.0460
690.00,0.0465
689.00,0.0468
688.00,0.0470
687.00,0.0469
686.00,0.0466
685.00,0.0463
684.00,0.0461
683.00,0.0459
682.00,0.0457
681.00,0.0457
680.00,0.0458
679.00,0.0460
678.00,0.0462
677.00,0.0465
676.00,0.0470
675.00,0.0476
674.00,0.0482
673.00,0.0490
672.00,0.0499
671.00,0.0508
670.00,0.0518
669.00,0.0532
668.00,0.0549
667.00,0.0565
666.00,0.0573
665.00,0.0576
664.00,0.0582
663.00,0.0592
662.00,0.0604
661.00,0.0617
660.00,0.0631
659.00,0.0644
658.00,0.0658
657.00,0.0671
656.00,0.0685
655.00,0.0698
654.00,0.0710
653.00,0.0720
652.00,0.0730
651.00,0.0738
650.00,0.0743
649.00,0.0745
648.00,0.0746
647.00,0.0744
646.00,0.0739
645.00,0.0730
644.00,0.0720
643.00,0.0707
642.00,0.0693
641.00,0.0679
640.00,0.0665
639.00,0.0652
638.00,0.0639
637.00,0.0626
636.00,0.0614
635.00,0.0603
634.00,0.0593
633.00,0.0584
632.00,0.0577
631.00,0.0571
630.00,0.0566
629.00,0.0562
628.00,0.0560
627.00,0.0558
626.00,0.0556
625.00,0.0554
624.00,0.0552
623.00,0.0550
622.00,0.0547
621.00,0.0543
620.00,0.0540
619.00,0.0537
618.00,0.0533
617.00,0.0530
616.00,0.0528
615.00,0.0526
614.00,0.0524
613.00,0.0524
612.00,0.0525
611.00,0.0526
610.00,0.0528
609.00,0.0530
608.00,0.0534
607.00,0.0539
606.00,0.0541
605.00,0.0543
604.00,0.0545
603.00,0.0549
602.00,0.0553
601.00,0.0558
600.00,0.0563
599.00,0.0566
598.00,0.0566
597.00,0.0564
596.00,0.0562
595.00,0.0559
594.00,0.0557
593.00,0.0557
592.00,0.0560
591.00,0.0565
590.00,0.0574
589.00,0.0586
588.00,0.0603
587.00,0.0626
586.00,0.0651
585.00,0.0679
584.00,0.0705
583.00,0.0726
582.00,0.0739
581.00,0.0747
580.00,0.0752
579.00,0.0754
578.00,0.0753
577.00,0.0751
576.00,0.0750
575.00,0.0749
574.00,0.0747
573.00,0.0746
572.00,0.0744
571.00,0.0741
570.00,0.0737
569.00,0.0733
568.00,0.0731
567.00,0.0728
566.00,0.0722
565.00,0.0713
564.00,0.0705
563.00,0.0696
562.00,0.0685
561.00,0.0674
560.00,0.0665
559.00,0.0657
558.00,0.0650
557.00,0.0644
556.00,0.0637
555.00,0.0628
554.00,0.0618
553.00,0.0610
552.00,0.0605
551.00,0.0601
550.00,0.0596
549.00,0.0590
548.00,0.0585
547.00,0.0580
546.00,0.0572
545.00,0.0564
544.00,0.0558
543.00,0.0552
542.00,0.0546
541.00,0.0542
540.00,0.0540
539.00,0.0539
538.00,0.0540
537.00,0.0543
536.00,0.0547
535.00,0.0553
534.00,0.0562
533.00,0.0573
532.00,0.0584
531.00,0.0589
530.00,0.0588
529.00,0.0582
528.00,0.0576
527.00,0.0568
526.00,0.0557
525.00,0.0547
524.00,0.0538
523.00,0.0529
522.00,0.0519
521.00,0.0511
520.00,0.0505
519.00,0.0501
518.00,0.0496
517.00,0.0493
516.00,0.0493
515.00,0.0493
514.00,0.0491
513.00,0.0490
512.00,0.0492
511.00,0.0496
510.00,0.0499
509.00,0.0504
508.00,0.0509
507.00,0.0513
506.00,0.0512
505.00,0.0509
504.00,0.0506
503.00,0.0502
502.00,0.0498
501.00,0.0495
500.00,0.0495
499.00,0.0495
498.00,0.0494
497.00,0.0493
496.00,0.0495
495.00,0.0496
494.00,0.0496
493.00,0.0497
492.00,0.0500
491.00,0.0504
490.00,0.0508
489.00,0.0512
488.00,0.0516
487.00,0.0518
486.00,0.0516
485.00,0.0514
484.00,0.0514
483.00,0.0514
482.00,0.0511
481.00,0.0508
480.00,0.0506
479.00,0.0504
478.00,0.0504
477.00,0.0505
476.00,0.0509
475.00,0.0511
474.00,0.0508
473.00,0.0503
472.00,0.0500
471.00,0.0500
470.00,0.0497
469.00,0.0493
468.00,0.0491
467.00,0.0489
466.00,0.0488
465.00,0.0489
464.00,0.0492
463.00,0.0496
462.00,0.0497
461.00,0.0497
460.00,0.0496
459.00,0.0491
458.00,0.0485
457.00,0.0480
456.00,0.0479
455.00,0.0479
454.00,0.0475
453.00,0.0473
452.00,0.0472
451.00,0.0470
450.00,0.0466
449.00,0.0464
448.00,0.0466
447.00,0.0467
446.00,0.0465
445.00,0.0462
444.00,0.0460
443.00,0.0457
442.00,0.0451
441.00,0.0448
440.00,0.0449
439.00,0.0451
438.00,0.0450
437.00,0.0450
436.00,0.0452
435.00,0.0453
434.00,0.0450
433.00,0.0447
432.00,0.0446
431.00,0.0445
430.00,0.0443
429.00,0.0443
428.00,0.0447
427.00,0.0449
426.00,0.0448
425.00,0.0446
424.00,0.0449
423.00,0.0450
422.00,0.0448
421.00,0.0446
420.00,0.0451
419.00,0.0460
418.00,0.0465
417.00,0.0465
416.00,0.0465
415.00,0.0462
414.00,0.0457
413.00,0.0456
412.00,0.0463
411.00,0.0472
410.00,0.0480
409.00,0.0487
408.00,0.0495
407.00,0.0493
406.00,0.0478
405.00,0.0463
404.00,0.0458
403.00,0.0456
402.00,0.0449
401.00,0.0444
400.00,0.0448
