Created as New Dataset,Sample 272 By YargerLab Date Saturday, October 18 2025
cm-1,A
4000.00,0.0048
3999.00,0.0048
3998.00,0.0048
3997.00,0.0048
3996.00,0.0048
3995.00,0.0048
3994.00,0.0048
3993.00,0.0048
3992.00,0.0048
3991.00,0.0048
3990.00,0.0048
3989.00,0.0048
3988.00,0.0048
3987.00,0.0048
3986.00,0.0048
3985.00,0.0048
3984.00,0.0048
3983.00,0.0048
3982.00,0.0048
3981.00,0.0048
3980.00,0.0048
3979.00,0.0048
3978.00,0.0048
3977.00,0.0048
3976.00,0.0048
3975.00,0.0048
3974.00,0.0048
3973.00,0.0048
3972.00,0.0048
3971.00,0.0047
3970.00,0.0047
3969.00,0.0047
3968.00,0.0047
3967.00,0.0047
3966.00,0.0048
3965.00,0.0048
3964.00,0.0047
3963.00,0.0047
3962.00,0.0047
3961.00,0.0047
3960.00,0.0047
3959.00,0.0047
3958.00,0.0047
3957.00,0.0048
3956.00,0.0048
3955.00,0.0048
3954.00,0.0048
3953.00,0.0048
3952.00,0.0048
3951.00,0.0048
3950.00,0.0048
3949.00,0.0048
3948.00,0.0048
3947.00,0.0048
3946.00,0.0048
3945.00,0.0048
3944.00,0.0047
3943.00,0.0047
3942.00,0.0047
3941.00,0.0047
3940.00,0.0047
3939.00,0.0047
3938.00,0.0047
3937.00,0.0048
3936.00,0.0048
3935.00,0.0048
3934.00,0.0048
3933.00,0.0048
3932.00,0.0048
3931.00,0.0048
3930.00,0.0048
3929.00,0.0048
3928.00,0.0048
3927.00,0.0048
3926.00,0.0048
3925.00,0.0048
3924.00,0.0048
3923.00,0.0048
3922.00,0.0048
3921.00,0.0048
3920.00,0.0048
3919.00,0.0048
3918.00,0.0048
3917.00,0.0048
3916.00,0.0048
3915.00,0.0048
3914.00,0.0048
3913.00,0.0047
3912.00,0.0047
3911.00,0.0047
3910.00,0.0048
3909.00,0.0048
3908.00,0.0048
3907.00,0.0048
3906.00,0.0048
3905.00,0.0048
3904.00,0.0048
3903.00,0.0048
3902.00,0.0048
3901.00,0.0048
3900.00,0.0048
3899.00,0.0048
3898.00,0.0048
3897.00,0.0048
3896.00,0.0048
3895.00,0.0048
3894.00,0.0048
3893.00,0.0048
3892.00,0.0048
3891.00,0.0048
3890.00,0.0048
3889.00,0.0048
3888.00,0.0048
3887.00,0.0048
3886.00,0.0048
3885.00,0.0048
3884.00,0.0048
3883.00,0.0048
3882.00,0.0048
3881.00,0.0048
3880.00,0.0048
3879.00,0.0048
3878.00,0.0049
3877.00,0.0049
3876.00,0.0048
3875.00,0.0048
3874.00,0.0048
3873.00,0.0048
3872.00,0.0048
3871.00,0.0048
3870.00,0.0048
3869.00,0.0048
3868.00,0.0048
3867.00,0.0048
3866.00,0.0048
3865.00,0.0048
3864.00,0.0048
3863.00,0.0048
3862.00,0.0048
3861.00,0.0048
3860.00,0.0048
3859.00,0.0048
3858.00,0.0048
3857.00,0.0048
3856.00,0.0048
3855.00,0.0048
3854.00,0.0048
3853.00,0.0048
3852.00,0.0048
3851.00,0.0048
3850.00,0.0048
3849.00,0.0048
3848.00,0.0048
3847.00,0.0048
3846.00,0.0048
3845.00,0.0048
3844.00,0.0048
3843.00,0.0048
3842.00,0.0048
3841.00,0.0048
3840.00,0.0048
3839.00,0.0048
3838.00,0.0048
3837.00,0.0048
3836.00,0.0048
3835.00,0.0048
3834.00,0.0048
3833.00,0.0048
3832.00,0.0048
3831.00,0.0048
3830.00,0.0048
3829.00,0.0048
3828.00,0.0048
3827.00,0.0048
3826.00,0.0048
3825.00,0.0048
3824.00,0.0049
3823.00,0.0049
3822.00,0.0049
3821.00,0.0049
3820.00,0.0049
3819.00,0.0049
3818.00,0.0049
3817.00,0.0048
3816.00,0.0048
3815.00,0.0048
3814.00,0.0048
3813.00,0.0048
3812.00,0.0048
3811.00,0.0048
3810.00,0.0048
3809.00,0.0047
3808.00,0.0047
3807.00,0.0047
3806.00,0.0047
3805.00,0.0047
3804.00,0.0048
3803.00,0.0048
3802.00,0.0048
3801.00,0.0048
3800.00,0.0048
3799.00,0.0048
3798.00,0.0048
3797.00,0.0047
3796.00,0.0047
3795.00,0.0047
3794.00,0.0047
3793.00,0.0047
3792.00,0.0048
3791.00,0.0048
3790.00,0.0048
3789.00,0.0048
3788.00,0.0048
3787.00,0.0048
3786.00,0.0048
3785.00,0.0048
3784.00,0.0049
3783.00,0.0049
3782.00,0.0049
3781.00,0.0049
3780.00,0.0048
3779.00,0.0048
3778.00,0.0048
3777.00,0.0048
3776.00,0.0048
3775.00,0.0048
3774.00,0.0048
3773.00,0.0048
3772.00,0.0048
3771.00,0.0048
3770.00,0.0048
3769.00,0.0049
3768.00,0.0049
3767.00,0.0049
3766.00,0.0048
3765.00,0.0048
3764.00,0.0048
3763.00,0.0048
3762.00,0.0048
3761.00,0.0048
3760.00,0.0048
3759.00,0.0048
3758.00,0.0048
3757.00,0.0048
3756.00,0.0048
3755.00,0.0048
3754.00,0.0048
3753.00,0.0048
3752.00,0.0048
3751.00,0.0048
3750.00,0.0048
3749.00,0.0048
3748.00,0.0048
3747.00,0.0048
3746.00,0.0048
3745.00,0.0048
3744.00,0.0048
3743.00,0.0048
3742.00,0.0048
3741.00,0.0048
3740.00,0.0048
3739.00,0.0048
3738.00,0.0048
3737.00,0.0047
3736.00,0.0047
3735.00,0.0047
3734.00,0.0047
3733.00,0.0047
3732.00,0.0048
3731.00,0.0048
3730.00,0.0047
3729.00,0.0047
3728.00,0.0047
3727.00,0.0047
3726.00,0.0047
3725.00,0.0047
3724.00,0.0047
3723.00,0.0047
3722.00,0.0047
3721.00,0.0047
3720.00,0.0047
3719.00,0.0047
3718.00,0.0047
3717.00,0.0047
3716.00,0.0047
3715.00,0.0047
3714.00,0.0047
3713.00,0.0047
3712.00,0.0047
3711.00,0.0047
3710.00,0.0047
3709.00,0.0047
3708.00,0.0047
3707.00,0.0047
3706.00,0.0047
3705.00,0.0047
3704.00,0.0047
3703.00,0.0047
3702.00,0.0047
3701.00,0.0047
3700.00,0.0047
3699.00,0.0047
3698.00,0.0046
3697.00,0.0046
3696.00,0.0047
3695.00,0.0047
3694.00,0.0047
3693.00,0.0048
3692.00,0.0048
3691.00,0.0048
3690.00,0.0048
3689.00,0.0048
3688.00,0.0048
3687.00,0.0048
3686.00,0.0047
3685.00,0.0047
3684.00,0.0047
3683.00,0.0047
3682.00,0.0047
3681.00,0.0048
3680.00,0.0048
3679.00,0.0048
3678.00,0.0048
3677.00,0.0048
3676.00,0.0048
3675.00,0.0048
3674.00,0.0048
3673.00,0.0048
3672.00,0.0048
3671.00,0.0048
3670.00,0.0048
3669.00,0.0048
3668.00,0.0048
3667.00,0.0048
3666.00,0.0048
3665.00,0.0048
3664.00,0.0048
3663.00,0.0048
3662.00,0.0048
3661.00,0.0048
3660.00,0.0048
3659.00,0.0048
3658.00,0.0048
3657.00,0.0048
3656.00,0.0048
3655.00,0.0048
3654.00,0.0049
3653.00,0.0049
3652.00,0.0050
3651.00,0.0050
3650.00,0.0050
3649.00,0.0050
3648.00,0.0051
3647.00,0.0051
3646.00,0.0051
3645.00,0.0050
3644.00,0.0050
3643.00,0.0050
3642.00,0.0049
3641.00,0.0049
3640.00,0.0049
3639.00,0.0049
3638.00,0.0049
3637.00,0.0049
3636.00,0.0049
3635.00,0.0050
3634.00,0.0050
3633.00,0.0050
3632.00,0.0050
3631.00,0.0050
3630.00,0.0050
3629.00,0.0050
3628.00,0.0050
3627.00,0.0050
3626.00,0.0050
3625.00,0.0050
3624.00,0.0050
3623.00,0.0050
3622.00,0.0050
3621.00,0.0050
3620.00,0.0051
3619.00,0.0051
3618.00,0.0051
3617.00,0.0051
3616.00,0.0051
3615.00,0.0051
3614.00,0.0051
3613.00,0.0051
3612.00,0.0051
3611.00,0.0051
3610.00,0.0052
3609.00,0.0052
3608.00,0.0052
3607.00,0.0051
3606.00,0.0051
3605.00,0.0051
3604.00,0.0051
3603.00,0.0051
3602.00,0.0051
3601.00,0.0051
3600.00,0.0052
3599.00,0.0052
3598.00,0.0052
3597.00,0.0052
3596.00,0.0052
3595.00,0.0052
3594.00,0.0052
3593.00,0.0052
3592.00,0.0053
3591.00,0.0053
3590.00,0.0053
3589.00,0.0053
3588.00,0.0053
3587.00,0.0053
3586.00,0.0053
3585.00,0.0053
3584.00,0.0053
3583.00,0.0053
3582.00,0.0053
3581.00,0.0053
3580.00,0.0054
3579.00,0.0054
3578.00,0.0054
3577.00,0.0054
3576.00,0.0054
3575.00,0.0054
3574.00,0.0054
3573.00,0.0055
3572.00,0.0055
3571.00,0.0055
3570.00,0.0056
3569.00,0.0056
3568.00,0.0056
3567.00,0.0056
3566.00,0.0056
3565.00,0.0056
3564.00,0.0056
3563.00,0.0056
3562.00,0.0056
3561.00,0.0057
3560.00,0.0057
3559.00,0.0057
3558.00,0.0057
3557.00,0.0057
3556.00,0.0057
3555.00,0.0057
3554.00,0.0057
3553.00,0.0058
3552.00,0.0058
3551.00,0.0058
3550.00,0.0058
3549.00,0.0059
3548.00,0.0059
3547.00,0.0059
3546.00,0.0059
3545.00,0.0059
3544.00,0.0059
3543.00,0.0059
3542.00,0.0059
3541.00,0.0060
3540.00,0.0060
3539.00,0.0060
3538.00,0.0060
3537.00,0.0061
3536.00,0.0061
3535.00,0.0061
3534.00,0.0061
3533.00,0.0061
3532.00,0.0061
3531.00,0.0061
3530.00,0.0062
3529.00,0.0062
3528.00,0.0062
3527.00,0.0063
3526.00,0.0063
3525.00,0.0063
3524.00,0.0063
3523.00,0.0063
3522.00,0.0064
3521.00,0.0064
3520.00,0.0064
3519.00,0.0064
3518.00,0.0064
3517.00,0.0064
3516.00,0.0064
3515.00,0.0064
3514.00,0.0064
3513.00,0.0065
3512.00,0.0065
3511.00,0.0065
3510.00,0.0065
3509.00,0.0065
3508.00,0.0065
3507.00,0.0066
3506.00,0.0066
3505.00,0.0066
3504.00,0.0066
3503.00,0.0067
3502.00,0.0067
3501.00,0.0067
3500.00,0.0067
3499.00,0.0068
3498.00,0.0068
3497.00,0.0068
3496.00,0.0068
3495.00,0.0069
3494.00,0.0069
3493.00,0.0069
3492.00,0.0069
3491.00,0.0069
3490.00,0.0069
3489.00,0.0070
3488.00,0.0070
3487.00,0.0070
3486.00,0.0070
3485.00,0.0070
3484.00,0.0070
3483.00,0.0071
3482.00,0.0071
3481.00,0.0071
3480.00,0.0071
3479.00,0.0072
3478.00,0.0072
3477.00,0.0072
3476.00,0.0072
3475.00,0.0072
3474.00,0.0072
3473.00,0.0072
3472.00,0.0073
3471.00,0.0073
3470.00,0.0073
3469.00,0.0073
3468.00,0.0073
3467.00,0.0073
3466.00,0.0074
3465.00,0.0074
3464.00,0.0074
3463.00,0.0075
3462.00,0.0075
3461.00,0.0075
3460.00,0.0075
3459.00,0.0075
3458.00,0.0075
3457.00,0.0076
3456.00,0.0076
3455.00,0.0076
3454.00,0.0076
3453.00,0.0076
3452.00,0.0076
3451.00,0.0077
3450.00,0.0077
3449.00,0.0077
3448.00,0.0077
3447.00,0.0077
3446.00,0.0077
3445.00,0.0078
3444.00,0.0078
3443.00,0.0078
3442.00,0.0078
3441.00,0.0078
3440.00,0.0079
3439.00,0.0079
3438.00,0.0079
3437.00,0.0079
3436.00,0.0079
3435.00,0.0080
3434.00,0.0080
3433.00,0.0080
3432.00,0.0080
3431.00,0.0080
3430.00,0.0080
3429.00,0.0080
3428.00,0.0081
3427.00,0.0081
3426.00,0.0081
3425.00,0.0081
3424.00,0.0082
3423.00,0.0082
3422.00,0.0082
3421.00,0.0082
3420.00,0.0083
3419.00,0.0083
3418.00,0.0083
3417.00,0.0083
3416.00,0.0083
3415.00,0.0083
3414.00,0.0084
3413.00,0.0084
3412.00,0.0084
3411.00,0.0084
3410.00,0.0084
3409.00,0.0084
3408.00,0.0085
3407.00,0.0085
3406.00,0.0085
3405.00,0.0086
3404.00,0.0086
3403.00,0.0086
3402.00,0.0086
3401.00,0.0087
3400.00,0.0087
3399.00,0.0087
3398.00,0.0087
3397.00,0.0087
3396.00,0.0088
3395.00,0.0088
3394.00,0.0089
3393.00,0.0089
3392.00,0.0089
3391.00,0.0090
3390.00,0.0090
3389.00,0.0091
3388.00,0.0091
3387.00,0.0091
3386.00,0.0091
3385.00,0.0092
3384.00,0.0092
3383.00,0.0092
3382.00,0.0092
3381.00,0.0093
3380.00,0.0093
3379.00,0.0093
3378.00,0.0094
3377.00,0.0094
3376.00,0.0095
3375.00,0.0095
3374.00,0.0095
3373.00,0.0096
3372.00,0.0096
3371.00,0.0096
3370.00,0.0096
3369.00,0.0096
3368.00,0.0097
3367.00,0.0097
3366.00,0.0098
3365.00,0.0099
3364.00,0.0099
3363.00,0.0099
3362.00,0.0099
3361.00,0.0100
3360.00,0.0100
3359.00,0.0100
3358.00,0.0101
3357.00,0.0102
3356.00,0.0102
3355.00,0.0102
3354.00,0.0103
3353.00,0.0103
3352.00,0.0103
3351.00,0.0103
3350.00,0.0103
3349.00,0.0104
3348.00,0.0104
3347.00,0.0105
3346.00,0.0105
3345.00,0.0106
3344.00,0.0106
3343.00,0.0106
3342.00,0.0106
3341.00,0.0106
3340.00,0.0107
3339.00,0.0107
3338.00,0.0107
3337.00,0.0108
3336.00,0.0108
3335.00,0.0109
3334.00,0.0109
3333.00,0.0110
3332.00,0.0110
3331.00,0.0110
3330.00,0.0111
3329.00,0.0111
3328.00,0.0111
3327.00,0.0112
3326.00,0.0112
3325.00,0.0112
3324.00,0.0112
3323.00,0.0113
3322.00,0.0113
3321.00,0.0113
3320.00,0.0114
3319.00,0.0114
3318.00,0.0115
3317.00,0.0115
3316.00,0.0116
3315.00,0.0116
3314.00,0.0117
3313.00,0.0117
3312.00,0.0116
3311.00,0.0116
3310.00,0.0116
3309.00,0.0116
3308.00,0.0117
3307.00,0.0117
3306.00,0.0117
3305.00,0.0118
3304.00,0.0118
3303.00,0.0119
3302.00,0.0120
3301.00,0.0121
3300.00,0.0121
3299.00,0.0121
3298.00,0.0122
3297.00,0.0122
3296.00,0.0122
3295.00,0.0122
3294.00,0.0122
3293.00,0.0123
3292.00,0.0123
3291.00,0.0124
3290.00,0.0124
3289.00,0.0125
3288.00,0.0125
3287.00,0.0125
3286.00,0.0126
3285.00,0.0126
3284.00,0.0126
3283.00,0.0126
3282.00,0.0126
3281.00,0.0126
3280.00,0.0126
3279.00,0.0127
3278.00,0.0127
3277.00,0.0127
3276.00,0.0128
3275.00,0.0128
3274.00,0.0128
3273.00,0.0128
3272.00,0.0128
3271.00,0.0128
3270.00,0.0128
3269.00,0.0129
3268.00,0.0129
3267.00,0.0129
3266.00,0.0130
3265.00,0.0130
3264.00,0.0130
3263.00,0.0130
3262.00,0.0131
3261.00,0.0131
3260.00,0.0131
3259.00,0.0131
3258.00,0.0131
3257.00,0.0131
3256.00,0.0131
3255.00,0.0131
3254.00,0.0132
3253.00,0.0133
3252.00,0.0133
3251.00,0.0133
3250.00,0.0133
3249.00,0.0133
3248.00,0.0133
3247.00,0.0133
3246.00,0.0133
3245.00,0.0134
3244.00,0.0134
3243.00,0.0134
3242.00,0.0135
3241.00,0.0135
3240.00,0.0135
3239.00,0.0135
3238.00,0.0135
3237.00,0.0135
3236.00,0.0135
3235.00,0.0135
3234.00,0.0135
3233.00,0.0135
3232.00,0.0135
3231.00,0.0135
3230.00,0.0135
3229.00,0.0135
3228.00,0.0136
3227.00,0.0136
3226.00,0.0136
3225.00,0.0137
3224.00,0.0137
3223.00,0.0137
3222.00,0.0137
3221.00,0.0137
3220.00,0.0137
3219.00,0.0137
3218.00,0.0137
3217.00,0.0137
3216.00,0.0137
3215.00,0.0138
3214.00,0.0138
3213.00,0.0138
3212.00,0.0138
3211.00,0.0138
3210.00,0.0137
3209.00,0.0137
3208.00,0.0137
3207.00,0.0137
3206.00,0.0137
3205.00,0.0137
3204.00,0.0138
3203.00,0.0138
3202.00,0.0138
3201.00,0.0138
3200.00,0.0138
3199.00,0.0138
3198.00,0.0138
3197.00,0.0138
3196.00,0.0138
3195.00,0.0138
3194.00,0.0138
3193.00,0.0138
3192.00,0.0138
3191.00,0.0138
3190.00,0.0138
3189.00,0.0138
3188.00,0.0138
3187.00,0.0138
3186.00,0.0139
3185.00,0.0139
3184.00,0.0139
3183.00,0.0139
3182.00,0.0139
3181.00,0.0139
3180.00,0.0138
3179.00,0.0138
3178.00,0.0138
3177.00,0.0138
3176.00,0.0138
3175.00,0.0138
3174.00,0.0139
3173.00,0.0139
3172.00,0.0138
3171.00,0.0138
3170.00,0.0138
3169.00,0.0138
3168.00,0.0138
3167.00,0.0138
3166.00,0.0138
3165.00,0.0138
3164.00,0.0138
3163.00,0.0138
3162.00,0.0137
3161.00,0.0137
3160.00,0.0137
3159.00,0.0137
3158.00,0.0136
3157.00,0.0136
3156.00,0.0136
3155.00,0.0135
3154.00,0.0135
3153.00,0.0136
3152.00,0.0136
3151.00,0.0136
3150.00,0.0136
3149.00,0.0136
3148.00,0.0135
3147.00,0.0135
3146.00,0.0135
3145.00,0.0135
3144.00,0.0135
3143.00,0.0134
3142.00,0.0134
3141.00,0.0134
3140.00,0.0134
3139.00,0.0134
3138.00,0.0133
3137.00,0.0133
3136.00,0.0133
3135.00,0.0133
3134.00,0.0133
3133.00,0.0133
3132.00,0.0133
3131.00,0.0133
3130.00,0.0133
3129.00,0.0133
3128.00,0.0133
3127.00,0.0133
3126.00,0.0133
3125.00,0.0133
3124.00,0.0133
3123.00,0.0132
3122.00,0.0132
3121.00,0.0132
3120.00,0.0132
3119.00,0.0132
3118.00,0.0132
3117.00,0.0131
3116.00,0.0131
3115.00,0.0131
3114.00,0.0131
3113.00,0.0130
3112.00,0.0130
3111.00,0.0130
3110.00,0.0130
3109.00,0.0129
3108.00,0.0129
3107.00,0.0129
3106.00,0.0128
3105.00,0.0128
3104.00,0.0128
3103.00,0.0128
3102.00,0.0128
3101.00,0.0127
3100.00,0.0127
3099.00,0.0127
3098.00,0.0126
3097.00,0.0126
3096.00,0.0126
3095.00,0.0126
3094.00,0.0126
3093.00,0.0126
3092.00,0.0126
3091.00,0.0126
3090.00,0.0127
3089.00,0.0127
3088.00,0.0127
3087.00,0.0127
3086.00,0.0127
3085.00,0.0127
3084.00,0.0127
3083.00,0.0127
3082.00,0.0128
3081.00,0.0128
3080.00,0.0128
3079.00,0.0128
3078.00,0.0128
3077.00,0.0127
3076.00,0.0127
3075.00,0.0127
3074.00,0.0126
3073.00,0.0126
3072.00,0.0126
3071.00,0.0126
3070.00,0.0125
3069.00,0.0125
3068.00,0.0124
3067.00,0.0123
3066.00,0.0123
3065.00,0.0123
3064.00,0.0123
3063.00,0.0123
3062.00,0.0122
3061.00,0.0122
3060.00,0.0122
3059.00,0.0121
3058.00,0.0121
3057.00,0.0121
3056.00,0.0121
3055.00,0.0121
3054.00,0.0120
3053.00,0.0120
3052.00,0.0120
3051.00,0.0120
3050.00,0.0119
3049.00,0.0119
3048.00,0.0119
3047.00,0.0119
3046.00,0.0118
3045.00,0.0118
3044.00,0.0118
3043.00,0.0118
3042.00,0.0118
3041.00,0.0118
3040.00,0.0118
3039.00,0.0118
3038.00,0.0117
3037.00,0.0117
3036.00,0.0117
3035.00,0.0117
3034.00,0.0117
3033.00,0.0116
3032.00,0.0116
3031.00,0.0116
3030.00,0.0115
3029.00,0.0115
3028.00,0.0115
3027.00,0.0115
3026.00,0.0114
3025.00,0.0114
3024.00,0.0113
3023.00,0.0113
3022.00,0.0112
3021.00,0.0112
3020.00,0.0112
3019.00,0.0112
3018.00,0.0111
3017.00,0.0111
3016.00,0.0111
3015.00,0.0111
3014.00,0.0111
3013.00,0.0111
3012.00,0.0111
3011.00,0.0112
3010.00,0.0112
3009.00,0.0113
3008.00,0.0113
3007.00,0.0114
3006.00,0.0114
3005.00,0.0115
3004.00,0.0116
3003.00,0.0117
3002.00,0.0119
3001.00,0.0120
3000.00,0.0122
2999.00,0.0124
2998.00,0.0127
2997.00,0.0129
2996.00,0.0132
2995.00,0.0135
2994.00,0.0138
2993.00,0.0141
2992.00,0.0145
2991.00,0.0148
2990.00,0.0152
2989.00,0.0155
2988.00,0.0159
2987.00,0.0162
2986.00,0.0166
2985.00,0.0169
2984.00,0.0172
2983.00,0.0175
2982.00,0.0178
2981.00,0.0180
2980.00,0.0183
2979.00,0.0185
2978.00,0.0186
2977.00,0.0188
2976.00,0.0189
2975.00,0.0191
2974.00,0.0192
2973.00,0.0193
2972.00,0.0195
2971.00,0.0196
2970.00,0.0198
2969.00,0.0200
2968.00,0.0203
2967.00,0.0205
2966.00,0.0208
2965.00,0.0210
2964.00,0.0213
2963.00,0.0216
2962.00,0.0219
2961.00,0.0222
2960.00,0.0224
2959.00,0.0227
2958.00,0.0229
2957.00,0.0231
2956.00,0.0233
2955.00,0.0234
2954.00,0.0235
2953.00,0.0235
2952.00,0.0234
2951.00,0.0233
2950.00,0.0232
2949.00,0.0231
2948.00,0.0230
2947.00,0.0229
2946.00,0.0229
2945.00,0.0230
2944.00,0.0231
2943.00,0.0233
2942.00,0.0235
2941.00,0.0237
2940.00,0.0240
2939.00,0.0243
2938.00,0.0247
2937.00,0.0251
2936.00,0.0255
2935.00,0.0259
2934.00,0.0263
2933.00,0.0267
2932.00,0.0270
2931.00,0.0274
2930.00,0.0277
2929.00,0.0279
2928.00,0.0280
2927.00,0.0282
2926.00,0.0282
2925.00,0.0282
2924.00,0.0281
2923.00,0.0280
2922.00,0.0278
2921.00,0.0275
2920.00,0.0273
2919.00,0.0269
2918.00,0.0266
2917.00,0.0262
2916.00,0.0257
2915.00,0.0253
2914.00,0.0249
2913.00,0.0244
2912.00,0.0240
2911.00,0.0236
2910.00,0.0231
2909.00,0.0227
2908.00,0.0224
2907.00,0.0220
2906.00,0.0217
2905.00,0.0214
2904.00,0.0212
2903.00,0.0209
2902.00,0.0207
2901.00,0.0205
2900.00,0.0203
2899.00,0.0201
2898.00,0.0200
2897.00,0.0198
2896.00,0.0197
2895.00,0.0196
2894.00,0.0196
2893.00,0.0195
2892.00,0.0194
2891.00,0.0193
2890.00,0.0192
2889.00,0.0190
2888.00,0.0189
2887.00,0.0189
2886.00,0.0188
2885.00,0.0187
2884.00,0.0187
2883.00,0.0187
2882.00,0.0187
2881.00,0.0187
2880.00,0.0188
2879.00,0.0189
2878.00,0.0191
2877.00,0.0192
2876.00,0.0194
2875.00,0.0197
2874.00,0.0199
2873.00,0.0202
2872.00,0.0204
2871.00,0.0205
2870.00,0.0206
2869.00,0.0206
2868.00,0.0206
2867.00,0.0206
2866.00,0.0207
2865.00,0.0207
2864.00,0.0208
2863.00,0.0209
2862.00,0.0211
2861.00,0.0213
2860.00,0.0215
2859.00,0.0216
2858.00,0.0217
2857.00,0.0217
2856.00,0.0217
2855.00,0.0215
2854.00,0.0213
2853.00,0.0209
2852.00,0.0205
2851.00,0.0201
2850.00,0.0196
2849.00,0.0192
2848.00,0.0187
2847.00,0.0182
2846.00,0.0177
2845.00,0.0172
2844.00,0.0168
2843.00,0.0163
2842.00,0.0159
2841.00,0.0155
2840.00,0.0151
2839.00,0.0148
2838.00,0.0145
2837.00,0.0142
2836.00,0.0140
2835.00,0.0138
2834.00,0.0136
2833.00,0.0134
2832.00,0.0133
2831.00,0.0131
2830.00,0.0129
2829.00,0.0128
2828.00,0.0127
2827.00,0.0125
2826.00,0.0124
2825.00,0.0123
2824.00,0.0121
2823.00,0.0120
2822.00,0.0119
2821.00,0.0118
2820.00,0.0117
2819.00,0.0116
2818.00,0.0115
2817.00,0.0114
2816.00,0.0113
2815.00,0.0112
2814.00,0.0111
2813.00,0.0110
2812.00,0.0109
2811.00,0.0109
2810.00,0.0108
2809.00,0.0107
2808.00,0.0107
2807.00,0.0106
2806.00,0.0105
2805.00,0.0105
2804.00,0.0104
2803.00,0.0104
2802.00,0.0103
2801.00,0.0103
2800.00,0.0103
2799.00,0.0102
2798.00,0.0101
2797.00,0.0101
2796.00,0.0100
2795.00,0.0100
2794.00,0.0100
2793.00,0.0100
2792.00,0.0099
2791.00,0.0099
2790.00,0.0099
2789.00,0.0098
2788.00,0.0098
2787.00,0.0098
2786.00,0.0098
2785.00,0.0097
2784.00,0.0097
2783.00,0.0097
2782.00,0.0096
2781.00,0.0096
2780.00,0.0096
2779.00,0.0095
2778.00,0.0095
2777.00,0.0095
2776.00,0.0094
2775.00,0.0094
2774.00,0.0093
2773.00,0.0093
2772.00,0.0093
2771.00,0.0093
2770.00,0.0093
2769.00,0.0093
2768.00,0.0093
2767.00,0.0092
2766.00,0.0092
2765.00,0.0092
2764.00,0.0092
2763.00,0.0092
2762.00,0.0092
2761.00,0.0092
2760.00,0.0092
2759.00,0.0092
2758.00,0.0092
2757.00,0.0092
2756.00,0.0092
2755.00,0.0092
2754.00,0.0092
2753.00,0.0092
2752.00,0.0092
2751.00,0.0093
2750.00,0.0093
2749.00,0.0093
2748.00,0.0093
2747.00,0.0093
2746.00,0.0093
2745.00,0.0093
2744.00,0.0093
2743.00,0.0093
2742.00,0.0093
2741.00,0.0093
2740.00,0.0093
2739.00,0.0093
2738.00,0.0093
2737.00,0.0093
2736.00,0.0094
2735.00,0.0094
2734.00,0.0094
2733.00,0.0094
2732.00,0.0094
2731.00,0.0093
2730.00,0.0093
2729.00,0.0093
2728.00,0.0093
2727.00,0.0093
2726.00,0.0093
2725.00,0.0092
2724.00,0.0092
2723.00,0.0092
2722.00,0.0092
2721.00,0.0092
2720.00,0.0091
2719.00,0.0091
2718.00,0.0091
2717.00,0.0091
2716.00,0.0091
2715.00,0.0091
2714.00,0.0090
2713.00,0.0090
2712.00,0.0090
2711.00,0.0090
2710.00,0.0090
2709.00,0.0090
2708.00,0.0090
2707.00,0.0090
2706.00,0.0089
2705.00,0.0089
2704.00,0.0089
2703.00,0.0089
2702.00,0.0089
2701.00,0.0089
2700.00,0.0088
2699.00,0.0088
2698.00,0.0088
2697.00,0.0087
2696.00,0.0087
2695.00,0.0087
2694.00,0.0087
2693.00,0.0087
2692.00,0.0087
2691.00,0.0087
2690.00,0.0087
2689.00,0.0086
2688.00,0.0086
2687.00,0.0086
2686.00,0.0086
2685.00,0.0086
2684.00,0.0086
2683.00,0.0086
2682.00,0.0085
2681.00,0.0085
2680.00,0.0085
2679.00,0.0085
2678.00,0.0085
2677.00,0.0085
2676.00,0.0085
2675.00,0.0085
2674.00,0.0085
2673.00,0.0085
2672.00,0.0085
2671.00,0.0085
2670.00,0.0085
2669.00,0.0085
2668.00,0.0085
2667.00,0.0085
2666.00,0.0085
2665.00,0.0085
2664.00,0.0085
2663.00,0.0086
2662.00,0.0086
2661.00,0.0086
2660.00,0.0086
2659.00,0.0087
2658.00,0.0086
2657.00,0.0086
2656.00,0.0086
2655.00,0.0086
2654.00,0.0086
2653.00,0.0086
2652.00,0.0086
2651.00,0.0086
2650.00,0.0086
2649.00,0.0085
2648.00,0.0085
2647.00,0.0085
2646.00,0.0085
2645.00,0.0085
2644.00,0.0085
2643.00,0.0085
2642.00,0.0085
2641.00,0.0085
2640.00,0.0085
2639.00,0.0085
2638.00,0.0085
2637.00,0.0084
2636.00,0.0084
2635.00,0.0084
2634.00,0.0083
2633.00,0.0083
2632.00,0.0083
2631.00,0.0083
2630.00,0.0083
2629.00,0.0083
2628.00,0.0083
2627.00,0.0082
2626.00,0.0082
2625.00,0.0082
2624.00,0.0082
2623.00,0.0082
2622.00,0.0082
2621.00,0.0082
2620.00,0.0082
2619.00,0.0082
2618.00,0.0082
2617.00,0.0082
2616.00,0.0082
2615.00,0.0082
2614.00,0.0082
2613.00,0.0082
2612.00,0.0082
2611.00,0.0082
2610.00,0.0081
2609.00,0.0081
2608.00,0.0081
2607.00,0.0081
2606.00,0.0081
2605.00,0.0081
2604.00,0.0081
2603.00,0.0080
2602.00,0.0080
2601.00,0.0080
2600.00,0.0080
2599.00,0.0080
2598.00,0.0080
2597.00,0.0080
2596.00,0.0080
2595.00,0.0080
2594.00,0.0080
2593.00,0.0079
2592.00,0.0079
2591.00,0.0079
2590.00,0.0078
2589.00,0.0078
2588.00,0.0078
2587.00,0.0078
2586.00,0.0078
2585.00,0.0078
2584.00,0.0078
2583.00,0.0078
2582.00,0.0078
2581.00,0.0078
2580.00,0.0078
2579.00,0.0078
2578.00,0.0078
2577.00,0.0077
2576.00,0.0077
2575.00,0.0077
2574.00,0.0077
2573.00,0.0077
2572.00,0.0077
2571.00,0.0077
2570.00,0.0077
2569.00,0.0077
2568.00,0.0077
2567.00,0.0077
2566.00,0.0077
2565.00,0.0076
2564.00,0.0076
2563.00,0.0076
2562.00,0.0076
2561.00,0.0076
2560.00,0.0076
2559.00,0.0075
2558.00,0.0075
2557.00,0.0075
2556.00,0.0075
2555.00,0.0075
2554.00,0.0075
2553.00,0.0075
2552.00,0.0075
2551.00,0.0075
2550.00,0.0075
2549.00,0.0074
2548.00,0.0074
2547.00,0.0074
2546.00,0.0074
2545.00,0.0074
2544.00,0.0074
2543.00,0.0074
2542.00,0.0074
2541.00,0.0074
2540.00,0.0074
2539.00,0.0074
2538.00,0.0074
2537.00,0.0074
2536.00,0.0073
2535.00,0.0073
2534.00,0.0072
2533.00,0.0072
2532.00,0.0072
2531.00,0.0072
2530.00,0.0072
2529.00,0.0072
2528.00,0.0072
2527.00,0.0072
2526.00,0.0072
2525.00,0.0072
2524.00,0.0071
2523.00,0.0071
2522.00,0.0071
2521.00,0.0070
2520.00,0.0070
2519.00,0.0070
2518.00,0.0069
2517.00,0.0069
2516.00,0.0069
2515.00,0.0069
2514.00,0.0069
2513.00,0.0069
2512.00,0.0069
2511.00,0.0069
2510.00,0.0068
2509.00,0.0068
2508.00,0.0068
2507.00,0.0068
2506.00,0.0067
2505.00,0.0067
2504.00,0.0067
2503.00,0.0067
2502.00,0.0067
2501.00,0.0067
2500.00,0.0067
2499.00,0.0067
2498.00,0.0067
2497.00,0.0067
2496.00,0.0067
2495.00,0.0067
2494.00,0.0067
2493.00,0.0067
2492.00,0.0067
2491.00,0.0067
2490.00,0.0067
2489.00,0.0067
2488.00,0.0066
2487.00,0.0066
2486.00,0.0066
2485.00,0.0066
2484.00,0.0067
2483.00,0.0067
2482.00,0.0068
2481.00,0.0068
2480.00,0.0068
2479.00,0.0067
2478.00,0.0067
2477.00,0.0067
2476.00,0.0067
2475.00,0.0066
2474.00,0.0066
2473.00,0.0066
2472.00,0.0066
2471.00,0.0066
2470.00,0.0066
2469.00,0.0066
2468.00,0.0066
2467.00,0.0066
2466.00,0.0066
2465.00,0.0066
2464.00,0.0066
2463.00,0.0065
2462.00,0.0065
2461.00,0.0066
2460.00,0.0066
2459.00,0.0066
2458.00,0.0066
2457.00,0.0066
2456.00,0.0066
2455.00,0.0066
2454.00,0.0066
2453.00,0.0066
2452.00,0.0066
2451.00,0.0066
2450.00,0.0066
2449.00,0.0066
2448.00,0.0066
2447.00,0.0066
2446.00,0.0065
2445.00,0.0065
2444.00,0.0065
2443.00,0.0065
2442.00,0.0066
2441.00,0.0065
2440.00,0.0065
2439.00,0.0065
2438.00,0.0065
2437.00,0.0065
2436.00,0.0065
2435.00,0.0064
2434.00,0.0064
2433.00,0.0064
2432.00,0.0064
2431.00,0.0064
2430.00,0.0064
2429.00,0.0064
2428.00,0.0064
2427.00,0.0065
2426.00,0.0065
2425.00,0.0064
2424.00,0.0065
2423.00,0.0065
2422.00,0.0065
2421.00,0.0064
2420.00,0.0064
2419.00,0.0064
2418.00,0.0064
2417.00,0.0063
2416.00,0.0063
2415.00,0.0063
2414.00,0.0063
2413.00,0.0063
2412.00,0.0063
2411.00,0.0063
2410.00,0.0063
2409.00,0.0062
2408.00,0.0062
2407.00,0.0062
2406.00,0.0062
2405.00,0.0062
2404.00,0.0062
2403.00,0.0062
2402.00,0.0062
2401.00,0.0062
2400.00,0.0062
2399.00,0.0062
2398.00,0.0062
2397.00,0.0062
2396.00,0.0062
2395.00,0.0061
2394.00,0.0061
2393.00,0.0061
2392.00,0.0061
2391.00,0.0061
2390.00,0.0061
2389.00,0.0061
2388.00,0.0061
2387.00,0.0061
2386.00,0.0060
2385.00,0.0060
2384.00,0.0060
2383.00,0.0059
2382.00,0.0059
2381.00,0.0058
2380.00,0.0058
2379.00,0.0057
2378.00,0.0057
2377.00,0.0057
2376.00,0.0058
2375.00,0.0058
2374.00,0.0058
2373.00,0.0058
2372.00,0.0058
2371.00,0.0058
2370.00,0.0058
2369.00,0.0058
2368.00,0.0058
2367.00,0.0058
2366.00,0.0058
2365.00,0.0058
2364.00,0.0058
2363.00,0.0058
2362.00,0.0058
2361.00,0.0058
2360.00,0.0058
2359.00,0.0058
2358.00,0.0058
2357.00,0.0059
2356.00,0.0059
2355.00,0.0060
2354.00,0.0060
2353.00,0.0059
2352.00,0.0059
2351.00,0.0059
2350.00,0.0059
2349.00,0.0059
2348.00,0.0059
2347.00,0.0060
2346.00,0.0059
2345.00,0.0059
2344.00,0.0059
2343.00,0.0059
2342.00,0.0060
2341.00,0.0060
2340.00,0.0061
2339.00,0.0061
2338.00,0.0061
2337.00,0.0062
2336.00,0.0062
2335.00,0.0062
2334.00,0.0062
2333.00,0.0062
2332.00,0.0061
2331.00,0.0061
2330.00,0.0061
2329.00,0.0063
2328.00,0.0066
2327.00,0.0069
2326.00,0.0071
2325.00,0.0072
2324.00,0.0072
2323.00,0.0070
2322.00,0.0068
2321.00,0.0067
2320.00,0.0066
2319.00,0.0066
2318.00,0.0065
2317.00,0.0065
2316.00,0.0065
2315.00,0.0064
2314.00,0.0064
2313.00,0.0063
2312.00,0.0062
2311.00,0.0062
2310.00,0.0062
2309.00,0.0061
2308.00,0.0061
2307.00,0.0061
2306.00,0.0062
2305.00,0.0062
2304.00,0.0062
2303.00,0.0062
2302.00,0.0062
2301.00,0.0062
2300.00,0.0062
2299.00,0.0063
2298.00,0.0063
2297.00,0.0064
2296.00,0.0064
2295.00,0.0065
2294.00,0.0066
2293.00,0.0067
2292.00,0.0068
2291.00,0.0068
2290.00,0.0068
2289.00,0.0069
2288.00,0.0069
2287.00,0.0069
2286.00,0.0069
2285.00,0.0069
2284.00,0.0069
2283.00,0.0069
2282.00,0.0068
2281.00,0.0068
2280.00,0.0067
2279.00,0.0067
2278.00,0.0066
2277.00,0.0065
2276.00,0.0064
2275.00,0.0064
2274.00,0.0064
2273.00,0.0063
2272.00,0.0064
2271.00,0.0064
2270.00,0.0064
2269.00,0.0063
2268.00,0.0063
2267.00,0.0063
2266.00,0.0063
2265.00,0.0063
2264.00,0.0063
2263.00,0.0064
2262.00,0.0064
2261.00,0.0064
2260.00,0.0064
2259.00,0.0064
2258.00,0.0063
2257.00,0.0062
2256.00,0.0062
2255.00,0.0062
2254.00,0.0062
2253.00,0.0062
2252.00,0.0063
2251.00,0.0063
2250.00,0.0063
2249.00,0.0063
2248.00,0.0063
2247.00,0.0063
2246.00,0.0063
2245.00,0.0062
2244.00,0.0062
2243.00,0.0062
2242.00,0.0061
2241.00,0.0061
2240.00,0.0062
2239.00,0.0063
2238.00,0.0064
2237.00,0.0064
2236.00,0.0065
2235.00,0.0065
2234.00,0.0064
2233.00,0.0064
2232.00,0.0064
2231.00,0.0064
2230.00,0.0063
2229.00,0.0062
2228.00,0.0061
2227.00,0.0061
2226.00,0.0061
2225.00,0.0062
2224.00,0.0063
2223.00,0.0064
2222.00,0.0064
2221.00,0.0064
2220.00,0.0065
2219.00,0.0065
2218.00,0.0065
2217.00,0.0065
2216.00,0.0064
2215.00,0.0063
2214.00,0.0062
2213.00,0.0061
2212.00,0.0062
2211.00,0.0062
2210.00,0.0062
2209.00,0.0062
2208.00,0.0062
2207.00,0.0061
2206.00,0.0061
2205.00,0.0061
2204.00,0.0062
2203.00,0.0062
2202.00,0.0062
2201.00,0.0062
2200.00,0.0062
2199.00,0.0062
2198.00,0.0062
2197.00,0.0061
2196.00,0.0061
2195.00,0.0062
2194.00,0.0062
2193.00,0.0062
2192.00,0.0063
2191.00,0.0063
2190.00,0.0062
2189.00,0.0062
2188.00,0.0062
2187.00,0.0063
2186.00,0.0063
2185.00,0.0062
2184.00,0.0061
2183.00,0.0059
2182.00,0.0057
2181.00,0.0056
2180.00,0.0057
2179.00,0.0058
2178.00,0.0059
2177.00,0.0059
2176.00,0.0060
2175.00,0.0061
2174.00,0.0061
2173.00,0.0062
2172.00,0.0062
2171.00,0.0063
2170.00,0.0065
2169.00,0.0067
2168.00,0.0069
2167.00,0.0069
2166.00,0.0070
2165.00,0.0071
2164.00,0.0072
2163.00,0.0073
2162.00,0.0069
2161.00,0.0062
2160.00,0.0051
2159.00,0.0043
2158.00,0.0038
2157.00,0.0038
2156.00,0.0041
2155.00,0.0043
2154.00,0.0045
2153.00,0.0047
2152.00,0.0048
2151.00,0.0048
2150.00,0.0047
2149.00,0.0047
2148.00,0.0047
2147.00,0.0047
2146.00,0.0047
2145.00,0.0047
2144.00,0.0048
2143.00,0.0048
2142.00,0.0048
2141.00,0.0047
2140.00,0.0047
2139.00,0.0047
2138.00,0.0046
2137.00,0.0045
2136.00,0.0043
2135.00,0.0042
2134.00,0.0041
2133.00,0.0041
2132.00,0.0043
2131.00,0.0044
2130.00,0.0046
2129.00,0.0047
2128.00,0.0049
2127.00,0.0050
2126.00,0.0051
2125.00,0.0052
2124.00,0.0053
2123.00,0.0053
2122.00,0.0053
2121.00,0.0053
2120.00,0.0053
2119.00,0.0054
2118.00,0.0055
2117.00,0.0056
2116.00,0.0057
2115.00,0.0057
2114.00,0.0057
2113.00,0.0057
2112.00,0.0057
2111.00,0.0057
2110.00,0.0057
2109.00,0.0057
2108.00,0.0057
2107.00,0.0057
2106.00,0.0057
2105.00,0.0056
2104.00,0.0056
2103.00,0.0057
2102.00,0.0057
2101.00,0.0057
2100.00,0.0057
2099.00,0.0056
2098.00,0.0055
2097.00,0.0054
2096.00,0.0053
2095.00,0.0054
2094.00,0.0055
2093.00,0.0056
2092.00,0.0057
2091.00,0.0057
2090.00,0.0058
2089.00,0.0058
2088.00,0.0059
2087.00,0.0059
2086.00,0.0059
2085.00,0.0058
2084.00,0.0058
2083.00,0.0058
2082.00,0.0059
2081.00,0.0060
2080.00,0.0060
2079.00,0.0060
2078.00,0.0059
2077.00,0.0059
2076.00,0.0058
2075.00,0.0058
2074.00,0.0059
2073.00,0.0059
2072.00,0.0059
2071.00,0.0059
2070.00,0.0058
2069.00,0.0057
2068.00,0.0057
2067.00,0.0057
2066.00,0.0058
2065.00,0.0058
2064.00,0.0059
2063.00,0.0059
2062.00,0.0058
2061.00,0.0058
2060.00,0.0058
2059.00,0.0059
2058.00,0.0059
2057.00,0.0060
2056.00,0.0060
2055.00,0.0060
2054.00,0.0061
2053.00,0.0063
2052.00,0.0065
2051.00,0.0066
2050.00,0.0064
2049.00,0.0062
2048.00,0.0061
2047.00,0.0061
2046.00,0.0061
2045.00,0.0060
2044.00,0.0060
2043.00,0.0060
2042.00,0.0060
2041.00,0.0060
2040.00,0.0060
2039.00,0.0061
2038.00,0.0061
2037.00,0.0060
2036.00,0.0058
2035.00,0.0056
2034.00,0.0053
2033.00,0.0053
2032.00,0.0053
2031.00,0.0053
2030.00,0.0052
2029.00,0.0052
2028.00,0.0052
2027.00,0.0053
2026.00,0.0053
2025.00,0.0054
2024.00,0.0055
2023.00,0.0055
2022.00,0.0054
2021.00,0.0053
2020.00,0.0053
2019.00,0.0053
2018.00,0.0053
2017.00,0.0052
2016.00,0.0052
2015.00,0.0053
2014.00,0.0054
2013.00,0.0056
2012.00,0.0057
2011.00,0.0058
2010.00,0.0057
2009.00,0.0054
2008.00,0.0051
2007.00,0.0048
2006.00,0.0047
2005.00,0.0048
2004.00,0.0050
2003.00,0.0051
2002.00,0.0052
2001.00,0.0053
2000.00,0.0054
1999.00,0.0055
1998.00,0.0056
1997.00,0.0057
1996.00,0.0058
1995.00,0.0058
1994.00,0.0058
1993.00,0.0057
1992.00,0.0057
1991.00,0.0058
1990.00,0.0058
1989.00,0.0059
1988.00,0.0059
1987.00,0.0060
1986.00,0.0060
1985.00,0.0061
1984.00,0.0062
1983.00,0.0064
1982.00,0.0065
1981.00,0.0067
1980.00,0.0066
1979.00,0.0063
1978.00,0.0057
1977.00,0.0053
1976.00,0.0051
1975.00,0.0051
1974.00,0.0052
1973.00,0.0052
1972.00,0.0053
1971.00,0.0052
1970.00,0.0051
1969.00,0.0050
1968.00,0.0050
1967.00,0.0050
1966.00,0.0049
1965.00,0.0049
1964.00,0.0049
1963.00,0.0049
1962.00,0.0048
1961.00,0.0047
1960.00,0.0047
1959.00,0.0047
1958.00,0.0046
1957.00,0.0047
1956.00,0.0047
1955.00,0.0048
1954.00,0.0049
1953.00,0.0049
1952.00,0.0050
1951.00,0.0050
1950.00,0.0050
1949.00,0.0051
1948.00,0.0051
1947.00,0.0051
1946.00,0.0051
1945.00,0.0051
1944.00,0.0052
1943.00,0.0053
1942.00,0.0053
1941.00,0.0052
1940.00,0.0052
1939.00,0.0051
1938.00,0.0050
1937.00,0.0050
1936.00,0.0051
1935.00,0.0051
1934.00,0.0051
1933.00,0.0052
1932.00,0.0052
1931.00,0.0052
1930.00,0.0051
1929.00,0.0051
1928.00,0.0051
1927.00,0.0051
1926.00,0.0052
1925.00,0.0052
1924.00,0.0052
1923.00,0.0053
1922.00,0.0054
1921.00,0.0055
1920.00,0.0055
1919.00,0.0055
1918.00,0.0055
1917.00,0.0055
1916.00,0.0055
1915.00,0.0055
1914.00,0.0055
1913.00,0.0055
1912.00,0.0055
1911.00,0.0055
1910.00,0.0055
1909.00,0.0055
1908.00,0.0055
1907.00,0.0055
1906.00,0.0055
1905.00,0.0056
1904.00,0.0056
1903.00,0.0056
1902.00,0.0055
1901.00,0.0055
1900.00,0.0054
1899.00,0.0055
1898.00,0.0055
1897.00,0.0055
1896.00,0.0056
1895.00,0.0056
1894.00,0.0056
1893.00,0.0056
1892.00,0.0056
1891.00,0.0056
1890.00,0.0056
1889.00,0.0056
1888.00,0.0055
1887.00,0.0055
1886.00,0.0055
1885.00,0.0055
1884.00,0.0055
1883.00,0.0055
1882.00,0.0054
1881.00,0.0054
1880.00,0.0054
1879.00,0.0054
1878.00,0.0054
1877.00,0.0054
1876.00,0.0055
1875.00,0.0055
1874.00,0.0054
1873.00,0.0054
1872.00,0.0054
1871.00,0.0054
1870.00,0.0055
1869.00,0.0055
1868.00,0.0055
1867.00,0.0055
1866.00,0.0055
1865.00,0.0055
1864.00,0.0055
1863.00,0.0054
1862.00,0.0054
1861.00,0.0054
1860.00,0.0054
1859.00,0.0054
1858.00,0.0054
1857.00,0.0055
1856.00,0.0055
1855.00,0.0055
1854.00,0.0055
1853.00,0.0054
1852.00,0.0054
1851.00,0.0054
1850.00,0.0054
1849.00,0.0055
1848.00,0.0055
1847.00,0.0056
1846.00,0.0055
1845.00,0.0055
1844.00,0.0055
1843.00,0.0055
1842.00,0.0055
1841.00,0.0055
1840.00,0.0055
1839.00,0.0055
1838.00,0.0055
1837.00,0.0054
1836.00,0.0054
1835.00,0.0054
1834.00,0.0054
1833.00,0.0053
1832.00,0.0054
1831.00,0.0054
1830.00,0.0054
1829.00,0.0054
1828.00,0.0055
1827.00,0.0055
1826.00,0.0055
1825.00,0.0055
1824.00,0.0055
1823.00,0.0055
1822.00,0.0054
1821.00,0.0053
1820.00,0.0053
1819.00,0.0052
1818.00,0.0051
1817.00,0.0051
1816.00,0.0051
1815.00,0.0052
1814.00,0.0052
1813.00,0.0053
1812.00,0.0053
1811.00,0.0054
1810.00,0.0054
1809.00,0.0053
1808.00,0.0053
1807.00,0.0053
1806.00,0.0053
1805.00,0.0053
1804.00,0.0054
1803.00,0.0054
1802.00,0.0055
1801.00,0.0055
1800.00,0.0055
1799.00,0.0055
1798.00,0.0055
1797.00,0.0055
1796.00,0.0055
1795.00,0.0056
1794.00,0.0056
1793.00,0.0056
1792.00,0.0056
1791.00,0.0055
1790.00,0.0055
1789.00,0.0054
1788.00,0.0054
1787.00,0.0054
1786.00,0.0055
1785.00,0.0055
1784.00,0.0056
1783.00,0.0056
1782.00,0.0056
1781.00,0.0056
1780.00,0.0056
1779.00,0.0056
1778.00,0.0055
1777.00,0.0055
1776.00,0.0056
1775.00,0.0056
1774.00,0.0056
1773.00,0.0056
1772.00,0.0056
1771.00,0.0057
1770.00,0.0057
1769.00,0.0057
1768.00,0.0057
1767.00,0.0057
1766.00,0.0057
1765.00,0.0056
1764.00,0.0056
1763.00,0.0057
1762.00,0.0057
1761.00,0.0057
1760.00,0.0058
1759.00,0.0058
1758.00,0.0058
1757.00,0.0058
1756.00,0.0058
1755.00,0.0058
1754.00,0.0058
1753.00,0.0058
1752.00,0.0058
1751.00,0.0059
1750.00,0.0059
1749.00,0.0060
1748.00,0.0060
1747.00,0.0061
1746.00,0.0060
1745.00,0.0060
1744.00,0.0061
1743.00,0.0061
1742.00,0.0061
1741.00,0.0061
1740.00,0.0061
1739.00,0.0060
1738.00,0.0060
1737.00,0.0060
1736.00,0.0061
1735.00,0.0062
1734.00,0.0062
1733.00,0.0063
1732.00,0.0063
1731.00,0.0064
1730.00,0.0065
1729.00,0.0066
1728.00,0.0067
1727.00,0.0067
1726.00,0.0067
1725.00,0.0068
1724.00,0.0069
1723.00,0.0070
1722.00,0.0071
1721.00,0.0072
1720.00,0.0073
1719.00,0.0074
1718.00,0.0076
1717.00,0.0077
1716.00,0.0080
1715.00,0.0082
1714.00,0.0083
1713.00,0.0085
1712.00,0.0088
1711.00,0.0091
1710.00,0.0094
1709.00,0.0097
1708.00,0.0102
1707.00,0.0108
1706.00,0.0114
1705.00,0.0123
1704.00,0.0131
1703.00,0.0139
1702.00,0.0147
1701.00,0.0161
1700.00,0.0179
1699.00,0.0197
1698.00,0.0212
1697.00,0.0230
1696.00,0.0254
1695.00,0.0281
1694.00,0.0304
1693.00,0.0324
1692.00,0.0344
1691.00,0.0367
1690.00,0.0390
1689.00,0.0414
1688.00,0.0434
1687.00,0.0450
1686.00,0.0464
1685.00,0.0481
1684.00,0.0502
1683.00,0.0520
1682.00,0.0529
1681.00,0.0535
1680.00,0.0539
1679.00,0.0542
1678.00,0.0543
1677.00,0.0542
1676.00,0.0541
1675.00,0.0542
1674.00,0.0544
1673.00,0.0546
1672.00,0.0549
1671.00,0.0553
1670.00,0.0560
1669.00,0.0572
1668.00,0.0584
1667.00,0.0595
1666.00,0.0605
1665.00,0.0615
1664.00,0.0626
1663.00,0.0639
1662.00,0.0653
1661.00,0.0665
1660.00,0.0674
1659.00,0.0681
1658.00,0.0686
1657.00,0.0688
1656.00,0.0689
1655.00,0.0686
1654.00,0.0680
1653.00,0.0676
1652.00,0.0673
1651.00,0.0667
1650.00,0.0658
1649.00,0.0645
1648.00,0.0627
1647.00,0.0605
1646.00,0.0582
1645.00,0.0561
1644.00,0.0540
1643.00,0.0520
1642.00,0.0498
1641.00,0.0476
1640.00,0.0456
1639.00,0.0437
1638.00,0.0418
1637.00,0.0398
1636.00,0.0378
1635.00,0.0360
1634.00,0.0346
1633.00,0.0335
1632.00,0.0327
1631.00,0.0321
1630.00,0.0316
1629.00,0.0315
1628.00,0.0317
1627.00,0.0324
1626.00,0.0333
1625.00,0.0346
1624.00,0.0365
1623.00,0.0387
1622.00,0.0408
1621.00,0.0424
1620.00,0.0435
1619.00,0.0441
1618.00,0.0441
1617.00,0.0437
1616.00,0.0430
1615.00,0.0422
1614.00,0.0415
1613.00,0.0409
1612.00,0.0404
1611.00,0.0400
1610.00,0.0395
1609.00,0.0387
1608.00,0.0376
1607.00,0.0362
1606.00,0.0345
1605.00,0.0326
1604.00,0.0307
1603.00,0.0288
1602.00,0.0271
1601.00,0.0257
1600.00,0.0244
1599.00,0.0235
1598.00,0.0228
1597.00,0.0224
1596.00,0.0223
1595.00,0.0226
1594.00,0.0234
1593.00,0.0245
1592.00,0.0260
1591.00,0.0280
1590.00,0.0303
1589.00,0.0326
1588.00,0.0348
1587.00,0.0366
1586.00,0.0378
1585.00,0.0383
1584.00,0.0380
1583.00,0.0372
1582.00,0.0358
1581.00,0.0341
1580.00,0.0325
1579.00,0.0309
1578.00,0.0294
1577.00,0.0278
1576.00,0.0264
1575.00,0.0253
1574.00,0.0245
1573.00,0.0239
1572.00,0.0233
1571.00,0.0227
1570.00,0.0220
1569.00,0.0214
1568.00,0.0208
1567.00,0.0203
1566.00,0.0198
1565.00,0.0193
1564.00,0.0188
1563.00,0.0185
1562.00,0.0181
1561.00,0.0177
1560.00,0.0173
1559.00,0.0168
1558.00,0.0165
1557.00,0.0162
1556.00,0.0160
1555.00,0.0158
1554.00,0.0157
1553.00,0.0155
1552.00,0.0154
1551.00,0.0153
1550.00,0.0152
1549.00,0.0150
1548.00,0.0148
1547.00,0.0147
1546.00,0.0146
1545.00,0.0145
1544.00,0.0144
1543.00,0.0143
1542.00,0.0141
1541.00,0.0139
1540.00,0.0138
1539.00,0.0137
1538.00,0.0136
1537.00,0.0136
1536.00,0.0136
1535.00,0.0136
1534.00,0.0136
1533.00,0.0136
1532.00,0.0137
1531.00,0.0137
1530.00,0.0137
1529.00,0.0137
1528.00,0.0138
1527.00,0.0140
1526.00,0.0142
1525.00,0.0143
1524.00,0.0144
1523.00,0.0146
1522.00,0.0149
1521.00,0.0154
1520.00,0.0158
1519.00,0.0161
1518.00,0.0164
1517.00,0.0168
1516.00,0.0171
1515.00,0.0174
1514.00,0.0175
1513.00,0.0175
1512.00,0.0176
1511.00,0.0176
1510.00,0.0176
1509.00,0.0177
1508.00,0.0176
1507.00,0.0177
1506.00,0.0177
1505.00,0.0177
1504.00,0.0180
1503.00,0.0185
1502.00,0.0192
1501.00,0.0202
1500.00,0.0214
1499.00,0.0228
1498.00,0.0244
1497.00,0.0258
1496.00,0.0268
1495.00,0.0273
1494.00,0.0273
1493.00,0.0269
1492.00,0.0263
1491.00,0.0254
1490.00,0.0243
1489.00,0.0232
1488.00,0.0220
1487.00,0.0208
1486.00,0.0197
1485.00,0.0187
1484.00,0.0179
1483.00,0.0172
1482.00,0.0166
1481.00,0.0162
1480.00,0.0160
1479.00,0.0158
1478.00,0.0157
1477.00,0.0158
1476.00,0.0161
1475.00,0.0165
1474.00,0.0170
1473.00,0.0180
1472.00,0.0194
1471.00,0.0210
1470.00,0.0226
1469.00,0.0243
1468.00,0.0261
1467.00,0.0281
1466.00,0.0303
1465.00,0.0328
1464.00,0.0350
1463.00,0.0367
1462.00,0.0378
1461.00,0.0385
1460.00,0.0388
1459.00,0.0387
1458.00,0.0380
1457.00,0.0369
1456.00,0.0356
1455.00,0.0344
1454.00,0.0334
1453.00,0.0327
1452.00,0.0321
1451.00,0.0319
1450.00,0.0320
1449.00,0.0326
1448.00,0.0336
1447.00,0.0348
1446.00,0.0360
1445.00,0.0372
1444.00,0.0384
1443.00,0.0395
1442.00,0.0406
1441.00,0.0415
1440.00,0.0423
1439.00,0.0430
1438.00,0.0437
1437.00,0.0447
1436.00,0.0459
1435.00,0.0469
1434.00,0.0476
1433.00,0.0483
1432.00,0.0489
1431.00,0.0497
1430.00,0.0504
1429.00,0.0512
1428.00,0.0519
1427.00,0.0526
1426.00,0.0533
1425.00,0.0541
1424.00,0.0549
1423.00,0.0554
1422.00,0.0555
1421.00,0.0551
1420.00,0.0541
1419.00,0.0524
1418.00,0.0504
1417.00,0.0483
1416.00,0.0463
1415.00,0.0443
1414.00,0.0426
1413.00,0.0413
1412.00,0.0404
1411.00,0.0400
1410.00,0.0399
1409.00,0.0402
1408.00,0.0407
1407.00,0.0414
1406.00,0.0425
1405.00,0.0437
1404.00,0.0448
1403.00,0.0457
1402.00,0.0462
1401.00,0.0462
1400.00,0.0458
1399.00,0.0448
1398.00,0.0433
1397.00,0.0416
1396.00,0.0395
1395.00,0.0372
1394.00,0.0350
1393.00,0.0331
1392.00,0.0315
1391.00,0.0303
1390.00,0.0293
1389.00,0.0286
1388.00,0.0282
1387.00,0.0281
1386.00,0.0283
1385.00,0.0288
1384.00,0.0295
1383.00,0.0303
1382.00,0.0313
1381.00,0.0322
1380.00,0.0329
1379.00,0.0333
1378.00,0.0334
1377.00,0.0331
1376.00,0.0327
1375.00,0.0320
1374.00,0.0314
1373.00,0.0307
1372.00,0.0300
1371.00,0.0295
1370.00,0.0290
1369.00,0.0287
1368.00,0.0286
1367.00,0.0286
1366.00,0.0289
1365.00,0.0295
1364.00,0.0305
1363.00,0.0319
1362.00,0.0331
1361.00,0.0340
1360.00,0.0341
1359.00,0.0336
1358.00,0.0325
1357.00,0.0310
1356.00,0.0294
1355.00,0.0278
1354.00,0.0266
1353.00,0.0255
1352.00,0.0248
1351.00,0.0242
1350.00,0.0238
1349.00,0.0235
1348.00,0.0233
1347.00,0.0231
1346.00,0.0230
1345.00,0.0229
1344.00,0.0228
1343.00,0.0227
1342.00,0.0227
1341.00,0.0227
1340.00,0.0228
1339.00,0.0229
1338.00,0.0230
1337.00,0.0231
1336.00,0.0232
1335.00,0.0233
1334.00,0.0235
1333.00,0.0237
1332.00,0.0239
1331.00,0.0241
1330.00,0.0243
1329.00,0.0245
1328.00,0.0247
1327.00,0.0249
1326.00,0.0252
1325.00,0.0256
1324.00,0.0260
1323.00,0.0264
1322.00,0.0268
1321.00,0.0271
1320.00,0.0274
1319.00,0.0276
1318.00,0.0276
1317.00,0.0275
1316.00,0.0273
1315.00,0.0269
1314.00,0.0266
1313.00,0.0263
1312.00,0.0260
1311.00,0.0259
1310.00,0.0259
1309.00,0.0260
1308.00,0.0263
1307.00,0.0267
1306.00,0.0272
1305.00,0.0278
1304.00,0.0285
1303.00,0.0292
1302.00,0.0300
1301.00,0.0310
1300.00,0.0323
1299.00,0.0339
1298.00,0.0359
1297.00,0.0383
1296.00,0.0410
1295.00,0.0440
1294.00,0.0470
1293.00,0.0498
1292.00,0.0524
1291.00,0.0546
1290.00,0.0564
1289.00,0.0579
1288.00,0.0591
1287.00,0.0598
1286.00,0.0602
1285.00,0.0602
1284.00,0.0597
1283.00,0.0589
1282.00,0.0578
1281.00,0.0565
1280.00,0.0551
1279.00,0.0539
1278.00,0.0528
1277.00,0.0519
1276.00,0.0512
1275.00,0.0507
1274.00,0.0503
1273.00,0.0499
1272.00,0.0493
1271.00,0.0485
1270.00,0.0475
1269.00,0.0463
1268.00,0.0448
1267.00,0.0432
1266.00,0.0415
1265.00,0.0398
1264.00,0.0381
1263.00,0.0365
1262.00,0.0350
1261.00,0.0336
1260.00,0.0323
1259.00,0.0311
1258.00,0.0300
1257.00,0.0290
1256.00,0.0281
1255.00,0.0273
1254.00,0.0267
1253.00,0.0262
1252.00,0.0258
1251.00,0.0256
1250.00,0.0256
1249.00,0.0258
1248.00,0.0262
1247.00,0.0269
1246.00,0.0278
1245.00,0.0289
1244.00,0.0301
1243.00,0.0314
1242.00,0.0326
1241.00,0.0338
1240.00,0.0348
1239.00,0.0356
1238.00,0.0362
1237.00,0.0367
1236.00,0.0370
1235.00,0.0372
1234.00,0.0373
1233.00,0.0372
1232.00,0.0371
1231.00,0.0368
1230.00,0.0364
1229.00,0.0361
1228.00,0.0357
1227.00,0.0353
1226.00,0.0351
1225.00,0.0349
1224.00,0.0347
1223.00,0.0347
1222.00,0.0348
1221.00,0.0349
1220.00,0.0350
1219.00,0.0351
1218.00,0.0351
1217.00,0.0350
1216.00,0.0346
1215.00,0.0340
1214.00,0.0332
1213.00,0.0321
1212.00,0.0309
1211.00,0.0297
1210.00,0.0285
1209.00,0.0275
1208.00,0.0266
1207.00,0.0259
1206.00,0.0255
1205.00,0.0253
1204.00,0.0254
1203.00,0.0258
1202.00,0.0265
1201.00,0.0275
1200.00,0.0287
1199.00,0.0302
1198.00,0.0318
1197.00,0.0334
1196.00,0.0348
1195.00,0.0361
1194.00,0.0370
1193.00,0.0373
1192.00,0.0370
1191.00,0.0362
1190.00,0.0349
1189.00,0.0334
1188.00,0.0317
1187.00,0.0300
1186.00,0.0285
1185.00,0.0271
1184.00,0.0259
1183.00,0.0249
1182.00,0.0241
1181.00,0.0235
1180.00,0.0230
1179.00,0.0226
1178.00,0.0224
1177.00,0.0222
1176.00,0.0221
1175.00,0.0221
1174.00,0.0222
1173.00,0.0223
1172.00,0.0224
1171.00,0.0225
1170.00,0.0226
1169.00,0.0227
1168.00,0.0228
1167.00,0.0230
1166.00,0.0233
1165.00,0.0239
1164.00,0.0247
1163.00,0.0258
1162.00,0.0273
1161.00,0.0291
1160.00,0.0310
1159.00,0.0329
1158.00,0.0346
1157.00,0.0358
1156.00,0.0364
1155.00,0.0364
1154.00,0.0357
1153.00,0.0345
1152.00,0.0330
1151.00,0.0313
1150.00,0.0295
1149.00,0.0276
1148.00,0.0259
1147.00,0.0244
1146.00,0.0230
1145.00,0.0220
1144.00,0.0211
1143.00,0.0204
1142.00,0.0200
1141.00,0.0197
1140.00,0.0196
1139.00,0.0197
1138.00,0.0202
1137.00,0.0209
1136.00,0.0222
1135.00,0.0239
1134.00,0.0262
1133.00,0.0289
1132.00,0.0317
1131.00,0.0342
1130.00,0.0361
1129.00,0.0369
1128.00,0.0365
1127.00,0.0350
1126.00,0.0328
1125.00,0.0303
1124.00,0.0278
1123.00,0.0257
1122.00,0.0239
1121.00,0.0226
1120.00,0.0215
1119.00,0.0207
1118.00,0.0202
1117.00,0.0198
1116.00,0.0196
1115.00,0.0195
1114.00,0.0195
1113.00,0.0196
1112.00,0.0197
1111.00,0.0198
1110.00,0.0200
1109.00,0.0202
1108.00,0.0205
1107.00,0.0209
1106.00,0.0214
1105.00,0.0221
1104.00,0.0230
1103.00,0.0239
1102.00,0.0249
1101.00,0.0257
1100.00,0.0262
1099.00,0.0262
1098.00,0.0258
1097.00,0.0251
1096.00,0.0242
1095.00,0.0233
1094.00,0.0224
1093.00,0.0215
1092.00,0.0207
1091.00,0.0200
1090.00,0.0194
1089.00,0.0189
1088.00,0.0186
1087.00,0.0183
1086.00,0.0182
1085.00,0.0181
1084.00,0.0181
1083.00,0.0181
1082.00,0.0182
1081.00,0.0185
1080.00,0.0187
1079.00,0.0191
1078.00,0.0195
1077.00,0.0200
1076.00,0.0205
1075.00,0.0211
1074.00,0.0219
1073.00,0.0227
1072.00,0.0236
1071.00,0.0246
1070.00,0.0260
1069.00,0.0276
1068.00,0.0294
1067.00,0.0316
1066.00,0.0342
1065.00,0.0371
1064.00,0.0402
1063.00,0.0435
1062.00,0.0469
1061.00,0.0503
1060.00,0.0533
1059.00,0.0559
1058.00,0.0579
1057.00,0.0588
1056.00,0.0587
1055.00,0.0574
1054.00,0.0553
1053.00,0.0524
1052.00,0.0490
1051.00,0.0454
1050.00,0.0421
1049.00,0.0390
1048.00,0.0364
1047.00,0.0343
1046.00,0.0328
1045.00,0.0316
1044.00,0.0307
1043.00,0.0301
1042.00,0.0297
1041.00,0.0295
1040.00,0.0294
1039.00,0.0294
1038.00,0.0294
1037.00,0.0296
1036.00,0.0298
1035.00,0.0302
1034.00,0.0309
1033.00,0.0317
1032.00,0.0325
1031.00,0.0332
1030.00,0.0337
1029.00,0.0336
1028.00,0.0329
1027.00,0.0318
1026.00,0.0305
1025.00,0.0292
1024.00,0.0280
1023.00,0.0270
1022.00,0.0263
1021.00,0.0256
1020.00,0.0251
1019.00,0.0246
1018.00,0.0243
1017.00,0.0239
1016.00,0.0234
1015.00,0.0229
1014.00,0.0224
1013.00,0.0219
1012.00,0.0215
1011.00,0.0212
1010.00,0.0212
1009.00,0.0214
1008.00,0.0217
1007.00,0.0223
1006.00,0.0231
1005.00,0.0238
1004.00,0.0243
1003.00,0.0247
1002.00,0.0249
1001.00,0.0248
1000.00,0.0245
999.00,0.0241
998.00,0.0237
997.00,0.0233
996.00,0.0230
995.00,0.0227
994.00,0.0224
993.00,0.0221
992.00,0.0217
991.00,0.0213
990.00,0.0209
989.00,0.0205
988.00,0.0200
987.00,0.0195
986.00,0.0191
985.00,0.0187
984.00,0.0183
983.00,0.0181
982.00,0.0179
981.00,0.0178
980.00,0.0178
979.00,0.0178
978.00,0.0179
977.00,0.0180
976.00,0.0181
975.00,0.0181
974.00,0.0180
973.00,0.0179
972.00,0.0177
971.00,0.0174
970.00,0.0172
969.00,0.0170
968.00,0.0167
967.00,0.0165
966.00,0.0164
965.00,0.0162
964.00,0.0160
963.00,0.0158
962.00,0.0157
961.00,0.0156
960.00,0.0155
959.00,0.0154
958.00,0.0152
957.00,0.0151
956.00,0.0149
955.00,0.0147
954.00,0.0147
953.00,0.0146
952.00,0.0145
951.00,0.0144
950.00,0.0143
949.00,0.0143
948.00,0.0142
947.00,0.0142
946.00,0.0143
945.00,0.0144
944.00,0.0145
943.00,0.0146
942.00,0.0149
941.00,0.0153
940.00,0.0157
939.00,0.0163
938.00,0.0169
937.00,0.0176
936.00,0.0182
935.00,0.0187
934.00,0.0191
933.00,0.0193
932.00,0.0194
931.00,0.0193
930.00,0.0192
929.00,0.0191
928.00,0.0191
927.00,0.0192
926.00,0.0194
925.00,0.0195
924.00,0.0194
923.00,0.0193
922.00,0.0192
921.00,0.0190
920.00,0.0187
919.00,0.0183
918.00,0.0180
917.00,0.0177
916.00,0.0173
915.00,0.0169
914.00,0.0166
913.00,0.0163
912.00,0.0160
911.00,0.0159
910.00,0.0158
909.00,0.0158
908.00,0.0158
907.00,0.0160
906.00,0.0163
905.00,0.0167
904.00,0.0173
903.00,0.0179
902.00,0.0187
901.00,0.0194
900.00,0.0200
899.00,0.0206
898.00,0.0212
897.00,0.0215
896.00,0.0216
895.00,0.0214
894.00,0.0210
893.00,0.0205
892.00,0.0199
891.00,0.0193
890.00,0.0188
889.00,0.0184
888.00,0.0180
887.00,0.0179
886.00,0.0179
885.00,0.0180
884.00,0.0182
883.00,0.0185
882.00,0.0189
881.00,0.0195
880.00,0.0200
879.00,0.0208
878.00,0.0217
877.00,0.0227
876.00,0.0237
875.00,0.0247
874.00,0.0258
873.00,0.0267
872.00,0.0274
871.00,0.0279
870.00,0.0282
869.00,0.0282
868.00,0.0281
867.00,0.0279
866.00,0.0277
865.00,0.0276
864.00,0.0274
863.00,0.0273
862.00,0.0271
861.00,0.0270
860.00,0.0268
859.00,0.0267
858.00,0.0268
857.00,0.0270
856.00,0.0271
855.00,0.0274
854.00,0.0278
853.00,0.0282
852.00,0.0286
851.00,0.0290
850.00,0.0293
849.00,0.0296
848.00,0.0298
847.00,0.0301
846.00,0.0304
845.00,0.0306
844.00,0.0307
843.00,0.0308
842.00,0.0309
841.00,0.0309
840.00,0.0308
839.00,0.0308
838.00,0.0309
837.00,0.0310
836.00,0.0311
835.00,0.0312
834.00,0.0314
833.00,0.0316
832.00,0.0316
831.00,0.0317
830.00,0.0318
829.00,0.0319
828.00,0.0318
827.00,0.0318
826.00,0.0319
825.00,0.0321
824.00,0.0324
823.00,0.0328
822.00,0.0335
821.00,0.0342
820.00,0.0350
819.00,0.0358
818.00,0.0367
817.00,0.0375
816.00,0.0382
815.00,0.0388
814.00,0.0393
813.00,0.0396
812.00,0.0393
811.00,0.0386
810.00,0.0373
809.00,0.0356
808.00,0.0334
807.00,0.0311
806.00,0.0290
805.00,0.0270
804.00,0.0254
803.00,0.0241
802.00,0.0232
801.00,0.0225
800.00,0.0220
799.00,0.0216
798.00,0.0214
797.00,0.0213
796.00,0.0212
795.00,0.0211
794.00,0.0212
793.00,0.0212
792.00,0.0212
791.00,0.0212
790.00,0.0212
789.00,0.0213
788.00,0.0212
787.00,0.0212
786.00,0.0212
785.00,0.0212
784.00,0.0211
783.00,0.0212
782.00,0.0214
781.00,0.0217
780.00,0.0220
779.00,0.0224
778.00,0.0229
777.00,0.0232
776.00,0.0231
775.00,0.0228
774.00,0.0224
773.00,0.0220
772.00,0.0216
771.00,0.0214
770.00,0.0213
769.00,0.0213
768.00,0.0213
767.00,0.0214
766.00,0.0215
765.00,0.0217
764.00,0.0218
763.00,0.0219
762.00,0.0221
761.00,0.0224
760.00,0.0227
759.00,0.0230
758.00,0.0233
757.00,0.0236
756.00,0.0239
755.00,0.0242
754.00,0.0245
753.00,0.0248
752.00,0.0251
751.00,0.0254
750.00,0.0258
749.00,0.0261
748.00,0.0263
747.00,0.0266
746.00,0.0270
745.00,0.0275
744.00,0.0280
743.00,0.0286
742.00,0.0295
741.00,0.0305
740.00,0.0316
739.00,0.0328
738.00,0.0339
737.00,0.0347
736.00,0.0349
735.00,0.0346
734.00,0.0338
733.00,0.0328
732.00,0.0317
731.00,0.0306
730.00,0.0297
729.00,0.0288
728.00,0.0280
727.00,0.0273
726.00,0.0268
725.00,0.0263
724.00,0.0258
723.00,0.0253
722.00,0.0249
721.00,0.0246
720.00,0.0243
719.00,0.0241
718.00,0.0240
717.00,0.0240
716.00,0.0239
715.00,0.0239
714.00,0.0239
713.00,0.0239
712.00,0.0238
711.00,0.0236
710.00,0.0234
709.00,0.0232
708.00,0.0230
707.00,0.0227
706.00,0.0226
705.00,0.0226
704.00,0.0226
703.00,0.0226
702.00,0.0226
701.00,0.0227
700.00,0.0228
699.00,0.0230
698.00,0.0234
697.00,0.0239
696.00,0.0245
695.00,0.0252
694.00,0.0260
693.00,0.0267
692.00,0.0273
691.00,0.0278
690.00,0.0282
689.00,0.0283
688.00,0.0282
687.00,0.0279
686.00,0.0276
685.00,0.0272
684.00,0.0267
683.00,0.0262
682.00,0.0259
681.00,0.0258
680.00,0.0256
679.00,0.0254
678.00,0.0254
677.00,0.0254
676.00,0.0254
675.00,0.0255
674.00,0.0258
673.00,0.0261
672.00,0.0264
671.00,0.0268
670.00,0.0274
669.00,0.0282
668.00,0.0290
667.00,0.0296
666.00,0.0299
665.00,0.0299
664.00,0.0299
663.00,0.0302
662.00,0.0307
661.00,0.0311
660.00,0.0315
659.00,0.0319
658.00,0.0324
657.00,0.0329
656.00,0.0333
655.00,0.0336
654.00,0.0340
653.00,0.0344
652.00,0.0346
651.00,0.0347
650.00,0.0348
649.00,0.0348
648.00,0.0347
647.00,0.0345
646.00,0.0342
645.00,0.0339
644.00,0.0333
643.00,0.0327
642.00,0.0322
641.00,0.0317
640.00,0.0311
639.00,0.0305
638.00,0.0299
637.00,0.0293
636.00,0.0287
635.00,0.0281
634.00,0.0278
633.00,0.0274
632.00,0.0271
631.00,0.0268
630.00,0.0267
629.00,0.0267
628.00,0.0266
627.00,0.0266
626.00,0.0268
625.00,0.0269
624.00,0.0269
623.00,0.0268
622.00,0.0269
621.00,0.0268
620.00,0.0265
619.00,0.0262
618.00,0.0260
617.00,0.0257
616.00,0.0254
615.00,0.0252
614.00,0.0251
613.00,0.0250
612.00,0.0249
611.00,0.0249
610.00,0.0251
609.00,0.0254
608.00,0.0256
607.00,0.0258
606.00,0.0261
605.00,0.0263
604.00,0.0265
603.00,0.0266
602.00,0.0270
601.00,0.0272
600.00,0.0273
599.00,0.0274
598.00,0.0274
597.00,0.0273
596.00,0.0269
595.00,0.0265
594.00,0.0263
593.00,0.0261
592.00,0.0260
591.00,0.0260
590.00,0.0263
589.00,0.0268
588.00,0.0275
587.00,0.0287
586.00,0.0305
585.00,0.0324
584.00,0.0340
583.00,0.0352
582.00,0.0361
581.00,0.0366
580.00,0.0366
579.00,0.0363
578.00,0.0361
577.00,0.0357
576.00,0.0351
575.00,0.0346
574.00,0.0343
573.00,0.0339
572.00,0.0333
571.00,0.0329
570.00,0.0327
569.00,0.0326
568.00,0.0325
567.00,0.0325
566.00,0.0326
565.00,0.0326
564.00,0.0323
563.00,0.0319
562.00,0.0315
561.00,0.0310
560.00,0.0305
559.00,0.0301
558.00,0.0301
557.00,0.0300
556.00,0.0297
555.00,0.0292
554.00,0.0289
553.00,0.0286
552.00,0.0282
551.00,0.0280
550.00,0.0281
549.00,0.0281
548.00,0.0278
547.00,0.0273
546.00,0.0269
545.00,0.0265
544.00,0.0259
543.00,0.0254
542.00,0.0253
541.00,0.0254
540.00,0.0254
539.00,0.0255
538.00,0.0259
537.00,0.0265
536.00,0.0269
535.00,0.0275
534.00,0.0283
533.00,0.0291
532.00,0.0296
531.00,0.0299
530.00,0.0301
529.00,0.0299
528.00,0.0292
527.00,0.0283
526.00,0.0276
525.00,0.0268
524.00,0.0259
523.00,0.0251
522.00,0.0246
521.00,0.0242
520.00,0.0236
519.00,0.0232
518.00,0.0230
517.00,0.0229
516.00,0.0227
515.00,0.0226
514.00,0.0228
513.00,0.0230
512.00,0.0231
511.00,0.0232
510.00,0.0237
509.00,0.0242
508.00,0.0244
507.00,0.0244
506.00,0.0245
505.00,0.0243
504.00,0.0239
503.00,0.0234
502.00,0.0232
501.00,0.0230
500.00,0.0226
499.00,0.0223
498.00,0.0225
497.00,0.0226
496.00,0.0225
495.00,0.0223
494.00,0.0225
493.00,0.0227
492.00,0.0227
491.00,0.0228
490.00,0.0231
489.00,0.0234
488.00,0.0233
487.00,0.0233
486.00,0.0236
485.00,0.0239
484.00,0.0237
483.00,0.0236
482.00,0.0237
481.00,0.0235
480.00,0.0229
479.00,0.0225
478.00,0.0228
477.00,0.0231
476.00,0.0230
475.00,0.0229
474.00,0.0231
473.00,0.0232
472.00,0.0227
471.00,0.0224
470.00,0.0225
469.00,0.0227
468.00,0.0225
467.00,0.0223
466.00,0.0224
465.00,0.0223
464.00,0.0219
463.00,0.0217
462.00,0.0219
461.00,0.0221
460.00,0.0218
459.00,0.0216
458.00,0.0217
457.00,0.0218
456.00,0.0214
455.00,0.0211
454.00,0.0214
453.00,0.0216
452.00,0.0214
451.00,0.0212
450.00,0.0214
449.00,0.0215
448.00,0.0213
447.00,0.0211
446.00,0.0216
445.00,0.0219
444.00,0.0215
443.00,0.0210
442.00,0.0210
441.00,0.0209
440.00,0.0204
439.00,0.0200
438.00,0.0200
437.00,0.0201
436.00,0.0197
435.00,0.0194
434.00,0.0195
433.00,0.0195
432.00,0.0190
431.00,0.0188
430.00,0.0193
429.00,0.0200
428.00,0.0203
427.00,0.0205
426.00,0.0209
425.00,0.0211
424.00,0.0205
423.00,0.0200
422.00,0.0203
421.00,0.0207
420.00,0.0206
419.00,0.0211
418.00,0.0226
417.00,0.0234
416.00,0.0230
415.00,0.0226
414.00,0.0230
413.00,0.0234
412.00,0.0232
411.00,0.0233
410.00,0.0239
409.00,0.0239
408.00,0.0224
407.00,0.0212
406.00,0.0214
405.00,0.0213
404.00,0.0201
403.00,0.0195
402.00,0.0209
401.00,0.0221
400.00,0.0214
