Created as New Dataset,Sample 397 By YargerLab Date Thursday, December 04 2025
cm-1,A
4000.00,0.0169
3999.00,0.0169
3998.00,0.0168
3997.00,0.0168
3996.00,0.0168
3995.00,0.0169
3994.00,0.0169
3993.00,0.0169
3992.00,0.0169
3991.00,0.0169
3990.00,0.0169
3989.00,0.0169
3988.00,0.0169
3987.00,0.0169
3986.00,0.0169
3985.00,0.0169
3984.00,0.0169
3983.00,0.0169
3982.00,0.0168
3981.00,0.0168
3980.00,0.0169
3979.00,0.0169
3978.00,0.0169
3977.00,0.0169
3976.00,0.0169
3975.00,0.0169
3974.00,0.0169
3973.00,0.0169
3972.00,0.0168
3971.00,0.0168
3970.00,0.0168
3969.00,0.0168
3968.00,0.0168
3967.00,0.0168
3966.00,0.0168
3965.00,0.0168
3964.00,0.0168
3963.00,0.0168
3962.00,0.0168
3961.00,0.0169
3960.00,0.0169
3959.00,0.0169
3958.00,0.0169
3957.00,0.0169
3956.00,0.0169
3955.00,0.0169
3954.00,0.0169
3953.00,0.0169
3952.00,0.0169
3951.00,0.0169
3950.00,0.0169
3949.00,0.0169
3948.00,0.0169
3947.00,0.0169
3946.00,0.0169
3945.00,0.0169
3944.00,0.0169
3943.00,0.0169
3942.00,0.0170
3941.00,0.0170
3940.00,0.0170
3939.00,0.0170
3938.00,0.0169
3937.00,0.0169
3936.00,0.0169
3935.00,0.0169
3934.00,0.0169
3933.00,0.0169
3932.00,0.0169
3931.00,0.0169
3930.00,0.0169
3929.00,0.0169
3928.00,0.0169
3927.00,0.0169
3926.00,0.0169
3925.00,0.0169
3924.00,0.0169
3923.00,0.0169
3922.00,0.0169
3921.00,0.0169
3920.00,0.0169
3919.00,0.0169
3918.00,0.0169
3917.00,0.0169
3916.00,0.0169
3915.00,0.0169
3914.00,0.0169
3913.00,0.0169
3912.00,0.0169
3911.00,0.0169
3910.00,0.0169
3909.00,0.0168
3908.00,0.0168
3907.00,0.0168
3906.00,0.0168
3905.00,0.0168
3904.00,0.0168
3903.00,0.0168
3902.00,0.0168
3901.00,0.0168
3900.00,0.0168
3899.00,0.0168
3898.00,0.0168
3897.00,0.0168
3896.00,0.0168
3895.00,0.0168
3894.00,0.0168
3893.00,0.0168
3892.00,0.0168
3891.00,0.0168
3890.00,0.0168
3889.00,0.0168
3888.00,0.0168
3887.00,0.0168
3886.00,0.0168
3885.00,0.0168
3884.00,0.0168
3883.00,0.0168
3882.00,0.0167
3881.00,0.0167
3880.00,0.0167
3879.00,0.0167
3878.00,0.0167
3877.00,0.0167
3876.00,0.0167
3875.00,0.0167
3874.00,0.0167
3873.00,0.0167
3872.00,0.0167
3871.00,0.0167
3870.00,0.0167
3869.00,0.0167
3868.00,0.0168
3867.00,0.0168
3866.00,0.0168
3865.00,0.0168
3864.00,0.0168
3863.00,0.0167
3862.00,0.0167
3861.00,0.0167
3860.00,0.0167
3859.00,0.0167
3858.00,0.0167
3857.00,0.0167
3856.00,0.0168
3855.00,0.0168
3854.00,0.0168
3853.00,0.0168
3852.00,0.0168
3851.00,0.0168
3850.00,0.0167
3849.00,0.0167
3848.00,0.0167
3847.00,0.0167
3846.00,0.0166
3845.00,0.0166
3844.00,0.0166
3843.00,0.0166
3842.00,0.0166
3841.00,0.0167
3840.00,0.0167
3839.00,0.0167
3838.00,0.0167
3837.00,0.0167
3836.00,0.0167
3835.00,0.0167
3834.00,0.0167
3833.00,0.0167
3832.00,0.0167
3831.00,0.0167
3830.00,0.0167
3829.00,0.0167
3828.00,0.0167
3827.00,0.0167
3826.00,0.0167
3825.00,0.0167
3824.00,0.0167
3823.00,0.0167
3822.00,0.0167
3821.00,0.0167
3820.00,0.0167
3819.00,0.0166
3818.00,0.0166
3817.00,0.0166
3816.00,0.0166
3815.00,0.0166
3814.00,0.0166
3813.00,0.0166
3812.00,0.0166
3811.00,0.0166
3810.00,0.0166
3809.00,0.0166
3808.00,0.0165
3807.00,0.0165
3806.00,0.0165
3805.00,0.0166
3804.00,0.0166
3803.00,0.0166
3802.00,0.0166
3801.00,0.0167
3800.00,0.0167
3799.00,0.0167
3798.00,0.0166
3797.00,0.0166
3796.00,0.0166
3795.00,0.0166
3794.00,0.0166
3793.00,0.0166
3792.00,0.0166
3791.00,0.0166
3790.00,0.0166
3789.00,0.0166
3788.00,0.0166
3787.00,0.0166
3786.00,0.0166
3785.00,0.0166
3784.00,0.0166
3783.00,0.0166
3782.00,0.0166
3781.00,0.0166
3780.00,0.0166
3779.00,0.0166
3778.00,0.0166
3777.00,0.0166
3776.00,0.0166
3775.00,0.0166
3774.00,0.0166
3773.00,0.0166
3772.00,0.0166
3771.00,0.0166
3770.00,0.0166
3769.00,0.0166
3768.00,0.0166
3767.00,0.0166
3766.00,0.0166
3765.00,0.0166
3764.00,0.0166
3763.00,0.0166
3762.00,0.0166
3761.00,0.0166
3760.00,0.0165
3759.00,0.0165
3758.00,0.0166
3757.00,0.0166
3756.00,0.0166
3755.00,0.0166
3754.00,0.0167
3753.00,0.0167
3752.00,0.0167
3751.00,0.0167
3750.00,0.0167
3749.00,0.0167
3748.00,0.0167
3747.00,0.0167
3746.00,0.0167
3745.00,0.0166
3744.00,0.0166
3743.00,0.0166
3742.00,0.0166
3741.00,0.0165
3740.00,0.0165
3739.00,0.0164
3738.00,0.0164
3737.00,0.0164
3736.00,0.0164
3735.00,0.0164
3734.00,0.0164
3733.00,0.0164
3732.00,0.0164
3731.00,0.0164
3730.00,0.0164
3729.00,0.0164
3728.00,0.0164
3727.00,0.0164
3726.00,0.0163
3725.00,0.0163
3724.00,0.0163
3723.00,0.0164
3722.00,0.0164
3721.00,0.0164
3720.00,0.0163
3719.00,0.0163
3718.00,0.0163
3717.00,0.0163
3716.00,0.0163
3715.00,0.0163
3714.00,0.0163
3713.00,0.0163
3712.00,0.0163
3711.00,0.0163
3710.00,0.0162
3709.00,0.0162
3708.00,0.0162
3707.00,0.0162
3706.00,0.0162
3705.00,0.0162
3704.00,0.0162
3703.00,0.0162
3702.00,0.0162
3701.00,0.0162
3700.00,0.0162
3699.00,0.0162
3698.00,0.0162
3697.00,0.0162
3696.00,0.0162
3695.00,0.0162
3694.00,0.0162
3693.00,0.0162
3692.00,0.0162
3691.00,0.0162
3690.00,0.0162
3689.00,0.0162
3688.00,0.0163
3687.00,0.0163
3686.00,0.0162
3685.00,0.0162
3684.00,0.0162
3683.00,0.0162
3682.00,0.0162
3681.00,0.0162
3680.00,0.0162
3679.00,0.0162
3678.00,0.0161
3677.00,0.0161
3676.00,0.0161
3675.00,0.0162
3674.00,0.0162
3673.00,0.0163
3672.00,0.0163
3671.00,0.0163
3670.00,0.0163
3669.00,0.0163
3668.00,0.0163
3667.00,0.0162
3666.00,0.0162
3665.00,0.0162
3664.00,0.0162
3663.00,0.0163
3662.00,0.0163
3661.00,0.0162
3660.00,0.0162
3659.00,0.0162
3658.00,0.0162
3657.00,0.0162
3656.00,0.0161
3655.00,0.0162
3654.00,0.0162
3653.00,0.0162
3652.00,0.0162
3651.00,0.0162
3650.00,0.0162
3649.00,0.0162
3648.00,0.0161
3647.00,0.0161
3646.00,0.0161
3645.00,0.0161
3644.00,0.0161
3643.00,0.0161
3642.00,0.0161
3641.00,0.0160
3640.00,0.0160
3639.00,0.0160
3638.00,0.0160
3637.00,0.0160
3636.00,0.0160
3635.00,0.0160
3634.00,0.0160
3633.00,0.0160
3632.00,0.0159
3631.00,0.0159
3630.00,0.0159
3629.00,0.0159
3628.00,0.0160
3627.00,0.0160
3626.00,0.0160
3625.00,0.0159
3624.00,0.0159
3623.00,0.0159
3622.00,0.0159
3621.00,0.0159
3620.00,0.0159
3619.00,0.0159
3618.00,0.0159
3617.00,0.0159
3616.00,0.0159
3615.00,0.0159
3614.00,0.0159
3613.00,0.0159
3612.00,0.0159
3611.00,0.0159
3610.00,0.0159
3609.00,0.0159
3608.00,0.0159
3607.00,0.0159
3606.00,0.0159
3605.00,0.0159
3604.00,0.0159
3603.00,0.0158
3602.00,0.0158
3601.00,0.0158
3600.00,0.0158
3599.00,0.0158
3598.00,0.0158
3597.00,0.0157
3596.00,0.0157
3595.00,0.0157
3594.00,0.0157
3593.00,0.0157
3592.00,0.0157
3591.00,0.0157
3590.00,0.0157
3589.00,0.0156
3588.00,0.0156
3587.00,0.0156
3586.00,0.0156
3585.00,0.0157
3584.00,0.0157
3583.00,0.0157
3582.00,0.0157
3581.00,0.0156
3580.00,0.0156
3579.00,0.0156
3578.00,0.0156
3577.00,0.0156
3576.00,0.0156
3575.00,0.0156
3574.00,0.0156
3573.00,0.0156
3572.00,0.0156
3571.00,0.0156
3570.00,0.0156
3569.00,0.0156
3568.00,0.0156
3567.00,0.0156
3566.00,0.0156
3565.00,0.0156
3564.00,0.0156
3563.00,0.0156
3562.00,0.0156
3561.00,0.0156
3560.00,0.0156
3559.00,0.0156
3558.00,0.0156
3557.00,0.0156
3556.00,0.0156
3555.00,0.0156
3554.00,0.0156
3553.00,0.0156
3552.00,0.0156
3551.00,0.0156
3550.00,0.0156
3549.00,0.0156
3548.00,0.0156
3547.00,0.0156
3546.00,0.0156
3545.00,0.0156
3544.00,0.0156
3543.00,0.0156
3542.00,0.0156
3541.00,0.0156
3540.00,0.0156
3539.00,0.0156
3538.00,0.0156
3537.00,0.0155
3536.00,0.0155
3535.00,0.0155
3534.00,0.0155
3533.00,0.0155
3532.00,0.0155
3531.00,0.0155
3530.00,0.0155
3529.00,0.0155
3528.00,0.0155
3527.00,0.0155
3526.00,0.0155
3525.00,0.0155
3524.00,0.0155
3523.00,0.0155
3522.00,0.0155
3521.00,0.0155
3520.00,0.0155
3519.00,0.0155
3518.00,0.0155
3517.00,0.0155
3516.00,0.0155
3515.00,0.0154
3514.00,0.0154
3513.00,0.0154
3512.00,0.0154
3511.00,0.0153
3510.00,0.0153
3509.00,0.0153
3508.00,0.0153
3507.00,0.0154
3506.00,0.0154
3505.00,0.0154
3504.00,0.0154
3503.00,0.0154
3502.00,0.0154
3501.00,0.0154
3500.00,0.0154
3499.00,0.0153
3498.00,0.0153
3497.00,0.0153
3496.00,0.0153
3495.00,0.0153
3494.00,0.0153
3493.00,0.0152
3492.00,0.0152
3491.00,0.0152
3490.00,0.0152
3489.00,0.0152
3488.00,0.0152
3487.00,0.0152
3486.00,0.0152
3485.00,0.0152
3484.00,0.0152
3483.00,0.0152
3482.00,0.0152
3481.00,0.0152
3480.00,0.0152
3479.00,0.0151
3478.00,0.0151
3477.00,0.0151
3476.00,0.0151
3475.00,0.0151
3474.00,0.0151
3473.00,0.0151
3472.00,0.0151
3471.00,0.0151
3470.00,0.0150
3469.00,0.0150
3468.00,0.0150
3467.00,0.0150
3466.00,0.0150
3465.00,0.0150
3464.00,0.0150
3463.00,0.0149
3462.00,0.0149
3461.00,0.0149
3460.00,0.0149
3459.00,0.0149
3458.00,0.0149
3457.00,0.0149
3456.00,0.0149
3455.00,0.0149
3454.00,0.0149
3453.00,0.0149
3452.00,0.0149
3451.00,0.0149
3450.00,0.0149
3449.00,0.0149
3448.00,0.0149
3447.00,0.0149
3446.00,0.0149
3445.00,0.0149
3444.00,0.0149
3443.00,0.0149
3442.00,0.0149
3441.00,0.0149
3440.00,0.0149
3439.00,0.0149
3438.00,0.0148
3437.00,0.0148
3436.00,0.0148
3435.00,0.0148
3434.00,0.0148
3433.00,0.0148
3432.00,0.0148
3431.00,0.0148
3430.00,0.0148
3429.00,0.0148
3428.00,0.0149
3427.00,0.0149
3426.00,0.0149
3425.00,0.0148
3424.00,0.0148
3423.00,0.0148
3422.00,0.0149
3421.00,0.0149
3420.00,0.0149
3419.00,0.0149
3418.00,0.0149
3417.00,0.0149
3416.00,0.0149
3415.00,0.0149
3414.00,0.0149
3413.00,0.0149
3412.00,0.0149
3411.00,0.0149
3410.00,0.0149
3409.00,0.0150
3408.00,0.0150
3407.00,0.0150
3406.00,0.0150
3405.00,0.0150
3404.00,0.0151
3403.00,0.0151
3402.00,0.0151
3401.00,0.0151
3400.00,0.0151
3399.00,0.0152
3398.00,0.0153
3397.00,0.0153
3396.00,0.0154
3395.00,0.0154
3394.00,0.0154
3393.00,0.0155
3392.00,0.0156
3391.00,0.0156
3390.00,0.0157
3389.00,0.0158
3388.00,0.0160
3387.00,0.0161
3386.00,0.0162
3385.00,0.0163
3384.00,0.0165
3383.00,0.0166
3382.00,0.0167
3381.00,0.0168
3380.00,0.0170
3379.00,0.0171
3378.00,0.0172
3377.00,0.0174
3376.00,0.0175
3375.00,0.0177
3374.00,0.0178
3373.00,0.0179
3372.00,0.0180
3371.00,0.0180
3370.00,0.0182
3369.00,0.0183
3368.00,0.0186
3367.00,0.0189
3366.00,0.0192
3365.00,0.0196
3364.00,0.0199
3363.00,0.0202
3362.00,0.0205
3361.00,0.0209
3360.00,0.0213
3359.00,0.0218
3358.00,0.0223
3357.00,0.0229
3356.00,0.0234
3355.00,0.0239
3354.00,0.0244
3353.00,0.0250
3352.00,0.0256
3351.00,0.0264
3350.00,0.0272
3349.00,0.0282
3348.00,0.0293
3347.00,0.0304
3346.00,0.0316
3345.00,0.0329
3344.00,0.0344
3343.00,0.0360
3342.00,0.0378
3341.00,0.0397
3340.00,0.0418
3339.00,0.0439
3338.00,0.0461
3337.00,0.0484
3336.00,0.0506
3335.00,0.0526
3334.00,0.0544
3333.00,0.0560
3332.00,0.0573
3331.00,0.0582
3330.00,0.0589
3329.00,0.0594
3328.00,0.0597
3327.00,0.0599
3326.00,0.0600
3325.00,0.0601
3324.00,0.0601
3323.00,0.0599
3322.00,0.0596
3321.00,0.0591
3320.00,0.0584
3319.00,0.0575
3318.00,0.0565
3317.00,0.0553
3316.00,0.0540
3315.00,0.0527
3314.00,0.0513
3313.00,0.0499
3312.00,0.0485
3311.00,0.0472
3310.00,0.0459
3309.00,0.0447
3308.00,0.0436
3307.00,0.0426
3306.00,0.0417
3305.00,0.0409
3304.00,0.0401
3303.00,0.0394
3302.00,0.0388
3301.00,0.0382
3300.00,0.0377
3299.00,0.0371
3298.00,0.0367
3297.00,0.0362
3296.00,0.0358
3295.00,0.0354
3294.00,0.0350
3293.00,0.0347
3292.00,0.0343
3291.00,0.0340
3290.00,0.0336
3289.00,0.0333
3288.00,0.0329
3287.00,0.0325
3286.00,0.0321
3285.00,0.0317
3284.00,0.0313
3283.00,0.0309
3282.00,0.0306
3281.00,0.0303
3280.00,0.0300
3279.00,0.0297
3278.00,0.0295
3277.00,0.0293
3276.00,0.0291
3275.00,0.0290
3274.00,0.0289
3273.00,0.0289
3272.00,0.0288
3271.00,0.0288
3270.00,0.0288
3269.00,0.0288
3268.00,0.0289
3267.00,0.0289
3266.00,0.0289
3265.00,0.0289
3264.00,0.0289
3263.00,0.0288
3262.00,0.0288
3261.00,0.0287
3260.00,0.0286
3259.00,0.0285
3258.00,0.0284
3257.00,0.0283
3256.00,0.0282
3255.00,0.0281
3254.00,0.0281
3253.00,0.0280
3252.00,0.0280
3251.00,0.0279
3250.00,0.0279
3249.00,0.0278
3248.00,0.0278
3247.00,0.0278
3246.00,0.0278
3245.00,0.0278
3244.00,0.0278
3243.00,0.0279
3242.00,0.0279
3241.00,0.0279
3240.00,0.0279
3239.00,0.0278
3238.00,0.0277
3237.00,0.0276
3236.00,0.0274
3235.00,0.0272
3234.00,0.0269
3233.00,0.0267
3232.00,0.0265
3231.00,0.0263
3230.00,0.0261
3229.00,0.0258
3228.00,0.0256
3227.00,0.0253
3226.00,0.0250
3225.00,0.0247
3224.00,0.0245
3223.00,0.0243
3222.00,0.0241
3221.00,0.0239
3220.00,0.0237
3219.00,0.0235
3218.00,0.0233
3217.00,0.0231
3216.00,0.0229
3215.00,0.0228
3214.00,0.0226
3213.00,0.0224
3212.00,0.0223
3211.00,0.0221
3210.00,0.0220
3209.00,0.0219
3208.00,0.0218
3207.00,0.0217
3206.00,0.0216
3205.00,0.0215
3204.00,0.0214
3203.00,0.0213
3202.00,0.0212
3201.00,0.0211
3200.00,0.0210
3199.00,0.0209
3198.00,0.0208
3197.00,0.0208
3196.00,0.0207
3195.00,0.0206
3194.00,0.0205
3193.00,0.0204
3192.00,0.0204
3191.00,0.0203
3190.00,0.0203
3189.00,0.0202
3188.00,0.0202
3187.00,0.0202
3186.00,0.0202
3185.00,0.0201
3184.00,0.0201
3183.00,0.0201
3182.00,0.0201
3181.00,0.0201
3180.00,0.0201
3179.00,0.0201
3178.00,0.0200
3177.00,0.0200
3176.00,0.0200
3175.00,0.0200
3174.00,0.0199
3173.00,0.0199
3172.00,0.0199
3171.00,0.0198
3170.00,0.0198
3169.00,0.0197
3168.00,0.0197
3167.00,0.0197
3166.00,0.0197
3165.00,0.0197
3164.00,0.0196
3163.00,0.0196
3162.00,0.0196
3161.00,0.0196
3160.00,0.0196
3159.00,0.0196
3158.00,0.0196
3157.00,0.0196
3156.00,0.0196
3155.00,0.0196
3154.00,0.0196
3153.00,0.0196
3152.00,0.0196
3151.00,0.0196
3150.00,0.0197
3149.00,0.0197
3148.00,0.0197
3147.00,0.0198
3146.00,0.0198
3145.00,0.0198
3144.00,0.0198
3143.00,0.0198
3142.00,0.0198
3141.00,0.0198
3140.00,0.0198
3139.00,0.0199
3138.00,0.0199
3137.00,0.0199
3136.00,0.0200
3135.00,0.0200
3134.00,0.0200
3133.00,0.0201
3132.00,0.0201
3131.00,0.0202
3130.00,0.0202
3129.00,0.0203
3128.00,0.0204
3127.00,0.0205
3126.00,0.0206
3125.00,0.0207
3124.00,0.0207
3123.00,0.0208
3122.00,0.0209
3121.00,0.0211
3120.00,0.0212
3119.00,0.0213
3118.00,0.0215
3117.00,0.0216
3116.00,0.0218
3115.00,0.0220
3114.00,0.0222
3113.00,0.0224
3112.00,0.0226
3111.00,0.0229
3110.00,0.0231
3109.00,0.0233
3108.00,0.0236
3107.00,0.0238
3106.00,0.0239
3105.00,0.0241
3104.00,0.0242
3103.00,0.0243
3102.00,0.0243
3101.00,0.0243
3100.00,0.0242
3099.00,0.0241
3098.00,0.0240
3097.00,0.0238
3096.00,0.0236
3095.00,0.0234
3094.00,0.0232
3093.00,0.0230
3092.00,0.0229
3091.00,0.0228
3090.00,0.0227
3089.00,0.0226
3088.00,0.0226
3087.00,0.0226
3086.00,0.0227
3085.00,0.0228
3084.00,0.0229
3083.00,0.0229
3082.00,0.0230
3081.00,0.0229
3080.00,0.0229
3079.00,0.0229
3078.00,0.0228
3077.00,0.0227
3076.00,0.0225
3075.00,0.0222
3074.00,0.0219
3073.00,0.0216
3072.00,0.0213
3071.00,0.0211
3070.00,0.0209
3069.00,0.0209
3068.00,0.0208
3067.00,0.0209
3066.00,0.0210
3065.00,0.0211
3064.00,0.0212
3063.00,0.0213
3062.00,0.0213
3061.00,0.0213
3060.00,0.0212
3059.00,0.0210
3058.00,0.0208
3057.00,0.0207
3056.00,0.0206
3055.00,0.0205
3054.00,0.0204
3053.00,0.0203
3052.00,0.0202
3051.00,0.0202
3050.00,0.0202
3049.00,0.0203
3048.00,0.0203
3047.00,0.0202
3046.00,0.0202
3045.00,0.0202
3044.00,0.0202
3043.00,0.0202
3042.00,0.0203
3041.00,0.0204
3040.00,0.0205
3039.00,0.0206
3038.00,0.0207
3037.00,0.0208
3036.00,0.0208
3035.00,0.0209
3034.00,0.0210
3033.00,0.0211
3032.00,0.0212
3031.00,0.0213
3030.00,0.0214
3029.00,0.0215
3028.00,0.0216
3027.00,0.0216
3026.00,0.0216
3025.00,0.0216
3024.00,0.0215
3023.00,0.0215
3022.00,0.0214
3021.00,0.0213
3020.00,0.0213
3019.00,0.0212
3018.00,0.0211
3017.00,0.0211
3016.00,0.0211
3015.00,0.0211
3014.00,0.0212
3013.00,0.0213
3012.00,0.0215
3011.00,0.0217
3010.00,0.0220
3009.00,0.0224
3008.00,0.0228
3007.00,0.0232
3006.00,0.0237
3005.00,0.0243
3004.00,0.0248
3003.00,0.0254
3002.00,0.0259
3001.00,0.0264
3000.00,0.0268
2999.00,0.0271
2998.00,0.0274
2997.00,0.0275
2996.00,0.0274
2995.00,0.0272
2994.00,0.0267
2993.00,0.0262
2992.00,0.0257
2991.00,0.0253
2990.00,0.0249
2989.00,0.0245
2988.00,0.0242
2987.00,0.0240
2986.00,0.0239
2985.00,0.0238
2984.00,0.0237
2983.00,0.0236
2982.00,0.0236
2981.00,0.0235
2980.00,0.0234
2979.00,0.0233
2978.00,0.0232
2977.00,0.0231
2976.00,0.0231
2975.00,0.0230
2974.00,0.0231
2973.00,0.0231
2972.00,0.0232
2971.00,0.0233
2970.00,0.0233
2969.00,0.0234
2968.00,0.0235
2967.00,0.0238
2966.00,0.0241
2965.00,0.0246
2964.00,0.0253
2963.00,0.0261
2962.00,0.0270
2961.00,0.0282
2960.00,0.0294
2959.00,0.0307
2958.00,0.0319
2957.00,0.0330
2956.00,0.0338
2955.00,0.0344
2954.00,0.0346
2953.00,0.0345
2952.00,0.0340
2951.00,0.0333
2950.00,0.0323
2949.00,0.0312
2948.00,0.0301
2947.00,0.0291
2946.00,0.0281
2945.00,0.0273
2944.00,0.0266
2943.00,0.0261
2942.00,0.0257
2941.00,0.0253
2940.00,0.0251
2939.00,0.0248
2938.00,0.0247
2937.00,0.0245
2936.00,0.0244
2935.00,0.0243
2934.00,0.0242
2933.00,0.0241
2932.00,0.0240
2931.00,0.0238
2930.00,0.0237
2929.00,0.0235
2928.00,0.0233
2927.00,0.0231
2926.00,0.0229
2925.00,0.0226
2924.00,0.0224
2923.00,0.0222
2922.00,0.0220
2921.00,0.0218
2920.00,0.0217
2919.00,0.0215
2918.00,0.0215
2917.00,0.0214
2916.00,0.0214
2915.00,0.0215
2914.00,0.0215
2913.00,0.0216
2912.00,0.0217
2911.00,0.0217
2910.00,0.0217
2909.00,0.0217
2908.00,0.0217
2907.00,0.0216
2906.00,0.0216
2905.00,0.0215
2904.00,0.0215
2903.00,0.0215
2902.00,0.0215
2901.00,0.0214
2900.00,0.0214
2899.00,0.0213
2898.00,0.0212
2897.00,0.0212
2896.00,0.0211
2895.00,0.0211
2894.00,0.0211
2893.00,0.0211
2892.00,0.0211
2891.00,0.0211
2890.00,0.0211
2889.00,0.0211
2888.00,0.0212
2887.00,0.0213
2886.00,0.0213
2885.00,0.0214
2884.00,0.0214
2883.00,0.0214
2882.00,0.0214
2881.00,0.0215
2880.00,0.0215
2879.00,0.0215
2878.00,0.0216
2877.00,0.0216
2876.00,0.0217
2875.00,0.0217
2874.00,0.0218
2873.00,0.0219
2872.00,0.0221
2871.00,0.0221
2870.00,0.0222
2869.00,0.0221
2868.00,0.0221
2867.00,0.0220
2866.00,0.0219
2865.00,0.0217
2864.00,0.0215
2863.00,0.0214
2862.00,0.0211
2861.00,0.0209
2860.00,0.0208
2859.00,0.0206
2858.00,0.0205
2857.00,0.0204
2856.00,0.0202
2855.00,0.0202
2854.00,0.0201
2853.00,0.0201
2852.00,0.0201
2851.00,0.0202
2850.00,0.0204
2849.00,0.0206
2848.00,0.0210
2847.00,0.0214
2846.00,0.0218
2845.00,0.0222
2844.00,0.0224
2843.00,0.0226
2842.00,0.0226
2841.00,0.0224
2840.00,0.0222
2839.00,0.0219
2838.00,0.0217
2837.00,0.0214
2836.00,0.0212
2835.00,0.0211
2834.00,0.0209
2833.00,0.0208
2832.00,0.0206
2831.00,0.0206
2830.00,0.0205
2829.00,0.0204
2828.00,0.0204
2827.00,0.0204
2826.00,0.0203
2825.00,0.0203
2824.00,0.0203
2823.00,0.0203
2822.00,0.0203
2821.00,0.0203
2820.00,0.0203
2819.00,0.0203
2818.00,0.0203
2817.00,0.0204
2816.00,0.0204
2815.00,0.0204
2814.00,0.0204
2813.00,0.0204
2812.00,0.0205
2811.00,0.0205
2810.00,0.0205
2809.00,0.0205
2808.00,0.0205
2807.00,0.0205
2806.00,0.0205
2805.00,0.0204
2804.00,0.0204
2803.00,0.0204
2802.00,0.0203
2801.00,0.0203
2800.00,0.0202
2799.00,0.0201
2798.00,0.0201
2797.00,0.0200
2796.00,0.0199
2795.00,0.0198
2794.00,0.0198
2793.00,0.0197
2792.00,0.0197
2791.00,0.0196
2790.00,0.0195
2789.00,0.0194
2788.00,0.0193
2787.00,0.0192
2786.00,0.0192
2785.00,0.0191
2784.00,0.0191
2783.00,0.0190
2782.00,0.0190
2781.00,0.0190
2780.00,0.0189
2779.00,0.0189
2778.00,0.0189
2777.00,0.0188
2776.00,0.0188
2775.00,0.0188
2774.00,0.0188
2773.00,0.0188
2772.00,0.0188
2771.00,0.0188
2770.00,0.0188
2769.00,0.0188
2768.00,0.0188
2767.00,0.0188
2766.00,0.0188
2765.00,0.0188
2764.00,0.0188
2763.00,0.0187
2762.00,0.0187
2761.00,0.0187
2760.00,0.0187
2759.00,0.0187
2758.00,0.0187
2757.00,0.0187
2756.00,0.0187
2755.00,0.0186
2754.00,0.0186
2753.00,0.0186
2752.00,0.0186
2751.00,0.0186
2750.00,0.0186
2749.00,0.0186
2748.00,0.0185
2747.00,0.0186
2746.00,0.0186
2745.00,0.0186
2744.00,0.0185
2743.00,0.0185
2742.00,0.0185
2741.00,0.0185
2740.00,0.0185
2739.00,0.0185
2738.00,0.0184
2737.00,0.0184
2736.00,0.0184
2735.00,0.0184
2734.00,0.0184
2733.00,0.0184
2732.00,0.0184
2731.00,0.0185
2730.00,0.0184
2729.00,0.0184
2728.00,0.0185
2727.00,0.0185
2726.00,0.0185
2725.00,0.0185
2724.00,0.0185
2723.00,0.0185
2722.00,0.0185
2721.00,0.0185
2720.00,0.0185
2719.00,0.0185
2718.00,0.0185
2717.00,0.0185
2716.00,0.0185
2715.00,0.0185
2714.00,0.0185
2713.00,0.0185
2712.00,0.0185
2711.00,0.0184
2710.00,0.0184
2709.00,0.0184
2708.00,0.0184
2707.00,0.0184
2706.00,0.0184
2705.00,0.0184
2704.00,0.0184
2703.00,0.0184
2702.00,0.0184
2701.00,0.0184
2700.00,0.0184
2699.00,0.0184
2698.00,0.0184
2697.00,0.0184
2696.00,0.0184
2695.00,0.0184
2694.00,0.0184
2693.00,0.0184
2692.00,0.0184
2691.00,0.0184
2690.00,0.0184
2689.00,0.0184
2688.00,0.0183
2687.00,0.0183
2686.00,0.0183
2685.00,0.0183
2684.00,0.0183
2683.00,0.0183
2682.00,0.0183
2681.00,0.0183
2680.00,0.0183
2679.00,0.0183
2678.00,0.0184
2677.00,0.0184
2676.00,0.0184
2675.00,0.0184
2674.00,0.0183
2673.00,0.0183
2672.00,0.0183
2671.00,0.0183
2670.00,0.0183
2669.00,0.0183
2668.00,0.0183
2667.00,0.0183
2666.00,0.0183
2665.00,0.0183
2664.00,0.0184
2663.00,0.0184
2662.00,0.0184
2661.00,0.0184
2660.00,0.0184
2659.00,0.0184
2658.00,0.0184
2657.00,0.0184
2656.00,0.0184
2655.00,0.0184
2654.00,0.0184
2653.00,0.0184
2652.00,0.0185
2651.00,0.0185
2650.00,0.0185
2649.00,0.0185
2648.00,0.0185
2647.00,0.0185
2646.00,0.0185
2645.00,0.0185
2644.00,0.0185
2643.00,0.0185
2642.00,0.0185
2641.00,0.0185
2640.00,0.0185
2639.00,0.0184
2638.00,0.0184
2637.00,0.0183
2636.00,0.0183
2635.00,0.0183
2634.00,0.0183
2633.00,0.0183
2632.00,0.0182
2631.00,0.0182
2630.00,0.0183
2629.00,0.0183
2628.00,0.0183
2627.00,0.0183
2626.00,0.0183
2625.00,0.0184
2624.00,0.0184
2623.00,0.0184
2622.00,0.0184
2621.00,0.0184
2620.00,0.0184
2619.00,0.0184
2618.00,0.0184
2617.00,0.0184
2616.00,0.0184
2615.00,0.0184
2614.00,0.0183
2613.00,0.0183
2612.00,0.0183
2611.00,0.0183
2610.00,0.0182
2609.00,0.0182
2608.00,0.0182
2607.00,0.0182
2606.00,0.0181
2605.00,0.0181
2604.00,0.0181
2603.00,0.0181
2602.00,0.0180
2601.00,0.0180
2600.00,0.0180
2599.00,0.0180
2598.00,0.0179
2597.00,0.0179
2596.00,0.0178
2595.00,0.0178
2594.00,0.0178
2593.00,0.0177
2592.00,0.0177
2591.00,0.0177
2590.00,0.0177
2589.00,0.0177
2588.00,0.0177
2587.00,0.0177
2586.00,0.0177
2585.00,0.0177
2584.00,0.0177
2583.00,0.0177
2582.00,0.0176
2581.00,0.0176
2580.00,0.0176
2579.00,0.0176
2578.00,0.0176
2577.00,0.0175
2576.00,0.0175
2575.00,0.0175
2574.00,0.0175
2573.00,0.0174
2572.00,0.0174
2571.00,0.0174
2570.00,0.0174
2569.00,0.0173
2568.00,0.0173
2567.00,0.0173
2566.00,0.0172
2565.00,0.0173
2564.00,0.0173
2563.00,0.0173
2562.00,0.0173
2561.00,0.0173
2560.00,0.0173
2559.00,0.0173
2558.00,0.0173
2557.00,0.0173
2556.00,0.0173
2555.00,0.0173
2554.00,0.0174
2553.00,0.0174
2552.00,0.0174
2551.00,0.0174
2550.00,0.0173
2549.00,0.0173
2548.00,0.0174
2547.00,0.0174
2546.00,0.0174
2545.00,0.0174
2544.00,0.0174
2543.00,0.0173
2542.00,0.0173
2541.00,0.0173
2540.00,0.0174
2539.00,0.0174
2538.00,0.0175
2537.00,0.0175
2536.00,0.0175
2535.00,0.0175
2534.00,0.0175
2533.00,0.0175
2532.00,0.0175
2531.00,0.0174
2530.00,0.0174
2529.00,0.0173
2528.00,0.0173
2527.00,0.0173
2526.00,0.0172
2525.00,0.0172
2524.00,0.0172
2523.00,0.0172
2522.00,0.0172
2521.00,0.0172
2520.00,0.0172
2519.00,0.0172
2518.00,0.0172
2517.00,0.0172
2516.00,0.0171
2515.00,0.0171
2514.00,0.0170
2513.00,0.0170
2512.00,0.0170
2511.00,0.0170
2510.00,0.0170
2509.00,0.0170
2508.00,0.0170
2507.00,0.0170
2506.00,0.0169
2505.00,0.0169
2504.00,0.0169
2503.00,0.0169
2502.00,0.0169
2501.00,0.0169
2500.00,0.0169
2499.00,0.0168
2498.00,0.0169
2497.00,0.0169
2496.00,0.0169
2495.00,0.0169
2494.00,0.0170
2493.00,0.0170
2492.00,0.0171
2491.00,0.0171
2490.00,0.0171
2489.00,0.0171
2488.00,0.0171
2487.00,0.0171
2486.00,0.0171
2485.00,0.0171
2484.00,0.0171
2483.00,0.0171
2482.00,0.0170
2481.00,0.0170
2480.00,0.0170
2479.00,0.0169
2478.00,0.0169
2477.00,0.0169
2476.00,0.0169
2475.00,0.0169
2474.00,0.0169
2473.00,0.0168
2472.00,0.0168
2471.00,0.0169
2470.00,0.0169
2469.00,0.0169
2468.00,0.0169
2467.00,0.0169
2466.00,0.0169
2465.00,0.0169
2464.00,0.0169
2463.00,0.0170
2462.00,0.0171
2461.00,0.0171
2460.00,0.0172
2459.00,0.0172
2458.00,0.0172
2457.00,0.0172
2456.00,0.0172
2455.00,0.0172
2454.00,0.0172
2453.00,0.0173
2452.00,0.0173
2451.00,0.0173
2450.00,0.0174
2449.00,0.0173
2448.00,0.0173
2447.00,0.0172
2446.00,0.0171
2445.00,0.0171
2444.00,0.0171
2443.00,0.0170
2442.00,0.0170
2441.00,0.0170
2440.00,0.0170
2439.00,0.0170
2438.00,0.0169
2437.00,0.0169
2436.00,0.0169
2435.00,0.0169
2434.00,0.0168
2433.00,0.0168
2432.00,0.0168
2431.00,0.0168
2430.00,0.0168
2429.00,0.0168
2428.00,0.0168
2427.00,0.0167
2426.00,0.0167
2425.00,0.0167
2424.00,0.0167
2423.00,0.0167
2422.00,0.0168
2421.00,0.0168
2420.00,0.0168
2419.00,0.0167
2418.00,0.0167
2417.00,0.0167
2416.00,0.0167
2415.00,0.0167
2414.00,0.0166
2413.00,0.0166
2412.00,0.0166
2411.00,0.0166
2410.00,0.0166
2409.00,0.0165
2408.00,0.0164
2407.00,0.0164
2406.00,0.0163
2405.00,0.0164
2404.00,0.0164
2403.00,0.0164
2402.00,0.0164
2401.00,0.0164
2400.00,0.0165
2399.00,0.0165
2398.00,0.0165
2397.00,0.0164
2396.00,0.0164
2395.00,0.0164
2394.00,0.0164
2393.00,0.0164
2392.00,0.0164
2391.00,0.0164
2390.00,0.0164
2389.00,0.0164
2388.00,0.0164
2387.00,0.0164
2386.00,0.0164
2385.00,0.0163
2384.00,0.0163
2383.00,0.0162
2382.00,0.0162
2381.00,0.0161
2380.00,0.0160
2379.00,0.0160
2378.00,0.0160
2377.00,0.0160
2376.00,0.0160
2375.00,0.0160
2374.00,0.0160
2373.00,0.0159
2372.00,0.0158
2371.00,0.0158
2370.00,0.0157
2369.00,0.0157
2368.00,0.0157
2367.00,0.0156
2366.00,0.0156
2365.00,0.0156
2364.00,0.0156
2363.00,0.0157
2362.00,0.0158
2361.00,0.0158
2360.00,0.0159
2359.00,0.0159
2358.00,0.0159
2357.00,0.0158
2356.00,0.0159
2355.00,0.0159
2354.00,0.0159
2353.00,0.0159
2352.00,0.0159
2351.00,0.0159
2350.00,0.0159
2349.00,0.0159
2348.00,0.0160
2347.00,0.0160
2346.00,0.0161
2345.00,0.0161
2344.00,0.0160
2343.00,0.0160
2342.00,0.0159
2341.00,0.0159
2340.00,0.0160
2339.00,0.0161
2338.00,0.0162
2337.00,0.0162
2336.00,0.0162
2335.00,0.0162
2334.00,0.0162
2333.00,0.0162
2332.00,0.0162
2331.00,0.0162
2330.00,0.0163
2329.00,0.0164
2328.00,0.0166
2327.00,0.0169
2326.00,0.0172
2325.00,0.0173
2324.00,0.0172
2323.00,0.0170
2322.00,0.0168
2321.00,0.0167
2320.00,0.0165
2319.00,0.0164
2318.00,0.0163
2317.00,0.0163
2316.00,0.0163
2315.00,0.0163
2314.00,0.0162
2313.00,0.0161
2312.00,0.0161
2311.00,0.0160
2310.00,0.0159
2309.00,0.0159
2308.00,0.0159
2307.00,0.0159
2306.00,0.0159
2305.00,0.0159
2304.00,0.0159
2303.00,0.0159
2302.00,0.0159
2301.00,0.0159
2300.00,0.0160
2299.00,0.0160
2298.00,0.0161
2297.00,0.0162
2296.00,0.0163
2295.00,0.0164
2294.00,0.0165
2293.00,0.0166
2292.00,0.0167
2291.00,0.0168
2290.00,0.0169
2289.00,0.0170
2288.00,0.0171
2287.00,0.0171
2286.00,0.0172
2285.00,0.0171
2284.00,0.0170
2283.00,0.0169
2282.00,0.0167
2281.00,0.0167
2280.00,0.0166
2279.00,0.0166
2278.00,0.0166
2277.00,0.0165
2276.00,0.0165
2275.00,0.0165
2274.00,0.0165
2273.00,0.0165
2272.00,0.0166
2271.00,0.0165
2270.00,0.0165
2269.00,0.0164
2268.00,0.0164
2267.00,0.0163
2266.00,0.0162
2265.00,0.0161
2264.00,0.0161
2263.00,0.0161
2262.00,0.0160
2261.00,0.0160
2260.00,0.0160
2259.00,0.0160
2258.00,0.0158
2257.00,0.0157
2256.00,0.0156
2255.00,0.0156
2254.00,0.0155
2253.00,0.0155
2252.00,0.0155
2251.00,0.0156
2250.00,0.0156
2249.00,0.0156
2248.00,0.0156
2247.00,0.0155
2246.00,0.0154
2245.00,0.0153
2244.00,0.0153
2243.00,0.0153
2242.00,0.0153
2241.00,0.0153
2240.00,0.0153
2239.00,0.0153
2238.00,0.0152
2237.00,0.0152
2236.00,0.0152
2235.00,0.0152
2234.00,0.0152
2233.00,0.0152
2232.00,0.0152
2231.00,0.0152
2230.00,0.0151
2229.00,0.0150
2228.00,0.0149
2227.00,0.0149
2226.00,0.0149
2225.00,0.0150
2224.00,0.0151
2223.00,0.0152
2222.00,0.0152
2221.00,0.0153
2220.00,0.0153
2219.00,0.0153
2218.00,0.0152
2217.00,0.0150
2216.00,0.0150
2215.00,0.0150
2214.00,0.0150
2213.00,0.0150
2212.00,0.0150
2211.00,0.0150
2210.00,0.0150
2209.00,0.0150
2208.00,0.0150
2207.00,0.0151
2206.00,0.0151
2205.00,0.0151
2204.00,0.0151
2203.00,0.0151
2202.00,0.0150
2201.00,0.0149
2200.00,0.0147
2199.00,0.0146
2198.00,0.0145
2197.00,0.0146
2196.00,0.0147
2195.00,0.0147
2194.00,0.0147
2193.00,0.0147
2192.00,0.0148
2191.00,0.0148
2190.00,0.0148
2189.00,0.0149
2188.00,0.0149
2187.00,0.0149
2186.00,0.0149
2185.00,0.0148
2184.00,0.0146
2183.00,0.0144
2182.00,0.0143
2181.00,0.0144
2180.00,0.0145
2179.00,0.0147
2178.00,0.0147
2177.00,0.0146
2176.00,0.0146
2175.00,0.0145
2174.00,0.0145
2173.00,0.0145
2172.00,0.0147
2171.00,0.0149
2170.00,0.0151
2169.00,0.0153
2168.00,0.0155
2167.00,0.0155
2166.00,0.0155
2165.00,0.0155
2164.00,0.0156
2163.00,0.0155
2162.00,0.0151
2161.00,0.0143
2160.00,0.0132
2159.00,0.0124
2158.00,0.0120
2157.00,0.0121
2156.00,0.0124
2155.00,0.0126
2154.00,0.0128
2153.00,0.0129
2152.00,0.0130
2151.00,0.0131
2150.00,0.0131
2149.00,0.0132
2148.00,0.0133
2147.00,0.0134
2146.00,0.0134
2145.00,0.0134
2144.00,0.0134
2143.00,0.0134
2142.00,0.0134
2141.00,0.0134
2140.00,0.0135
2139.00,0.0134
2138.00,0.0132
2137.00,0.0129
2136.00,0.0126
2135.00,0.0124
2134.00,0.0125
2133.00,0.0127
2132.00,0.0130
2131.00,0.0133
2130.00,0.0134
2129.00,0.0135
2128.00,0.0136
2127.00,0.0136
2126.00,0.0136
2125.00,0.0137
2124.00,0.0138
2123.00,0.0140
2122.00,0.0141
2121.00,0.0142
2120.00,0.0143
2119.00,0.0143
2118.00,0.0143
2117.00,0.0144
2116.00,0.0145
2115.00,0.0145
2114.00,0.0145
2113.00,0.0145
2112.00,0.0145
2111.00,0.0144
2110.00,0.0144
2109.00,0.0144
2108.00,0.0144
2107.00,0.0144
2106.00,0.0144
2105.00,0.0144
2104.00,0.0144
2103.00,0.0144
2102.00,0.0144
2101.00,0.0144
2100.00,0.0144
2099.00,0.0144
2098.00,0.0143
2097.00,0.0142
2096.00,0.0141
2095.00,0.0140
2094.00,0.0139
2093.00,0.0140
2092.00,0.0142
2091.00,0.0144
2090.00,0.0146
2089.00,0.0147
2088.00,0.0148
2087.00,0.0148
2086.00,0.0147
2085.00,0.0146
2084.00,0.0146
2083.00,0.0146
2082.00,0.0146
2081.00,0.0146
2080.00,0.0145
2079.00,0.0145
2078.00,0.0145
2077.00,0.0145
2076.00,0.0145
2075.00,0.0145
2074.00,0.0145
2073.00,0.0145
2072.00,0.0145
2071.00,0.0145
2070.00,0.0144
2069.00,0.0144
2068.00,0.0145
2067.00,0.0146
2066.00,0.0146
2065.00,0.0145
2064.00,0.0145
2063.00,0.0143
2062.00,0.0142
2061.00,0.0142
2060.00,0.0142
2059.00,0.0142
2058.00,0.0142
2057.00,0.0141
2056.00,0.0141
2055.00,0.0141
2054.00,0.0142
2053.00,0.0145
2052.00,0.0147
2051.00,0.0146
2050.00,0.0142
2049.00,0.0136
2048.00,0.0133
2047.00,0.0130
2046.00,0.0128
2045.00,0.0127
2044.00,0.0127
2043.00,0.0126
2042.00,0.0125
2041.00,0.0125
2040.00,0.0125
2039.00,0.0126
2038.00,0.0125
2037.00,0.0125
2036.00,0.0124
2035.00,0.0122
2034.00,0.0120
2033.00,0.0119
2032.00,0.0120
2031.00,0.0121
2030.00,0.0122
2029.00,0.0122
2028.00,0.0122
2027.00,0.0122
2026.00,0.0122
2025.00,0.0123
2024.00,0.0125
2023.00,0.0126
2022.00,0.0126
2021.00,0.0126
2020.00,0.0128
2019.00,0.0130
2018.00,0.0130
2017.00,0.0130
2016.00,0.0129
2015.00,0.0127
2014.00,0.0126
2013.00,0.0127
2012.00,0.0128
2011.00,0.0129
2010.00,0.0129
2009.00,0.0129
2008.00,0.0128
2007.00,0.0128
2006.00,0.0129
2005.00,0.0132
2004.00,0.0136
2003.00,0.0138
2002.00,0.0139
2001.00,0.0140
2000.00,0.0140
1999.00,0.0140
1998.00,0.0138
1997.00,0.0137
1996.00,0.0136
1995.00,0.0135
1994.00,0.0135
1993.00,0.0137
1992.00,0.0138
1991.00,0.0139
1990.00,0.0138
1989.00,0.0139
1988.00,0.0139
1987.00,0.0139
1986.00,0.0138
1985.00,0.0138
1984.00,0.0138
1983.00,0.0139
1982.00,0.0140
1981.00,0.0140
1980.00,0.0139
1979.00,0.0133
1978.00,0.0127
1977.00,0.0122
1976.00,0.0121
1975.00,0.0121
1974.00,0.0121
1973.00,0.0121
1972.00,0.0122
1971.00,0.0123
1970.00,0.0124
1969.00,0.0125
1968.00,0.0128
1967.00,0.0129
1966.00,0.0129
1965.00,0.0129
1964.00,0.0129
1963.00,0.0128
1962.00,0.0126
1961.00,0.0124
1960.00,0.0122
1959.00,0.0121
1958.00,0.0121
1957.00,0.0123
1956.00,0.0126
1955.00,0.0127
1954.00,0.0125
1953.00,0.0125
1952.00,0.0125
1951.00,0.0125
1950.00,0.0125
1949.00,0.0126
1948.00,0.0127
1947.00,0.0127
1946.00,0.0127
1945.00,0.0127
1944.00,0.0127
1943.00,0.0126
1942.00,0.0125
1941.00,0.0125
1940.00,0.0125
1939.00,0.0125
1938.00,0.0126
1937.00,0.0127
1936.00,0.0128
1935.00,0.0129
1934.00,0.0130
1933.00,0.0131
1932.00,0.0132
1931.00,0.0133
1930.00,0.0133
1929.00,0.0134
1928.00,0.0134
1927.00,0.0134
1926.00,0.0133
1925.00,0.0133
1924.00,0.0133
1923.00,0.0133
1922.00,0.0132
1921.00,0.0133
1920.00,0.0134
1919.00,0.0134
1918.00,0.0134
1917.00,0.0133
1916.00,0.0132
1915.00,0.0131
1914.00,0.0130
1913.00,0.0129
1912.00,0.0129
1911.00,0.0129
1910.00,0.0128
1909.00,0.0128
1908.00,0.0128
1907.00,0.0128
1906.00,0.0127
1905.00,0.0126
1904.00,0.0126
1903.00,0.0126
1902.00,0.0125
1901.00,0.0125
1900.00,0.0124
1899.00,0.0124
1898.00,0.0123
1897.00,0.0123
1896.00,0.0124
1895.00,0.0124
1894.00,0.0124
1893.00,0.0125
1892.00,0.0125
1891.00,0.0126
1890.00,0.0126
1889.00,0.0126
1888.00,0.0126
1887.00,0.0126
1886.00,0.0125
1885.00,0.0124
1884.00,0.0124
1883.00,0.0123
1882.00,0.0123
1881.00,0.0123
1880.00,0.0123
1879.00,0.0122
1878.00,0.0121
1877.00,0.0120
1876.00,0.0120
1875.00,0.0119
1874.00,0.0119
1873.00,0.0120
1872.00,0.0121
1871.00,0.0122
1870.00,0.0122
1869.00,0.0121
1868.00,0.0121
1867.00,0.0120
1866.00,0.0119
1865.00,0.0119
1864.00,0.0120
1863.00,0.0120
1862.00,0.0120
1861.00,0.0120
1860.00,0.0120
1859.00,0.0120
1858.00,0.0120
1857.00,0.0120
1856.00,0.0121
1855.00,0.0122
1854.00,0.0123
1853.00,0.0124
1852.00,0.0126
1851.00,0.0127
1850.00,0.0127
1849.00,0.0127
1848.00,0.0127
1847.00,0.0127
1846.00,0.0126
1845.00,0.0126
1844.00,0.0125
1843.00,0.0123
1842.00,0.0120
1841.00,0.0118
1840.00,0.0118
1839.00,0.0117
1838.00,0.0117
1837.00,0.0117
1836.00,0.0117
1835.00,0.0116
1834.00,0.0115
1833.00,0.0115
1832.00,0.0116
1831.00,0.0116
1830.00,0.0116
1829.00,0.0116
1828.00,0.0116
1827.00,0.0117
1826.00,0.0117
1825.00,0.0117
1824.00,0.0116
1823.00,0.0115
1822.00,0.0114
1821.00,0.0113
1820.00,0.0113
1819.00,0.0112
1818.00,0.0111
1817.00,0.0110
1816.00,0.0110
1815.00,0.0111
1814.00,0.0111
1813.00,0.0111
1812.00,0.0112
1811.00,0.0113
1810.00,0.0113
1809.00,0.0113
1808.00,0.0113
1807.00,0.0112
1806.00,0.0112
1805.00,0.0113
1804.00,0.0115
1803.00,0.0116
1802.00,0.0116
1801.00,0.0115
1800.00,0.0115
1799.00,0.0114
1798.00,0.0115
1797.00,0.0115
1796.00,0.0116
1795.00,0.0116
1794.00,0.0117
1793.00,0.0118
1792.00,0.0118
1791.00,0.0118
1790.00,0.0116
1789.00,0.0114
1788.00,0.0114
1787.00,0.0114
1786.00,0.0115
1785.00,0.0114
1784.00,0.0114
1783.00,0.0113
1782.00,0.0112
1781.00,0.0112
1780.00,0.0112
1779.00,0.0112
1778.00,0.0111
1777.00,0.0111
1776.00,0.0111
1775.00,0.0112
1774.00,0.0112
1773.00,0.0112
1772.00,0.0113
1771.00,0.0114
1770.00,0.0116
1769.00,0.0116
1768.00,0.0116
1767.00,0.0114
1766.00,0.0112
1765.00,0.0112
1764.00,0.0113
1763.00,0.0114
1762.00,0.0115
1761.00,0.0114
1760.00,0.0115
1759.00,0.0115
1758.00,0.0115
1757.00,0.0116
1756.00,0.0116
1755.00,0.0115
1754.00,0.0115
1753.00,0.0117
1752.00,0.0118
1751.00,0.0117
1750.00,0.0115
1749.00,0.0112
1748.00,0.0111
1747.00,0.0110
1746.00,0.0108
1745.00,0.0108
1744.00,0.0107
1743.00,0.0106
1742.00,0.0105
1741.00,0.0103
1740.00,0.0103
1739.00,0.0103
1738.00,0.0103
1737.00,0.0105
1736.00,0.0108
1735.00,0.0112
1734.00,0.0114
1733.00,0.0114
1732.00,0.0113
1731.00,0.0113
1730.00,0.0112
1729.00,0.0111
1728.00,0.0112
1727.00,0.0112
1726.00,0.0112
1725.00,0.0113
1724.00,0.0115
1723.00,0.0117
1722.00,0.0118
1721.00,0.0121
1720.00,0.0127
1719.00,0.0134
1718.00,0.0140
1717.00,0.0148
1716.00,0.0157
1715.00,0.0164
1714.00,0.0172
1713.00,0.0180
1712.00,0.0191
1711.00,0.0202
1710.00,0.0213
1709.00,0.0225
1708.00,0.0238
1707.00,0.0252
1706.00,0.0267
1705.00,0.0282
1704.00,0.0297
1703.00,0.0312
1702.00,0.0328
1701.00,0.0351
1700.00,0.0382
1699.00,0.0412
1698.00,0.0443
1697.00,0.0492
1696.00,0.0572
1695.00,0.0676
1694.00,0.0789
1693.00,0.0910
1692.00,0.1047
1691.00,0.1195
1690.00,0.1335
1689.00,0.1445
1688.00,0.1510
1687.00,0.1536
1686.00,0.1536
1685.00,0.1534
1684.00,0.1556
1683.00,0.1603
1682.00,0.1667
1681.00,0.1747
1680.00,0.1838
1679.00,0.1922
1678.00,0.1979
1677.00,0.1993
1676.00,0.1957
1675.00,0.1873
1674.00,0.1759
1673.00,0.1637
1672.00,0.1514
1671.00,0.1388
1670.00,0.1262
1669.00,0.1148
1668.00,0.1054
1667.00,0.0977
1666.00,0.0915
1665.00,0.0861
1664.00,0.0811
1663.00,0.0767
1662.00,0.0729
1661.00,0.0697
1660.00,0.0670
1659.00,0.0646
1658.00,0.0629
1657.00,0.0617
1656.00,0.0612
1655.00,0.0618
1654.00,0.0648
1653.00,0.0710
1652.00,0.0777
1651.00,0.0826
1650.00,0.0864
1649.00,0.0901
1648.00,0.0935
1647.00,0.0956
1646.00,0.0955
1645.00,0.0930
1644.00,0.0888
1643.00,0.0837
1642.00,0.0785
1641.00,0.0734
1640.00,0.0688
1639.00,0.0650
1638.00,0.0620
1637.00,0.0601
1636.00,0.0594
1635.00,0.0600
1634.00,0.0613
1633.00,0.0631
1632.00,0.0654
1631.00,0.0681
1630.00,0.0710
1629.00,0.0737
1628.00,0.0760
1627.00,0.0774
1626.00,0.0781
1625.00,0.0784
1624.00,0.0784
1623.00,0.0786
1622.00,0.0786
1621.00,0.0784
1620.00,0.0779
1619.00,0.0772
1618.00,0.0762
1617.00,0.0748
1616.00,0.0730
1615.00,0.0707
1614.00,0.0681
1613.00,0.0653
1612.00,0.0625
1611.00,0.0599
1610.00,0.0579
1609.00,0.0567
1608.00,0.0566
1607.00,0.0576
1606.00,0.0596
1605.00,0.0617
1604.00,0.0629
1603.00,0.0623
1602.00,0.0599
1601.00,0.0561
1600.00,0.0518
1599.00,0.0477
1598.00,0.0444
1597.00,0.0416
1596.00,0.0394
1595.00,0.0375
1594.00,0.0360
1593.00,0.0347
1592.00,0.0334
1591.00,0.0322
1590.00,0.0310
1589.00,0.0300
1588.00,0.0290
1587.00,0.0281
1586.00,0.0273
1585.00,0.0267
1584.00,0.0261
1583.00,0.0257
1582.00,0.0255
1581.00,0.0256
1580.00,0.0259
1579.00,0.0265
1578.00,0.0277
1577.00,0.0296
1576.00,0.0317
1575.00,0.0331
1574.00,0.0332
1573.00,0.0322
1572.00,0.0307
1571.00,0.0290
1570.00,0.0273
1569.00,0.0259
1568.00,0.0248
1567.00,0.0239
1566.00,0.0231
1565.00,0.0226
1564.00,0.0221
1563.00,0.0219
1562.00,0.0218
1561.00,0.0219
1560.00,0.0218
1559.00,0.0216
1558.00,0.0216
1557.00,0.0215
1556.00,0.0213
1555.00,0.0211
1554.00,0.0210
1553.00,0.0211
1552.00,0.0211
1551.00,0.0213
1550.00,0.0215
1549.00,0.0219
1548.00,0.0223
1547.00,0.0228
1546.00,0.0235
1545.00,0.0243
1544.00,0.0251
1543.00,0.0259
1542.00,0.0270
1541.00,0.0291
1540.00,0.0324
1539.00,0.0366
1538.00,0.0411
1537.00,0.0461
1536.00,0.0524
1535.00,0.0614
1534.00,0.0746
1533.00,0.0908
1532.00,0.1074
1531.00,0.1229
1530.00,0.1373
1529.00,0.1503
1528.00,0.1607
1527.00,0.1669
1526.00,0.1682
1525.00,0.1651
1524.00,0.1591
1523.00,0.1510
1522.00,0.1409
1521.00,0.1298
1520.00,0.1195
1519.00,0.1108
1518.00,0.1031
1517.00,0.0959
1516.00,0.0894
1515.00,0.0840
1514.00,0.0794
1513.00,0.0752
1512.00,0.0718
1511.00,0.0692
1510.00,0.0676
1509.00,0.0671
1508.00,0.0682
1507.00,0.0718
1506.00,0.0776
1505.00,0.0838
1504.00,0.0900
1503.00,0.0966
1502.00,0.1042
1501.00,0.1127
1500.00,0.1217
1499.00,0.1306
1498.00,0.1390
1497.00,0.1463
1496.00,0.1516
1495.00,0.1548
1494.00,0.1559
1493.00,0.1555
1492.00,0.1541
1491.00,0.1518
1490.00,0.1487
1489.00,0.1449
1488.00,0.1405
1487.00,0.1357
1486.00,0.1308
1485.00,0.1258
1484.00,0.1208
1483.00,0.1159
1482.00,0.1112
1481.00,0.1070
1480.00,0.1032
1479.00,0.0999
1478.00,0.0969
1477.00,0.0940
1476.00,0.0910
1475.00,0.0880
1474.00,0.0850
1473.00,0.0822
1472.00,0.0795
1471.00,0.0773
1470.00,0.0756
1469.00,0.0744
1468.00,0.0735
1467.00,0.0729
1466.00,0.0725
1465.00,0.0720
1464.00,0.0713
1463.00,0.0703
1462.00,0.0691
1461.00,0.0680
1460.00,0.0671
1459.00,0.0664
1458.00,0.0660
1457.00,0.0657
1456.00,0.0650
1455.00,0.0640
1454.00,0.0631
1453.00,0.0624
1452.00,0.0620
1451.00,0.0621
1450.00,0.0628
1449.00,0.0641
1448.00,0.0661
1447.00,0.0690
1446.00,0.0723
1445.00,0.0757
1444.00,0.0787
1443.00,0.0810
1442.00,0.0827
1441.00,0.0845
1440.00,0.0871
1439.00,0.0913
1438.00,0.0982
1437.00,0.1081
1436.00,0.1197
1435.00,0.1306
1434.00,0.1401
1433.00,0.1479
1432.00,0.1531
1431.00,0.1538
1430.00,0.1494
1429.00,0.1414
1428.00,0.1317
1427.00,0.1219
1426.00,0.1129
1425.00,0.1046
1424.00,0.0972
1423.00,0.0909
1422.00,0.0857
1421.00,0.0811
1420.00,0.0769
1419.00,0.0727
1418.00,0.0688
1417.00,0.0653
1416.00,0.0621
1415.00,0.0593
1414.00,0.0567
1413.00,0.0545
1412.00,0.0524
1411.00,0.0504
1410.00,0.0487
1409.00,0.0471
1408.00,0.0456
1407.00,0.0443
1406.00,0.0431
1405.00,0.0420
1404.00,0.0408
1403.00,0.0399
1402.00,0.0392
1401.00,0.0386
1400.00,0.0381
1399.00,0.0377
1398.00,0.0373
1397.00,0.0371
1396.00,0.0370
1395.00,0.0371
1394.00,0.0374
1393.00,0.0378
1392.00,0.0386
1391.00,0.0397
1390.00,0.0412
1389.00,0.0429
1388.00,0.0446
1387.00,0.0461
1386.00,0.0473
1385.00,0.0483
1384.00,0.0496
1383.00,0.0515
1382.00,0.0538
1381.00,0.0562
1380.00,0.0580
1379.00,0.0586
1378.00,0.0578
1377.00,0.0556
1376.00,0.0525
1375.00,0.0491
1374.00,0.0458
1373.00,0.0429
1372.00,0.0405
1371.00,0.0388
1370.00,0.0375
1369.00,0.0366
1368.00,0.0361
1367.00,0.0360
1366.00,0.0364
1365.00,0.0374
1364.00,0.0389
1363.00,0.0408
1362.00,0.0432
1361.00,0.0458
1360.00,0.0488
1359.00,0.0522
1358.00,0.0562
1357.00,0.0611
1356.00,0.0674
1355.00,0.0755
1354.00,0.0859
1353.00,0.0989
1352.00,0.1139
1351.00,0.1297
1350.00,0.1438
1349.00,0.1538
1348.00,0.1581
1347.00,0.1570
1346.00,0.1522
1345.00,0.1463
1344.00,0.1413
1343.00,0.1381
1342.00,0.1363
1341.00,0.1349
1340.00,0.1327
1339.00,0.1290
1338.00,0.1236
1337.00,0.1169
1336.00,0.1094
1335.00,0.1016
1334.00,0.0940
1333.00,0.0868
1332.00,0.0804
1331.00,0.0751
1330.00,0.0710
1329.00,0.0682
1328.00,0.0665
1327.00,0.0660
1326.00,0.0669
1325.00,0.0694
1324.00,0.0738
1323.00,0.0799
1322.00,0.0870
1321.00,0.0941
1320.00,0.1003
1319.00,0.1054
1318.00,0.1095
1317.00,0.1134
1316.00,0.1177
1315.00,0.1227
1314.00,0.1282
1313.00,0.1336
1312.00,0.1384
1311.00,0.1423
1310.00,0.1450
1309.00,0.1462
1308.00,0.1454
1307.00,0.1426
1306.00,0.1381
1305.00,0.1326
1304.00,0.1267
1303.00,0.1208
1302.00,0.1151
1301.00,0.1097
1300.00,0.1048
1299.00,0.1004
1298.00,0.0965
1297.00,0.0932
1296.00,0.0907
1295.00,0.0891
1294.00,0.0884
1293.00,0.0885
1292.00,0.0890
1291.00,0.0893
1290.00,0.0889
1289.00,0.0875
1288.00,0.0852
1287.00,0.0825
1286.00,0.0797
1285.00,0.0772
1284.00,0.0750
1283.00,0.0733
1282.00,0.0719
1281.00,0.0708
1280.00,0.0700
1279.00,0.0696
1278.00,0.0695
1277.00,0.0697
1276.00,0.0701
1275.00,0.0708
1274.00,0.0717
1273.00,0.0729
1272.00,0.0742
1271.00,0.0754
1270.00,0.0760
1269.00,0.0756
1268.00,0.0740
1267.00,0.0714
1266.00,0.0681
1265.00,0.0644
1264.00,0.0608
1263.00,0.0575
1262.00,0.0546
1261.00,0.0521
1260.00,0.0501
1259.00,0.0484
1258.00,0.0472
1257.00,0.0462
1256.00,0.0455
1255.00,0.0451
1254.00,0.0450
1253.00,0.0451
1252.00,0.0453
1251.00,0.0457
1250.00,0.0461
1249.00,0.0465
1248.00,0.0471
1247.00,0.0480
1246.00,0.0491
1245.00,0.0507
1244.00,0.0529
1243.00,0.0561
1242.00,0.0605
1241.00,0.0663
1240.00,0.0734
1239.00,0.0811
1238.00,0.0888
1237.00,0.0966
1236.00,0.1050
1235.00,0.1152
1234.00,0.1283
1233.00,0.1444
1232.00,0.1633
1231.00,0.1844
1230.00,0.2069
1229.00,0.2298
1228.00,0.2520
1227.00,0.2718
1226.00,0.2878
1225.00,0.2985
1224.00,0.3034
1223.00,0.3028
1222.00,0.2976
1221.00,0.2892
1220.00,0.2789
1219.00,0.2677
1218.00,0.2561
1217.00,0.2446
1216.00,0.2334
1215.00,0.2223
1214.00,0.2114
1213.00,0.2007
1212.00,0.1902
1211.00,0.1801
1210.00,0.1703
1209.00,0.1611
1208.00,0.1524
1207.00,0.1443
1206.00,0.1367
1205.00,0.1298
1204.00,0.1234
1203.00,0.1177
1202.00,0.1127
1201.00,0.1085
1200.00,0.1056
1199.00,0.1040
1198.00,0.1045
1197.00,0.1075
1196.00,0.1137
1195.00,0.1232
1194.00,0.1358
1193.00,0.1504
1192.00,0.1653
1191.00,0.1781
1190.00,0.1865
1189.00,0.1891
1188.00,0.1860
1187.00,0.1785
1186.00,0.1685
1185.00,0.1579
1184.00,0.1477
1183.00,0.1386
1182.00,0.1302
1181.00,0.1225
1180.00,0.1151
1179.00,0.1083
1178.00,0.1022
1177.00,0.0968
1176.00,0.0924
1175.00,0.0888
1174.00,0.0860
1173.00,0.0839
1172.00,0.0826
1171.00,0.0824
1170.00,0.0834
1169.00,0.0861
1168.00,0.0906
1167.00,0.0966
1166.00,0.1033
1165.00,0.1090
1164.00,0.1118
1163.00,0.1107
1162.00,0.1059
1161.00,0.0989
1160.00,0.0915
1159.00,0.0853
1158.00,0.0816
1157.00,0.0812
1156.00,0.0847
1155.00,0.0921
1154.00,0.1022
1153.00,0.1123
1152.00,0.1189
1151.00,0.1197
1150.00,0.1149
1149.00,0.1066
1148.00,0.0974
1147.00,0.0890
1146.00,0.0818
1145.00,0.0759
1144.00,0.0711
1143.00,0.0673
1142.00,0.0646
1141.00,0.0628
1140.00,0.0620
1139.00,0.0620
1138.00,0.0625
1137.00,0.0631
1136.00,0.0637
1135.00,0.0641
1134.00,0.0645
1133.00,0.0654
1132.00,0.0672
1131.00,0.0704
1130.00,0.0755
1129.00,0.0832
1128.00,0.0942
1127.00,0.1090
1126.00,0.1280
1125.00,0.1505
1124.00,0.1753
1123.00,0.2000
1122.00,0.2218
1121.00,0.2381
1120.00,0.2474
1119.00,0.2493
1118.00,0.2449
1117.00,0.2359
1116.00,0.2241
1115.00,0.2109
1114.00,0.1976
1113.00,0.1851
1112.00,0.1742
1111.00,0.1653
1110.00,0.1589
1109.00,0.1553
1108.00,0.1550
1107.00,0.1581
1106.00,0.1647
1105.00,0.1742
1104.00,0.1853
1103.00,0.1962
1102.00,0.2048
1101.00,0.2095
1100.00,0.2095
1099.00,0.2052
1098.00,0.1976
1097.00,0.1880
1096.00,0.1778
1095.00,0.1677
1094.00,0.1579
1093.00,0.1489
1092.00,0.1404
1091.00,0.1327
1090.00,0.1255
1089.00,0.1190
1088.00,0.1131
1087.00,0.1078
1086.00,0.1030
1085.00,0.0989
1084.00,0.0952
1083.00,0.0919
1082.00,0.0891
1081.00,0.0866
1080.00,0.0844
1079.00,0.0825
1078.00,0.0808
1077.00,0.0794
1076.00,0.0782
1075.00,0.0775
1074.00,0.0773
1073.00,0.0776
1072.00,0.0780
1071.00,0.0781
1070.00,0.0775
1069.00,0.0760
1068.00,0.0741
1067.00,0.0720
1066.00,0.0702
1065.00,0.0690
1064.00,0.0687
1063.00,0.0694
1062.00,0.0714
1061.00,0.0751
1060.00,0.0805
1059.00,0.0877
1058.00,0.0961
1057.00,0.1045
1056.00,0.1117
1055.00,0.1163
1054.00,0.1179
1053.00,0.1167
1052.00,0.1139
1051.00,0.1105
1050.00,0.1071
1049.00,0.1037
1048.00,0.0999
1047.00,0.0958
1046.00,0.0917
1045.00,0.0881
1044.00,0.0852
1043.00,0.0832
1042.00,0.0819
1041.00,0.0813
1040.00,0.0812
1039.00,0.0815
1038.00,0.0820
1037.00,0.0827
1036.00,0.0835
1035.00,0.0845
1034.00,0.0856
1033.00,0.0870
1032.00,0.0890
1031.00,0.0919
1030.00,0.0959
1029.00,0.1015
1028.00,0.1089
1027.00,0.1179
1026.00,0.1285
1025.00,0.1398
1024.00,0.1510
1023.00,0.1607
1022.00,0.1676
1021.00,0.1709
1020.00,0.1706
1019.00,0.1670
1018.00,0.1610
1017.00,0.1535
1016.00,0.1453
1015.00,0.1371
1014.00,0.1292
1013.00,0.1218
1012.00,0.1152
1011.00,0.1093
1010.00,0.1039
1009.00,0.0992
1008.00,0.0951
1007.00,0.0914
1006.00,0.0882
1005.00,0.0857
1004.00,0.0838
1003.00,0.0824
1002.00,0.0810
1001.00,0.0795
1000.00,0.0775
999.00,0.0754
998.00,0.0733
997.00,0.0713
996.00,0.0696
995.00,0.0681
994.00,0.0667
993.00,0.0655
992.00,0.0643
991.00,0.0632
990.00,0.0623
989.00,0.0614
988.00,0.0605
987.00,0.0598
986.00,0.0590
985.00,0.0584
984.00,0.0577
983.00,0.0571
982.00,0.0566
981.00,0.0561
980.00,0.0556
979.00,0.0552
978.00,0.0547
977.00,0.0543
976.00,0.0538
975.00,0.0535
974.00,0.0533
973.00,0.0534
972.00,0.0540
971.00,0.0548
970.00,0.0556
969.00,0.0560
968.00,0.0559
967.00,0.0554
966.00,0.0552
965.00,0.0558
964.00,0.0573
963.00,0.0589
962.00,0.0598
961.00,0.0595
960.00,0.0585
959.00,0.0578
958.00,0.0581
957.00,0.0598
956.00,0.0620
955.00,0.0639
954.00,0.0646
953.00,0.0640
952.00,0.0622
951.00,0.0600
950.00,0.0577
949.00,0.0557
948.00,0.0540
947.00,0.0526
946.00,0.0514
945.00,0.0504
944.00,0.0496
943.00,0.0489
942.00,0.0483
941.00,0.0477
940.00,0.0471
939.00,0.0466
938.00,0.0461
937.00,0.0457
936.00,0.0453
935.00,0.0449
934.00,0.0445
933.00,0.0441
932.00,0.0438
931.00,0.0434
930.00,0.0431
929.00,0.0428
928.00,0.0425
927.00,0.0423
926.00,0.0420
925.00,0.0418
924.00,0.0416
923.00,0.0413
922.00,0.0411
921.00,0.0409
920.00,0.0407
919.00,0.0404
918.00,0.0402
917.00,0.0400
916.00,0.0398
915.00,0.0395
914.00,0.0393
913.00,0.0391
912.00,0.0389
911.00,0.0387
910.00,0.0385
909.00,0.0383
908.00,0.0381
907.00,0.0379
906.00,0.0377
905.00,0.0375
904.00,0.0373
903.00,0.0371
902.00,0.0369
901.00,0.0367
900.00,0.0365
899.00,0.0364
898.00,0.0362
897.00,0.0360
896.00,0.0358
895.00,0.0356
894.00,0.0355
893.00,0.0353
892.00,0.0352
891.00,0.0351
890.00,0.0350
889.00,0.0349
888.00,0.0349
887.00,0.0350
886.00,0.0355
885.00,0.0361
884.00,0.0366
883.00,0.0367
882.00,0.0361
881.00,0.0353
880.00,0.0344
879.00,0.0337
878.00,0.0332
877.00,0.0329
876.00,0.0327
875.00,0.0324
874.00,0.0321
873.00,0.0319
872.00,0.0318
871.00,0.0316
870.00,0.0315
869.00,0.0314
868.00,0.0313
867.00,0.0313
866.00,0.0315
865.00,0.0320
864.00,0.0334
863.00,0.0368
862.00,0.0443
861.00,0.0572
860.00,0.0734
859.00,0.0865
858.00,0.0900
857.00,0.0827
856.00,0.0700
855.00,0.0579
854.00,0.0492
853.00,0.0437
852.00,0.0402
851.00,0.0380
850.00,0.0365
849.00,0.0353
848.00,0.0344
847.00,0.0336
846.00,0.0331
845.00,0.0327
844.00,0.0325
843.00,0.0325
842.00,0.0330
841.00,0.0341
840.00,0.0364
839.00,0.0408
838.00,0.0481
837.00,0.0580
836.00,0.0697
835.00,0.0813
834.00,0.0919
833.00,0.1021
832.00,0.1129
831.00,0.1238
830.00,0.1327
829.00,0.1365
828.00,0.1341
827.00,0.1263
826.00,0.1155
825.00,0.1041
824.00,0.0936
823.00,0.0846
822.00,0.0770
821.00,0.0705
820.00,0.0647
819.00,0.0596
818.00,0.0552
817.00,0.0513
816.00,0.0481
815.00,0.0454
814.00,0.0434
813.00,0.0419
812.00,0.0412
811.00,0.0413
810.00,0.0422
809.00,0.0436
808.00,0.0451
807.00,0.0461
806.00,0.0460
805.00,0.0444
804.00,0.0420
803.00,0.0397
802.00,0.0383
801.00,0.0383
800.00,0.0404
799.00,0.0461
798.00,0.0577
797.00,0.0774
796.00,0.1045
795.00,0.1334
794.00,0.1549
793.00,0.1614
792.00,0.1534
791.00,0.1377
790.00,0.1213
789.00,0.1068
788.00,0.0943
787.00,0.0834
786.00,0.0742
785.00,0.0670
784.00,0.0614
783.00,0.0572
782.00,0.0541
781.00,0.0516
780.00,0.0496
779.00,0.0481
778.00,0.0471
777.00,0.0468
776.00,0.0476
775.00,0.0499
774.00,0.0530
773.00,0.0557
772.00,0.0565
771.00,0.0552
770.00,0.0530
769.00,0.0519
768.00,0.0541
767.00,0.0614
766.00,0.0745
765.00,0.0921
764.00,0.1100
763.00,0.1223
762.00,0.1250
761.00,0.1184
760.00,0.1068
759.00,0.0944
758.00,0.0839
757.00,0.0758
756.00,0.0699
755.00,0.0657
754.00,0.0629
753.00,0.0615
752.00,0.0620
751.00,0.0650
750.00,0.0715
749.00,0.0825
748.00,0.0985
747.00,0.1178
746.00,0.1364
745.00,0.1489
744.00,0.1515
743.00,0.1447
742.00,0.1320
741.00,0.1176
740.00,0.1040
739.00,0.0922
738.00,0.0823
737.00,0.0741
736.00,0.0675
735.00,0.0622
734.00,0.0579
733.00,0.0546
732.00,0.0519
731.00,0.0497
730.00,0.0479
729.00,0.0464
728.00,0.0452
727.00,0.0442
726.00,0.0435
725.00,0.0428
724.00,0.0424
723.00,0.0423
722.00,0.0426
721.00,0.0435
720.00,0.0454
719.00,0.0490
718.00,0.0556
717.00,0.0668
716.00,0.0844
715.00,0.1084
714.00,0.1349
713.00,0.1567
712.00,0.1666
711.00,0.1625
710.00,0.1481
709.00,0.1298
708.00,0.1124
707.00,0.0981
706.00,0.0873
705.00,0.0794
704.00,0.0737
703.00,0.0694
702.00,0.0663
701.00,0.0640
700.00,0.0626
699.00,0.0620
698.00,0.0620
697.00,0.0629
696.00,0.0646
695.00,0.0673
694.00,0.0713
693.00,0.0769
692.00,0.0840
691.00,0.0924
690.00,0.1018
689.00,0.1113
688.00,0.1193
687.00,0.1240
686.00,0.1242
685.00,0.1197
684.00,0.1119
683.00,0.1029
682.00,0.0946
681.00,0.0881
680.00,0.0840
679.00,0.0825
678.00,0.0835
677.00,0.0868
676.00,0.0914
675.00,0.0961
674.00,0.0991
673.00,0.0992
672.00,0.0965
671.00,0.0922
670.00,0.0878
669.00,0.0843
668.00,0.0824
667.00,0.0822
666.00,0.0827
665.00,0.0832
664.00,0.0838
663.00,0.0842
662.00,0.0839
661.00,0.0828
660.00,0.0809
659.00,0.0786
658.00,0.0759
657.00,0.0731
656.00,0.0702
655.00,0.0675
654.00,0.0649
653.00,0.0625
652.00,0.0603
651.00,0.0583
650.00,0.0565
649.00,0.0548
648.00,0.0531
647.00,0.0516
646.00,0.0503
645.00,0.0490
644.00,0.0477
643.00,0.0466
642.00,0.0455
641.00,0.0446
640.00,0.0437
639.00,0.0429
638.00,0.0423
637.00,0.0418
636.00,0.0414
635.00,0.0411
634.00,0.0412
633.00,0.0416
632.00,0.0426
631.00,0.0445
630.00,0.0477
629.00,0.0528
628.00,0.0601
627.00,0.0698
626.00,0.0808
625.00,0.0913
624.00,0.0991
623.00,0.1027
622.00,0.1020
621.00,0.0979
620.00,0.0920
619.00,0.0855
618.00,0.0793
617.00,0.0739
616.00,0.0696
615.00,0.0665
614.00,0.0645
613.00,0.0636
612.00,0.0638
611.00,0.0650
610.00,0.0671
609.00,0.0692
608.00,0.0703
607.00,0.0696
606.00,0.0672
605.00,0.0638
604.00,0.0602
603.00,0.0569
602.00,0.0542
601.00,0.0520
600.00,0.0503
599.00,0.0491
598.00,0.0483
597.00,0.0479
596.00,0.0480
595.00,0.0491
594.00,0.0516
593.00,0.0554
592.00,0.0597
591.00,0.0633
590.00,0.0648
589.00,0.0644
588.00,0.0635
587.00,0.0638
586.00,0.0657
585.00,0.0682
584.00,0.0693
583.00,0.0679
582.00,0.0643
581.00,0.0599
580.00,0.0557
579.00,0.0524
578.00,0.0501
577.00,0.0485
576.00,0.0473
575.00,0.0465
574.00,0.0461
573.00,0.0461
572.00,0.0464
571.00,0.0472
570.00,0.0484
569.00,0.0499
568.00,0.0515
567.00,0.0533
566.00,0.0551
565.00,0.0568
564.00,0.0577
563.00,0.0576
562.00,0.0562
561.00,0.0539
560.00,0.0513
559.00,0.0489
558.00,0.0469
557.00,0.0454
556.00,0.0442
555.00,0.0432
554.00,0.0424
553.00,0.0417
552.00,0.0411
551.00,0.0407
550.00,0.0403
549.00,0.0399
548.00,0.0395
547.00,0.0391
546.00,0.0387
545.00,0.0382
544.00,0.0378
543.00,0.0375
542.00,0.0373
541.00,0.0371
540.00,0.0368
539.00,0.0366
538.00,0.0365
537.00,0.0365
536.00,0.0364
535.00,0.0362
534.00,0.0359
533.00,0.0355
532.00,0.0352
531.00,0.0350
530.00,0.0349
529.00,0.0348
528.00,0.0346
527.00,0.0344
526.00,0.0343
525.00,0.0342
524.00,0.0341
523.00,0.0339
522.00,0.0338
521.00,0.0338
520.00,0.0337
519.00,0.0338
518.00,0.0341
517.00,0.0344
516.00,0.0350
515.00,0.0360
514.00,0.0373
513.00,0.0384
512.00,0.0388
511.00,0.0384
510.00,0.0374
509.00,0.0362
508.00,0.0350
507.00,0.0341
506.00,0.0335
505.00,0.0331
504.00,0.0329
503.00,0.0328
502.00,0.0325
501.00,0.0321
500.00,0.0316
499.00,0.0313
498.00,0.0312
497.00,0.0311
496.00,0.0310
495.00,0.0310
494.00,0.0313
493.00,0.0316
492.00,0.0317
491.00,0.0315
490.00,0.0313
489.00,0.0311
488.00,0.0311
487.00,0.0314
486.00,0.0318
485.00,0.0321
484.00,0.0322
483.00,0.0323
482.00,0.0327
481.00,0.0333
480.00,0.0342
479.00,0.0352
478.00,0.0365
477.00,0.0379
476.00,0.0396
475.00,0.0420
474.00,0.0452
473.00,0.0493
472.00,0.0540
471.00,0.0588
470.00,0.0632
469.00,0.0667
468.00,0.0689
467.00,0.0694
466.00,0.0684
465.00,0.0662
464.00,0.0633
463.00,0.0602
462.00,0.0573
461.00,0.0544
460.00,0.0516
459.00,0.0491
458.00,0.0471
457.00,0.0453
456.00,0.0437
455.00,0.0425
454.00,0.0414
453.00,0.0403
452.00,0.0390
451.00,0.0379
450.00,0.0371
449.00,0.0367
448.00,0.0365
447.00,0.0363
446.00,0.0361
445.00,0.0356
444.00,0.0349
443.00,0.0342
442.00,0.0336
441.00,0.0333
440.00,0.0330
439.00,0.0330
438.00,0.0332
437.00,0.0333
436.00,0.0332
435.00,0.0332
434.00,0.0331
433.00,0.0329
432.00,0.0324
431.00,0.0320
430.00,0.0318
429.00,0.0318
428.00,0.0320
427.00,0.0325
426.00,0.0337
425.00,0.0350
424.00,0.0360
423.00,0.0365
422.00,0.0372
421.00,0.0382
420.00,0.0399
419.00,0.0426
418.00,0.0460
417.00,0.0494
416.00,0.0526
415.00,0.0557
414.00,0.0586
413.00,0.0606
412.00,0.0617
411.00,0.0624
410.00,0.0630
409.00,0.0631
408.00,0.0622
407.00,0.0602
406.00,0.0574
405.00,0.0540
404.00,0.0508
403.00,0.0485
402.00,0.0470
401.00,0.0458
400.00,0.0446
