Created as New Dataset,Sample 398 By YargerLab Date Thursday, December 04 2025
cm-1,A
4000.00,0.0155
3999.00,0.0154
3998.00,0.0154
3997.00,0.0154
3996.00,0.0154
3995.00,0.0154
3994.00,0.0154
3993.00,0.0154
3992.00,0.0154
3991.00,0.0154
3990.00,0.0154
3989.00,0.0154
3988.00,0.0154
3987.00,0.0154
3986.00,0.0154
3985.00,0.0154
3984.00,0.0154
3983.00,0.0154
3982.00,0.0154
3981.00,0.0154
3980.00,0.0155
3979.00,0.0155
3978.00,0.0155
3977.00,0.0155
3976.00,0.0154
3975.00,0.0154
3974.00,0.0154
3973.00,0.0154
3972.00,0.0154
3971.00,0.0154
3970.00,0.0154
3969.00,0.0154
3968.00,0.0154
3967.00,0.0154
3966.00,0.0154
3965.00,0.0154
3964.00,0.0154
3963.00,0.0154
3962.00,0.0154
3961.00,0.0154
3960.00,0.0154
3959.00,0.0154
3958.00,0.0154
3957.00,0.0154
3956.00,0.0154
3955.00,0.0154
3954.00,0.0154
3953.00,0.0154
3952.00,0.0154
3951.00,0.0154
3950.00,0.0154
3949.00,0.0154
3948.00,0.0154
3947.00,0.0154
3946.00,0.0155
3945.00,0.0155
3944.00,0.0155
3943.00,0.0155
3942.00,0.0155
3941.00,0.0155
3940.00,0.0155
3939.00,0.0155
3938.00,0.0155
3937.00,0.0155
3936.00,0.0155
3935.00,0.0155
3934.00,0.0155
3933.00,0.0155
3932.00,0.0155
3931.00,0.0154
3930.00,0.0154
3929.00,0.0154
3928.00,0.0154
3927.00,0.0155
3926.00,0.0154
3925.00,0.0154
3924.00,0.0154
3923.00,0.0155
3922.00,0.0154
3921.00,0.0154
3920.00,0.0154
3919.00,0.0154
3918.00,0.0154
3917.00,0.0154
3916.00,0.0154
3915.00,0.0154
3914.00,0.0154
3913.00,0.0154
3912.00,0.0154
3911.00,0.0154
3910.00,0.0154
3909.00,0.0154
3908.00,0.0154
3907.00,0.0154
3906.00,0.0154
3905.00,0.0154
3904.00,0.0154
3903.00,0.0154
3902.00,0.0154
3901.00,0.0154
3900.00,0.0154
3899.00,0.0153
3898.00,0.0153
3897.00,0.0153
3896.00,0.0153
3895.00,0.0153
3894.00,0.0153
3893.00,0.0153
3892.00,0.0153
3891.00,0.0153
3890.00,0.0153
3889.00,0.0153
3888.00,0.0153
3887.00,0.0153
3886.00,0.0153
3885.00,0.0152
3884.00,0.0152
3883.00,0.0152
3882.00,0.0151
3881.00,0.0151
3880.00,0.0151
3879.00,0.0151
3878.00,0.0151
3877.00,0.0151
3876.00,0.0151
3875.00,0.0151
3874.00,0.0151
3873.00,0.0152
3872.00,0.0152
3871.00,0.0152
3870.00,0.0152
3869.00,0.0152
3868.00,0.0152
3867.00,0.0152
3866.00,0.0152
3865.00,0.0152
3864.00,0.0152
3863.00,0.0152
3862.00,0.0152
3861.00,0.0152
3860.00,0.0152
3859.00,0.0152
3858.00,0.0152
3857.00,0.0151
3856.00,0.0151
3855.00,0.0151
3854.00,0.0152
3853.00,0.0152
3852.00,0.0152
3851.00,0.0151
3850.00,0.0151
3849.00,0.0150
3848.00,0.0150
3847.00,0.0150
3846.00,0.0150
3845.00,0.0150
3844.00,0.0151
3843.00,0.0151
3842.00,0.0151
3841.00,0.0151
3840.00,0.0151
3839.00,0.0151
3838.00,0.0151
3837.00,0.0151
3836.00,0.0151
3835.00,0.0151
3834.00,0.0151
3833.00,0.0150
3832.00,0.0150
3831.00,0.0150
3830.00,0.0151
3829.00,0.0150
3828.00,0.0150
3827.00,0.0150
3826.00,0.0150
3825.00,0.0150
3824.00,0.0151
3823.00,0.0151
3822.00,0.0151
3821.00,0.0151
3820.00,0.0151
3819.00,0.0150
3818.00,0.0150
3817.00,0.0150
3816.00,0.0150
3815.00,0.0149
3814.00,0.0149
3813.00,0.0149
3812.00,0.0149
3811.00,0.0149
3810.00,0.0149
3809.00,0.0149
3808.00,0.0149
3807.00,0.0149
3806.00,0.0149
3805.00,0.0149
3804.00,0.0149
3803.00,0.0149
3802.00,0.0149
3801.00,0.0149
3800.00,0.0150
3799.00,0.0150
3798.00,0.0150
3797.00,0.0150
3796.00,0.0150
3795.00,0.0150
3794.00,0.0149
3793.00,0.0149
3792.00,0.0149
3791.00,0.0149
3790.00,0.0149
3789.00,0.0149
3788.00,0.0149
3787.00,0.0149
3786.00,0.0149
3785.00,0.0149
3784.00,0.0149
3783.00,0.0149
3782.00,0.0149
3781.00,0.0149
3780.00,0.0149
3779.00,0.0149
3778.00,0.0149
3777.00,0.0149
3776.00,0.0149
3775.00,0.0149
3774.00,0.0149
3773.00,0.0149
3772.00,0.0149
3771.00,0.0149
3770.00,0.0149
3769.00,0.0149
3768.00,0.0149
3767.00,0.0149
3766.00,0.0149
3765.00,0.0149
3764.00,0.0149
3763.00,0.0149
3762.00,0.0149
3761.00,0.0149
3760.00,0.0149
3759.00,0.0149
3758.00,0.0149
3757.00,0.0149
3756.00,0.0149
3755.00,0.0149
3754.00,0.0149
3753.00,0.0149
3752.00,0.0149
3751.00,0.0149
3750.00,0.0149
3749.00,0.0149
3748.00,0.0149
3747.00,0.0149
3746.00,0.0149
3745.00,0.0149
3744.00,0.0148
3743.00,0.0148
3742.00,0.0148
3741.00,0.0147
3740.00,0.0147
3739.00,0.0147
3738.00,0.0147
3737.00,0.0148
3736.00,0.0148
3735.00,0.0147
3734.00,0.0147
3733.00,0.0146
3732.00,0.0146
3731.00,0.0146
3730.00,0.0147
3729.00,0.0147
3728.00,0.0147
3727.00,0.0147
3726.00,0.0147
3725.00,0.0147
3724.00,0.0146
3723.00,0.0146
3722.00,0.0146
3721.00,0.0146
3720.00,0.0146
3719.00,0.0146
3718.00,0.0146
3717.00,0.0145
3716.00,0.0145
3715.00,0.0146
3714.00,0.0146
3713.00,0.0146
3712.00,0.0146
3711.00,0.0146
3710.00,0.0145
3709.00,0.0145
3708.00,0.0144
3707.00,0.0144
3706.00,0.0145
3705.00,0.0145
3704.00,0.0145
3703.00,0.0145
3702.00,0.0145
3701.00,0.0145
3700.00,0.0145
3699.00,0.0144
3698.00,0.0144
3697.00,0.0144
3696.00,0.0144
3695.00,0.0144
3694.00,0.0144
3693.00,0.0144
3692.00,0.0144
3691.00,0.0144
3690.00,0.0144
3689.00,0.0143
3688.00,0.0143
3687.00,0.0143
3686.00,0.0144
3685.00,0.0144
3684.00,0.0144
3683.00,0.0144
3682.00,0.0144
3681.00,0.0144
3680.00,0.0144
3679.00,0.0144
3678.00,0.0144
3677.00,0.0144
3676.00,0.0144
3675.00,0.0144
3674.00,0.0144
3673.00,0.0144
3672.00,0.0144
3671.00,0.0144
3670.00,0.0144
3669.00,0.0144
3668.00,0.0143
3667.00,0.0143
3666.00,0.0143
3665.00,0.0143
3664.00,0.0143
3663.00,0.0144
3662.00,0.0144
3661.00,0.0144
3660.00,0.0144
3659.00,0.0143
3658.00,0.0143
3657.00,0.0143
3656.00,0.0143
3655.00,0.0143
3654.00,0.0143
3653.00,0.0143
3652.00,0.0143
3651.00,0.0144
3650.00,0.0144
3649.00,0.0143
3648.00,0.0143
3647.00,0.0142
3646.00,0.0142
3645.00,0.0142
3644.00,0.0141
3643.00,0.0141
3642.00,0.0141
3641.00,0.0141
3640.00,0.0141
3639.00,0.0141
3638.00,0.0141
3637.00,0.0141
3636.00,0.0141
3635.00,0.0141
3634.00,0.0141
3633.00,0.0141
3632.00,0.0141
3631.00,0.0141
3630.00,0.0141
3629.00,0.0141
3628.00,0.0141
3627.00,0.0141
3626.00,0.0141
3625.00,0.0140
3624.00,0.0140
3623.00,0.0140
3622.00,0.0140
3621.00,0.0140
3620.00,0.0140
3619.00,0.0140
3618.00,0.0140
3617.00,0.0140
3616.00,0.0140
3615.00,0.0140
3614.00,0.0140
3613.00,0.0140
3612.00,0.0140
3611.00,0.0140
3610.00,0.0140
3609.00,0.0140
3608.00,0.0140
3607.00,0.0140
3606.00,0.0140
3605.00,0.0139
3604.00,0.0139
3603.00,0.0139
3602.00,0.0139
3601.00,0.0139
3600.00,0.0139
3599.00,0.0139
3598.00,0.0139
3597.00,0.0138
3596.00,0.0138
3595.00,0.0138
3594.00,0.0138
3593.00,0.0138
3592.00,0.0138
3591.00,0.0138
3590.00,0.0137
3589.00,0.0137
3588.00,0.0137
3587.00,0.0137
3586.00,0.0137
3585.00,0.0137
3584.00,0.0137
3583.00,0.0137
3582.00,0.0137
3581.00,0.0137
3580.00,0.0137
3579.00,0.0137
3578.00,0.0137
3577.00,0.0137
3576.00,0.0137
3575.00,0.0136
3574.00,0.0136
3573.00,0.0136
3572.00,0.0136
3571.00,0.0136
3570.00,0.0136
3569.00,0.0136
3568.00,0.0136
3567.00,0.0136
3566.00,0.0136
3565.00,0.0136
3564.00,0.0136
3563.00,0.0136
3562.00,0.0136
3561.00,0.0136
3560.00,0.0136
3559.00,0.0136
3558.00,0.0136
3557.00,0.0136
3556.00,0.0136
3555.00,0.0136
3554.00,0.0136
3553.00,0.0136
3552.00,0.0136
3551.00,0.0136
3550.00,0.0136
3549.00,0.0136
3548.00,0.0136
3547.00,0.0136
3546.00,0.0136
3545.00,0.0136
3544.00,0.0135
3543.00,0.0135
3542.00,0.0135
3541.00,0.0136
3540.00,0.0136
3539.00,0.0136
3538.00,0.0135
3537.00,0.0135
3536.00,0.0135
3535.00,0.0135
3534.00,0.0135
3533.00,0.0135
3532.00,0.0135
3531.00,0.0135
3530.00,0.0134
3529.00,0.0134
3528.00,0.0134
3527.00,0.0134
3526.00,0.0134
3525.00,0.0135
3524.00,0.0135
3523.00,0.0134
3522.00,0.0134
3521.00,0.0134
3520.00,0.0134
3519.00,0.0134
3518.00,0.0134
3517.00,0.0134
3516.00,0.0134
3515.00,0.0134
3514.00,0.0134
3513.00,0.0133
3512.00,0.0133
3511.00,0.0133
3510.00,0.0133
3509.00,0.0133
3508.00,0.0133
3507.00,0.0133
3506.00,0.0133
3505.00,0.0133
3504.00,0.0133
3503.00,0.0133
3502.00,0.0133
3501.00,0.0133
3500.00,0.0133
3499.00,0.0133
3498.00,0.0133
3497.00,0.0133
3496.00,0.0132
3495.00,0.0132
3494.00,0.0132
3493.00,0.0132
3492.00,0.0132
3491.00,0.0132
3490.00,0.0132
3489.00,0.0131
3488.00,0.0131
3487.00,0.0131
3486.00,0.0131
3485.00,0.0131
3484.00,0.0131
3483.00,0.0131
3482.00,0.0131
3481.00,0.0131
3480.00,0.0131
3479.00,0.0131
3478.00,0.0130
3477.00,0.0130
3476.00,0.0130
3475.00,0.0130
3474.00,0.0130
3473.00,0.0130
3472.00,0.0130
3471.00,0.0130
3470.00,0.0130
3469.00,0.0129
3468.00,0.0129
3467.00,0.0129
3466.00,0.0129
3465.00,0.0129
3464.00,0.0129
3463.00,0.0128
3462.00,0.0128
3461.00,0.0128
3460.00,0.0128
3459.00,0.0129
3458.00,0.0129
3457.00,0.0129
3456.00,0.0128
3455.00,0.0128
3454.00,0.0128
3453.00,0.0128
3452.00,0.0128
3451.00,0.0129
3450.00,0.0129
3449.00,0.0129
3448.00,0.0129
3447.00,0.0129
3446.00,0.0129
3445.00,0.0129
3444.00,0.0129
3443.00,0.0129
3442.00,0.0129
3441.00,0.0129
3440.00,0.0129
3439.00,0.0129
3438.00,0.0129
3437.00,0.0129
3436.00,0.0129
3435.00,0.0129
3434.00,0.0129
3433.00,0.0129
3432.00,0.0129
3431.00,0.0129
3430.00,0.0129
3429.00,0.0130
3428.00,0.0130
3427.00,0.0130
3426.00,0.0130
3425.00,0.0131
3424.00,0.0131
3423.00,0.0131
3422.00,0.0132
3421.00,0.0132
3420.00,0.0132
3419.00,0.0133
3418.00,0.0133
3417.00,0.0134
3416.00,0.0134
3415.00,0.0134
3414.00,0.0135
3413.00,0.0135
3412.00,0.0135
3411.00,0.0136
3410.00,0.0136
3409.00,0.0137
3408.00,0.0137
3407.00,0.0137
3406.00,0.0138
3405.00,0.0138
3404.00,0.0139
3403.00,0.0139
3402.00,0.0140
3401.00,0.0141
3400.00,0.0142
3399.00,0.0143
3398.00,0.0144
3397.00,0.0145
3396.00,0.0146
3395.00,0.0147
3394.00,0.0148
3393.00,0.0149
3392.00,0.0151
3391.00,0.0153
3390.00,0.0155
3389.00,0.0157
3388.00,0.0159
3387.00,0.0161
3386.00,0.0163
3385.00,0.0166
3384.00,0.0168
3383.00,0.0170
3382.00,0.0173
3381.00,0.0175
3380.00,0.0177
3379.00,0.0180
3378.00,0.0182
3377.00,0.0184
3376.00,0.0187
3375.00,0.0190
3374.00,0.0192
3373.00,0.0194
3372.00,0.0196
3371.00,0.0198
3370.00,0.0201
3369.00,0.0204
3368.00,0.0209
3367.00,0.0214
3366.00,0.0220
3365.00,0.0226
3364.00,0.0232
3363.00,0.0237
3362.00,0.0243
3361.00,0.0250
3360.00,0.0257
3359.00,0.0265
3358.00,0.0274
3357.00,0.0283
3356.00,0.0293
3355.00,0.0302
3354.00,0.0312
3353.00,0.0322
3352.00,0.0334
3351.00,0.0346
3350.00,0.0361
3349.00,0.0377
3348.00,0.0394
3347.00,0.0413
3346.00,0.0433
3345.00,0.0455
3344.00,0.0479
3343.00,0.0506
3342.00,0.0535
3341.00,0.0566
3340.00,0.0598
3339.00,0.0633
3338.00,0.0668
3337.00,0.0702
3336.00,0.0736
3335.00,0.0766
3334.00,0.0793
3333.00,0.0815
3332.00,0.0832
3331.00,0.0845
3330.00,0.0853
3329.00,0.0857
3328.00,0.0859
3327.00,0.0858
3326.00,0.0857
3325.00,0.0854
3324.00,0.0850
3323.00,0.0844
3322.00,0.0836
3321.00,0.0825
3320.00,0.0812
3319.00,0.0795
3318.00,0.0776
3317.00,0.0756
3316.00,0.0733
3315.00,0.0710
3314.00,0.0687
3313.00,0.0664
3312.00,0.0642
3311.00,0.0620
3310.00,0.0600
3309.00,0.0580
3308.00,0.0563
3307.00,0.0546
3306.00,0.0531
3305.00,0.0518
3304.00,0.0506
3303.00,0.0495
3302.00,0.0485
3301.00,0.0476
3300.00,0.0467
3299.00,0.0459
3298.00,0.0452
3297.00,0.0445
3296.00,0.0439
3295.00,0.0433
3294.00,0.0427
3293.00,0.0422
3292.00,0.0416
3291.00,0.0411
3290.00,0.0405
3289.00,0.0399
3288.00,0.0393
3287.00,0.0387
3286.00,0.0381
3285.00,0.0374
3284.00,0.0368
3283.00,0.0362
3282.00,0.0357
3281.00,0.0351
3280.00,0.0347
3279.00,0.0343
3278.00,0.0340
3277.00,0.0337
3276.00,0.0335
3275.00,0.0333
3274.00,0.0332
3273.00,0.0331
3272.00,0.0330
3271.00,0.0330
3270.00,0.0330
3269.00,0.0330
3268.00,0.0331
3267.00,0.0331
3266.00,0.0331
3265.00,0.0331
3264.00,0.0330
3263.00,0.0329
3262.00,0.0329
3261.00,0.0327
3260.00,0.0326
3259.00,0.0324
3258.00,0.0323
3257.00,0.0321
3256.00,0.0320
3255.00,0.0319
3254.00,0.0318
3253.00,0.0317
3252.00,0.0316
3251.00,0.0316
3250.00,0.0315
3249.00,0.0314
3248.00,0.0313
3247.00,0.0313
3246.00,0.0313
3245.00,0.0314
3244.00,0.0314
3243.00,0.0314
3242.00,0.0314
3241.00,0.0314
3240.00,0.0313
3239.00,0.0312
3238.00,0.0311
3237.00,0.0308
3236.00,0.0305
3235.00,0.0302
3234.00,0.0298
3233.00,0.0295
3232.00,0.0292
3231.00,0.0288
3230.00,0.0285
3229.00,0.0281
3228.00,0.0276
3227.00,0.0272
3226.00,0.0268
3225.00,0.0264
3224.00,0.0260
3223.00,0.0257
3222.00,0.0253
3221.00,0.0250
3220.00,0.0246
3219.00,0.0243
3218.00,0.0240
3217.00,0.0238
3216.00,0.0235
3215.00,0.0233
3214.00,0.0231
3213.00,0.0228
3212.00,0.0226
3211.00,0.0224
3210.00,0.0222
3209.00,0.0220
3208.00,0.0219
3207.00,0.0217
3206.00,0.0216
3205.00,0.0215
3204.00,0.0214
3203.00,0.0212
3202.00,0.0210
3201.00,0.0209
3200.00,0.0207
3199.00,0.0206
3198.00,0.0204
3197.00,0.0203
3196.00,0.0202
3195.00,0.0201
3194.00,0.0200
3193.00,0.0199
3192.00,0.0198
3191.00,0.0198
3190.00,0.0197
3189.00,0.0196
3188.00,0.0196
3187.00,0.0195
3186.00,0.0195
3185.00,0.0195
3184.00,0.0195
3183.00,0.0195
3182.00,0.0194
3181.00,0.0194
3180.00,0.0194
3179.00,0.0194
3178.00,0.0194
3177.00,0.0194
3176.00,0.0193
3175.00,0.0193
3174.00,0.0192
3173.00,0.0192
3172.00,0.0192
3171.00,0.0191
3170.00,0.0191
3169.00,0.0190
3168.00,0.0190
3167.00,0.0189
3166.00,0.0189
3165.00,0.0189
3164.00,0.0188
3163.00,0.0188
3162.00,0.0187
3161.00,0.0187
3160.00,0.0187
3159.00,0.0187
3158.00,0.0187
3157.00,0.0187
3156.00,0.0188
3155.00,0.0188
3154.00,0.0188
3153.00,0.0188
3152.00,0.0189
3151.00,0.0190
3150.00,0.0190
3149.00,0.0190
3148.00,0.0191
3147.00,0.0191
3146.00,0.0191
3145.00,0.0191
3144.00,0.0192
3143.00,0.0192
3142.00,0.0192
3141.00,0.0192
3140.00,0.0193
3139.00,0.0193
3138.00,0.0194
3137.00,0.0195
3136.00,0.0196
3135.00,0.0196
3134.00,0.0197
3133.00,0.0198
3132.00,0.0199
3131.00,0.0200
3130.00,0.0201
3129.00,0.0202
3128.00,0.0203
3127.00,0.0204
3126.00,0.0205
3125.00,0.0206
3124.00,0.0208
3123.00,0.0210
3122.00,0.0211
3121.00,0.0213
3120.00,0.0216
3119.00,0.0218
3118.00,0.0220
3117.00,0.0223
3116.00,0.0226
3115.00,0.0229
3114.00,0.0232
3113.00,0.0235
3112.00,0.0239
3111.00,0.0242
3110.00,0.0246
3109.00,0.0249
3108.00,0.0253
3107.00,0.0256
3106.00,0.0259
3105.00,0.0261
3104.00,0.0263
3103.00,0.0263
3102.00,0.0264
3101.00,0.0263
3100.00,0.0262
3099.00,0.0260
3098.00,0.0258
3097.00,0.0255
3096.00,0.0252
3095.00,0.0249
3094.00,0.0246
3093.00,0.0243
3092.00,0.0241
3091.00,0.0239
3090.00,0.0237
3089.00,0.0236
3088.00,0.0236
3087.00,0.0237
3086.00,0.0238
3085.00,0.0239
3084.00,0.0240
3083.00,0.0241
3082.00,0.0241
3081.00,0.0241
3080.00,0.0241
3079.00,0.0240
3078.00,0.0239
3077.00,0.0237
3076.00,0.0233
3075.00,0.0229
3074.00,0.0223
3073.00,0.0218
3072.00,0.0214
3071.00,0.0211
3070.00,0.0208
3069.00,0.0207
3068.00,0.0207
3067.00,0.0208
3066.00,0.0210
3065.00,0.0212
3064.00,0.0213
3063.00,0.0214
3062.00,0.0214
3061.00,0.0212
3060.00,0.0210
3059.00,0.0208
3058.00,0.0205
3057.00,0.0203
3056.00,0.0201
3055.00,0.0200
3054.00,0.0199
3053.00,0.0198
3052.00,0.0198
3051.00,0.0197
3050.00,0.0198
3049.00,0.0198
3048.00,0.0198
3047.00,0.0197
3046.00,0.0197
3045.00,0.0196
3044.00,0.0197
3043.00,0.0198
3042.00,0.0199
3041.00,0.0201
3040.00,0.0203
3039.00,0.0205
3038.00,0.0207
3037.00,0.0208
3036.00,0.0210
3035.00,0.0211
3034.00,0.0212
3033.00,0.0214
3032.00,0.0216
3031.00,0.0218
3030.00,0.0219
3029.00,0.0221
3028.00,0.0222
3027.00,0.0222
3026.00,0.0222
3025.00,0.0221
3024.00,0.0220
3023.00,0.0219
3022.00,0.0218
3021.00,0.0216
3020.00,0.0215
3019.00,0.0214
3018.00,0.0213
3017.00,0.0213
3016.00,0.0213
3015.00,0.0214
3014.00,0.0215
3013.00,0.0218
3012.00,0.0221
3011.00,0.0225
3010.00,0.0230
3009.00,0.0236
3008.00,0.0243
3007.00,0.0250
3006.00,0.0257
3005.00,0.0265
3004.00,0.0274
3003.00,0.0282
3002.00,0.0290
3001.00,0.0297
3000.00,0.0302
2999.00,0.0306
2998.00,0.0309
2997.00,0.0310
2996.00,0.0307
2995.00,0.0303
2994.00,0.0295
2993.00,0.0287
2992.00,0.0279
2991.00,0.0271
2990.00,0.0265
2989.00,0.0259
2988.00,0.0255
2987.00,0.0251
2986.00,0.0248
2985.00,0.0246
2984.00,0.0244
2983.00,0.0243
2982.00,0.0242
2981.00,0.0240
2980.00,0.0239
2979.00,0.0239
2978.00,0.0238
2977.00,0.0237
2976.00,0.0236
2975.00,0.0236
2974.00,0.0237
2973.00,0.0238
2972.00,0.0239
2971.00,0.0241
2970.00,0.0243
2969.00,0.0246
2968.00,0.0249
2967.00,0.0254
2966.00,0.0261
2965.00,0.0270
2964.00,0.0281
2963.00,0.0294
2962.00,0.0310
2961.00,0.0328
2960.00,0.0347
2959.00,0.0366
2958.00,0.0385
2957.00,0.0401
2956.00,0.0413
2955.00,0.0420
2954.00,0.0422
2953.00,0.0419
2952.00,0.0411
2951.00,0.0398
2950.00,0.0382
2949.00,0.0364
2948.00,0.0347
2947.00,0.0330
2946.00,0.0315
2945.00,0.0303
2944.00,0.0292
2943.00,0.0283
2942.00,0.0276
2941.00,0.0270
2940.00,0.0266
2939.00,0.0262
2938.00,0.0259
2937.00,0.0257
2936.00,0.0255
2935.00,0.0253
2934.00,0.0252
2933.00,0.0250
2932.00,0.0248
2931.00,0.0246
2930.00,0.0243
2929.00,0.0240
2928.00,0.0237
2927.00,0.0234
2926.00,0.0230
2925.00,0.0226
2924.00,0.0223
2923.00,0.0219
2922.00,0.0216
2921.00,0.0213
2920.00,0.0211
2919.00,0.0210
2918.00,0.0209
2917.00,0.0208
2916.00,0.0208
2915.00,0.0209
2914.00,0.0210
2913.00,0.0210
2912.00,0.0211
2911.00,0.0211
2910.00,0.0211
2909.00,0.0211
2908.00,0.0210
2907.00,0.0209
2906.00,0.0208
2905.00,0.0208
2904.00,0.0207
2903.00,0.0207
2902.00,0.0206
2901.00,0.0206
2900.00,0.0205
2899.00,0.0204
2898.00,0.0203
2897.00,0.0202
2896.00,0.0201
2895.00,0.0200
2894.00,0.0200
2893.00,0.0200
2892.00,0.0200
2891.00,0.0200
2890.00,0.0201
2889.00,0.0201
2888.00,0.0202
2887.00,0.0203
2886.00,0.0204
2885.00,0.0205
2884.00,0.0206
2883.00,0.0206
2882.00,0.0207
2881.00,0.0207
2880.00,0.0208
2879.00,0.0208
2878.00,0.0209
2877.00,0.0210
2876.00,0.0210
2875.00,0.0212
2874.00,0.0213
2873.00,0.0215
2872.00,0.0216
2871.00,0.0218
2870.00,0.0218
2869.00,0.0217
2868.00,0.0216
2867.00,0.0214
2866.00,0.0211
2865.00,0.0209
2864.00,0.0206
2863.00,0.0204
2862.00,0.0201
2861.00,0.0198
2860.00,0.0196
2859.00,0.0193
2858.00,0.0192
2857.00,0.0190
2856.00,0.0188
2855.00,0.0187
2854.00,0.0187
2853.00,0.0187
2852.00,0.0188
2851.00,0.0190
2850.00,0.0192
2849.00,0.0196
2848.00,0.0201
2847.00,0.0207
2846.00,0.0213
2845.00,0.0218
2844.00,0.0222
2843.00,0.0224
2842.00,0.0223
2841.00,0.0221
2840.00,0.0217
2839.00,0.0213
2838.00,0.0209
2837.00,0.0205
2836.00,0.0202
2835.00,0.0199
2834.00,0.0196
2833.00,0.0194
2832.00,0.0193
2831.00,0.0191
2830.00,0.0190
2829.00,0.0190
2828.00,0.0189
2827.00,0.0189
2826.00,0.0188
2825.00,0.0188
2824.00,0.0188
2823.00,0.0188
2822.00,0.0188
2821.00,0.0188
2820.00,0.0188
2819.00,0.0188
2818.00,0.0189
2817.00,0.0189
2816.00,0.0189
2815.00,0.0189
2814.00,0.0190
2813.00,0.0190
2812.00,0.0191
2811.00,0.0191
2810.00,0.0191
2809.00,0.0191
2808.00,0.0191
2807.00,0.0191
2806.00,0.0190
2805.00,0.0190
2804.00,0.0189
2803.00,0.0188
2802.00,0.0188
2801.00,0.0187
2800.00,0.0186
2799.00,0.0185
2798.00,0.0183
2797.00,0.0182
2796.00,0.0181
2795.00,0.0180
2794.00,0.0179
2793.00,0.0178
2792.00,0.0176
2791.00,0.0175
2790.00,0.0174
2789.00,0.0173
2788.00,0.0172
2787.00,0.0171
2786.00,0.0170
2785.00,0.0169
2784.00,0.0168
2783.00,0.0168
2782.00,0.0167
2781.00,0.0167
2780.00,0.0166
2779.00,0.0166
2778.00,0.0165
2777.00,0.0165
2776.00,0.0165
2775.00,0.0165
2774.00,0.0165
2773.00,0.0165
2772.00,0.0165
2771.00,0.0165
2770.00,0.0165
2769.00,0.0165
2768.00,0.0165
2767.00,0.0164
2766.00,0.0164
2765.00,0.0164
2764.00,0.0164
2763.00,0.0163
2762.00,0.0163
2761.00,0.0163
2760.00,0.0163
2759.00,0.0163
2758.00,0.0163
2757.00,0.0163
2756.00,0.0162
2755.00,0.0162
2754.00,0.0162
2753.00,0.0162
2752.00,0.0161
2751.00,0.0161
2750.00,0.0161
2749.00,0.0161
2748.00,0.0161
2747.00,0.0161
2746.00,0.0161
2745.00,0.0161
2744.00,0.0161
2743.00,0.0161
2742.00,0.0161
2741.00,0.0160
2740.00,0.0160
2739.00,0.0160
2738.00,0.0159
2737.00,0.0159
2736.00,0.0159
2735.00,0.0159
2734.00,0.0159
2733.00,0.0159
2732.00,0.0159
2731.00,0.0159
2730.00,0.0159
2729.00,0.0159
2728.00,0.0159
2727.00,0.0159
2726.00,0.0160
2725.00,0.0160
2724.00,0.0160
2723.00,0.0161
2722.00,0.0161
2721.00,0.0161
2720.00,0.0160
2719.00,0.0160
2718.00,0.0160
2717.00,0.0160
2716.00,0.0160
2715.00,0.0160
2714.00,0.0160
2713.00,0.0159
2712.00,0.0159
2711.00,0.0159
2710.00,0.0158
2709.00,0.0158
2708.00,0.0158
2707.00,0.0158
2706.00,0.0158
2705.00,0.0158
2704.00,0.0158
2703.00,0.0158
2702.00,0.0158
2701.00,0.0158
2700.00,0.0158
2699.00,0.0158
2698.00,0.0158
2697.00,0.0158
2696.00,0.0158
2695.00,0.0158
2694.00,0.0158
2693.00,0.0158
2692.00,0.0158
2691.00,0.0158
2690.00,0.0157
2689.00,0.0157
2688.00,0.0157
2687.00,0.0157
2686.00,0.0157
2685.00,0.0157
2684.00,0.0157
2683.00,0.0156
2682.00,0.0156
2681.00,0.0156
2680.00,0.0157
2679.00,0.0157
2678.00,0.0157
2677.00,0.0157
2676.00,0.0157
2675.00,0.0157
2674.00,0.0157
2673.00,0.0157
2672.00,0.0157
2671.00,0.0157
2670.00,0.0157
2669.00,0.0156
2668.00,0.0156
2667.00,0.0156
2666.00,0.0156
2665.00,0.0157
2664.00,0.0157
2663.00,0.0157
2662.00,0.0157
2661.00,0.0157
2660.00,0.0158
2659.00,0.0158
2658.00,0.0158
2657.00,0.0158
2656.00,0.0158
2655.00,0.0158
2654.00,0.0158
2653.00,0.0158
2652.00,0.0158
2651.00,0.0158
2650.00,0.0158
2649.00,0.0158
2648.00,0.0158
2647.00,0.0158
2646.00,0.0158
2645.00,0.0158
2644.00,0.0158
2643.00,0.0158
2642.00,0.0158
2641.00,0.0158
2640.00,0.0158
2639.00,0.0158
2638.00,0.0157
2637.00,0.0157
2636.00,0.0157
2635.00,0.0156
2634.00,0.0156
2633.00,0.0156
2632.00,0.0156
2631.00,0.0156
2630.00,0.0156
2629.00,0.0156
2628.00,0.0156
2627.00,0.0157
2626.00,0.0157
2625.00,0.0158
2624.00,0.0158
2623.00,0.0158
2622.00,0.0159
2621.00,0.0158
2620.00,0.0158
2619.00,0.0158
2618.00,0.0158
2617.00,0.0158
2616.00,0.0158
2615.00,0.0158
2614.00,0.0158
2613.00,0.0157
2612.00,0.0157
2611.00,0.0156
2610.00,0.0156
2609.00,0.0156
2608.00,0.0155
2607.00,0.0155
2606.00,0.0155
2605.00,0.0154
2604.00,0.0154
2603.00,0.0153
2602.00,0.0153
2601.00,0.0153
2600.00,0.0152
2599.00,0.0152
2598.00,0.0152
2597.00,0.0151
2596.00,0.0150
2595.00,0.0150
2594.00,0.0150
2593.00,0.0149
2592.00,0.0149
2591.00,0.0149
2590.00,0.0149
2589.00,0.0149
2588.00,0.0149
2587.00,0.0149
2586.00,0.0148
2585.00,0.0148
2584.00,0.0148
2583.00,0.0148
2582.00,0.0148
2581.00,0.0147
2580.00,0.0147
2579.00,0.0146
2578.00,0.0146
2577.00,0.0145
2576.00,0.0145
2575.00,0.0145
2574.00,0.0144
2573.00,0.0144
2572.00,0.0144
2571.00,0.0143
2570.00,0.0143
2569.00,0.0143
2568.00,0.0143
2567.00,0.0143
2566.00,0.0142
2565.00,0.0142
2564.00,0.0142
2563.00,0.0142
2562.00,0.0142
2561.00,0.0143
2560.00,0.0143
2559.00,0.0143
2558.00,0.0143
2557.00,0.0143
2556.00,0.0143
2555.00,0.0142
2554.00,0.0142
2553.00,0.0143
2552.00,0.0143
2551.00,0.0143
2550.00,0.0143
2549.00,0.0143
2548.00,0.0144
2547.00,0.0144
2546.00,0.0144
2545.00,0.0144
2544.00,0.0144
2543.00,0.0144
2542.00,0.0144
2541.00,0.0144
2540.00,0.0145
2539.00,0.0145
2538.00,0.0146
2537.00,0.0146
2536.00,0.0146
2535.00,0.0146
2534.00,0.0145
2533.00,0.0145
2532.00,0.0145
2531.00,0.0145
2530.00,0.0144
2529.00,0.0144
2528.00,0.0144
2527.00,0.0143
2526.00,0.0143
2525.00,0.0142
2524.00,0.0142
2523.00,0.0142
2522.00,0.0141
2521.00,0.0141
2520.00,0.0141
2519.00,0.0141
2518.00,0.0141
2517.00,0.0141
2516.00,0.0141
2515.00,0.0141
2514.00,0.0140
2513.00,0.0140
2512.00,0.0140
2511.00,0.0140
2510.00,0.0140
2509.00,0.0140
2508.00,0.0140
2507.00,0.0139
2506.00,0.0139
2505.00,0.0139
2504.00,0.0139
2503.00,0.0139
2502.00,0.0139
2501.00,0.0138
2500.00,0.0138
2499.00,0.0139
2498.00,0.0139
2497.00,0.0139
2496.00,0.0139
2495.00,0.0139
2494.00,0.0140
2493.00,0.0140
2492.00,0.0141
2491.00,0.0142
2490.00,0.0142
2489.00,0.0142
2488.00,0.0142
2487.00,0.0142
2486.00,0.0142
2485.00,0.0141
2484.00,0.0141
2483.00,0.0141
2482.00,0.0140
2481.00,0.0140
2480.00,0.0139
2479.00,0.0138
2478.00,0.0138
2477.00,0.0138
2476.00,0.0138
2475.00,0.0138
2474.00,0.0138
2473.00,0.0137
2472.00,0.0137
2471.00,0.0138
2470.00,0.0138
2469.00,0.0138
2468.00,0.0138
2467.00,0.0138
2466.00,0.0138
2465.00,0.0139
2464.00,0.0139
2463.00,0.0139
2462.00,0.0140
2461.00,0.0140
2460.00,0.0141
2459.00,0.0141
2458.00,0.0142
2457.00,0.0143
2456.00,0.0143
2455.00,0.0144
2454.00,0.0144
2453.00,0.0144
2452.00,0.0144
2451.00,0.0144
2450.00,0.0144
2449.00,0.0144
2448.00,0.0143
2447.00,0.0142
2446.00,0.0141
2445.00,0.0141
2444.00,0.0140
2443.00,0.0140
2442.00,0.0140
2441.00,0.0139
2440.00,0.0139
2439.00,0.0139
2438.00,0.0139
2437.00,0.0138
2436.00,0.0138
2435.00,0.0137
2434.00,0.0137
2433.00,0.0137
2432.00,0.0137
2431.00,0.0137
2430.00,0.0137
2429.00,0.0136
2428.00,0.0136
2427.00,0.0136
2426.00,0.0136
2425.00,0.0136
2424.00,0.0136
2423.00,0.0136
2422.00,0.0137
2421.00,0.0137
2420.00,0.0137
2419.00,0.0137
2418.00,0.0136
2417.00,0.0136
2416.00,0.0136
2415.00,0.0135
2414.00,0.0135
2413.00,0.0135
2412.00,0.0135
2411.00,0.0135
2410.00,0.0134
2409.00,0.0133
2408.00,0.0133
2407.00,0.0132
2406.00,0.0132
2405.00,0.0132
2404.00,0.0132
2403.00,0.0132
2402.00,0.0132
2401.00,0.0132
2400.00,0.0132
2399.00,0.0132
2398.00,0.0132
2397.00,0.0131
2396.00,0.0131
2395.00,0.0131
2394.00,0.0131
2393.00,0.0131
2392.00,0.0131
2391.00,0.0131
2390.00,0.0131
2389.00,0.0131
2388.00,0.0131
2387.00,0.0131
2386.00,0.0131
2385.00,0.0131
2384.00,0.0131
2383.00,0.0131
2382.00,0.0130
2381.00,0.0129
2380.00,0.0128
2379.00,0.0128
2378.00,0.0128
2377.00,0.0128
2376.00,0.0129
2375.00,0.0128
2374.00,0.0128
2373.00,0.0127
2372.00,0.0126
2371.00,0.0126
2370.00,0.0126
2369.00,0.0126
2368.00,0.0126
2367.00,0.0127
2366.00,0.0127
2365.00,0.0127
2364.00,0.0127
2363.00,0.0127
2362.00,0.0128
2361.00,0.0128
2360.00,0.0128
2359.00,0.0128
2358.00,0.0128
2357.00,0.0127
2356.00,0.0128
2355.00,0.0128
2354.00,0.0129
2353.00,0.0129
2352.00,0.0128
2351.00,0.0128
2350.00,0.0128
2349.00,0.0129
2348.00,0.0129
2347.00,0.0129
2346.00,0.0129
2345.00,0.0129
2344.00,0.0128
2343.00,0.0128
2342.00,0.0128
2341.00,0.0129
2340.00,0.0130
2339.00,0.0130
2338.00,0.0130
2337.00,0.0131
2336.00,0.0131
2335.00,0.0131
2334.00,0.0131
2333.00,0.0131
2332.00,0.0131
2331.00,0.0131
2330.00,0.0131
2329.00,0.0132
2328.00,0.0135
2327.00,0.0139
2326.00,0.0142
2325.00,0.0142
2324.00,0.0141
2323.00,0.0139
2322.00,0.0137
2321.00,0.0135
2320.00,0.0133
2319.00,0.0132
2318.00,0.0131
2317.00,0.0130
2316.00,0.0130
2315.00,0.0129
2314.00,0.0128
2313.00,0.0127
2312.00,0.0126
2311.00,0.0126
2310.00,0.0125
2309.00,0.0125
2308.00,0.0125
2307.00,0.0125
2306.00,0.0125
2305.00,0.0126
2304.00,0.0126
2303.00,0.0126
2302.00,0.0126
2301.00,0.0126
2300.00,0.0126
2299.00,0.0126
2298.00,0.0127
2297.00,0.0128
2296.00,0.0130
2295.00,0.0131
2294.00,0.0132
2293.00,0.0133
2292.00,0.0135
2291.00,0.0136
2290.00,0.0137
2289.00,0.0138
2288.00,0.0139
2287.00,0.0139
2286.00,0.0139
2285.00,0.0138
2284.00,0.0137
2283.00,0.0136
2282.00,0.0135
2281.00,0.0133
2280.00,0.0133
2279.00,0.0132
2278.00,0.0132
2277.00,0.0132
2276.00,0.0132
2275.00,0.0132
2274.00,0.0132
2273.00,0.0132
2272.00,0.0132
2271.00,0.0132
2270.00,0.0131
2269.00,0.0130
2268.00,0.0129
2267.00,0.0128
2266.00,0.0127
2265.00,0.0126
2264.00,0.0126
2263.00,0.0126
2262.00,0.0125
2261.00,0.0125
2260.00,0.0125
2259.00,0.0124
2258.00,0.0123
2257.00,0.0121
2256.00,0.0120
2255.00,0.0119
2254.00,0.0119
2253.00,0.0119
2252.00,0.0119
2251.00,0.0119
2250.00,0.0118
2249.00,0.0118
2248.00,0.0118
2247.00,0.0118
2246.00,0.0117
2245.00,0.0117
2244.00,0.0117
2243.00,0.0117
2242.00,0.0117
2241.00,0.0116
2240.00,0.0117
2239.00,0.0117
2238.00,0.0116
2237.00,0.0116
2236.00,0.0115
2235.00,0.0115
2234.00,0.0114
2233.00,0.0114
2232.00,0.0113
2231.00,0.0112
2230.00,0.0112
2229.00,0.0111
2228.00,0.0112
2227.00,0.0113
2226.00,0.0113
2225.00,0.0113
2224.00,0.0114
2223.00,0.0114
2222.00,0.0114
2221.00,0.0114
2220.00,0.0114
2219.00,0.0113
2218.00,0.0111
2217.00,0.0111
2216.00,0.0111
2215.00,0.0111
2214.00,0.0112
2213.00,0.0112
2212.00,0.0113
2211.00,0.0113
2210.00,0.0112
2209.00,0.0112
2208.00,0.0112
2207.00,0.0112
2206.00,0.0112
2205.00,0.0113
2204.00,0.0112
2203.00,0.0111
2202.00,0.0110
2201.00,0.0109
2200.00,0.0109
2199.00,0.0108
2198.00,0.0108
2197.00,0.0108
2196.00,0.0109
2195.00,0.0109
2194.00,0.0109
2193.00,0.0110
2192.00,0.0110
2191.00,0.0110
2190.00,0.0109
2189.00,0.0109
2188.00,0.0110
2187.00,0.0110
2186.00,0.0109
2185.00,0.0108
2184.00,0.0107
2183.00,0.0106
2182.00,0.0105
2181.00,0.0106
2180.00,0.0108
2179.00,0.0108
2178.00,0.0107
2177.00,0.0105
2176.00,0.0104
2175.00,0.0104
2174.00,0.0106
2173.00,0.0109
2172.00,0.0113
2171.00,0.0116
2170.00,0.0118
2169.00,0.0120
2168.00,0.0121
2167.00,0.0121
2166.00,0.0121
2165.00,0.0122
2164.00,0.0123
2163.00,0.0122
2162.00,0.0116
2161.00,0.0105
2160.00,0.0092
2159.00,0.0081
2158.00,0.0075
2157.00,0.0076
2156.00,0.0080
2155.00,0.0083
2154.00,0.0086
2153.00,0.0089
2152.00,0.0092
2151.00,0.0093
2150.00,0.0093
2149.00,0.0094
2148.00,0.0095
2147.00,0.0095
2146.00,0.0095
2145.00,0.0095
2144.00,0.0095
2143.00,0.0095
2142.00,0.0094
2141.00,0.0094
2140.00,0.0094
2139.00,0.0093
2138.00,0.0091
2137.00,0.0088
2136.00,0.0086
2135.00,0.0084
2134.00,0.0085
2133.00,0.0087
2132.00,0.0091
2131.00,0.0094
2130.00,0.0095
2129.00,0.0097
2128.00,0.0098
2127.00,0.0098
2126.00,0.0098
2125.00,0.0099
2124.00,0.0100
2123.00,0.0102
2122.00,0.0103
2121.00,0.0104
2120.00,0.0105
2119.00,0.0106
2118.00,0.0106
2117.00,0.0107
2116.00,0.0107
2115.00,0.0108
2114.00,0.0108
2113.00,0.0107
2112.00,0.0107
2111.00,0.0107
2110.00,0.0107
2109.00,0.0106
2108.00,0.0107
2107.00,0.0106
2106.00,0.0106
2105.00,0.0107
2104.00,0.0107
2103.00,0.0108
2102.00,0.0109
2101.00,0.0109
2100.00,0.0109
2099.00,0.0109
2098.00,0.0107
2097.00,0.0106
2096.00,0.0104
2095.00,0.0103
2094.00,0.0103
2093.00,0.0104
2092.00,0.0106
2091.00,0.0107
2090.00,0.0107
2089.00,0.0108
2088.00,0.0109
2087.00,0.0110
2086.00,0.0110
2085.00,0.0110
2084.00,0.0111
2083.00,0.0111
2082.00,0.0110
2081.00,0.0110
2080.00,0.0109
2079.00,0.0108
2078.00,0.0108
2077.00,0.0108
2076.00,0.0109
2075.00,0.0110
2074.00,0.0109
2073.00,0.0109
2072.00,0.0109
2071.00,0.0109
2070.00,0.0108
2069.00,0.0108
2068.00,0.0109
2067.00,0.0109
2066.00,0.0109
2065.00,0.0109
2064.00,0.0108
2063.00,0.0107
2062.00,0.0105
2061.00,0.0104
2060.00,0.0104
2059.00,0.0104
2058.00,0.0104
2057.00,0.0103
2056.00,0.0103
2055.00,0.0103
2054.00,0.0105
2053.00,0.0109
2052.00,0.0112
2051.00,0.0110
2050.00,0.0104
2049.00,0.0097
2048.00,0.0093
2047.00,0.0091
2046.00,0.0090
2045.00,0.0090
2044.00,0.0090
2043.00,0.0089
2042.00,0.0088
2041.00,0.0087
2040.00,0.0088
2039.00,0.0088
2038.00,0.0087
2037.00,0.0086
2036.00,0.0085
2035.00,0.0083
2034.00,0.0081
2033.00,0.0081
2032.00,0.0083
2031.00,0.0084
2030.00,0.0085
2029.00,0.0085
2028.00,0.0086
2027.00,0.0086
2026.00,0.0086
2025.00,0.0088
2024.00,0.0091
2023.00,0.0091
2022.00,0.0089
2021.00,0.0088
2020.00,0.0088
2019.00,0.0089
2018.00,0.0089
2017.00,0.0090
2016.00,0.0091
2015.00,0.0092
2014.00,0.0092
2013.00,0.0093
2012.00,0.0095
2011.00,0.0095
2010.00,0.0093
2009.00,0.0092
2008.00,0.0092
2007.00,0.0092
2006.00,0.0092
2005.00,0.0095
2004.00,0.0100
2003.00,0.0104
2002.00,0.0107
2001.00,0.0108
2000.00,0.0109
1999.00,0.0108
1998.00,0.0105
1997.00,0.0104
1996.00,0.0103
1995.00,0.0102
1994.00,0.0102
1993.00,0.0102
1992.00,0.0102
1991.00,0.0101
1990.00,0.0099
1989.00,0.0098
1988.00,0.0100
1987.00,0.0101
1986.00,0.0102
1985.00,0.0104
1984.00,0.0106
1983.00,0.0108
1982.00,0.0109
1981.00,0.0109
1980.00,0.0106
1979.00,0.0099
1978.00,0.0090
1977.00,0.0084
1976.00,0.0083
1975.00,0.0083
1974.00,0.0083
1973.00,0.0086
1972.00,0.0090
1971.00,0.0092
1970.00,0.0092
1969.00,0.0093
1968.00,0.0094
1967.00,0.0095
1966.00,0.0095
1965.00,0.0096
1964.00,0.0097
1963.00,0.0097
1962.00,0.0095
1961.00,0.0092
1960.00,0.0090
1959.00,0.0089
1958.00,0.0088
1957.00,0.0089
1956.00,0.0090
1955.00,0.0090
1954.00,0.0088
1953.00,0.0087
1952.00,0.0087
1951.00,0.0088
1950.00,0.0088
1949.00,0.0090
1948.00,0.0092
1947.00,0.0094
1946.00,0.0093
1945.00,0.0093
1944.00,0.0092
1943.00,0.0091
1942.00,0.0090
1941.00,0.0091
1940.00,0.0092
1939.00,0.0093
1938.00,0.0093
1937.00,0.0094
1936.00,0.0096
1935.00,0.0097
1934.00,0.0097
1933.00,0.0099
1932.00,0.0101
1931.00,0.0102
1930.00,0.0102
1929.00,0.0103
1928.00,0.0103
1927.00,0.0103
1926.00,0.0102
1925.00,0.0101
1924.00,0.0101
1923.00,0.0101
1922.00,0.0101
1921.00,0.0101
1920.00,0.0102
1919.00,0.0101
1918.00,0.0100
1917.00,0.0099
1916.00,0.0098
1915.00,0.0097
1914.00,0.0096
1913.00,0.0096
1912.00,0.0097
1911.00,0.0097
1910.00,0.0096
1909.00,0.0095
1908.00,0.0094
1907.00,0.0094
1906.00,0.0093
1905.00,0.0093
1904.00,0.0093
1903.00,0.0093
1902.00,0.0092
1901.00,0.0092
1900.00,0.0092
1899.00,0.0091
1898.00,0.0091
1897.00,0.0091
1896.00,0.0091
1895.00,0.0092
1894.00,0.0091
1893.00,0.0092
1892.00,0.0093
1891.00,0.0093
1890.00,0.0093
1889.00,0.0093
1888.00,0.0093
1887.00,0.0092
1886.00,0.0091
1885.00,0.0091
1884.00,0.0090
1883.00,0.0090
1882.00,0.0089
1881.00,0.0088
1880.00,0.0088
1879.00,0.0088
1878.00,0.0087
1877.00,0.0086
1876.00,0.0086
1875.00,0.0086
1874.00,0.0086
1873.00,0.0087
1872.00,0.0089
1871.00,0.0090
1870.00,0.0090
1869.00,0.0090
1868.00,0.0090
1867.00,0.0089
1866.00,0.0088
1865.00,0.0087
1864.00,0.0087
1863.00,0.0087
1862.00,0.0087
1861.00,0.0087
1860.00,0.0088
1859.00,0.0088
1858.00,0.0088
1857.00,0.0088
1856.00,0.0090
1855.00,0.0091
1854.00,0.0093
1853.00,0.0095
1852.00,0.0097
1851.00,0.0099
1850.00,0.0100
1849.00,0.0101
1848.00,0.0101
1847.00,0.0100
1846.00,0.0098
1845.00,0.0096
1844.00,0.0094
1843.00,0.0092
1842.00,0.0089
1841.00,0.0087
1840.00,0.0087
1839.00,0.0086
1838.00,0.0086
1837.00,0.0086
1836.00,0.0086
1835.00,0.0086
1834.00,0.0086
1833.00,0.0087
1832.00,0.0088
1831.00,0.0088
1830.00,0.0087
1829.00,0.0088
1828.00,0.0088
1827.00,0.0089
1826.00,0.0088
1825.00,0.0087
1824.00,0.0087
1823.00,0.0085
1822.00,0.0084
1821.00,0.0083
1820.00,0.0083
1819.00,0.0082
1818.00,0.0080
1817.00,0.0080
1816.00,0.0080
1815.00,0.0081
1814.00,0.0082
1813.00,0.0083
1812.00,0.0084
1811.00,0.0085
1810.00,0.0085
1809.00,0.0084
1808.00,0.0085
1807.00,0.0085
1806.00,0.0086
1805.00,0.0088
1804.00,0.0090
1803.00,0.0092
1802.00,0.0092
1801.00,0.0092
1800.00,0.0091
1799.00,0.0091
1798.00,0.0091
1797.00,0.0092
1796.00,0.0094
1795.00,0.0096
1794.00,0.0096
1793.00,0.0096
1792.00,0.0095
1791.00,0.0094
1790.00,0.0092
1789.00,0.0091
1788.00,0.0091
1787.00,0.0092
1786.00,0.0092
1785.00,0.0092
1784.00,0.0092
1783.00,0.0092
1782.00,0.0092
1781.00,0.0092
1780.00,0.0092
1779.00,0.0092
1778.00,0.0092
1777.00,0.0094
1776.00,0.0096
1775.00,0.0097
1774.00,0.0096
1773.00,0.0096
1772.00,0.0098
1771.00,0.0099
1770.00,0.0099
1769.00,0.0099
1768.00,0.0098
1767.00,0.0098
1766.00,0.0097
1765.00,0.0098
1764.00,0.0100
1763.00,0.0101
1762.00,0.0101
1761.00,0.0102
1760.00,0.0103
1759.00,0.0105
1758.00,0.0105
1757.00,0.0105
1756.00,0.0105
1755.00,0.0106
1754.00,0.0106
1753.00,0.0107
1752.00,0.0108
1751.00,0.0109
1750.00,0.0107
1749.00,0.0105
1748.00,0.0104
1747.00,0.0103
1746.00,0.0102
1745.00,0.0102
1744.00,0.0102
1743.00,0.0102
1742.00,0.0100
1741.00,0.0099
1740.00,0.0099
1739.00,0.0101
1738.00,0.0102
1737.00,0.0104
1736.00,0.0107
1735.00,0.0109
1734.00,0.0110
1733.00,0.0113
1732.00,0.0116
1731.00,0.0117
1730.00,0.0118
1729.00,0.0118
1728.00,0.0120
1727.00,0.0122
1726.00,0.0124
1725.00,0.0127
1724.00,0.0132
1723.00,0.0137
1722.00,0.0143
1721.00,0.0150
1720.00,0.0159
1719.00,0.0170
1718.00,0.0181
1717.00,0.0195
1716.00,0.0213
1715.00,0.0229
1714.00,0.0245
1713.00,0.0263
1712.00,0.0283
1711.00,0.0305
1710.00,0.0326
1709.00,0.0349
1708.00,0.0374
1707.00,0.0399
1706.00,0.0425
1705.00,0.0452
1704.00,0.0478
1703.00,0.0500
1702.00,0.0522
1701.00,0.0554
1700.00,0.0600
1699.00,0.0645
1698.00,0.0689
1697.00,0.0754
1696.00,0.0863
1695.00,0.1012
1694.00,0.1178
1693.00,0.1359
1692.00,0.1563
1691.00,0.1788
1690.00,0.2006
1689.00,0.2181
1688.00,0.2289
1687.00,0.2332
1686.00,0.2335
1685.00,0.2334
1684.00,0.2369
1683.00,0.2448
1682.00,0.2554
1681.00,0.2687
1680.00,0.2839
1679.00,0.2982
1678.00,0.3077
1677.00,0.3096
1676.00,0.3025
1675.00,0.2870
1674.00,0.2667
1673.00,0.2456
1672.00,0.2246
1671.00,0.2033
1670.00,0.1824
1669.00,0.1637
1668.00,0.1486
1667.00,0.1367
1666.00,0.1273
1665.00,0.1191
1664.00,0.1117
1663.00,0.1050
1662.00,0.0995
1661.00,0.0950
1660.00,0.0912
1659.00,0.0882
1658.00,0.0861
1657.00,0.0850
1656.00,0.0846
1655.00,0.0855
1654.00,0.0900
1653.00,0.0995
1652.00,0.1103
1651.00,0.1188
1650.00,0.1253
1649.00,0.1310
1648.00,0.1357
1647.00,0.1382
1646.00,0.1371
1645.00,0.1326
1644.00,0.1258
1643.00,0.1178
1642.00,0.1094
1641.00,0.1016
1640.00,0.0947
1639.00,0.0891
1638.00,0.0847
1637.00,0.0818
1636.00,0.0807
1635.00,0.0816
1634.00,0.0839
1633.00,0.0870
1632.00,0.0908
1631.00,0.0950
1630.00,0.0995
1629.00,0.1038
1628.00,0.1072
1627.00,0.1094
1626.00,0.1104
1625.00,0.1106
1624.00,0.1106
1623.00,0.1106
1622.00,0.1106
1621.00,0.1103
1620.00,0.1095
1619.00,0.1082
1618.00,0.1062
1617.00,0.1037
1616.00,0.1006
1615.00,0.0970
1614.00,0.0930
1613.00,0.0887
1612.00,0.0844
1611.00,0.0805
1610.00,0.0775
1609.00,0.0758
1608.00,0.0757
1607.00,0.0774
1606.00,0.0804
1605.00,0.0834
1604.00,0.0849
1603.00,0.0836
1602.00,0.0794
1601.00,0.0732
1600.00,0.0664
1599.00,0.0601
1598.00,0.0550
1597.00,0.0509
1596.00,0.0476
1595.00,0.0449
1594.00,0.0426
1593.00,0.0407
1592.00,0.0388
1591.00,0.0371
1590.00,0.0355
1589.00,0.0341
1588.00,0.0328
1587.00,0.0316
1586.00,0.0306
1585.00,0.0298
1584.00,0.0292
1583.00,0.0288
1582.00,0.0287
1581.00,0.0292
1580.00,0.0300
1579.00,0.0311
1578.00,0.0328
1577.00,0.0354
1576.00,0.0383
1575.00,0.0403
1574.00,0.0406
1573.00,0.0394
1572.00,0.0373
1571.00,0.0347
1570.00,0.0322
1569.00,0.0302
1568.00,0.0287
1567.00,0.0275
1566.00,0.0266
1565.00,0.0260
1564.00,0.0255
1563.00,0.0253
1562.00,0.0254
1561.00,0.0255
1560.00,0.0254
1559.00,0.0252
1558.00,0.0252
1557.00,0.0252
1556.00,0.0250
1555.00,0.0248
1554.00,0.0249
1553.00,0.0253
1552.00,0.0256
1551.00,0.0260
1550.00,0.0266
1549.00,0.0275
1548.00,0.0284
1547.00,0.0295
1546.00,0.0309
1545.00,0.0326
1544.00,0.0343
1543.00,0.0360
1542.00,0.0381
1541.00,0.0413
1540.00,0.0464
1539.00,0.0531
1538.00,0.0607
1537.00,0.0689
1536.00,0.0788
1535.00,0.0925
1534.00,0.1122
1533.00,0.1364
1532.00,0.1614
1531.00,0.1848
1530.00,0.2069
1529.00,0.2272
1528.00,0.2436
1527.00,0.2534
1526.00,0.2555
1525.00,0.2504
1524.00,0.2402
1523.00,0.2262
1522.00,0.2089
1521.00,0.1901
1520.00,0.1733
1519.00,0.1595
1518.00,0.1474
1517.00,0.1360
1516.00,0.1259
1515.00,0.1177
1514.00,0.1108
1513.00,0.1048
1512.00,0.1000
1511.00,0.0967
1510.00,0.0949
1509.00,0.0946
1508.00,0.0966
1507.00,0.1023
1506.00,0.1113
1505.00,0.1212
1504.00,0.1311
1503.00,0.1416
1502.00,0.1533
1501.00,0.1663
1500.00,0.1800
1499.00,0.1937
1498.00,0.2065
1497.00,0.2176
1496.00,0.2260
1495.00,0.2312
1494.00,0.2333
1493.00,0.2329
1492.00,0.2304
1491.00,0.2265
1490.00,0.2213
1489.00,0.2147
1488.00,0.2071
1487.00,0.1991
1486.00,0.1909
1485.00,0.1826
1484.00,0.1743
1483.00,0.1664
1482.00,0.1589
1481.00,0.1520
1480.00,0.1460
1479.00,0.1408
1478.00,0.1361
1477.00,0.1314
1476.00,0.1267
1475.00,0.1219
1474.00,0.1172
1473.00,0.1127
1472.00,0.1086
1471.00,0.1054
1470.00,0.1031
1469.00,0.1014
1468.00,0.1002
1467.00,0.0993
1466.00,0.0985
1465.00,0.0976
1464.00,0.0964
1463.00,0.0950
1462.00,0.0934
1461.00,0.0920
1460.00,0.0907
1459.00,0.0895
1458.00,0.0884
1457.00,0.0875
1456.00,0.0866
1455.00,0.0855
1454.00,0.0845
1453.00,0.0838
1452.00,0.0837
1451.00,0.0841
1450.00,0.0854
1449.00,0.0877
1448.00,0.0912
1447.00,0.0958
1446.00,0.1012
1445.00,0.1066
1444.00,0.1112
1443.00,0.1147
1442.00,0.1174
1441.00,0.1204
1440.00,0.1246
1439.00,0.1311
1438.00,0.1415
1437.00,0.1566
1436.00,0.1746
1435.00,0.1918
1434.00,0.2067
1433.00,0.2192
1432.00,0.2272
1431.00,0.2279
1430.00,0.2202
1429.00,0.2066
1428.00,0.1903
1427.00,0.1740
1426.00,0.1590
1425.00,0.1454
1424.00,0.1333
1423.00,0.1231
1422.00,0.1147
1421.00,0.1073
1420.00,0.1003
1419.00,0.0937
1418.00,0.0877
1417.00,0.0825
1416.00,0.0778
1415.00,0.0737
1414.00,0.0700
1413.00,0.0666
1412.00,0.0636
1411.00,0.0608
1410.00,0.0583
1409.00,0.0561
1408.00,0.0540
1407.00,0.0522
1406.00,0.0506
1405.00,0.0491
1404.00,0.0477
1403.00,0.0466
1402.00,0.0458
1401.00,0.0451
1400.00,0.0445
1399.00,0.0441
1398.00,0.0439
1397.00,0.0438
1396.00,0.0439
1395.00,0.0443
1394.00,0.0451
1393.00,0.0463
1392.00,0.0479
1391.00,0.0500
1390.00,0.0526
1389.00,0.0553
1388.00,0.0580
1387.00,0.0605
1386.00,0.0625
1385.00,0.0644
1384.00,0.0666
1383.00,0.0695
1382.00,0.0730
1381.00,0.0764
1380.00,0.0788
1379.00,0.0793
1378.00,0.0775
1377.00,0.0738
1376.00,0.0689
1375.00,0.0636
1374.00,0.0586
1373.00,0.0543
1372.00,0.0511
1371.00,0.0488
1370.00,0.0472
1369.00,0.0463
1368.00,0.0459
1367.00,0.0463
1366.00,0.0474
1365.00,0.0493
1364.00,0.0519
1363.00,0.0552
1362.00,0.0591
1361.00,0.0634
1360.00,0.0682
1359.00,0.0737
1358.00,0.0800
1357.00,0.0876
1356.00,0.0971
1355.00,0.1093
1354.00,0.1249
1353.00,0.1445
1352.00,0.1674
1351.00,0.1917
1350.00,0.2138
1349.00,0.2293
1348.00,0.2355
1347.00,0.2328
1346.00,0.2243
1345.00,0.2142
1344.00,0.2058
1343.00,0.2003
1342.00,0.1971
1341.00,0.1945
1340.00,0.1907
1339.00,0.1845
1338.00,0.1758
1337.00,0.1651
1336.00,0.1533
1335.00,0.1412
1334.00,0.1296
1333.00,0.1188
1332.00,0.1095
1331.00,0.1020
1330.00,0.0964
1329.00,0.0927
1328.00,0.0908
1327.00,0.0906
1326.00,0.0924
1325.00,0.0966
1324.00,0.1035
1323.00,0.1129
1322.00,0.1237
1321.00,0.1346
1320.00,0.1443
1319.00,0.1524
1318.00,0.1590
1317.00,0.1651
1316.00,0.1719
1315.00,0.1798
1314.00,0.1882
1313.00,0.1965
1312.00,0.2039
1311.00,0.2099
1310.00,0.2140
1309.00,0.2153
1308.00,0.2134
1307.00,0.2082
1306.00,0.2003
1305.00,0.1909
1304.00,0.1809
1303.00,0.1710
1302.00,0.1617
1301.00,0.1531
1300.00,0.1453
1299.00,0.1385
1298.00,0.1326
1297.00,0.1278
1296.00,0.1242
1295.00,0.1221
1294.00,0.1213
1293.00,0.1218
1292.00,0.1227
1291.00,0.1233
1290.00,0.1228
1289.00,0.1208
1288.00,0.1176
1287.00,0.1137
1286.00,0.1099
1285.00,0.1065
1284.00,0.1035
1283.00,0.1010
1282.00,0.0990
1281.00,0.0975
1280.00,0.0963
1279.00,0.0957
1278.00,0.0954
1277.00,0.0955
1276.00,0.0960
1275.00,0.0968
1274.00,0.0980
1273.00,0.0996
1272.00,0.1012
1271.00,0.1026
1270.00,0.1031
1269.00,0.1021
1268.00,0.0993
1267.00,0.0951
1266.00,0.0899
1265.00,0.0843
1264.00,0.0790
1263.00,0.0742
1262.00,0.0701
1261.00,0.0666
1260.00,0.0638
1259.00,0.0617
1258.00,0.0601
1257.00,0.0589
1256.00,0.0583
1255.00,0.0580
1254.00,0.0581
1253.00,0.0585
1252.00,0.0591
1251.00,0.0598
1250.00,0.0607
1249.00,0.0618
1248.00,0.0630
1247.00,0.0646
1246.00,0.0667
1245.00,0.0694
1244.00,0.0730
1243.00,0.0778
1242.00,0.0843
1241.00,0.0927
1240.00,0.1026
1239.00,0.1135
1238.00,0.1243
1237.00,0.1351
1236.00,0.1468
1235.00,0.1612
1234.00,0.1794
1233.00,0.2019
1232.00,0.2285
1231.00,0.2586
1230.00,0.2913
1229.00,0.3259
1228.00,0.3608
1227.00,0.3936
1226.00,0.4217
1225.00,0.4421
1224.00,0.4531
1223.00,0.4544
1222.00,0.4474
1221.00,0.4346
1220.00,0.4183
1219.00,0.4002
1218.00,0.3816
1217.00,0.3631
1216.00,0.3451
1215.00,0.3274
1214.00,0.3100
1213.00,0.2930
1212.00,0.2763
1211.00,0.2600
1210.00,0.2443
1209.00,0.2295
1208.00,0.2156
1207.00,0.2027
1206.00,0.1907
1205.00,0.1798
1204.00,0.1698
1203.00,0.1610
1202.00,0.1534
1201.00,0.1474
1200.00,0.1432
1199.00,0.1414
1198.00,0.1426
1197.00,0.1478
1196.00,0.1576
1195.00,0.1723
1194.00,0.1915
1193.00,0.2139
1192.00,0.2368
1191.00,0.2566
1190.00,0.2696
1189.00,0.2736
1188.00,0.2683
1187.00,0.2558
1186.00,0.2392
1185.00,0.2217
1184.00,0.2051
1183.00,0.1901
1182.00,0.1764
1181.00,0.1638
1180.00,0.1521
1179.00,0.1414
1178.00,0.1320
1177.00,0.1240
1176.00,0.1174
1175.00,0.1122
1174.00,0.1082
1173.00,0.1055
1172.00,0.1040
1171.00,0.1042
1170.00,0.1064
1169.00,0.1111
1168.00,0.1186
1167.00,0.1283
1166.00,0.1387
1165.00,0.1473
1164.00,0.1511
1163.00,0.1487
1162.00,0.1408
1161.00,0.1297
1160.00,0.1183
1159.00,0.1093
1158.00,0.1042
1157.00,0.1043
1156.00,0.1103
1155.00,0.1220
1154.00,0.1375
1153.00,0.1524
1152.00,0.1617
1151.00,0.1620
1150.00,0.1540
1149.00,0.1413
1148.00,0.1278
1147.00,0.1157
1146.00,0.1055
1145.00,0.0971
1144.00,0.0903
1143.00,0.0850
1142.00,0.0812
1141.00,0.0791
1140.00,0.0785
1139.00,0.0791
1138.00,0.0806
1137.00,0.0823
1136.00,0.0839
1135.00,0.0853
1134.00,0.0867
1133.00,0.0886
1132.00,0.0916
1131.00,0.0965
1130.00,0.1042
1129.00,0.1155
1128.00,0.1314
1127.00,0.1526
1126.00,0.1796
1125.00,0.2120
1124.00,0.2482
1123.00,0.2851
1122.00,0.3188
1121.00,0.3453
1120.00,0.3613
1119.00,0.3658
1118.00,0.3598
1117.00,0.3460
1116.00,0.3273
1115.00,0.3061
1114.00,0.2847
1113.00,0.2646
1112.00,0.2470
1111.00,0.2329
1110.00,0.2228
1109.00,0.2173
1108.00,0.2170
1107.00,0.2221
1106.00,0.2324
1105.00,0.2472
1104.00,0.2645
1103.00,0.2816
1102.00,0.2951
1101.00,0.3021
1100.00,0.3016
1099.00,0.2939
1098.00,0.2809
1097.00,0.2651
1096.00,0.2483
1095.00,0.2316
1094.00,0.2157
1093.00,0.2009
1092.00,0.1872
1091.00,0.1745
1090.00,0.1630
1089.00,0.1525
1088.00,0.1432
1087.00,0.1350
1086.00,0.1278
1085.00,0.1215
1084.00,0.1161
1083.00,0.1113
1082.00,0.1071
1081.00,0.1035
1080.00,0.1004
1079.00,0.0977
1078.00,0.0954
1077.00,0.0935
1076.00,0.0922
1075.00,0.0916
1074.00,0.0917
1073.00,0.0924
1072.00,0.0932
1071.00,0.0935
1070.00,0.0926
1069.00,0.0906
1068.00,0.0878
1067.00,0.0850
1066.00,0.0828
1065.00,0.0816
1064.00,0.0819
1063.00,0.0839
1062.00,0.0879
1061.00,0.0943
1060.00,0.1032
1059.00,0.1145
1058.00,0.1272
1057.00,0.1399
1056.00,0.1502
1055.00,0.1566
1054.00,0.1583
1053.00,0.1559
1052.00,0.1512
1051.00,0.1458
1050.00,0.1404
1049.00,0.1350
1048.00,0.1291
1047.00,0.1227
1046.00,0.1165
1045.00,0.1112
1044.00,0.1071
1043.00,0.1044
1042.00,0.1028
1041.00,0.1022
1040.00,0.1023
1039.00,0.1031
1038.00,0.1042
1037.00,0.1056
1036.00,0.1071
1035.00,0.1088
1034.00,0.1108
1033.00,0.1134
1032.00,0.1169
1031.00,0.1219
1030.00,0.1286
1029.00,0.1376
1028.00,0.1490
1027.00,0.1629
1026.00,0.1789
1025.00,0.1959
1024.00,0.2124
1023.00,0.2265
1022.00,0.2361
1021.00,0.2402
1020.00,0.2385
1019.00,0.2318
1018.00,0.2213
1017.00,0.2087
1016.00,0.1951
1015.00,0.1817
1014.00,0.1688
1013.00,0.1571
1012.00,0.1465
1011.00,0.1370
1010.00,0.1287
1009.00,0.1213
1008.00,0.1149
1007.00,0.1093
1006.00,0.1047
1005.00,0.1011
1004.00,0.0985
1003.00,0.0965
1002.00,0.0945
1001.00,0.0921
1000.00,0.0890
999.00,0.0857
998.00,0.0825
997.00,0.0797
996.00,0.0773
995.00,0.0751
994.00,0.0731
993.00,0.0714
992.00,0.0698
991.00,0.0683
990.00,0.0670
989.00,0.0657
988.00,0.0646
987.00,0.0635
986.00,0.0625
985.00,0.0616
984.00,0.0608
983.00,0.0600
982.00,0.0593
981.00,0.0586
980.00,0.0580
979.00,0.0574
978.00,0.0569
977.00,0.0563
976.00,0.0558
975.00,0.0555
974.00,0.0554
973.00,0.0558
972.00,0.0568
971.00,0.0581
970.00,0.0593
969.00,0.0599
968.00,0.0596
967.00,0.0590
966.00,0.0589
965.00,0.0601
964.00,0.0623
963.00,0.0647
962.00,0.0657
961.00,0.0651
960.00,0.0635
959.00,0.0627
958.00,0.0635
957.00,0.0661
956.00,0.0693
955.00,0.0719
954.00,0.0727
953.00,0.0715
952.00,0.0687
951.00,0.0653
950.00,0.0620
949.00,0.0590
948.00,0.0565
947.00,0.0544
946.00,0.0527
945.00,0.0513
944.00,0.0500
943.00,0.0490
942.00,0.0480
941.00,0.0472
940.00,0.0465
939.00,0.0458
938.00,0.0452
937.00,0.0446
936.00,0.0440
935.00,0.0435
934.00,0.0430
933.00,0.0425
932.00,0.0420
931.00,0.0416
930.00,0.0412
929.00,0.0408
928.00,0.0404
927.00,0.0400
926.00,0.0397
925.00,0.0395
924.00,0.0392
923.00,0.0389
922.00,0.0387
921.00,0.0384
920.00,0.0382
919.00,0.0379
918.00,0.0377
917.00,0.0374
916.00,0.0372
915.00,0.0368
914.00,0.0365
913.00,0.0362
912.00,0.0359
911.00,0.0356
910.00,0.0354
909.00,0.0351
908.00,0.0349
907.00,0.0346
906.00,0.0344
905.00,0.0342
904.00,0.0340
903.00,0.0338
902.00,0.0336
901.00,0.0334
900.00,0.0331
899.00,0.0329
898.00,0.0327
897.00,0.0325
896.00,0.0323
895.00,0.0321
894.00,0.0319
893.00,0.0318
892.00,0.0316
891.00,0.0315
890.00,0.0314
889.00,0.0314
888.00,0.0315
887.00,0.0320
886.00,0.0328
885.00,0.0339
884.00,0.0348
883.00,0.0348
882.00,0.0340
881.00,0.0327
880.00,0.0314
879.00,0.0304
878.00,0.0297
877.00,0.0293
876.00,0.0291
875.00,0.0288
874.00,0.0285
873.00,0.0283
872.00,0.0282
871.00,0.0281
870.00,0.0280
869.00,0.0281
868.00,0.0283
867.00,0.0286
866.00,0.0292
865.00,0.0305
864.00,0.0332
863.00,0.0391
862.00,0.0509
861.00,0.0701
860.00,0.0935
859.00,0.1116
858.00,0.1148
857.00,0.1025
856.00,0.0829
855.00,0.0650
854.00,0.0526
853.00,0.0449
852.00,0.0401
851.00,0.0371
850.00,0.0352
849.00,0.0339
848.00,0.0329
847.00,0.0323
846.00,0.0320
845.00,0.0318
844.00,0.0319
843.00,0.0325
842.00,0.0337
841.00,0.0359
840.00,0.0400
839.00,0.0472
838.00,0.0583
837.00,0.0731
836.00,0.0900
835.00,0.1067
834.00,0.1218
833.00,0.1361
832.00,0.1512
831.00,0.1666
830.00,0.1791
829.00,0.1843
828.00,0.1801
827.00,0.1680
826.00,0.1515
825.00,0.1340
824.00,0.1180
823.00,0.1043
822.00,0.0929
821.00,0.0830
820.00,0.0745
819.00,0.0671
818.00,0.0608
817.00,0.0553
816.00,0.0508
815.00,0.0472
814.00,0.0446
813.00,0.0429
812.00,0.0423
811.00,0.0430
810.00,0.0447
809.00,0.0472
808.00,0.0497
807.00,0.0515
806.00,0.0514
805.00,0.0493
804.00,0.0461
803.00,0.0433
802.00,0.0419
801.00,0.0427
800.00,0.0467
799.00,0.0561
798.00,0.0738
797.00,0.1025
796.00,0.1411
795.00,0.1820
794.00,0.2116
793.00,0.2187
792.00,0.2045
791.00,0.1801
790.00,0.1555
789.00,0.1344
788.00,0.1165
787.00,0.1010
786.00,0.0882
785.00,0.0780
784.00,0.0704
783.00,0.0647
782.00,0.0606
781.00,0.0574
780.00,0.0549
779.00,0.0530
778.00,0.0519
777.00,0.0518
776.00,0.0534
775.00,0.0568
774.00,0.0615
773.00,0.0653
772.00,0.0664
771.00,0.0645
770.00,0.0616
769.00,0.0607
768.00,0.0648
767.00,0.0760
766.00,0.0951
765.00,0.1202
764.00,0.1455
763.00,0.1626
762.00,0.1656
761.00,0.1554
760.00,0.1381
759.00,0.1202
758.00,0.1052
757.00,0.0937
756.00,0.0854
755.00,0.0797
754.00,0.0760
753.00,0.0745
752.00,0.0756
751.00,0.0805
750.00,0.0905
749.00,0.1068
748.00,0.1299
747.00,0.1575
746.00,0.1837
745.00,0.2005
744.00,0.2025
743.00,0.1907
742.00,0.1708
741.00,0.1490
740.00,0.1288
739.00,0.1115
738.00,0.0971
737.00,0.0854
736.00,0.0760
735.00,0.0686
734.00,0.0629
733.00,0.0584
732.00,0.0548
731.00,0.0520
730.00,0.0498
729.00,0.0480
728.00,0.0466
727.00,0.0456
726.00,0.0449
725.00,0.0445
724.00,0.0445
723.00,0.0450
722.00,0.0462
721.00,0.0483
720.00,0.0520
719.00,0.0583
718.00,0.0688
717.00,0.0857
716.00,0.1114
715.00,0.1457
714.00,0.1834
713.00,0.2143
712.00,0.2273
711.00,0.2192
710.00,0.1963
709.00,0.1683
708.00,0.1422
707.00,0.1212
706.00,0.1055
705.00,0.0943
704.00,0.0862
703.00,0.0804
702.00,0.0762
701.00,0.0734
700.00,0.0718
699.00,0.0713
698.00,0.0718
697.00,0.0734
696.00,0.0763
695.00,0.0807
694.00,0.0869
693.00,0.0951
692.00,0.1054
691.00,0.1175
690.00,0.1308
689.00,0.1441
688.00,0.1552
687.00,0.1616
686.00,0.1614
685.00,0.1545
684.00,0.1429
683.00,0.1299
682.00,0.1181
681.00,0.1091
680.00,0.1036
679.00,0.1018
678.00,0.1036
677.00,0.1086
676.00,0.1155
675.00,0.1221
674.00,0.1261
673.00,0.1256
672.00,0.1210
671.00,0.1143
670.00,0.1075
669.00,0.1021
668.00,0.0992
667.00,0.0986
666.00,0.0992
665.00,0.1001
664.00,0.1008
663.00,0.1011
662.00,0.1005
661.00,0.0988
660.00,0.0961
659.00,0.0926
658.00,0.0887
657.00,0.0847
656.00,0.0807
655.00,0.0768
654.00,0.0732
653.00,0.0698
652.00,0.0666
651.00,0.0637
650.00,0.0610
649.00,0.0586
648.00,0.0563
647.00,0.0542
646.00,0.0523
645.00,0.0506
644.00,0.0488
643.00,0.0473
642.00,0.0459
641.00,0.0446
640.00,0.0434
639.00,0.0424
638.00,0.0416
637.00,0.0410
636.00,0.0406
635.00,0.0405
634.00,0.0410
633.00,0.0420
632.00,0.0439
631.00,0.0472
630.00,0.0525
629.00,0.0604
628.00,0.0713
627.00,0.0853
626.00,0.1009
625.00,0.1154
624.00,0.1258
623.00,0.1303
622.00,0.1285
621.00,0.1220
620.00,0.1131
619.00,0.1036
618.00,0.0947
617.00,0.0871
616.00,0.0811
615.00,0.0767
614.00,0.0740
613.00,0.0729
612.00,0.0735
611.00,0.0756
610.00,0.0787
609.00,0.0814
608.00,0.0824
607.00,0.0809
606.00,0.0772
605.00,0.0722
604.00,0.0670
603.00,0.0623
602.00,0.0586
601.00,0.0556
600.00,0.0533
599.00,0.0517
598.00,0.0507
597.00,0.0504
596.00,0.0510
595.00,0.0530
594.00,0.0569
593.00,0.0625
592.00,0.0686
591.00,0.0733
590.00,0.0751
589.00,0.0744
588.00,0.0731
587.00,0.0737
586.00,0.0766
585.00,0.0801
584.00,0.0814
583.00,0.0790
582.00,0.0737
581.00,0.0672
580.00,0.0612
579.00,0.0566
578.00,0.0535
577.00,0.0513
576.00,0.0497
575.00,0.0487
574.00,0.0483
573.00,0.0484
572.00,0.0491
571.00,0.0504
570.00,0.0522
569.00,0.0543
568.00,0.0566
567.00,0.0591
566.00,0.0616
565.00,0.0636
564.00,0.0646
563.00,0.0641
562.00,0.0619
561.00,0.0585
560.00,0.0546
559.00,0.0511
558.00,0.0483
557.00,0.0462
556.00,0.0445
555.00,0.0431
554.00,0.0420
553.00,0.0410
552.00,0.0401
551.00,0.0394
550.00,0.0388
549.00,0.0383
548.00,0.0377
547.00,0.0371
546.00,0.0365
545.00,0.0359
544.00,0.0354
543.00,0.0350
542.00,0.0348
541.00,0.0346
540.00,0.0344
539.00,0.0342
538.00,0.0341
537.00,0.0340
536.00,0.0338
535.00,0.0336
534.00,0.0333
533.00,0.0330
532.00,0.0325
531.00,0.0321
530.00,0.0319
529.00,0.0317
528.00,0.0315
527.00,0.0313
526.00,0.0312
525.00,0.0310
524.00,0.0308
523.00,0.0307
522.00,0.0306
521.00,0.0307
520.00,0.0307
519.00,0.0309
518.00,0.0313
517.00,0.0319
516.00,0.0328
515.00,0.0343
514.00,0.0364
513.00,0.0382
512.00,0.0389
511.00,0.0383
510.00,0.0367
509.00,0.0348
508.00,0.0331
507.00,0.0319
506.00,0.0311
505.00,0.0305
504.00,0.0301
503.00,0.0297
502.00,0.0294
501.00,0.0289
500.00,0.0285
499.00,0.0282
498.00,0.0281
497.00,0.0280
496.00,0.0279
495.00,0.0279
494.00,0.0281
493.00,0.0283
492.00,0.0282
491.00,0.0281
490.00,0.0282
489.00,0.0283
488.00,0.0285
487.00,0.0288
486.00,0.0294
485.00,0.0300
484.00,0.0303
483.00,0.0305
482.00,0.0310
481.00,0.0317
480.00,0.0327
479.00,0.0342
478.00,0.0363
477.00,0.0387
476.00,0.0417
475.00,0.0454
474.00,0.0503
473.00,0.0560
472.00,0.0622
471.00,0.0684
470.00,0.0741
469.00,0.0788
468.00,0.0819
467.00,0.0828
466.00,0.0814
465.00,0.0781
464.00,0.0736
463.00,0.0688
462.00,0.0641
461.00,0.0598
460.00,0.0559
459.00,0.0526
458.00,0.0499
457.00,0.0474
456.00,0.0451
455.00,0.0433
454.00,0.0417
453.00,0.0402
452.00,0.0389
451.00,0.0380
450.00,0.0376
449.00,0.0373
448.00,0.0369
447.00,0.0364
446.00,0.0359
445.00,0.0351
444.00,0.0341
443.00,0.0332
442.00,0.0328
441.00,0.0324
440.00,0.0321
439.00,0.0321
438.00,0.0323
437.00,0.0324
436.00,0.0321
435.00,0.0318
434.00,0.0317
433.00,0.0316
432.00,0.0313
431.00,0.0309
430.00,0.0307
429.00,0.0307
428.00,0.0308
427.00,0.0316
426.00,0.0332
425.00,0.0348
424.00,0.0358
423.00,0.0366
422.00,0.0377
421.00,0.0393
420.00,0.0417
419.00,0.0454
418.00,0.0501
417.00,0.0550
416.00,0.0596
415.00,0.0642
414.00,0.0683
413.00,0.0712
412.00,0.0725
411.00,0.0733
410.00,0.0741
409.00,0.0745
408.00,0.0735
407.00,0.0706
406.00,0.0662
405.00,0.0609
404.00,0.0558
403.00,0.0519
402.00,0.0495
401.00,0.0478
400.00,0.0465
