Created as New Dataset,Sample 199 By YargerLab Date Saturday, October 04 2025
cm-1,A
4000.00,0.0066
3999.00,0.0066
3998.00,0.0066
3997.00,0.0066
3996.00,0.0066
3995.00,0.0066
3994.00,0.0066
3993.00,0.0066
3992.00,0.0066
3991.00,0.0066
3990.00,0.0066
3989.00,0.0066
3988.00,0.0066
3987.00,0.0066
3986.00,0.0066
3985.00,0.0066
3984.00,0.0066
3983.00,0.0066
3982.00,0.0066
3981.00,0.0066
3980.00,0.0066
3979.00,0.0066
3978.00,0.0066
3977.00,0.0066
3976.00,0.0066
3975.00,0.0066
3974.00,0.0066
3973.00,0.0066
3972.00,0.0066
3971.00,0.0066
3970.00,0.0066
3969.00,0.0066
3968.00,0.0066
3967.00,0.0066
3966.00,0.0066
3965.00,0.0066
3964.00,0.0066
3963.00,0.0066
3962.00,0.0066
3961.00,0.0066
3960.00,0.0066
3959.00,0.0066
3958.00,0.0066
3957.00,0.0066
3956.00,0.0066
3955.00,0.0066
3954.00,0.0066
3953.00,0.0066
3952.00,0.0066
3951.00,0.0066
3950.00,0.0066
3949.00,0.0066
3948.00,0.0066
3947.00,0.0066
3946.00,0.0066
3945.00,0.0066
3944.00,0.0066
3943.00,0.0066
3942.00,0.0066
3941.00,0.0066
3940.00,0.0066
3939.00,0.0066
3938.00,0.0066
3937.00,0.0066
3936.00,0.0066
3935.00,0.0066
3934.00,0.0066
3933.00,0.0066
3932.00,0.0066
3931.00,0.0066
3930.00,0.0066
3929.00,0.0066
3928.00,0.0065
3927.00,0.0065
3926.00,0.0065
3925.00,0.0065
3924.00,0.0065
3923.00,0.0066
3922.00,0.0066
3921.00,0.0066
3920.00,0.0066
3919.00,0.0066
3918.00,0.0066
3917.00,0.0066
3916.00,0.0066
3915.00,0.0066
3914.00,0.0066
3913.00,0.0067
3912.00,0.0067
3911.00,0.0067
3910.00,0.0067
3909.00,0.0067
3908.00,0.0067
3907.00,0.0067
3906.00,0.0067
3905.00,0.0067
3904.00,0.0067
3903.00,0.0067
3902.00,0.0067
3901.00,0.0067
3900.00,0.0067
3899.00,0.0067
3898.00,0.0067
3897.00,0.0067
3896.00,0.0067
3895.00,0.0067
3894.00,0.0067
3893.00,0.0067
3892.00,0.0067
3891.00,0.0067
3890.00,0.0067
3889.00,0.0068
3888.00,0.0068
3887.00,0.0068
3886.00,0.0067
3885.00,0.0067
3884.00,0.0067
3883.00,0.0067
3882.00,0.0067
3881.00,0.0067
3880.00,0.0067
3879.00,0.0067
3878.00,0.0067
3877.00,0.0067
3876.00,0.0067
3875.00,0.0067
3874.00,0.0067
3873.00,0.0067
3872.00,0.0067
3871.00,0.0067
3870.00,0.0067
3869.00,0.0067
3868.00,0.0067
3867.00,0.0068
3866.00,0.0068
3865.00,0.0067
3864.00,0.0067
3863.00,0.0067
3862.00,0.0067
3861.00,0.0067
3860.00,0.0067
3859.00,0.0067
3858.00,0.0067
3857.00,0.0068
3856.00,0.0069
3855.00,0.0069
3854.00,0.0069
3853.00,0.0069
3852.00,0.0069
3851.00,0.0069
3850.00,0.0068
3849.00,0.0067
3848.00,0.0067
3847.00,0.0067
3846.00,0.0067
3845.00,0.0067
3844.00,0.0067
3843.00,0.0067
3842.00,0.0067
3841.00,0.0068
3840.00,0.0068
3839.00,0.0068
3838.00,0.0068
3837.00,0.0068
3836.00,0.0068
3835.00,0.0068
3834.00,0.0068
3833.00,0.0068
3832.00,0.0067
3831.00,0.0067
3830.00,0.0067
3829.00,0.0067
3828.00,0.0067
3827.00,0.0067
3826.00,0.0067
3825.00,0.0067
3824.00,0.0067
3823.00,0.0067
3822.00,0.0067
3821.00,0.0067
3820.00,0.0068
3819.00,0.0068
3818.00,0.0068
3817.00,0.0068
3816.00,0.0067
3815.00,0.0067
3814.00,0.0067
3813.00,0.0067
3812.00,0.0067
3811.00,0.0067
3810.00,0.0067
3809.00,0.0067
3808.00,0.0067
3807.00,0.0067
3806.00,0.0068
3805.00,0.0068
3804.00,0.0068
3803.00,0.0068
3802.00,0.0067
3801.00,0.0067
3800.00,0.0067
3799.00,0.0067
3798.00,0.0067
3797.00,0.0067
3796.00,0.0067
3795.00,0.0067
3794.00,0.0067
3793.00,0.0067
3792.00,0.0067
3791.00,0.0067
3790.00,0.0067
3789.00,0.0067
3788.00,0.0067
3787.00,0.0067
3786.00,0.0066
3785.00,0.0066
3784.00,0.0066
3783.00,0.0067
3782.00,0.0067
3781.00,0.0067
3780.00,0.0067
3779.00,0.0067
3778.00,0.0067
3777.00,0.0067
3776.00,0.0067
3775.00,0.0067
3774.00,0.0067
3773.00,0.0067
3772.00,0.0067
3771.00,0.0067
3770.00,0.0067
3769.00,0.0067
3768.00,0.0067
3767.00,0.0067
3766.00,0.0067
3765.00,0.0067
3764.00,0.0067
3763.00,0.0067
3762.00,0.0067
3761.00,0.0067
3760.00,0.0067
3759.00,0.0066
3758.00,0.0066
3757.00,0.0067
3756.00,0.0067
3755.00,0.0067
3754.00,0.0068
3753.00,0.0068
3752.00,0.0068
3751.00,0.0068
3750.00,0.0069
3749.00,0.0069
3748.00,0.0069
3747.00,0.0069
3746.00,0.0069
3745.00,0.0069
3744.00,0.0068
3743.00,0.0068
3742.00,0.0068
3741.00,0.0067
3740.00,0.0067
3739.00,0.0066
3738.00,0.0066
3737.00,0.0066
3736.00,0.0066
3735.00,0.0066
3734.00,0.0066
3733.00,0.0066
3732.00,0.0066
3731.00,0.0066
3730.00,0.0066
3729.00,0.0066
3728.00,0.0065
3727.00,0.0065
3726.00,0.0065
3725.00,0.0064
3724.00,0.0064
3723.00,0.0063
3722.00,0.0063
3721.00,0.0063
3720.00,0.0062
3719.00,0.0062
3718.00,0.0062
3717.00,0.0062
3716.00,0.0063
3715.00,0.0063
3714.00,0.0064
3713.00,0.0064
3712.00,0.0064
3711.00,0.0063
3710.00,0.0063
3709.00,0.0062
3708.00,0.0062
3707.00,0.0062
3706.00,0.0062
3705.00,0.0062
3704.00,0.0062
3703.00,0.0062
3702.00,0.0062
3701.00,0.0062
3700.00,0.0062
3699.00,0.0062
3698.00,0.0062
3697.00,0.0062
3696.00,0.0062
3695.00,0.0062
3694.00,0.0062
3693.00,0.0063
3692.00,0.0064
3691.00,0.0064
3690.00,0.0065
3689.00,0.0065
3688.00,0.0065
3687.00,0.0065
3686.00,0.0064
3685.00,0.0064
3684.00,0.0064
3683.00,0.0064
3682.00,0.0063
3681.00,0.0064
3680.00,0.0064
3679.00,0.0065
3678.00,0.0066
3677.00,0.0066
3676.00,0.0066
3675.00,0.0067
3674.00,0.0067
3673.00,0.0068
3672.00,0.0068
3671.00,0.0067
3670.00,0.0067
3669.00,0.0067
3668.00,0.0067
3667.00,0.0067
3666.00,0.0067
3665.00,0.0067
3664.00,0.0066
3663.00,0.0066
3662.00,0.0066
3661.00,0.0067
3660.00,0.0067
3659.00,0.0068
3658.00,0.0068
3657.00,0.0069
3656.00,0.0069
3655.00,0.0070
3654.00,0.0071
3653.00,0.0071
3652.00,0.0071
3651.00,0.0072
3650.00,0.0072
3649.00,0.0072
3648.00,0.0072
3647.00,0.0073
3646.00,0.0073
3645.00,0.0073
3644.00,0.0073
3643.00,0.0074
3642.00,0.0074
3641.00,0.0075
3640.00,0.0075
3639.00,0.0076
3638.00,0.0076
3637.00,0.0077
3636.00,0.0077
3635.00,0.0077
3634.00,0.0078
3633.00,0.0079
3632.00,0.0080
3631.00,0.0080
3630.00,0.0081
3629.00,0.0081
3628.00,0.0082
3627.00,0.0083
3626.00,0.0083
3625.00,0.0084
3624.00,0.0084
3623.00,0.0084
3622.00,0.0085
3621.00,0.0086
3620.00,0.0086
3619.00,0.0087
3618.00,0.0088
3617.00,0.0089
3616.00,0.0089
3615.00,0.0090
3614.00,0.0091
3613.00,0.0091
3612.00,0.0092
3611.00,0.0093
3610.00,0.0094
3609.00,0.0095
3608.00,0.0095
3607.00,0.0096
3606.00,0.0097
3605.00,0.0098
3604.00,0.0098
3603.00,0.0099
3602.00,0.0099
3601.00,0.0100
3600.00,0.0101
3599.00,0.0101
3598.00,0.0102
3597.00,0.0103
3596.00,0.0104
3595.00,0.0104
3594.00,0.0105
3593.00,0.0106
3592.00,0.0108
3591.00,0.0109
3590.00,0.0110
3589.00,0.0111
3588.00,0.0112
3587.00,0.0113
3586.00,0.0115
3585.00,0.0116
3584.00,0.0117
3583.00,0.0118
3582.00,0.0119
3581.00,0.0120
3580.00,0.0121
3579.00,0.0122
3578.00,0.0123
3577.00,0.0124
3576.00,0.0125
3575.00,0.0126
3574.00,0.0127
3573.00,0.0128
3572.00,0.0129
3571.00,0.0131
3570.00,0.0132
3569.00,0.0133
3568.00,0.0134
3567.00,0.0135
3566.00,0.0136
3565.00,0.0137
3564.00,0.0138
3563.00,0.0139
3562.00,0.0140
3561.00,0.0141
3560.00,0.0142
3559.00,0.0143
3558.00,0.0144
3557.00,0.0145
3556.00,0.0146
3555.00,0.0147
3554.00,0.0148
3553.00,0.0149
3552.00,0.0150
3551.00,0.0151
3550.00,0.0152
3549.00,0.0153
3548.00,0.0154
3547.00,0.0155
3546.00,0.0156
3545.00,0.0157
3544.00,0.0158
3543.00,0.0158
3542.00,0.0159
3541.00,0.0160
3540.00,0.0161
3539.00,0.0162
3538.00,0.0162
3537.00,0.0163
3536.00,0.0164
3535.00,0.0164
3534.00,0.0165
3533.00,0.0165
3532.00,0.0166
3531.00,0.0167
3530.00,0.0168
3529.00,0.0168
3528.00,0.0168
3527.00,0.0169
3526.00,0.0169
3525.00,0.0169
3524.00,0.0170
3523.00,0.0170
3522.00,0.0170
3521.00,0.0171
3520.00,0.0171
3519.00,0.0172
3518.00,0.0172
3517.00,0.0173
3516.00,0.0173
3515.00,0.0173
3514.00,0.0173
3513.00,0.0173
3512.00,0.0174
3511.00,0.0174
3510.00,0.0174
3509.00,0.0175
3508.00,0.0175
3507.00,0.0176
3506.00,0.0176
3505.00,0.0177
3504.00,0.0177
3503.00,0.0178
3502.00,0.0178
3501.00,0.0178
3500.00,0.0178
3499.00,0.0178
3498.00,0.0179
3497.00,0.0179
3496.00,0.0179
3495.00,0.0179
3494.00,0.0179
3493.00,0.0179
3492.00,0.0180
3491.00,0.0180
3490.00,0.0180
3489.00,0.0180
3488.00,0.0180
3487.00,0.0181
3486.00,0.0181
3485.00,0.0181
3484.00,0.0182
3483.00,0.0182
3482.00,0.0182
3481.00,0.0182
3480.00,0.0182
3479.00,0.0183
3478.00,0.0183
3477.00,0.0183
3476.00,0.0183
3475.00,0.0184
3474.00,0.0184
3473.00,0.0184
3472.00,0.0184
3471.00,0.0184
3470.00,0.0185
3469.00,0.0185
3468.00,0.0185
3467.00,0.0185
3466.00,0.0185
3465.00,0.0185
3464.00,0.0185
3463.00,0.0185
3462.00,0.0185
3461.00,0.0185
3460.00,0.0186
3459.00,0.0186
3458.00,0.0186
3457.00,0.0186
3456.00,0.0186
3455.00,0.0186
3454.00,0.0186
3453.00,0.0186
3452.00,0.0187
3451.00,0.0187
3450.00,0.0187
3449.00,0.0187
3448.00,0.0187
3447.00,0.0187
3446.00,0.0187
3445.00,0.0187
3444.00,0.0187
3443.00,0.0186
3442.00,0.0186
3441.00,0.0186
3440.00,0.0186
3439.00,0.0186
3438.00,0.0186
3437.00,0.0186
3436.00,0.0186
3435.00,0.0186
3434.00,0.0186
3433.00,0.0185
3432.00,0.0185
3431.00,0.0184
3430.00,0.0184
3429.00,0.0184
3428.00,0.0184
3427.00,0.0183
3426.00,0.0183
3425.00,0.0183
3424.00,0.0183
3423.00,0.0182
3422.00,0.0182
3421.00,0.0182
3420.00,0.0182
3419.00,0.0182
3418.00,0.0182
3417.00,0.0181
3416.00,0.0181
3415.00,0.0181
3414.00,0.0180
3413.00,0.0180
3412.00,0.0180
3411.00,0.0179
3410.00,0.0179
3409.00,0.0179
3408.00,0.0179
3407.00,0.0178
3406.00,0.0178
3405.00,0.0177
3404.00,0.0177
3403.00,0.0176
3402.00,0.0176
3401.00,0.0175
3400.00,0.0175
3399.00,0.0174
3398.00,0.0174
3397.00,0.0173
3396.00,0.0173
3395.00,0.0173
3394.00,0.0172
3393.00,0.0172
3392.00,0.0171
3391.00,0.0171
3390.00,0.0171
3389.00,0.0171
3388.00,0.0170
3387.00,0.0170
3386.00,0.0170
3385.00,0.0169
3384.00,0.0168
3383.00,0.0168
3382.00,0.0168
3381.00,0.0167
3380.00,0.0167
3379.00,0.0167
3378.00,0.0167
3377.00,0.0166
3376.00,0.0166
3375.00,0.0165
3374.00,0.0164
3373.00,0.0164
3372.00,0.0163
3371.00,0.0162
3370.00,0.0162
3369.00,0.0161
3368.00,0.0161
3367.00,0.0161
3366.00,0.0161
3365.00,0.0161
3364.00,0.0161
3363.00,0.0161
3362.00,0.0161
3361.00,0.0160
3360.00,0.0160
3359.00,0.0160
3358.00,0.0160
3357.00,0.0160
3356.00,0.0160
3355.00,0.0159
3354.00,0.0159
3353.00,0.0158
3352.00,0.0157
3351.00,0.0157
3350.00,0.0157
3349.00,0.0157
3348.00,0.0157
3347.00,0.0157
3346.00,0.0157
3345.00,0.0157
3344.00,0.0156
3343.00,0.0156
3342.00,0.0156
3341.00,0.0155
3340.00,0.0155
3339.00,0.0154
3338.00,0.0154
3337.00,0.0154
3336.00,0.0155
3335.00,0.0155
3334.00,0.0155
3333.00,0.0155
3332.00,0.0155
3331.00,0.0154
3330.00,0.0154
3329.00,0.0153
3328.00,0.0152
3327.00,0.0152
3326.00,0.0151
3325.00,0.0151
3324.00,0.0152
3323.00,0.0152
3322.00,0.0152
3321.00,0.0152
3320.00,0.0152
3319.00,0.0152
3318.00,0.0152
3317.00,0.0151
3316.00,0.0151
3315.00,0.0151
3314.00,0.0150
3313.00,0.0150
3312.00,0.0149
3311.00,0.0149
3310.00,0.0147
3309.00,0.0146
3308.00,0.0145
3307.00,0.0144
3306.00,0.0144
3305.00,0.0145
3304.00,0.0146
3303.00,0.0147
3302.00,0.0147
3301.00,0.0148
3300.00,0.0148
3299.00,0.0147
3298.00,0.0146
3297.00,0.0145
3296.00,0.0145
3295.00,0.0144
3294.00,0.0143
3293.00,0.0143
3292.00,0.0143
3291.00,0.0143
3290.00,0.0144
3289.00,0.0144
3288.00,0.0145
3287.00,0.0145
3286.00,0.0144
3285.00,0.0144
3284.00,0.0144
3283.00,0.0143
3282.00,0.0143
3281.00,0.0143
3280.00,0.0142
3279.00,0.0142
3278.00,0.0141
3277.00,0.0141
3276.00,0.0140
3275.00,0.0139
3274.00,0.0139
3273.00,0.0138
3272.00,0.0137
3271.00,0.0137
3270.00,0.0137
3269.00,0.0137
3268.00,0.0138
3267.00,0.0138
3266.00,0.0138
3265.00,0.0137
3264.00,0.0137
3263.00,0.0137
3262.00,0.0136
3261.00,0.0136
3260.00,0.0136
3259.00,0.0135
3258.00,0.0134
3257.00,0.0134
3256.00,0.0133
3255.00,0.0133
3254.00,0.0132
3253.00,0.0132
3252.00,0.0132
3251.00,0.0132
3250.00,0.0131
3249.00,0.0131
3248.00,0.0131
3247.00,0.0130
3246.00,0.0130
3245.00,0.0130
3244.00,0.0129
3243.00,0.0129
3242.00,0.0129
3241.00,0.0128
3240.00,0.0128
3239.00,0.0128
3238.00,0.0127
3237.00,0.0127
3236.00,0.0126
3235.00,0.0125
3234.00,0.0125
3233.00,0.0124
3232.00,0.0124
3231.00,0.0124
3230.00,0.0123
3229.00,0.0123
3228.00,0.0123
3227.00,0.0123
3226.00,0.0123
3225.00,0.0122
3224.00,0.0122
3223.00,0.0121
3222.00,0.0121
3221.00,0.0121
3220.00,0.0120
3219.00,0.0120
3218.00,0.0119
3217.00,0.0119
3216.00,0.0119
3215.00,0.0118
3214.00,0.0118
3213.00,0.0118
3212.00,0.0117
3211.00,0.0117
3210.00,0.0116
3209.00,0.0116
3208.00,0.0116
3207.00,0.0115
3206.00,0.0115
3205.00,0.0115
3204.00,0.0114
3203.00,0.0114
3202.00,0.0114
3201.00,0.0113
3200.00,0.0113
3199.00,0.0113
3198.00,0.0113
3197.00,0.0112
3196.00,0.0112
3195.00,0.0112
3194.00,0.0111
3193.00,0.0111
3192.00,0.0111
3191.00,0.0111
3190.00,0.0110
3189.00,0.0110
3188.00,0.0110
3187.00,0.0110
3186.00,0.0109
3185.00,0.0109
3184.00,0.0108
3183.00,0.0108
3182.00,0.0108
3181.00,0.0108
3180.00,0.0107
3179.00,0.0107
3178.00,0.0107
3177.00,0.0107
3176.00,0.0106
3175.00,0.0106
3174.00,0.0106
3173.00,0.0106
3172.00,0.0106
3171.00,0.0105
3170.00,0.0105
3169.00,0.0105
3168.00,0.0105
3167.00,0.0104
3166.00,0.0104
3165.00,0.0104
3164.00,0.0104
3163.00,0.0104
3162.00,0.0103
3161.00,0.0103
3160.00,0.0103
3159.00,0.0103
3158.00,0.0103
3157.00,0.0102
3156.00,0.0102
3155.00,0.0102
3154.00,0.0102
3153.00,0.0102
3152.00,0.0101
3151.00,0.0101
3150.00,0.0101
3149.00,0.0100
3148.00,0.0100
3147.00,0.0100
3146.00,0.0100
3145.00,0.0100
3144.00,0.0099
3143.00,0.0099
3142.00,0.0099
3141.00,0.0099
3140.00,0.0099
3139.00,0.0099
3138.00,0.0098
3137.00,0.0098
3136.00,0.0098
3135.00,0.0098
3134.00,0.0098
3133.00,0.0098
3132.00,0.0098
3131.00,0.0098
3130.00,0.0098
3129.00,0.0098
3128.00,0.0098
3127.00,0.0097
3126.00,0.0097
3125.00,0.0097
3124.00,0.0097
3123.00,0.0097
3122.00,0.0097
3121.00,0.0097
3120.00,0.0096
3119.00,0.0096
3118.00,0.0096
3117.00,0.0096
3116.00,0.0096
3115.00,0.0096
3114.00,0.0096
3113.00,0.0096
3112.00,0.0096
3111.00,0.0096
3110.00,0.0096
3109.00,0.0096
3108.00,0.0095
3107.00,0.0095
3106.00,0.0095
3105.00,0.0095
3104.00,0.0095
3103.00,0.0095
3102.00,0.0095
3101.00,0.0095
3100.00,0.0095
3099.00,0.0095
3098.00,0.0095
3097.00,0.0094
3096.00,0.0094
3095.00,0.0094
3094.00,0.0094
3093.00,0.0093
3092.00,0.0093
3091.00,0.0093
3090.00,0.0093
3089.00,0.0093
3088.00,0.0092
3087.00,0.0092
3086.00,0.0092
3085.00,0.0092
3084.00,0.0092
3083.00,0.0092
3082.00,0.0092
3081.00,0.0092
3080.00,0.0091
3079.00,0.0091
3078.00,0.0091
3077.00,0.0092
3076.00,0.0092
3075.00,0.0091
3074.00,0.0091
3073.00,0.0091
3072.00,0.0091
3071.00,0.0091
3070.00,0.0091
3069.00,0.0091
3068.00,0.0091
3067.00,0.0091
3066.00,0.0091
3065.00,0.0091
3064.00,0.0090
3063.00,0.0090
3062.00,0.0090
3061.00,0.0090
3060.00,0.0090
3059.00,0.0090
3058.00,0.0090
3057.00,0.0090
3056.00,0.0090
3055.00,0.0089
3054.00,0.0089
3053.00,0.0089
3052.00,0.0089
3051.00,0.0089
3050.00,0.0089
3049.00,0.0089
3048.00,0.0089
3047.00,0.0089
3046.00,0.0089
3045.00,0.0088
3044.00,0.0088
3043.00,0.0088
3042.00,0.0087
3041.00,0.0087
3040.00,0.0087
3039.00,0.0087
3038.00,0.0087
3037.00,0.0087
3036.00,0.0087
3035.00,0.0087
3034.00,0.0087
3033.00,0.0087
3032.00,0.0087
3031.00,0.0087
3030.00,0.0087
3029.00,0.0088
3028.00,0.0088
3027.00,0.0088
3026.00,0.0088
3025.00,0.0088
3024.00,0.0088
3023.00,0.0088
3022.00,0.0088
3021.00,0.0088
3020.00,0.0088
3019.00,0.0089
3018.00,0.0089
3017.00,0.0089
3016.00,0.0090
3015.00,0.0090
3014.00,0.0091
3013.00,0.0091
3012.00,0.0092
3011.00,0.0093
3010.00,0.0094
3009.00,0.0096
3008.00,0.0097
3007.00,0.0099
3006.00,0.0100
3005.00,0.0102
3004.00,0.0103
3003.00,0.0105
3002.00,0.0108
3001.00,0.0110
3000.00,0.0113
2999.00,0.0115
2998.00,0.0117
2997.00,0.0120
2996.00,0.0122
2995.00,0.0125
2994.00,0.0128
2993.00,0.0131
2992.00,0.0133
2991.00,0.0136
2990.00,0.0139
2989.00,0.0142
2988.00,0.0145
2987.00,0.0148
2986.00,0.0151
2985.00,0.0153
2984.00,0.0156
2983.00,0.0158
2982.00,0.0160
2981.00,0.0162
2980.00,0.0164
2979.00,0.0167
2978.00,0.0170
2977.00,0.0172
2976.00,0.0174
2975.00,0.0176
2974.00,0.0178
2973.00,0.0179
2972.00,0.0181
2971.00,0.0183
2970.00,0.0185
2969.00,0.0187
2968.00,0.0189
2967.00,0.0191
2966.00,0.0193
2965.00,0.0196
2964.00,0.0199
2963.00,0.0201
2962.00,0.0203
2961.00,0.0206
2960.00,0.0208
2959.00,0.0210
2958.00,0.0212
2957.00,0.0214
2956.00,0.0217
2955.00,0.0218
2954.00,0.0220
2953.00,0.0221
2952.00,0.0222
2951.00,0.0223
2950.00,0.0223
2949.00,0.0223
2948.00,0.0223
2947.00,0.0223
2946.00,0.0222
2945.00,0.0221
2944.00,0.0220
2943.00,0.0219
2942.00,0.0217
2941.00,0.0216
2940.00,0.0214
2939.00,0.0213
2938.00,0.0212
2937.00,0.0211
2936.00,0.0211
2935.00,0.0210
2934.00,0.0210
2933.00,0.0211
2932.00,0.0211
2931.00,0.0212
2930.00,0.0213
2929.00,0.0213
2928.00,0.0214
2927.00,0.0214
2926.00,0.0215
2925.00,0.0216
2924.00,0.0216
2923.00,0.0217
2922.00,0.0217
2921.00,0.0217
2920.00,0.0217
2919.00,0.0218
2918.00,0.0218
2917.00,0.0217
2916.00,0.0216
2915.00,0.0215
2914.00,0.0213
2913.00,0.0212
2912.00,0.0210
2911.00,0.0208
2910.00,0.0206
2909.00,0.0204
2908.00,0.0202
2907.00,0.0201
2906.00,0.0199
2905.00,0.0198
2904.00,0.0197
2903.00,0.0196
2902.00,0.0196
2901.00,0.0196
2900.00,0.0197
2899.00,0.0197
2898.00,0.0198
2897.00,0.0198
2896.00,0.0199
2895.00,0.0200
2894.00,0.0200
2893.00,0.0201
2892.00,0.0202
2891.00,0.0203
2890.00,0.0203
2889.00,0.0204
2888.00,0.0204
2887.00,0.0204
2886.00,0.0204
2885.00,0.0205
2884.00,0.0205
2883.00,0.0205
2882.00,0.0205
2881.00,0.0205
2880.00,0.0204
2879.00,0.0204
2878.00,0.0203
2877.00,0.0203
2876.00,0.0202
2875.00,0.0201
2874.00,0.0200
2873.00,0.0199
2872.00,0.0198
2871.00,0.0197
2870.00,0.0196
2869.00,0.0195
2868.00,0.0194
2867.00,0.0193
2866.00,0.0192
2865.00,0.0191
2864.00,0.0190
2863.00,0.0189
2862.00,0.0187
2861.00,0.0186
2860.00,0.0185
2859.00,0.0184
2858.00,0.0182
2857.00,0.0181
2856.00,0.0180
2855.00,0.0178
2854.00,0.0177
2853.00,0.0175
2852.00,0.0173
2851.00,0.0171
2850.00,0.0168
2849.00,0.0165
2848.00,0.0163
2847.00,0.0160
2846.00,0.0157
2845.00,0.0155
2844.00,0.0153
2843.00,0.0151
2842.00,0.0150
2841.00,0.0149
2840.00,0.0147
2839.00,0.0146
2838.00,0.0145
2837.00,0.0143
2836.00,0.0142
2835.00,0.0141
2834.00,0.0139
2833.00,0.0137
2832.00,0.0135
2831.00,0.0134
2830.00,0.0132
2829.00,0.0130
2828.00,0.0129
2827.00,0.0127
2826.00,0.0125
2825.00,0.0124
2824.00,0.0123
2823.00,0.0121
2822.00,0.0120
2821.00,0.0119
2820.00,0.0118
2819.00,0.0117
2818.00,0.0116
2817.00,0.0115
2816.00,0.0115
2815.00,0.0114
2814.00,0.0113
2813.00,0.0113
2812.00,0.0112
2811.00,0.0112
2810.00,0.0111
2809.00,0.0111
2808.00,0.0110
2807.00,0.0110
2806.00,0.0110
2805.00,0.0110
2804.00,0.0110
2803.00,0.0109
2802.00,0.0109
2801.00,0.0109
2800.00,0.0109
2799.00,0.0109
2798.00,0.0109
2797.00,0.0109
2796.00,0.0108
2795.00,0.0108
2794.00,0.0108
2793.00,0.0107
2792.00,0.0107
2791.00,0.0107
2790.00,0.0107
2789.00,0.0106
2788.00,0.0106
2787.00,0.0106
2786.00,0.0106
2785.00,0.0106
2784.00,0.0105
2783.00,0.0105
2782.00,0.0105
2781.00,0.0105
2780.00,0.0105
2779.00,0.0105
2778.00,0.0105
2777.00,0.0104
2776.00,0.0104
2775.00,0.0104
2774.00,0.0104
2773.00,0.0104
2772.00,0.0104
2771.00,0.0103
2770.00,0.0103
2769.00,0.0103
2768.00,0.0102
2767.00,0.0102
2766.00,0.0102
2765.00,0.0102
2764.00,0.0102
2763.00,0.0102
2762.00,0.0102
2761.00,0.0102
2760.00,0.0102
2759.00,0.0101
2758.00,0.0101
2757.00,0.0101
2756.00,0.0101
2755.00,0.0101
2754.00,0.0101
2753.00,0.0101
2752.00,0.0101
2751.00,0.0101
2750.00,0.0101
2749.00,0.0101
2748.00,0.0101
2747.00,0.0101
2746.00,0.0101
2745.00,0.0101
2744.00,0.0101
2743.00,0.0101
2742.00,0.0101
2741.00,0.0101
2740.00,0.0101
2739.00,0.0101
2738.00,0.0101
2737.00,0.0101
2736.00,0.0101
2735.00,0.0101
2734.00,0.0101
2733.00,0.0101
2732.00,0.0100
2731.00,0.0100
2730.00,0.0100
2729.00,0.0100
2728.00,0.0100
2727.00,0.0100
2726.00,0.0100
2725.00,0.0100
2724.00,0.0100
2723.00,0.0100
2722.00,0.0100
2721.00,0.0100
2720.00,0.0100
2719.00,0.0100
2718.00,0.0100
2717.00,0.0100
2716.00,0.0099
2715.00,0.0099
2714.00,0.0099
2713.00,0.0099
2712.00,0.0099
2711.00,0.0099
2710.00,0.0099
2709.00,0.0099
2708.00,0.0099
2707.00,0.0099
2706.00,0.0099
2705.00,0.0099
2704.00,0.0099
2703.00,0.0099
2702.00,0.0098
2701.00,0.0098
2700.00,0.0098
2699.00,0.0098
2698.00,0.0098
2697.00,0.0098
2696.00,0.0098
2695.00,0.0098
2694.00,0.0098
2693.00,0.0098
2692.00,0.0098
2691.00,0.0098
2690.00,0.0098
2689.00,0.0098
2688.00,0.0098
2687.00,0.0098
2686.00,0.0098
2685.00,0.0098
2684.00,0.0097
2683.00,0.0097
2682.00,0.0097
2681.00,0.0097
2680.00,0.0097
2679.00,0.0097
2678.00,0.0097
2677.00,0.0097
2676.00,0.0097
2675.00,0.0097
2674.00,0.0097
2673.00,0.0097
2672.00,0.0097
2671.00,0.0097
2670.00,0.0097
2669.00,0.0098
2668.00,0.0098
2667.00,0.0098
2666.00,0.0098
2665.00,0.0099
2664.00,0.0099
2663.00,0.0099
2662.00,0.0100
2661.00,0.0100
2660.00,0.0101
2659.00,0.0101
2658.00,0.0101
2657.00,0.0101
2656.00,0.0101
2655.00,0.0101
2654.00,0.0101
2653.00,0.0101
2652.00,0.0101
2651.00,0.0101
2650.00,0.0101
2649.00,0.0101
2648.00,0.0101
2647.00,0.0101
2646.00,0.0101
2645.00,0.0101
2644.00,0.0101
2643.00,0.0101
2642.00,0.0101
2641.00,0.0100
2640.00,0.0100
2639.00,0.0100
2638.00,0.0100
2637.00,0.0100
2636.00,0.0100
2635.00,0.0100
2634.00,0.0100
2633.00,0.0100
2632.00,0.0100
2631.00,0.0100
2630.00,0.0100
2629.00,0.0100
2628.00,0.0099
2627.00,0.0099
2626.00,0.0099
2625.00,0.0099
2624.00,0.0099
2623.00,0.0099
2622.00,0.0099
2621.00,0.0099
2620.00,0.0099
2619.00,0.0099
2618.00,0.0099
2617.00,0.0099
2616.00,0.0099
2615.00,0.0098
2614.00,0.0098
2613.00,0.0098
2612.00,0.0098
2611.00,0.0098
2610.00,0.0097
2609.00,0.0098
2608.00,0.0098
2607.00,0.0098
2606.00,0.0097
2605.00,0.0097
2604.00,0.0097
2603.00,0.0097
2602.00,0.0097
2601.00,0.0097
2600.00,0.0097
2599.00,0.0097
2598.00,0.0097
2597.00,0.0097
2596.00,0.0097
2595.00,0.0097
2594.00,0.0097
2593.00,0.0097
2592.00,0.0097
2591.00,0.0097
2590.00,0.0097
2589.00,0.0097
2588.00,0.0097
2587.00,0.0097
2586.00,0.0097
2585.00,0.0097
2584.00,0.0097
2583.00,0.0097
2582.00,0.0097
2581.00,0.0097
2580.00,0.0097
2579.00,0.0097
2578.00,0.0097
2577.00,0.0097
2576.00,0.0097
2575.00,0.0098
2574.00,0.0098
2573.00,0.0097
2572.00,0.0097
2571.00,0.0097
2570.00,0.0096
2569.00,0.0096
2568.00,0.0097
2567.00,0.0097
2566.00,0.0097
2565.00,0.0097
2564.00,0.0097
2563.00,0.0097
2562.00,0.0097
2561.00,0.0097
2560.00,0.0097
2559.00,0.0097
2558.00,0.0096
2557.00,0.0096
2556.00,0.0097
2555.00,0.0097
2554.00,0.0097
2553.00,0.0097
2552.00,0.0096
2551.00,0.0096
2550.00,0.0096
2549.00,0.0096
2548.00,0.0096
2547.00,0.0096
2546.00,0.0096
2545.00,0.0096
2544.00,0.0096
2543.00,0.0096
2542.00,0.0096
2541.00,0.0095
2540.00,0.0095
2539.00,0.0095
2538.00,0.0094
2537.00,0.0094
2536.00,0.0094
2535.00,0.0094
2534.00,0.0094
2533.00,0.0094
2532.00,0.0095
2531.00,0.0095
2530.00,0.0095
2529.00,0.0095
2528.00,0.0095
2527.00,0.0095
2526.00,0.0094
2525.00,0.0094
2524.00,0.0094
2523.00,0.0093
2522.00,0.0093
2521.00,0.0093
2520.00,0.0093
2519.00,0.0093
2518.00,0.0093
2517.00,0.0093
2516.00,0.0094
2515.00,0.0094
2514.00,0.0094
2513.00,0.0093
2512.00,0.0093
2511.00,0.0093
2510.00,0.0093
2509.00,0.0093
2508.00,0.0093
2507.00,0.0093
2506.00,0.0093
2505.00,0.0093
2504.00,0.0093
2503.00,0.0093
2502.00,0.0093
2501.00,0.0094
2500.00,0.0094
2499.00,0.0094
2498.00,0.0094
2497.00,0.0093
2496.00,0.0093
2495.00,0.0093
2494.00,0.0093
2493.00,0.0094
2492.00,0.0094
2491.00,0.0094
2490.00,0.0094
2489.00,0.0093
2488.00,0.0093
2487.00,0.0093
2486.00,0.0092
2485.00,0.0092
2484.00,0.0092
2483.00,0.0092
2482.00,0.0092
2481.00,0.0092
2480.00,0.0093
2479.00,0.0093
2478.00,0.0093
2477.00,0.0092
2476.00,0.0092
2475.00,0.0092
2474.00,0.0092
2473.00,0.0093
2472.00,0.0093
2471.00,0.0093
2470.00,0.0092
2469.00,0.0092
2468.00,0.0092
2467.00,0.0092
2466.00,0.0092
2465.00,0.0092
2464.00,0.0092
2463.00,0.0093
2462.00,0.0093
2461.00,0.0093
2460.00,0.0094
2459.00,0.0094
2458.00,0.0094
2457.00,0.0094
2456.00,0.0094
2455.00,0.0093
2454.00,0.0093
2453.00,0.0093
2452.00,0.0093
2451.00,0.0093
2450.00,0.0093
2449.00,0.0093
2448.00,0.0093
2447.00,0.0093
2446.00,0.0093
2445.00,0.0093
2444.00,0.0093
2443.00,0.0092
2442.00,0.0092
2441.00,0.0092
2440.00,0.0093
2439.00,0.0093
2438.00,0.0093
2437.00,0.0093
2436.00,0.0094
2435.00,0.0094
2434.00,0.0093
2433.00,0.0093
2432.00,0.0092
2431.00,0.0092
2430.00,0.0092
2429.00,0.0092
2428.00,0.0092
2427.00,0.0092
2426.00,0.0091
2425.00,0.0091
2424.00,0.0091
2423.00,0.0091
2422.00,0.0092
2421.00,0.0092
2420.00,0.0092
2419.00,0.0092
2418.00,0.0093
2417.00,0.0093
2416.00,0.0093
2415.00,0.0093
2414.00,0.0093
2413.00,0.0093
2412.00,0.0093
2411.00,0.0093
2410.00,0.0092
2409.00,0.0092
2408.00,0.0092
2407.00,0.0092
2406.00,0.0091
2405.00,0.0091
2404.00,0.0091
2403.00,0.0091
2402.00,0.0091
2401.00,0.0091
2400.00,0.0091
2399.00,0.0091
2398.00,0.0091
2397.00,0.0091
2396.00,0.0092
2395.00,0.0092
2394.00,0.0092
2393.00,0.0092
2392.00,0.0092
2391.00,0.0092
2390.00,0.0092
2389.00,0.0091
2388.00,0.0091
2387.00,0.0091
2386.00,0.0090
2385.00,0.0090
2384.00,0.0089
2383.00,0.0089
2382.00,0.0088
2381.00,0.0087
2380.00,0.0087
2379.00,0.0087
2378.00,0.0086
2377.00,0.0086
2376.00,0.0086
2375.00,0.0086
2374.00,0.0087
2373.00,0.0087
2372.00,0.0087
2371.00,0.0087
2370.00,0.0086
2369.00,0.0086
2368.00,0.0086
2367.00,0.0086
2366.00,0.0086
2365.00,0.0086
2364.00,0.0087
2363.00,0.0087
2362.00,0.0087
2361.00,0.0087
2360.00,0.0087
2359.00,0.0087
2358.00,0.0087
2357.00,0.0087
2356.00,0.0087
2355.00,0.0088
2354.00,0.0088
2353.00,0.0088
2352.00,0.0088
2351.00,0.0088
2350.00,0.0088
2349.00,0.0088
2348.00,0.0089
2347.00,0.0089
2346.00,0.0090
2345.00,0.0091
2344.00,0.0091
2343.00,0.0091
2342.00,0.0090
2341.00,0.0090
2340.00,0.0091
2339.00,0.0091
2338.00,0.0092
2337.00,0.0092
2336.00,0.0092
2335.00,0.0092
2334.00,0.0092
2333.00,0.0092
2332.00,0.0092
2331.00,0.0092
2330.00,0.0093
2329.00,0.0095
2328.00,0.0097
2327.00,0.0100
2326.00,0.0102
2325.00,0.0103
2324.00,0.0103
2323.00,0.0101
2322.00,0.0100
2321.00,0.0099
2320.00,0.0098
2319.00,0.0097
2318.00,0.0097
2317.00,0.0096
2316.00,0.0096
2315.00,0.0096
2314.00,0.0096
2313.00,0.0096
2312.00,0.0095
2311.00,0.0095
2310.00,0.0094
2309.00,0.0094
2308.00,0.0093
2307.00,0.0093
2306.00,0.0093
2305.00,0.0094
2304.00,0.0095
2303.00,0.0095
2302.00,0.0095
2301.00,0.0095
2300.00,0.0096
2299.00,0.0096
2298.00,0.0096
2297.00,0.0097
2296.00,0.0098
2295.00,0.0098
2294.00,0.0099
2293.00,0.0100
2292.00,0.0101
2291.00,0.0101
2290.00,0.0102
2289.00,0.0102
2288.00,0.0103
2287.00,0.0103
2286.00,0.0103
2285.00,0.0102
2284.00,0.0102
2283.00,0.0101
2282.00,0.0101
2281.00,0.0100
2280.00,0.0100
2279.00,0.0100
2278.00,0.0099
2277.00,0.0099
2276.00,0.0099
2275.00,0.0099
2274.00,0.0099
2273.00,0.0099
2272.00,0.0099
2271.00,0.0099
2270.00,0.0099
2269.00,0.0099
2268.00,0.0098
2267.00,0.0098
2266.00,0.0097
2265.00,0.0096
2264.00,0.0096
2263.00,0.0096
2262.00,0.0096
2261.00,0.0097
2260.00,0.0098
2259.00,0.0099
2258.00,0.0099
2257.00,0.0098
2256.00,0.0096
2255.00,0.0095
2254.00,0.0094
2253.00,0.0093
2252.00,0.0094
2251.00,0.0094
2250.00,0.0095
2249.00,0.0096
2248.00,0.0096
2247.00,0.0096
2246.00,0.0095
2245.00,0.0095
2244.00,0.0096
2243.00,0.0096
2242.00,0.0096
2241.00,0.0096
2240.00,0.0097
2239.00,0.0097
2238.00,0.0097
2237.00,0.0097
2236.00,0.0097
2235.00,0.0097
2234.00,0.0097
2233.00,0.0097
2232.00,0.0097
2231.00,0.0097
2230.00,0.0097
2229.00,0.0097
2228.00,0.0096
2227.00,0.0096
2226.00,0.0095
2225.00,0.0095
2224.00,0.0095
2223.00,0.0095
2222.00,0.0095
2221.00,0.0095
2220.00,0.0095
2219.00,0.0095
2218.00,0.0095
2217.00,0.0095
2216.00,0.0095
2215.00,0.0095
2214.00,0.0094
2213.00,0.0094
2212.00,0.0094
2211.00,0.0094
2210.00,0.0094
2209.00,0.0095
2208.00,0.0095
2207.00,0.0096
2206.00,0.0096
2205.00,0.0097
2204.00,0.0097
2203.00,0.0097
2202.00,0.0097
2201.00,0.0096
2200.00,0.0097
2199.00,0.0098
2198.00,0.0098
2197.00,0.0099
2196.00,0.0099
2195.00,0.0099
2194.00,0.0099
2193.00,0.0099
2192.00,0.0099
2191.00,0.0098
2190.00,0.0098
2189.00,0.0097
2188.00,0.0098
2187.00,0.0098
2186.00,0.0098
2185.00,0.0097
2184.00,0.0096
2183.00,0.0095
2182.00,0.0094
2181.00,0.0094
2180.00,0.0095
2179.00,0.0096
2178.00,0.0095
2177.00,0.0093
2176.00,0.0092
2175.00,0.0092
2174.00,0.0094
2173.00,0.0096
2172.00,0.0099
2171.00,0.0101
2170.00,0.0103
2169.00,0.0105
2168.00,0.0106
2167.00,0.0107
2166.00,0.0108
2165.00,0.0109
2164.00,0.0110
2163.00,0.0110
2162.00,0.0107
2161.00,0.0098
2160.00,0.0087
2159.00,0.0077
2158.00,0.0072
2157.00,0.0071
2156.00,0.0073
2155.00,0.0076
2154.00,0.0079
2153.00,0.0081
2152.00,0.0082
2151.00,0.0083
2150.00,0.0083
2149.00,0.0083
2148.00,0.0083
2147.00,0.0083
2146.00,0.0082
2145.00,0.0082
2144.00,0.0082
2143.00,0.0082
2142.00,0.0082
2141.00,0.0083
2140.00,0.0084
2139.00,0.0084
2138.00,0.0083
2137.00,0.0082
2136.00,0.0080
2135.00,0.0078
2134.00,0.0078
2133.00,0.0079
2132.00,0.0081
2131.00,0.0083
2130.00,0.0084
2129.00,0.0085
2128.00,0.0086
2127.00,0.0087
2126.00,0.0088
2125.00,0.0089
2124.00,0.0089
2123.00,0.0090
2122.00,0.0091
2121.00,0.0092
2120.00,0.0093
2119.00,0.0095
2118.00,0.0095
2117.00,0.0096
2116.00,0.0096
2115.00,0.0096
2114.00,0.0096
2113.00,0.0096
2112.00,0.0096
2111.00,0.0096
2110.00,0.0095
2109.00,0.0094
2108.00,0.0094
2107.00,0.0094
2106.00,0.0094
2105.00,0.0094
2104.00,0.0094
2103.00,0.0095
2102.00,0.0095
2101.00,0.0095
2100.00,0.0095
2099.00,0.0096
2098.00,0.0095
2097.00,0.0093
2096.00,0.0092
2095.00,0.0091
2094.00,0.0090
2093.00,0.0091
2092.00,0.0091
2091.00,0.0092
2090.00,0.0093
2089.00,0.0093
2088.00,0.0094
2087.00,0.0095
2086.00,0.0095
2085.00,0.0095
2084.00,0.0095
2083.00,0.0096
2082.00,0.0096
2081.00,0.0096
2080.00,0.0096
2079.00,0.0095
2078.00,0.0095
2077.00,0.0094
2076.00,0.0094
2075.00,0.0094
2074.00,0.0093
2073.00,0.0093
2072.00,0.0093
2071.00,0.0093
2070.00,0.0094
2069.00,0.0094
2068.00,0.0095
2067.00,0.0095
2066.00,0.0095
2065.00,0.0094
2064.00,0.0093
2063.00,0.0092
2062.00,0.0092
2061.00,0.0092
2060.00,0.0092
2059.00,0.0092
2058.00,0.0092
2057.00,0.0091
2056.00,0.0091
2055.00,0.0091
2054.00,0.0093
2053.00,0.0096
2052.00,0.0099
2051.00,0.0100
2050.00,0.0098
2049.00,0.0096
2048.00,0.0094
2047.00,0.0093
2046.00,0.0092
2045.00,0.0091
2044.00,0.0092
2043.00,0.0093
2042.00,0.0093
2041.00,0.0094
2040.00,0.0095
2039.00,0.0096
2038.00,0.0096
2037.00,0.0095
2036.00,0.0093
2035.00,0.0090
2034.00,0.0087
2033.00,0.0084
2032.00,0.0084
2031.00,0.0085
2030.00,0.0086
2029.00,0.0086
2028.00,0.0086
2027.00,0.0085
2026.00,0.0084
2025.00,0.0084
2024.00,0.0085
2023.00,0.0087
2022.00,0.0087
2021.00,0.0087
2020.00,0.0087
2019.00,0.0087
2018.00,0.0087
2017.00,0.0087
2016.00,0.0086
2015.00,0.0085
2014.00,0.0084
2013.00,0.0083
2012.00,0.0084
2011.00,0.0085
2010.00,0.0085
2009.00,0.0084
2008.00,0.0081
2007.00,0.0079
2006.00,0.0079
2005.00,0.0079
2004.00,0.0081
2003.00,0.0082
2002.00,0.0082
2001.00,0.0083
2000.00,0.0085
1999.00,0.0086
1998.00,0.0086
1997.00,0.0086
1996.00,0.0086
1995.00,0.0086
1994.00,0.0086
1993.00,0.0086
1992.00,0.0087
1991.00,0.0087
1990.00,0.0087
1989.00,0.0088
1988.00,0.0089
1987.00,0.0090
1986.00,0.0091
1985.00,0.0091
1984.00,0.0093
1983.00,0.0095
1982.00,0.0097
1981.00,0.0096
1980.00,0.0094
1979.00,0.0090
1978.00,0.0085
1977.00,0.0081
1976.00,0.0079
1975.00,0.0078
1974.00,0.0077
1973.00,0.0076
1972.00,0.0076
1971.00,0.0076
1970.00,0.0076
1969.00,0.0076
1968.00,0.0077
1967.00,0.0078
1966.00,0.0079
1965.00,0.0079
1964.00,0.0080
1963.00,0.0080
1962.00,0.0078
1961.00,0.0076
1960.00,0.0074
1959.00,0.0074
1958.00,0.0074
1957.00,0.0076
1956.00,0.0077
1955.00,0.0078
1954.00,0.0078
1953.00,0.0078
1952.00,0.0078
1951.00,0.0077
1950.00,0.0077
1949.00,0.0076
1948.00,0.0077
1947.00,0.0078
1946.00,0.0079
1945.00,0.0080
1944.00,0.0081
1943.00,0.0080
1942.00,0.0080
1941.00,0.0079
1940.00,0.0078
1939.00,0.0079
1938.00,0.0080
1937.00,0.0080
1936.00,0.0081
1935.00,0.0080
1934.00,0.0080
1933.00,0.0079
1932.00,0.0079
1931.00,0.0079
1930.00,0.0078
1929.00,0.0078
1928.00,0.0079
1927.00,0.0079
1926.00,0.0079
1925.00,0.0078
1924.00,0.0078
1923.00,0.0079
1922.00,0.0079
1921.00,0.0080
1920.00,0.0080
1919.00,0.0080
1918.00,0.0080
1917.00,0.0079
1916.00,0.0079
1915.00,0.0079
1914.00,0.0079
1913.00,0.0079
1912.00,0.0079
1911.00,0.0080
1910.00,0.0080
1909.00,0.0080
1908.00,0.0081
1907.00,0.0080
1906.00,0.0079
1905.00,0.0078
1904.00,0.0078
1903.00,0.0078
1902.00,0.0078
1901.00,0.0079
1900.00,0.0079
1899.00,0.0080
1898.00,0.0080
1897.00,0.0079
1896.00,0.0079
1895.00,0.0079
1894.00,0.0079
1893.00,0.0079
1892.00,0.0079
1891.00,0.0080
1890.00,0.0079
1889.00,0.0079
1888.00,0.0079
1887.00,0.0079
1886.00,0.0079
1885.00,0.0079
1884.00,0.0079
1883.00,0.0080
1882.00,0.0079
1881.00,0.0079
1880.00,0.0078
1879.00,0.0078
1878.00,0.0077
1877.00,0.0078
1876.00,0.0078
1875.00,0.0078
1874.00,0.0078
1873.00,0.0077
1872.00,0.0077
1871.00,0.0077
1870.00,0.0076
1869.00,0.0077
1868.00,0.0077
1867.00,0.0078
1866.00,0.0078
1865.00,0.0077
1864.00,0.0077
1863.00,0.0077
1862.00,0.0077
1861.00,0.0077
1860.00,0.0077
1859.00,0.0077
1858.00,0.0076
1857.00,0.0076
1856.00,0.0076
1855.00,0.0076
1854.00,0.0076
1853.00,0.0075
1852.00,0.0076
1851.00,0.0076
1850.00,0.0076
1849.00,0.0077
1848.00,0.0077
1847.00,0.0077
1846.00,0.0077
1845.00,0.0077
1844.00,0.0076
1843.00,0.0076
1842.00,0.0075
1841.00,0.0075
1840.00,0.0075
1839.00,0.0076
1838.00,0.0076
1837.00,0.0076
1836.00,0.0075
1835.00,0.0075
1834.00,0.0075
1833.00,0.0075
1832.00,0.0075
1831.00,0.0075
1830.00,0.0074
1829.00,0.0074
1828.00,0.0075
1827.00,0.0075
1826.00,0.0075
1825.00,0.0075
1824.00,0.0075
1823.00,0.0075
1822.00,0.0074
1821.00,0.0073
1820.00,0.0072
1819.00,0.0071
1818.00,0.0070
1817.00,0.0070
1816.00,0.0070
1815.00,0.0070
1814.00,0.0071
1813.00,0.0071
1812.00,0.0072
1811.00,0.0072
1810.00,0.0072
1809.00,0.0072
1808.00,0.0072
1807.00,0.0072
1806.00,0.0072
1805.00,0.0071
1804.00,0.0072
1803.00,0.0072
1802.00,0.0072
1801.00,0.0072
1800.00,0.0072
1799.00,0.0072
1798.00,0.0071
1797.00,0.0071
1796.00,0.0072
1795.00,0.0072
1794.00,0.0072
1793.00,0.0071
1792.00,0.0071
1791.00,0.0071
1790.00,0.0071
1789.00,0.0070
1788.00,0.0070
1787.00,0.0070
1786.00,0.0069
1785.00,0.0069
1784.00,0.0069
1783.00,0.0070
1782.00,0.0070
1781.00,0.0070
1780.00,0.0070
1779.00,0.0070
1778.00,0.0069
1777.00,0.0069
1776.00,0.0069
1775.00,0.0070
1774.00,0.0069
1773.00,0.0069
1772.00,0.0069
1771.00,0.0069
1770.00,0.0069
1769.00,0.0069
1768.00,0.0069
1767.00,0.0069
1766.00,0.0069
1765.00,0.0069
1764.00,0.0069
1763.00,0.0069
1762.00,0.0069
1761.00,0.0069
1760.00,0.0069
1759.00,0.0069
1758.00,0.0069
1757.00,0.0069
1756.00,0.0069
1755.00,0.0070
1754.00,0.0070
1753.00,0.0070
1752.00,0.0071
1751.00,0.0072
1750.00,0.0072
1749.00,0.0072
1748.00,0.0073
1747.00,0.0073
1746.00,0.0073
1745.00,0.0073
1744.00,0.0074
1743.00,0.0074
1742.00,0.0074
1741.00,0.0074
1740.00,0.0074
1739.00,0.0074
1738.00,0.0074
1737.00,0.0075
1736.00,0.0076
1735.00,0.0077
1734.00,0.0076
1733.00,0.0076
1732.00,0.0077
1731.00,0.0078
1730.00,0.0079
1729.00,0.0080
1728.00,0.0081
1727.00,0.0082
1726.00,0.0082
1725.00,0.0084
1724.00,0.0085
1723.00,0.0088
1722.00,0.0089
1721.00,0.0091
1720.00,0.0094
1719.00,0.0097
1718.00,0.0099
1717.00,0.0102
1716.00,0.0106
1715.00,0.0110
1714.00,0.0113
1713.00,0.0117
1712.00,0.0122
1711.00,0.0128
1710.00,0.0134
1709.00,0.0141
1708.00,0.0150
1707.00,0.0160
1706.00,0.0171
1705.00,0.0183
1704.00,0.0197
1703.00,0.0211
1702.00,0.0226
1701.00,0.0246
1700.00,0.0270
1699.00,0.0295
1698.00,0.0317
1697.00,0.0342
1696.00,0.0374
1695.00,0.0407
1694.00,0.0438
1693.00,0.0466
1692.00,0.0497
1691.00,0.0530
1690.00,0.0566
1689.00,0.0602
1688.00,0.0637
1687.00,0.0672
1686.00,0.0707
1685.00,0.0746
1684.00,0.0789
1683.00,0.0828
1682.00,0.0862
1681.00,0.0894
1680.00,0.0928
1679.00,0.0961
1678.00,0.0992
1677.00,0.1023
1676.00,0.1053
1675.00,0.1082
1674.00,0.1107
1673.00,0.1131
1672.00,0.1157
1671.00,0.1180
1670.00,0.1200
1669.00,0.1217
1668.00,0.1232
1667.00,0.1249
1666.00,0.1266
1665.00,0.1283
1664.00,0.1299
1663.00,0.1311
1662.00,0.1320
1661.00,0.1328
1660.00,0.1339
1659.00,0.1350
1658.00,0.1360
1657.00,0.1371
1656.00,0.1383
1655.00,0.1393
1654.00,0.1387
1653.00,0.1362
1652.00,0.1338
1651.00,0.1328
1650.00,0.1326
1649.00,0.1322
1648.00,0.1306
1647.00,0.1276
1646.00,0.1237
1645.00,0.1202
1644.00,0.1173
1643.00,0.1146
1642.00,0.1118
1641.00,0.1087
1640.00,0.1055
1639.00,0.1026
1638.00,0.0996
1637.00,0.0962
1636.00,0.0920
1635.00,0.0878
1634.00,0.0843
1633.00,0.0817
1632.00,0.0795
1631.00,0.0773
1630.00,0.0750
1629.00,0.0726
1628.00,0.0701
1627.00,0.0678
1626.00,0.0658
1625.00,0.0639
1624.00,0.0619
1623.00,0.0598
1622.00,0.0580
1621.00,0.0564
1620.00,0.0551
1619.00,0.0538
1618.00,0.0523
1617.00,0.0506
1616.00,0.0489
1615.00,0.0474
1614.00,0.0463
1613.00,0.0452
1612.00,0.0441
1611.00,0.0430
1610.00,0.0419
1609.00,0.0409
1608.00,0.0399
1607.00,0.0389
1606.00,0.0381
1605.00,0.0372
1604.00,0.0364
1603.00,0.0356
1602.00,0.0349
1601.00,0.0342
1600.00,0.0334
1599.00,0.0328
1598.00,0.0322
1597.00,0.0316
1596.00,0.0310
1595.00,0.0305
1594.00,0.0299
1593.00,0.0294
1592.00,0.0290
1591.00,0.0285
1590.00,0.0281
1589.00,0.0277
1588.00,0.0273
1587.00,0.0269
1586.00,0.0265
1585.00,0.0261
1584.00,0.0257
1583.00,0.0253
1582.00,0.0250
1581.00,0.0247
1580.00,0.0245
1579.00,0.0242
1578.00,0.0239
1577.00,0.0237
1576.00,0.0233
1575.00,0.0231
1574.00,0.0228
1573.00,0.0226
1572.00,0.0224
1571.00,0.0221
1570.00,0.0219
1569.00,0.0217
1568.00,0.0215
1567.00,0.0213
1566.00,0.0211
1565.00,0.0210
1564.00,0.0208
1563.00,0.0207
1562.00,0.0206
1561.00,0.0205
1560.00,0.0202
1559.00,0.0200
1558.00,0.0200
1557.00,0.0198
1556.00,0.0197
1555.00,0.0196
1554.00,0.0195
1553.00,0.0194
1552.00,0.0193
1551.00,0.0192
1550.00,0.0191
1549.00,0.0190
1548.00,0.0188
1547.00,0.0187
1546.00,0.0186
1545.00,0.0184
1544.00,0.0183
1543.00,0.0183
1542.00,0.0182
1541.00,0.0181
1540.00,0.0180
1539.00,0.0179
1538.00,0.0177
1537.00,0.0176
1536.00,0.0175
1535.00,0.0174
1534.00,0.0173
1533.00,0.0172
1532.00,0.0172
1531.00,0.0171
1530.00,0.0170
1529.00,0.0170
1528.00,0.0169
1527.00,0.0169
1526.00,0.0168
1525.00,0.0168
1524.00,0.0167
1523.00,0.0166
1522.00,0.0166
1521.00,0.0165
1520.00,0.0165
1519.00,0.0165
1518.00,0.0165
1517.00,0.0165
1516.00,0.0165
1515.00,0.0165
1514.00,0.0166
1513.00,0.0166
1512.00,0.0168
1511.00,0.0170
1510.00,0.0172
1509.00,0.0176
1508.00,0.0181
1507.00,0.0188
1506.00,0.0195
1505.00,0.0202
1504.00,0.0209
1503.00,0.0218
1502.00,0.0228
1501.00,0.0239
1500.00,0.0252
1499.00,0.0264
1498.00,0.0278
1497.00,0.0291
1496.00,0.0303
1495.00,0.0312
1494.00,0.0318
1493.00,0.0322
1492.00,0.0322
1491.00,0.0320
1490.00,0.0314
1489.00,0.0305
1488.00,0.0294
1487.00,0.0282
1486.00,0.0269
1485.00,0.0257
1484.00,0.0246
1483.00,0.0236
1482.00,0.0227
1481.00,0.0220
1480.00,0.0214
1479.00,0.0210
1478.00,0.0208
1477.00,0.0208
1476.00,0.0211
1475.00,0.0215
1474.00,0.0223
1473.00,0.0235
1472.00,0.0251
1471.00,0.0268
1470.00,0.0288
1469.00,0.0310
1468.00,0.0335
1467.00,0.0364
1466.00,0.0396
1465.00,0.0431
1464.00,0.0464
1463.00,0.0491
1462.00,0.0511
1461.00,0.0525
1460.00,0.0533
1459.00,0.0533
1458.00,0.0521
1457.00,0.0497
1456.00,0.0468
1455.00,0.0444
1454.00,0.0426
1453.00,0.0412
1452.00,0.0399
1451.00,0.0390
1450.00,0.0386
1449.00,0.0386
1448.00,0.0391
1447.00,0.0401
1446.00,0.0415
1445.00,0.0433
1444.00,0.0454
1443.00,0.0478
1442.00,0.0504
1441.00,0.0530
1440.00,0.0556
1439.00,0.0580
1438.00,0.0604
1437.00,0.0628
1436.00,0.0649
1435.00,0.0666
1434.00,0.0679
1433.00,0.0690
1432.00,0.0700
1431.00,0.0710
1430.00,0.0721
1429.00,0.0737
1428.00,0.0756
1427.00,0.0779
1426.00,0.0805
1425.00,0.0834
1424.00,0.0863
1423.00,0.0887
1422.00,0.0904
1421.00,0.0913
1420.00,0.0909
1419.00,0.0889
1418.00,0.0857
1417.00,0.0820
1416.00,0.0780
1415.00,0.0737
1414.00,0.0691
1413.00,0.0646
1412.00,0.0601
1411.00,0.0559
1410.00,0.0521
1409.00,0.0488
1408.00,0.0458
1407.00,0.0432
1406.00,0.0409
1405.00,0.0389
1404.00,0.0370
1403.00,0.0355
1402.00,0.0342
1401.00,0.0331
1400.00,0.0321
1399.00,0.0312
1398.00,0.0305
1397.00,0.0300
1396.00,0.0295
1395.00,0.0290
1394.00,0.0287
1393.00,0.0285
1392.00,0.0283
1391.00,0.0283
1390.00,0.0284
1389.00,0.0285
1388.00,0.0288
1387.00,0.0292
1386.00,0.0296
1385.00,0.0302
1384.00,0.0307
1383.00,0.0313
1382.00,0.0320
1381.00,0.0327
1380.00,0.0334
1379.00,0.0341
1378.00,0.0349
1377.00,0.0356
1376.00,0.0362
1375.00,0.0367
1374.00,0.0371
1373.00,0.0373
1372.00,0.0374
1371.00,0.0373
1370.00,0.0371
1369.00,0.0367
1368.00,0.0362
1367.00,0.0356
1366.00,0.0350
1365.00,0.0342
1364.00,0.0333
1363.00,0.0324
1362.00,0.0315
1361.00,0.0306
1360.00,0.0297
1359.00,0.0289
1358.00,0.0282
1357.00,0.0276
1356.00,0.0270
1355.00,0.0264
1354.00,0.0260
1353.00,0.0255
1352.00,0.0251
1351.00,0.0247
1350.00,0.0244
1349.00,0.0240
1348.00,0.0237
1347.00,0.0234
1346.00,0.0231
1345.00,0.0229
1344.00,0.0228
1343.00,0.0226
1342.00,0.0226
1341.00,0.0226
1340.00,0.0226
1339.00,0.0226
1338.00,0.0226
1337.00,0.0227
1336.00,0.0227
1335.00,0.0229
1334.00,0.0231
1333.00,0.0234
1332.00,0.0237
1331.00,0.0241
1330.00,0.0247
1329.00,0.0254
1328.00,0.0262
1327.00,0.0270
1326.00,0.0279
1325.00,0.0289
1324.00,0.0300
1323.00,0.0311
1322.00,0.0323
1321.00,0.0335
1320.00,0.0345
1319.00,0.0355
1318.00,0.0362
1317.00,0.0368
1316.00,0.0370
1315.00,0.0371
1314.00,0.0369
1313.00,0.0364
1312.00,0.0358
1311.00,0.0351
1310.00,0.0344
1309.00,0.0338
1308.00,0.0332
1307.00,0.0328
1306.00,0.0326
1305.00,0.0327
1304.00,0.0329
1303.00,0.0335
1302.00,0.0345
1301.00,0.0359
1300.00,0.0377
1299.00,0.0401
1298.00,0.0431
1297.00,0.0467
1296.00,0.0508
1295.00,0.0554
1294.00,0.0605
1293.00,0.0658
1292.00,0.0713
1291.00,0.0767
1290.00,0.0817
1289.00,0.0863
1288.00,0.0902
1287.00,0.0934
1286.00,0.0956
1285.00,0.0969
1284.00,0.0973
1283.00,0.0968
1282.00,0.0957
1281.00,0.0943
1280.00,0.0929
1279.00,0.0917
1278.00,0.0910
1277.00,0.0908
1276.00,0.0911
1275.00,0.0918
1274.00,0.0928
1273.00,0.0939
1272.00,0.0949
1271.00,0.0955
1270.00,0.0957
1269.00,0.0954
1268.00,0.0945
1267.00,0.0931
1266.00,0.0911
1265.00,0.0888
1264.00,0.0861
1263.00,0.0833
1262.00,0.0803
1261.00,0.0774
1260.00,0.0744
1259.00,0.0716
1258.00,0.0689
1257.00,0.0664
1256.00,0.0640
1255.00,0.0619
1254.00,0.0599
1253.00,0.0581
1252.00,0.0565
1251.00,0.0550
1250.00,0.0537
1249.00,0.0526
1248.00,0.0517
1247.00,0.0509
1246.00,0.0502
1245.00,0.0497
1244.00,0.0493
1243.00,0.0490
1242.00,0.0488
1241.00,0.0488
1240.00,0.0489
1239.00,0.0491
1238.00,0.0494
1237.00,0.0498
1236.00,0.0502
1235.00,0.0507
1234.00,0.0512
1233.00,0.0517
1232.00,0.0522
1231.00,0.0526
1230.00,0.0529
1229.00,0.0531
1228.00,0.0532
1227.00,0.0532
1226.00,0.0531
1225.00,0.0529
1224.00,0.0526
1223.00,0.0523
1222.00,0.0520
1221.00,0.0516
1220.00,0.0513
1219.00,0.0510
1218.00,0.0506
1217.00,0.0501
1216.00,0.0496
1215.00,0.0490
1214.00,0.0483
1213.00,0.0476
1212.00,0.0469
1211.00,0.0462
1210.00,0.0456
1209.00,0.0450
1208.00,0.0443
1207.00,0.0437
1206.00,0.0431
1205.00,0.0426
1204.00,0.0421
1203.00,0.0416
1202.00,0.0412
1201.00,0.0408
1200.00,0.0404
1199.00,0.0400
1198.00,0.0396
1197.00,0.0392
1196.00,0.0389
1195.00,0.0385
1194.00,0.0382
1193.00,0.0379
1192.00,0.0377
1191.00,0.0374
1190.00,0.0372
1189.00,0.0370
1188.00,0.0369
1187.00,0.0367
1186.00,0.0367
1185.00,0.0366
1184.00,0.0366
1183.00,0.0365
1182.00,0.0366
1181.00,0.0366
1180.00,0.0367
1179.00,0.0369
1178.00,0.0371
1177.00,0.0374
1176.00,0.0377
1175.00,0.0381
1174.00,0.0385
1173.00,0.0389
1172.00,0.0393
1171.00,0.0397
1170.00,0.0401
1169.00,0.0404
1168.00,0.0405
1167.00,0.0405
1166.00,0.0404
1165.00,0.0402
1164.00,0.0398
1163.00,0.0394
1162.00,0.0389
1161.00,0.0384
1160.00,0.0378
1159.00,0.0372
1158.00,0.0367
1157.00,0.0362
1156.00,0.0357
1155.00,0.0352
1154.00,0.0347
1153.00,0.0343
1152.00,0.0338
1151.00,0.0334
1150.00,0.0330
1149.00,0.0327
1148.00,0.0323
1147.00,0.0320
1146.00,0.0316
1145.00,0.0313
1144.00,0.0309
1143.00,0.0305
1142.00,0.0302
1141.00,0.0299
1140.00,0.0296
1139.00,0.0293
1138.00,0.0290
1137.00,0.0287
1136.00,0.0285
1135.00,0.0283
1134.00,0.0282
1133.00,0.0281
1132.00,0.0281
1131.00,0.0281
1130.00,0.0281
1129.00,0.0282
1128.00,0.0282
1127.00,0.0283
1126.00,0.0284
1125.00,0.0285
1124.00,0.0286
1123.00,0.0286
1122.00,0.0287
1121.00,0.0287
1120.00,0.0288
1119.00,0.0288
1118.00,0.0289
1117.00,0.0290
1116.00,0.0290
1115.00,0.0290
1114.00,0.0291
1113.00,0.0291
1112.00,0.0291
1111.00,0.0291
1110.00,0.0291
1109.00,0.0292
1108.00,0.0292
1107.00,0.0292
1106.00,0.0292
1105.00,0.0293
1104.00,0.0292
1103.00,0.0292
1102.00,0.0293
1101.00,0.0293
1100.00,0.0293
1099.00,0.0293
1098.00,0.0293
1097.00,0.0293
1096.00,0.0293
1095.00,0.0293
1094.00,0.0293
1093.00,0.0293
1092.00,0.0293
1091.00,0.0293
1090.00,0.0293
1089.00,0.0294
1088.00,0.0293
1087.00,0.0293
1086.00,0.0293
1085.00,0.0294
1084.00,0.0295
1083.00,0.0296
1082.00,0.0297
1081.00,0.0298
1080.00,0.0299
1079.00,0.0301
1078.00,0.0303
1077.00,0.0305
1076.00,0.0306
1075.00,0.0307
1074.00,0.0307
1073.00,0.0306
1072.00,0.0304
1071.00,0.0302
1070.00,0.0299
1069.00,0.0296
1068.00,0.0292
1067.00,0.0288
1066.00,0.0285
1065.00,0.0282
1064.00,0.0279
1063.00,0.0276
1062.00,0.0273
1061.00,0.0270
1060.00,0.0268
1059.00,0.0265
1058.00,0.0263
1057.00,0.0262
1056.00,0.0260
1055.00,0.0259
1054.00,0.0259
1053.00,0.0259
1052.00,0.0258
1051.00,0.0258
1050.00,0.0259
1049.00,0.0260
1048.00,0.0260
1047.00,0.0261
1046.00,0.0262
1045.00,0.0264
1044.00,0.0265
1043.00,0.0266
1042.00,0.0267
1041.00,0.0269
1040.00,0.0270
1039.00,0.0271
1038.00,0.0272
1037.00,0.0270
1036.00,0.0263
1035.00,0.0252
1034.00,0.0243
1033.00,0.0241
1032.00,0.0247
1031.00,0.0258
1030.00,0.0268
1029.00,0.0275
1028.00,0.0279
1027.00,0.0282
1026.00,0.0285
1025.00,0.0289
1024.00,0.0292
1023.00,0.0296
1022.00,0.0300
1021.00,0.0303
1020.00,0.0307
1019.00,0.0309
1018.00,0.0311
1017.00,0.0312
1016.00,0.0310
1015.00,0.0307
1014.00,0.0303
1013.00,0.0298
1012.00,0.0291
1011.00,0.0285
1010.00,0.0281
1009.00,0.0278
1008.00,0.0276
1007.00,0.0276
1006.00,0.0278
1005.00,0.0281
1004.00,0.0285
1003.00,0.0288
1002.00,0.0292
1001.00,0.0294
1000.00,0.0294
999.00,0.0294
998.00,0.0293
997.00,0.0291
996.00,0.0287
995.00,0.0284
994.00,0.0281
993.00,0.0278
992.00,0.0275
991.00,0.0272
990.00,0.0270
989.00,0.0268
988.00,0.0266
987.00,0.0264
986.00,0.0263
985.00,0.0261
984.00,0.0260
983.00,0.0259
982.00,0.0258
981.00,0.0257
980.00,0.0256
979.00,0.0255
978.00,0.0254
977.00,0.0253
976.00,0.0252
975.00,0.0251
974.00,0.0250
973.00,0.0249
972.00,0.0248
971.00,0.0246
970.00,0.0245
969.00,0.0244
968.00,0.0243
967.00,0.0243
966.00,0.0243
965.00,0.0242
964.00,0.0241
963.00,0.0239
962.00,0.0238
961.00,0.0238
960.00,0.0236
959.00,0.0236
958.00,0.0235
957.00,0.0234
956.00,0.0233
955.00,0.0232
954.00,0.0232
953.00,0.0231
952.00,0.0230
951.00,0.0229
950.00,0.0229
949.00,0.0229
948.00,0.0228
947.00,0.0228
946.00,0.0229
945.00,0.0230
944.00,0.0231
943.00,0.0232
942.00,0.0235
941.00,0.0237
940.00,0.0241
939.00,0.0245
938.00,0.0250
937.00,0.0256
936.00,0.0261
935.00,0.0266
934.00,0.0271
933.00,0.0274
932.00,0.0274
931.00,0.0272
930.00,0.0270
929.00,0.0266
928.00,0.0262
927.00,0.0259
926.00,0.0257
925.00,0.0256
924.00,0.0254
923.00,0.0252
922.00,0.0250
921.00,0.0248
920.00,0.0246
919.00,0.0244
918.00,0.0243
917.00,0.0242
916.00,0.0240
915.00,0.0239
914.00,0.0238
913.00,0.0237
912.00,0.0236
911.00,0.0235
910.00,0.0235
909.00,0.0235
908.00,0.0235
907.00,0.0236
906.00,0.0237
905.00,0.0239
904.00,0.0240
903.00,0.0242
902.00,0.0245
901.00,0.0249
900.00,0.0251
899.00,0.0254
898.00,0.0257
897.00,0.0259
896.00,0.0260
895.00,0.0261
894.00,0.0261
893.00,0.0260
892.00,0.0259
891.00,0.0257
890.00,0.0255
889.00,0.0253
888.00,0.0251
887.00,0.0249
886.00,0.0247
885.00,0.0246
884.00,0.0243
883.00,0.0241
882.00,0.0240
881.00,0.0238
880.00,0.0237
879.00,0.0236
878.00,0.0235
877.00,0.0235
876.00,0.0234
875.00,0.0234
874.00,0.0234
873.00,0.0235
872.00,0.0235
871.00,0.0236
870.00,0.0237
869.00,0.0238
868.00,0.0239
867.00,0.0240
866.00,0.0242
865.00,0.0244
864.00,0.0246
863.00,0.0248
862.00,0.0252
861.00,0.0256
860.00,0.0260
859.00,0.0265
858.00,0.0271
857.00,0.0277
856.00,0.0283
855.00,0.0290
854.00,0.0297
853.00,0.0305
852.00,0.0312
851.00,0.0320
850.00,0.0328
849.00,0.0335
848.00,0.0340
847.00,0.0345
846.00,0.0349
845.00,0.0352
844.00,0.0354
843.00,0.0354
842.00,0.0353
841.00,0.0351
840.00,0.0348
839.00,0.0344
838.00,0.0341
837.00,0.0337
836.00,0.0333
835.00,0.0328
834.00,0.0323
833.00,0.0318
832.00,0.0312
831.00,0.0307
830.00,0.0302
829.00,0.0297
828.00,0.0292
827.00,0.0286
826.00,0.0282
825.00,0.0278
824.00,0.0274
823.00,0.0270
822.00,0.0268
821.00,0.0265
820.00,0.0262
819.00,0.0259
818.00,0.0257
817.00,0.0255
816.00,0.0252
815.00,0.0250
814.00,0.0248
813.00,0.0247
812.00,0.0245
811.00,0.0244
810.00,0.0243
809.00,0.0242
808.00,0.0241
807.00,0.0240
806.00,0.0240
805.00,0.0239
804.00,0.0238
803.00,0.0236
802.00,0.0235
801.00,0.0235
800.00,0.0234
799.00,0.0234
798.00,0.0234
797.00,0.0234
796.00,0.0234
795.00,0.0233
794.00,0.0234
793.00,0.0234
792.00,0.0234
791.00,0.0235
790.00,0.0235
789.00,0.0235
788.00,0.0235
787.00,0.0235
786.00,0.0235
785.00,0.0235
784.00,0.0234
783.00,0.0233
782.00,0.0234
781.00,0.0235
780.00,0.0235
779.00,0.0236
778.00,0.0237
777.00,0.0237
776.00,0.0237
775.00,0.0237
774.00,0.0238
773.00,0.0240
772.00,0.0241
771.00,0.0243
770.00,0.0245
769.00,0.0247
768.00,0.0249
767.00,0.0252
766.00,0.0254
765.00,0.0257
764.00,0.0259
763.00,0.0261
762.00,0.0265
761.00,0.0269
760.00,0.0272
759.00,0.0275
758.00,0.0280
757.00,0.0284
756.00,0.0288
755.00,0.0292
754.00,0.0296
753.00,0.0300
752.00,0.0303
751.00,0.0306
750.00,0.0311
749.00,0.0316
748.00,0.0320
747.00,0.0325
746.00,0.0331
745.00,0.0335
744.00,0.0338
743.00,0.0342
742.00,0.0346
741.00,0.0350
740.00,0.0354
739.00,0.0358
738.00,0.0363
737.00,0.0367
736.00,0.0371
735.00,0.0374
734.00,0.0377
733.00,0.0377
732.00,0.0376
731.00,0.0374
730.00,0.0371
729.00,0.0366
728.00,0.0361
727.00,0.0355
726.00,0.0350
725.00,0.0344
724.00,0.0338
723.00,0.0333
722.00,0.0329
721.00,0.0325
720.00,0.0320
719.00,0.0317
718.00,0.0315
717.00,0.0313
716.00,0.0311
715.00,0.0309
714.00,0.0308
713.00,0.0308
712.00,0.0306
711.00,0.0305
710.00,0.0305
709.00,0.0306
708.00,0.0305
707.00,0.0305
706.00,0.0307
705.00,0.0308
704.00,0.0308
703.00,0.0308
702.00,0.0310
701.00,0.0311
700.00,0.0313
699.00,0.0315
698.00,0.0317
697.00,0.0320
696.00,0.0322
695.00,0.0324
694.00,0.0326
693.00,0.0328
692.00,0.0330
691.00,0.0331
690.00,0.0335
689.00,0.0338
688.00,0.0342
687.00,0.0345
686.00,0.0349
685.00,0.0353
684.00,0.0356
683.00,0.0359
682.00,0.0363
681.00,0.0367
680.00,0.0370
679.00,0.0373
678.00,0.0377
677.00,0.0381
676.00,0.0385
675.00,0.0388
674.00,0.0392
673.00,0.0397
672.00,0.0400
671.00,0.0404
670.00,0.0410
669.00,0.0417
668.00,0.0426
667.00,0.0435
666.00,0.0442
665.00,0.0447
664.00,0.0453
663.00,0.0460
662.00,0.0469
661.00,0.0478
660.00,0.0487
659.00,0.0496
658.00,0.0506
657.00,0.0517
656.00,0.0527
655.00,0.0537
654.00,0.0547
653.00,0.0557
652.00,0.0565
651.00,0.0572
650.00,0.0579
649.00,0.0584
648.00,0.0588
647.00,0.0589
646.00,0.0590
645.00,0.0588
644.00,0.0584
643.00,0.0579
642.00,0.0574
641.00,0.0569
640.00,0.0563
639.00,0.0556
638.00,0.0551
637.00,0.0545
636.00,0.0539
635.00,0.0533
634.00,0.0528
633.00,0.0523
632.00,0.0518
631.00,0.0514
630.00,0.0511
629.00,0.0508
628.00,0.0505
627.00,0.0502
626.00,0.0500
625.00,0.0499
624.00,0.0496
623.00,0.0492
622.00,0.0490
621.00,0.0489
620.00,0.0486
619.00,0.0484
618.00,0.0484
617.00,0.0484
616.00,0.0483
615.00,0.0483
614.00,0.0484
613.00,0.0485
612.00,0.0483
611.00,0.0480
610.00,0.0479
609.00,0.0481
608.00,0.0483
607.00,0.0485
606.00,0.0488
605.00,0.0488
604.00,0.0488
603.00,0.0488
602.00,0.0490
601.00,0.0492
600.00,0.0493
599.00,0.0493
598.00,0.0495
597.00,0.0498
596.00,0.0501
595.00,0.0504
594.00,0.0509
593.00,0.0514
592.00,0.0517
591.00,0.0522
590.00,0.0529
589.00,0.0536
588.00,0.0542
587.00,0.0548
586.00,0.0557
585.00,0.0566
584.00,0.0575
583.00,0.0583
582.00,0.0594
581.00,0.0605
580.00,0.0614
579.00,0.0623
578.00,0.0632
577.00,0.0639
576.00,0.0645
575.00,0.0649
574.00,0.0655
573.00,0.0660
572.00,0.0663
571.00,0.0665
570.00,0.0667
569.00,0.0668
568.00,0.0665
567.00,0.0662
566.00,0.0659
565.00,0.0656
564.00,0.0650
563.00,0.0643
562.00,0.0637
561.00,0.0631
560.00,0.0624
559.00,0.0619
558.00,0.0616
557.00,0.0613
556.00,0.0608
555.00,0.0602
554.00,0.0598
553.00,0.0594
552.00,0.0591
551.00,0.0589
550.00,0.0588
549.00,0.0587
548.00,0.0583
547.00,0.0579
546.00,0.0578
545.00,0.0576
544.00,0.0572
543.00,0.0568
542.00,0.0566
541.00,0.0565
540.00,0.0562
539.00,0.0561
538.00,0.0563
537.00,0.0565
536.00,0.0565
535.00,0.0565
534.00,0.0565
533.00,0.0564
532.00,0.0561
531.00,0.0559
530.00,0.0559
529.00,0.0561
528.00,0.0562
527.00,0.0562
526.00,0.0564
525.00,0.0565
524.00,0.0563
523.00,0.0563
522.00,0.0565
521.00,0.0566
520.00,0.0565
519.00,0.0563
518.00,0.0564
517.00,0.0565
516.00,0.0564
515.00,0.0564
514.00,0.0566
513.00,0.0566
512.00,0.0563
511.00,0.0562
510.00,0.0564
509.00,0.0567
508.00,0.0566
507.00,0.0566
506.00,0.0568
505.00,0.0570
504.00,0.0570
503.00,0.0570
502.00,0.0571
501.00,0.0571
500.00,0.0570
499.00,0.0571
498.00,0.0576
497.00,0.0580
496.00,0.0579
495.00,0.0577
494.00,0.0577
493.00,0.0576
492.00,0.0572
491.00,0.0572
490.00,0.0577
489.00,0.0583
488.00,0.0586
487.00,0.0587
486.00,0.0591
485.00,0.0595
484.00,0.0597
483.00,0.0598
482.00,0.0601
481.00,0.0602
480.00,0.0599
479.00,0.0598
478.00,0.0602
477.00,0.0608
476.00,0.0611
475.00,0.0615
474.00,0.0622
473.00,0.0626
472.00,0.0625
471.00,0.0622
470.00,0.0623
469.00,0.0624
468.00,0.0622
467.00,0.0621
466.00,0.0621
465.00,0.0619
464.00,0.0611
463.00,0.0605
462.00,0.0606
461.00,0.0608
460.00,0.0605
459.00,0.0603
458.00,0.0604
457.00,0.0606
456.00,0.0603
455.00,0.0599
454.00,0.0597
453.00,0.0594
452.00,0.0587
451.00,0.0584
450.00,0.0589
449.00,0.0593
448.00,0.0589
447.00,0.0583
446.00,0.0582
445.00,0.0580
444.00,0.0574
443.00,0.0569
442.00,0.0569
441.00,0.0567
440.00,0.0561
439.00,0.0557
438.00,0.0558
437.00,0.0558
436.00,0.0553
435.00,0.0551
434.00,0.0555
433.00,0.0557
432.00,0.0551
431.00,0.0544
430.00,0.0543
429.00,0.0544
428.00,0.0540
427.00,0.0537
426.00,0.0539
425.00,0.0539
424.00,0.0530
423.00,0.0523
422.00,0.0526
421.00,0.0529
420.00,0.0522
419.00,0.0511
418.00,0.0510
417.00,0.0510
416.00,0.0502
415.00,0.0496
414.00,0.0499
413.00,0.0505
412.00,0.0507
411.00,0.0511
410.00,0.0520
409.00,0.0521
408.00,0.0511
407.00,0.0504
406.00,0.0509
405.00,0.0509
404.00,0.0493
403.00,0.0479
402.00,0.0487
401.00,0.0499
400.00,0.0495
