Created as New Dataset,Sample 766 By YargerLab Date Thursday, July 03 2025
cm-1,A
4000.00,0.0106
3999.00,0.0106
3998.00,0.0106
3997.00,0.0106
3996.00,0.0106
3995.00,0.0106
3994.00,0.0106
3993.00,0.0106
3992.00,0.0106
3991.00,0.0106
3990.00,0.0106
3989.00,0.0106
3988.00,0.0106
3987.00,0.0106
3986.00,0.0106
3985.00,0.0105
3984.00,0.0105
3983.00,0.0105
3982.00,0.0105
3981.00,0.0105
3980.00,0.0105
3979.00,0.0105
3978.00,0.0105
3977.00,0.0105
3976.00,0.0105
3975.00,0.0105
3974.00,0.0105
3973.00,0.0105
3972.00,0.0105
3971.00,0.0105
3970.00,0.0105
3969.00,0.0105
3968.00,0.0105
3967.00,0.0105
3966.00,0.0105
3965.00,0.0105
3964.00,0.0105
3963.00,0.0105
3962.00,0.0105
3961.00,0.0105
3960.00,0.0105
3959.00,0.0105
3958.00,0.0105
3957.00,0.0105
3956.00,0.0105
3955.00,0.0105
3954.00,0.0105
3953.00,0.0104
3952.00,0.0104
3951.00,0.0105
3950.00,0.0105
3949.00,0.0106
3948.00,0.0106
3947.00,0.0107
3946.00,0.0106
3945.00,0.0106
3944.00,0.0105
3943.00,0.0105
3942.00,0.0105
3941.00,0.0105
3940.00,0.0105
3939.00,0.0105
3938.00,0.0105
3937.00,0.0105
3936.00,0.0105
3935.00,0.0106
3934.00,0.0106
3933.00,0.0106
3932.00,0.0106
3931.00,0.0105
3930.00,0.0105
3929.00,0.0105
3928.00,0.0105
3927.00,0.0104
3926.00,0.0104
3925.00,0.0103
3924.00,0.0104
3923.00,0.0104
3922.00,0.0105
3921.00,0.0106
3920.00,0.0106
3919.00,0.0107
3918.00,0.0107
3917.00,0.0107
3916.00,0.0106
3915.00,0.0106
3914.00,0.0105
3913.00,0.0105
3912.00,0.0104
3911.00,0.0104
3910.00,0.0104
3909.00,0.0103
3908.00,0.0103
3907.00,0.0103
3906.00,0.0103
3905.00,0.0104
3904.00,0.0106
3903.00,0.0108
3902.00,0.0109
3901.00,0.0109
3900.00,0.0108
3899.00,0.0107
3898.00,0.0106
3897.00,0.0106
3896.00,0.0106
3895.00,0.0106
3894.00,0.0105
3893.00,0.0105
3892.00,0.0105
3891.00,0.0105
3890.00,0.0105
3889.00,0.0106
3888.00,0.0107
3887.00,0.0107
3886.00,0.0107
3885.00,0.0106
3884.00,0.0105
3883.00,0.0105
3882.00,0.0105
3881.00,0.0105
3880.00,0.0105
3879.00,0.0105
3878.00,0.0105
3877.00,0.0105
3876.00,0.0105
3875.00,0.0104
3874.00,0.0104
3873.00,0.0104
3872.00,0.0105
3871.00,0.0107
3870.00,0.0107
3869.00,0.0107
3868.00,0.0107
3867.00,0.0108
3866.00,0.0108
3865.00,0.0108
3864.00,0.0107
3863.00,0.0107
3862.00,0.0107
3861.00,0.0107
3860.00,0.0107
3859.00,0.0106
3858.00,0.0104
3857.00,0.0102
3856.00,0.0100
3855.00,0.0100
3854.00,0.0102
3853.00,0.0104
3852.00,0.0105
3851.00,0.0106
3850.00,0.0107
3849.00,0.0107
3848.00,0.0107
3847.00,0.0106
3846.00,0.0105
3845.00,0.0105
3844.00,0.0104
3843.00,0.0105
3842.00,0.0105
3841.00,0.0106
3840.00,0.0106
3839.00,0.0106
3838.00,0.0106
3837.00,0.0106
3836.00,0.0106
3835.00,0.0106
3834.00,0.0106
3833.00,0.0107
3832.00,0.0106
3831.00,0.0106
3830.00,0.0105
3829.00,0.0105
3828.00,0.0105
3827.00,0.0104
3826.00,0.0104
3825.00,0.0104
3824.00,0.0105
3823.00,0.0106
3822.00,0.0106
3821.00,0.0106
3820.00,0.0106
3819.00,0.0106
3818.00,0.0106
3817.00,0.0106
3816.00,0.0105
3815.00,0.0104
3814.00,0.0104
3813.00,0.0103
3812.00,0.0103
3811.00,0.0103
3810.00,0.0103
3809.00,0.0103
3808.00,0.0103
3807.00,0.0104
3806.00,0.0104
3805.00,0.0105
3804.00,0.0105
3803.00,0.0105
3802.00,0.0105
3801.00,0.0104
3800.00,0.0104
3799.00,0.0104
3798.00,0.0105
3797.00,0.0104
3796.00,0.0104
3795.00,0.0103
3794.00,0.0102
3793.00,0.0102
3792.00,0.0101
3791.00,0.0101
3790.00,0.0100
3789.00,0.0100
3788.00,0.0100
3787.00,0.0100
3786.00,0.0100
3785.00,0.0100
3784.00,0.0100
3783.00,0.0100
3782.00,0.0100
3781.00,0.0100
3780.00,0.0100
3779.00,0.0100
3778.00,0.0100
3777.00,0.0101
3776.00,0.0101
3775.00,0.0101
3774.00,0.0101
3773.00,0.0101
3772.00,0.0101
3771.00,0.0101
3770.00,0.0102
3769.00,0.0102
3768.00,0.0102
3767.00,0.0103
3766.00,0.0103
3765.00,0.0102
3764.00,0.0102
3763.00,0.0102
3762.00,0.0103
3761.00,0.0103
3760.00,0.0103
3759.00,0.0103
3758.00,0.0103
3757.00,0.0104
3756.00,0.0104
3755.00,0.0105
3754.00,0.0106
3753.00,0.0106
3752.00,0.0107
3751.00,0.0109
3750.00,0.0110
3749.00,0.0109
3748.00,0.0108
3747.00,0.0107
3746.00,0.0106
3745.00,0.0106
3744.00,0.0105
3743.00,0.0105
3742.00,0.0105
3741.00,0.0106
3740.00,0.0108
3739.00,0.0109
3738.00,0.0109
3737.00,0.0109
3736.00,0.0109
3735.00,0.0108
3734.00,0.0107
3733.00,0.0107
3732.00,0.0106
3731.00,0.0105
3730.00,0.0104
3729.00,0.0103
3728.00,0.0103
3727.00,0.0103
3726.00,0.0103
3725.00,0.0102
3724.00,0.0102
3723.00,0.0102
3722.00,0.0101
3721.00,0.0101
3720.00,0.0100
3719.00,0.0100
3718.00,0.0100
3717.00,0.0100
3716.00,0.0100
3715.00,0.0100
3714.00,0.0100
3713.00,0.0101
3712.00,0.0101
3711.00,0.0101
3710.00,0.0101
3709.00,0.0101
3708.00,0.0101
3707.00,0.0100
3706.00,0.0099
3705.00,0.0099
3704.00,0.0098
3703.00,0.0097
3702.00,0.0097
3701.00,0.0097
3700.00,0.0097
3699.00,0.0097
3698.00,0.0098
3697.00,0.0098
3696.00,0.0098
3695.00,0.0098
3694.00,0.0098
3693.00,0.0098
3692.00,0.0098
3691.00,0.0098
3690.00,0.0099
3689.00,0.0101
3688.00,0.0102
3687.00,0.0102
3686.00,0.0102
3685.00,0.0102
3684.00,0.0101
3683.00,0.0101
3682.00,0.0101
3681.00,0.0100
3680.00,0.0100
3679.00,0.0100
3678.00,0.0101
3677.00,0.0102
3676.00,0.0103
3675.00,0.0104
3674.00,0.0104
3673.00,0.0106
3672.00,0.0107
3671.00,0.0107
3670.00,0.0106
3669.00,0.0105
3668.00,0.0104
3667.00,0.0104
3666.00,0.0103
3665.00,0.0103
3664.00,0.0103
3663.00,0.0103
3662.00,0.0103
3661.00,0.0103
3660.00,0.0103
3659.00,0.0104
3658.00,0.0105
3657.00,0.0106
3656.00,0.0107
3655.00,0.0107
3654.00,0.0108
3653.00,0.0109
3652.00,0.0111
3651.00,0.0112
3650.00,0.0113
3649.00,0.0114
3648.00,0.0114
3647.00,0.0114
3646.00,0.0113
3645.00,0.0113
3644.00,0.0113
3643.00,0.0112
3642.00,0.0112
3641.00,0.0112
3640.00,0.0112
3639.00,0.0113
3638.00,0.0113
3637.00,0.0114
3636.00,0.0115
3635.00,0.0115
3634.00,0.0116
3633.00,0.0116
3632.00,0.0118
3631.00,0.0120
3630.00,0.0121
3629.00,0.0122
3628.00,0.0122
3627.00,0.0122
3626.00,0.0122
3625.00,0.0122
3624.00,0.0123
3623.00,0.0123
3622.00,0.0124
3621.00,0.0124
3620.00,0.0124
3619.00,0.0124
3618.00,0.0125
3617.00,0.0126
3616.00,0.0128
3615.00,0.0129
3614.00,0.0130
3613.00,0.0131
3612.00,0.0132
3611.00,0.0133
3610.00,0.0134
3609.00,0.0134
3608.00,0.0133
3607.00,0.0132
3606.00,0.0132
3605.00,0.0132
3604.00,0.0133
3603.00,0.0133
3602.00,0.0133
3601.00,0.0134
3600.00,0.0134
3599.00,0.0135
3598.00,0.0136
3597.00,0.0137
3596.00,0.0137
3595.00,0.0138
3594.00,0.0138
3593.00,0.0140
3592.00,0.0141
3591.00,0.0143
3590.00,0.0144
3589.00,0.0144
3588.00,0.0144
3587.00,0.0143
3586.00,0.0143
3585.00,0.0144
3584.00,0.0145
3583.00,0.0145
3582.00,0.0146
3581.00,0.0146
3580.00,0.0146
3579.00,0.0147
3578.00,0.0147
3577.00,0.0148
3576.00,0.0148
3575.00,0.0149
3574.00,0.0150
3573.00,0.0152
3572.00,0.0153
3571.00,0.0155
3570.00,0.0157
3569.00,0.0158
3568.00,0.0159
3567.00,0.0159
3566.00,0.0159
3565.00,0.0159
3564.00,0.0160
3563.00,0.0161
3562.00,0.0161
3561.00,0.0162
3560.00,0.0162
3559.00,0.0162
3558.00,0.0163
3557.00,0.0164
3556.00,0.0165
3555.00,0.0165
3554.00,0.0166
3553.00,0.0167
3552.00,0.0167
3551.00,0.0168
3550.00,0.0170
3549.00,0.0172
3548.00,0.0173
3547.00,0.0174
3546.00,0.0175
3545.00,0.0175
3544.00,0.0175
3543.00,0.0175
3542.00,0.0176
3541.00,0.0176
3540.00,0.0177
3539.00,0.0178
3538.00,0.0178
3537.00,0.0179
3536.00,0.0179
3535.00,0.0180
3534.00,0.0181
3533.00,0.0182
3532.00,0.0183
3531.00,0.0184
3530.00,0.0185
3529.00,0.0186
3528.00,0.0186
3527.00,0.0187
3526.00,0.0188
3525.00,0.0189
3524.00,0.0189
3523.00,0.0189
3522.00,0.0189
3521.00,0.0189
3520.00,0.0190
3519.00,0.0191
3518.00,0.0191
3517.00,0.0192
3516.00,0.0193
3515.00,0.0194
3514.00,0.0195
3513.00,0.0195
3512.00,0.0196
3511.00,0.0197
3510.00,0.0197
3509.00,0.0198
3508.00,0.0199
3507.00,0.0200
3506.00,0.0201
3505.00,0.0202
3504.00,0.0202
3503.00,0.0202
3502.00,0.0202
3501.00,0.0203
3500.00,0.0203
3499.00,0.0204
3498.00,0.0204
3497.00,0.0205
3496.00,0.0205
3495.00,0.0206
3494.00,0.0207
3493.00,0.0207
3492.00,0.0208
3491.00,0.0209
3490.00,0.0210
3489.00,0.0210
3488.00,0.0211
3487.00,0.0211
3486.00,0.0212
3485.00,0.0212
3484.00,0.0213
3483.00,0.0213
3482.00,0.0214
3481.00,0.0215
3480.00,0.0215
3479.00,0.0216
3478.00,0.0217
3477.00,0.0217
3476.00,0.0217
3475.00,0.0217
3474.00,0.0218
3473.00,0.0218
3472.00,0.0219
3471.00,0.0220
3470.00,0.0221
3469.00,0.0221
3468.00,0.0222
3467.00,0.0222
3466.00,0.0222
3465.00,0.0223
3464.00,0.0223
3463.00,0.0224
3462.00,0.0224
3461.00,0.0225
3460.00,0.0225
3459.00,0.0226
3458.00,0.0226
3457.00,0.0227
3456.00,0.0227
3455.00,0.0228
3454.00,0.0228
3453.00,0.0229
3452.00,0.0229
3451.00,0.0230
3450.00,0.0231
3449.00,0.0231
3448.00,0.0232
3447.00,0.0232
3446.00,0.0232
3445.00,0.0233
3444.00,0.0233
3443.00,0.0234
3442.00,0.0235
3441.00,0.0235
3440.00,0.0236
3439.00,0.0237
3438.00,0.0238
3437.00,0.0238
3436.00,0.0239
3435.00,0.0240
3434.00,0.0240
3433.00,0.0241
3432.00,0.0242
3431.00,0.0242
3430.00,0.0243
3429.00,0.0243
3428.00,0.0244
3427.00,0.0244
3426.00,0.0245
3425.00,0.0246
3424.00,0.0247
3423.00,0.0248
3422.00,0.0248
3421.00,0.0249
3420.00,0.0249
3419.00,0.0250
3418.00,0.0251
3417.00,0.0252
3416.00,0.0253
3415.00,0.0254
3414.00,0.0255
3413.00,0.0256
3412.00,0.0257
3411.00,0.0258
3410.00,0.0259
3409.00,0.0259
3408.00,0.0260
3407.00,0.0261
3406.00,0.0262
3405.00,0.0263
3404.00,0.0264
3403.00,0.0264
3402.00,0.0265
3401.00,0.0266
3400.00,0.0267
3399.00,0.0268
3398.00,0.0269
3397.00,0.0270
3396.00,0.0271
3395.00,0.0271
3394.00,0.0272
3393.00,0.0273
3392.00,0.0273
3391.00,0.0274
3390.00,0.0275
3389.00,0.0276
3388.00,0.0277
3387.00,0.0278
3386.00,0.0279
3385.00,0.0279
3384.00,0.0280
3383.00,0.0281
3382.00,0.0282
3381.00,0.0283
3380.00,0.0284
3379.00,0.0284
3378.00,0.0285
3377.00,0.0286
3376.00,0.0287
3375.00,0.0288
3374.00,0.0290
3373.00,0.0291
3372.00,0.0292
3371.00,0.0293
3370.00,0.0294
3369.00,0.0296
3368.00,0.0297
3367.00,0.0299
3366.00,0.0300
3365.00,0.0301
3364.00,0.0302
3363.00,0.0304
3362.00,0.0305
3361.00,0.0306
3360.00,0.0308
3359.00,0.0310
3358.00,0.0311
3357.00,0.0313
3356.00,0.0315
3355.00,0.0317
3354.00,0.0319
3353.00,0.0320
3352.00,0.0322
3351.00,0.0324
3350.00,0.0326
3349.00,0.0328
3348.00,0.0330
3347.00,0.0333
3346.00,0.0335
3345.00,0.0337
3344.00,0.0339
3343.00,0.0342
3342.00,0.0345
3341.00,0.0347
3340.00,0.0350
3339.00,0.0353
3338.00,0.0355
3337.00,0.0359
3336.00,0.0362
3335.00,0.0365
3334.00,0.0368
3333.00,0.0372
3332.00,0.0375
3331.00,0.0379
3330.00,0.0382
3329.00,0.0386
3328.00,0.0390
3327.00,0.0393
3326.00,0.0397
3325.00,0.0401
3324.00,0.0405
3323.00,0.0410
3322.00,0.0414
3321.00,0.0419
3320.00,0.0423
3319.00,0.0427
3318.00,0.0432
3317.00,0.0436
3316.00,0.0441
3315.00,0.0446
3314.00,0.0451
3313.00,0.0456
3312.00,0.0461
3311.00,0.0466
3310.00,0.0470
3309.00,0.0475
3308.00,0.0479
3307.00,0.0484
3306.00,0.0489
3305.00,0.0495
3304.00,0.0501
3303.00,0.0506
3302.00,0.0512
3301.00,0.0518
3300.00,0.0523
3299.00,0.0528
3298.00,0.0533
3297.00,0.0537
3296.00,0.0542
3295.00,0.0547
3294.00,0.0551
3293.00,0.0555
3292.00,0.0559
3291.00,0.0563
3290.00,0.0566
3289.00,0.0569
3288.00,0.0572
3287.00,0.0574
3286.00,0.0576
3285.00,0.0578
3284.00,0.0579
3283.00,0.0580
3282.00,0.0580
3281.00,0.0580
3280.00,0.0580
3279.00,0.0579
3278.00,0.0578
3277.00,0.0576
3276.00,0.0574
3275.00,0.0572
3274.00,0.0569
3273.00,0.0565
3272.00,0.0562
3271.00,0.0558
3270.00,0.0555
3269.00,0.0552
3268.00,0.0548
3267.00,0.0545
3266.00,0.0541
3265.00,0.0536
3264.00,0.0532
3263.00,0.0527
3262.00,0.0523
3261.00,0.0518
3260.00,0.0514
3259.00,0.0509
3258.00,0.0504
3257.00,0.0500
3256.00,0.0495
3255.00,0.0491
3254.00,0.0488
3253.00,0.0484
3252.00,0.0480
3251.00,0.0476
3250.00,0.0472
3249.00,0.0468
3248.00,0.0465
3247.00,0.0461
3246.00,0.0458
3245.00,0.0454
3244.00,0.0451
3243.00,0.0448
3242.00,0.0445
3241.00,0.0442
3240.00,0.0439
3239.00,0.0436
3238.00,0.0433
3237.00,0.0430
3236.00,0.0426
3235.00,0.0423
3234.00,0.0420
3233.00,0.0418
3232.00,0.0416
3231.00,0.0414
3230.00,0.0413
3229.00,0.0410
3228.00,0.0408
3227.00,0.0406
3226.00,0.0403
3225.00,0.0401
3224.00,0.0399
3223.00,0.0396
3222.00,0.0394
3221.00,0.0392
3220.00,0.0390
3219.00,0.0388
3218.00,0.0386
3217.00,0.0384
3216.00,0.0382
3215.00,0.0380
3214.00,0.0378
3213.00,0.0376
3212.00,0.0374
3211.00,0.0372
3210.00,0.0370
3209.00,0.0368
3208.00,0.0366
3207.00,0.0364
3206.00,0.0361
3205.00,0.0359
3204.00,0.0358
3203.00,0.0356
3202.00,0.0355
3201.00,0.0353
3200.00,0.0351
3199.00,0.0349
3198.00,0.0347
3197.00,0.0345
3196.00,0.0343
3195.00,0.0341
3194.00,0.0339
3193.00,0.0337
3192.00,0.0335
3191.00,0.0333
3190.00,0.0331
3189.00,0.0329
3188.00,0.0327
3187.00,0.0325
3186.00,0.0323
3185.00,0.0321
3184.00,0.0319
3183.00,0.0318
3182.00,0.0316
3181.00,0.0314
3180.00,0.0313
3179.00,0.0311
3178.00,0.0308
3177.00,0.0306
3176.00,0.0304
3175.00,0.0302
3174.00,0.0301
3173.00,0.0299
3172.00,0.0298
3171.00,0.0296
3170.00,0.0294
3169.00,0.0292
3168.00,0.0290
3167.00,0.0289
3166.00,0.0287
3165.00,0.0285
3164.00,0.0284
3163.00,0.0282
3162.00,0.0280
3161.00,0.0279
3160.00,0.0278
3159.00,0.0276
3158.00,0.0275
3157.00,0.0273
3156.00,0.0272
3155.00,0.0271
3154.00,0.0269
3153.00,0.0268
3152.00,0.0266
3151.00,0.0265
3150.00,0.0264
3149.00,0.0263
3148.00,0.0262
3147.00,0.0261
3146.00,0.0260
3145.00,0.0259
3144.00,0.0257
3143.00,0.0256
3142.00,0.0255
3141.00,0.0254
3140.00,0.0254
3139.00,0.0253
3138.00,0.0252
3137.00,0.0251
3136.00,0.0251
3135.00,0.0250
3134.00,0.0249
3133.00,0.0249
3132.00,0.0248
3131.00,0.0247
3130.00,0.0246
3129.00,0.0246
3128.00,0.0245
3127.00,0.0245
3126.00,0.0245
3125.00,0.0245
3124.00,0.0245
3123.00,0.0244
3122.00,0.0244
3121.00,0.0243
3120.00,0.0243
3119.00,0.0243
3118.00,0.0242
3117.00,0.0242
3116.00,0.0243
3115.00,0.0243
3114.00,0.0244
3113.00,0.0244
3112.00,0.0244
3111.00,0.0244
3110.00,0.0244
3109.00,0.0244
3108.00,0.0245
3107.00,0.0246
3106.00,0.0247
3105.00,0.0248
3104.00,0.0248
3103.00,0.0249
3102.00,0.0249
3101.00,0.0249
3100.00,0.0249
3099.00,0.0250
3098.00,0.0250
3097.00,0.0251
3096.00,0.0252
3095.00,0.0252
3094.00,0.0253
3093.00,0.0253
3092.00,0.0253
3091.00,0.0253
3090.00,0.0254
3089.00,0.0255
3088.00,0.0255
3087.00,0.0256
3086.00,0.0256
3085.00,0.0256
3084.00,0.0256
3083.00,0.0257
3082.00,0.0257
3081.00,0.0257
3080.00,0.0257
3079.00,0.0257
3078.00,0.0258
3077.00,0.0259
3076.00,0.0260
3075.00,0.0261
3074.00,0.0261
3073.00,0.0261
3072.00,0.0261
3071.00,0.0260
3070.00,0.0260
3069.00,0.0259
3068.00,0.0259
3067.00,0.0258
3066.00,0.0258
3065.00,0.0258
3064.00,0.0258
3063.00,0.0257
3062.00,0.0257
3061.00,0.0256
3060.00,0.0256
3059.00,0.0255
3058.00,0.0253
3057.00,0.0252
3056.00,0.0251
3055.00,0.0250
3054.00,0.0248
3053.00,0.0247
3052.00,0.0246
3051.00,0.0245
3050.00,0.0244
3049.00,0.0243
3048.00,0.0242
3047.00,0.0240
3046.00,0.0239
3045.00,0.0237
3044.00,0.0236
3043.00,0.0234
3042.00,0.0233
3041.00,0.0232
3040.00,0.0231
3039.00,0.0230
3038.00,0.0229
3037.00,0.0228
3036.00,0.0226
3035.00,0.0225
3034.00,0.0224
3033.00,0.0223
3032.00,0.0222
3031.00,0.0221
3030.00,0.0221
3029.00,0.0220
3028.00,0.0219
3027.00,0.0218
3026.00,0.0217
3025.00,0.0216
3024.00,0.0215
3023.00,0.0214
3022.00,0.0214
3021.00,0.0213
3020.00,0.0212
3019.00,0.0211
3018.00,0.0209
3017.00,0.0208
3016.00,0.0207
3015.00,0.0206
3014.00,0.0206
3013.00,0.0205
3012.00,0.0205
3011.00,0.0205
3010.00,0.0206
3009.00,0.0206
3008.00,0.0206
3007.00,0.0206
3006.00,0.0205
3005.00,0.0205
3004.00,0.0205
3003.00,0.0205
3002.00,0.0206
3001.00,0.0206
3000.00,0.0206
2999.00,0.0206
2998.00,0.0206
2997.00,0.0207
2996.00,0.0208
2995.00,0.0208
2994.00,0.0209
2993.00,0.0210
2992.00,0.0211
2991.00,0.0212
2990.00,0.0213
2989.00,0.0215
2988.00,0.0217
2987.00,0.0218
2986.00,0.0219
2985.00,0.0221
2984.00,0.0222
2983.00,0.0223
2982.00,0.0224
2981.00,0.0225
2980.00,0.0227
2979.00,0.0228
2978.00,0.0230
2977.00,0.0232
2976.00,0.0233
2975.00,0.0234
2974.00,0.0236
2973.00,0.0237
2972.00,0.0239
2971.00,0.0241
2970.00,0.0242
2969.00,0.0244
2968.00,0.0245
2967.00,0.0246
2966.00,0.0247
2965.00,0.0248
2964.00,0.0249
2963.00,0.0250
2962.00,0.0251
2961.00,0.0251
2960.00,0.0251
2959.00,0.0251
2958.00,0.0251
2957.00,0.0250
2956.00,0.0250
2955.00,0.0249
2954.00,0.0249
2953.00,0.0248
2952.00,0.0247
2951.00,0.0247
2950.00,0.0246
2949.00,0.0246
2948.00,0.0246
2947.00,0.0247
2946.00,0.0248
2945.00,0.0249
2944.00,0.0252
2943.00,0.0254
2942.00,0.0258
2941.00,0.0261
2940.00,0.0265
2939.00,0.0270
2938.00,0.0274
2937.00,0.0279
2936.00,0.0284
2935.00,0.0289
2934.00,0.0294
2933.00,0.0299
2932.00,0.0304
2931.00,0.0308
2930.00,0.0312
2929.00,0.0316
2928.00,0.0321
2927.00,0.0325
2926.00,0.0328
2925.00,0.0331
2924.00,0.0334
2923.00,0.0335
2922.00,0.0336
2921.00,0.0336
2920.00,0.0336
2919.00,0.0334
2918.00,0.0330
2917.00,0.0326
2916.00,0.0319
2915.00,0.0312
2914.00,0.0304
2913.00,0.0295
2912.00,0.0287
2911.00,0.0279
2910.00,0.0273
2909.00,0.0267
2908.00,0.0262
2907.00,0.0258
2906.00,0.0254
2905.00,0.0251
2904.00,0.0248
2903.00,0.0246
2902.00,0.0243
2901.00,0.0241
2900.00,0.0239
2899.00,0.0237
2898.00,0.0234
2897.00,0.0232
2896.00,0.0230
2895.00,0.0228
2894.00,0.0227
2893.00,0.0225
2892.00,0.0223
2891.00,0.0221
2890.00,0.0220
2889.00,0.0219
2888.00,0.0218
2887.00,0.0217
2886.00,0.0216
2885.00,0.0215
2884.00,0.0214
2883.00,0.0214
2882.00,0.0214
2881.00,0.0214
2880.00,0.0214
2879.00,0.0215
2878.00,0.0215
2877.00,0.0216
2876.00,0.0216
2875.00,0.0217
2874.00,0.0217
2873.00,0.0217
2872.00,0.0216
2871.00,0.0216
2870.00,0.0215
2869.00,0.0214
2868.00,0.0213
2867.00,0.0212
2866.00,0.0211
2865.00,0.0211
2864.00,0.0212
2863.00,0.0212
2862.00,0.0214
2861.00,0.0216
2860.00,0.0219
2859.00,0.0222
2858.00,0.0226
2857.00,0.0230
2856.00,0.0234
2855.00,0.0238
2854.00,0.0241
2853.00,0.0244
2852.00,0.0247
2851.00,0.0248
2850.00,0.0246
2849.00,0.0243
2848.00,0.0237
2847.00,0.0230
2846.00,0.0222
2845.00,0.0214
2844.00,0.0207
2843.00,0.0201
2842.00,0.0196
2841.00,0.0192
2840.00,0.0188
2839.00,0.0185
2838.00,0.0183
2837.00,0.0181
2836.00,0.0179
2835.00,0.0177
2834.00,0.0176
2833.00,0.0175
2832.00,0.0174
2831.00,0.0173
2830.00,0.0172
2829.00,0.0172
2828.00,0.0171
2827.00,0.0170
2826.00,0.0170
2825.00,0.0169
2824.00,0.0169
2823.00,0.0168
2822.00,0.0168
2821.00,0.0167
2820.00,0.0167
2819.00,0.0166
2818.00,0.0166
2817.00,0.0165
2816.00,0.0165
2815.00,0.0165
2814.00,0.0164
2813.00,0.0164
2812.00,0.0164
2811.00,0.0163
2810.00,0.0163
2809.00,0.0162
2808.00,0.0162
2807.00,0.0161
2806.00,0.0161
2805.00,0.0161
2804.00,0.0161
2803.00,0.0160
2802.00,0.0160
2801.00,0.0160
2800.00,0.0160
2799.00,0.0159
2798.00,0.0159
2797.00,0.0159
2796.00,0.0158
2795.00,0.0158
2794.00,0.0157
2793.00,0.0157
2792.00,0.0156
2791.00,0.0156
2790.00,0.0155
2789.00,0.0155
2788.00,0.0155
2787.00,0.0154
2786.00,0.0154
2785.00,0.0154
2784.00,0.0154
2783.00,0.0153
2782.00,0.0153
2781.00,0.0153
2780.00,0.0152
2779.00,0.0152
2778.00,0.0152
2777.00,0.0151
2776.00,0.0151
2775.00,0.0151
2774.00,0.0150
2773.00,0.0150
2772.00,0.0150
2771.00,0.0150
2770.00,0.0149
2769.00,0.0149
2768.00,0.0148
2767.00,0.0148
2766.00,0.0148
2765.00,0.0148
2764.00,0.0148
2763.00,0.0148
2762.00,0.0147
2761.00,0.0147
2760.00,0.0147
2759.00,0.0146
2758.00,0.0146
2757.00,0.0146
2756.00,0.0145
2755.00,0.0145
2754.00,0.0145
2753.00,0.0145
2752.00,0.0144
2751.00,0.0144
2750.00,0.0144
2749.00,0.0143
2748.00,0.0143
2747.00,0.0143
2746.00,0.0143
2745.00,0.0143
2744.00,0.0142
2743.00,0.0142
2742.00,0.0142
2741.00,0.0141
2740.00,0.0141
2739.00,0.0141
2738.00,0.0141
2737.00,0.0140
2736.00,0.0140
2735.00,0.0140
2734.00,0.0139
2733.00,0.0139
2732.00,0.0139
2731.00,0.0139
2730.00,0.0138
2729.00,0.0138
2728.00,0.0137
2727.00,0.0137
2726.00,0.0137
2725.00,0.0136
2724.00,0.0136
2723.00,0.0136
2722.00,0.0136
2721.00,0.0136
2720.00,0.0135
2719.00,0.0135
2718.00,0.0135
2717.00,0.0135
2716.00,0.0135
2715.00,0.0134
2714.00,0.0134
2713.00,0.0134
2712.00,0.0134
2711.00,0.0134
2710.00,0.0133
2709.00,0.0133
2708.00,0.0133
2707.00,0.0133
2706.00,0.0133
2705.00,0.0132
2704.00,0.0132
2703.00,0.0132
2702.00,0.0131
2701.00,0.0131
2700.00,0.0131
2699.00,0.0131
2698.00,0.0131
2697.00,0.0130
2696.00,0.0130
2695.00,0.0130
2694.00,0.0130
2693.00,0.0130
2692.00,0.0130
2691.00,0.0130
2690.00,0.0129
2689.00,0.0129
2688.00,0.0129
2687.00,0.0129
2686.00,0.0129
2685.00,0.0128
2684.00,0.0128
2683.00,0.0128
2682.00,0.0128
2681.00,0.0128
2680.00,0.0128
2679.00,0.0128
2678.00,0.0128
2677.00,0.0128
2676.00,0.0127
2675.00,0.0127
2674.00,0.0128
2673.00,0.0128
2672.00,0.0127
2671.00,0.0127
2670.00,0.0127
2669.00,0.0127
2668.00,0.0127
2667.00,0.0127
2666.00,0.0127
2665.00,0.0127
2664.00,0.0128
2663.00,0.0128
2662.00,0.0128
2661.00,0.0129
2660.00,0.0129
2659.00,0.0129
2658.00,0.0129
2657.00,0.0129
2656.00,0.0129
2655.00,0.0130
2654.00,0.0129
2653.00,0.0129
2652.00,0.0129
2651.00,0.0129
2650.00,0.0129
2649.00,0.0129
2648.00,0.0129
2647.00,0.0129
2646.00,0.0129
2645.00,0.0128
2644.00,0.0128
2643.00,0.0128
2642.00,0.0128
2641.00,0.0128
2640.00,0.0128
2639.00,0.0128
2638.00,0.0127
2637.00,0.0127
2636.00,0.0127
2635.00,0.0127
2634.00,0.0127
2633.00,0.0127
2632.00,0.0127
2631.00,0.0126
2630.00,0.0126
2629.00,0.0126
2628.00,0.0126
2627.00,0.0126
2626.00,0.0125
2625.00,0.0125
2624.00,0.0125
2623.00,0.0125
2622.00,0.0125
2621.00,0.0125
2620.00,0.0125
2619.00,0.0125
2618.00,0.0125
2617.00,0.0125
2616.00,0.0125
2615.00,0.0124
2614.00,0.0124
2613.00,0.0124
2612.00,0.0123
2611.00,0.0123
2610.00,0.0122
2609.00,0.0122
2608.00,0.0122
2607.00,0.0122
2606.00,0.0122
2605.00,0.0122
2604.00,0.0121
2603.00,0.0121
2602.00,0.0121
2601.00,0.0121
2600.00,0.0121
2599.00,0.0121
2598.00,0.0120
2597.00,0.0120
2596.00,0.0120
2595.00,0.0120
2594.00,0.0119
2593.00,0.0119
2592.00,0.0119
2591.00,0.0119
2590.00,0.0118
2589.00,0.0118
2588.00,0.0118
2587.00,0.0117
2586.00,0.0117
2585.00,0.0117
2584.00,0.0116
2583.00,0.0116
2582.00,0.0116
2581.00,0.0116
2580.00,0.0116
2579.00,0.0115
2578.00,0.0115
2577.00,0.0115
2576.00,0.0115
2575.00,0.0114
2574.00,0.0114
2573.00,0.0114
2572.00,0.0114
2571.00,0.0113
2570.00,0.0113
2569.00,0.0113
2568.00,0.0112
2567.00,0.0112
2566.00,0.0112
2565.00,0.0112
2564.00,0.0112
2563.00,0.0111
2562.00,0.0111
2561.00,0.0111
2560.00,0.0111
2559.00,0.0111
2558.00,0.0111
2557.00,0.0111
2556.00,0.0111
2555.00,0.0111
2554.00,0.0111
2553.00,0.0111
2552.00,0.0111
2551.00,0.0111
2550.00,0.0111
2549.00,0.0111
2548.00,0.0111
2547.00,0.0110
2546.00,0.0110
2545.00,0.0109
2544.00,0.0109
2543.00,0.0108
2542.00,0.0108
2541.00,0.0108
2540.00,0.0108
2539.00,0.0108
2538.00,0.0108
2537.00,0.0108
2536.00,0.0108
2535.00,0.0107
2534.00,0.0107
2533.00,0.0107
2532.00,0.0107
2531.00,0.0107
2530.00,0.0107
2529.00,0.0107
2528.00,0.0107
2527.00,0.0107
2526.00,0.0106
2525.00,0.0106
2524.00,0.0106
2523.00,0.0106
2522.00,0.0106
2521.00,0.0106
2520.00,0.0106
2519.00,0.0106
2518.00,0.0107
2517.00,0.0107
2516.00,0.0107
2515.00,0.0106
2514.00,0.0106
2513.00,0.0106
2512.00,0.0105
2511.00,0.0105
2510.00,0.0105
2509.00,0.0105
2508.00,0.0104
2507.00,0.0104
2506.00,0.0105
2505.00,0.0105
2504.00,0.0105
2503.00,0.0105
2502.00,0.0105
2501.00,0.0104
2500.00,0.0105
2499.00,0.0105
2498.00,0.0105
2497.00,0.0104
2496.00,0.0104
2495.00,0.0104
2494.00,0.0104
2493.00,0.0104
2492.00,0.0104
2491.00,0.0104
2490.00,0.0103
2489.00,0.0103
2488.00,0.0103
2487.00,0.0103
2486.00,0.0103
2485.00,0.0103
2484.00,0.0103
2483.00,0.0103
2482.00,0.0103
2481.00,0.0102
2480.00,0.0102
2479.00,0.0101
2478.00,0.0101
2477.00,0.0101
2476.00,0.0101
2475.00,0.0102
2474.00,0.0102
2473.00,0.0103
2472.00,0.0103
2471.00,0.0102
2470.00,0.0102
2469.00,0.0102
2468.00,0.0102
2467.00,0.0102
2466.00,0.0102
2465.00,0.0102
2464.00,0.0102
2463.00,0.0102
2462.00,0.0102
2461.00,0.0101
2460.00,0.0102
2459.00,0.0102
2458.00,0.0102
2457.00,0.0102
2456.00,0.0102
2455.00,0.0102
2454.00,0.0102
2453.00,0.0101
2452.00,0.0101
2451.00,0.0101
2450.00,0.0101
2449.00,0.0101
2448.00,0.0101
2447.00,0.0101
2446.00,0.0101
2445.00,0.0100
2444.00,0.0100
2443.00,0.0100
2442.00,0.0099
2441.00,0.0099
2440.00,0.0098
2439.00,0.0098
2438.00,0.0099
2437.00,0.0099
2436.00,0.0099
2435.00,0.0099
2434.00,0.0098
2433.00,0.0098
2432.00,0.0098
2431.00,0.0098
2430.00,0.0098
2429.00,0.0097
2428.00,0.0097
2427.00,0.0096
2426.00,0.0096
2425.00,0.0096
2424.00,0.0096
2423.00,0.0096
2422.00,0.0096
2421.00,0.0096
2420.00,0.0096
2419.00,0.0095
2418.00,0.0095
2417.00,0.0095
2416.00,0.0095
2415.00,0.0095
2414.00,0.0095
2413.00,0.0094
2412.00,0.0094
2411.00,0.0094
2410.00,0.0094
2409.00,0.0093
2408.00,0.0093
2407.00,0.0092
2406.00,0.0092
2405.00,0.0092
2404.00,0.0092
2403.00,0.0092
2402.00,0.0092
2401.00,0.0092
2400.00,0.0092
2399.00,0.0092
2398.00,0.0092
2397.00,0.0092
2396.00,0.0092
2395.00,0.0091
2394.00,0.0091
2393.00,0.0091
2392.00,0.0091
2391.00,0.0091
2390.00,0.0091
2389.00,0.0090
2388.00,0.0090
2387.00,0.0089
2386.00,0.0089
2385.00,0.0088
2384.00,0.0088
2383.00,0.0088
2382.00,0.0088
2381.00,0.0087
2380.00,0.0087
2379.00,0.0087
2378.00,0.0087
2377.00,0.0087
2376.00,0.0087
2375.00,0.0087
2374.00,0.0086
2373.00,0.0086
2372.00,0.0086
2371.00,0.0085
2370.00,0.0085
2369.00,0.0085
2368.00,0.0085
2367.00,0.0085
2366.00,0.0086
2365.00,0.0086
2364.00,0.0086
2363.00,0.0087
2362.00,0.0087
2361.00,0.0087
2360.00,0.0087
2359.00,0.0087
2358.00,0.0086
2357.00,0.0086
2356.00,0.0086
2355.00,0.0086
2354.00,0.0087
2353.00,0.0087
2352.00,0.0087
2351.00,0.0086
2350.00,0.0086
2349.00,0.0087
2348.00,0.0089
2347.00,0.0091
2346.00,0.0091
2345.00,0.0091
2344.00,0.0090
2343.00,0.0089
2342.00,0.0088
2341.00,0.0089
2340.00,0.0089
2339.00,0.0090
2338.00,0.0090
2337.00,0.0090
2336.00,0.0090
2335.00,0.0090
2334.00,0.0090
2333.00,0.0090
2332.00,0.0090
2331.00,0.0090
2330.00,0.0090
2329.00,0.0092
2328.00,0.0095
2327.00,0.0099
2326.00,0.0102
2325.00,0.0103
2324.00,0.0103
2323.00,0.0101
2322.00,0.0098
2321.00,0.0097
2320.00,0.0096
2319.00,0.0095
2318.00,0.0094
2317.00,0.0093
2316.00,0.0093
2315.00,0.0093
2314.00,0.0093
2313.00,0.0093
2312.00,0.0092
2311.00,0.0092
2310.00,0.0092
2309.00,0.0092
2308.00,0.0092
2307.00,0.0092
2306.00,0.0092
2305.00,0.0093
2304.00,0.0093
2303.00,0.0093
2302.00,0.0093
2301.00,0.0093
2300.00,0.0093
2299.00,0.0093
2298.00,0.0094
2297.00,0.0094
2296.00,0.0095
2295.00,0.0095
2294.00,0.0096
2293.00,0.0097
2292.00,0.0098
2291.00,0.0099
2290.00,0.0099
2289.00,0.0100
2288.00,0.0100
2287.00,0.0100
2286.00,0.0099
2285.00,0.0099
2284.00,0.0098
2283.00,0.0098
2282.00,0.0098
2281.00,0.0098
2280.00,0.0098
2279.00,0.0097
2278.00,0.0096
2277.00,0.0095
2276.00,0.0095
2275.00,0.0094
2274.00,0.0093
2273.00,0.0093
2272.00,0.0093
2271.00,0.0092
2270.00,0.0092
2269.00,0.0091
2268.00,0.0091
2267.00,0.0090
2266.00,0.0089
2265.00,0.0089
2264.00,0.0089
2263.00,0.0089
2262.00,0.0089
2261.00,0.0090
2260.00,0.0090
2259.00,0.0090
2258.00,0.0089
2257.00,0.0088
2256.00,0.0088
2255.00,0.0087
2254.00,0.0087
2253.00,0.0088
2252.00,0.0088
2251.00,0.0088
2250.00,0.0088
2249.00,0.0087
2248.00,0.0087
2247.00,0.0087
2246.00,0.0086
2245.00,0.0086
2244.00,0.0085
2243.00,0.0085
2242.00,0.0085
2241.00,0.0086
2240.00,0.0087
2239.00,0.0088
2238.00,0.0087
2237.00,0.0087
2236.00,0.0087
2235.00,0.0087
2234.00,0.0088
2233.00,0.0088
2232.00,0.0088
2231.00,0.0088
2230.00,0.0087
2229.00,0.0087
2228.00,0.0087
2227.00,0.0087
2226.00,0.0087
2225.00,0.0087
2224.00,0.0087
2223.00,0.0087
2222.00,0.0087
2221.00,0.0087
2220.00,0.0087
2219.00,0.0087
2218.00,0.0086
2217.00,0.0085
2216.00,0.0084
2215.00,0.0084
2214.00,0.0084
2213.00,0.0084
2212.00,0.0084
2211.00,0.0084
2210.00,0.0084
2209.00,0.0084
2208.00,0.0084
2207.00,0.0085
2206.00,0.0085
2205.00,0.0085
2204.00,0.0085
2203.00,0.0085
2202.00,0.0085
2201.00,0.0084
2200.00,0.0084
2199.00,0.0084
2198.00,0.0085
2197.00,0.0087
2196.00,0.0089
2195.00,0.0089
2194.00,0.0088
2193.00,0.0087
2192.00,0.0087
2191.00,0.0088
2190.00,0.0088
2189.00,0.0089
2188.00,0.0090
2187.00,0.0090
2186.00,0.0089
2185.00,0.0086
2184.00,0.0084
2183.00,0.0081
2182.00,0.0078
2181.00,0.0078
2180.00,0.0078
2179.00,0.0078
2178.00,0.0077
2177.00,0.0077
2176.00,0.0077
2175.00,0.0078
2174.00,0.0080
2173.00,0.0082
2172.00,0.0085
2171.00,0.0088
2170.00,0.0090
2169.00,0.0093
2168.00,0.0094
2167.00,0.0093
2166.00,0.0092
2165.00,0.0092
2164.00,0.0094
2163.00,0.0095
2162.00,0.0092
2161.00,0.0083
2160.00,0.0069
2159.00,0.0057
2158.00,0.0050
2157.00,0.0049
2156.00,0.0052
2155.00,0.0056
2154.00,0.0059
2153.00,0.0061
2152.00,0.0063
2151.00,0.0064
2150.00,0.0063
2149.00,0.0062
2148.00,0.0062
2147.00,0.0061
2146.00,0.0061
2145.00,0.0061
2144.00,0.0061
2143.00,0.0062
2142.00,0.0063
2141.00,0.0065
2140.00,0.0067
2139.00,0.0067
2138.00,0.0066
2137.00,0.0063
2136.00,0.0061
2135.00,0.0060
2134.00,0.0059
2133.00,0.0060
2132.00,0.0062
2131.00,0.0064
2130.00,0.0065
2129.00,0.0067
2128.00,0.0069
2127.00,0.0070
2126.00,0.0071
2125.00,0.0072
2124.00,0.0073
2123.00,0.0073
2122.00,0.0073
2121.00,0.0074
2120.00,0.0076
2119.00,0.0077
2118.00,0.0078
2117.00,0.0080
2116.00,0.0081
2115.00,0.0081
2114.00,0.0080
2113.00,0.0080
2112.00,0.0080
2111.00,0.0080
2110.00,0.0080
2109.00,0.0080
2108.00,0.0080
2107.00,0.0080
2106.00,0.0079
2105.00,0.0079
2104.00,0.0079
2103.00,0.0079
2102.00,0.0079
2101.00,0.0079
2100.00,0.0078
2099.00,0.0078
2098.00,0.0076
2097.00,0.0074
2096.00,0.0073
2095.00,0.0072
2094.00,0.0073
2093.00,0.0074
2092.00,0.0076
2091.00,0.0077
2090.00,0.0078
2089.00,0.0079
2088.00,0.0080
2087.00,0.0080
2086.00,0.0080
2085.00,0.0080
2084.00,0.0080
2083.00,0.0079
2082.00,0.0079
2081.00,0.0080
2080.00,0.0080
2079.00,0.0080
2078.00,0.0080
2077.00,0.0080
2076.00,0.0080
2075.00,0.0080
2074.00,0.0079
2073.00,0.0079
2072.00,0.0079
2071.00,0.0078
2070.00,0.0078
2069.00,0.0077
2068.00,0.0076
2067.00,0.0076
2066.00,0.0076
2065.00,0.0076
2064.00,0.0077
2063.00,0.0076
2062.00,0.0076
2061.00,0.0075
2060.00,0.0076
2059.00,0.0077
2058.00,0.0078
2057.00,0.0078
2056.00,0.0078
2055.00,0.0078
2054.00,0.0081
2053.00,0.0085
2052.00,0.0089
2051.00,0.0090
2050.00,0.0087
2049.00,0.0083
2048.00,0.0079
2047.00,0.0076
2046.00,0.0075
2045.00,0.0074
2044.00,0.0074
2043.00,0.0075
2042.00,0.0075
2041.00,0.0075
2040.00,0.0077
2039.00,0.0078
2038.00,0.0078
2037.00,0.0078
2036.00,0.0076
2035.00,0.0074
2034.00,0.0070
2033.00,0.0068
2032.00,0.0067
2031.00,0.0067
2030.00,0.0067
2029.00,0.0067
2028.00,0.0067
2027.00,0.0067
2026.00,0.0066
2025.00,0.0066
2024.00,0.0067
2023.00,0.0067
2022.00,0.0067
2021.00,0.0066
2020.00,0.0064
2019.00,0.0063
2018.00,0.0063
2017.00,0.0063
2016.00,0.0064
2015.00,0.0064
2014.00,0.0064
2013.00,0.0064
2012.00,0.0065
2011.00,0.0066
2010.00,0.0065
2009.00,0.0063
2008.00,0.0061
2007.00,0.0058
2006.00,0.0056
2005.00,0.0056
2004.00,0.0057
2003.00,0.0059
2002.00,0.0059
2001.00,0.0061
2000.00,0.0063
1999.00,0.0064
1998.00,0.0065
1997.00,0.0066
1996.00,0.0067
1995.00,0.0068
1994.00,0.0067
1993.00,0.0067
1992.00,0.0067
1991.00,0.0068
1990.00,0.0068
1989.00,0.0069
1988.00,0.0071
1987.00,0.0073
1986.00,0.0074
1985.00,0.0075
1984.00,0.0077
1983.00,0.0080
1982.00,0.0083
1981.00,0.0084
1980.00,0.0081
1979.00,0.0075
1978.00,0.0067
1977.00,0.0062
1976.00,0.0060
1975.00,0.0059
1974.00,0.0058
1973.00,0.0058
1972.00,0.0058
1971.00,0.0058
1970.00,0.0057
1969.00,0.0056
1968.00,0.0055
1967.00,0.0056
1966.00,0.0056
1965.00,0.0056
1964.00,0.0056
1963.00,0.0055
1962.00,0.0054
1961.00,0.0053
1960.00,0.0053
1959.00,0.0052
1958.00,0.0051
1957.00,0.0051
1956.00,0.0053
1955.00,0.0054
1954.00,0.0055
1953.00,0.0056
1952.00,0.0057
1951.00,0.0058
1950.00,0.0058
1949.00,0.0058
1948.00,0.0058
1947.00,0.0058
1946.00,0.0056
1945.00,0.0055
1944.00,0.0055
1943.00,0.0055
1942.00,0.0056
1941.00,0.0056
1940.00,0.0057
1939.00,0.0057
1938.00,0.0057
1937.00,0.0057
1936.00,0.0058
1935.00,0.0058
1934.00,0.0057
1933.00,0.0056
1932.00,0.0056
1931.00,0.0057
1930.00,0.0057
1929.00,0.0057
1928.00,0.0057
1927.00,0.0056
1926.00,0.0055
1925.00,0.0054
1924.00,0.0055
1923.00,0.0056
1922.00,0.0057
1921.00,0.0059
1920.00,0.0060
1919.00,0.0060
1918.00,0.0060
1917.00,0.0060
1916.00,0.0060
1915.00,0.0060
1914.00,0.0060
1913.00,0.0060
1912.00,0.0060
1911.00,0.0060
1910.00,0.0059
1909.00,0.0059
1908.00,0.0059
1907.00,0.0060
1906.00,0.0060
1905.00,0.0061
1904.00,0.0061
1903.00,0.0061
1902.00,0.0060
1901.00,0.0060
1900.00,0.0060
1899.00,0.0060
1898.00,0.0060
1897.00,0.0059
1896.00,0.0059
1895.00,0.0059
1894.00,0.0059
1893.00,0.0059
1892.00,0.0058
1891.00,0.0058
1890.00,0.0057
1889.00,0.0058
1888.00,0.0059
1887.00,0.0060
1886.00,0.0060
1885.00,0.0060
1884.00,0.0060
1883.00,0.0060
1882.00,0.0060
1881.00,0.0059
1880.00,0.0059
1879.00,0.0059
1878.00,0.0059
1877.00,0.0059
1876.00,0.0059
1875.00,0.0059
1874.00,0.0058
1873.00,0.0057
1872.00,0.0056
1871.00,0.0056
1870.00,0.0055
1869.00,0.0055
1868.00,0.0056
1867.00,0.0058
1866.00,0.0059
1865.00,0.0059
1864.00,0.0060
1863.00,0.0059
1862.00,0.0059
1861.00,0.0058
1860.00,0.0058
1859.00,0.0058
1858.00,0.0057
1857.00,0.0057
1856.00,0.0058
1855.00,0.0058
1854.00,0.0058
1853.00,0.0058
1852.00,0.0058
1851.00,0.0057
1850.00,0.0057
1849.00,0.0056
1848.00,0.0056
1847.00,0.0055
1846.00,0.0056
1845.00,0.0057
1844.00,0.0059
1843.00,0.0061
1842.00,0.0061
1841.00,0.0060
1840.00,0.0059
1839.00,0.0058
1838.00,0.0057
1837.00,0.0057
1836.00,0.0057
1835.00,0.0057
1834.00,0.0057
1833.00,0.0056
1832.00,0.0054
1831.00,0.0052
1830.00,0.0052
1829.00,0.0054
1828.00,0.0055
1827.00,0.0055
1826.00,0.0054
1825.00,0.0055
1824.00,0.0056
1823.00,0.0058
1822.00,0.0058
1821.00,0.0057
1820.00,0.0056
1819.00,0.0055
1818.00,0.0054
1817.00,0.0054
1816.00,0.0054
1815.00,0.0054
1814.00,0.0055
1813.00,0.0055
1812.00,0.0054
1811.00,0.0055
1810.00,0.0056
1809.00,0.0057
1808.00,0.0058
1807.00,0.0059
1806.00,0.0059
1805.00,0.0058
1804.00,0.0057
1803.00,0.0056
1802.00,0.0055
1801.00,0.0056
1800.00,0.0057
1799.00,0.0058
1798.00,0.0059
1797.00,0.0059
1796.00,0.0059
1795.00,0.0058
1794.00,0.0058
1793.00,0.0059
1792.00,0.0061
1791.00,0.0062
1790.00,0.0063
1789.00,0.0062
1788.00,0.0062
1787.00,0.0061
1786.00,0.0061
1785.00,0.0061
1784.00,0.0061
1783.00,0.0060
1782.00,0.0059
1781.00,0.0059
1780.00,0.0060
1779.00,0.0061
1778.00,0.0061
1777.00,0.0061
1776.00,0.0060
1775.00,0.0061
1774.00,0.0061
1773.00,0.0063
1772.00,0.0064
1771.00,0.0064
1770.00,0.0063
1769.00,0.0064
1768.00,0.0065
1767.00,0.0066
1766.00,0.0065
1765.00,0.0064
1764.00,0.0063
1763.00,0.0063
1762.00,0.0063
1761.00,0.0064
1760.00,0.0066
1759.00,0.0066
1758.00,0.0066
1757.00,0.0067
1756.00,0.0070
1755.00,0.0072
1754.00,0.0073
1753.00,0.0075
1752.00,0.0078
1751.00,0.0079
1750.00,0.0079
1749.00,0.0078
1748.00,0.0079
1747.00,0.0080
1746.00,0.0081
1745.00,0.0081
1744.00,0.0082
1743.00,0.0082
1742.00,0.0082
1741.00,0.0083
1740.00,0.0085
1739.00,0.0086
1738.00,0.0086
1737.00,0.0087
1736.00,0.0090
1735.00,0.0094
1734.00,0.0097
1733.00,0.0098
1732.00,0.0095
1731.00,0.0090
1730.00,0.0086
1729.00,0.0085
1728.00,0.0087
1727.00,0.0088
1726.00,0.0088
1725.00,0.0089
1724.00,0.0090
1723.00,0.0091
1722.00,0.0091
1721.00,0.0091
1720.00,0.0094
1719.00,0.0099
1718.00,0.0106
1717.00,0.0113
1716.00,0.0116
1715.00,0.0118
1714.00,0.0119
1713.00,0.0123
1712.00,0.0129
1711.00,0.0136
1710.00,0.0143
1709.00,0.0151
1708.00,0.0161
1707.00,0.0174
1706.00,0.0191
1705.00,0.0212
1704.00,0.0235
1703.00,0.0257
1702.00,0.0279
1701.00,0.0304
1700.00,0.0330
1699.00,0.0353
1698.00,0.0369
1697.00,0.0380
1696.00,0.0384
1695.00,0.0386
1694.00,0.0386
1693.00,0.0388
1692.00,0.0392
1691.00,0.0398
1690.00,0.0405
1689.00,0.0414
1688.00,0.0426
1687.00,0.0441
1686.00,0.0456
1685.00,0.0467
1684.00,0.0472
1683.00,0.0477
1682.00,0.0485
1681.00,0.0497
1680.00,0.0512
1679.00,0.0527
1678.00,0.0542
1677.00,0.0556
1676.00,0.0570
1675.00,0.0583
1674.00,0.0595
1673.00,0.0609
1672.00,0.0625
1671.00,0.0639
1670.00,0.0652
1669.00,0.0663
1668.00,0.0678
1667.00,0.0695
1666.00,0.0713
1665.00,0.0731
1664.00,0.0749
1663.00,0.0764
1662.00,0.0778
1661.00,0.0793
1660.00,0.0811
1659.00,0.0830
1658.00,0.0848
1657.00,0.0868
1656.00,0.0893
1655.00,0.0920
1654.00,0.0935
1653.00,0.0932
1652.00,0.0932
1651.00,0.0941
1650.00,0.0954
1649.00,0.0971
1648.00,0.0987
1647.00,0.0995
1646.00,0.0998
1645.00,0.1004
1644.00,0.1017
1643.00,0.1032
1642.00,0.1048
1641.00,0.1063
1640.00,0.1079
1639.00,0.1098
1638.00,0.1118
1637.00,0.1133
1636.00,0.1140
1635.00,0.1142
1634.00,0.1151
1633.00,0.1168
1632.00,0.1192
1631.00,0.1216
1630.00,0.1237
1629.00,0.1252
1628.00,0.1264
1627.00,0.1277
1626.00,0.1291
1625.00,0.1302
1624.00,0.1306
1623.00,0.1299
1622.00,0.1289
1621.00,0.1284
1620.00,0.1286
1619.00,0.1288
1618.00,0.1274
1617.00,0.1236
1616.00,0.1184
1615.00,0.1142
1614.00,0.1112
1613.00,0.1088
1612.00,0.1063
1611.00,0.1032
1610.00,0.0995
1609.00,0.0956
1608.00,0.0917
1607.00,0.0880
1606.00,0.0846
1605.00,0.0814
1604.00,0.0783
1603.00,0.0753
1602.00,0.0725
1601.00,0.0700
1600.00,0.0678
1599.00,0.0658
1598.00,0.0640
1597.00,0.0623
1596.00,0.0607
1595.00,0.0590
1594.00,0.0575
1593.00,0.0561
1592.00,0.0548
1591.00,0.0536
1590.00,0.0525
1589.00,0.0516
1588.00,0.0507
1587.00,0.0500
1586.00,0.0495
1585.00,0.0491
1584.00,0.0489
1583.00,0.0488
1582.00,0.0487
1581.00,0.0488
1580.00,0.0491
1579.00,0.0498
1578.00,0.0507
1577.00,0.0515
1576.00,0.0518
1575.00,0.0518
1574.00,0.0520
1573.00,0.0525
1572.00,0.0533
1571.00,0.0541
1570.00,0.0548
1569.00,0.0557
1568.00,0.0568
1567.00,0.0580
1566.00,0.0593
1565.00,0.0607
1564.00,0.0622
1563.00,0.0638
1562.00,0.0658
1561.00,0.0678
1560.00,0.0693
1559.00,0.0698
1558.00,0.0701
1557.00,0.0713
1556.00,0.0730
1555.00,0.0746
1554.00,0.0761
1553.00,0.0776
1552.00,0.0789
1551.00,0.0801
1550.00,0.0814
1549.00,0.0828
1548.00,0.0845
1547.00,0.0862
1546.00,0.0878
1545.00,0.0892
1544.00,0.0906
1543.00,0.0921
1542.00,0.0939
1541.00,0.0953
1540.00,0.0956
1539.00,0.0954
1538.00,0.0960
1537.00,0.0971
1536.00,0.0986
1535.00,0.1000
1534.00,0.1007
1533.00,0.1009
1532.00,0.1014
1531.00,0.1026
1530.00,0.1041
1529.00,0.1055
1528.00,0.1065
1527.00,0.1073
1526.00,0.1080
1525.00,0.1089
1524.00,0.1102
1523.00,0.1115
1522.00,0.1123
1521.00,0.1123
1520.00,0.1125
1519.00,0.1133
1518.00,0.1144
1517.00,0.1151
1516.00,0.1152
1515.00,0.1154
1514.00,0.1158
1513.00,0.1157
1512.00,0.1149
1511.00,0.1138
1510.00,0.1132
1509.00,0.1127
1508.00,0.1110
1507.00,0.1066
1506.00,0.1013
1505.00,0.0983
1504.00,0.0968
1503.00,0.0958
1502.00,0.0948
1501.00,0.0933
1500.00,0.0913
1499.00,0.0891
1498.00,0.0868
1497.00,0.0840
1496.00,0.0808
1495.00,0.0780
1494.00,0.0760
1493.00,0.0744
1492.00,0.0726
1491.00,0.0704
1490.00,0.0676
1489.00,0.0648
1488.00,0.0625
1487.00,0.0609
1486.00,0.0596
1485.00,0.0584
1484.00,0.0574
1483.00,0.0564
1482.00,0.0553
1481.00,0.0542
1480.00,0.0533
1479.00,0.0527
1478.00,0.0522
1477.00,0.0516
1476.00,0.0513
1475.00,0.0513
1474.00,0.0515
1473.00,0.0515
1472.00,0.0512
1471.00,0.0510
1470.00,0.0511
1469.00,0.0514
1468.00,0.0517
1467.00,0.0519
1466.00,0.0520
1465.00,0.0519
1464.00,0.0519
1463.00,0.0522
1462.00,0.0526
1461.00,0.0531
1460.00,0.0538
1459.00,0.0546
1458.00,0.0555
1457.00,0.0564
1456.00,0.0572
1455.00,0.0579
1454.00,0.0588
1453.00,0.0598
1452.00,0.0608
1451.00,0.0617
1450.00,0.0624
1449.00,0.0628
1448.00,0.0629
1447.00,0.0628
1446.00,0.0628
1445.00,0.0628
1444.00,0.0627
1443.00,0.0624
1442.00,0.0619
1441.00,0.0615
1440.00,0.0611
1439.00,0.0606
1438.00,0.0597
1437.00,0.0582
1436.00,0.0564
1435.00,0.0550
1434.00,0.0541
1433.00,0.0533
1432.00,0.0524
1431.00,0.0514
1430.00,0.0503
1429.00,0.0496
1428.00,0.0491
1427.00,0.0488
1426.00,0.0486
1425.00,0.0485
1424.00,0.0484
1423.00,0.0485
1422.00,0.0488
1421.00,0.0492
1420.00,0.0494
1419.00,0.0493
1418.00,0.0493
1417.00,0.0495
1416.00,0.0499
1415.00,0.0504
1414.00,0.0507
1413.00,0.0511
1412.00,0.0513
1411.00,0.0514
1410.00,0.0515
1409.00,0.0516
1408.00,0.0516
1407.00,0.0516
1406.00,0.0514
1405.00,0.0512
1404.00,0.0510
1403.00,0.0509
1402.00,0.0508
1401.00,0.0507
1400.00,0.0505
1399.00,0.0501
1398.00,0.0499
1397.00,0.0498
1396.00,0.0498
1395.00,0.0496
1394.00,0.0495
1393.00,0.0496
1392.00,0.0498
1391.00,0.0499
1390.00,0.0500
1389.00,0.0500
1388.00,0.0498
1387.00,0.0496
1386.00,0.0494
1385.00,0.0492
1384.00,0.0491
1383.00,0.0490
1382.00,0.0489
1381.00,0.0487
1380.00,0.0486
1379.00,0.0484
1378.00,0.0483
1377.00,0.0481
1376.00,0.0479
1375.00,0.0477
1374.00,0.0474
1373.00,0.0473
1372.00,0.0473
1371.00,0.0474
1370.00,0.0474
1369.00,0.0472
1368.00,0.0469
1367.00,0.0465
1366.00,0.0461
1365.00,0.0455
1364.00,0.0447
1363.00,0.0438
1362.00,0.0430
1361.00,0.0425
1360.00,0.0421
1359.00,0.0419
1358.00,0.0416
1357.00,0.0414
1356.00,0.0411
1355.00,0.0410
1354.00,0.0408
1353.00,0.0407
1352.00,0.0407
1351.00,0.0407
1350.00,0.0407
1349.00,0.0407
1348.00,0.0408
1347.00,0.0409
1346.00,0.0410
1345.00,0.0411
1344.00,0.0411
1343.00,0.0411
1342.00,0.0411
1341.00,0.0411
1340.00,0.0410
1339.00,0.0410
1338.00,0.0410
1337.00,0.0410
1336.00,0.0411
1335.00,0.0410
1334.00,0.0410
1333.00,0.0408
1332.00,0.0406
1331.00,0.0404
1330.00,0.0402
1329.00,0.0400
1328.00,0.0397
1327.00,0.0395
1326.00,0.0393
1325.00,0.0391
1324.00,0.0389
1323.00,0.0388
1322.00,0.0387
1321.00,0.0386
1320.00,0.0385
1319.00,0.0385
1318.00,0.0384
1317.00,0.0384
1316.00,0.0385
1315.00,0.0385
1314.00,0.0386
1313.00,0.0386
1312.00,0.0386
1311.00,0.0387
1310.00,0.0388
1309.00,0.0388
1308.00,0.0388
1307.00,0.0389
1306.00,0.0389
1305.00,0.0389
1304.00,0.0389
1303.00,0.0389
1302.00,0.0388
1301.00,0.0388
1300.00,0.0388
1299.00,0.0388
1298.00,0.0388
1297.00,0.0388
1296.00,0.0388
1295.00,0.0388
1294.00,0.0389
1293.00,0.0390
1292.00,0.0391
1291.00,0.0392
1290.00,0.0394
1289.00,0.0396
1288.00,0.0398
1287.00,0.0400
1286.00,0.0402
1285.00,0.0404
1284.00,0.0406
1283.00,0.0409
1282.00,0.0411
1281.00,0.0414
1280.00,0.0417
1279.00,0.0421
1278.00,0.0426
1277.00,0.0430
1276.00,0.0435
1275.00,0.0440
1274.00,0.0446
1273.00,0.0453
1272.00,0.0460
1271.00,0.0467
1270.00,0.0474
1269.00,0.0481
1268.00,0.0488
1267.00,0.0495
1266.00,0.0501
1265.00,0.0507
1264.00,0.0512
1263.00,0.0516
1262.00,0.0519
1261.00,0.0521
1260.00,0.0522
1259.00,0.0523
1258.00,0.0524
1257.00,0.0524
1256.00,0.0525
1255.00,0.0526
1254.00,0.0527
1253.00,0.0529
1252.00,0.0531
1251.00,0.0533
1250.00,0.0536
1249.00,0.0539
1248.00,0.0543
1247.00,0.0546
1246.00,0.0550
1245.00,0.0554
1244.00,0.0558
1243.00,0.0562
1242.00,0.0567
1241.00,0.0571
1240.00,0.0576
1239.00,0.0581
1238.00,0.0586
1237.00,0.0590
1236.00,0.0595
1235.00,0.0599
1234.00,0.0603
1233.00,0.0606
1232.00,0.0608
1231.00,0.0609
1230.00,0.0608
1229.00,0.0606
1228.00,0.0603
1227.00,0.0599
1226.00,0.0594
1225.00,0.0588
1224.00,0.0581
1223.00,0.0574
1222.00,0.0567
1221.00,0.0559
1220.00,0.0550
1219.00,0.0542
1218.00,0.0533
1217.00,0.0524
1216.00,0.0514
1215.00,0.0504
1214.00,0.0494
1213.00,0.0484
1212.00,0.0473
1211.00,0.0463
1210.00,0.0452
1209.00,0.0442
1208.00,0.0432
1207.00,0.0423
1206.00,0.0413
1205.00,0.0404
1204.00,0.0396
1203.00,0.0388
1202.00,0.0380
1201.00,0.0373
1200.00,0.0366
1199.00,0.0360
1198.00,0.0355
1197.00,0.0351
1196.00,0.0347
1195.00,0.0343
1194.00,0.0340
1193.00,0.0337
1192.00,0.0335
1191.00,0.0333
1190.00,0.0332
1189.00,0.0330
1188.00,0.0329
1187.00,0.0328
1186.00,0.0328
1185.00,0.0328
1184.00,0.0329
1183.00,0.0330
1182.00,0.0332
1181.00,0.0334
1180.00,0.0337
1179.00,0.0341
1178.00,0.0345
1177.00,0.0350
1176.00,0.0356
1175.00,0.0361
1174.00,0.0367
1173.00,0.0372
1172.00,0.0377
1171.00,0.0380
1170.00,0.0382
1169.00,0.0383
1168.00,0.0384
1167.00,0.0383
1166.00,0.0383
1165.00,0.0382
1164.00,0.0380
1163.00,0.0379
1162.00,0.0377
1161.00,0.0375
1160.00,0.0372
1159.00,0.0369
1158.00,0.0366
1157.00,0.0362
1156.00,0.0358
1155.00,0.0354
1154.00,0.0350
1153.00,0.0345
1152.00,0.0341
1151.00,0.0336
1150.00,0.0332
1149.00,0.0327
1148.00,0.0323
1147.00,0.0319
1146.00,0.0316
1145.00,0.0312
1144.00,0.0309
1143.00,0.0306
1142.00,0.0304
1141.00,0.0301
1140.00,0.0300
1139.00,0.0298
1138.00,0.0297
1137.00,0.0295
1136.00,0.0295
1135.00,0.0294
1134.00,0.0293
1133.00,0.0293
1132.00,0.0293
1131.00,0.0293
1130.00,0.0293
1129.00,0.0293
1128.00,0.0293
1127.00,0.0293
1126.00,0.0293
1125.00,0.0294
1124.00,0.0294
1123.00,0.0294
1122.00,0.0294
1121.00,0.0294
1120.00,0.0294
1119.00,0.0294
1118.00,0.0294
1117.00,0.0294
1116.00,0.0294
1115.00,0.0293
1114.00,0.0293
1113.00,0.0292
1112.00,0.0292
1111.00,0.0293
1110.00,0.0294
1109.00,0.0295
1108.00,0.0296
1107.00,0.0297
1106.00,0.0298
1105.00,0.0298
1104.00,0.0299
1103.00,0.0299
1102.00,0.0299
1101.00,0.0299
1100.00,0.0298
1099.00,0.0297
1098.00,0.0296
1097.00,0.0295
1096.00,0.0295
1095.00,0.0295
1094.00,0.0296
1093.00,0.0297
1092.00,0.0298
1091.00,0.0299
1090.00,0.0301
1089.00,0.0304
1088.00,0.0307
1087.00,0.0309
1086.00,0.0312
1085.00,0.0315
1084.00,0.0317
1083.00,0.0320
1082.00,0.0323
1081.00,0.0326
1080.00,0.0329
1079.00,0.0332
1078.00,0.0334
1077.00,0.0336
1076.00,0.0338
1075.00,0.0339
1074.00,0.0340
1073.00,0.0341
1072.00,0.0341
1071.00,0.0342
1070.00,0.0343
1069.00,0.0343
1068.00,0.0343
1067.00,0.0343
1066.00,0.0342
1065.00,0.0341
1064.00,0.0340
1063.00,0.0339
1062.00,0.0338
1061.00,0.0336
1060.00,0.0334
1059.00,0.0332
1058.00,0.0330
1057.00,0.0328
1056.00,0.0327
1055.00,0.0325
1054.00,0.0323
1053.00,0.0321
1052.00,0.0319
1051.00,0.0317
1050.00,0.0314
1049.00,0.0312
1048.00,0.0309
1047.00,0.0306
1046.00,0.0304
1045.00,0.0301
1044.00,0.0299
1043.00,0.0297
1042.00,0.0294
1041.00,0.0292
1040.00,0.0289
1039.00,0.0287
1038.00,0.0284
1037.00,0.0281
1036.00,0.0279
1035.00,0.0276
1034.00,0.0274
1033.00,0.0273
1032.00,0.0271
1031.00,0.0270
1030.00,0.0269
1029.00,0.0268
1028.00,0.0268
1027.00,0.0267
1026.00,0.0267
1025.00,0.0266
1024.00,0.0267
1023.00,0.0267
1022.00,0.0268
1021.00,0.0270
1020.00,0.0271
1019.00,0.0273
1018.00,0.0275
1017.00,0.0277
1016.00,0.0278
1015.00,0.0279
1014.00,0.0279
1013.00,0.0278
1012.00,0.0277
1011.00,0.0276
1010.00,0.0274
1009.00,0.0272
1008.00,0.0270
1007.00,0.0269
1006.00,0.0268
1005.00,0.0268
1004.00,0.0268
1003.00,0.0269
1002.00,0.0269
1001.00,0.0269
1000.00,0.0269
999.00,0.0267
998.00,0.0265
997.00,0.0262
996.00,0.0259
995.00,0.0255
994.00,0.0251
993.00,0.0247
992.00,0.0242
991.00,0.0238
990.00,0.0234
989.00,0.0230
988.00,0.0227
987.00,0.0225
986.00,0.0224
985.00,0.0224
984.00,0.0225
983.00,0.0226
982.00,0.0228
981.00,0.0231
980.00,0.0233
979.00,0.0236
978.00,0.0238
977.00,0.0240
976.00,0.0241
975.00,0.0241
974.00,0.0240
973.00,0.0238
972.00,0.0236
971.00,0.0233
970.00,0.0230
969.00,0.0227
968.00,0.0225
967.00,0.0222
966.00,0.0220
965.00,0.0218
964.00,0.0217
963.00,0.0216
962.00,0.0215
961.00,0.0215
960.00,0.0214
959.00,0.0214
958.00,0.0213
957.00,0.0213
956.00,0.0213
955.00,0.0213
954.00,0.0212
953.00,0.0212
952.00,0.0211
951.00,0.0210
950.00,0.0209
949.00,0.0209
948.00,0.0209
947.00,0.0209
946.00,0.0209
945.00,0.0209
944.00,0.0210
943.00,0.0210
942.00,0.0210
941.00,0.0210
940.00,0.0210
939.00,0.0210
938.00,0.0211
937.00,0.0212
936.00,0.0213
935.00,0.0214
934.00,0.0214
933.00,0.0215
932.00,0.0215
931.00,0.0216
930.00,0.0216
929.00,0.0216
928.00,0.0215
927.00,0.0214
926.00,0.0213
925.00,0.0211
924.00,0.0210
923.00,0.0208
922.00,0.0206
921.00,0.0204
920.00,0.0202
919.00,0.0200
918.00,0.0198
917.00,0.0196
916.00,0.0195
915.00,0.0193
914.00,0.0192
913.00,0.0191
912.00,0.0190
911.00,0.0188
910.00,0.0187
909.00,0.0186
908.00,0.0186
907.00,0.0186
906.00,0.0185
905.00,0.0185
904.00,0.0185
903.00,0.0185
902.00,0.0184
901.00,0.0184
900.00,0.0184
899.00,0.0184
898.00,0.0184
897.00,0.0184
896.00,0.0184
895.00,0.0183
894.00,0.0183
893.00,0.0183
892.00,0.0183
891.00,0.0183
890.00,0.0183
889.00,0.0183
888.00,0.0183
887.00,0.0184
886.00,0.0184
885.00,0.0184
884.00,0.0185
883.00,0.0185
882.00,0.0185
881.00,0.0186
880.00,0.0186
879.00,0.0187
878.00,0.0188
877.00,0.0189
876.00,0.0189
875.00,0.0189
874.00,0.0189
873.00,0.0188
872.00,0.0188
871.00,0.0188
870.00,0.0188
869.00,0.0189
868.00,0.0189
867.00,0.0190
866.00,0.0191
865.00,0.0193
864.00,0.0194
863.00,0.0195
862.00,0.0197
861.00,0.0199
860.00,0.0201
859.00,0.0204
858.00,0.0207
857.00,0.0210
856.00,0.0212
855.00,0.0215
854.00,0.0217
853.00,0.0219
852.00,0.0221
851.00,0.0222
850.00,0.0223
849.00,0.0223
848.00,0.0223
847.00,0.0222
846.00,0.0222
845.00,0.0221
844.00,0.0222
843.00,0.0223
842.00,0.0224
841.00,0.0225
840.00,0.0227
839.00,0.0229
838.00,0.0231
837.00,0.0234
836.00,0.0237
835.00,0.0240
834.00,0.0243
833.00,0.0245
832.00,0.0247
831.00,0.0250
830.00,0.0251
829.00,0.0253
828.00,0.0255
827.00,0.0257
826.00,0.0258
825.00,0.0259
824.00,0.0259
823.00,0.0259
822.00,0.0257
821.00,0.0257
820.00,0.0257
819.00,0.0257
818.00,0.0258
817.00,0.0259
816.00,0.0260
815.00,0.0262
814.00,0.0263
813.00,0.0265
812.00,0.0267
811.00,0.0269
810.00,0.0271
809.00,0.0273
808.00,0.0274
807.00,0.0276
806.00,0.0277
805.00,0.0278
804.00,0.0280
803.00,0.0281
802.00,0.0282
801.00,0.0284
800.00,0.0285
799.00,0.0286
798.00,0.0287
797.00,0.0289
796.00,0.0291
795.00,0.0293
794.00,0.0294
793.00,0.0296
792.00,0.0298
791.00,0.0300
790.00,0.0301
789.00,0.0303
788.00,0.0306
787.00,0.0308
786.00,0.0310
785.00,0.0312
784.00,0.0314
783.00,0.0317
782.00,0.0319
781.00,0.0322
780.00,0.0325
779.00,0.0327
778.00,0.0330
777.00,0.0332
776.00,0.0335
775.00,0.0338
774.00,0.0340
773.00,0.0343
772.00,0.0346
771.00,0.0349
770.00,0.0352
769.00,0.0355
768.00,0.0358
767.00,0.0361
766.00,0.0363
765.00,0.0365
764.00,0.0366
763.00,0.0367
762.00,0.0369
761.00,0.0371
760.00,0.0374
759.00,0.0376
758.00,0.0379
757.00,0.0381
756.00,0.0384
755.00,0.0387
754.00,0.0390
753.00,0.0394
752.00,0.0397
751.00,0.0401
750.00,0.0404
749.00,0.0408
748.00,0.0412
747.00,0.0417
746.00,0.0421
745.00,0.0426
744.00,0.0431
743.00,0.0435
742.00,0.0440
741.00,0.0445
740.00,0.0450
739.00,0.0455
738.00,0.0461
737.00,0.0466
736.00,0.0472
735.00,0.0478
734.00,0.0484
733.00,0.0490
732.00,0.0497
731.00,0.0503
730.00,0.0509
729.00,0.0515
728.00,0.0522
727.00,0.0528
726.00,0.0534
725.00,0.0540
724.00,0.0546
723.00,0.0552
722.00,0.0557
721.00,0.0563
720.00,0.0568
719.00,0.0573
718.00,0.0577
717.00,0.0581
716.00,0.0585
715.00,0.0588
714.00,0.0592
713.00,0.0597
712.00,0.0601
711.00,0.0606
710.00,0.0611
709.00,0.0615
708.00,0.0620
707.00,0.0625
706.00,0.0630
705.00,0.0635
704.00,0.0640
703.00,0.0645
702.00,0.0649
701.00,0.0653
700.00,0.0657
699.00,0.0661
698.00,0.0664
697.00,0.0666
696.00,0.0669
695.00,0.0671
694.00,0.0673
693.00,0.0675
692.00,0.0677
691.00,0.0678
690.00,0.0680
689.00,0.0682
688.00,0.0684
687.00,0.0685
686.00,0.0687
685.00,0.0688
684.00,0.0690
683.00,0.0691
682.00,0.0692
681.00,0.0692
680.00,0.0693
679.00,0.0694
678.00,0.0694
677.00,0.0695
676.00,0.0696
675.00,0.0697
674.00,0.0698
673.00,0.0699
672.00,0.0701
671.00,0.0704
670.00,0.0705
669.00,0.0704
668.00,0.0700
667.00,0.0697
666.00,0.0698
665.00,0.0703
664.00,0.0707
663.00,0.0710
662.00,0.0712
661.00,0.0715
660.00,0.0717
659.00,0.0719
658.00,0.0721
657.00,0.0723
656.00,0.0725
655.00,0.0727
654.00,0.0729
653.00,0.0731
652.00,0.0733
651.00,0.0735
650.00,0.0737
649.00,0.0739
648.00,0.0742
647.00,0.0743
646.00,0.0744
645.00,0.0744
644.00,0.0746
643.00,0.0748
642.00,0.0749
641.00,0.0750
640.00,0.0751
639.00,0.0751
638.00,0.0751
637.00,0.0751
636.00,0.0751
635.00,0.0751
634.00,0.0750
633.00,0.0750
632.00,0.0749
631.00,0.0748
630.00,0.0747
629.00,0.0747
628.00,0.0748
627.00,0.0748
626.00,0.0749
625.00,0.0750
624.00,0.0752
623.00,0.0754
622.00,0.0756
621.00,0.0758
620.00,0.0762
619.00,0.0765
618.00,0.0767
617.00,0.0770
616.00,0.0774
615.00,0.0778
614.00,0.0781
613.00,0.0782
612.00,0.0783
611.00,0.0783
610.00,0.0782
609.00,0.0781
608.00,0.0779
607.00,0.0776
606.00,0.0772
605.00,0.0767
604.00,0.0764
603.00,0.0761
602.00,0.0758
601.00,0.0755
600.00,0.0751
599.00,0.0748
598.00,0.0746
597.00,0.0745
596.00,0.0745
595.00,0.0744
594.00,0.0743
593.00,0.0741
592.00,0.0739
591.00,0.0739
590.00,0.0738
589.00,0.0740
588.00,0.0741
587.00,0.0742
586.00,0.0742
585.00,0.0742
584.00,0.0742
583.00,0.0743
582.00,0.0743
581.00,0.0743
580.00,0.0745
579.00,0.0747
578.00,0.0748
577.00,0.0749
576.00,0.0750
575.00,0.0752
574.00,0.0753
573.00,0.0756
572.00,0.0760
571.00,0.0766
570.00,0.0770
569.00,0.0775
568.00,0.0778
567.00,0.0782
566.00,0.0785
565.00,0.0789
564.00,0.0796
563.00,0.0802
562.00,0.0808
561.00,0.0814
560.00,0.0822
559.00,0.0830
558.00,0.0838
557.00,0.0846
556.00,0.0854
555.00,0.0861
554.00,0.0867
553.00,0.0872
552.00,0.0877
551.00,0.0879
550.00,0.0878
549.00,0.0876
548.00,0.0875
547.00,0.0874
546.00,0.0872
545.00,0.0871
544.00,0.0870
543.00,0.0867
542.00,0.0862
541.00,0.0857
540.00,0.0853
539.00,0.0851
538.00,0.0847
537.00,0.0844
536.00,0.0841
535.00,0.0836
534.00,0.0831
533.00,0.0827
532.00,0.0826
531.00,0.0825
530.00,0.0822
529.00,0.0820
528.00,0.0818
527.00,0.0817
526.00,0.0814
525.00,0.0810
524.00,0.0808
523.00,0.0807
522.00,0.0804
521.00,0.0802
520.00,0.0801
519.00,0.0799
518.00,0.0796
517.00,0.0793
516.00,0.0793
515.00,0.0793
514.00,0.0793
513.00,0.0793
512.00,0.0792
511.00,0.0791
510.00,0.0789
509.00,0.0788
508.00,0.0787
507.00,0.0784
506.00,0.0779
505.00,0.0775
504.00,0.0774
503.00,0.0773
502.00,0.0771
501.00,0.0769
500.00,0.0768
499.00,0.0768
498.00,0.0767
497.00,0.0768
496.00,0.0771
495.00,0.0773
494.00,0.0773
493.00,0.0770
492.00,0.0768
491.00,0.0766
490.00,0.0766
489.00,0.0767
488.00,0.0768
487.00,0.0767
486.00,0.0763
485.00,0.0758
484.00,0.0755
483.00,0.0754
482.00,0.0752
481.00,0.0750
480.00,0.0749
479.00,0.0747
478.00,0.0745
477.00,0.0743
476.00,0.0743
475.00,0.0742
474.00,0.0738
473.00,0.0734
472.00,0.0732
471.00,0.0730
470.00,0.0727
469.00,0.0726
468.00,0.0729
467.00,0.0733
466.00,0.0734
465.00,0.0734
464.00,0.0733
463.00,0.0731
462.00,0.0727
461.00,0.0725
460.00,0.0726
459.00,0.0727
458.00,0.0725
457.00,0.0723
456.00,0.0722
455.00,0.0720
454.00,0.0716
453.00,0.0713
452.00,0.0713
451.00,0.0714
450.00,0.0713
449.00,0.0711
448.00,0.0711
447.00,0.0709
446.00,0.0705
445.00,0.0702
444.00,0.0701
443.00,0.0702
442.00,0.0703
441.00,0.0704
440.00,0.0704
439.00,0.0703
438.00,0.0701
437.00,0.0700
436.00,0.0704
435.00,0.0708
434.00,0.0709
433.00,0.0710
432.00,0.0716
431.00,0.0723
430.00,0.0730
429.00,0.0734
428.00,0.0735
427.00,0.0732
426.00,0.0728
425.00,0.0728
424.00,0.0732
423.00,0.0735
422.00,0.0732
421.00,0.0725
420.00,0.0719
419.00,0.0711
418.00,0.0700
417.00,0.0697
416.00,0.0701
415.00,0.0705
414.00,0.0705
413.00,0.0704
412.00,0.0704
411.00,0.0700
410.00,0.0689
409.00,0.0677
408.00,0.0671
407.00,0.0666
406.00,0.0660
405.00,0.0657
404.00,0.0661
403.00,0.0664
402.00,0.0663
401.00,0.0660
400.00,0.0661
