Created as New Dataset,Sample 017 By YargerLab Date Friday, November 01 2024
cm-1,A
4000.00,0.0049
3999.00,0.0049
3998.00,0.0049
3997.00,0.0049
3996.00,0.0048
3995.00,0.0048
3994.00,0.0048
3993.00,0.0048
3992.00,0.0048
3991.00,0.0048
3990.00,0.0048
3989.00,0.0048
3988.00,0.0048
3987.00,0.0048
3986.00,0.0048
3985.00,0.0048
3984.00,0.0048
3983.00,0.0048
3982.00,0.0048
3981.00,0.0048
3980.00,0.0048
3979.00,0.0048
3978.00,0.0047
3977.00,0.0047
3976.00,0.0047
3975.00,0.0047
3974.00,0.0048
3973.00,0.0048
3972.00,0.0048
3971.00,0.0048
3970.00,0.0048
3969.00,0.0048
3968.00,0.0047
3967.00,0.0048
3966.00,0.0048
3965.00,0.0048
3964.00,0.0048
3963.00,0.0048
3962.00,0.0048
3961.00,0.0048
3960.00,0.0048
3959.00,0.0048
3958.00,0.0048
3957.00,0.0048
3956.00,0.0048
3955.00,0.0048
3954.00,0.0048
3953.00,0.0048
3952.00,0.0048
3951.00,0.0048
3950.00,0.0048
3949.00,0.0048
3948.00,0.0048
3947.00,0.0048
3946.00,0.0048
3945.00,0.0048
3944.00,0.0048
3943.00,0.0048
3942.00,0.0048
3941.00,0.0048
3940.00,0.0048
3939.00,0.0048
3938.00,0.0048
3937.00,0.0048
3936.00,0.0048
3935.00,0.0048
3934.00,0.0049
3933.00,0.0049
3932.00,0.0049
3931.00,0.0049
3930.00,0.0049
3929.00,0.0049
3928.00,0.0049
3927.00,0.0049
3926.00,0.0049
3925.00,0.0049
3924.00,0.0049
3923.00,0.0049
3922.00,0.0049
3921.00,0.0049
3920.00,0.0049
3919.00,0.0050
3918.00,0.0050
3917.00,0.0050
3916.00,0.0050
3915.00,0.0050
3914.00,0.0050
3913.00,0.0050
3912.00,0.0050
3911.00,0.0050
3910.00,0.0050
3909.00,0.0050
3908.00,0.0050
3907.00,0.0050
3906.00,0.0050
3905.00,0.0050
3904.00,0.0050
3903.00,0.0050
3902.00,0.0051
3901.00,0.0051
3900.00,0.0051
3899.00,0.0051
3898.00,0.0051
3897.00,0.0051
3896.00,0.0051
3895.00,0.0050
3894.00,0.0050
3893.00,0.0050
3892.00,0.0050
3891.00,0.0050
3890.00,0.0050
3889.00,0.0050
3888.00,0.0050
3887.00,0.0050
3886.00,0.0050
3885.00,0.0050
3884.00,0.0050
3883.00,0.0050
3882.00,0.0050
3881.00,0.0050
3880.00,0.0050
3879.00,0.0050
3878.00,0.0050
3877.00,0.0050
3876.00,0.0050
3875.00,0.0050
3874.00,0.0050
3873.00,0.0050
3872.00,0.0051
3871.00,0.0051
3870.00,0.0051
3869.00,0.0051
3868.00,0.0051
3867.00,0.0051
3866.00,0.0051
3865.00,0.0051
3864.00,0.0050
3863.00,0.0050
3862.00,0.0050
3861.00,0.0050
3860.00,0.0050
3859.00,0.0050
3858.00,0.0051
3857.00,0.0051
3856.00,0.0052
3855.00,0.0052
3854.00,0.0051
3853.00,0.0051
3852.00,0.0052
3851.00,0.0052
3850.00,0.0051
3849.00,0.0051
3848.00,0.0050
3847.00,0.0050
3846.00,0.0050
3845.00,0.0050
3844.00,0.0050
3843.00,0.0050
3842.00,0.0050
3841.00,0.0051
3840.00,0.0051
3839.00,0.0051
3838.00,0.0051
3837.00,0.0051
3836.00,0.0051
3835.00,0.0051
3834.00,0.0051
3833.00,0.0050
3832.00,0.0050
3831.00,0.0050
3830.00,0.0050
3829.00,0.0050
3828.00,0.0049
3827.00,0.0049
3826.00,0.0049
3825.00,0.0050
3824.00,0.0050
3823.00,0.0050
3822.00,0.0050
3821.00,0.0050
3820.00,0.0050
3819.00,0.0050
3818.00,0.0050
3817.00,0.0050
3816.00,0.0050
3815.00,0.0050
3814.00,0.0050
3813.00,0.0050
3812.00,0.0050
3811.00,0.0049
3810.00,0.0050
3809.00,0.0050
3808.00,0.0050
3807.00,0.0050
3806.00,0.0050
3805.00,0.0050
3804.00,0.0050
3803.00,0.0050
3802.00,0.0050
3801.00,0.0050
3800.00,0.0050
3799.00,0.0050
3798.00,0.0050
3797.00,0.0049
3796.00,0.0049
3795.00,0.0049
3794.00,0.0049
3793.00,0.0049
3792.00,0.0048
3791.00,0.0048
3790.00,0.0048
3789.00,0.0048
3788.00,0.0048
3787.00,0.0048
3786.00,0.0048
3785.00,0.0048
3784.00,0.0048
3783.00,0.0048
3782.00,0.0048
3781.00,0.0048
3780.00,0.0047
3779.00,0.0047
3778.00,0.0048
3777.00,0.0048
3776.00,0.0048
3775.00,0.0048
3774.00,0.0047
3773.00,0.0047
3772.00,0.0047
3771.00,0.0047
3770.00,0.0047
3769.00,0.0047
3768.00,0.0047
3767.00,0.0047
3766.00,0.0047
3765.00,0.0047
3764.00,0.0047
3763.00,0.0047
3762.00,0.0047
3761.00,0.0047
3760.00,0.0047
3759.00,0.0047
3758.00,0.0047
3757.00,0.0047
3756.00,0.0047
3755.00,0.0047
3754.00,0.0048
3753.00,0.0048
3752.00,0.0048
3751.00,0.0048
3750.00,0.0048
3749.00,0.0048
3748.00,0.0048
3747.00,0.0048
3746.00,0.0048
3745.00,0.0048
3744.00,0.0047
3743.00,0.0047
3742.00,0.0047
3741.00,0.0047
3740.00,0.0046
3739.00,0.0046
3738.00,0.0045
3737.00,0.0045
3736.00,0.0044
3735.00,0.0044
3734.00,0.0043
3733.00,0.0042
3732.00,0.0041
3731.00,0.0041
3730.00,0.0040
3729.00,0.0039
3728.00,0.0039
3727.00,0.0039
3726.00,0.0039
3725.00,0.0039
3724.00,0.0040
3723.00,0.0041
3722.00,0.0041
3721.00,0.0042
3720.00,0.0043
3719.00,0.0044
3718.00,0.0044
3717.00,0.0042
3716.00,0.0041
3715.00,0.0041
3714.00,0.0042
3713.00,0.0044
3712.00,0.0045
3711.00,0.0045
3710.00,0.0045
3709.00,0.0044
3708.00,0.0043
3707.00,0.0043
3706.00,0.0042
3705.00,0.0042
3704.00,0.0042
3703.00,0.0042
3702.00,0.0042
3701.00,0.0042
3700.00,0.0042
3699.00,0.0042
3698.00,0.0042
3697.00,0.0043
3696.00,0.0044
3695.00,0.0044
3694.00,0.0046
3693.00,0.0047
3692.00,0.0048
3691.00,0.0049
3690.00,0.0051
3689.00,0.0053
3688.00,0.0054
3687.00,0.0056
3686.00,0.0058
3685.00,0.0060
3684.00,0.0062
3683.00,0.0065
3682.00,0.0068
3681.00,0.0071
3680.00,0.0075
3679.00,0.0078
3678.00,0.0082
3677.00,0.0085
3676.00,0.0089
3675.00,0.0093
3674.00,0.0096
3673.00,0.0098
3672.00,0.0100
3671.00,0.0101
3670.00,0.0102
3669.00,0.0103
3668.00,0.0104
3667.00,0.0104
3666.00,0.0105
3665.00,0.0106
3664.00,0.0107
3663.00,0.0109
3662.00,0.0110
3661.00,0.0111
3660.00,0.0112
3659.00,0.0112
3658.00,0.0112
3657.00,0.0112
3656.00,0.0112
3655.00,0.0111
3654.00,0.0110
3653.00,0.0109
3652.00,0.0108
3651.00,0.0108
3650.00,0.0107
3649.00,0.0106
3648.00,0.0105
3647.00,0.0104
3646.00,0.0102
3645.00,0.0100
3644.00,0.0098
3643.00,0.0095
3642.00,0.0093
3641.00,0.0091
3640.00,0.0090
3639.00,0.0090
3638.00,0.0090
3637.00,0.0088
3636.00,0.0084
3635.00,0.0078
3634.00,0.0072
3633.00,0.0067
3632.00,0.0064
3631.00,0.0061
3630.00,0.0059
3629.00,0.0058
3628.00,0.0056
3627.00,0.0055
3626.00,0.0054
3625.00,0.0053
3624.00,0.0053
3623.00,0.0052
3622.00,0.0051
3621.00,0.0051
3620.00,0.0051
3619.00,0.0050
3618.00,0.0050
3617.00,0.0050
3616.00,0.0049
3615.00,0.0048
3614.00,0.0046
3613.00,0.0046
3612.00,0.0046
3611.00,0.0047
3610.00,0.0047
3609.00,0.0047
3608.00,0.0047
3607.00,0.0046
3606.00,0.0045
3605.00,0.0045
3604.00,0.0044
3603.00,0.0043
3602.00,0.0043
3601.00,0.0043
3600.00,0.0042
3599.00,0.0042
3598.00,0.0042
3597.00,0.0043
3596.00,0.0043
3595.00,0.0043
3594.00,0.0043
3593.00,0.0043
3592.00,0.0043
3591.00,0.0044
3590.00,0.0044
3589.00,0.0044
3588.00,0.0044
3587.00,0.0044
3586.00,0.0044
3585.00,0.0044
3584.00,0.0044
3583.00,0.0044
3582.00,0.0044
3581.00,0.0045
3580.00,0.0045
3579.00,0.0045
3578.00,0.0044
3577.00,0.0044
3576.00,0.0044
3575.00,0.0044
3574.00,0.0044
3573.00,0.0045
3572.00,0.0045
3571.00,0.0045
3570.00,0.0045
3569.00,0.0045
3568.00,0.0045
3567.00,0.0046
3566.00,0.0046
3565.00,0.0046
3564.00,0.0046
3563.00,0.0045
3562.00,0.0045
3561.00,0.0045
3560.00,0.0045
3559.00,0.0045
3558.00,0.0045
3557.00,0.0045
3556.00,0.0045
3555.00,0.0045
3554.00,0.0045
3553.00,0.0045
3552.00,0.0045
3551.00,0.0045
3550.00,0.0045
3549.00,0.0045
3548.00,0.0045
3547.00,0.0045
3546.00,0.0045
3545.00,0.0045
3544.00,0.0045
3543.00,0.0045
3542.00,0.0045
3541.00,0.0045
3540.00,0.0045
3539.00,0.0045
3538.00,0.0045
3537.00,0.0045
3536.00,0.0045
3535.00,0.0045
3534.00,0.0045
3533.00,0.0045
3532.00,0.0045
3531.00,0.0045
3530.00,0.0045
3529.00,0.0045
3528.00,0.0045
3527.00,0.0045
3526.00,0.0045
3525.00,0.0044
3524.00,0.0045
3523.00,0.0045
3522.00,0.0045
3521.00,0.0045
3520.00,0.0045
3519.00,0.0045
3518.00,0.0045
3517.00,0.0044
3516.00,0.0044
3515.00,0.0044
3514.00,0.0044
3513.00,0.0044
3512.00,0.0044
3511.00,0.0044
3510.00,0.0044
3509.00,0.0044
3508.00,0.0045
3507.00,0.0045
3506.00,0.0045
3505.00,0.0045
3504.00,0.0045
3503.00,0.0045
3502.00,0.0045
3501.00,0.0045
3500.00,0.0045
3499.00,0.0045
3498.00,0.0045
3497.00,0.0045
3496.00,0.0045
3495.00,0.0045
3494.00,0.0045
3493.00,0.0045
3492.00,0.0045
3491.00,0.0045
3490.00,0.0045
3489.00,0.0045
3488.00,0.0045
3487.00,0.0045
3486.00,0.0045
3485.00,0.0045
3484.00,0.0046
3483.00,0.0046
3482.00,0.0046
3481.00,0.0046
3480.00,0.0046
3479.00,0.0046
3478.00,0.0046
3477.00,0.0046
3476.00,0.0046
3475.00,0.0046
3474.00,0.0046
3473.00,0.0046
3472.00,0.0046
3471.00,0.0046
3470.00,0.0046
3469.00,0.0046
3468.00,0.0046
3467.00,0.0047
3466.00,0.0047
3465.00,0.0047
3464.00,0.0047
3463.00,0.0047
3462.00,0.0047
3461.00,0.0047
3460.00,0.0047
3459.00,0.0047
3458.00,0.0047
3457.00,0.0047
3456.00,0.0047
3455.00,0.0047
3454.00,0.0047
3453.00,0.0047
3452.00,0.0047
3451.00,0.0048
3450.00,0.0048
3449.00,0.0047
3448.00,0.0047
3447.00,0.0047
3446.00,0.0047
3445.00,0.0047
3444.00,0.0047
3443.00,0.0047
3442.00,0.0047
3441.00,0.0047
3440.00,0.0047
3439.00,0.0047
3438.00,0.0047
3437.00,0.0047
3436.00,0.0047
3435.00,0.0047
3434.00,0.0047
3433.00,0.0047
3432.00,0.0047
3431.00,0.0046
3430.00,0.0046
3429.00,0.0046
3428.00,0.0046
3427.00,0.0046
3426.00,0.0047
3425.00,0.0047
3424.00,0.0047
3423.00,0.0047
3422.00,0.0047
3421.00,0.0046
3420.00,0.0046
3419.00,0.0046
3418.00,0.0046
3417.00,0.0046
3416.00,0.0046
3415.00,0.0046
3414.00,0.0046
3413.00,0.0046
3412.00,0.0046
3411.00,0.0046
3410.00,0.0046
3409.00,0.0046
3408.00,0.0045
3407.00,0.0045
3406.00,0.0045
3405.00,0.0045
3404.00,0.0045
3403.00,0.0045
3402.00,0.0044
3401.00,0.0044
3400.00,0.0044
3399.00,0.0045
3398.00,0.0045
3397.00,0.0044
3396.00,0.0044
3395.00,0.0044
3394.00,0.0044
3393.00,0.0044
3392.00,0.0044
3391.00,0.0044
3390.00,0.0044
3389.00,0.0044
3388.00,0.0044
3387.00,0.0044
3386.00,0.0044
3385.00,0.0044
3384.00,0.0044
3383.00,0.0044
3382.00,0.0044
3381.00,0.0044
3380.00,0.0044
3379.00,0.0044
3378.00,0.0044
3377.00,0.0044
3376.00,0.0044
3375.00,0.0044
3374.00,0.0044
3373.00,0.0044
3372.00,0.0044
3371.00,0.0044
3370.00,0.0044
3369.00,0.0044
3368.00,0.0044
3367.00,0.0044
3366.00,0.0044
3365.00,0.0044
3364.00,0.0044
3363.00,0.0044
3362.00,0.0044
3361.00,0.0044
3360.00,0.0044
3359.00,0.0044
3358.00,0.0044
3357.00,0.0044
3356.00,0.0044
3355.00,0.0044
3354.00,0.0044
3353.00,0.0044
3352.00,0.0044
3351.00,0.0044
3350.00,0.0044
3349.00,0.0044
3348.00,0.0044
3347.00,0.0044
3346.00,0.0044
3345.00,0.0044
3344.00,0.0044
3343.00,0.0044
3342.00,0.0044
3341.00,0.0044
3340.00,0.0044
3339.00,0.0044
3338.00,0.0044
3337.00,0.0044
3336.00,0.0044
3335.00,0.0044
3334.00,0.0044
3333.00,0.0044
3332.00,0.0044
3331.00,0.0043
3330.00,0.0043
3329.00,0.0043
3328.00,0.0043
3327.00,0.0043
3326.00,0.0043
3325.00,0.0043
3324.00,0.0043
3323.00,0.0043
3322.00,0.0043
3321.00,0.0043
3320.00,0.0043
3319.00,0.0043
3318.00,0.0043
3317.00,0.0043
3316.00,0.0043
3315.00,0.0043
3314.00,0.0043
3313.00,0.0043
3312.00,0.0043
3311.00,0.0042
3310.00,0.0042
3309.00,0.0042
3308.00,0.0042
3307.00,0.0042
3306.00,0.0042
3305.00,0.0042
3304.00,0.0042
3303.00,0.0043
3302.00,0.0043
3301.00,0.0043
3300.00,0.0043
3299.00,0.0043
3298.00,0.0043
3297.00,0.0043
3296.00,0.0043
3295.00,0.0043
3294.00,0.0043
3293.00,0.0043
3292.00,0.0043
3291.00,0.0043
3290.00,0.0044
3289.00,0.0044
3288.00,0.0044
3287.00,0.0044
3286.00,0.0044
3285.00,0.0045
3284.00,0.0045
3283.00,0.0045
3282.00,0.0045
3281.00,0.0045
3280.00,0.0045
3279.00,0.0046
3278.00,0.0046
3277.00,0.0046
3276.00,0.0046
3275.00,0.0046
3274.00,0.0046
3273.00,0.0046
3272.00,0.0046
3271.00,0.0046
3270.00,0.0047
3269.00,0.0047
3268.00,0.0048
3267.00,0.0049
3266.00,0.0050
3265.00,0.0050
3264.00,0.0051
3263.00,0.0051
3262.00,0.0052
3261.00,0.0052
3260.00,0.0053
3259.00,0.0053
3258.00,0.0053
3257.00,0.0053
3256.00,0.0054
3255.00,0.0055
3254.00,0.0055
3253.00,0.0056
3252.00,0.0057
3251.00,0.0057
3250.00,0.0058
3249.00,0.0058
3248.00,0.0058
3247.00,0.0059
3246.00,0.0060
3245.00,0.0061
3244.00,0.0062
3243.00,0.0063
3242.00,0.0064
3241.00,0.0064
3240.00,0.0065
3239.00,0.0065
3238.00,0.0065
3237.00,0.0065
3236.00,0.0064
3235.00,0.0064
3234.00,0.0064
3233.00,0.0065
3232.00,0.0067
3231.00,0.0068
3230.00,0.0070
3229.00,0.0071
3228.00,0.0071
3227.00,0.0072
3226.00,0.0073
3225.00,0.0073
3224.00,0.0074
3223.00,0.0074
3222.00,0.0075
3221.00,0.0075
3220.00,0.0076
3219.00,0.0076
3218.00,0.0077
3217.00,0.0078
3216.00,0.0078
3215.00,0.0079
3214.00,0.0080
3213.00,0.0081
3212.00,0.0082
3211.00,0.0083
3210.00,0.0083
3209.00,0.0084
3208.00,0.0085
3207.00,0.0086
3206.00,0.0086
3205.00,0.0087
3204.00,0.0088
3203.00,0.0089
3202.00,0.0090
3201.00,0.0091
3200.00,0.0092
3199.00,0.0093
3198.00,0.0094
3197.00,0.0095
3196.00,0.0096
3195.00,0.0097
3194.00,0.0098
3193.00,0.0098
3192.00,0.0099
3191.00,0.0100
3190.00,0.0101
3189.00,0.0102
3188.00,0.0103
3187.00,0.0104
3186.00,0.0105
3185.00,0.0106
3184.00,0.0107
3183.00,0.0108
3182.00,0.0109
3181.00,0.0109
3180.00,0.0110
3179.00,0.0111
3178.00,0.0112
3177.00,0.0113
3176.00,0.0114
3175.00,0.0115
3174.00,0.0116
3173.00,0.0117
3172.00,0.0118
3171.00,0.0119
3170.00,0.0120
3169.00,0.0121
3168.00,0.0122
3167.00,0.0123
3166.00,0.0124
3165.00,0.0125
3164.00,0.0127
3163.00,0.0128
3162.00,0.0129
3161.00,0.0130
3160.00,0.0131
3159.00,0.0132
3158.00,0.0134
3157.00,0.0135
3156.00,0.0135
3155.00,0.0136
3154.00,0.0136
3153.00,0.0137
3152.00,0.0139
3151.00,0.0142
3150.00,0.0144
3149.00,0.0146
3148.00,0.0148
3147.00,0.0150
3146.00,0.0152
3145.00,0.0154
3144.00,0.0155
3143.00,0.0156
3142.00,0.0157
3141.00,0.0158
3140.00,0.0159
3139.00,0.0162
3138.00,0.0164
3137.00,0.0167
3136.00,0.0170
3135.00,0.0172
3134.00,0.0174
3133.00,0.0176
3132.00,0.0178
3131.00,0.0180
3130.00,0.0183
3129.00,0.0186
3128.00,0.0189
3127.00,0.0191
3126.00,0.0194
3125.00,0.0196
3124.00,0.0198
3123.00,0.0200
3122.00,0.0201
3121.00,0.0203
3120.00,0.0205
3119.00,0.0208
3118.00,0.0211
3117.00,0.0215
3116.00,0.0219
3115.00,0.0224
3114.00,0.0230
3113.00,0.0234
3112.00,0.0239
3111.00,0.0242
3110.00,0.0246
3109.00,0.0250
3108.00,0.0255
3107.00,0.0261
3106.00,0.0266
3105.00,0.0271
3104.00,0.0276
3103.00,0.0280
3102.00,0.0285
3101.00,0.0290
3100.00,0.0295
3099.00,0.0302
3098.00,0.0308
3097.00,0.0314
3096.00,0.0321
3095.00,0.0327
3094.00,0.0333
3093.00,0.0339
3092.00,0.0345
3091.00,0.0351
3090.00,0.0358
3089.00,0.0366
3088.00,0.0373
3087.00,0.0380
3086.00,0.0387
3085.00,0.0395
3084.00,0.0403
3083.00,0.0411
3082.00,0.0419
3081.00,0.0427
3080.00,0.0436
3079.00,0.0445
3078.00,0.0454
3077.00,0.0464
3076.00,0.0474
3075.00,0.0483
3074.00,0.0492
3073.00,0.0501
3072.00,0.0509
3071.00,0.0517
3070.00,0.0524
3069.00,0.0531
3068.00,0.0539
3067.00,0.0547
3066.00,0.0555
3065.00,0.0563
3064.00,0.0570
3063.00,0.0577
3062.00,0.0583
3061.00,0.0588
3060.00,0.0593
3059.00,0.0597
3058.00,0.0601
3057.00,0.0605
3056.00,0.0608
3055.00,0.0611
3054.00,0.0614
3053.00,0.0615
3052.00,0.0616
3051.00,0.0617
3050.00,0.0617
3049.00,0.0618
3048.00,0.0617
3047.00,0.0616
3046.00,0.0614
3045.00,0.0612
3044.00,0.0610
3043.00,0.0607
3042.00,0.0604
3041.00,0.0602
3040.00,0.0599
3039.00,0.0596
3038.00,0.0592
3037.00,0.0588
3036.00,0.0584
3035.00,0.0580
3034.00,0.0576
3033.00,0.0572
3032.00,0.0568
3031.00,0.0564
3030.00,0.0560
3029.00,0.0556
3028.00,0.0552
3027.00,0.0548
3026.00,0.0545
3025.00,0.0541
3024.00,0.0539
3023.00,0.0537
3022.00,0.0535
3021.00,0.0534
3020.00,0.0534
3019.00,0.0536
3018.00,0.0538
3017.00,0.0543
3016.00,0.0549
3015.00,0.0558
3014.00,0.0569
3013.00,0.0582
3012.00,0.0596
3011.00,0.0612
3010.00,0.0629
3009.00,0.0645
3008.00,0.0661
3007.00,0.0677
3006.00,0.0692
3005.00,0.0707
3004.00,0.0721
3003.00,0.0735
3002.00,0.0749
3001.00,0.0763
3000.00,0.0776
2999.00,0.0789
2998.00,0.0802
2997.00,0.0814
2996.00,0.0827
2995.00,0.0840
2994.00,0.0855
2993.00,0.0872
2992.00,0.0891
2991.00,0.0914
2990.00,0.0940
2989.00,0.0971
2988.00,0.1008
2987.00,0.1050
2986.00,0.1101
2985.00,0.1161
2984.00,0.1226
2983.00,0.1283
2982.00,0.1315
2981.00,0.1315
2980.00,0.1286
2979.00,0.1239
2978.00,0.1188
2977.00,0.1143
2976.00,0.1108
2975.00,0.1086
2974.00,0.1076
2973.00,0.1074
2972.00,0.1071
2971.00,0.1060
2970.00,0.1037
2969.00,0.1007
2968.00,0.0976
2967.00,0.0950
2966.00,0.0928
2965.00,0.0909
2964.00,0.0893
2963.00,0.0879
2962.00,0.0868
2961.00,0.0858
2960.00,0.0851
2959.00,0.0845
2958.00,0.0839
2957.00,0.0832
2956.00,0.0823
2955.00,0.0812
2954.00,0.0800
2953.00,0.0786
2952.00,0.0772
2951.00,0.0757
2950.00,0.0742
2949.00,0.0727
2948.00,0.0712
2947.00,0.0697
2946.00,0.0681
2945.00,0.0666
2944.00,0.0652
2943.00,0.0640
2942.00,0.0631
2941.00,0.0623
2940.00,0.0617
2939.00,0.0612
2938.00,0.0607
2937.00,0.0602
2936.00,0.0598
2935.00,0.0595
2934.00,0.0593
2933.00,0.0592
2932.00,0.0590
2931.00,0.0586
2930.00,0.0582
2929.00,0.0576
2928.00,0.0570
2927.00,0.0564
2926.00,0.0558
2925.00,0.0553
2924.00,0.0548
2923.00,0.0543
2922.00,0.0540
2921.00,0.0537
2920.00,0.0534
2919.00,0.0533
2918.00,0.0532
2917.00,0.0532
2916.00,0.0532
2915.00,0.0533
2914.00,0.0535
2913.00,0.0537
2912.00,0.0540
2911.00,0.0542
2910.00,0.0545
2909.00,0.0547
2908.00,0.0549
2907.00,0.0551
2906.00,0.0552
2905.00,0.0553
2904.00,0.0555
2903.00,0.0556
2902.00,0.0556
2901.00,0.0557
2900.00,0.0557
2899.00,0.0557
2898.00,0.0557
2897.00,0.0557
2896.00,0.0558
2895.00,0.0560
2894.00,0.0564
2893.00,0.0567
2892.00,0.0571
2891.00,0.0574
2890.00,0.0576
2889.00,0.0576
2888.00,0.0576
2887.00,0.0575
2886.00,0.0575
2885.00,0.0575
2884.00,0.0574
2883.00,0.0571
2882.00,0.0564
2881.00,0.0555
2880.00,0.0545
2879.00,0.0535
2878.00,0.0527
2877.00,0.0519
2876.00,0.0513
2875.00,0.0507
2874.00,0.0502
2873.00,0.0498
2872.00,0.0493
2871.00,0.0489
2870.00,0.0484
2869.00,0.0479
2868.00,0.0474
2867.00,0.0468
2866.00,0.0463
2865.00,0.0458
2864.00,0.0452
2863.00,0.0447
2862.00,0.0442
2861.00,0.0437
2860.00,0.0432
2859.00,0.0427
2858.00,0.0423
2857.00,0.0419
2856.00,0.0415
2855.00,0.0412
2854.00,0.0409
2853.00,0.0406
2852.00,0.0402
2851.00,0.0398
2850.00,0.0395
2849.00,0.0392
2848.00,0.0391
2847.00,0.0390
2846.00,0.0390
2845.00,0.0390
2844.00,0.0390
2843.00,0.0390
2842.00,0.0389
2841.00,0.0389
2840.00,0.0388
2839.00,0.0388
2838.00,0.0389
2837.00,0.0389
2836.00,0.0390
2835.00,0.0391
2834.00,0.0392
2833.00,0.0393
2832.00,0.0394
2831.00,0.0395
2830.00,0.0397
2829.00,0.0398
2828.00,0.0400
2827.00,0.0401
2826.00,0.0403
2825.00,0.0405
2824.00,0.0408
2823.00,0.0410
2822.00,0.0413
2821.00,0.0416
2820.00,0.0419
2819.00,0.0422
2818.00,0.0425
2817.00,0.0427
2816.00,0.0430
2815.00,0.0433
2814.00,0.0436
2813.00,0.0438
2812.00,0.0440
2811.00,0.0442
2810.00,0.0443
2809.00,0.0445
2808.00,0.0447
2807.00,0.0449
2806.00,0.0450
2805.00,0.0451
2804.00,0.0452
2803.00,0.0453
2802.00,0.0454
2801.00,0.0454
2800.00,0.0455
2799.00,0.0456
2798.00,0.0457
2797.00,0.0458
2796.00,0.0460
2795.00,0.0461
2794.00,0.0462
2793.00,0.0464
2792.00,0.0465
2791.00,0.0467
2790.00,0.0469
2789.00,0.0471
2788.00,0.0473
2787.00,0.0475
2786.00,0.0478
2785.00,0.0479
2784.00,0.0481
2783.00,0.0482
2782.00,0.0483
2781.00,0.0484
2780.00,0.0485
2779.00,0.0485
2778.00,0.0484
2777.00,0.0483
2776.00,0.0482
2775.00,0.0480
2774.00,0.0479
2773.00,0.0477
2772.00,0.0475
2771.00,0.0473
2770.00,0.0470
2769.00,0.0467
2768.00,0.0465
2767.00,0.0462
2766.00,0.0459
2765.00,0.0455
2764.00,0.0452
2763.00,0.0449
2762.00,0.0446
2761.00,0.0443
2760.00,0.0440
2759.00,0.0437
2758.00,0.0435
2757.00,0.0432
2756.00,0.0430
2755.00,0.0427
2754.00,0.0424
2753.00,0.0422
2752.00,0.0419
2751.00,0.0417
2750.00,0.0414
2749.00,0.0412
2748.00,0.0410
2747.00,0.0408
2746.00,0.0407
2745.00,0.0405
2744.00,0.0403
2743.00,0.0402
2742.00,0.0400
2741.00,0.0399
2740.00,0.0398
2739.00,0.0396
2738.00,0.0395
2737.00,0.0394
2736.00,0.0394
2735.00,0.0393
2734.00,0.0392
2733.00,0.0391
2732.00,0.0391
2731.00,0.0390
2730.00,0.0389
2729.00,0.0388
2728.00,0.0387
2727.00,0.0387
2726.00,0.0386
2725.00,0.0386
2724.00,0.0385
2723.00,0.0385
2722.00,0.0384
2721.00,0.0384
2720.00,0.0384
2719.00,0.0383
2718.00,0.0383
2717.00,0.0383
2716.00,0.0382
2715.00,0.0382
2714.00,0.0382
2713.00,0.0382
2712.00,0.0381
2711.00,0.0381
2710.00,0.0381
2709.00,0.0381
2708.00,0.0382
2707.00,0.0382
2706.00,0.0382
2705.00,0.0383
2704.00,0.0384
2703.00,0.0384
2702.00,0.0385
2701.00,0.0386
2700.00,0.0387
2699.00,0.0388
2698.00,0.0389
2697.00,0.0390
2696.00,0.0392
2695.00,0.0393
2694.00,0.0395
2693.00,0.0396
2692.00,0.0398
2691.00,0.0399
2690.00,0.0401
2689.00,0.0402
2688.00,0.0404
2687.00,0.0405
2686.00,0.0406
2685.00,0.0408
2684.00,0.0409
2683.00,0.0410
2682.00,0.0411
2681.00,0.0413
2680.00,0.0414
2679.00,0.0415
2678.00,0.0416
2677.00,0.0417
2676.00,0.0418
2675.00,0.0419
2674.00,0.0420
2673.00,0.0421
2672.00,0.0422
2671.00,0.0422
2670.00,0.0423
2669.00,0.0424
2668.00,0.0425
2667.00,0.0425
2666.00,0.0426
2665.00,0.0426
2664.00,0.0426
2663.00,0.0426
2662.00,0.0426
2661.00,0.0427
2660.00,0.0427
2659.00,0.0427
2658.00,0.0428
2657.00,0.0428
2656.00,0.0429
2655.00,0.0430
2654.00,0.0431
2653.00,0.0432
2652.00,0.0432
2651.00,0.0433
2650.00,0.0433
2649.00,0.0434
2648.00,0.0434
2647.00,0.0435
2646.00,0.0435
2645.00,0.0435
2644.00,0.0436
2643.00,0.0436
2642.00,0.0436
2641.00,0.0437
2640.00,0.0437
2639.00,0.0437
2638.00,0.0437
2637.00,0.0436
2636.00,0.0435
2635.00,0.0435
2634.00,0.0435
2633.00,0.0435
2632.00,0.0435
2631.00,0.0435
2630.00,0.0436
2629.00,0.0436
2628.00,0.0436
2627.00,0.0436
2626.00,0.0436
2625.00,0.0436
2624.00,0.0436
2623.00,0.0436
2622.00,0.0436
2621.00,0.0436
2620.00,0.0436
2619.00,0.0436
2618.00,0.0436
2617.00,0.0435
2616.00,0.0435
2615.00,0.0434
2614.00,0.0434
2613.00,0.0433
2612.00,0.0432
2611.00,0.0432
2610.00,0.0431
2609.00,0.0431
2608.00,0.0430
2607.00,0.0430
2606.00,0.0429
2605.00,0.0429
2604.00,0.0429
2603.00,0.0429
2602.00,0.0429
2601.00,0.0429
2600.00,0.0430
2599.00,0.0431
2598.00,0.0432
2597.00,0.0432
2596.00,0.0433
2595.00,0.0434
2594.00,0.0435
2593.00,0.0436
2592.00,0.0436
2591.00,0.0437
2590.00,0.0437
2589.00,0.0438
2588.00,0.0438
2587.00,0.0437
2586.00,0.0437
2585.00,0.0437
2584.00,0.0437
2583.00,0.0437
2582.00,0.0436
2581.00,0.0436
2580.00,0.0435
2579.00,0.0435
2578.00,0.0435
2577.00,0.0434
2576.00,0.0434
2575.00,0.0434
2574.00,0.0433
2573.00,0.0433
2572.00,0.0433
2571.00,0.0432
2570.00,0.0432
2569.00,0.0432
2568.00,0.0432
2567.00,0.0431
2566.00,0.0431
2565.00,0.0431
2564.00,0.0431
2563.00,0.0431
2562.00,0.0431
2561.00,0.0431
2560.00,0.0431
2559.00,0.0431
2558.00,0.0431
2557.00,0.0431
2556.00,0.0431
2555.00,0.0431
2554.00,0.0431
2553.00,0.0430
2552.00,0.0430
2551.00,0.0430
2550.00,0.0430
2549.00,0.0430
2548.00,0.0431
2547.00,0.0431
2546.00,0.0432
2545.00,0.0433
2544.00,0.0433
2543.00,0.0434
2542.00,0.0435
2541.00,0.0436
2540.00,0.0437
2539.00,0.0438
2538.00,0.0440
2537.00,0.0442
2536.00,0.0443
2535.00,0.0445
2534.00,0.0446
2533.00,0.0448
2532.00,0.0449
2531.00,0.0451
2530.00,0.0453
2529.00,0.0454
2528.00,0.0456
2527.00,0.0458
2526.00,0.0459
2525.00,0.0461
2524.00,0.0463
2523.00,0.0465
2522.00,0.0467
2521.00,0.0469
2520.00,0.0472
2519.00,0.0474
2518.00,0.0476
2517.00,0.0478
2516.00,0.0480
2515.00,0.0482
2514.00,0.0484
2513.00,0.0486
2512.00,0.0488
2511.00,0.0490
2510.00,0.0491
2509.00,0.0493
2508.00,0.0494
2507.00,0.0494
2506.00,0.0495
2505.00,0.0495
2504.00,0.0496
2503.00,0.0496
2502.00,0.0496
2501.00,0.0496
2500.00,0.0496
2499.00,0.0496
2498.00,0.0495
2497.00,0.0495
2496.00,0.0494
2495.00,0.0494
2494.00,0.0493
2493.00,0.0492
2492.00,0.0492
2491.00,0.0491
2490.00,0.0490
2489.00,0.0489
2488.00,0.0488
2487.00,0.0487
2486.00,0.0486
2485.00,0.0485
2484.00,0.0485
2483.00,0.0484
2482.00,0.0484
2481.00,0.0484
2480.00,0.0484
2479.00,0.0483
2478.00,0.0483
2477.00,0.0483
2476.00,0.0483
2475.00,0.0483
2474.00,0.0483
2473.00,0.0482
2472.00,0.0482
2471.00,0.0482
2470.00,0.0482
2469.00,0.0482
2468.00,0.0482
2467.00,0.0482
2466.00,0.0482
2465.00,0.0482
2464.00,0.0482
2463.00,0.0481
2462.00,0.0481
2461.00,0.0480
2460.00,0.0479
2459.00,0.0479
2458.00,0.0478
2457.00,0.0477
2456.00,0.0476
2455.00,0.0475
2454.00,0.0474
2453.00,0.0473
2452.00,0.0472
2451.00,0.0472
2450.00,0.0471
2449.00,0.0471
2448.00,0.0471
2447.00,0.0471
2446.00,0.0471
2445.00,0.0472
2444.00,0.0472
2443.00,0.0473
2442.00,0.0474
2441.00,0.0476
2440.00,0.0477
2439.00,0.0479
2438.00,0.0481
2437.00,0.0482
2436.00,0.0484
2435.00,0.0486
2434.00,0.0489
2433.00,0.0491
2432.00,0.0493
2431.00,0.0496
2430.00,0.0499
2429.00,0.0502
2428.00,0.0504
2427.00,0.0507
2426.00,0.0509
2425.00,0.0512
2424.00,0.0514
2423.00,0.0517
2422.00,0.0519
2421.00,0.0522
2420.00,0.0524
2419.00,0.0527
2418.00,0.0529
2417.00,0.0532
2416.00,0.0534
2415.00,0.0537
2414.00,0.0539
2413.00,0.0542
2412.00,0.0544
2411.00,0.0547
2410.00,0.0549
2409.00,0.0552
2408.00,0.0554
2407.00,0.0557
2406.00,0.0560
2405.00,0.0562
2404.00,0.0565
2403.00,0.0567
2402.00,0.0569
2401.00,0.0572
2400.00,0.0574
2399.00,0.0576
2398.00,0.0578
2397.00,0.0580
2396.00,0.0581
2395.00,0.0583
2394.00,0.0585
2393.00,0.0586
2392.00,0.0588
2391.00,0.0589
2390.00,0.0591
2389.00,0.0592
2388.00,0.0593
2387.00,0.0593
2386.00,0.0594
2385.00,0.0594
2384.00,0.0595
2383.00,0.0595
2382.00,0.0595
2381.00,0.0594
2380.00,0.0594
2379.00,0.0594
2378.00,0.0593
2377.00,0.0593
2376.00,0.0592
2375.00,0.0591
2374.00,0.0591
2373.00,0.0590
2372.00,0.0589
2371.00,0.0589
2370.00,0.0589
2369.00,0.0588
2368.00,0.0588
2367.00,0.0588
2366.00,0.0588
2365.00,0.0588
2364.00,0.0587
2363.00,0.0587
2362.00,0.0586
2361.00,0.0586
2360.00,0.0585
2359.00,0.0584
2358.00,0.0583
2357.00,0.0583
2356.00,0.0582
2355.00,0.0581
2354.00,0.0581
2353.00,0.0581
2352.00,0.0579
2351.00,0.0575
2350.00,0.0569
2349.00,0.0561
2348.00,0.0553
2347.00,0.0548
2346.00,0.0546
2345.00,0.0546
2344.00,0.0546
2343.00,0.0547
2342.00,0.0546
2341.00,0.0545
2340.00,0.0544
2339.00,0.0542
2338.00,0.0541
2337.00,0.0539
2336.00,0.0537
2335.00,0.0535
2334.00,0.0533
2333.00,0.0532
2332.00,0.0531
2331.00,0.0531
2330.00,0.0531
2329.00,0.0530
2328.00,0.0530
2327.00,0.0528
2326.00,0.0525
2325.00,0.0521
2324.00,0.0518
2323.00,0.0515
2322.00,0.0513
2321.00,0.0512
2320.00,0.0511
2319.00,0.0509
2318.00,0.0507
2317.00,0.0505
2316.00,0.0502
2315.00,0.0500
2314.00,0.0498
2313.00,0.0496
2312.00,0.0494
2311.00,0.0492
2310.00,0.0490
2309.00,0.0488
2308.00,0.0486
2307.00,0.0484
2306.00,0.0482
2305.00,0.0480
2304.00,0.0478
2303.00,0.0476
2302.00,0.0474
2301.00,0.0472
2300.00,0.0470
2299.00,0.0468
2298.00,0.0467
2297.00,0.0465
2296.00,0.0463
2295.00,0.0461
2294.00,0.0460
2293.00,0.0458
2292.00,0.0455
2291.00,0.0453
2290.00,0.0451
2289.00,0.0450
2288.00,0.0447
2287.00,0.0445
2286.00,0.0442
2285.00,0.0439
2284.00,0.0435
2283.00,0.0433
2282.00,0.0431
2281.00,0.0429
2280.00,0.0427
2279.00,0.0424
2278.00,0.0422
2277.00,0.0420
2276.00,0.0417
2275.00,0.0415
2274.00,0.0413
2273.00,0.0411
2272.00,0.0409
2271.00,0.0407
2270.00,0.0405
2269.00,0.0403
2268.00,0.0402
2267.00,0.0400
2266.00,0.0399
2265.00,0.0397
2264.00,0.0396
2263.00,0.0395
2262.00,0.0393
2261.00,0.0392
2260.00,0.0390
2259.00,0.0388
2258.00,0.0385
2257.00,0.0383
2256.00,0.0381
2255.00,0.0379
2254.00,0.0377
2253.00,0.0375
2252.00,0.0373
2251.00,0.0371
2250.00,0.0370
2249.00,0.0368
2248.00,0.0367
2247.00,0.0365
2246.00,0.0364
2245.00,0.0363
2244.00,0.0361
2243.00,0.0360
2242.00,0.0358
2241.00,0.0357
2240.00,0.0355
2239.00,0.0353
2238.00,0.0351
2237.00,0.0350
2236.00,0.0348
2235.00,0.0346
2234.00,0.0345
2233.00,0.0343
2232.00,0.0342
2231.00,0.0340
2230.00,0.0339
2229.00,0.0337
2228.00,0.0335
2227.00,0.0334
2226.00,0.0333
2225.00,0.0332
2224.00,0.0330
2223.00,0.0328
2222.00,0.0327
2221.00,0.0325
2220.00,0.0323
2219.00,0.0322
2218.00,0.0321
2217.00,0.0320
2216.00,0.0318
2215.00,0.0317
2214.00,0.0316
2213.00,0.0315
2212.00,0.0314
2211.00,0.0314
2210.00,0.0313
2209.00,0.0311
2208.00,0.0310
2207.00,0.0309
2206.00,0.0308
2205.00,0.0307
2204.00,0.0307
2203.00,0.0306
2202.00,0.0305
2201.00,0.0304
2200.00,0.0302
2199.00,0.0300
2198.00,0.0298
2197.00,0.0297
2196.00,0.0296
2195.00,0.0295
2194.00,0.0293
2193.00,0.0291
2192.00,0.0289
2191.00,0.0287
2190.00,0.0285
2189.00,0.0283
2188.00,0.0281
2187.00,0.0279
2186.00,0.0277
2185.00,0.0274
2184.00,0.0270
2183.00,0.0267
2182.00,0.0265
2181.00,0.0263
2180.00,0.0261
2179.00,0.0258
2178.00,0.0255
2177.00,0.0253
2176.00,0.0251
2175.00,0.0251
2174.00,0.0250
2173.00,0.0249
2172.00,0.0248
2171.00,0.0246
2170.00,0.0245
2169.00,0.0245
2168.00,0.0243
2167.00,0.0242
2166.00,0.0240
2165.00,0.0240
2164.00,0.0239
2163.00,0.0236
2162.00,0.0231
2161.00,0.0225
2160.00,0.0220
2159.00,0.0218
2158.00,0.0218
2157.00,0.0220
2156.00,0.0221
2155.00,0.0221
2154.00,0.0221
2153.00,0.0220
2152.00,0.0219
2151.00,0.0217
2150.00,0.0215
2149.00,0.0213
2148.00,0.0212
2147.00,0.0211
2146.00,0.0211
2145.00,0.0210
2144.00,0.0209
2143.00,0.0208
2142.00,0.0207
2141.00,0.0206
2140.00,0.0205
2139.00,0.0204
2138.00,0.0201
2137.00,0.0199
2136.00,0.0196
2135.00,0.0195
2134.00,0.0194
2133.00,0.0194
2132.00,0.0194
2131.00,0.0193
2130.00,0.0192
2129.00,0.0191
2128.00,0.0189
2127.00,0.0188
2126.00,0.0187
2125.00,0.0185
2124.00,0.0184
2123.00,0.0183
2122.00,0.0182
2121.00,0.0181
2120.00,0.0180
2119.00,0.0179
2118.00,0.0179
2117.00,0.0178
2116.00,0.0177
2115.00,0.0175
2114.00,0.0174
2113.00,0.0172
2112.00,0.0171
2111.00,0.0169
2110.00,0.0168
2109.00,0.0167
2108.00,0.0166
2107.00,0.0165
2106.00,0.0165
2105.00,0.0164
2104.00,0.0164
2103.00,0.0163
2102.00,0.0162
2101.00,0.0161
2100.00,0.0161
2099.00,0.0159
2098.00,0.0158
2097.00,0.0156
2096.00,0.0155
2095.00,0.0154
2094.00,0.0154
2093.00,0.0154
2092.00,0.0155
2091.00,0.0154
2090.00,0.0154
2089.00,0.0153
2088.00,0.0152
2087.00,0.0151
2086.00,0.0151
2085.00,0.0150
2084.00,0.0150
2083.00,0.0150
2082.00,0.0149
2081.00,0.0148
2080.00,0.0147
2079.00,0.0146
2078.00,0.0145
2077.00,0.0144
2076.00,0.0142
2075.00,0.0141
2074.00,0.0139
2073.00,0.0138
2072.00,0.0137
2071.00,0.0136
2070.00,0.0135
2069.00,0.0134
2068.00,0.0133
2067.00,0.0132
2066.00,0.0131
2065.00,0.0130
2064.00,0.0129
2063.00,0.0128
2062.00,0.0128
2061.00,0.0127
2060.00,0.0126
2059.00,0.0125
2058.00,0.0125
2057.00,0.0124
2056.00,0.0124
2055.00,0.0124
2054.00,0.0125
2053.00,0.0126
2052.00,0.0125
2051.00,0.0124
2050.00,0.0122
2049.00,0.0121
2048.00,0.0120
2047.00,0.0120
2046.00,0.0120
2045.00,0.0120
2044.00,0.0121
2043.00,0.0121
2042.00,0.0120
2041.00,0.0119
2040.00,0.0119
2039.00,0.0118
2038.00,0.0117
2037.00,0.0116
2036.00,0.0116
2035.00,0.0115
2034.00,0.0115
2033.00,0.0116
2032.00,0.0116
2031.00,0.0116
2030.00,0.0115
2029.00,0.0115
2028.00,0.0114
2027.00,0.0112
2026.00,0.0111
2025.00,0.0110
2024.00,0.0110
2023.00,0.0109
2022.00,0.0109
2021.00,0.0109
2020.00,0.0108
2019.00,0.0107
2018.00,0.0105
2017.00,0.0105
2016.00,0.0105
2015.00,0.0106
2014.00,0.0106
2013.00,0.0106
2012.00,0.0104
2011.00,0.0103
2010.00,0.0101
2009.00,0.0101
2008.00,0.0100
2007.00,0.0101
2006.00,0.0103
2005.00,0.0106
2004.00,0.0108
2003.00,0.0109
2002.00,0.0110
2001.00,0.0112
2000.00,0.0113
1999.00,0.0114
1998.00,0.0114
1997.00,0.0115
1996.00,0.0116
1995.00,0.0116
1994.00,0.0116
1993.00,0.0115
1992.00,0.0114
1991.00,0.0113
1990.00,0.0113
1989.00,0.0113
1988.00,0.0114
1987.00,0.0115
1986.00,0.0115
1985.00,0.0116
1984.00,0.0117
1983.00,0.0117
1982.00,0.0117
1981.00,0.0116
1980.00,0.0113
1979.00,0.0109
1978.00,0.0107
1977.00,0.0106
1976.00,0.0106
1975.00,0.0105
1974.00,0.0104
1973.00,0.0104
1972.00,0.0103
1971.00,0.0101
1970.00,0.0100
1969.00,0.0100
1968.00,0.0099
1967.00,0.0098
1966.00,0.0097
1965.00,0.0098
1964.00,0.0098
1963.00,0.0097
1962.00,0.0097
1961.00,0.0097
1960.00,0.0097
1959.00,0.0096
1958.00,0.0096
1957.00,0.0096
1956.00,0.0096
1955.00,0.0096
1954.00,0.0096
1953.00,0.0096
1952.00,0.0096
1951.00,0.0095
1950.00,0.0094
1949.00,0.0093
1948.00,0.0091
1947.00,0.0090
1946.00,0.0089
1945.00,0.0089
1944.00,0.0088
1943.00,0.0088
1942.00,0.0088
1941.00,0.0088
1940.00,0.0089
1939.00,0.0089
1938.00,0.0089
1937.00,0.0088
1936.00,0.0088
1935.00,0.0087
1934.00,0.0086
1933.00,0.0086
1932.00,0.0086
1931.00,0.0085
1930.00,0.0085
1929.00,0.0085
1928.00,0.0085
1927.00,0.0085
1926.00,0.0085
1925.00,0.0085
1924.00,0.0085
1923.00,0.0085
1922.00,0.0085
1921.00,0.0085
1920.00,0.0085
1919.00,0.0084
1918.00,0.0083
1917.00,0.0083
1916.00,0.0082
1915.00,0.0082
1914.00,0.0081
1913.00,0.0081
1912.00,0.0081
1911.00,0.0080
1910.00,0.0080
1909.00,0.0079
1908.00,0.0079
1907.00,0.0079
1906.00,0.0079
1905.00,0.0079
1904.00,0.0079
1903.00,0.0079
1902.00,0.0078
1901.00,0.0078
1900.00,0.0078
1899.00,0.0077
1898.00,0.0076
1897.00,0.0075
1896.00,0.0075
1895.00,0.0074
1894.00,0.0073
1893.00,0.0073
1892.00,0.0072
1891.00,0.0072
1890.00,0.0071
1889.00,0.0072
1888.00,0.0072
1887.00,0.0072
1886.00,0.0072
1885.00,0.0073
1884.00,0.0073
1883.00,0.0072
1882.00,0.0072
1881.00,0.0072
1880.00,0.0072
1879.00,0.0072
1878.00,0.0072
1877.00,0.0071
1876.00,0.0071
1875.00,0.0070
1874.00,0.0069
1873.00,0.0069
1872.00,0.0068
1871.00,0.0068
1870.00,0.0067
1869.00,0.0067
1868.00,0.0067
1867.00,0.0067
1866.00,0.0067
1865.00,0.0067
1864.00,0.0067
1863.00,0.0067
1862.00,0.0066
1861.00,0.0067
1860.00,0.0067
1859.00,0.0067
1858.00,0.0067
1857.00,0.0067
1856.00,0.0068
1855.00,0.0067
1854.00,0.0067
1853.00,0.0067
1852.00,0.0068
1851.00,0.0068
1850.00,0.0068
1849.00,0.0068
1848.00,0.0068
1847.00,0.0068
1846.00,0.0068
1845.00,0.0068
1844.00,0.0069
1843.00,0.0069
1842.00,0.0069
1841.00,0.0070
1840.00,0.0070
1839.00,0.0069
1838.00,0.0069
1837.00,0.0069
1836.00,0.0069
1835.00,0.0069
1834.00,0.0068
1833.00,0.0068
1832.00,0.0068
1831.00,0.0067
1830.00,0.0067
1829.00,0.0066
1828.00,0.0066
1827.00,0.0066
1826.00,0.0066
1825.00,0.0066
1824.00,0.0066
1823.00,0.0066
1822.00,0.0067
1821.00,0.0067
1820.00,0.0067
1819.00,0.0067
1818.00,0.0066
1817.00,0.0067
1816.00,0.0067
1815.00,0.0067
1814.00,0.0067
1813.00,0.0067
1812.00,0.0067
1811.00,0.0066
1810.00,0.0066
1809.00,0.0066
1808.00,0.0066
1807.00,0.0065
1806.00,0.0065
1805.00,0.0065
1804.00,0.0065
1803.00,0.0065
1802.00,0.0064
1801.00,0.0064
1800.00,0.0064
1799.00,0.0064
1798.00,0.0063
1797.00,0.0063
1796.00,0.0063
1795.00,0.0063
1794.00,0.0063
1793.00,0.0063
1792.00,0.0064
1791.00,0.0064
1790.00,0.0065
1789.00,0.0066
1788.00,0.0066
1787.00,0.0067
1786.00,0.0067
1785.00,0.0067
1784.00,0.0068
1783.00,0.0068
1782.00,0.0068
1781.00,0.0068
1780.00,0.0069
1779.00,0.0069
1778.00,0.0069
1777.00,0.0069
1776.00,0.0069
1775.00,0.0070
1774.00,0.0070
1773.00,0.0071
1772.00,0.0071
1771.00,0.0072
1770.00,0.0073
1769.00,0.0074
1768.00,0.0075
1767.00,0.0075
1766.00,0.0074
1765.00,0.0075
1764.00,0.0075
1763.00,0.0075
1762.00,0.0075
1761.00,0.0076
1760.00,0.0076
1759.00,0.0076
1758.00,0.0077
1757.00,0.0077
1756.00,0.0077
1755.00,0.0077
1754.00,0.0077
1753.00,0.0078
1752.00,0.0078
1751.00,0.0077
1750.00,0.0077
1749.00,0.0077
1748.00,0.0077
1747.00,0.0077
1746.00,0.0077
1745.00,0.0078
1744.00,0.0078
1743.00,0.0078
1742.00,0.0078
1741.00,0.0078
1740.00,0.0078
1739.00,0.0077
1738.00,0.0077
1737.00,0.0077
1736.00,0.0078
1735.00,0.0078
1734.00,0.0078
1733.00,0.0078
1732.00,0.0079
1731.00,0.0079
1730.00,0.0079
1729.00,0.0079
1728.00,0.0080
1727.00,0.0080
1726.00,0.0081
1725.00,0.0081
1724.00,0.0082
1723.00,0.0082
1722.00,0.0082
1721.00,0.0082
1720.00,0.0082
1719.00,0.0082
1718.00,0.0083
1717.00,0.0084
1716.00,0.0086
1715.00,0.0087
1714.00,0.0088
1713.00,0.0089
1712.00,0.0089
1711.00,0.0090
1710.00,0.0090
1709.00,0.0090
1708.00,0.0091
1707.00,0.0091
1706.00,0.0092
1705.00,0.0093
1704.00,0.0093
1703.00,0.0094
1702.00,0.0095
1701.00,0.0096
1700.00,0.0097
1699.00,0.0098
1698.00,0.0099
1697.00,0.0101
1696.00,0.0104
1695.00,0.0106
1694.00,0.0108
1693.00,0.0109
1692.00,0.0110
1691.00,0.0111
1690.00,0.0112
1689.00,0.0113
1688.00,0.0114
1687.00,0.0115
1686.00,0.0116
1685.00,0.0118
1684.00,0.0122
1683.00,0.0125
1682.00,0.0127
1681.00,0.0129
1680.00,0.0130
1679.00,0.0130
1678.00,0.0131
1677.00,0.0132
1676.00,0.0134
1675.00,0.0135
1674.00,0.0136
1673.00,0.0137
1672.00,0.0137
1671.00,0.0138
1670.00,0.0139
1669.00,0.0142
1668.00,0.0144
1667.00,0.0145
1666.00,0.0145
1665.00,0.0146
1664.00,0.0147
1663.00,0.0149
1662.00,0.0151
1661.00,0.0154
1660.00,0.0156
1659.00,0.0158
1658.00,0.0159
1657.00,0.0159
1656.00,0.0161
1655.00,0.0163
1654.00,0.0169
1653.00,0.0180
1652.00,0.0189
1651.00,0.0193
1650.00,0.0194
1649.00,0.0196
1648.00,0.0203
1647.00,0.0214
1646.00,0.0228
1645.00,0.0241
1644.00,0.0253
1643.00,0.0264
1642.00,0.0277
1641.00,0.0293
1640.00,0.0311
1639.00,0.0330
1638.00,0.0352
1637.00,0.0384
1636.00,0.0433
1635.00,0.0493
1634.00,0.0548
1633.00,0.0599
1632.00,0.0649
1631.00,0.0703
1630.00,0.0765
1629.00,0.0835
1628.00,0.0910
1627.00,0.0980
1626.00,0.1039
1625.00,0.1093
1624.00,0.1148
1623.00,0.1203
1622.00,0.1247
1621.00,0.1274
1620.00,0.1287
1619.00,0.1297
1618.00,0.1316
1617.00,0.1349
1616.00,0.1388
1615.00,0.1415
1614.00,0.1426
1613.00,0.1427
1612.00,0.1428
1611.00,0.1429
1610.00,0.1428
1609.00,0.1422
1608.00,0.1411
1607.00,0.1395
1606.00,0.1373
1605.00,0.1346
1604.00,0.1316
1603.00,0.1284
1602.00,0.1251
1601.00,0.1217
1600.00,0.1182
1599.00,0.1149
1598.00,0.1117
1597.00,0.1088
1596.00,0.1061
1595.00,0.1039
1594.00,0.1020
1593.00,0.1005
1592.00,0.0992
1591.00,0.0983
1590.00,0.0978
1589.00,0.0977
1588.00,0.0978
1587.00,0.0983
1586.00,0.0991
1585.00,0.1002
1584.00,0.1015
1583.00,0.1031
1582.00,0.1050
1581.00,0.1070
1580.00,0.1086
1579.00,0.1102
1578.00,0.1122
1577.00,0.1159
1576.00,0.1210
1575.00,0.1260
1574.00,0.1293
1573.00,0.1311
1572.00,0.1327
1571.00,0.1356
1570.00,0.1403
1569.00,0.1457
1568.00,0.1501
1567.00,0.1534
1566.00,0.1563
1565.00,0.1596
1564.00,0.1626
1563.00,0.1645
1562.00,0.1650
1561.00,0.1655
1560.00,0.1691
1559.00,0.1775
1558.00,0.1854
1557.00,0.1884
1556.00,0.1882
1555.00,0.1877
1554.00,0.1876
1553.00,0.1875
1552.00,0.1867
1551.00,0.1857
1550.00,0.1846
1549.00,0.1834
1548.00,0.1815
1547.00,0.1789
1546.00,0.1760
1545.00,0.1732
1544.00,0.1706
1543.00,0.1677
1542.00,0.1647
1541.00,0.1626
1540.00,0.1619
1539.00,0.1611
1538.00,0.1586
1537.00,0.1544
1536.00,0.1497
1535.00,0.1454
1534.00,0.1422
1533.00,0.1399
1532.00,0.1376
1531.00,0.1345
1530.00,0.1308
1529.00,0.1272
1528.00,0.1241
1527.00,0.1213
1526.00,0.1187
1525.00,0.1159
1524.00,0.1130
1523.00,0.1101
1522.00,0.1078
1521.00,0.1061
1520.00,0.1044
1519.00,0.1020
1518.00,0.0994
1517.00,0.0971
1516.00,0.0953
1515.00,0.0935
1514.00,0.0912
1513.00,0.0890
1512.00,0.0869
1511.00,0.0848
1510.00,0.0826
1509.00,0.0804
1508.00,0.0789
1507.00,0.0787
1506.00,0.0789
1505.00,0.0784
1504.00,0.0771
1503.00,0.0753
1502.00,0.0734
1501.00,0.0719
1500.00,0.0708
1499.00,0.0699
1498.00,0.0692
1497.00,0.0689
1496.00,0.0687
1495.00,0.0683
1494.00,0.0674
1493.00,0.0663
1492.00,0.0653
1491.00,0.0646
1490.00,0.0642
1489.00,0.0640
1488.00,0.0639
1487.00,0.0637
1486.00,0.0634
1485.00,0.0633
1484.00,0.0636
1483.00,0.0644
1482.00,0.0660
1481.00,0.0686
1480.00,0.0720
1479.00,0.0760
1478.00,0.0803
1477.00,0.0851
1476.00,0.0894
1475.00,0.0925
1474.00,0.0939
1473.00,0.0939
1472.00,0.0924
1471.00,0.0897
1470.00,0.0862
1469.00,0.0827
1468.00,0.0798
1467.00,0.0778
1466.00,0.0770
1465.00,0.0775
1464.00,0.0787
1463.00,0.0798
1462.00,0.0805
1461.00,0.0810
1460.00,0.0818
1459.00,0.0836
1458.00,0.0871
1457.00,0.0927
1456.00,0.0985
1455.00,0.1030
1454.00,0.1068
1453.00,0.1110
1452.00,0.1159
1451.00,0.1205
1450.00,0.1235
1449.00,0.1246
1448.00,0.1240
1447.00,0.1222
1446.00,0.1199
1445.00,0.1176
1444.00,0.1160
1443.00,0.1149
1442.00,0.1142
1441.00,0.1134
1440.00,0.1122
1439.00,0.1107
1438.00,0.1093
1437.00,0.1082
1436.00,0.1073
1435.00,0.1059
1434.00,0.1037
1433.00,0.1011
1432.00,0.0985
1431.00,0.0962
1430.00,0.0941
1429.00,0.0921
1428.00,0.0904
1427.00,0.0891
1426.00,0.0883
1425.00,0.0882
1424.00,0.0892
1423.00,0.0907
1422.00,0.0924
1421.00,0.0948
1420.00,0.0990
1419.00,0.1050
1418.00,0.1115
1417.00,0.1173
1416.00,0.1226
1415.00,0.1279
1414.00,0.1333
1413.00,0.1387
1412.00,0.1441
1411.00,0.1493
1410.00,0.1537
1409.00,0.1574
1408.00,0.1604
1407.00,0.1628
1406.00,0.1649
1405.00,0.1669
1404.00,0.1687
1403.00,0.1696
1402.00,0.1697
1401.00,0.1696
1400.00,0.1698
1399.00,0.1705
1398.00,0.1709
1397.00,0.1711
1396.00,0.1716
1395.00,0.1728
1394.00,0.1745
1393.00,0.1761
1392.00,0.1775
1391.00,0.1789
1390.00,0.1808
1389.00,0.1841
1388.00,0.1890
1387.00,0.1953
1386.00,0.2019
1385.00,0.2083
1384.00,0.2147
1383.00,0.2215
1382.00,0.2283
1381.00,0.2347
1380.00,0.2403
1379.00,0.2448
1378.00,0.2476
1377.00,0.2488
1376.00,0.2484
1375.00,0.2469
1374.00,0.2441
1373.00,0.2399
1372.00,0.2344
1371.00,0.2277
1370.00,0.2204
1369.00,0.2131
1368.00,0.2059
1367.00,0.1988
1366.00,0.1918
1365.00,0.1851
1364.00,0.1788
1363.00,0.1731
1362.00,0.1678
1361.00,0.1628
1360.00,0.1578
1359.00,0.1528
1358.00,0.1479
1357.00,0.1432
1356.00,0.1388
1355.00,0.1345
1354.00,0.1304
1353.00,0.1265
1352.00,0.1228
1351.00,0.1192
1350.00,0.1158
1349.00,0.1125
1348.00,0.1092
1347.00,0.1060
1346.00,0.1028
1345.00,0.0997
1344.00,0.0968
1343.00,0.0940
1342.00,0.0914
1341.00,0.0889
1340.00,0.0866
1339.00,0.0845
1338.00,0.0825
1337.00,0.0806
1336.00,0.0788
1335.00,0.0771
1334.00,0.0756
1333.00,0.0742
1332.00,0.0730
1331.00,0.0721
1330.00,0.0713
1329.00,0.0707
1328.00,0.0704
1327.00,0.0704
1326.00,0.0709
1325.00,0.0722
1324.00,0.0743
1323.00,0.0775
1322.00,0.0815
1321.00,0.0857
1320.00,0.0892
1319.00,0.0908
1318.00,0.0901
1317.00,0.0872
1316.00,0.0829
1315.00,0.0782
1314.00,0.0736
1313.00,0.0696
1312.00,0.0662
1311.00,0.0633
1310.00,0.0610
1309.00,0.0591
1308.00,0.0579
1307.00,0.0571
1306.00,0.0570
1305.00,0.0576
1304.00,0.0590
1303.00,0.0615
1302.00,0.0653
1301.00,0.0711
1300.00,0.0793
1299.00,0.0899
1298.00,0.1018
1297.00,0.1133
1296.00,0.1223
1295.00,0.1282
1294.00,0.1314
1293.00,0.1332
1292.00,0.1342
1291.00,0.1343
1290.00,0.1334
1289.00,0.1317
1288.00,0.1293
1287.00,0.1264
1286.00,0.1225
1285.00,0.1176
1284.00,0.1117
1283.00,0.1052
1282.00,0.0987
1281.00,0.0927
1280.00,0.0875
1279.00,0.0830
1278.00,0.0791
1277.00,0.0760
1276.00,0.0734
1275.00,0.0713
1274.00,0.0696
1273.00,0.0684
1272.00,0.0677
1271.00,0.0675
1270.00,0.0678
1269.00,0.0685
1268.00,0.0697
1267.00,0.0710
1266.00,0.0723
1265.00,0.0733
1264.00,0.0740
1263.00,0.0746
1262.00,0.0756
1261.00,0.0774
1260.00,0.0804
1259.00,0.0844
1258.00,0.0888
1257.00,0.0928
1256.00,0.0954
1255.00,0.0960
1254.00,0.0947
1253.00,0.0919
1252.00,0.0882
1251.00,0.0841
1250.00,0.0800
1249.00,0.0762
1248.00,0.0728
1247.00,0.0699
1246.00,0.0674
1245.00,0.0655
1244.00,0.0639
1243.00,0.0626
1242.00,0.0615
1241.00,0.0604
1240.00,0.0593
1239.00,0.0580
1238.00,0.0567
1237.00,0.0553
1236.00,0.0538
1235.00,0.0524
1234.00,0.0511
1233.00,0.0498
1232.00,0.0486
1231.00,0.0475
1230.00,0.0464
1229.00,0.0454
1228.00,0.0444
1227.00,0.0434
1226.00,0.0423
1225.00,0.0413
1224.00,0.0402
1223.00,0.0392
1222.00,0.0382
1221.00,0.0372
1220.00,0.0363
1219.00,0.0355
1218.00,0.0347
1217.00,0.0340
1216.00,0.0333
1215.00,0.0327
1214.00,0.0321
1213.00,0.0316
1212.00,0.0311
1211.00,0.0306
1210.00,0.0302
1209.00,0.0298
1208.00,0.0294
1207.00,0.0291
1206.00,0.0288
1205.00,0.0285
1204.00,0.0282
1203.00,0.0280
1202.00,0.0278
1201.00,0.0276
1200.00,0.0274
1199.00,0.0273
1198.00,0.0272
1197.00,0.0272
1196.00,0.0271
1195.00,0.0271
1194.00,0.0272
1193.00,0.0272
1192.00,0.0274
1191.00,0.0275
1190.00,0.0277
1189.00,0.0280
1188.00,0.0283
1187.00,0.0287
1186.00,0.0293
1185.00,0.0299
1184.00,0.0306
1183.00,0.0315
1182.00,0.0326
1181.00,0.0338
1180.00,0.0353
1179.00,0.0372
1178.00,0.0395
1177.00,0.0426
1176.00,0.0465
1175.00,0.0515
1174.00,0.0574
1173.00,0.0638
1172.00,0.0697
1171.00,0.0740
1170.00,0.0759
1169.00,0.0755
1168.00,0.0735
1167.00,0.0709
1166.00,0.0685
1165.00,0.0665
1164.00,0.0648
1163.00,0.0629
1162.00,0.0607
1161.00,0.0582
1160.00,0.0558
1159.00,0.0536
1158.00,0.0518
1157.00,0.0504
1156.00,0.0492
1155.00,0.0482
1154.00,0.0473
1153.00,0.0465
1152.00,0.0458
1151.00,0.0450
1150.00,0.0443
1149.00,0.0435
1148.00,0.0427
1147.00,0.0418
1146.00,0.0409
1145.00,0.0400
1144.00,0.0392
1143.00,0.0384
1142.00,0.0377
1141.00,0.0370
1140.00,0.0364
1139.00,0.0359
1138.00,0.0353
1137.00,0.0347
1136.00,0.0340
1135.00,0.0333
1134.00,0.0326
1133.00,0.0321
1132.00,0.0317
1131.00,0.0312
1130.00,0.0308
1129.00,0.0303
1128.00,0.0297
1127.00,0.0292
1126.00,0.0287
1125.00,0.0282
1124.00,0.0276
1123.00,0.0271
1122.00,0.0266
1121.00,0.0261
1120.00,0.0256
1119.00,0.0251
1118.00,0.0247
1117.00,0.0242
1116.00,0.0238
1115.00,0.0234
1114.00,0.0231
1113.00,0.0228
1112.00,0.0225
1111.00,0.0223
1110.00,0.0222
1109.00,0.0221
1108.00,0.0220
1107.00,0.0221
1106.00,0.0223
1105.00,0.0226
1104.00,0.0231
1103.00,0.0236
1102.00,0.0243
1101.00,0.0251
1100.00,0.0261
1099.00,0.0272
1098.00,0.0285
1097.00,0.0300
1096.00,0.0318
1095.00,0.0340
1094.00,0.0368
1093.00,0.0402
1092.00,0.0444
1091.00,0.0493
1090.00,0.0548
1089.00,0.0606
1088.00,0.0661
1087.00,0.0707
1086.00,0.0734
1085.00,0.0737
1084.00,0.0715
1083.00,0.0672
1082.00,0.0620
1081.00,0.0566
1080.00,0.0517
1079.00,0.0476
1078.00,0.0442
1077.00,0.0415
1076.00,0.0395
1075.00,0.0381
1074.00,0.0370
1073.00,0.0362
1072.00,0.0355
1071.00,0.0348
1070.00,0.0341
1069.00,0.0335
1068.00,0.0330
1067.00,0.0326
1066.00,0.0325
1065.00,0.0327
1064.00,0.0332
1063.00,0.0341
1062.00,0.0353
1061.00,0.0368
1060.00,0.0384
1059.00,0.0400
1058.00,0.0413
1057.00,0.0422
1056.00,0.0428
1055.00,0.0432
1054.00,0.0433
1053.00,0.0433
1052.00,0.0433
1051.00,0.0432
1050.00,0.0431
1049.00,0.0429
1048.00,0.0428
1047.00,0.0429
1046.00,0.0434
1045.00,0.0444
1044.00,0.0462
1043.00,0.0488
1042.00,0.0524
1041.00,0.0567
1040.00,0.0617
1039.00,0.0673
1038.00,0.0732
1037.00,0.0792
1036.00,0.0845
1035.00,0.0883
1034.00,0.0894
1033.00,0.0872
1032.00,0.0822
1031.00,0.0752
1030.00,0.0675
1029.00,0.0599
1028.00,0.0530
1027.00,0.0470
1026.00,0.0419
1025.00,0.0375
1024.00,0.0338
1023.00,0.0307
1022.00,0.0281
1021.00,0.0260
1020.00,0.0242
1019.00,0.0228
1018.00,0.0215
1017.00,0.0205
1016.00,0.0196
1015.00,0.0189
1014.00,0.0183
1013.00,0.0178
1012.00,0.0173
1011.00,0.0170
1010.00,0.0167
1009.00,0.0164
1008.00,0.0163
1007.00,0.0162
1006.00,0.0162
1005.00,0.0162
1004.00,0.0163
1003.00,0.0164
1002.00,0.0167
1001.00,0.0170
1000.00,0.0175
999.00,0.0182
998.00,0.0190
997.00,0.0199
996.00,0.0210
995.00,0.0222
994.00,0.0236
993.00,0.0251
992.00,0.0269
991.00,0.0289
990.00,0.0314
989.00,0.0342
988.00,0.0373
987.00,0.0405
986.00,0.0434
985.00,0.0457
984.00,0.0471
983.00,0.0477
982.00,0.0475
981.00,0.0467
980.00,0.0456
979.00,0.0443
978.00,0.0425
977.00,0.0405
976.00,0.0384
975.00,0.0364
974.00,0.0347
973.00,0.0334
972.00,0.0325
971.00,0.0320
970.00,0.0317
969.00,0.0317
968.00,0.0316
967.00,0.0315
966.00,0.0314
965.00,0.0312
964.00,0.0310
963.00,0.0310
962.00,0.0312
961.00,0.0319
960.00,0.0333
959.00,0.0352
958.00,0.0375
957.00,0.0401
956.00,0.0432
955.00,0.0468
954.00,0.0511
953.00,0.0558
952.00,0.0605
951.00,0.0647
950.00,0.0683
949.00,0.0710
948.00,0.0724
947.00,0.0718
946.00,0.0690
945.00,0.0643
944.00,0.0588
943.00,0.0534
942.00,0.0485
941.00,0.0445
940.00,0.0412
939.00,0.0384
938.00,0.0361
937.00,0.0342
936.00,0.0326
935.00,0.0314
934.00,0.0305
933.00,0.0299
932.00,0.0295
931.00,0.0293
930.00,0.0292
929.00,0.0292
928.00,0.0293
927.00,0.0296
926.00,0.0302
925.00,0.0313
924.00,0.0328
923.00,0.0350
922.00,0.0375
921.00,0.0401
920.00,0.0426
919.00,0.0446
918.00,0.0467
917.00,0.0492
916.00,0.0526
915.00,0.0562
914.00,0.0584
913.00,0.0575
912.00,0.0534
911.00,0.0475
910.00,0.0417
909.00,0.0374
908.00,0.0350
907.00,0.0345
906.00,0.0355
905.00,0.0373
904.00,0.0393
903.00,0.0407
902.00,0.0407
901.00,0.0391
900.00,0.0363
899.00,0.0328
898.00,0.0294
897.00,0.0266
896.00,0.0244
895.00,0.0229
894.00,0.0221
893.00,0.0218
892.00,0.0219
891.00,0.0223
890.00,0.0230
889.00,0.0239
888.00,0.0247
887.00,0.0255
886.00,0.0262
885.00,0.0265
884.00,0.0266
883.00,0.0264
882.00,0.0260
881.00,0.0254
880.00,0.0247
879.00,0.0240
878.00,0.0234
877.00,0.0229
876.00,0.0226
875.00,0.0225
874.00,0.0226
873.00,0.0229
872.00,0.0236
871.00,0.0247
870.00,0.0263
869.00,0.0284
868.00,0.0312
867.00,0.0345
866.00,0.0382
865.00,0.0417
864.00,0.0447
863.00,0.0467
862.00,0.0476
861.00,0.0480
860.00,0.0484
859.00,0.0493
858.00,0.0512
857.00,0.0542
856.00,0.0585
855.00,0.0638
854.00,0.0699
853.00,0.0763
852.00,0.0825
851.00,0.0877
850.00,0.0915
849.00,0.0935
848.00,0.0937
847.00,0.0924
846.00,0.0901
845.00,0.0873
844.00,0.0842
843.00,0.0812
842.00,0.0781
841.00,0.0751
840.00,0.0721
839.00,0.0694
838.00,0.0670
837.00,0.0650
836.00,0.0635
835.00,0.0624
834.00,0.0616
833.00,0.0610
832.00,0.0605
831.00,0.0599
830.00,0.0592
829.00,0.0583
828.00,0.0571
827.00,0.0557
826.00,0.0540
825.00,0.0521
824.00,0.0501
823.00,0.0481
822.00,0.0462
821.00,0.0444
820.00,0.0426
819.00,0.0410
818.00,0.0396
817.00,0.0383
816.00,0.0372
815.00,0.0362
814.00,0.0354
813.00,0.0348
812.00,0.0345
811.00,0.0344
810.00,0.0346
809.00,0.0352
808.00,0.0362
807.00,0.0377
806.00,0.0398
805.00,0.0425
804.00,0.0459
803.00,0.0501
802.00,0.0550
801.00,0.0606
800.00,0.0666
799.00,0.0724
798.00,0.0776
797.00,0.0816
796.00,0.0842
795.00,0.0854
794.00,0.0855
793.00,0.0853
792.00,0.0851
791.00,0.0856
790.00,0.0865
789.00,0.0878
788.00,0.0886
787.00,0.0884
786.00,0.0865
785.00,0.0828
784.00,0.0778
783.00,0.0719
782.00,0.0658
781.00,0.0600
780.00,0.0547
779.00,0.0500
778.00,0.0460
777.00,0.0426
776.00,0.0397
775.00,0.0373
774.00,0.0352
773.00,0.0333
772.00,0.0317
771.00,0.0302
770.00,0.0289
769.00,0.0277
768.00,0.0265
767.00,0.0254
766.00,0.0244
765.00,0.0234
764.00,0.0224
763.00,0.0216
762.00,0.0208
761.00,0.0201
760.00,0.0194
759.00,0.0188
758.00,0.0182
757.00,0.0177
756.00,0.0172
755.00,0.0167
754.00,0.0162
753.00,0.0159
752.00,0.0155
751.00,0.0152
750.00,0.0149
749.00,0.0145
748.00,0.0143
747.00,0.0140
746.00,0.0138
745.00,0.0136
744.00,0.0134
743.00,0.0132
742.00,0.0130
741.00,0.0128
740.00,0.0126
739.00,0.0124
738.00,0.0123
737.00,0.0122
736.00,0.0122
735.00,0.0121
734.00,0.0120
733.00,0.0119
732.00,0.0119
731.00,0.0118
730.00,0.0118
729.00,0.0119
728.00,0.0120
727.00,0.0121
726.00,0.0122
725.00,0.0123
724.00,0.0125
723.00,0.0128
722.00,0.0131
721.00,0.0135
720.00,0.0139
719.00,0.0143
718.00,0.0147
717.00,0.0152
716.00,0.0159
715.00,0.0167
714.00,0.0176
713.00,0.0186
712.00,0.0197
711.00,0.0209
710.00,0.0222
709.00,0.0237
708.00,0.0254
707.00,0.0272
706.00,0.0292
705.00,0.0313
704.00,0.0334
703.00,0.0356
702.00,0.0378
701.00,0.0400
700.00,0.0420
699.00,0.0438
698.00,0.0454
697.00,0.0466
696.00,0.0475
695.00,0.0479
694.00,0.0481
693.00,0.0479
692.00,0.0475
691.00,0.0469
690.00,0.0461
689.00,0.0453
688.00,0.0446
687.00,0.0439
686.00,0.0433
685.00,0.0429
684.00,0.0427
683.00,0.0426
682.00,0.0426
681.00,0.0429
680.00,0.0434
679.00,0.0442
678.00,0.0450
677.00,0.0461
676.00,0.0472
675.00,0.0484
674.00,0.0497
673.00,0.0507
672.00,0.0510
671.00,0.0507
670.00,0.0505
669.00,0.0509
668.00,0.0527
667.00,0.0557
666.00,0.0575
665.00,0.0574
664.00,0.0571
663.00,0.0571
662.00,0.0571
661.00,0.0571
660.00,0.0575
659.00,0.0582
658.00,0.0594
657.00,0.0611
656.00,0.0635
655.00,0.0666
654.00,0.0704
653.00,0.0749
652.00,0.0802
651.00,0.0863
650.00,0.0929
649.00,0.1001
648.00,0.1077
647.00,0.1153
646.00,0.1223
645.00,0.1285
644.00,0.1337
643.00,0.1375
642.00,0.1395
641.00,0.1398
640.00,0.1386
639.00,0.1358
638.00,0.1316
637.00,0.1264
636.00,0.1204
635.00,0.1140
634.00,0.1073
633.00,0.1005
632.00,0.0939
631.00,0.0874
630.00,0.0813
629.00,0.0755
628.00,0.0701
627.00,0.0651
626.00,0.0605
625.00,0.0562
624.00,0.0522
623.00,0.0485
622.00,0.0452
621.00,0.0421
620.00,0.0393
619.00,0.0369
618.00,0.0346
617.00,0.0325
616.00,0.0305
615.00,0.0287
614.00,0.0271
613.00,0.0256
612.00,0.0243
611.00,0.0231
610.00,0.0220
609.00,0.0210
608.00,0.0200
607.00,0.0191
606.00,0.0183
605.00,0.0176
604.00,0.0169
603.00,0.0163
602.00,0.0159
601.00,0.0154
600.00,0.0150
599.00,0.0146
598.00,0.0142
597.00,0.0139
596.00,0.0136
595.00,0.0134
594.00,0.0132
593.00,0.0130
592.00,0.0129
591.00,0.0128
590.00,0.0129
589.00,0.0130
588.00,0.0132
587.00,0.0135
586.00,0.0138
585.00,0.0143
584.00,0.0148
583.00,0.0155
582.00,0.0163
581.00,0.0173
580.00,0.0184
579.00,0.0195
578.00,0.0204
577.00,0.0211
576.00,0.0216
575.00,0.0218
574.00,0.0219
573.00,0.0219
572.00,0.0217
571.00,0.0212
570.00,0.0203
569.00,0.0190
568.00,0.0176
567.00,0.0163
566.00,0.0151
565.00,0.0141
564.00,0.0133
563.00,0.0126
562.00,0.0121
561.00,0.0117
560.00,0.0113
559.00,0.0109
558.00,0.0106
557.00,0.0104
556.00,0.0103
555.00,0.0102
554.00,0.0101
553.00,0.0100
552.00,0.0098
551.00,0.0097
550.00,0.0096
549.00,0.0096
548.00,0.0095
547.00,0.0095
546.00,0.0096
545.00,0.0097
544.00,0.0097
543.00,0.0098
542.00,0.0099
541.00,0.0099
540.00,0.0098
539.00,0.0098
538.00,0.0099
537.00,0.0101
536.00,0.0102
535.00,0.0103
534.00,0.0104
533.00,0.0105
532.00,0.0106
531.00,0.0106
530.00,0.0107
529.00,0.0109
528.00,0.0110
527.00,0.0112
526.00,0.0114
525.00,0.0115
524.00,0.0117
523.00,0.0118
522.00,0.0120
521.00,0.0121
520.00,0.0123
519.00,0.0125
518.00,0.0128
517.00,0.0131
516.00,0.0132
515.00,0.0133
514.00,0.0134
513.00,0.0136
512.00,0.0138
511.00,0.0141
510.00,0.0143
509.00,0.0144
508.00,0.0145
507.00,0.0146
506.00,0.0146
505.00,0.0146
504.00,0.0146
503.00,0.0146
502.00,0.0150
501.00,0.0154
500.00,0.0158
499.00,0.0160
498.00,0.0162
497.00,0.0163
496.00,0.0166
495.00,0.0168
494.00,0.0171
493.00,0.0173
492.00,0.0175
491.00,0.0176
490.00,0.0179
489.00,0.0182
488.00,0.0185
487.00,0.0187
486.00,0.0190
485.00,0.0195
484.00,0.0201
483.00,0.0208
482.00,0.0216
481.00,0.0225
480.00,0.0234
479.00,0.0243
478.00,0.0254
477.00,0.0266
476.00,0.0279
475.00,0.0293
474.00,0.0309
473.00,0.0330
472.00,0.0354
471.00,0.0381
470.00,0.0412
469.00,0.0446
468.00,0.0485
467.00,0.0529
466.00,0.0576
465.00,0.0630
464.00,0.0691
463.00,0.0761
462.00,0.0841
461.00,0.0931
460.00,0.1034
459.00,0.1154
458.00,0.1293
457.00,0.1445
456.00,0.1590
455.00,0.1713
454.00,0.1811
453.00,0.1888
452.00,0.1944
451.00,0.1976
450.00,0.1984
449.00,0.1969
448.00,0.1925
447.00,0.1839
446.00,0.1713
445.00,0.1561
444.00,0.1400
443.00,0.1239
442.00,0.1091
441.00,0.0966
440.00,0.0866
439.00,0.0783
438.00,0.0714
437.00,0.0658
436.00,0.0614
435.00,0.0580
434.00,0.0551
433.00,0.0527
432.00,0.0507
431.00,0.0492
430.00,0.0479
429.00,0.0469
428.00,0.0461
427.00,0.0455
426.00,0.0449
425.00,0.0443
424.00,0.0438
423.00,0.0435
422.00,0.0434
421.00,0.0435
420.00,0.0438
419.00,0.0442
418.00,0.0447
417.00,0.0453
416.00,0.0459
415.00,0.0466
414.00,0.0471
413.00,0.0476
412.00,0.0481
411.00,0.0489
410.00,0.0500
409.00,0.0515
408.00,0.0533
407.00,0.0554
406.00,0.0572
405.00,0.0589
404.00,0.0609
403.00,0.0631
402.00,0.0654
401.00,0.0675
400.00,0.0699
