Created as New Dataset,Sample 032 By YargerLab Date Friday, November 01 2024
cm-1,A
4000.00,0.0044
3999.00,0.0044
3998.00,0.0044
3997.00,0.0044
3996.00,0.0044
3995.00,0.0044
3994.00,0.0044
3993.00,0.0044
3992.00,0.0044
3991.00,0.0044
3990.00,0.0044
3989.00,0.0044
3988.00,0.0044
3987.00,0.0044
3986.00,0.0044
3985.00,0.0044
3984.00,0.0044
3983.00,0.0044
3982.00,0.0044
3981.00,0.0044
3980.00,0.0044
3979.00,0.0044
3978.00,0.0044
3977.00,0.0045
3976.00,0.0045
3975.00,0.0045
3974.00,0.0045
3973.00,0.0045
3972.00,0.0045
3971.00,0.0045
3970.00,0.0045
3969.00,0.0045
3968.00,0.0045
3967.00,0.0044
3966.00,0.0044
3965.00,0.0044
3964.00,0.0044
3963.00,0.0044
3962.00,0.0044
3961.00,0.0044
3960.00,0.0044
3959.00,0.0044
3958.00,0.0044
3957.00,0.0044
3956.00,0.0044
3955.00,0.0044
3954.00,0.0044
3953.00,0.0044
3952.00,0.0044
3951.00,0.0044
3950.00,0.0044
3949.00,0.0044
3948.00,0.0044
3947.00,0.0044
3946.00,0.0044
3945.00,0.0044
3944.00,0.0044
3943.00,0.0044
3942.00,0.0044
3941.00,0.0044
3940.00,0.0044
3939.00,0.0044
3938.00,0.0044
3937.00,0.0044
3936.00,0.0044
3935.00,0.0044
3934.00,0.0044
3933.00,0.0044
3932.00,0.0044
3931.00,0.0044
3930.00,0.0044
3929.00,0.0044
3928.00,0.0044
3927.00,0.0044
3926.00,0.0044
3925.00,0.0044
3924.00,0.0044
3923.00,0.0044
3922.00,0.0044
3921.00,0.0043
3920.00,0.0043
3919.00,0.0044
3918.00,0.0044
3917.00,0.0044
3916.00,0.0044
3915.00,0.0044
3914.00,0.0044
3913.00,0.0044
3912.00,0.0044
3911.00,0.0044
3910.00,0.0044
3909.00,0.0043
3908.00,0.0043
3907.00,0.0043
3906.00,0.0043
3905.00,0.0043
3904.00,0.0043
3903.00,0.0044
3902.00,0.0044
3901.00,0.0044
3900.00,0.0044
3899.00,0.0044
3898.00,0.0044
3897.00,0.0044
3896.00,0.0044
3895.00,0.0044
3894.00,0.0043
3893.00,0.0043
3892.00,0.0043
3891.00,0.0043
3890.00,0.0043
3889.00,0.0043
3888.00,0.0043
3887.00,0.0043
3886.00,0.0043
3885.00,0.0043
3884.00,0.0043
3883.00,0.0043
3882.00,0.0043
3881.00,0.0043
3880.00,0.0043
3879.00,0.0043
3878.00,0.0043
3877.00,0.0043
3876.00,0.0043
3875.00,0.0043
3874.00,0.0043
3873.00,0.0043
3872.00,0.0043
3871.00,0.0043
3870.00,0.0043
3869.00,0.0043
3868.00,0.0043
3867.00,0.0043
3866.00,0.0043
3865.00,0.0043
3864.00,0.0043
3863.00,0.0043
3862.00,0.0043
3861.00,0.0043
3860.00,0.0043
3859.00,0.0043
3858.00,0.0042
3857.00,0.0042
3856.00,0.0042
3855.00,0.0042
3854.00,0.0042
3853.00,0.0042
3852.00,0.0042
3851.00,0.0042
3850.00,0.0042
3849.00,0.0042
3848.00,0.0042
3847.00,0.0043
3846.00,0.0043
3845.00,0.0043
3844.00,0.0043
3843.00,0.0043
3842.00,0.0043
3841.00,0.0043
3840.00,0.0042
3839.00,0.0042
3838.00,0.0042
3837.00,0.0042
3836.00,0.0042
3835.00,0.0042
3834.00,0.0042
3833.00,0.0042
3832.00,0.0042
3831.00,0.0042
3830.00,0.0042
3829.00,0.0042
3828.00,0.0042
3827.00,0.0042
3826.00,0.0042
3825.00,0.0042
3824.00,0.0042
3823.00,0.0042
3822.00,0.0042
3821.00,0.0042
3820.00,0.0042
3819.00,0.0041
3818.00,0.0041
3817.00,0.0041
3816.00,0.0042
3815.00,0.0042
3814.00,0.0042
3813.00,0.0042
3812.00,0.0042
3811.00,0.0042
3810.00,0.0042
3809.00,0.0041
3808.00,0.0041
3807.00,0.0041
3806.00,0.0041
3805.00,0.0041
3804.00,0.0041
3803.00,0.0041
3802.00,0.0041
3801.00,0.0041
3800.00,0.0041
3799.00,0.0041
3798.00,0.0041
3797.00,0.0042
3796.00,0.0042
3795.00,0.0042
3794.00,0.0042
3793.00,0.0042
3792.00,0.0042
3791.00,0.0042
3790.00,0.0042
3789.00,0.0042
3788.00,0.0042
3787.00,0.0042
3786.00,0.0042
3785.00,0.0042
3784.00,0.0042
3783.00,0.0042
3782.00,0.0042
3781.00,0.0042
3780.00,0.0042
3779.00,0.0042
3778.00,0.0042
3777.00,0.0042
3776.00,0.0042
3775.00,0.0042
3774.00,0.0042
3773.00,0.0042
3772.00,0.0042
3771.00,0.0042
3770.00,0.0042
3769.00,0.0042
3768.00,0.0042
3767.00,0.0042
3766.00,0.0042
3765.00,0.0042
3764.00,0.0042
3763.00,0.0042
3762.00,0.0041
3761.00,0.0041
3760.00,0.0041
3759.00,0.0042
3758.00,0.0042
3757.00,0.0042
3756.00,0.0042
3755.00,0.0041
3754.00,0.0041
3753.00,0.0041
3752.00,0.0041
3751.00,0.0041
3750.00,0.0041
3749.00,0.0041
3748.00,0.0041
3747.00,0.0041
3746.00,0.0041
3745.00,0.0041
3744.00,0.0041
3743.00,0.0041
3742.00,0.0041
3741.00,0.0041
3740.00,0.0041
3739.00,0.0041
3738.00,0.0041
3737.00,0.0041
3736.00,0.0041
3735.00,0.0041
3734.00,0.0041
3733.00,0.0041
3732.00,0.0041
3731.00,0.0041
3730.00,0.0041
3729.00,0.0041
3728.00,0.0041
3727.00,0.0042
3726.00,0.0042
3725.00,0.0042
3724.00,0.0042
3723.00,0.0041
3722.00,0.0041
3721.00,0.0041
3720.00,0.0041
3719.00,0.0041
3718.00,0.0041
3717.00,0.0041
3716.00,0.0041
3715.00,0.0041
3714.00,0.0041
3713.00,0.0041
3712.00,0.0041
3711.00,0.0041
3710.00,0.0041
3709.00,0.0041
3708.00,0.0041
3707.00,0.0041
3706.00,0.0041
3705.00,0.0041
3704.00,0.0041
3703.00,0.0041
3702.00,0.0041
3701.00,0.0041
3700.00,0.0041
3699.00,0.0040
3698.00,0.0040
3697.00,0.0040
3696.00,0.0040
3695.00,0.0040
3694.00,0.0040
3693.00,0.0040
3692.00,0.0039
3691.00,0.0039
3690.00,0.0039
3689.00,0.0038
3688.00,0.0038
3687.00,0.0037
3686.00,0.0037
3685.00,0.0037
3684.00,0.0036
3683.00,0.0035
3682.00,0.0034
3681.00,0.0034
3680.00,0.0033
3679.00,0.0032
3678.00,0.0031
3677.00,0.0029
3676.00,0.0029
3675.00,0.0028
3674.00,0.0027
3673.00,0.0026
3672.00,0.0025
3671.00,0.0025
3670.00,0.0025
3669.00,0.0025
3668.00,0.0024
3667.00,0.0024
3666.00,0.0024
3665.00,0.0024
3664.00,0.0023
3663.00,0.0023
3662.00,0.0022
3661.00,0.0022
3660.00,0.0022
3659.00,0.0022
3658.00,0.0021
3657.00,0.0022
3656.00,0.0022
3655.00,0.0022
3654.00,0.0022
3653.00,0.0023
3652.00,0.0023
3651.00,0.0023
3650.00,0.0024
3649.00,0.0024
3648.00,0.0025
3647.00,0.0025
3646.00,0.0025
3645.00,0.0026
3644.00,0.0026
3643.00,0.0027
3642.00,0.0027
3641.00,0.0028
3640.00,0.0028
3639.00,0.0028
3638.00,0.0028
3637.00,0.0028
3636.00,0.0029
3635.00,0.0031
3634.00,0.0033
3633.00,0.0034
3632.00,0.0035
3631.00,0.0036
3630.00,0.0036
3629.00,0.0037
3628.00,0.0038
3627.00,0.0038
3626.00,0.0038
3625.00,0.0038
3624.00,0.0039
3623.00,0.0039
3622.00,0.0039
3621.00,0.0039
3620.00,0.0039
3619.00,0.0040
3618.00,0.0040
3617.00,0.0040
3616.00,0.0040
3615.00,0.0040
3614.00,0.0040
3613.00,0.0040
3612.00,0.0040
3611.00,0.0040
3610.00,0.0041
3609.00,0.0041
3608.00,0.0041
3607.00,0.0041
3606.00,0.0041
3605.00,0.0041
3604.00,0.0041
3603.00,0.0041
3602.00,0.0041
3601.00,0.0041
3600.00,0.0041
3599.00,0.0041
3598.00,0.0041
3597.00,0.0041
3596.00,0.0041
3595.00,0.0041
3594.00,0.0042
3593.00,0.0042
3592.00,0.0041
3591.00,0.0041
3590.00,0.0041
3589.00,0.0041
3588.00,0.0042
3587.00,0.0042
3586.00,0.0042
3585.00,0.0042
3584.00,0.0042
3583.00,0.0042
3582.00,0.0042
3581.00,0.0042
3580.00,0.0042
3579.00,0.0041
3578.00,0.0041
3577.00,0.0041
3576.00,0.0041
3575.00,0.0041
3574.00,0.0041
3573.00,0.0041
3572.00,0.0041
3571.00,0.0041
3570.00,0.0041
3569.00,0.0042
3568.00,0.0042
3567.00,0.0042
3566.00,0.0042
3565.00,0.0042
3564.00,0.0042
3563.00,0.0042
3562.00,0.0042
3561.00,0.0042
3560.00,0.0042
3559.00,0.0042
3558.00,0.0042
3557.00,0.0042
3556.00,0.0042
3555.00,0.0042
3554.00,0.0042
3553.00,0.0042
3552.00,0.0042
3551.00,0.0042
3550.00,0.0042
3549.00,0.0042
3548.00,0.0042
3547.00,0.0042
3546.00,0.0042
3545.00,0.0042
3544.00,0.0042
3543.00,0.0042
3542.00,0.0042
3541.00,0.0042
3540.00,0.0042
3539.00,0.0042
3538.00,0.0042
3537.00,0.0042
3536.00,0.0042
3535.00,0.0042
3534.00,0.0042
3533.00,0.0042
3532.00,0.0042
3531.00,0.0042
3530.00,0.0042
3529.00,0.0042
3528.00,0.0042
3527.00,0.0042
3526.00,0.0042
3525.00,0.0042
3524.00,0.0042
3523.00,0.0042
3522.00,0.0042
3521.00,0.0042
3520.00,0.0042
3519.00,0.0042
3518.00,0.0042
3517.00,0.0042
3516.00,0.0042
3515.00,0.0042
3514.00,0.0042
3513.00,0.0042
3512.00,0.0042
3511.00,0.0042
3510.00,0.0042
3509.00,0.0042
3508.00,0.0042
3507.00,0.0042
3506.00,0.0042
3505.00,0.0042
3504.00,0.0042
3503.00,0.0042
3502.00,0.0042
3501.00,0.0042
3500.00,0.0042
3499.00,0.0042
3498.00,0.0042
3497.00,0.0042
3496.00,0.0042
3495.00,0.0042
3494.00,0.0042
3493.00,0.0042
3492.00,0.0042
3491.00,0.0042
3490.00,0.0042
3489.00,0.0042
3488.00,0.0042
3487.00,0.0042
3486.00,0.0042
3485.00,0.0042
3484.00,0.0042
3483.00,0.0042
3482.00,0.0042
3481.00,0.0042
3480.00,0.0042
3479.00,0.0041
3478.00,0.0041
3477.00,0.0041
3476.00,0.0041
3475.00,0.0041
3474.00,0.0042
3473.00,0.0042
3472.00,0.0042
3471.00,0.0042
3470.00,0.0042
3469.00,0.0042
3468.00,0.0042
3467.00,0.0042
3466.00,0.0042
3465.00,0.0042
3464.00,0.0042
3463.00,0.0042
3462.00,0.0042
3461.00,0.0042
3460.00,0.0042
3459.00,0.0042
3458.00,0.0042
3457.00,0.0042
3456.00,0.0042
3455.00,0.0042
3454.00,0.0042
3453.00,0.0042
3452.00,0.0042
3451.00,0.0042
3450.00,0.0042
3449.00,0.0042
3448.00,0.0042
3447.00,0.0042
3446.00,0.0042
3445.00,0.0043
3444.00,0.0042
3443.00,0.0042
3442.00,0.0042
3441.00,0.0042
3440.00,0.0042
3439.00,0.0042
3438.00,0.0042
3437.00,0.0042
3436.00,0.0042
3435.00,0.0042
3434.00,0.0042
3433.00,0.0042
3432.00,0.0042
3431.00,0.0042
3430.00,0.0042
3429.00,0.0042
3428.00,0.0042
3427.00,0.0042
3426.00,0.0042
3425.00,0.0042
3424.00,0.0043
3423.00,0.0043
3422.00,0.0043
3421.00,0.0043
3420.00,0.0043
3419.00,0.0043
3418.00,0.0043
3417.00,0.0043
3416.00,0.0043
3415.00,0.0043
3414.00,0.0043
3413.00,0.0043
3412.00,0.0043
3411.00,0.0043
3410.00,0.0043
3409.00,0.0043
3408.00,0.0043
3407.00,0.0043
3406.00,0.0044
3405.00,0.0044
3404.00,0.0044
3403.00,0.0044
3402.00,0.0044
3401.00,0.0044
3400.00,0.0044
3399.00,0.0044
3398.00,0.0044
3397.00,0.0044
3396.00,0.0044
3395.00,0.0044
3394.00,0.0044
3393.00,0.0044
3392.00,0.0044
3391.00,0.0044
3390.00,0.0044
3389.00,0.0044
3388.00,0.0044
3387.00,0.0044
3386.00,0.0045
3385.00,0.0044
3384.00,0.0044
3383.00,0.0044
3382.00,0.0045
3381.00,0.0045
3380.00,0.0045
3379.00,0.0045
3378.00,0.0045
3377.00,0.0045
3376.00,0.0045
3375.00,0.0045
3374.00,0.0045
3373.00,0.0045
3372.00,0.0045
3371.00,0.0045
3370.00,0.0045
3369.00,0.0045
3368.00,0.0045
3367.00,0.0045
3366.00,0.0045
3365.00,0.0045
3364.00,0.0045
3363.00,0.0045
3362.00,0.0045
3361.00,0.0045
3360.00,0.0045
3359.00,0.0045
3358.00,0.0046
3357.00,0.0046
3356.00,0.0046
3355.00,0.0046
3354.00,0.0046
3353.00,0.0046
3352.00,0.0046
3351.00,0.0046
3350.00,0.0046
3349.00,0.0046
3348.00,0.0046
3347.00,0.0046
3346.00,0.0046
3345.00,0.0046
3344.00,0.0046
3343.00,0.0046
3342.00,0.0046
3341.00,0.0046
3340.00,0.0047
3339.00,0.0047
3338.00,0.0047
3337.00,0.0047
3336.00,0.0047
3335.00,0.0047
3334.00,0.0047
3333.00,0.0047
3332.00,0.0047
3331.00,0.0048
3330.00,0.0048
3329.00,0.0048
3328.00,0.0048
3327.00,0.0048
3326.00,0.0048
3325.00,0.0048
3324.00,0.0048
3323.00,0.0048
3322.00,0.0049
3321.00,0.0049
3320.00,0.0049
3319.00,0.0049
3318.00,0.0049
3317.00,0.0049
3316.00,0.0049
3315.00,0.0050
3314.00,0.0050
3313.00,0.0050
3312.00,0.0050
3311.00,0.0050
3310.00,0.0050
3309.00,0.0050
3308.00,0.0050
3307.00,0.0050
3306.00,0.0050
3305.00,0.0050
3304.00,0.0051
3303.00,0.0051
3302.00,0.0051
3301.00,0.0051
3300.00,0.0051
3299.00,0.0052
3298.00,0.0052
3297.00,0.0052
3296.00,0.0052
3295.00,0.0052
3294.00,0.0052
3293.00,0.0052
3292.00,0.0052
3291.00,0.0053
3290.00,0.0053
3289.00,0.0053
3288.00,0.0053
3287.00,0.0054
3286.00,0.0054
3285.00,0.0054
3284.00,0.0054
3283.00,0.0054
3282.00,0.0055
3281.00,0.0055
3280.00,0.0055
3279.00,0.0055
3278.00,0.0055
3277.00,0.0055
3276.00,0.0055
3275.00,0.0055
3274.00,0.0055
3273.00,0.0055
3272.00,0.0055
3271.00,0.0055
3270.00,0.0056
3269.00,0.0056
3268.00,0.0056
3267.00,0.0057
3266.00,0.0057
3265.00,0.0057
3264.00,0.0058
3263.00,0.0058
3262.00,0.0058
3261.00,0.0058
3260.00,0.0058
3259.00,0.0058
3258.00,0.0058
3257.00,0.0058
3256.00,0.0058
3255.00,0.0059
3254.00,0.0059
3253.00,0.0060
3252.00,0.0060
3251.00,0.0060
3250.00,0.0060
3249.00,0.0060
3248.00,0.0060
3247.00,0.0060
3246.00,0.0060
3245.00,0.0061
3244.00,0.0061
3243.00,0.0062
3242.00,0.0062
3241.00,0.0062
3240.00,0.0063
3239.00,0.0063
3238.00,0.0063
3237.00,0.0063
3236.00,0.0063
3235.00,0.0063
3234.00,0.0063
3233.00,0.0063
3232.00,0.0064
3231.00,0.0064
3230.00,0.0065
3229.00,0.0066
3228.00,0.0066
3227.00,0.0066
3226.00,0.0066
3225.00,0.0067
3224.00,0.0067
3223.00,0.0067
3222.00,0.0067
3221.00,0.0067
3220.00,0.0068
3219.00,0.0068
3218.00,0.0068
3217.00,0.0069
3216.00,0.0069
3215.00,0.0069
3214.00,0.0070
3213.00,0.0070
3212.00,0.0070
3211.00,0.0071
3210.00,0.0071
3209.00,0.0071
3208.00,0.0071
3207.00,0.0072
3206.00,0.0072
3205.00,0.0072
3204.00,0.0073
3203.00,0.0073
3202.00,0.0073
3201.00,0.0073
3200.00,0.0074
3199.00,0.0074
3198.00,0.0074
3197.00,0.0075
3196.00,0.0075
3195.00,0.0075
3194.00,0.0076
3193.00,0.0076
3192.00,0.0077
3191.00,0.0077
3190.00,0.0077
3189.00,0.0078
3188.00,0.0078
3187.00,0.0079
3186.00,0.0079
3185.00,0.0079
3184.00,0.0080
3183.00,0.0080
3182.00,0.0080
3181.00,0.0081
3180.00,0.0081
3179.00,0.0082
3178.00,0.0082
3177.00,0.0083
3176.00,0.0083
3175.00,0.0084
3174.00,0.0084
3173.00,0.0085
3172.00,0.0085
3171.00,0.0086
3170.00,0.0086
3169.00,0.0087
3168.00,0.0088
3167.00,0.0088
3166.00,0.0089
3165.00,0.0090
3164.00,0.0091
3163.00,0.0091
3162.00,0.0092
3161.00,0.0093
3160.00,0.0094
3159.00,0.0094
3158.00,0.0095
3157.00,0.0096
3156.00,0.0097
3155.00,0.0098
3154.00,0.0099
3153.00,0.0100
3152.00,0.0101
3151.00,0.0103
3150.00,0.0104
3149.00,0.0106
3148.00,0.0108
3147.00,0.0109
3146.00,0.0111
3145.00,0.0112
3144.00,0.0114
3143.00,0.0116
3142.00,0.0117
3141.00,0.0119
3140.00,0.0120
3139.00,0.0122
3138.00,0.0124
3137.00,0.0126
3136.00,0.0129
3135.00,0.0131
3134.00,0.0133
3133.00,0.0135
3132.00,0.0137
3131.00,0.0139
3130.00,0.0141
3129.00,0.0143
3128.00,0.0145
3127.00,0.0147
3126.00,0.0148
3125.00,0.0149
3124.00,0.0150
3123.00,0.0151
3122.00,0.0151
3121.00,0.0152
3120.00,0.0152
3119.00,0.0152
3118.00,0.0151
3117.00,0.0151
3116.00,0.0151
3115.00,0.0150
3114.00,0.0150
3113.00,0.0149
3112.00,0.0148
3111.00,0.0147
3110.00,0.0146
3109.00,0.0144
3108.00,0.0143
3107.00,0.0142
3106.00,0.0141
3105.00,0.0140
3104.00,0.0139
3103.00,0.0138
3102.00,0.0138
3101.00,0.0137
3100.00,0.0136
3099.00,0.0136
3098.00,0.0135
3097.00,0.0135
3096.00,0.0134
3095.00,0.0134
3094.00,0.0133
3093.00,0.0133
3092.00,0.0133
3091.00,0.0132
3090.00,0.0132
3089.00,0.0132
3088.00,0.0132
3087.00,0.0132
3086.00,0.0132
3085.00,0.0132
3084.00,0.0132
3083.00,0.0132
3082.00,0.0133
3081.00,0.0133
3080.00,0.0133
3079.00,0.0134
3078.00,0.0134
3077.00,0.0135
3076.00,0.0135
3075.00,0.0136
3074.00,0.0136
3073.00,0.0136
3072.00,0.0137
3071.00,0.0137
3070.00,0.0138
3069.00,0.0138
3068.00,0.0139
3067.00,0.0140
3066.00,0.0140
3065.00,0.0141
3064.00,0.0142
3063.00,0.0144
3062.00,0.0145
3061.00,0.0147
3060.00,0.0149
3059.00,0.0150
3058.00,0.0150
3057.00,0.0150
3056.00,0.0149
3055.00,0.0148
3054.00,0.0147
3053.00,0.0146
3052.00,0.0145
3051.00,0.0144
3050.00,0.0143
3049.00,0.0142
3048.00,0.0142
3047.00,0.0142
3046.00,0.0142
3045.00,0.0142
3044.00,0.0141
3043.00,0.0141
3042.00,0.0141
3041.00,0.0141
3040.00,0.0141
3039.00,0.0141
3038.00,0.0141
3037.00,0.0141
3036.00,0.0141
3035.00,0.0141
3034.00,0.0141
3033.00,0.0141
3032.00,0.0141
3031.00,0.0142
3030.00,0.0142
3029.00,0.0142
3028.00,0.0142
3027.00,0.0143
3026.00,0.0143
3025.00,0.0143
3024.00,0.0142
3023.00,0.0142
3022.00,0.0141
3021.00,0.0140
3020.00,0.0139
3019.00,0.0138
3018.00,0.0137
3017.00,0.0136
3016.00,0.0134
3015.00,0.0132
3014.00,0.0130
3013.00,0.0128
3012.00,0.0125
3011.00,0.0122
3010.00,0.0119
3009.00,0.0116
3008.00,0.0112
3007.00,0.0108
3006.00,0.0103
3005.00,0.0099
3004.00,0.0095
3003.00,0.0091
3002.00,0.0088
3001.00,0.0085
3000.00,0.0082
2999.00,0.0080
2998.00,0.0078
2997.00,0.0076
2996.00,0.0075
2995.00,0.0074
2994.00,0.0074
2993.00,0.0074
2992.00,0.0074
2991.00,0.0074
2990.00,0.0075
2989.00,0.0078
2988.00,0.0080
2987.00,0.0082
2986.00,0.0080
2985.00,0.0074
2984.00,0.0063
2983.00,0.0051
2982.00,0.0042
2981.00,0.0039
2980.00,0.0041
2979.00,0.0046
2978.00,0.0052
2977.00,0.0056
2976.00,0.0059
2975.00,0.0059
2974.00,0.0057
2973.00,0.0053
2972.00,0.0051
2971.00,0.0051
2970.00,0.0056
2969.00,0.0064
2968.00,0.0072
2967.00,0.0080
2966.00,0.0087
2965.00,0.0095
2964.00,0.0103
2963.00,0.0111
2962.00,0.0120
2961.00,0.0129
2960.00,0.0139
2959.00,0.0148
2958.00,0.0158
2957.00,0.0167
2956.00,0.0176
2955.00,0.0184
2954.00,0.0192
2953.00,0.0199
2952.00,0.0205
2951.00,0.0210
2950.00,0.0214
2949.00,0.0217
2948.00,0.0220
2947.00,0.0225
2946.00,0.0230
2945.00,0.0235
2944.00,0.0240
2943.00,0.0245
2942.00,0.0249
2941.00,0.0253
2940.00,0.0257
2939.00,0.0260
2938.00,0.0263
2937.00,0.0264
2936.00,0.0265
2935.00,0.0265
2934.00,0.0263
2933.00,0.0261
2932.00,0.0259
2931.00,0.0256
2930.00,0.0255
2929.00,0.0253
2928.00,0.0250
2927.00,0.0248
2926.00,0.0245
2925.00,0.0243
2924.00,0.0240
2923.00,0.0238
2922.00,0.0236
2921.00,0.0234
2920.00,0.0232
2919.00,0.0229
2918.00,0.0227
2917.00,0.0225
2916.00,0.0223
2915.00,0.0220
2914.00,0.0218
2913.00,0.0215
2912.00,0.0211
2911.00,0.0208
2910.00,0.0205
2909.00,0.0201
2908.00,0.0198
2907.00,0.0196
2906.00,0.0193
2905.00,0.0191
2904.00,0.0190
2903.00,0.0189
2902.00,0.0188
2901.00,0.0188
2900.00,0.0187
2899.00,0.0187
2898.00,0.0187
2897.00,0.0187
2896.00,0.0186
2895.00,0.0187
2894.00,0.0188
2893.00,0.0190
2892.00,0.0193
2891.00,0.0196
2890.00,0.0200
2889.00,0.0203
2888.00,0.0204
2887.00,0.0203
2886.00,0.0199
2885.00,0.0195
2884.00,0.0192
2883.00,0.0190
2882.00,0.0189
2881.00,0.0191
2880.00,0.0194
2879.00,0.0198
2878.00,0.0202
2877.00,0.0207
2876.00,0.0213
2875.00,0.0219
2874.00,0.0227
2873.00,0.0235
2872.00,0.0242
2871.00,0.0248
2870.00,0.0253
2869.00,0.0256
2868.00,0.0258
2867.00,0.0257
2866.00,0.0255
2865.00,0.0252
2864.00,0.0250
2863.00,0.0247
2862.00,0.0245
2861.00,0.0243
2860.00,0.0240
2859.00,0.0238
2858.00,0.0235
2857.00,0.0232
2856.00,0.0229
2855.00,0.0226
2854.00,0.0224
2853.00,0.0222
2852.00,0.0220
2851.00,0.0219
2850.00,0.0218
2849.00,0.0216
2848.00,0.0215
2847.00,0.0213
2846.00,0.0212
2845.00,0.0210
2844.00,0.0210
2843.00,0.0209
2842.00,0.0210
2841.00,0.0211
2840.00,0.0214
2839.00,0.0217
2838.00,0.0220
2837.00,0.0223
2836.00,0.0225
2835.00,0.0226
2834.00,0.0225
2833.00,0.0223
2832.00,0.0220
2831.00,0.0217
2830.00,0.0214
2829.00,0.0212
2828.00,0.0209
2827.00,0.0207
2826.00,0.0204
2825.00,0.0202
2824.00,0.0200
2823.00,0.0199
2822.00,0.0197
2821.00,0.0196
2820.00,0.0195
2819.00,0.0194
2818.00,0.0193
2817.00,0.0193
2816.00,0.0192
2815.00,0.0192
2814.00,0.0191
2813.00,0.0191
2812.00,0.0191
2811.00,0.0190
2810.00,0.0190
2809.00,0.0190
2808.00,0.0191
2807.00,0.0191
2806.00,0.0191
2805.00,0.0191
2804.00,0.0191
2803.00,0.0191
2802.00,0.0191
2801.00,0.0191
2800.00,0.0192
2799.00,0.0192
2798.00,0.0192
2797.00,0.0192
2796.00,0.0191
2795.00,0.0191
2794.00,0.0191
2793.00,0.0191
2792.00,0.0191
2791.00,0.0191
2790.00,0.0191
2789.00,0.0190
2788.00,0.0190
2787.00,0.0189
2786.00,0.0189
2785.00,0.0189
2784.00,0.0189
2783.00,0.0188
2782.00,0.0188
2781.00,0.0188
2780.00,0.0188
2779.00,0.0188
2778.00,0.0187
2777.00,0.0187
2776.00,0.0187
2775.00,0.0187
2774.00,0.0186
2773.00,0.0186
2772.00,0.0186
2771.00,0.0185
2770.00,0.0185
2769.00,0.0185
2768.00,0.0185
2767.00,0.0184
2766.00,0.0184
2765.00,0.0184
2764.00,0.0184
2763.00,0.0184
2762.00,0.0184
2761.00,0.0184
2760.00,0.0184
2759.00,0.0184
2758.00,0.0184
2757.00,0.0184
2756.00,0.0184
2755.00,0.0184
2754.00,0.0184
2753.00,0.0184
2752.00,0.0185
2751.00,0.0185
2750.00,0.0185
2749.00,0.0185
2748.00,0.0186
2747.00,0.0186
2746.00,0.0186
2745.00,0.0186
2744.00,0.0186
2743.00,0.0186
2742.00,0.0186
2741.00,0.0186
2740.00,0.0187
2739.00,0.0187
2738.00,0.0187
2737.00,0.0187
2736.00,0.0187
2735.00,0.0187
2734.00,0.0187
2733.00,0.0188
2732.00,0.0188
2731.00,0.0188
2730.00,0.0188
2729.00,0.0189
2728.00,0.0189
2727.00,0.0189
2726.00,0.0189
2725.00,0.0189
2724.00,0.0189
2723.00,0.0189
2722.00,0.0189
2721.00,0.0189
2720.00,0.0188
2719.00,0.0188
2718.00,0.0187
2717.00,0.0187
2716.00,0.0187
2715.00,0.0186
2714.00,0.0186
2713.00,0.0186
2712.00,0.0185
2711.00,0.0185
2710.00,0.0185
2709.00,0.0185
2708.00,0.0185
2707.00,0.0184
2706.00,0.0184
2705.00,0.0184
2704.00,0.0184
2703.00,0.0184
2702.00,0.0184
2701.00,0.0184
2700.00,0.0184
2699.00,0.0183
2698.00,0.0183
2697.00,0.0183
2696.00,0.0183
2695.00,0.0183
2694.00,0.0183
2693.00,0.0183
2692.00,0.0183
2691.00,0.0183
2690.00,0.0184
2689.00,0.0184
2688.00,0.0184
2687.00,0.0184
2686.00,0.0185
2685.00,0.0185
2684.00,0.0185
2683.00,0.0185
2682.00,0.0186
2681.00,0.0186
2680.00,0.0186
2679.00,0.0187
2678.00,0.0187
2677.00,0.0187
2676.00,0.0186
2675.00,0.0186
2674.00,0.0186
2673.00,0.0186
2672.00,0.0186
2671.00,0.0186
2670.00,0.0185
2669.00,0.0185
2668.00,0.0185
2667.00,0.0185
2666.00,0.0185
2665.00,0.0185
2664.00,0.0185
2663.00,0.0185
2662.00,0.0185
2661.00,0.0185
2660.00,0.0185
2659.00,0.0184
2658.00,0.0184
2657.00,0.0184
2656.00,0.0184
2655.00,0.0184
2654.00,0.0184
2653.00,0.0184
2652.00,0.0184
2651.00,0.0184
2650.00,0.0184
2649.00,0.0184
2648.00,0.0184
2647.00,0.0184
2646.00,0.0184
2645.00,0.0184
2644.00,0.0184
2643.00,0.0184
2642.00,0.0184
2641.00,0.0184
2640.00,0.0184
2639.00,0.0184
2638.00,0.0184
2637.00,0.0184
2636.00,0.0184
2635.00,0.0184
2634.00,0.0184
2633.00,0.0184
2632.00,0.0184
2631.00,0.0183
2630.00,0.0183
2629.00,0.0182
2628.00,0.0182
2627.00,0.0182
2626.00,0.0181
2625.00,0.0181
2624.00,0.0181
2623.00,0.0181
2622.00,0.0180
2621.00,0.0180
2620.00,0.0180
2619.00,0.0180
2618.00,0.0180
2617.00,0.0180
2616.00,0.0180
2615.00,0.0180
2614.00,0.0180
2613.00,0.0181
2612.00,0.0181
2611.00,0.0181
2610.00,0.0182
2609.00,0.0182
2608.00,0.0182
2607.00,0.0182
2606.00,0.0182
2605.00,0.0182
2604.00,0.0182
2603.00,0.0182
2602.00,0.0182
2601.00,0.0181
2600.00,0.0181
2599.00,0.0181
2598.00,0.0181
2597.00,0.0180
2596.00,0.0180
2595.00,0.0180
2594.00,0.0180
2593.00,0.0180
2592.00,0.0180
2591.00,0.0180
2590.00,0.0180
2589.00,0.0181
2588.00,0.0181
2587.00,0.0181
2586.00,0.0182
2585.00,0.0182
2584.00,0.0183
2583.00,0.0183
2582.00,0.0183
2581.00,0.0183
2580.00,0.0183
2579.00,0.0183
2578.00,0.0183
2577.00,0.0183
2576.00,0.0183
2575.00,0.0183
2574.00,0.0182
2573.00,0.0182
2572.00,0.0182
2571.00,0.0182
2570.00,0.0182
2569.00,0.0182
2568.00,0.0182
2567.00,0.0182
2566.00,0.0182
2565.00,0.0182
2564.00,0.0182
2563.00,0.0182
2562.00,0.0182
2561.00,0.0182
2560.00,0.0182
2559.00,0.0182
2558.00,0.0182
2557.00,0.0183
2556.00,0.0183
2555.00,0.0183
2554.00,0.0182
2553.00,0.0182
2552.00,0.0182
2551.00,0.0182
2550.00,0.0182
2549.00,0.0182
2548.00,0.0181
2547.00,0.0181
2546.00,0.0181
2545.00,0.0181
2544.00,0.0182
2543.00,0.0182
2542.00,0.0182
2541.00,0.0182
2540.00,0.0183
2539.00,0.0183
2538.00,0.0183
2537.00,0.0183
2536.00,0.0184
2535.00,0.0184
2534.00,0.0184
2533.00,0.0185
2532.00,0.0185
2531.00,0.0185
2530.00,0.0186
2529.00,0.0186
2528.00,0.0187
2527.00,0.0187
2526.00,0.0187
2525.00,0.0188
2524.00,0.0188
2523.00,0.0189
2522.00,0.0189
2521.00,0.0189
2520.00,0.0188
2519.00,0.0188
2518.00,0.0188
2517.00,0.0188
2516.00,0.0188
2515.00,0.0188
2514.00,0.0188
2513.00,0.0188
2512.00,0.0188
2511.00,0.0187
2510.00,0.0187
2509.00,0.0187
2508.00,0.0186
2507.00,0.0186
2506.00,0.0185
2505.00,0.0185
2504.00,0.0185
2503.00,0.0184
2502.00,0.0184
2501.00,0.0183
2500.00,0.0183
2499.00,0.0182
2498.00,0.0182
2497.00,0.0182
2496.00,0.0182
2495.00,0.0182
2494.00,0.0182
2493.00,0.0183
2492.00,0.0183
2491.00,0.0183
2490.00,0.0183
2489.00,0.0183
2488.00,0.0183
2487.00,0.0183
2486.00,0.0183
2485.00,0.0183
2484.00,0.0182
2483.00,0.0182
2482.00,0.0182
2481.00,0.0182
2480.00,0.0182
2479.00,0.0181
2478.00,0.0181
2477.00,0.0180
2476.00,0.0180
2475.00,0.0179
2474.00,0.0179
2473.00,0.0178
2472.00,0.0178
2471.00,0.0178
2470.00,0.0177
2469.00,0.0177
2468.00,0.0176
2467.00,0.0176
2466.00,0.0176
2465.00,0.0176
2464.00,0.0175
2463.00,0.0175
2462.00,0.0174
2461.00,0.0174
2460.00,0.0173
2459.00,0.0173
2458.00,0.0172
2457.00,0.0172
2456.00,0.0171
2455.00,0.0170
2454.00,0.0170
2453.00,0.0170
2452.00,0.0169
2451.00,0.0169
2450.00,0.0168
2449.00,0.0168
2448.00,0.0167
2447.00,0.0167
2446.00,0.0167
2445.00,0.0166
2444.00,0.0166
2443.00,0.0165
2442.00,0.0165
2441.00,0.0164
2440.00,0.0164
2439.00,0.0164
2438.00,0.0163
2437.00,0.0163
2436.00,0.0163
2435.00,0.0162
2434.00,0.0162
2433.00,0.0162
2432.00,0.0162
2431.00,0.0162
2430.00,0.0161
2429.00,0.0161
2428.00,0.0161
2427.00,0.0161
2426.00,0.0160
2425.00,0.0160
2424.00,0.0160
2423.00,0.0160
2422.00,0.0160
2421.00,0.0159
2420.00,0.0159
2419.00,0.0159
2418.00,0.0158
2417.00,0.0158
2416.00,0.0158
2415.00,0.0158
2414.00,0.0158
2413.00,0.0158
2412.00,0.0157
2411.00,0.0157
2410.00,0.0157
2409.00,0.0156
2408.00,0.0156
2407.00,0.0155
2406.00,0.0155
2405.00,0.0154
2404.00,0.0154
2403.00,0.0154
2402.00,0.0153
2401.00,0.0153
2400.00,0.0153
2399.00,0.0152
2398.00,0.0152
2397.00,0.0151
2396.00,0.0151
2395.00,0.0151
2394.00,0.0150
2393.00,0.0150
2392.00,0.0150
2391.00,0.0149
2390.00,0.0149
2389.00,0.0148
2388.00,0.0148
2387.00,0.0147
2386.00,0.0147
2385.00,0.0146
2384.00,0.0146
2383.00,0.0146
2382.00,0.0145
2381.00,0.0145
2380.00,0.0145
2379.00,0.0144
2378.00,0.0144
2377.00,0.0143
2376.00,0.0143
2375.00,0.0142
2374.00,0.0142
2373.00,0.0142
2372.00,0.0141
2371.00,0.0141
2370.00,0.0140
2369.00,0.0139
2368.00,0.0139
2367.00,0.0139
2366.00,0.0138
2365.00,0.0138
2364.00,0.0138
2363.00,0.0137
2362.00,0.0137
2361.00,0.0136
2360.00,0.0136
2359.00,0.0135
2358.00,0.0135
2357.00,0.0134
2356.00,0.0134
2355.00,0.0134
2354.00,0.0133
2353.00,0.0133
2352.00,0.0132
2351.00,0.0132
2350.00,0.0131
2349.00,0.0130
2348.00,0.0130
2347.00,0.0129
2346.00,0.0129
2345.00,0.0128
2344.00,0.0128
2343.00,0.0128
2342.00,0.0127
2341.00,0.0127
2340.00,0.0127
2339.00,0.0126
2338.00,0.0126
2337.00,0.0125
2336.00,0.0125
2335.00,0.0124
2334.00,0.0124
2333.00,0.0124
2332.00,0.0124
2331.00,0.0123
2330.00,0.0122
2329.00,0.0122
2328.00,0.0121
2327.00,0.0120
2326.00,0.0120
2325.00,0.0119
2324.00,0.0119
2323.00,0.0118
2322.00,0.0118
2321.00,0.0118
2320.00,0.0117
2319.00,0.0117
2318.00,0.0116
2317.00,0.0116
2316.00,0.0116
2315.00,0.0116
2314.00,0.0116
2313.00,0.0115
2312.00,0.0115
2311.00,0.0114
2310.00,0.0114
2309.00,0.0113
2308.00,0.0113
2307.00,0.0113
2306.00,0.0112
2305.00,0.0112
2304.00,0.0111
2303.00,0.0111
2302.00,0.0111
2301.00,0.0110
2300.00,0.0110
2299.00,0.0109
2298.00,0.0109
2297.00,0.0109
2296.00,0.0109
2295.00,0.0108
2294.00,0.0108
2293.00,0.0107
2292.00,0.0107
2291.00,0.0107
2290.00,0.0106
2289.00,0.0106
2288.00,0.0106
2287.00,0.0106
2286.00,0.0106
2285.00,0.0105
2284.00,0.0105
2283.00,0.0105
2282.00,0.0105
2281.00,0.0104
2280.00,0.0104
2279.00,0.0103
2278.00,0.0103
2277.00,0.0103
2276.00,0.0102
2275.00,0.0102
2274.00,0.0102
2273.00,0.0101
2272.00,0.0101
2271.00,0.0101
2270.00,0.0100
2269.00,0.0100
2268.00,0.0100
2267.00,0.0099
2266.00,0.0099
2265.00,0.0098
2264.00,0.0098
2263.00,0.0098
2262.00,0.0097
2261.00,0.0097
2260.00,0.0097
2259.00,0.0097
2258.00,0.0097
2257.00,0.0097
2256.00,0.0097
2255.00,0.0097
2254.00,0.0097
2253.00,0.0097
2252.00,0.0097
2251.00,0.0096
2250.00,0.0096
2249.00,0.0096
2248.00,0.0096
2247.00,0.0095
2246.00,0.0095
2245.00,0.0094
2244.00,0.0094
2243.00,0.0094
2242.00,0.0093
2241.00,0.0093
2240.00,0.0093
2239.00,0.0093
2238.00,0.0093
2237.00,0.0093
2236.00,0.0093
2235.00,0.0093
2234.00,0.0092
2233.00,0.0092
2232.00,0.0092
2231.00,0.0092
2230.00,0.0092
2229.00,0.0092
2228.00,0.0091
2227.00,0.0091
2226.00,0.0091
2225.00,0.0091
2224.00,0.0091
2223.00,0.0091
2222.00,0.0090
2221.00,0.0090
2220.00,0.0091
2219.00,0.0091
2218.00,0.0090
2217.00,0.0090
2216.00,0.0089
2215.00,0.0089
2214.00,0.0089
2213.00,0.0088
2212.00,0.0088
2211.00,0.0088
2210.00,0.0088
2209.00,0.0088
2208.00,0.0088
2207.00,0.0088
2206.00,0.0088
2205.00,0.0088
2204.00,0.0088
2203.00,0.0087
2202.00,0.0087
2201.00,0.0087
2200.00,0.0087
2199.00,0.0087
2198.00,0.0087
2197.00,0.0086
2196.00,0.0086
2195.00,0.0086
2194.00,0.0085
2193.00,0.0084
2192.00,0.0084
2191.00,0.0084
2190.00,0.0084
2189.00,0.0085
2188.00,0.0085
2187.00,0.0085
2186.00,0.0085
2185.00,0.0085
2184.00,0.0085
2183.00,0.0085
2182.00,0.0085
2181.00,0.0085
2180.00,0.0085
2179.00,0.0085
2178.00,0.0085
2177.00,0.0085
2176.00,0.0084
2175.00,0.0083
2174.00,0.0082
2173.00,0.0081
2172.00,0.0080
2171.00,0.0080
2170.00,0.0080
2169.00,0.0080
2168.00,0.0080
2167.00,0.0080
2166.00,0.0079
2165.00,0.0078
2164.00,0.0078
2163.00,0.0078
2162.00,0.0080
2161.00,0.0081
2160.00,0.0082
2159.00,0.0082
2158.00,0.0081
2157.00,0.0081
2156.00,0.0080
2155.00,0.0080
2154.00,0.0080
2153.00,0.0079
2152.00,0.0079
2151.00,0.0079
2150.00,0.0080
2149.00,0.0080
2148.00,0.0081
2147.00,0.0081
2146.00,0.0081
2145.00,0.0081
2144.00,0.0081
2143.00,0.0080
2142.00,0.0080
2141.00,0.0079
2140.00,0.0079
2139.00,0.0079
2138.00,0.0079
2137.00,0.0079
2136.00,0.0079
2135.00,0.0079
2134.00,0.0079
2133.00,0.0078
2132.00,0.0078
2131.00,0.0077
2130.00,0.0077
2129.00,0.0076
2128.00,0.0076
2127.00,0.0076
2126.00,0.0076
2125.00,0.0076
2124.00,0.0076
2123.00,0.0076
2122.00,0.0076
2121.00,0.0075
2120.00,0.0075
2119.00,0.0075
2118.00,0.0075
2117.00,0.0075
2116.00,0.0075
2115.00,0.0074
2114.00,0.0074
2113.00,0.0074
2112.00,0.0074
2111.00,0.0073
2110.00,0.0073
2109.00,0.0073
2108.00,0.0073
2107.00,0.0073
2106.00,0.0073
2105.00,0.0073
2104.00,0.0073
2103.00,0.0073
2102.00,0.0073
2101.00,0.0073
2100.00,0.0073
2099.00,0.0073
2098.00,0.0074
2097.00,0.0073
2096.00,0.0073
2095.00,0.0073
2094.00,0.0073
2093.00,0.0073
2092.00,0.0073
2091.00,0.0073
2090.00,0.0073
2089.00,0.0073
2088.00,0.0073
2087.00,0.0072
2086.00,0.0072
2085.00,0.0072
2084.00,0.0072
2083.00,0.0072
2082.00,0.0072
2081.00,0.0072
2080.00,0.0072
2079.00,0.0072
2078.00,0.0071
2077.00,0.0071
2076.00,0.0071
2075.00,0.0071
2074.00,0.0071
2073.00,0.0071
2072.00,0.0071
2071.00,0.0072
2070.00,0.0072
2069.00,0.0072
2068.00,0.0072
2067.00,0.0071
2066.00,0.0071
2065.00,0.0071
2064.00,0.0071
2063.00,0.0072
2062.00,0.0072
2061.00,0.0072
2060.00,0.0072
2059.00,0.0072
2058.00,0.0072
2057.00,0.0072
2056.00,0.0072
2055.00,0.0072
2054.00,0.0071
2053.00,0.0070
2052.00,0.0070
2051.00,0.0070
2050.00,0.0069
2049.00,0.0069
2048.00,0.0069
2047.00,0.0069
2046.00,0.0069
2045.00,0.0069
2044.00,0.0070
2043.00,0.0071
2042.00,0.0071
2041.00,0.0071
2040.00,0.0071
2039.00,0.0070
2038.00,0.0070
2037.00,0.0071
2036.00,0.0071
2035.00,0.0071
2034.00,0.0071
2033.00,0.0071
2032.00,0.0071
2031.00,0.0072
2030.00,0.0073
2029.00,0.0074
2028.00,0.0074
2027.00,0.0074
2026.00,0.0073
2025.00,0.0073
2024.00,0.0072
2023.00,0.0071
2022.00,0.0071
2021.00,0.0071
2020.00,0.0072
2019.00,0.0073
2018.00,0.0074
2017.00,0.0075
2016.00,0.0075
2015.00,0.0075
2014.00,0.0074
2013.00,0.0074
2012.00,0.0075
2011.00,0.0075
2010.00,0.0076
2009.00,0.0076
2008.00,0.0075
2007.00,0.0074
2006.00,0.0074
2005.00,0.0075
2004.00,0.0075
2003.00,0.0075
2002.00,0.0075
2001.00,0.0075
2000.00,0.0075
1999.00,0.0075
1998.00,0.0075
1997.00,0.0074
1996.00,0.0074
1995.00,0.0075
1994.00,0.0075
1993.00,0.0075
1992.00,0.0075
1991.00,0.0075
1990.00,0.0075
1989.00,0.0075
1988.00,0.0076
1987.00,0.0075
1986.00,0.0075
1985.00,0.0075
1984.00,0.0075
1983.00,0.0075
1982.00,0.0075
1981.00,0.0075
1980.00,0.0075
1979.00,0.0076
1978.00,0.0078
1977.00,0.0080
1976.00,0.0081
1975.00,0.0082
1974.00,0.0082
1973.00,0.0081
1972.00,0.0081
1971.00,0.0081
1970.00,0.0081
1969.00,0.0082
1968.00,0.0082
1967.00,0.0081
1966.00,0.0081
1965.00,0.0082
1964.00,0.0083
1963.00,0.0084
1962.00,0.0085
1961.00,0.0085
1960.00,0.0085
1959.00,0.0085
1958.00,0.0085
1957.00,0.0085
1956.00,0.0085
1955.00,0.0085
1954.00,0.0086
1953.00,0.0086
1952.00,0.0086
1951.00,0.0086
1950.00,0.0086
1949.00,0.0087
1948.00,0.0088
1947.00,0.0088
1946.00,0.0089
1945.00,0.0089
1944.00,0.0089
1943.00,0.0090
1942.00,0.0090
1941.00,0.0090
1940.00,0.0090
1939.00,0.0091
1938.00,0.0091
1937.00,0.0091
1936.00,0.0092
1935.00,0.0092
1934.00,0.0093
1933.00,0.0093
1932.00,0.0093
1931.00,0.0093
1930.00,0.0093
1929.00,0.0093
1928.00,0.0094
1927.00,0.0093
1926.00,0.0093
1925.00,0.0093
1924.00,0.0093
1923.00,0.0092
1922.00,0.0092
1921.00,0.0093
1920.00,0.0093
1919.00,0.0093
1918.00,0.0093
1917.00,0.0092
1916.00,0.0092
1915.00,0.0092
1914.00,0.0092
1913.00,0.0092
1912.00,0.0092
1911.00,0.0092
1910.00,0.0091
1909.00,0.0091
1908.00,0.0091
1907.00,0.0091
1906.00,0.0090
1905.00,0.0090
1904.00,0.0090
1903.00,0.0090
1902.00,0.0089
1901.00,0.0089
1900.00,0.0088
1899.00,0.0088
1898.00,0.0088
1897.00,0.0087
1896.00,0.0087
1895.00,0.0087
1894.00,0.0087
1893.00,0.0087
1892.00,0.0087
1891.00,0.0086
1890.00,0.0086
1889.00,0.0086
1888.00,0.0085
1887.00,0.0085
1886.00,0.0084
1885.00,0.0084
1884.00,0.0083
1883.00,0.0083
1882.00,0.0082
1881.00,0.0082
1880.00,0.0082
1879.00,0.0081
1878.00,0.0081
1877.00,0.0080
1876.00,0.0080
1875.00,0.0080
1874.00,0.0079
1873.00,0.0079
1872.00,0.0079
1871.00,0.0079
1870.00,0.0078
1869.00,0.0078
1868.00,0.0077
1867.00,0.0077
1866.00,0.0076
1865.00,0.0076
1864.00,0.0076
1863.00,0.0076
1862.00,0.0075
1861.00,0.0075
1860.00,0.0074
1859.00,0.0074
1858.00,0.0073
1857.00,0.0073
1856.00,0.0072
1855.00,0.0072
1854.00,0.0071
1853.00,0.0071
1852.00,0.0071
1851.00,0.0070
1850.00,0.0070
1849.00,0.0069
1848.00,0.0069
1847.00,0.0069
1846.00,0.0068
1845.00,0.0068
1844.00,0.0068
1843.00,0.0068
1842.00,0.0067
1841.00,0.0067
1840.00,0.0066
1839.00,0.0066
1838.00,0.0066
1837.00,0.0066
1836.00,0.0066
1835.00,0.0065
1834.00,0.0065
1833.00,0.0065
1832.00,0.0065
1831.00,0.0065
1830.00,0.0065
1829.00,0.0064
1828.00,0.0064
1827.00,0.0064
1826.00,0.0064
1825.00,0.0064
1824.00,0.0063
1823.00,0.0063
1822.00,0.0063
1821.00,0.0063
1820.00,0.0063
1819.00,0.0063
1818.00,0.0063
1817.00,0.0063
1816.00,0.0063
1815.00,0.0063
1814.00,0.0063
1813.00,0.0063
1812.00,0.0063
1811.00,0.0063
1810.00,0.0063
1809.00,0.0063
1808.00,0.0062
1807.00,0.0062
1806.00,0.0062
1805.00,0.0062
1804.00,0.0062
1803.00,0.0062
1802.00,0.0062
1801.00,0.0062
1800.00,0.0062
1799.00,0.0062
1798.00,0.0062
1797.00,0.0062
1796.00,0.0062
1795.00,0.0061
1794.00,0.0061
1793.00,0.0061
1792.00,0.0061
1791.00,0.0061
1790.00,0.0060
1789.00,0.0060
1788.00,0.0060
1787.00,0.0060
1786.00,0.0059
1785.00,0.0059
1784.00,0.0059
1783.00,0.0059
1782.00,0.0059
1781.00,0.0059
1780.00,0.0059
1779.00,0.0058
1778.00,0.0058
1777.00,0.0058
1776.00,0.0058
1775.00,0.0058
1774.00,0.0057
1773.00,0.0057
1772.00,0.0058
1771.00,0.0058
1770.00,0.0058
1769.00,0.0058
1768.00,0.0057
1767.00,0.0057
1766.00,0.0057
1765.00,0.0057
1764.00,0.0057
1763.00,0.0057
1762.00,0.0057
1761.00,0.0057
1760.00,0.0056
1759.00,0.0056
1758.00,0.0056
1757.00,0.0056
1756.00,0.0056
1755.00,0.0055
1754.00,0.0055
1753.00,0.0055
1752.00,0.0055
1751.00,0.0055
1750.00,0.0055
1749.00,0.0055
1748.00,0.0055
1747.00,0.0055
1746.00,0.0055
1745.00,0.0055
1744.00,0.0055
1743.00,0.0055
1742.00,0.0055
1741.00,0.0056
1740.00,0.0056
1739.00,0.0056
1738.00,0.0056
1737.00,0.0057
1736.00,0.0057
1735.00,0.0057
1734.00,0.0057
1733.00,0.0058
1732.00,0.0058
1731.00,0.0059
1730.00,0.0059
1729.00,0.0059
1728.00,0.0060
1727.00,0.0060
1726.00,0.0060
1725.00,0.0060
1724.00,0.0060
1723.00,0.0060
1722.00,0.0060
1721.00,0.0061
1720.00,0.0061
1719.00,0.0061
1718.00,0.0061
1717.00,0.0062
1716.00,0.0062
1715.00,0.0062
1714.00,0.0063
1713.00,0.0063
1712.00,0.0063
1711.00,0.0063
1710.00,0.0063
1709.00,0.0063
1708.00,0.0063
1707.00,0.0063
1706.00,0.0064
1705.00,0.0064
1704.00,0.0064
1703.00,0.0064
1702.00,0.0064
1701.00,0.0065
1700.00,0.0066
1699.00,0.0066
1698.00,0.0067
1697.00,0.0067
1696.00,0.0068
1695.00,0.0068
1694.00,0.0069
1693.00,0.0070
1692.00,0.0070
1691.00,0.0071
1690.00,0.0072
1689.00,0.0073
1688.00,0.0073
1687.00,0.0074
1686.00,0.0074
1685.00,0.0075
1684.00,0.0076
1683.00,0.0078
1682.00,0.0079
1681.00,0.0079
1680.00,0.0080
1679.00,0.0081
1678.00,0.0082
1677.00,0.0084
1676.00,0.0086
1675.00,0.0088
1674.00,0.0090
1673.00,0.0093
1672.00,0.0096
1671.00,0.0099
1670.00,0.0104
1669.00,0.0110
1668.00,0.0115
1667.00,0.0121
1666.00,0.0125
1665.00,0.0129
1664.00,0.0132
1663.00,0.0136
1662.00,0.0139
1661.00,0.0142
1660.00,0.0146
1659.00,0.0151
1658.00,0.0156
1657.00,0.0162
1656.00,0.0168
1655.00,0.0175
1654.00,0.0184
1653.00,0.0198
1652.00,0.0212
1651.00,0.0224
1650.00,0.0234
1649.00,0.0245
1648.00,0.0260
1647.00,0.0280
1646.00,0.0301
1645.00,0.0322
1644.00,0.0342
1643.00,0.0360
1642.00,0.0377
1641.00,0.0395
1640.00,0.0411
1639.00,0.0425
1638.00,0.0436
1637.00,0.0445
1636.00,0.0454
1635.00,0.0463
1634.00,0.0468
1633.00,0.0470
1632.00,0.0471
1631.00,0.0469
1630.00,0.0467
1629.00,0.0466
1628.00,0.0467
1627.00,0.0468
1626.00,0.0470
1625.00,0.0474
1624.00,0.0480
1623.00,0.0488
1622.00,0.0497
1621.00,0.0507
1620.00,0.0517
1619.00,0.0527
1618.00,0.0539
1617.00,0.0556
1616.00,0.0576
1615.00,0.0594
1614.00,0.0605
1613.00,0.0613
1612.00,0.0617
1611.00,0.0618
1610.00,0.0617
1609.00,0.0615
1608.00,0.0613
1607.00,0.0611
1606.00,0.0611
1605.00,0.0613
1604.00,0.0617
1603.00,0.0624
1602.00,0.0632
1601.00,0.0642
1600.00,0.0652
1599.00,0.0662
1598.00,0.0671
1597.00,0.0678
1596.00,0.0684
1595.00,0.0689
1594.00,0.0690
1593.00,0.0688
1592.00,0.0683
1591.00,0.0673
1590.00,0.0660
1589.00,0.0643
1588.00,0.0625
1587.00,0.0604
1586.00,0.0582
1585.00,0.0560
1584.00,0.0540
1583.00,0.0522
1582.00,0.0507
1581.00,0.0496
1580.00,0.0491
1579.00,0.0493
1578.00,0.0504
1577.00,0.0533
1576.00,0.0582
1575.00,0.0640
1574.00,0.0692
1573.00,0.0733
1572.00,0.0763
1571.00,0.0783
1570.00,0.0792
1569.00,0.0791
1568.00,0.0784
1567.00,0.0771
1566.00,0.0750
1565.00,0.0725
1564.00,0.0699
1563.00,0.0671
1562.00,0.0642
1561.00,0.0608
1560.00,0.0566
1559.00,0.0519
1558.00,0.0479
1557.00,0.0451
1556.00,0.0428
1555.00,0.0406
1554.00,0.0384
1553.00,0.0363
1552.00,0.0347
1551.00,0.0332
1550.00,0.0318
1549.00,0.0305
1548.00,0.0295
1547.00,0.0286
1546.00,0.0277
1545.00,0.0268
1544.00,0.0259
1543.00,0.0251
1542.00,0.0244
1541.00,0.0235
1540.00,0.0226
1539.00,0.0219
1538.00,0.0213
1537.00,0.0209
1536.00,0.0206
1535.00,0.0202
1534.00,0.0197
1533.00,0.0193
1532.00,0.0189
1531.00,0.0187
1530.00,0.0184
1529.00,0.0182
1528.00,0.0180
1527.00,0.0178
1526.00,0.0176
1525.00,0.0174
1524.00,0.0173
1523.00,0.0172
1522.00,0.0170
1521.00,0.0168
1520.00,0.0167
1519.00,0.0167
1518.00,0.0166
1517.00,0.0164
1516.00,0.0163
1515.00,0.0162
1514.00,0.0161
1513.00,0.0160
1512.00,0.0159
1511.00,0.0159
1510.00,0.0159
1509.00,0.0159
1508.00,0.0158
1507.00,0.0158
1506.00,0.0158
1505.00,0.0157
1504.00,0.0157
1503.00,0.0157
1502.00,0.0157
1501.00,0.0157
1500.00,0.0158
1499.00,0.0158
1498.00,0.0158
1497.00,0.0157
1496.00,0.0157
1495.00,0.0157
1494.00,0.0157
1493.00,0.0157
1492.00,0.0157
1491.00,0.0157
1490.00,0.0156
1489.00,0.0155
1488.00,0.0155
1487.00,0.0154
1486.00,0.0153
1485.00,0.0153
1484.00,0.0153
1483.00,0.0154
1482.00,0.0156
1481.00,0.0158
1480.00,0.0163
1479.00,0.0168
1478.00,0.0175
1477.00,0.0184
1476.00,0.0196
1475.00,0.0208
1474.00,0.0225
1473.00,0.0249
1472.00,0.0281
1471.00,0.0313
1470.00,0.0339
1469.00,0.0357
1468.00,0.0364
1467.00,0.0363
1466.00,0.0357
1465.00,0.0350
1464.00,0.0344
1463.00,0.0342
1462.00,0.0342
1461.00,0.0343
1460.00,0.0344
1459.00,0.0345
1458.00,0.0347
1457.00,0.0349
1456.00,0.0350
1455.00,0.0351
1454.00,0.0349
1453.00,0.0347
1452.00,0.0342
1451.00,0.0337
1450.00,0.0332
1449.00,0.0326
1448.00,0.0322
1447.00,0.0319
1446.00,0.0317
1445.00,0.0316
1444.00,0.0314
1443.00,0.0311
1442.00,0.0308
1441.00,0.0304
1440.00,0.0299
1439.00,0.0294
1438.00,0.0287
1437.00,0.0281
1436.00,0.0278
1435.00,0.0277
1434.00,0.0279
1433.00,0.0280
1432.00,0.0280
1431.00,0.0277
1430.00,0.0271
1429.00,0.0264
1428.00,0.0259
1427.00,0.0258
1426.00,0.0262
1425.00,0.0272
1424.00,0.0289
1423.00,0.0312
1422.00,0.0335
1421.00,0.0353
1420.00,0.0359
1419.00,0.0353
1418.00,0.0341
1417.00,0.0332
1416.00,0.0331
1415.00,0.0338
1414.00,0.0352
1413.00,0.0370
1412.00,0.0392
1411.00,0.0413
1410.00,0.0431
1409.00,0.0445
1408.00,0.0454
1407.00,0.0458
1406.00,0.0458
1405.00,0.0457
1404.00,0.0454
1403.00,0.0450
1402.00,0.0444
1401.00,0.0436
1400.00,0.0424
1399.00,0.0410
1398.00,0.0394
1397.00,0.0378
1396.00,0.0362
1395.00,0.0350
1394.00,0.0343
1393.00,0.0342
1392.00,0.0344
1391.00,0.0345
1390.00,0.0346
1389.00,0.0349
1388.00,0.0355
1387.00,0.0368
1386.00,0.0384
1385.00,0.0404
1384.00,0.0427
1383.00,0.0451
1382.00,0.0474
1381.00,0.0493
1380.00,0.0509
1379.00,0.0520
1378.00,0.0530
1377.00,0.0539
1376.00,0.0548
1375.00,0.0554
1374.00,0.0554
1373.00,0.0546
1372.00,0.0532
1371.00,0.0514
1370.00,0.0497
1369.00,0.0484
1368.00,0.0476
1367.00,0.0473
1366.00,0.0469
1365.00,0.0462
1364.00,0.0448
1363.00,0.0428
1362.00,0.0405
1361.00,0.0384
1360.00,0.0367
1359.00,0.0355
1358.00,0.0346
1357.00,0.0340
1356.00,0.0334
1355.00,0.0327
1354.00,0.0317
1353.00,0.0305
1352.00,0.0293
1351.00,0.0280
1350.00,0.0268
1349.00,0.0257
1348.00,0.0249
1347.00,0.0243
1346.00,0.0239
1345.00,0.0236
1344.00,0.0234
1343.00,0.0231
1342.00,0.0228
1341.00,0.0225
1340.00,0.0223
1339.00,0.0221
1338.00,0.0220
1337.00,0.0220
1336.00,0.0221
1335.00,0.0224
1334.00,0.0228
1333.00,0.0234
1332.00,0.0242
1331.00,0.0254
1330.00,0.0272
1329.00,0.0294
1328.00,0.0322
1327.00,0.0350
1326.00,0.0375
1325.00,0.0391
1324.00,0.0398
1323.00,0.0399
1322.00,0.0395
1321.00,0.0392
1320.00,0.0389
1319.00,0.0385
1318.00,0.0380
1317.00,0.0373
1316.00,0.0364
1315.00,0.0354
1314.00,0.0347
1313.00,0.0344
1312.00,0.0346
1311.00,0.0352
1310.00,0.0362
1309.00,0.0377
1308.00,0.0399
1307.00,0.0427
1306.00,0.0461
1305.00,0.0492
1304.00,0.0516
1303.00,0.0528
1302.00,0.0529
1301.00,0.0524
1300.00,0.0518
1299.00,0.0514
1298.00,0.0516
1297.00,0.0522
1296.00,0.0532
1295.00,0.0546
1294.00,0.0563
1293.00,0.0585
1292.00,0.0609
1291.00,0.0633
1290.00,0.0652
1289.00,0.0662
1288.00,0.0661
1287.00,0.0648
1286.00,0.0625
1285.00,0.0596
1284.00,0.0564
1283.00,0.0533
1282.00,0.0506
1281.00,0.0487
1280.00,0.0475
1279.00,0.0471
1278.00,0.0470
1277.00,0.0472
1276.00,0.0472
1275.00,0.0471
1274.00,0.0469
1273.00,0.0467
1272.00,0.0465
1271.00,0.0465
1270.00,0.0466
1269.00,0.0470
1268.00,0.0477
1267.00,0.0488
1266.00,0.0502
1265.00,0.0518
1264.00,0.0537
1263.00,0.0562
1262.00,0.0595
1261.00,0.0637
1260.00,0.0688
1259.00,0.0748
1258.00,0.0812
1257.00,0.0877
1256.00,0.0940
1255.00,0.0995
1254.00,0.1039
1253.00,0.1072
1252.00,0.1096
1251.00,0.1116
1250.00,0.1132
1249.00,0.1144
1248.00,0.1150
1247.00,0.1143
1246.00,0.1123
1245.00,0.1092
1244.00,0.1051
1243.00,0.1006
1242.00,0.0959
1241.00,0.0917
1240.00,0.0882
1239.00,0.0858
1238.00,0.0847
1237.00,0.0853
1236.00,0.0869
1235.00,0.0889
1234.00,0.0901
1233.00,0.0899
1232.00,0.0880
1231.00,0.0848
1230.00,0.0807
1229.00,0.0763
1228.00,0.0722
1227.00,0.0687
1226.00,0.0663
1225.00,0.0652
1224.00,0.0651
1223.00,0.0650
1222.00,0.0641
1221.00,0.0621
1220.00,0.0591
1219.00,0.0557
1218.00,0.0522
1217.00,0.0489
1216.00,0.0460
1215.00,0.0434
1214.00,0.0412
1213.00,0.0391
1212.00,0.0374
1211.00,0.0358
1210.00,0.0345
1209.00,0.0335
1208.00,0.0328
1207.00,0.0325
1206.00,0.0327
1205.00,0.0334
1204.00,0.0346
1203.00,0.0365
1202.00,0.0394
1201.00,0.0437
1200.00,0.0496
1199.00,0.0569
1198.00,0.0650
1197.00,0.0725
1196.00,0.0782
1195.00,0.0812
1194.00,0.0815
1193.00,0.0800
1192.00,0.0777
1191.00,0.0754
1190.00,0.0734
1189.00,0.0715
1188.00,0.0696
1187.00,0.0678
1186.00,0.0660
1185.00,0.0643
1184.00,0.0626
1183.00,0.0606
1182.00,0.0582
1181.00,0.0552
1180.00,0.0518
1179.00,0.0483
1178.00,0.0449
1177.00,0.0419
1176.00,0.0397
1175.00,0.0382
1174.00,0.0376
1173.00,0.0376
1172.00,0.0380
1171.00,0.0381
1170.00,0.0377
1169.00,0.0366
1168.00,0.0350
1167.00,0.0330
1166.00,0.0310
1165.00,0.0290
1164.00,0.0271
1163.00,0.0252
1162.00,0.0235
1161.00,0.0220
1160.00,0.0207
1159.00,0.0196
1158.00,0.0186
1157.00,0.0179
1156.00,0.0175
1155.00,0.0173
1154.00,0.0175
1153.00,0.0181
1152.00,0.0193
1151.00,0.0210
1150.00,0.0231
1149.00,0.0252
1148.00,0.0270
1147.00,0.0281
1146.00,0.0283
1145.00,0.0279
1144.00,0.0272
1143.00,0.0267
1142.00,0.0269
1141.00,0.0280
1140.00,0.0301
1139.00,0.0332
1138.00,0.0371
1137.00,0.0417
1136.00,0.0466
1135.00,0.0511
1134.00,0.0549
1133.00,0.0573
1132.00,0.0580
1131.00,0.0571
1130.00,0.0546
1129.00,0.0514
1128.00,0.0481
1127.00,0.0457
1126.00,0.0450
1125.00,0.0463
1124.00,0.0499
1123.00,0.0552
1122.00,0.0612
1121.00,0.0666
1120.00,0.0700
1119.00,0.0706
1118.00,0.0683
1117.00,0.0639
1116.00,0.0586
1115.00,0.0534
1114.00,0.0490
1113.00,0.0456
1112.00,0.0432
1111.00,0.0413
1110.00,0.0397
1109.00,0.0383
1108.00,0.0367
1107.00,0.0347
1106.00,0.0326
1105.00,0.0303
1104.00,0.0283
1103.00,0.0266
1102.00,0.0252
1101.00,0.0242
1100.00,0.0234
1099.00,0.0228
1098.00,0.0223
1097.00,0.0218
1096.00,0.0213
1095.00,0.0207
1094.00,0.0201
1093.00,0.0193
1092.00,0.0186
1091.00,0.0180
1090.00,0.0175
1089.00,0.0172
1088.00,0.0170
1087.00,0.0171
1086.00,0.0173
1085.00,0.0179
1084.00,0.0188
1083.00,0.0203
1082.00,0.0227
1081.00,0.0259
1080.00,0.0299
1079.00,0.0338
1078.00,0.0369
1077.00,0.0382
1076.00,0.0375
1075.00,0.0352
1074.00,0.0321
1073.00,0.0288
1072.00,0.0259
1071.00,0.0237
1070.00,0.0220
1069.00,0.0209
1068.00,0.0204
1067.00,0.0204
1066.00,0.0206
1065.00,0.0207
1064.00,0.0206
1063.00,0.0203
1062.00,0.0202
1061.00,0.0204
1060.00,0.0214
1059.00,0.0231
1058.00,0.0257
1057.00,0.0288
1056.00,0.0318
1055.00,0.0340
1054.00,0.0350
1053.00,0.0347
1052.00,0.0334
1051.00,0.0314
1050.00,0.0293
1049.00,0.0275
1048.00,0.0262
1047.00,0.0254
1046.00,0.0252
1045.00,0.0256
1044.00,0.0265
1043.00,0.0279
1042.00,0.0294
1041.00,0.0308
1040.00,0.0317
1039.00,0.0320
1038.00,0.0315
1037.00,0.0304
1036.00,0.0290
1035.00,0.0276
1034.00,0.0263
1033.00,0.0252
1032.00,0.0242
1031.00,0.0231
1030.00,0.0222
1029.00,0.0213
1028.00,0.0207
1027.00,0.0205
1026.00,0.0208
1025.00,0.0217
1024.00,0.0228
1023.00,0.0240
1022.00,0.0248
1021.00,0.0249
1020.00,0.0244
1019.00,0.0236
1018.00,0.0229
1017.00,0.0224
1016.00,0.0222
1015.00,0.0220
1014.00,0.0219
1013.00,0.0217
1012.00,0.0215
1011.00,0.0213
1010.00,0.0211
1009.00,0.0210
1008.00,0.0208
1007.00,0.0207
1006.00,0.0206
1005.00,0.0206
1004.00,0.0210
1003.00,0.0217
1002.00,0.0229
1001.00,0.0242
1000.00,0.0254
999.00,0.0260
998.00,0.0259
997.00,0.0254
996.00,0.0249
995.00,0.0247
994.00,0.0248
993.00,0.0251
992.00,0.0253
991.00,0.0252
990.00,0.0246
989.00,0.0238
988.00,0.0228
987.00,0.0219
986.00,0.0212
985.00,0.0207
984.00,0.0204
983.00,0.0203
982.00,0.0203
981.00,0.0205
980.00,0.0207
979.00,0.0208
978.00,0.0206
977.00,0.0202
976.00,0.0195
975.00,0.0187
974.00,0.0178
973.00,0.0169
972.00,0.0160
971.00,0.0152
970.00,0.0144
969.00,0.0138
968.00,0.0132
967.00,0.0127
966.00,0.0122
965.00,0.0119
964.00,0.0117
963.00,0.0116
962.00,0.0115
961.00,0.0113
960.00,0.0111
959.00,0.0109
958.00,0.0109
957.00,0.0110
956.00,0.0113
955.00,0.0118
954.00,0.0124
953.00,0.0132
952.00,0.0140
951.00,0.0149
950.00,0.0158
949.00,0.0166
948.00,0.0171
947.00,0.0173
946.00,0.0171
945.00,0.0166
944.00,0.0160
943.00,0.0154
942.00,0.0149
941.00,0.0145
940.00,0.0143
939.00,0.0142
938.00,0.0142
937.00,0.0142
936.00,0.0143
935.00,0.0144
934.00,0.0145
933.00,0.0145
932.00,0.0147
931.00,0.0149
930.00,0.0152
929.00,0.0157
928.00,0.0165
927.00,0.0176
926.00,0.0190
925.00,0.0206
924.00,0.0219
923.00,0.0226
922.00,0.0227
921.00,0.0224
920.00,0.0221
919.00,0.0221
918.00,0.0224
917.00,0.0232
916.00,0.0243
915.00,0.0257
914.00,0.0272
913.00,0.0287
912.00,0.0296
911.00,0.0300
910.00,0.0299
909.00,0.0294
908.00,0.0287
907.00,0.0280
906.00,0.0271
905.00,0.0261
904.00,0.0251
903.00,0.0241
902.00,0.0232
901.00,0.0226
900.00,0.0222
899.00,0.0221
898.00,0.0222
897.00,0.0227
896.00,0.0233
895.00,0.0240
894.00,0.0247
893.00,0.0253
892.00,0.0255
891.00,0.0254
890.00,0.0249
889.00,0.0241
888.00,0.0231
887.00,0.0222
886.00,0.0215
885.00,0.0210
884.00,0.0207
883.00,0.0206
882.00,0.0207
881.00,0.0209
880.00,0.0214
879.00,0.0221
878.00,0.0230
877.00,0.0243
876.00,0.0258
875.00,0.0273
874.00,0.0287
873.00,0.0298
872.00,0.0303
871.00,0.0304
870.00,0.0304
869.00,0.0306
868.00,0.0315
867.00,0.0335
866.00,0.0366
865.00,0.0402
864.00,0.0433
863.00,0.0451
862.00,0.0454
861.00,0.0449
860.00,0.0446
859.00,0.0447
858.00,0.0455
857.00,0.0468
856.00,0.0484
855.00,0.0504
854.00,0.0526
853.00,0.0549
852.00,0.0572
851.00,0.0594
850.00,0.0613
849.00,0.0628
848.00,0.0637
847.00,0.0638
846.00,0.0630
845.00,0.0613
844.00,0.0590
843.00,0.0564
842.00,0.0537
841.00,0.0513
840.00,0.0491
839.00,0.0474
838.00,0.0462
837.00,0.0455
836.00,0.0449
835.00,0.0442
834.00,0.0430
833.00,0.0413
832.00,0.0393
831.00,0.0374
830.00,0.0360
829.00,0.0352
828.00,0.0348
827.00,0.0343
826.00,0.0334
825.00,0.0320
824.00,0.0303
823.00,0.0286
822.00,0.0271
821.00,0.0259
820.00,0.0249
819.00,0.0240
818.00,0.0234
817.00,0.0228
816.00,0.0224
815.00,0.0222
814.00,0.0222
813.00,0.0225
812.00,0.0229
811.00,0.0234
810.00,0.0240
809.00,0.0245
808.00,0.0246
807.00,0.0242
806.00,0.0231
805.00,0.0216
804.00,0.0200
803.00,0.0187
802.00,0.0178
801.00,0.0173
800.00,0.0172
799.00,0.0173
798.00,0.0176
797.00,0.0182
796.00,0.0190
795.00,0.0202
794.00,0.0218
793.00,0.0239
792.00,0.0265
791.00,0.0295
790.00,0.0324
789.00,0.0346
788.00,0.0357
787.00,0.0353
786.00,0.0337
785.00,0.0315
784.00,0.0291
783.00,0.0269
782.00,0.0253
781.00,0.0241
780.00,0.0233
779.00,0.0230
778.00,0.0231
777.00,0.0235
776.00,0.0242
775.00,0.0248
774.00,0.0252
773.00,0.0252
772.00,0.0249
771.00,0.0242
770.00,0.0232
769.00,0.0223
768.00,0.0215
767.00,0.0211
766.00,0.0211
765.00,0.0213
764.00,0.0217
763.00,0.0221
762.00,0.0224
761.00,0.0225
760.00,0.0224
759.00,0.0220
758.00,0.0214
757.00,0.0207
756.00,0.0201
755.00,0.0194
754.00,0.0189
753.00,0.0183
752.00,0.0179
751.00,0.0175
750.00,0.0173
749.00,0.0171
748.00,0.0170
747.00,0.0169
746.00,0.0170
745.00,0.0172
744.00,0.0177
743.00,0.0186
742.00,0.0201
741.00,0.0220
740.00,0.0239
739.00,0.0251
738.00,0.0252
737.00,0.0245
736.00,0.0236
735.00,0.0231
734.00,0.0231
733.00,0.0236
732.00,0.0240
731.00,0.0240
730.00,0.0236
729.00,0.0231
728.00,0.0231
727.00,0.0241
726.00,0.0260
725.00,0.0287
724.00,0.0316
723.00,0.0337
722.00,0.0346
721.00,0.0341
720.00,0.0330
719.00,0.0317
718.00,0.0308
717.00,0.0304
716.00,0.0304
715.00,0.0303
714.00,0.0301
713.00,0.0296
712.00,0.0289
711.00,0.0280
710.00,0.0270
709.00,0.0258
708.00,0.0246
707.00,0.0234
706.00,0.0222
705.00,0.0211
704.00,0.0202
703.00,0.0195
702.00,0.0188
701.00,0.0183
700.00,0.0178
699.00,0.0174
698.00,0.0171
697.00,0.0168
696.00,0.0166
695.00,0.0164
694.00,0.0163
693.00,0.0161
692.00,0.0160
691.00,0.0159
690.00,0.0158
689.00,0.0157
688.00,0.0156
687.00,0.0156
686.00,0.0156
685.00,0.0156
684.00,0.0157
683.00,0.0158
682.00,0.0161
681.00,0.0165
680.00,0.0171
679.00,0.0180
678.00,0.0190
677.00,0.0203
676.00,0.0217
675.00,0.0229
674.00,0.0238
673.00,0.0241
672.00,0.0239
671.00,0.0234
670.00,0.0226
669.00,0.0217
668.00,0.0207
667.00,0.0198
666.00,0.0193
665.00,0.0191
664.00,0.0192
663.00,0.0196
662.00,0.0203
661.00,0.0215
660.00,0.0233
659.00,0.0254
658.00,0.0277
657.00,0.0298
656.00,0.0316
655.00,0.0327
654.00,0.0332
653.00,0.0330
652.00,0.0324
651.00,0.0320
650.00,0.0319
649.00,0.0324
648.00,0.0332
647.00,0.0340
646.00,0.0344
645.00,0.0343
644.00,0.0338
643.00,0.0329
642.00,0.0319
641.00,0.0308
640.00,0.0298
639.00,0.0290
638.00,0.0282
637.00,0.0274
636.00,0.0266
635.00,0.0256
634.00,0.0245
633.00,0.0232
632.00,0.0220
631.00,0.0208
630.00,0.0199
629.00,0.0191
628.00,0.0185
627.00,0.0181
626.00,0.0179
625.00,0.0178
624.00,0.0176
623.00,0.0174
622.00,0.0171
621.00,0.0168
620.00,0.0166
619.00,0.0165
618.00,0.0164
617.00,0.0163
616.00,0.0164
615.00,0.0168
614.00,0.0173
613.00,0.0178
612.00,0.0181
611.00,0.0180
610.00,0.0174
609.00,0.0166
608.00,0.0157
607.00,0.0148
606.00,0.0142
605.00,0.0137
604.00,0.0133
603.00,0.0132
602.00,0.0133
601.00,0.0135
600.00,0.0141
599.00,0.0150
598.00,0.0162
597.00,0.0177
596.00,0.0192
595.00,0.0206
594.00,0.0215
593.00,0.0216
592.00,0.0209
591.00,0.0197
590.00,0.0182
589.00,0.0168
588.00,0.0155
587.00,0.0143
586.00,0.0134
585.00,0.0127
584.00,0.0121
583.00,0.0116
582.00,0.0113
581.00,0.0110
580.00,0.0108
579.00,0.0107
578.00,0.0105
577.00,0.0104
576.00,0.0104
575.00,0.0105
574.00,0.0106
573.00,0.0109
572.00,0.0112
571.00,0.0116
570.00,0.0121
569.00,0.0125
568.00,0.0129
567.00,0.0132
566.00,0.0135
565.00,0.0137
564.00,0.0140
563.00,0.0146
562.00,0.0156
561.00,0.0168
560.00,0.0182
559.00,0.0195
558.00,0.0205
557.00,0.0212
556.00,0.0214
555.00,0.0211
554.00,0.0203
553.00,0.0191
552.00,0.0179
551.00,0.0169
550.00,0.0162
549.00,0.0160
548.00,0.0162
547.00,0.0166
546.00,0.0169
545.00,0.0168
544.00,0.0162
543.00,0.0152
542.00,0.0140
541.00,0.0129
540.00,0.0120
539.00,0.0114
538.00,0.0109
537.00,0.0106
536.00,0.0105
535.00,0.0105
534.00,0.0105
533.00,0.0106
532.00,0.0108
531.00,0.0110
530.00,0.0114
529.00,0.0119
528.00,0.0125
527.00,0.0131
526.00,0.0136
525.00,0.0140
524.00,0.0141
523.00,0.0139
522.00,0.0134
521.00,0.0128
520.00,0.0123
519.00,0.0119
518.00,0.0116
517.00,0.0114
516.00,0.0114
515.00,0.0115
514.00,0.0118
513.00,0.0121
512.00,0.0126
511.00,0.0132
510.00,0.0141
509.00,0.0151
508.00,0.0163
507.00,0.0178
506.00,0.0192
505.00,0.0204
504.00,0.0213
503.00,0.0218
502.00,0.0219
501.00,0.0218
500.00,0.0218
499.00,0.0220
498.00,0.0229
497.00,0.0245
496.00,0.0266
495.00,0.0285
494.00,0.0296
493.00,0.0294
492.00,0.0282
491.00,0.0263
490.00,0.0245
489.00,0.0231
488.00,0.0222
487.00,0.0221
486.00,0.0226
485.00,0.0236
484.00,0.0252
483.00,0.0272
482.00,0.0293
481.00,0.0313
480.00,0.0330
479.00,0.0341
478.00,0.0343
477.00,0.0338
476.00,0.0326
475.00,0.0309
474.00,0.0291
473.00,0.0274
472.00,0.0261
471.00,0.0254
470.00,0.0252
469.00,0.0251
468.00,0.0249
467.00,0.0244
466.00,0.0237
465.00,0.0232
464.00,0.0226
463.00,0.0221
462.00,0.0215
461.00,0.0207
460.00,0.0201
459.00,0.0197
458.00,0.0195
457.00,0.0193
456.00,0.0192
455.00,0.0193
454.00,0.0196
453.00,0.0198
452.00,0.0201
451.00,0.0203
450.00,0.0205
449.00,0.0207
448.00,0.0208
447.00,0.0209
446.00,0.0209
445.00,0.0210
444.00,0.0214
443.00,0.0225
442.00,0.0244
441.00,0.0274
440.00,0.0309
439.00,0.0343
438.00,0.0367
437.00,0.0373
436.00,0.0361
435.00,0.0337
434.00,0.0310
433.00,0.0288
432.00,0.0273
431.00,0.0263
430.00,0.0255
429.00,0.0251
428.00,0.0247
427.00,0.0244
426.00,0.0240
425.00,0.0234
424.00,0.0227
423.00,0.0220
422.00,0.0214
421.00,0.0209
420.00,0.0202
419.00,0.0194
418.00,0.0188
417.00,0.0187
416.00,0.0188
415.00,0.0188
414.00,0.0185
413.00,0.0179
412.00,0.0171
411.00,0.0165
410.00,0.0163
409.00,0.0163
408.00,0.0161
407.00,0.0157
406.00,0.0151
405.00,0.0148
404.00,0.0147
403.00,0.0150
402.00,0.0153
401.00,0.0156
400.00,0.0160
