Created as New Dataset,Sample 221 By YargerLab Date Tuesday, June 11 2024
cm-1,A
4000.00,0.0003
3999.00,0.0003
3998.00,0.0003
3997.00,0.0003
3996.00,0.0003
3995.00,0.0003
3994.00,0.0003
3993.00,0.0003
3992.00,0.0003
3991.00,0.0003
3990.00,0.0003
3989.00,0.0003
3988.00,0.0003
3987.00,0.0003
3986.00,0.0003
3985.00,0.0003
3984.00,0.0003
3983.00,0.0003
3982.00,0.0003
3981.00,0.0003
3980.00,0.0003
3979.00,0.0003
3978.00,0.0003
3977.00,0.0003
3976.00,0.0003
3975.00,0.0003
3974.00,0.0003
3973.00,0.0003
3972.00,0.0003
3971.00,0.0003
3970.00,0.0003
3969.00,0.0003
3968.00,0.0003
3967.00,0.0003
3966.00,0.0003
3965.00,0.0003
3964.00,0.0003
3963.00,0.0003
3962.00,0.0003
3961.00,0.0003
3960.00,0.0003
3959.00,0.0003
3958.00,0.0003
3957.00,0.0003
3956.00,0.0003
3955.00,0.0003
3954.00,0.0003
3953.00,0.0003
3952.00,0.0003
3951.00,0.0003
3950.00,0.0003
3949.00,0.0002
3948.00,0.0002
3947.00,0.0002
3946.00,0.0002
3945.00,0.0002
3944.00,0.0002
3943.00,0.0003
3942.00,0.0003
3941.00,0.0003
3940.00,0.0003
3939.00,0.0003
3938.00,0.0003
3937.00,0.0003
3936.00,0.0002
3935.00,0.0002
3934.00,0.0002
3933.00,0.0001
3932.00,0.0002
3931.00,0.0002
3930.00,0.0002
3929.00,0.0003
3928.00,0.0003
3927.00,0.0003
3926.00,0.0003
3925.00,0.0003
3924.00,0.0003
3923.00,0.0003
3922.00,0.0002
3921.00,0.0002
3920.00,0.0001
3919.00,0.0001
3918.00,0.0001
3917.00,0.0001
3916.00,0.0002
3915.00,0.0002
3914.00,0.0002
3913.00,0.0003
3912.00,0.0003
3911.00,0.0003
3910.00,0.0003
3909.00,0.0004
3908.00,0.0004
3907.00,0.0004
3906.00,0.0003
3905.00,0.0002
3904.00,0.0001
3903.00,-0.0000
3902.00,-0.0001
3901.00,-0.0002
3900.00,-0.0001
3899.00,-0.0000
3898.00,0.0001
3897.00,0.0001
3896.00,0.0001
3895.00,0.0001
3894.00,0.0002
3893.00,0.0002
3892.00,0.0003
3891.00,0.0002
3890.00,0.0002
3889.00,0.0001
3888.00,0.0000
3887.00,-0.0000
3886.00,-0.0000
3885.00,0.0001
3884.00,0.0001
3883.00,0.0001
3882.00,0.0001
3881.00,0.0001
3880.00,0.0001
3879.00,0.0001
3878.00,0.0001
3877.00,0.0000
3876.00,0.0000
3875.00,0.0001
3874.00,0.0002
3873.00,0.0002
3872.00,0.0001
3871.00,-0.0000
3870.00,-0.0001
3869.00,-0.0000
3868.00,-0.0000
3867.00,-0.0001
3866.00,-0.0001
3865.00,-0.0001
3864.00,0.0000
3863.00,0.0000
3862.00,0.0000
3861.00,-0.0000
3860.00,-0.0000
3859.00,0.0001
3858.00,0.0002
3857.00,0.0004
3856.00,0.0004
3855.00,0.0004
3854.00,0.0003
3853.00,0.0002
3852.00,0.0001
3851.00,0.0000
3850.00,-0.0000
3849.00,-0.0001
3848.00,-0.0000
3847.00,0.0000
3846.00,0.0000
3845.00,0.0001
3844.00,0.0001
3843.00,0.0001
3842.00,0.0000
3841.00,0.0000
3840.00,-0.0000
3839.00,-0.0000
3838.00,-0.0000
3837.00,-0.0000
3836.00,0.0000
3835.00,0.0000
3834.00,0.0000
3833.00,0.0000
3832.00,0.0000
3831.00,0.0001
3830.00,0.0001
3829.00,0.0001
3828.00,0.0001
3827.00,0.0001
3826.00,0.0001
3825.00,0.0001
3824.00,0.0001
3823.00,-0.0000
3822.00,-0.0001
3821.00,-0.0000
3820.00,0.0000
3819.00,0.0000
3818.00,-0.0000
3817.00,-0.0001
3816.00,-0.0000
3815.00,0.0001
3814.00,0.0002
3813.00,0.0002
3812.00,0.0002
3811.00,0.0002
3810.00,0.0002
3809.00,0.0002
3808.00,0.0002
3807.00,0.0001
3806.00,0.0001
3805.00,0.0001
3804.00,0.0001
3803.00,0.0000
3802.00,0.0000
3801.00,0.0001
3800.00,0.0001
3799.00,0.0001
3798.00,0.0001
3797.00,0.0001
3796.00,0.0001
3795.00,0.0002
3794.00,0.0002
3793.00,0.0003
3792.00,0.0003
3791.00,0.0004
3790.00,0.0004
3789.00,0.0004
3788.00,0.0004
3787.00,0.0004
3786.00,0.0004
3785.00,0.0004
3784.00,0.0004
3783.00,0.0003
3782.00,0.0003
3781.00,0.0003
3780.00,0.0003
3779.00,0.0003
3778.00,0.0003
3777.00,0.0003
3776.00,0.0003
3775.00,0.0003
3774.00,0.0003
3773.00,0.0003
3772.00,0.0003
3771.00,0.0002
3770.00,0.0002
3769.00,0.0002
3768.00,0.0001
3767.00,0.0001
3766.00,0.0001
3765.00,0.0001
3764.00,0.0001
3763.00,0.0001
3762.00,0.0001
3761.00,0.0000
3760.00,0.0000
3759.00,0.0001
3758.00,0.0001
3757.00,0.0000
3756.00,0.0000
3755.00,0.0000
3754.00,-0.0000
3753.00,-0.0001
3752.00,-0.0002
3751.00,-0.0003
3750.00,-0.0004
3749.00,-0.0004
3748.00,-0.0004
3747.00,-0.0003
3746.00,-0.0004
3745.00,-0.0004
3744.00,-0.0003
3743.00,-0.0002
3742.00,-0.0002
3741.00,-0.0003
3740.00,-0.0004
3739.00,-0.0004
3738.00,-0.0005
3737.00,-0.0005
3736.00,-0.0005
3735.00,-0.0004
3734.00,-0.0004
3733.00,-0.0003
3732.00,-0.0003
3731.00,-0.0002
3730.00,-0.0001
3729.00,-0.0001
3728.00,-0.0001
3727.00,-0.0001
3726.00,-0.0000
3725.00,-0.0000
3724.00,0.0000
3723.00,0.0000
3722.00,0.0000
3721.00,0.0001
3720.00,0.0001
3719.00,0.0001
3718.00,0.0002
3717.00,0.0002
3716.00,0.0002
3715.00,0.0001
3714.00,0.0001
3713.00,0.0001
3712.00,0.0000
3711.00,0.0000
3710.00,-0.0000
3709.00,-0.0000
3708.00,-0.0000
3707.00,0.0000
3706.00,0.0001
3705.00,0.0002
3704.00,0.0002
3703.00,0.0003
3702.00,0.0003
3701.00,0.0004
3700.00,0.0004
3699.00,0.0004
3698.00,0.0004
3697.00,0.0004
3696.00,0.0004
3695.00,0.0004
3694.00,0.0003
3693.00,0.0003
3692.00,0.0003
3691.00,0.0003
3690.00,0.0003
3689.00,0.0002
3688.00,0.0001
3687.00,0.0001
3686.00,0.0002
3685.00,0.0002
3684.00,0.0002
3683.00,0.0002
3682.00,0.0003
3681.00,0.0003
3680.00,0.0004
3679.00,0.0004
3678.00,0.0003
3677.00,0.0003
3676.00,0.0002
3675.00,0.0002
3674.00,0.0003
3673.00,0.0002
3672.00,0.0002
3671.00,0.0002
3670.00,0.0003
3669.00,0.0004
3668.00,0.0004
3667.00,0.0005
3666.00,0.0005
3665.00,0.0006
3664.00,0.0007
3663.00,0.0007
3662.00,0.0008
3661.00,0.0008
3660.00,0.0008
3659.00,0.0008
3658.00,0.0007
3657.00,0.0007
3656.00,0.0007
3655.00,0.0006
3654.00,0.0006
3653.00,0.0004
3652.00,0.0003
3651.00,0.0002
3650.00,0.0002
3649.00,0.0002
3648.00,0.0001
3647.00,0.0002
3646.00,0.0003
3645.00,0.0004
3644.00,0.0005
3643.00,0.0006
3642.00,0.0007
3641.00,0.0007
3640.00,0.0007
3639.00,0.0008
3638.00,0.0008
3637.00,0.0008
3636.00,0.0007
3635.00,0.0007
3634.00,0.0007
3633.00,0.0006
3632.00,0.0005
3631.00,0.0004
3630.00,0.0003
3629.00,0.0003
3628.00,0.0003
3627.00,0.0003
3626.00,0.0003
3625.00,0.0003
3624.00,0.0003
3623.00,0.0004
3622.00,0.0005
3621.00,0.0005
3620.00,0.0006
3619.00,0.0005
3618.00,0.0005
3617.00,0.0004
3616.00,0.0003
3615.00,0.0003
3614.00,0.0003
3613.00,0.0003
3612.00,0.0003
3611.00,0.0002
3610.00,0.0002
3609.00,0.0002
3608.00,0.0004
3607.00,0.0005
3606.00,0.0005
3605.00,0.0006
3604.00,0.0006
3603.00,0.0007
3602.00,0.0007
3601.00,0.0007
3600.00,0.0007
3599.00,0.0007
3598.00,0.0007
3597.00,0.0007
3596.00,0.0007
3595.00,0.0008
3594.00,0.0008
3593.00,0.0007
3592.00,0.0007
3591.00,0.0006
3590.00,0.0006
3589.00,0.0006
3588.00,0.0006
3587.00,0.0007
3586.00,0.0007
3585.00,0.0007
3584.00,0.0007
3583.00,0.0008
3582.00,0.0008
3581.00,0.0009
3580.00,0.0010
3579.00,0.0010
3578.00,0.0011
3577.00,0.0011
3576.00,0.0011
3575.00,0.0011
3574.00,0.0011
3573.00,0.0011
3572.00,0.0011
3571.00,0.0010
3570.00,0.0009
3569.00,0.0008
3568.00,0.0008
3567.00,0.0009
3566.00,0.0009
3565.00,0.0009
3564.00,0.0010
3563.00,0.0010
3562.00,0.0011
3561.00,0.0011
3560.00,0.0012
3559.00,0.0012
3558.00,0.0012
3557.00,0.0012
3556.00,0.0013
3555.00,0.0013
3554.00,0.0013
3553.00,0.0013
3552.00,0.0013
3551.00,0.0013
3550.00,0.0013
3549.00,0.0012
3548.00,0.0012
3547.00,0.0012
3546.00,0.0012
3545.00,0.0013
3544.00,0.0013
3543.00,0.0014
3542.00,0.0014
3541.00,0.0014
3540.00,0.0015
3539.00,0.0015
3538.00,0.0015
3537.00,0.0016
3536.00,0.0016
3535.00,0.0016
3534.00,0.0016
3533.00,0.0016
3532.00,0.0016
3531.00,0.0016
3530.00,0.0016
3529.00,0.0016
3528.00,0.0015
3527.00,0.0015
3526.00,0.0015
3525.00,0.0015
3524.00,0.0016
3523.00,0.0016
3522.00,0.0016
3521.00,0.0017
3520.00,0.0017
3519.00,0.0017
3518.00,0.0018
3517.00,0.0018
3516.00,0.0018
3515.00,0.0018
3514.00,0.0018
3513.00,0.0018
3512.00,0.0018
3511.00,0.0019
3510.00,0.0019
3509.00,0.0019
3508.00,0.0019
3507.00,0.0019
3506.00,0.0019
3505.00,0.0019
3504.00,0.0019
3503.00,0.0019
3502.00,0.0019
3501.00,0.0019
3500.00,0.0019
3499.00,0.0020
3498.00,0.0020
3497.00,0.0020
3496.00,0.0020
3495.00,0.0020
3494.00,0.0021
3493.00,0.0021
3492.00,0.0021
3491.00,0.0021
3490.00,0.0022
3489.00,0.0022
3488.00,0.0022
3487.00,0.0022
3486.00,0.0022
3485.00,0.0022
3484.00,0.0022
3483.00,0.0022
3482.00,0.0023
3481.00,0.0023
3480.00,0.0023
3479.00,0.0023
3478.00,0.0023
3477.00,0.0023
3476.00,0.0024
3475.00,0.0024
3474.00,0.0024
3473.00,0.0024
3472.00,0.0024
3471.00,0.0024
3470.00,0.0025
3469.00,0.0025
3468.00,0.0025
3467.00,0.0025
3466.00,0.0025
3465.00,0.0025
3464.00,0.0026
3463.00,0.0026
3462.00,0.0026
3461.00,0.0026
3460.00,0.0027
3459.00,0.0027
3458.00,0.0027
3457.00,0.0027
3456.00,0.0027
3455.00,0.0027
3454.00,0.0027
3453.00,0.0028
3452.00,0.0028
3451.00,0.0028
3450.00,0.0028
3449.00,0.0028
3448.00,0.0028
3447.00,0.0028
3446.00,0.0028
3445.00,0.0028
3444.00,0.0028
3443.00,0.0028
3442.00,0.0028
3441.00,0.0029
3440.00,0.0029
3439.00,0.0029
3438.00,0.0029
3437.00,0.0029
3436.00,0.0030
3435.00,0.0030
3434.00,0.0030
3433.00,0.0030
3432.00,0.0030
3431.00,0.0030
3430.00,0.0030
3429.00,0.0030
3428.00,0.0031
3427.00,0.0031
3426.00,0.0031
3425.00,0.0031
3424.00,0.0031
3423.00,0.0032
3422.00,0.0032
3421.00,0.0032
3420.00,0.0032
3419.00,0.0032
3418.00,0.0032
3417.00,0.0032
3416.00,0.0032
3415.00,0.0032
3414.00,0.0033
3413.00,0.0033
3412.00,0.0033
3411.00,0.0033
3410.00,0.0033
3409.00,0.0033
3408.00,0.0033
3407.00,0.0033
3406.00,0.0034
3405.00,0.0034
3404.00,0.0034
3403.00,0.0034
3402.00,0.0034
3401.00,0.0034
3400.00,0.0034
3399.00,0.0034
3398.00,0.0034
3397.00,0.0034
3396.00,0.0034
3395.00,0.0034
3394.00,0.0034
3393.00,0.0035
3392.00,0.0035
3391.00,0.0035
3390.00,0.0035
3389.00,0.0036
3388.00,0.0036
3387.00,0.0036
3386.00,0.0036
3385.00,0.0036
3384.00,0.0036
3383.00,0.0036
3382.00,0.0037
3381.00,0.0037
3380.00,0.0037
3379.00,0.0037
3378.00,0.0037
3377.00,0.0037
3376.00,0.0038
3375.00,0.0038
3374.00,0.0038
3373.00,0.0038
3372.00,0.0038
3371.00,0.0038
3370.00,0.0038
3369.00,0.0038
3368.00,0.0038
3367.00,0.0039
3366.00,0.0039
3365.00,0.0039
3364.00,0.0039
3363.00,0.0040
3362.00,0.0040
3361.00,0.0040
3360.00,0.0040
3359.00,0.0041
3358.00,0.0041
3357.00,0.0041
3356.00,0.0042
3355.00,0.0042
3354.00,0.0042
3353.00,0.0042
3352.00,0.0042
3351.00,0.0042
3350.00,0.0043
3349.00,0.0043
3348.00,0.0043
3347.00,0.0044
3346.00,0.0044
3345.00,0.0044
3344.00,0.0044
3343.00,0.0045
3342.00,0.0045
3341.00,0.0045
3340.00,0.0045
3339.00,0.0045
3338.00,0.0045
3337.00,0.0046
3336.00,0.0046
3335.00,0.0047
3334.00,0.0047
3333.00,0.0047
3332.00,0.0048
3331.00,0.0048
3330.00,0.0048
3329.00,0.0048
3328.00,0.0048
3327.00,0.0049
3326.00,0.0049
3325.00,0.0050
3324.00,0.0050
3323.00,0.0051
3322.00,0.0051
3321.00,0.0051
3320.00,0.0052
3319.00,0.0052
3318.00,0.0052
3317.00,0.0053
3316.00,0.0053
3315.00,0.0053
3314.00,0.0054
3313.00,0.0054
3312.00,0.0054
3311.00,0.0054
3310.00,0.0054
3309.00,0.0055
3308.00,0.0055
3307.00,0.0056
3306.00,0.0056
3305.00,0.0057
3304.00,0.0057
3303.00,0.0058
3302.00,0.0059
3301.00,0.0059
3300.00,0.0059
3299.00,0.0060
3298.00,0.0060
3297.00,0.0060
3296.00,0.0061
3295.00,0.0061
3294.00,0.0062
3293.00,0.0062
3292.00,0.0063
3291.00,0.0064
3290.00,0.0064
3289.00,0.0065
3288.00,0.0065
3287.00,0.0066
3286.00,0.0066
3285.00,0.0067
3284.00,0.0067
3283.00,0.0068
3282.00,0.0068
3281.00,0.0068
3280.00,0.0069
3279.00,0.0069
3278.00,0.0069
3277.00,0.0069
3276.00,0.0069
3275.00,0.0069
3274.00,0.0069
3273.00,0.0069
3272.00,0.0069
3271.00,0.0069
3270.00,0.0069
3269.00,0.0070
3268.00,0.0070
3267.00,0.0070
3266.00,0.0070
3265.00,0.0070
3264.00,0.0070
3263.00,0.0069
3262.00,0.0069
3261.00,0.0069
3260.00,0.0068
3259.00,0.0068
3258.00,0.0067
3257.00,0.0067
3256.00,0.0067
3255.00,0.0066
3254.00,0.0066
3253.00,0.0066
3252.00,0.0065
3251.00,0.0065
3250.00,0.0065
3249.00,0.0064
3248.00,0.0063
3247.00,0.0063
3246.00,0.0063
3245.00,0.0062
3244.00,0.0062
3243.00,0.0062
3242.00,0.0062
3241.00,0.0062
3240.00,0.0061
3239.00,0.0061
3238.00,0.0061
3237.00,0.0060
3236.00,0.0060
3235.00,0.0059
3234.00,0.0059
3233.00,0.0059
3232.00,0.0058
3231.00,0.0058
3230.00,0.0058
3229.00,0.0058
3228.00,0.0058
3227.00,0.0058
3226.00,0.0057
3225.00,0.0057
3224.00,0.0057
3223.00,0.0057
3222.00,0.0056
3221.00,0.0056
3220.00,0.0056
3219.00,0.0056
3218.00,0.0056
3217.00,0.0055
3216.00,0.0055
3215.00,0.0055
3214.00,0.0055
3213.00,0.0054
3212.00,0.0054
3211.00,0.0054
3210.00,0.0054
3209.00,0.0054
3208.00,0.0054
3207.00,0.0054
3206.00,0.0053
3205.00,0.0053
3204.00,0.0053
3203.00,0.0053
3202.00,0.0053
3201.00,0.0053
3200.00,0.0052
3199.00,0.0052
3198.00,0.0052
3197.00,0.0052
3196.00,0.0052
3195.00,0.0051
3194.00,0.0051
3193.00,0.0051
3192.00,0.0051
3191.00,0.0051
3190.00,0.0050
3189.00,0.0050
3188.00,0.0050
3187.00,0.0050
3186.00,0.0049
3185.00,0.0049
3184.00,0.0049
3183.00,0.0049
3182.00,0.0048
3181.00,0.0048
3180.00,0.0048
3179.00,0.0047
3178.00,0.0047
3177.00,0.0047
3176.00,0.0047
3175.00,0.0047
3174.00,0.0047
3173.00,0.0046
3172.00,0.0046
3171.00,0.0046
3170.00,0.0046
3169.00,0.0045
3168.00,0.0045
3167.00,0.0045
3166.00,0.0045
3165.00,0.0044
3164.00,0.0044
3163.00,0.0044
3162.00,0.0043
3161.00,0.0043
3160.00,0.0043
3159.00,0.0042
3158.00,0.0042
3157.00,0.0042
3156.00,0.0042
3155.00,0.0041
3154.00,0.0041
3153.00,0.0041
3152.00,0.0041
3151.00,0.0040
3150.00,0.0040
3149.00,0.0040
3148.00,0.0040
3147.00,0.0040
3146.00,0.0040
3145.00,0.0040
3144.00,0.0040
3143.00,0.0039
3142.00,0.0039
3141.00,0.0039
3140.00,0.0038
3139.00,0.0038
3138.00,0.0038
3137.00,0.0038
3136.00,0.0038
3135.00,0.0038
3134.00,0.0038
3133.00,0.0037
3132.00,0.0037
3131.00,0.0037
3130.00,0.0037
3129.00,0.0037
3128.00,0.0037
3127.00,0.0037
3126.00,0.0037
3125.00,0.0036
3124.00,0.0036
3123.00,0.0036
3122.00,0.0036
3121.00,0.0035
3120.00,0.0035
3119.00,0.0035
3118.00,0.0035
3117.00,0.0035
3116.00,0.0035
3115.00,0.0035
3114.00,0.0035
3113.00,0.0035
3112.00,0.0035
3111.00,0.0035
3110.00,0.0035
3109.00,0.0035
3108.00,0.0035
3107.00,0.0035
3106.00,0.0035
3105.00,0.0035
3104.00,0.0035
3103.00,0.0035
3102.00,0.0035
3101.00,0.0035
3100.00,0.0035
3099.00,0.0035
3098.00,0.0035
3097.00,0.0035
3096.00,0.0035
3095.00,0.0035
3094.00,0.0035
3093.00,0.0035
3092.00,0.0035
3091.00,0.0035
3090.00,0.0035
3089.00,0.0035
3088.00,0.0035
3087.00,0.0035
3086.00,0.0035
3085.00,0.0035
3084.00,0.0035
3083.00,0.0035
3082.00,0.0035
3081.00,0.0035
3080.00,0.0035
3079.00,0.0035
3078.00,0.0035
3077.00,0.0036
3076.00,0.0036
3075.00,0.0036
3074.00,0.0036
3073.00,0.0036
3072.00,0.0036
3071.00,0.0036
3070.00,0.0036
3069.00,0.0036
3068.00,0.0035
3067.00,0.0035
3066.00,0.0035
3065.00,0.0035
3064.00,0.0036
3063.00,0.0036
3062.00,0.0036
3061.00,0.0036
3060.00,0.0036
3059.00,0.0035
3058.00,0.0035
3057.00,0.0035
3056.00,0.0034
3055.00,0.0034
3054.00,0.0034
3053.00,0.0034
3052.00,0.0034
3051.00,0.0034
3050.00,0.0034
3049.00,0.0034
3048.00,0.0034
3047.00,0.0033
3046.00,0.0033
3045.00,0.0033
3044.00,0.0033
3043.00,0.0032
3042.00,0.0032
3041.00,0.0032
3040.00,0.0032
3039.00,0.0032
3038.00,0.0032
3037.00,0.0032
3036.00,0.0032
3035.00,0.0031
3034.00,0.0031
3033.00,0.0031
3032.00,0.0031
3031.00,0.0031
3030.00,0.0031
3029.00,0.0031
3028.00,0.0031
3027.00,0.0031
3026.00,0.0031
3025.00,0.0031
3024.00,0.0031
3023.00,0.0030
3022.00,0.0030
3021.00,0.0030
3020.00,0.0030
3019.00,0.0029
3018.00,0.0029
3017.00,0.0029
3016.00,0.0029
3015.00,0.0030
3014.00,0.0030
3013.00,0.0030
3012.00,0.0031
3011.00,0.0032
3010.00,0.0032
3009.00,0.0033
3008.00,0.0034
3007.00,0.0035
3006.00,0.0036
3005.00,0.0037
3004.00,0.0038
3003.00,0.0039
3002.00,0.0040
3001.00,0.0041
3000.00,0.0042
2999.00,0.0042
2998.00,0.0043
2997.00,0.0044
2996.00,0.0045
2995.00,0.0045
2994.00,0.0046
2993.00,0.0046
2992.00,0.0047
2991.00,0.0048
2990.00,0.0049
2989.00,0.0049
2988.00,0.0050
2987.00,0.0051
2986.00,0.0053
2985.00,0.0056
2984.00,0.0059
2983.00,0.0062
2982.00,0.0064
2981.00,0.0065
2980.00,0.0064
2979.00,0.0063
2978.00,0.0062
2977.00,0.0061
2976.00,0.0060
2975.00,0.0060
2974.00,0.0060
2973.00,0.0061
2972.00,0.0061
2971.00,0.0061
2970.00,0.0061
2969.00,0.0060
2968.00,0.0059
2967.00,0.0058
2966.00,0.0057
2965.00,0.0056
2964.00,0.0055
2963.00,0.0055
2962.00,0.0054
2961.00,0.0053
2960.00,0.0053
2959.00,0.0052
2958.00,0.0052
2957.00,0.0051
2956.00,0.0050
2955.00,0.0049
2954.00,0.0048
2953.00,0.0047
2952.00,0.0046
2951.00,0.0045
2950.00,0.0044
2949.00,0.0043
2948.00,0.0043
2947.00,0.0042
2946.00,0.0041
2945.00,0.0041
2944.00,0.0040
2943.00,0.0040
2942.00,0.0041
2941.00,0.0041
2940.00,0.0041
2939.00,0.0041
2938.00,0.0042
2937.00,0.0042
2936.00,0.0042
2935.00,0.0042
2934.00,0.0042
2933.00,0.0042
2932.00,0.0042
2931.00,0.0042
2930.00,0.0041
2929.00,0.0041
2928.00,0.0041
2927.00,0.0040
2926.00,0.0040
2925.00,0.0039
2924.00,0.0038
2923.00,0.0038
2922.00,0.0037
2921.00,0.0037
2920.00,0.0036
2919.00,0.0035
2918.00,0.0035
2917.00,0.0035
2916.00,0.0035
2915.00,0.0035
2914.00,0.0035
2913.00,0.0035
2912.00,0.0035
2911.00,0.0035
2910.00,0.0036
2909.00,0.0036
2908.00,0.0036
2907.00,0.0036
2906.00,0.0036
2905.00,0.0036
2904.00,0.0036
2903.00,0.0036
2902.00,0.0036
2901.00,0.0036
2900.00,0.0036
2899.00,0.0036
2898.00,0.0036
2897.00,0.0036
2896.00,0.0036
2895.00,0.0036
2894.00,0.0037
2893.00,0.0037
2892.00,0.0037
2891.00,0.0038
2890.00,0.0038
2889.00,0.0038
2888.00,0.0038
2887.00,0.0038
2886.00,0.0038
2885.00,0.0038
2884.00,0.0038
2883.00,0.0038
2882.00,0.0038
2881.00,0.0038
2880.00,0.0037
2879.00,0.0037
2878.00,0.0037
2877.00,0.0036
2876.00,0.0036
2875.00,0.0036
2874.00,0.0036
2873.00,0.0035
2872.00,0.0035
2871.00,0.0035
2870.00,0.0035
2869.00,0.0034
2868.00,0.0034
2867.00,0.0033
2866.00,0.0033
2865.00,0.0032
2864.00,0.0032
2863.00,0.0031
2862.00,0.0031
2861.00,0.0031
2860.00,0.0030
2859.00,0.0030
2858.00,0.0030
2857.00,0.0030
2856.00,0.0029
2855.00,0.0029
2854.00,0.0028
2853.00,0.0028
2852.00,0.0028
2851.00,0.0027
2850.00,0.0027
2849.00,0.0026
2848.00,0.0026
2847.00,0.0026
2846.00,0.0026
2845.00,0.0025
2844.00,0.0025
2843.00,0.0025
2842.00,0.0025
2841.00,0.0025
2840.00,0.0025
2839.00,0.0024
2838.00,0.0024
2837.00,0.0024
2836.00,0.0024
2835.00,0.0024
2834.00,0.0024
2833.00,0.0024
2832.00,0.0024
2831.00,0.0024
2830.00,0.0024
2829.00,0.0024
2828.00,0.0024
2827.00,0.0024
2826.00,0.0024
2825.00,0.0024
2824.00,0.0024
2823.00,0.0024
2822.00,0.0024
2821.00,0.0024
2820.00,0.0024
2819.00,0.0024
2818.00,0.0024
2817.00,0.0024
2816.00,0.0023
2815.00,0.0023
2814.00,0.0023
2813.00,0.0023
2812.00,0.0023
2811.00,0.0023
2810.00,0.0023
2809.00,0.0023
2808.00,0.0023
2807.00,0.0023
2806.00,0.0023
2805.00,0.0022
2804.00,0.0022
2803.00,0.0022
2802.00,0.0022
2801.00,0.0022
2800.00,0.0022
2799.00,0.0022
2798.00,0.0022
2797.00,0.0022
2796.00,0.0022
2795.00,0.0022
2794.00,0.0022
2793.00,0.0022
2792.00,0.0022
2791.00,0.0022
2790.00,0.0022
2789.00,0.0022
2788.00,0.0022
2787.00,0.0022
2786.00,0.0022
2785.00,0.0021
2784.00,0.0021
2783.00,0.0021
2782.00,0.0021
2781.00,0.0021
2780.00,0.0021
2779.00,0.0021
2778.00,0.0021
2777.00,0.0021
2776.00,0.0021
2775.00,0.0021
2774.00,0.0021
2773.00,0.0021
2772.00,0.0021
2771.00,0.0021
2770.00,0.0021
2769.00,0.0020
2768.00,0.0020
2767.00,0.0020
2766.00,0.0020
2765.00,0.0020
2764.00,0.0020
2763.00,0.0020
2762.00,0.0020
2761.00,0.0020
2760.00,0.0020
2759.00,0.0020
2758.00,0.0020
2757.00,0.0020
2756.00,0.0020
2755.00,0.0020
2754.00,0.0020
2753.00,0.0020
2752.00,0.0019
2751.00,0.0019
2750.00,0.0019
2749.00,0.0019
2748.00,0.0019
2747.00,0.0019
2746.00,0.0019
2745.00,0.0019
2744.00,0.0019
2743.00,0.0019
2742.00,0.0019
2741.00,0.0019
2740.00,0.0019
2739.00,0.0019
2738.00,0.0019
2737.00,0.0019
2736.00,0.0019
2735.00,0.0019
2734.00,0.0018
2733.00,0.0018
2732.00,0.0018
2731.00,0.0018
2730.00,0.0018
2729.00,0.0018
2728.00,0.0018
2727.00,0.0018
2726.00,0.0018
2725.00,0.0018
2724.00,0.0018
2723.00,0.0018
2722.00,0.0018
2721.00,0.0018
2720.00,0.0018
2719.00,0.0018
2718.00,0.0018
2717.00,0.0018
2716.00,0.0017
2715.00,0.0017
2714.00,0.0017
2713.00,0.0017
2712.00,0.0017
2711.00,0.0017
2710.00,0.0017
2709.00,0.0017
2708.00,0.0017
2707.00,0.0017
2706.00,0.0017
2705.00,0.0017
2704.00,0.0017
2703.00,0.0017
2702.00,0.0017
2701.00,0.0017
2700.00,0.0016
2699.00,0.0016
2698.00,0.0016
2697.00,0.0016
2696.00,0.0016
2695.00,0.0016
2694.00,0.0016
2693.00,0.0016
2692.00,0.0016
2691.00,0.0016
2690.00,0.0016
2689.00,0.0016
2688.00,0.0016
2687.00,0.0016
2686.00,0.0016
2685.00,0.0016
2684.00,0.0016
2683.00,0.0016
2682.00,0.0016
2681.00,0.0016
2680.00,0.0016
2679.00,0.0016
2678.00,0.0016
2677.00,0.0016
2676.00,0.0016
2675.00,0.0016
2674.00,0.0016
2673.00,0.0016
2672.00,0.0016
2671.00,0.0016
2670.00,0.0016
2669.00,0.0016
2668.00,0.0016
2667.00,0.0016
2666.00,0.0016
2665.00,0.0016
2664.00,0.0016
2663.00,0.0016
2662.00,0.0016
2661.00,0.0016
2660.00,0.0016
2659.00,0.0016
2658.00,0.0016
2657.00,0.0016
2656.00,0.0016
2655.00,0.0016
2654.00,0.0016
2653.00,0.0015
2652.00,0.0015
2651.00,0.0015
2650.00,0.0015
2649.00,0.0015
2648.00,0.0015
2647.00,0.0015
2646.00,0.0015
2645.00,0.0015
2644.00,0.0015
2643.00,0.0015
2642.00,0.0015
2641.00,0.0015
2640.00,0.0015
2639.00,0.0015
2638.00,0.0015
2637.00,0.0015
2636.00,0.0015
2635.00,0.0015
2634.00,0.0015
2633.00,0.0015
2632.00,0.0015
2631.00,0.0015
2630.00,0.0015
2629.00,0.0015
2628.00,0.0015
2627.00,0.0015
2626.00,0.0015
2625.00,0.0015
2624.00,0.0015
2623.00,0.0015
2622.00,0.0015
2621.00,0.0015
2620.00,0.0015
2619.00,0.0015
2618.00,0.0014
2617.00,0.0014
2616.00,0.0014
2615.00,0.0014
2614.00,0.0014
2613.00,0.0014
2612.00,0.0014
2611.00,0.0014
2610.00,0.0014
2609.00,0.0014
2608.00,0.0014
2607.00,0.0014
2606.00,0.0014
2605.00,0.0014
2604.00,0.0014
2603.00,0.0014
2602.00,0.0014
2601.00,0.0014
2600.00,0.0014
2599.00,0.0014
2598.00,0.0014
2597.00,0.0014
2596.00,0.0014
2595.00,0.0014
2594.00,0.0014
2593.00,0.0014
2592.00,0.0014
2591.00,0.0014
2590.00,0.0014
2589.00,0.0014
2588.00,0.0014
2587.00,0.0014
2586.00,0.0013
2585.00,0.0013
2584.00,0.0013
2583.00,0.0013
2582.00,0.0013
2581.00,0.0013
2580.00,0.0013
2579.00,0.0013
2578.00,0.0013
2577.00,0.0013
2576.00,0.0013
2575.00,0.0013
2574.00,0.0013
2573.00,0.0013
2572.00,0.0013
2571.00,0.0013
2570.00,0.0013
2569.00,0.0013
2568.00,0.0013
2567.00,0.0013
2566.00,0.0013
2565.00,0.0013
2564.00,0.0013
2563.00,0.0013
2562.00,0.0013
2561.00,0.0013
2560.00,0.0013
2559.00,0.0013
2558.00,0.0013
2557.00,0.0013
2556.00,0.0013
2555.00,0.0013
2554.00,0.0013
2553.00,0.0013
2552.00,0.0013
2551.00,0.0013
2550.00,0.0012
2549.00,0.0012
2548.00,0.0012
2547.00,0.0012
2546.00,0.0012
2545.00,0.0012
2544.00,0.0012
2543.00,0.0012
2542.00,0.0012
2541.00,0.0012
2540.00,0.0012
2539.00,0.0012
2538.00,0.0012
2537.00,0.0012
2536.00,0.0012
2535.00,0.0012
2534.00,0.0012
2533.00,0.0012
2532.00,0.0012
2531.00,0.0012
2530.00,0.0012
2529.00,0.0012
2528.00,0.0012
2527.00,0.0012
2526.00,0.0012
2525.00,0.0012
2524.00,0.0012
2523.00,0.0012
2522.00,0.0012
2521.00,0.0012
2520.00,0.0012
2519.00,0.0012
2518.00,0.0012
2517.00,0.0012
2516.00,0.0012
2515.00,0.0012
2514.00,0.0012
2513.00,0.0012
2512.00,0.0012
2511.00,0.0012
2510.00,0.0012
2509.00,0.0012
2508.00,0.0012
2507.00,0.0011
2506.00,0.0011
2505.00,0.0011
2504.00,0.0011
2503.00,0.0011
2502.00,0.0011
2501.00,0.0011
2500.00,0.0011
2499.00,0.0011
2498.00,0.0011
2497.00,0.0011
2496.00,0.0011
2495.00,0.0011
2494.00,0.0011
2493.00,0.0011
2492.00,0.0011
2491.00,0.0011
2490.00,0.0011
2489.00,0.0011
2488.00,0.0012
2487.00,0.0012
2486.00,0.0012
2485.00,0.0012
2484.00,0.0011
2483.00,0.0011
2482.00,0.0011
2481.00,0.0011
2480.00,0.0011
2479.00,0.0011
2478.00,0.0011
2477.00,0.0011
2476.00,0.0011
2475.00,0.0011
2474.00,0.0011
2473.00,0.0011
2472.00,0.0011
2471.00,0.0011
2470.00,0.0011
2469.00,0.0011
2468.00,0.0011
2467.00,0.0011
2466.00,0.0011
2465.00,0.0010
2464.00,0.0010
2463.00,0.0010
2462.00,0.0010
2461.00,0.0010
2460.00,0.0011
2459.00,0.0011
2458.00,0.0011
2457.00,0.0010
2456.00,0.0010
2455.00,0.0010
2454.00,0.0010
2453.00,0.0010
2452.00,0.0010
2451.00,0.0010
2450.00,0.0010
2449.00,0.0010
2448.00,0.0010
2447.00,0.0010
2446.00,0.0010
2445.00,0.0010
2444.00,0.0010
2443.00,0.0010
2442.00,0.0010
2441.00,0.0010
2440.00,0.0010
2439.00,0.0010
2438.00,0.0010
2437.00,0.0010
2436.00,0.0010
2435.00,0.0010
2434.00,0.0010
2433.00,0.0010
2432.00,0.0010
2431.00,0.0010
2430.00,0.0010
2429.00,0.0010
2428.00,0.0010
2427.00,0.0010
2426.00,0.0010
2425.00,0.0010
2424.00,0.0009
2423.00,0.0009
2422.00,0.0009
2421.00,0.0009
2420.00,0.0009
2419.00,0.0009
2418.00,0.0009
2417.00,0.0009
2416.00,0.0009
2415.00,0.0009
2414.00,0.0009
2413.00,0.0009
2412.00,0.0009
2411.00,0.0009
2410.00,0.0009
2409.00,0.0010
2408.00,0.0010
2407.00,0.0009
2406.00,0.0009
2405.00,0.0009
2404.00,0.0009
2403.00,0.0009
2402.00,0.0009
2401.00,0.0009
2400.00,0.0009
2399.00,0.0009
2398.00,0.0009
2397.00,0.0009
2396.00,0.0009
2395.00,0.0009
2394.00,0.0009
2393.00,0.0009
2392.00,0.0009
2391.00,0.0009
2390.00,0.0009
2389.00,0.0009
2388.00,0.0009
2387.00,0.0009
2386.00,0.0009
2385.00,0.0009
2384.00,0.0009
2383.00,0.0009
2382.00,0.0009
2381.00,0.0009
2380.00,0.0009
2379.00,0.0009
2378.00,0.0009
2377.00,0.0009
2376.00,0.0009
2375.00,0.0009
2374.00,0.0008
2373.00,0.0008
2372.00,0.0008
2371.00,0.0008
2370.00,0.0008
2369.00,0.0009
2368.00,0.0009
2367.00,0.0009
2366.00,0.0009
2365.00,0.0009
2364.00,0.0009
2363.00,0.0008
2362.00,0.0008
2361.00,0.0008
2360.00,0.0008
2359.00,0.0008
2358.00,0.0008
2357.00,0.0008
2356.00,0.0008
2355.00,0.0008
2354.00,0.0008
2353.00,0.0009
2352.00,0.0009
2351.00,0.0009
2350.00,0.0009
2349.00,0.0008
2348.00,0.0008
2347.00,0.0008
2346.00,0.0008
2345.00,0.0008
2344.00,0.0008
2343.00,0.0009
2342.00,0.0009
2341.00,0.0009
2340.00,0.0008
2339.00,0.0008
2338.00,0.0008
2337.00,0.0008
2336.00,0.0008
2335.00,0.0008
2334.00,0.0008
2333.00,0.0008
2332.00,0.0008
2331.00,0.0008
2330.00,0.0008
2329.00,0.0008
2328.00,0.0008
2327.00,0.0008
2326.00,0.0009
2325.00,0.0009
2324.00,0.0009
2323.00,0.0009
2322.00,0.0008
2321.00,0.0008
2320.00,0.0008
2319.00,0.0008
2318.00,0.0008
2317.00,0.0008
2316.00,0.0008
2315.00,0.0008
2314.00,0.0008
2313.00,0.0008
2312.00,0.0008
2311.00,0.0008
2310.00,0.0008
2309.00,0.0008
2308.00,0.0008
2307.00,0.0008
2306.00,0.0008
2305.00,0.0008
2304.00,0.0008
2303.00,0.0008
2302.00,0.0008
2301.00,0.0008
2300.00,0.0008
2299.00,0.0008
2298.00,0.0008
2297.00,0.0008
2296.00,0.0008
2295.00,0.0008
2294.00,0.0008
2293.00,0.0008
2292.00,0.0008
2291.00,0.0008
2290.00,0.0008
2289.00,0.0008
2288.00,0.0008
2287.00,0.0008
2286.00,0.0008
2285.00,0.0008
2284.00,0.0008
2283.00,0.0008
2282.00,0.0008
2281.00,0.0008
2280.00,0.0008
2279.00,0.0008
2278.00,0.0008
2277.00,0.0008
2276.00,0.0008
2275.00,0.0007
2274.00,0.0007
2273.00,0.0007
2272.00,0.0007
2271.00,0.0007
2270.00,0.0007
2269.00,0.0008
2268.00,0.0008
2267.00,0.0008
2266.00,0.0008
2265.00,0.0008
2264.00,0.0008
2263.00,0.0008
2262.00,0.0008
2261.00,0.0008
2260.00,0.0008
2259.00,0.0008
2258.00,0.0008
2257.00,0.0007
2256.00,0.0007
2255.00,0.0007
2254.00,0.0007
2253.00,0.0007
2252.00,0.0007
2251.00,0.0008
2250.00,0.0007
2249.00,0.0007
2248.00,0.0007
2247.00,0.0007
2246.00,0.0007
2245.00,0.0007
2244.00,0.0007
2243.00,0.0008
2242.00,0.0008
2241.00,0.0008
2240.00,0.0008
2239.00,0.0008
2238.00,0.0007
2237.00,0.0007
2236.00,0.0007
2235.00,0.0007
2234.00,0.0007
2233.00,0.0007
2232.00,0.0007
2231.00,0.0007
2230.00,0.0007
2229.00,0.0006
2228.00,0.0006
2227.00,0.0006
2226.00,0.0006
2225.00,0.0006
2224.00,0.0007
2223.00,0.0007
2222.00,0.0007
2221.00,0.0007
2220.00,0.0007
2219.00,0.0007
2218.00,0.0006
2217.00,0.0006
2216.00,0.0006
2215.00,0.0006
2214.00,0.0007
2213.00,0.0007
2212.00,0.0007
2211.00,0.0007
2210.00,0.0007
2209.00,0.0007
2208.00,0.0007
2207.00,0.0008
2206.00,0.0008
2205.00,0.0008
2204.00,0.0008
2203.00,0.0007
2202.00,0.0006
2201.00,0.0006
2200.00,0.0006
2199.00,0.0007
2198.00,0.0007
2197.00,0.0007
2196.00,0.0007
2195.00,0.0007
2194.00,0.0006
2193.00,0.0006
2192.00,0.0007
2191.00,0.0007
2190.00,0.0007
2189.00,0.0008
2188.00,0.0008
2187.00,0.0008
2186.00,0.0007
2185.00,0.0007
2184.00,0.0007
2183.00,0.0007
2182.00,0.0007
2181.00,0.0008
2180.00,0.0007
2179.00,0.0007
2178.00,0.0007
2177.00,0.0007
2176.00,0.0007
2175.00,0.0007
2174.00,0.0007
2173.00,0.0007
2172.00,0.0007
2171.00,0.0007
2170.00,0.0007
2169.00,0.0007
2168.00,0.0007
2167.00,0.0007
2166.00,0.0007
2165.00,0.0007
2164.00,0.0007
2163.00,0.0007
2162.00,0.0007
2161.00,0.0007
2160.00,0.0006
2159.00,0.0006
2158.00,0.0006
2157.00,0.0006
2156.00,0.0006
2155.00,0.0006
2154.00,0.0006
2153.00,0.0006
2152.00,0.0006
2151.00,0.0006
2150.00,0.0006
2149.00,0.0007
2148.00,0.0007
2147.00,0.0006
2146.00,0.0006
2145.00,0.0006
2144.00,0.0006
2143.00,0.0006
2142.00,0.0006
2141.00,0.0005
2140.00,0.0005
2139.00,0.0005
2138.00,0.0005
2137.00,0.0005
2136.00,0.0005
2135.00,0.0005
2134.00,0.0005
2133.00,0.0005
2132.00,0.0005
2131.00,0.0005
2130.00,0.0005
2129.00,0.0005
2128.00,0.0005
2127.00,0.0005
2126.00,0.0005
2125.00,0.0005
2124.00,0.0005
2123.00,0.0005
2122.00,0.0005
2121.00,0.0005
2120.00,0.0005
2119.00,0.0005
2118.00,0.0005
2117.00,0.0006
2116.00,0.0006
2115.00,0.0007
2114.00,0.0006
2113.00,0.0006
2112.00,0.0006
2111.00,0.0005
2110.00,0.0005
2109.00,0.0005
2108.00,0.0005
2107.00,0.0005
2106.00,0.0005
2105.00,0.0005
2104.00,0.0005
2103.00,0.0005
2102.00,0.0005
2101.00,0.0005
2100.00,0.0005
2099.00,0.0005
2098.00,0.0005
2097.00,0.0005
2096.00,0.0005
2095.00,0.0005
2094.00,0.0005
2093.00,0.0005
2092.00,0.0005
2091.00,0.0006
2090.00,0.0006
2089.00,0.0006
2088.00,0.0006
2087.00,0.0006
2086.00,0.0006
2085.00,0.0005
2084.00,0.0005
2083.00,0.0005
2082.00,0.0005
2081.00,0.0005
2080.00,0.0005
2079.00,0.0006
2078.00,0.0006
2077.00,0.0006
2076.00,0.0006
2075.00,0.0006
2074.00,0.0006
2073.00,0.0006
2072.00,0.0006
2071.00,0.0006
2070.00,0.0005
2069.00,0.0005
2068.00,0.0005
2067.00,0.0005
2066.00,0.0005
2065.00,0.0005
2064.00,0.0005
2063.00,0.0005
2062.00,0.0005
2061.00,0.0005
2060.00,0.0005
2059.00,0.0005
2058.00,0.0005
2057.00,0.0005
2056.00,0.0004
2055.00,0.0004
2054.00,0.0004
2053.00,0.0005
2052.00,0.0005
2051.00,0.0005
2050.00,0.0005
2049.00,0.0005
2048.00,0.0005
2047.00,0.0005
2046.00,0.0004
2045.00,0.0004
2044.00,0.0004
2043.00,0.0003
2042.00,0.0004
2041.00,0.0004
2040.00,0.0005
2039.00,0.0006
2038.00,0.0006
2037.00,0.0006
2036.00,0.0006
2035.00,0.0005
2034.00,0.0005
2033.00,0.0004
2032.00,0.0004
2031.00,0.0003
2030.00,0.0003
2029.00,0.0003
2028.00,0.0004
2027.00,0.0004
2026.00,0.0004
2025.00,0.0004
2024.00,0.0004
2023.00,0.0004
2022.00,0.0004
2021.00,0.0003
2020.00,0.0004
2019.00,0.0004
2018.00,0.0005
2017.00,0.0006
2016.00,0.0007
2015.00,0.0007
2014.00,0.0006
2013.00,0.0006
2012.00,0.0005
2011.00,0.0004
2010.00,0.0004
2009.00,0.0004
2008.00,0.0004
2007.00,0.0004
2006.00,0.0004
2005.00,0.0004
2004.00,0.0004
2003.00,0.0004
2002.00,0.0004
2001.00,0.0004
2000.00,0.0005
1999.00,0.0005
1998.00,0.0005
1997.00,0.0005
1996.00,0.0006
1995.00,0.0006
1994.00,0.0007
1993.00,0.0007
1992.00,0.0007
1991.00,0.0006
1990.00,0.0006
1989.00,0.0006
1988.00,0.0006
1987.00,0.0005
1986.00,0.0005
1985.00,0.0004
1984.00,0.0004
1983.00,0.0004
1982.00,0.0004
1981.00,0.0004
1980.00,0.0004
1979.00,0.0004
1978.00,0.0004
1977.00,0.0005
1976.00,0.0005
1975.00,0.0004
1974.00,0.0004
1973.00,0.0004
1972.00,0.0003
1971.00,0.0003
1970.00,0.0004
1969.00,0.0004
1968.00,0.0004
1967.00,0.0004
1966.00,0.0004
1965.00,0.0004
1964.00,0.0003
1963.00,0.0003
1962.00,0.0003
1961.00,0.0003
1960.00,0.0003
1959.00,0.0003
1958.00,0.0003
1957.00,0.0004
1956.00,0.0004
1955.00,0.0004
1954.00,0.0004
1953.00,0.0004
1952.00,0.0004
1951.00,0.0004
1950.00,0.0004
1949.00,0.0003
1948.00,0.0003
1947.00,0.0003
1946.00,0.0003
1945.00,0.0003
1944.00,0.0003
1943.00,0.0003
1942.00,0.0003
1941.00,0.0004
1940.00,0.0004
1939.00,0.0003
1938.00,0.0003
1937.00,0.0003
1936.00,0.0002
1935.00,0.0002
1934.00,0.0002
1933.00,0.0003
1932.00,0.0003
1931.00,0.0002
1930.00,0.0002
1929.00,0.0002
1928.00,0.0002
1927.00,0.0002
1926.00,0.0002
1925.00,0.0002
1924.00,0.0003
1923.00,0.0003
1922.00,0.0003
1921.00,0.0002
1920.00,0.0002
1919.00,0.0001
1918.00,0.0001
1917.00,0.0002
1916.00,0.0002
1915.00,0.0002
1914.00,0.0002
1913.00,0.0002
1912.00,0.0003
1911.00,0.0003
1910.00,0.0003
1909.00,0.0003
1908.00,0.0003
1907.00,0.0003
1906.00,0.0003
1905.00,0.0003
1904.00,0.0003
1903.00,0.0003
1902.00,0.0002
1901.00,0.0003
1900.00,0.0003
1899.00,0.0003
1898.00,0.0002
1897.00,0.0002
1896.00,0.0002
1895.00,0.0002
1894.00,0.0002
1893.00,0.0002
1892.00,0.0002
1891.00,0.0002
1890.00,0.0003
1889.00,0.0003
1888.00,0.0003
1887.00,0.0002
1886.00,0.0002
1885.00,0.0002
1884.00,0.0002
1883.00,0.0002
1882.00,0.0002
1881.00,0.0002
1880.00,0.0002
1879.00,0.0002
1878.00,0.0002
1877.00,0.0002
1876.00,0.0002
1875.00,0.0002
1874.00,0.0002
1873.00,0.0002
1872.00,0.0002
1871.00,0.0002
1870.00,0.0001
1869.00,0.0002
1868.00,0.0002
1867.00,0.0002
1866.00,0.0001
1865.00,0.0001
1864.00,0.0001
1863.00,0.0001
1862.00,0.0002
1861.00,0.0002
1860.00,0.0002
1859.00,0.0002
1858.00,0.0002
1857.00,0.0002
1856.00,0.0002
1855.00,0.0002
1854.00,0.0002
1853.00,0.0001
1852.00,0.0001
1851.00,0.0001
1850.00,0.0001
1849.00,0.0001
1848.00,0.0002
1847.00,0.0002
1846.00,0.0001
1845.00,0.0001
1844.00,0.0000
1843.00,-0.0000
1842.00,-0.0000
1841.00,-0.0000
1840.00,0.0000
1839.00,0.0001
1838.00,0.0001
1837.00,0.0001
1836.00,0.0001
1835.00,0.0001
1834.00,0.0001
1833.00,0.0001
1832.00,0.0002
1831.00,0.0002
1830.00,0.0002
1829.00,0.0002
1828.00,0.0001
1827.00,0.0001
1826.00,0.0001
1825.00,0.0001
1824.00,0.0001
1823.00,0.0001
1822.00,0.0001
1821.00,0.0001
1820.00,0.0001
1819.00,0.0001
1818.00,0.0001
1817.00,0.0001
1816.00,0.0001
1815.00,0.0001
1814.00,0.0001
1813.00,0.0001
1812.00,0.0001
1811.00,0.0001
1810.00,0.0001
1809.00,0.0001
1808.00,0.0001
1807.00,0.0001
1806.00,0.0001
1805.00,0.0001
1804.00,0.0001
1803.00,0.0001
1802.00,0.0001
1801.00,0.0001
1800.00,0.0001
1799.00,0.0001
1798.00,0.0001
1797.00,0.0001
1796.00,0.0001
1795.00,0.0001
1794.00,0.0001
1793.00,0.0000
1792.00,-0.0000
1791.00,-0.0000
1790.00,-0.0001
1789.00,-0.0001
1788.00,-0.0000
1787.00,0.0000
1786.00,0.0000
1785.00,0.0000
1784.00,0.0001
1783.00,0.0001
1782.00,0.0001
1781.00,0.0001
1780.00,0.0001
1779.00,0.0001
1778.00,0.0001
1777.00,0.0001
1776.00,0.0002
1775.00,0.0002
1774.00,0.0002
1773.00,0.0002
1772.00,0.0001
1771.00,0.0001
1770.00,0.0000
1769.00,-0.0000
1768.00,-0.0001
1767.00,-0.0000
1766.00,0.0000
1765.00,0.0001
1764.00,0.0002
1763.00,0.0003
1762.00,0.0003
1761.00,0.0002
1760.00,0.0002
1759.00,0.0002
1758.00,0.0003
1757.00,0.0002
1756.00,0.0002
1755.00,0.0002
1754.00,0.0003
1753.00,0.0002
1752.00,0.0001
1751.00,0.0001
1750.00,0.0002
1749.00,0.0003
1748.00,0.0004
1747.00,0.0004
1746.00,0.0005
1745.00,0.0005
1744.00,0.0005
1743.00,0.0006
1742.00,0.0006
1741.00,0.0005
1740.00,0.0005
1739.00,0.0004
1738.00,0.0004
1737.00,0.0005
1736.00,0.0004
1735.00,0.0002
1734.00,-0.0000
1733.00,-0.0002
1732.00,-0.0001
1731.00,-0.0000
1730.00,0.0001
1729.00,0.0001
1728.00,0.0001
1727.00,0.0001
1726.00,0.0001
1725.00,0.0002
1724.00,0.0002
1723.00,0.0002
1722.00,0.0002
1721.00,0.0003
1720.00,0.0004
1719.00,0.0004
1718.00,0.0002
1717.00,0.0001
1716.00,0.0001
1715.00,0.0001
1714.00,0.0001
1713.00,0.0002
1712.00,0.0004
1711.00,0.0005
1710.00,0.0006
1709.00,0.0007
1708.00,0.0008
1707.00,0.0010
1706.00,0.0012
1705.00,0.0014
1704.00,0.0017
1703.00,0.0019
1702.00,0.0021
1701.00,0.0023
1700.00,0.0027
1699.00,0.0030
1698.00,0.0032
1697.00,0.0034
1696.00,0.0036
1695.00,0.0037
1694.00,0.0038
1693.00,0.0039
1692.00,0.0041
1691.00,0.0043
1690.00,0.0045
1689.00,0.0047
1688.00,0.0049
1687.00,0.0051
1686.00,0.0052
1685.00,0.0054
1684.00,0.0057
1683.00,0.0060
1682.00,0.0062
1681.00,0.0064
1680.00,0.0066
1679.00,0.0068
1678.00,0.0070
1677.00,0.0072
1676.00,0.0074
1675.00,0.0077
1674.00,0.0080
1673.00,0.0082
1672.00,0.0084
1671.00,0.0086
1670.00,0.0089
1669.00,0.0093
1668.00,0.0096
1667.00,0.0098
1666.00,0.0100
1665.00,0.0102
1664.00,0.0104
1663.00,0.0107
1662.00,0.0110
1661.00,0.0113
1660.00,0.0115
1659.00,0.0117
1658.00,0.0119
1657.00,0.0121
1656.00,0.0123
1655.00,0.0123
1654.00,0.0125
1653.00,0.0130
1652.00,0.0133
1651.00,0.0133
1650.00,0.0133
1649.00,0.0132
1648.00,0.0132
1647.00,0.0133
1646.00,0.0135
1645.00,0.0135
1644.00,0.0136
1643.00,0.0136
1642.00,0.0136
1641.00,0.0136
1640.00,0.0137
1639.00,0.0137
1638.00,0.0136
1637.00,0.0137
1636.00,0.0139
1635.00,0.0141
1634.00,0.0143
1633.00,0.0144
1632.00,0.0145
1631.00,0.0145
1630.00,0.0147
1629.00,0.0149
1628.00,0.0152
1627.00,0.0155
1626.00,0.0158
1625.00,0.0161
1624.00,0.0164
1623.00,0.0168
1622.00,0.0172
1621.00,0.0175
1620.00,0.0176
1619.00,0.0177
1618.00,0.0177
1617.00,0.0178
1616.00,0.0179
1615.00,0.0179
1614.00,0.0177
1613.00,0.0174
1612.00,0.0171
1611.00,0.0167
1610.00,0.0163
1609.00,0.0160
1608.00,0.0156
1607.00,0.0152
1606.00,0.0147
1605.00,0.0143
1604.00,0.0139
1603.00,0.0135
1602.00,0.0131
1601.00,0.0127
1600.00,0.0123
1599.00,0.0119
1598.00,0.0116
1597.00,0.0113
1596.00,0.0110
1595.00,0.0107
1594.00,0.0104
1593.00,0.0101
1592.00,0.0098
1591.00,0.0096
1590.00,0.0093
1589.00,0.0091
1588.00,0.0089
1587.00,0.0087
1586.00,0.0086
1585.00,0.0084
1584.00,0.0083
1583.00,0.0081
1582.00,0.0081
1581.00,0.0080
1580.00,0.0080
1579.00,0.0079
1578.00,0.0079
1577.00,0.0078
1576.00,0.0077
1575.00,0.0076
1574.00,0.0077
1573.00,0.0077
1572.00,0.0077
1571.00,0.0077
1570.00,0.0078
1569.00,0.0079
1568.00,0.0079
1567.00,0.0079
1566.00,0.0080
1565.00,0.0082
1564.00,0.0084
1563.00,0.0086
1562.00,0.0088
1561.00,0.0088
1560.00,0.0088
1559.00,0.0092
1558.00,0.0096
1557.00,0.0098
1556.00,0.0100
1555.00,0.0101
1554.00,0.0104
1553.00,0.0106
1552.00,0.0108
1551.00,0.0110
1550.00,0.0113
1549.00,0.0116
1548.00,0.0117
1547.00,0.0118
1546.00,0.0120
1545.00,0.0123
1544.00,0.0126
1543.00,0.0128
1542.00,0.0129
1541.00,0.0130
1540.00,0.0133
1539.00,0.0135
1538.00,0.0136
1537.00,0.0137
1536.00,0.0137
1535.00,0.0137
1534.00,0.0139
1533.00,0.0141
1532.00,0.0143
1531.00,0.0144
1530.00,0.0144
1529.00,0.0144
1528.00,0.0145
1527.00,0.0146
1526.00,0.0148
1525.00,0.0149
1524.00,0.0150
1523.00,0.0150
1522.00,0.0151
1521.00,0.0154
1520.00,0.0156
1519.00,0.0156
1518.00,0.0157
1517.00,0.0157
1516.00,0.0158
1515.00,0.0158
1514.00,0.0157
1513.00,0.0155
1512.00,0.0155
1511.00,0.0154
1510.00,0.0153
1509.00,0.0151
1508.00,0.0149
1507.00,0.0149
1506.00,0.0149
1505.00,0.0147
1504.00,0.0146
1503.00,0.0144
1502.00,0.0141
1501.00,0.0139
1500.00,0.0137
1499.00,0.0135
1498.00,0.0133
1497.00,0.0131
1496.00,0.0129
1495.00,0.0127
1494.00,0.0125
1493.00,0.0123
1492.00,0.0119
1491.00,0.0117
1490.00,0.0115
1489.00,0.0113
1488.00,0.0112
1487.00,0.0110
1486.00,0.0108
1485.00,0.0105
1484.00,0.0103
1483.00,0.0101
1482.00,0.0099
1481.00,0.0098
1480.00,0.0096
1479.00,0.0095
1478.00,0.0094
1477.00,0.0093
1476.00,0.0093
1475.00,0.0093
1474.00,0.0092
1473.00,0.0092
1472.00,0.0093
1471.00,0.0094
1470.00,0.0094
1469.00,0.0094
1468.00,0.0094
1467.00,0.0095
1466.00,0.0095
1465.00,0.0095
1464.00,0.0096
1463.00,0.0097
1462.00,0.0097
1461.00,0.0097
1460.00,0.0098
1459.00,0.0099
1458.00,0.0100
1457.00,0.0101
1456.00,0.0102
1455.00,0.0103
1454.00,0.0103
1453.00,0.0103
1452.00,0.0104
1451.00,0.0104
1450.00,0.0104
1449.00,0.0104
1448.00,0.0104
1447.00,0.0104
1446.00,0.0103
1445.00,0.0102
1444.00,0.0101
1443.00,0.0101
1442.00,0.0100
1441.00,0.0099
1440.00,0.0098
1439.00,0.0098
1438.00,0.0096
1437.00,0.0095
1436.00,0.0094
1435.00,0.0094
1434.00,0.0094
1433.00,0.0093
1432.00,0.0092
1431.00,0.0092
1430.00,0.0092
1429.00,0.0092
1428.00,0.0091
1427.00,0.0091
1426.00,0.0091
1425.00,0.0091
1424.00,0.0091
1423.00,0.0092
1422.00,0.0093
1421.00,0.0093
1420.00,0.0094
1419.00,0.0095
1418.00,0.0096
1417.00,0.0097
1416.00,0.0097
1415.00,0.0098
1414.00,0.0099
1413.00,0.0100
1412.00,0.0100
1411.00,0.0101
1410.00,0.0102
1409.00,0.0103
1408.00,0.0103
1407.00,0.0103
1406.00,0.0104
1405.00,0.0104
1404.00,0.0104
1403.00,0.0105
1402.00,0.0105
1401.00,0.0105
1400.00,0.0106
1399.00,0.0106
1398.00,0.0107
1397.00,0.0108
1396.00,0.0108
1395.00,0.0109
1394.00,0.0110
1393.00,0.0110
1392.00,0.0110
1391.00,0.0110
1390.00,0.0110
1389.00,0.0110
1388.00,0.0111
1387.00,0.0111
1386.00,0.0111
1385.00,0.0111
1384.00,0.0111
1383.00,0.0111
1382.00,0.0111
1381.00,0.0111
1380.00,0.0110
1379.00,0.0110
1378.00,0.0109
1377.00,0.0108
1376.00,0.0108
1375.00,0.0107
1374.00,0.0107
1373.00,0.0106
1372.00,0.0105
1371.00,0.0104
1370.00,0.0104
1369.00,0.0103
1368.00,0.0102
1367.00,0.0101
1366.00,0.0100
1365.00,0.0100
1364.00,0.0099
1363.00,0.0098
1362.00,0.0098
1361.00,0.0097
1360.00,0.0096
1359.00,0.0095
1358.00,0.0095
1357.00,0.0094
1356.00,0.0094
1355.00,0.0094
1354.00,0.0093
1353.00,0.0093
1352.00,0.0093
1351.00,0.0093
1350.00,0.0093
1349.00,0.0093
1348.00,0.0093
1347.00,0.0093
1346.00,0.0093
1345.00,0.0093
1344.00,0.0092
1343.00,0.0092
1342.00,0.0092
1341.00,0.0092
1340.00,0.0093
1339.00,0.0093
1338.00,0.0093
1337.00,0.0093
1336.00,0.0092
1335.00,0.0092
1334.00,0.0092
1333.00,0.0092
1332.00,0.0091
1331.00,0.0091
1330.00,0.0091
1329.00,0.0091
1328.00,0.0091
1327.00,0.0091
1326.00,0.0091
1325.00,0.0091
1324.00,0.0091
1323.00,0.0091
1322.00,0.0091
1321.00,0.0091
1320.00,0.0090
1319.00,0.0090
1318.00,0.0091
1317.00,0.0091
1316.00,0.0091
1315.00,0.0091
1314.00,0.0091
1313.00,0.0091
1312.00,0.0091
1311.00,0.0091
1310.00,0.0091
1309.00,0.0091
1308.00,0.0092
1307.00,0.0092
1306.00,0.0092
1305.00,0.0092
1304.00,0.0092
1303.00,0.0092
1302.00,0.0092
1301.00,0.0092
1300.00,0.0092
1299.00,0.0092
1298.00,0.0092
1297.00,0.0092
1296.00,0.0092
1295.00,0.0092
1294.00,0.0092
1293.00,0.0092
1292.00,0.0092
1291.00,0.0092
1290.00,0.0092
1289.00,0.0092
1288.00,0.0092
1287.00,0.0092
1286.00,0.0092
1285.00,0.0092
1284.00,0.0092
1283.00,0.0092
1282.00,0.0092
1281.00,0.0092
1280.00,0.0091
1279.00,0.0091
1278.00,0.0091
1277.00,0.0091
1276.00,0.0091
1275.00,0.0092
1274.00,0.0092
1273.00,0.0092
1272.00,0.0092
1271.00,0.0093
1270.00,0.0093
1269.00,0.0094
1268.00,0.0094
1267.00,0.0095
1266.00,0.0096
1265.00,0.0097
1264.00,0.0097
1263.00,0.0098
1262.00,0.0099
1261.00,0.0099
1260.00,0.0100
1259.00,0.0100
1258.00,0.0101
1257.00,0.0101
1256.00,0.0102
1255.00,0.0102
1254.00,0.0103
1253.00,0.0104
1252.00,0.0104
1251.00,0.0105
1250.00,0.0105
1249.00,0.0105
1248.00,0.0105
1247.00,0.0105
1246.00,0.0105
1245.00,0.0106
1244.00,0.0106
1243.00,0.0106
1242.00,0.0106
1241.00,0.0106
1240.00,0.0107
1239.00,0.0107
1238.00,0.0106
1237.00,0.0106
1236.00,0.0106
1235.00,0.0106
1234.00,0.0106
1233.00,0.0105
1232.00,0.0105
1231.00,0.0105
1230.00,0.0104
1229.00,0.0104
1228.00,0.0104
1227.00,0.0103
1226.00,0.0103
1225.00,0.0103
1224.00,0.0102
1223.00,0.0102
1222.00,0.0102
1221.00,0.0102
1220.00,0.0101
1219.00,0.0101
1218.00,0.0100
1217.00,0.0100
1216.00,0.0099
1215.00,0.0099
1214.00,0.0099
1213.00,0.0098
1212.00,0.0098
1211.00,0.0097
1210.00,0.0097
1209.00,0.0097
1208.00,0.0096
1207.00,0.0096
1206.00,0.0095
1205.00,0.0094
1204.00,0.0094
1203.00,0.0093
1202.00,0.0093
1201.00,0.0092
1200.00,0.0092
1199.00,0.0091
1198.00,0.0091
1197.00,0.0090
1196.00,0.0090
1195.00,0.0089
1194.00,0.0089
1193.00,0.0089
1192.00,0.0089
1191.00,0.0088
1190.00,0.0088
1189.00,0.0088
1188.00,0.0088
1187.00,0.0088
1186.00,0.0088
1185.00,0.0088
1184.00,0.0089
1183.00,0.0089
1182.00,0.0089
1181.00,0.0090
1180.00,0.0090
1179.00,0.0090
1178.00,0.0091
1177.00,0.0092
1176.00,0.0092
1175.00,0.0093
1174.00,0.0094
1173.00,0.0095
1172.00,0.0096
1171.00,0.0097
1170.00,0.0098
1169.00,0.0099
1168.00,0.0100
1167.00,0.0101
1166.00,0.0102
1165.00,0.0102
1164.00,0.0103
1163.00,0.0103
1162.00,0.0103
1161.00,0.0104
1160.00,0.0103
1159.00,0.0103
1158.00,0.0103
1157.00,0.0103
1156.00,0.0102
1155.00,0.0102
1154.00,0.0102
1153.00,0.0102
1152.00,0.0101
1151.00,0.0100
1150.00,0.0100
1149.00,0.0099
1148.00,0.0098
1147.00,0.0097
1146.00,0.0096
1145.00,0.0096
1144.00,0.0095
1143.00,0.0095
1142.00,0.0095
1141.00,0.0094
1140.00,0.0094
1139.00,0.0094
1138.00,0.0093
1137.00,0.0093
1136.00,0.0092
1135.00,0.0092
1134.00,0.0092
1133.00,0.0092
1132.00,0.0092
1131.00,0.0091
1130.00,0.0091
1129.00,0.0091
1128.00,0.0091
1127.00,0.0091
1126.00,0.0090
1125.00,0.0090
1124.00,0.0090
1123.00,0.0090
1122.00,0.0089
1121.00,0.0089
1120.00,0.0089
1119.00,0.0089
1118.00,0.0089
1117.00,0.0089
1116.00,0.0089
1115.00,0.0089
1114.00,0.0089
1113.00,0.0089
1112.00,0.0088
1111.00,0.0088
1110.00,0.0088
1109.00,0.0088
1108.00,0.0088
1107.00,0.0088
1106.00,0.0089
1105.00,0.0089
1104.00,0.0089
1103.00,0.0089
1102.00,0.0090
1101.00,0.0090
1100.00,0.0091
1099.00,0.0091
1098.00,0.0092
1097.00,0.0092
1096.00,0.0093
1095.00,0.0094
1094.00,0.0095
1093.00,0.0096
1092.00,0.0097
1091.00,0.0098
1090.00,0.0099
1089.00,0.0100
1088.00,0.0101
1087.00,0.0102
1086.00,0.0103
1085.00,0.0104
1084.00,0.0106
1083.00,0.0107
1082.00,0.0108
1081.00,0.0110
1080.00,0.0111
1079.00,0.0112
1078.00,0.0114
1077.00,0.0115
1076.00,0.0116
1075.00,0.0116
1074.00,0.0117
1073.00,0.0118
1072.00,0.0119
1071.00,0.0120
1070.00,0.0120
1069.00,0.0121
1068.00,0.0121
1067.00,0.0121
1066.00,0.0121
1065.00,0.0121
1064.00,0.0121
1063.00,0.0121
1062.00,0.0121
1061.00,0.0121
1060.00,0.0120
1059.00,0.0120
1058.00,0.0119
1057.00,0.0118
1056.00,0.0118
1055.00,0.0117
1054.00,0.0117
1053.00,0.0117
1052.00,0.0116
1051.00,0.0115
1050.00,0.0115
1049.00,0.0114
1048.00,0.0114
1047.00,0.0113
1046.00,0.0113
1045.00,0.0112
1044.00,0.0111
1043.00,0.0110
1042.00,0.0109
1041.00,0.0108
1040.00,0.0107
1039.00,0.0106
1038.00,0.0105
1037.00,0.0104
1036.00,0.0103
1035.00,0.0103
1034.00,0.0102
1033.00,0.0101
1032.00,0.0101
1031.00,0.0100
1030.00,0.0099
1029.00,0.0099
1028.00,0.0098
1027.00,0.0097
1026.00,0.0096
1025.00,0.0096
1024.00,0.0094
1023.00,0.0093
1022.00,0.0093
1021.00,0.0092
1020.00,0.0091
1019.00,0.0090
1018.00,0.0089
1017.00,0.0088
1016.00,0.0088
1015.00,0.0087
1014.00,0.0086
1013.00,0.0085
1012.00,0.0084
1011.00,0.0083
1010.00,0.0083
1009.00,0.0083
1008.00,0.0082
1007.00,0.0082
1006.00,0.0082
1005.00,0.0081
1004.00,0.0080
1003.00,0.0080
1002.00,0.0079
1001.00,0.0079
1000.00,0.0078
999.00,0.0078
998.00,0.0078
997.00,0.0078
996.00,0.0078
995.00,0.0077
994.00,0.0077
993.00,0.0077
992.00,0.0077
991.00,0.0077
990.00,0.0077
989.00,0.0077
988.00,0.0077
987.00,0.0077
986.00,0.0077
985.00,0.0077
984.00,0.0076
983.00,0.0076
982.00,0.0076
981.00,0.0076
980.00,0.0077
979.00,0.0077
978.00,0.0077
977.00,0.0078
976.00,0.0079
975.00,0.0079
974.00,0.0080
973.00,0.0081
972.00,0.0082
971.00,0.0083
970.00,0.0084
969.00,0.0085
968.00,0.0086
967.00,0.0086
966.00,0.0087
965.00,0.0087
964.00,0.0087
963.00,0.0087
962.00,0.0087
961.00,0.0087
960.00,0.0087
959.00,0.0088
958.00,0.0088
957.00,0.0088
956.00,0.0088
955.00,0.0087
954.00,0.0087
953.00,0.0087
952.00,0.0086
951.00,0.0086
950.00,0.0085
949.00,0.0085
948.00,0.0084
947.00,0.0084
946.00,0.0083
945.00,0.0083
944.00,0.0083
943.00,0.0083
942.00,0.0083
941.00,0.0083
940.00,0.0082
939.00,0.0082
938.00,0.0082
937.00,0.0082
936.00,0.0081
935.00,0.0080
934.00,0.0080
933.00,0.0079
932.00,0.0079
931.00,0.0078
930.00,0.0078
929.00,0.0078
928.00,0.0077
927.00,0.0077
926.00,0.0076
925.00,0.0076
924.00,0.0075
923.00,0.0075
922.00,0.0075
921.00,0.0074
920.00,0.0074
919.00,0.0073
918.00,0.0073
917.00,0.0073
916.00,0.0072
915.00,0.0072
914.00,0.0072
913.00,0.0072
912.00,0.0072
911.00,0.0072
910.00,0.0072
909.00,0.0072
908.00,0.0071
907.00,0.0071
906.00,0.0071
905.00,0.0072
904.00,0.0072
903.00,0.0072
902.00,0.0072
901.00,0.0072
900.00,0.0072
899.00,0.0072
898.00,0.0072
897.00,0.0072
896.00,0.0071
895.00,0.0071
894.00,0.0071
893.00,0.0071
892.00,0.0071
891.00,0.0071
890.00,0.0071
889.00,0.0071
888.00,0.0070
887.00,0.0070
886.00,0.0069
885.00,0.0069
884.00,0.0069
883.00,0.0069
882.00,0.0069
881.00,0.0069
880.00,0.0069
879.00,0.0069
878.00,0.0069
877.00,0.0070
876.00,0.0070
875.00,0.0069
874.00,0.0070
873.00,0.0069
872.00,0.0069
871.00,0.0069
870.00,0.0069
869.00,0.0068
868.00,0.0068
867.00,0.0068
866.00,0.0068
865.00,0.0068
864.00,0.0067
863.00,0.0067
862.00,0.0067
861.00,0.0067
860.00,0.0067
859.00,0.0066
858.00,0.0066
857.00,0.0066
856.00,0.0066
855.00,0.0066
854.00,0.0066
853.00,0.0066
852.00,0.0066
851.00,0.0066
850.00,0.0066
849.00,0.0066
848.00,0.0066
847.00,0.0066
846.00,0.0066
845.00,0.0066
844.00,0.0066
843.00,0.0066
842.00,0.0066
841.00,0.0066
840.00,0.0066
839.00,0.0066
838.00,0.0067
837.00,0.0067
836.00,0.0068
835.00,0.0068
834.00,0.0069
833.00,0.0069
832.00,0.0069
831.00,0.0069
830.00,0.0070
829.00,0.0070
828.00,0.0071
827.00,0.0071
826.00,0.0072
825.00,0.0072
824.00,0.0072
823.00,0.0072
822.00,0.0073
821.00,0.0073
820.00,0.0073
819.00,0.0074
818.00,0.0074
817.00,0.0075
816.00,0.0075
815.00,0.0075
814.00,0.0076
813.00,0.0076
812.00,0.0076
811.00,0.0076
810.00,0.0076
809.00,0.0077
808.00,0.0077
807.00,0.0078
806.00,0.0078
805.00,0.0078
804.00,0.0078
803.00,0.0078
802.00,0.0079
801.00,0.0079
800.00,0.0079
799.00,0.0079
798.00,0.0079
797.00,0.0079
796.00,0.0078
795.00,0.0078
794.00,0.0079
793.00,0.0079
792.00,0.0079
791.00,0.0079
790.00,0.0079
789.00,0.0080
788.00,0.0080
787.00,0.0080
786.00,0.0080
785.00,0.0080
784.00,0.0081
783.00,0.0081
782.00,0.0082
781.00,0.0082
780.00,0.0082
779.00,0.0082
778.00,0.0083
777.00,0.0084
776.00,0.0084
775.00,0.0084
774.00,0.0085
773.00,0.0085
772.00,0.0085
771.00,0.0085
770.00,0.0086
769.00,0.0086
768.00,0.0086
767.00,0.0087
766.00,0.0087
765.00,0.0088
764.00,0.0088
763.00,0.0088
762.00,0.0089
761.00,0.0089
760.00,0.0089
759.00,0.0089
758.00,0.0090
757.00,0.0091
756.00,0.0091
755.00,0.0091
754.00,0.0092
753.00,0.0092
752.00,0.0092
751.00,0.0093
750.00,0.0093
749.00,0.0093
748.00,0.0093
747.00,0.0094
746.00,0.0094
745.00,0.0094
744.00,0.0094
743.00,0.0094
742.00,0.0094
741.00,0.0094
740.00,0.0094
739.00,0.0094
738.00,0.0094
737.00,0.0094
736.00,0.0094
735.00,0.0094
734.00,0.0094
733.00,0.0095
732.00,0.0095
731.00,0.0096
730.00,0.0097
729.00,0.0097
728.00,0.0098
727.00,0.0098
726.00,0.0099
725.00,0.0100
724.00,0.0101
723.00,0.0102
722.00,0.0104
721.00,0.0105
720.00,0.0106
719.00,0.0107
718.00,0.0109
717.00,0.0110
716.00,0.0111
715.00,0.0112
714.00,0.0114
713.00,0.0115
712.00,0.0116
711.00,0.0118
710.00,0.0119
709.00,0.0121
708.00,0.0122
707.00,0.0123
706.00,0.0125
705.00,0.0127
704.00,0.0128
703.00,0.0130
702.00,0.0131
701.00,0.0132
700.00,0.0133
699.00,0.0134
698.00,0.0135
697.00,0.0135
696.00,0.0135
695.00,0.0135
694.00,0.0135
693.00,0.0135
692.00,0.0134
691.00,0.0135
690.00,0.0135
689.00,0.0135
688.00,0.0135
687.00,0.0135
686.00,0.0136
685.00,0.0136
684.00,0.0137
683.00,0.0137
682.00,0.0138
681.00,0.0138
680.00,0.0139
679.00,0.0139
678.00,0.0139
677.00,0.0139
676.00,0.0139
675.00,0.0139
674.00,0.0139
673.00,0.0140
672.00,0.0141
671.00,0.0141
670.00,0.0142
669.00,0.0144
668.00,0.0146
667.00,0.0147
666.00,0.0146
665.00,0.0145
664.00,0.0144
663.00,0.0143
662.00,0.0144
661.00,0.0144
660.00,0.0145
659.00,0.0145
658.00,0.0145
657.00,0.0145
656.00,0.0145
655.00,0.0145
654.00,0.0145
653.00,0.0145
652.00,0.0146
651.00,0.0146
650.00,0.0147
649.00,0.0148
648.00,0.0149
647.00,0.0149
646.00,0.0150
645.00,0.0150
644.00,0.0151
643.00,0.0151
642.00,0.0152
641.00,0.0153
640.00,0.0153
639.00,0.0154
638.00,0.0155
637.00,0.0155
636.00,0.0156
635.00,0.0156
634.00,0.0157
633.00,0.0158
632.00,0.0158
631.00,0.0158
630.00,0.0159
629.00,0.0159
628.00,0.0159
627.00,0.0159
626.00,0.0159
625.00,0.0160
624.00,0.0160
623.00,0.0160
622.00,0.0160
621.00,0.0161
620.00,0.0161
619.00,0.0161
618.00,0.0161
617.00,0.0161
616.00,0.0160
615.00,0.0160
614.00,0.0160
613.00,0.0160
612.00,0.0160
611.00,0.0160
610.00,0.0160
609.00,0.0160
608.00,0.0160
607.00,0.0160
606.00,0.0161
605.00,0.0161
604.00,0.0161
603.00,0.0160
602.00,0.0160
601.00,0.0160
600.00,0.0160
599.00,0.0160
598.00,0.0160
597.00,0.0161
596.00,0.0161
595.00,0.0161
594.00,0.0161
593.00,0.0162
592.00,0.0162
591.00,0.0163
590.00,0.0163
589.00,0.0164
588.00,0.0164
587.00,0.0165
586.00,0.0165
585.00,0.0165
584.00,0.0164
583.00,0.0164
582.00,0.0165
581.00,0.0165
580.00,0.0166
579.00,0.0166
578.00,0.0167
577.00,0.0167
576.00,0.0167
575.00,0.0167
574.00,0.0168
573.00,0.0169
572.00,0.0170
571.00,0.0170
570.00,0.0170
569.00,0.0170
568.00,0.0169
567.00,0.0168
566.00,0.0169
565.00,0.0169
564.00,0.0170
563.00,0.0171
562.00,0.0171
561.00,0.0172
560.00,0.0172
559.00,0.0172
558.00,0.0172
557.00,0.0172
556.00,0.0172
555.00,0.0172
554.00,0.0173
553.00,0.0174
552.00,0.0174
551.00,0.0174
550.00,0.0174
549.00,0.0174
548.00,0.0174
547.00,0.0174
546.00,0.0175
545.00,0.0175
544.00,0.0175
543.00,0.0175
542.00,0.0175
541.00,0.0176
540.00,0.0176
539.00,0.0177
538.00,0.0178
537.00,0.0178
536.00,0.0177
535.00,0.0177
534.00,0.0178
533.00,0.0179
532.00,0.0179
531.00,0.0179
530.00,0.0179
529.00,0.0179
528.00,0.0178
527.00,0.0177
526.00,0.0178
525.00,0.0179
524.00,0.0180
523.00,0.0181
522.00,0.0182
521.00,0.0182
520.00,0.0183
519.00,0.0183
518.00,0.0183
517.00,0.0183
516.00,0.0182
515.00,0.0181
514.00,0.0181
513.00,0.0181
512.00,0.0181
511.00,0.0182
510.00,0.0183
509.00,0.0184
508.00,0.0183
507.00,0.0183
506.00,0.0182
505.00,0.0181
504.00,0.0180
503.00,0.0179
502.00,0.0178
501.00,0.0179
500.00,0.0181
499.00,0.0183
498.00,0.0185
497.00,0.0185
496.00,0.0184
495.00,0.0182
494.00,0.0182
493.00,0.0182
492.00,0.0183
491.00,0.0183
490.00,0.0183
489.00,0.0184
488.00,0.0184
487.00,0.0184
486.00,0.0185
485.00,0.0185
484.00,0.0184
483.00,0.0183
482.00,0.0183
481.00,0.0183
480.00,0.0183
479.00,0.0182
478.00,0.0183
477.00,0.0183
476.00,0.0183
475.00,0.0183
474.00,0.0184
473.00,0.0184
472.00,0.0182
471.00,0.0181
470.00,0.0182
469.00,0.0185
468.00,0.0187
467.00,0.0188
466.00,0.0189
465.00,0.0189
464.00,0.0187
463.00,0.0186
462.00,0.0185
461.00,0.0185
460.00,0.0183
459.00,0.0182
458.00,0.0183
457.00,0.0184
456.00,0.0184
455.00,0.0184
454.00,0.0184
453.00,0.0183
452.00,0.0182
451.00,0.0181
450.00,0.0181
449.00,0.0181
448.00,0.0181
447.00,0.0182
446.00,0.0183
445.00,0.0183
444.00,0.0182
443.00,0.0181
442.00,0.0180
441.00,0.0178
440.00,0.0175
439.00,0.0173
438.00,0.0173
437.00,0.0174
436.00,0.0174
435.00,0.0174
434.00,0.0174
433.00,0.0174
432.00,0.0173
431.00,0.0171
430.00,0.0170
429.00,0.0168
428.00,0.0166
427.00,0.0164
426.00,0.0163
425.00,0.0162
424.00,0.0159
423.00,0.0157
422.00,0.0158
421.00,0.0159
420.00,0.0158
419.00,0.0158
418.00,0.0162
417.00,0.0165
416.00,0.0166
415.00,0.0166
414.00,0.0167
413.00,0.0168
412.00,0.0166
411.00,0.0165
410.00,0.0164
409.00,0.0164
408.00,0.0164
407.00,0.0166
406.00,0.0171
405.00,0.0172
404.00,0.0168
403.00,0.0165
402.00,0.0168
401.00,0.0175
400.00,0.0176
