Created as New Dataset,Sample 012 By YargerLab Date Friday, November 01 2024
cm-1,A
4000.00,0.0052
3999.00,0.0051
3998.00,0.0051
3997.00,0.0051
3996.00,0.0051
3995.00,0.0050
3994.00,0.0050
3993.00,0.0050
3992.00,0.0049
3991.00,0.0049
3990.00,0.0049
3989.00,0.0049
3988.00,0.0049
3987.00,0.0049
3986.00,0.0049
3985.00,0.0049
3984.00,0.0048
3983.00,0.0048
3982.00,0.0048
3981.00,0.0048
3980.00,0.0048
3979.00,0.0048
3978.00,0.0048
3977.00,0.0047
3976.00,0.0047
3975.00,0.0047
3974.00,0.0047
3973.00,0.0047
3972.00,0.0047
3971.00,0.0047
3970.00,0.0047
3969.00,0.0047
3968.00,0.0047
3967.00,0.0047
3966.00,0.0047
3965.00,0.0047
3964.00,0.0048
3963.00,0.0048
3962.00,0.0048
3961.00,0.0048
3960.00,0.0048
3959.00,0.0048
3958.00,0.0048
3957.00,0.0048
3956.00,0.0048
3955.00,0.0048
3954.00,0.0048
3953.00,0.0048
3952.00,0.0049
3951.00,0.0049
3950.00,0.0049
3949.00,0.0049
3948.00,0.0049
3947.00,0.0050
3946.00,0.0050
3945.00,0.0050
3944.00,0.0050
3943.00,0.0050
3942.00,0.0050
3941.00,0.0050
3940.00,0.0050
3939.00,0.0050
3938.00,0.0050
3937.00,0.0051
3936.00,0.0051
3935.00,0.0051
3934.00,0.0052
3933.00,0.0052
3932.00,0.0052
3931.00,0.0052
3930.00,0.0052
3929.00,0.0052
3928.00,0.0053
3927.00,0.0053
3926.00,0.0053
3925.00,0.0053
3924.00,0.0053
3923.00,0.0053
3922.00,0.0053
3921.00,0.0054
3920.00,0.0054
3919.00,0.0054
3918.00,0.0054
3917.00,0.0055
3916.00,0.0055
3915.00,0.0055
3914.00,0.0055
3913.00,0.0055
3912.00,0.0055
3911.00,0.0055
3910.00,0.0056
3909.00,0.0056
3908.00,0.0056
3907.00,0.0056
3906.00,0.0056
3905.00,0.0057
3904.00,0.0057
3903.00,0.0058
3902.00,0.0058
3901.00,0.0058
3900.00,0.0059
3899.00,0.0059
3898.00,0.0060
3897.00,0.0060
3896.00,0.0060
3895.00,0.0059
3894.00,0.0059
3893.00,0.0059
3892.00,0.0058
3891.00,0.0058
3890.00,0.0058
3889.00,0.0058
3888.00,0.0058
3887.00,0.0058
3886.00,0.0058
3885.00,0.0058
3884.00,0.0058
3883.00,0.0058
3882.00,0.0058
3881.00,0.0058
3880.00,0.0058
3879.00,0.0058
3878.00,0.0058
3877.00,0.0058
3876.00,0.0058
3875.00,0.0058
3874.00,0.0058
3873.00,0.0059
3872.00,0.0059
3871.00,0.0059
3870.00,0.0060
3869.00,0.0061
3868.00,0.0061
3867.00,0.0060
3866.00,0.0060
3865.00,0.0060
3864.00,0.0059
3863.00,0.0059
3862.00,0.0059
3861.00,0.0059
3860.00,0.0059
3859.00,0.0059
3858.00,0.0060
3857.00,0.0059
3856.00,0.0059
3855.00,0.0059
3854.00,0.0059
3853.00,0.0059
3852.00,0.0059
3851.00,0.0059
3850.00,0.0059
3849.00,0.0059
3848.00,0.0060
3847.00,0.0060
3846.00,0.0060
3845.00,0.0060
3844.00,0.0060
3843.00,0.0061
3842.00,0.0061
3841.00,0.0061
3840.00,0.0061
3839.00,0.0061
3838.00,0.0062
3837.00,0.0062
3836.00,0.0062
3835.00,0.0062
3834.00,0.0062
3833.00,0.0062
3832.00,0.0062
3831.00,0.0062
3830.00,0.0062
3829.00,0.0062
3828.00,0.0062
3827.00,0.0062
3826.00,0.0062
3825.00,0.0062
3824.00,0.0062
3823.00,0.0063
3822.00,0.0063
3821.00,0.0063
3820.00,0.0063
3819.00,0.0063
3818.00,0.0063
3817.00,0.0063
3816.00,0.0062
3815.00,0.0062
3814.00,0.0062
3813.00,0.0062
3812.00,0.0062
3811.00,0.0062
3810.00,0.0062
3809.00,0.0062
3808.00,0.0062
3807.00,0.0062
3806.00,0.0062
3805.00,0.0062
3804.00,0.0062
3803.00,0.0062
3802.00,0.0062
3801.00,0.0062
3800.00,0.0061
3799.00,0.0061
3798.00,0.0060
3797.00,0.0060
3796.00,0.0060
3795.00,0.0059
3794.00,0.0059
3793.00,0.0059
3792.00,0.0059
3791.00,0.0059
3790.00,0.0058
3789.00,0.0058
3788.00,0.0058
3787.00,0.0058
3786.00,0.0057
3785.00,0.0057
3784.00,0.0056
3783.00,0.0056
3782.00,0.0056
3781.00,0.0055
3780.00,0.0054
3779.00,0.0054
3778.00,0.0053
3777.00,0.0053
3776.00,0.0052
3775.00,0.0052
3774.00,0.0052
3773.00,0.0051
3772.00,0.0051
3771.00,0.0051
3770.00,0.0051
3769.00,0.0051
3768.00,0.0050
3767.00,0.0050
3766.00,0.0050
3765.00,0.0050
3764.00,0.0050
3763.00,0.0050
3762.00,0.0050
3761.00,0.0050
3760.00,0.0050
3759.00,0.0049
3758.00,0.0049
3757.00,0.0049
3756.00,0.0049
3755.00,0.0049
3754.00,0.0050
3753.00,0.0050
3752.00,0.0050
3751.00,0.0050
3750.00,0.0050
3749.00,0.0051
3748.00,0.0051
3747.00,0.0050
3746.00,0.0050
3745.00,0.0050
3744.00,0.0050
3743.00,0.0050
3742.00,0.0050
3741.00,0.0051
3740.00,0.0051
3739.00,0.0051
3738.00,0.0051
3737.00,0.0052
3736.00,0.0052
3735.00,0.0052
3734.00,0.0052
3733.00,0.0052
3732.00,0.0053
3731.00,0.0053
3730.00,0.0053
3729.00,0.0053
3728.00,0.0053
3727.00,0.0053
3726.00,0.0053
3725.00,0.0053
3724.00,0.0053
3723.00,0.0054
3722.00,0.0054
3721.00,0.0054
3720.00,0.0054
3719.00,0.0054
3718.00,0.0054
3717.00,0.0054
3716.00,0.0055
3715.00,0.0055
3714.00,0.0055
3713.00,0.0055
3712.00,0.0056
3711.00,0.0056
3710.00,0.0056
3709.00,0.0056
3708.00,0.0057
3707.00,0.0057
3706.00,0.0057
3705.00,0.0058
3704.00,0.0059
3703.00,0.0059
3702.00,0.0060
3701.00,0.0061
3700.00,0.0062
3699.00,0.0063
3698.00,0.0065
3697.00,0.0067
3696.00,0.0069
3695.00,0.0071
3694.00,0.0074
3693.00,0.0078
3692.00,0.0082
3691.00,0.0087
3690.00,0.0094
3689.00,0.0102
3688.00,0.0111
3687.00,0.0120
3686.00,0.0130
3685.00,0.0140
3684.00,0.0153
3683.00,0.0166
3682.00,0.0181
3681.00,0.0197
3680.00,0.0214
3679.00,0.0231
3678.00,0.0249
3677.00,0.0268
3676.00,0.0288
3675.00,0.0307
3674.00,0.0322
3673.00,0.0334
3672.00,0.0344
3671.00,0.0352
3670.00,0.0360
3669.00,0.0366
3668.00,0.0371
3667.00,0.0375
3666.00,0.0381
3665.00,0.0387
3664.00,0.0395
3663.00,0.0403
3662.00,0.0410
3661.00,0.0415
3660.00,0.0419
3659.00,0.0420
3658.00,0.0421
3657.00,0.0421
3656.00,0.0418
3655.00,0.0414
3654.00,0.0409
3653.00,0.0404
3652.00,0.0399
3651.00,0.0395
3650.00,0.0392
3649.00,0.0389
3648.00,0.0384
3647.00,0.0378
3646.00,0.0369
3645.00,0.0359
3644.00,0.0348
3643.00,0.0336
3642.00,0.0324
3641.00,0.0315
3640.00,0.0310
3639.00,0.0310
3638.00,0.0310
3637.00,0.0303
3636.00,0.0284
3635.00,0.0256
3634.00,0.0225
3633.00,0.0200
3632.00,0.0182
3631.00,0.0170
3630.00,0.0161
3629.00,0.0154
3628.00,0.0148
3627.00,0.0143
3626.00,0.0138
3625.00,0.0135
3624.00,0.0131
3623.00,0.0128
3622.00,0.0124
3621.00,0.0121
3620.00,0.0118
3619.00,0.0115
3618.00,0.0112
3617.00,0.0109
3616.00,0.0106
3615.00,0.0104
3614.00,0.0102
3613.00,0.0100
3612.00,0.0098
3611.00,0.0096
3610.00,0.0094
3609.00,0.0093
3608.00,0.0091
3607.00,0.0090
3606.00,0.0088
3605.00,0.0087
3604.00,0.0086
3603.00,0.0085
3602.00,0.0084
3601.00,0.0084
3600.00,0.0084
3599.00,0.0084
3598.00,0.0084
3597.00,0.0085
3596.00,0.0085
3595.00,0.0086
3594.00,0.0086
3593.00,0.0087
3592.00,0.0087
3591.00,0.0088
3590.00,0.0089
3589.00,0.0089
3588.00,0.0090
3587.00,0.0090
3586.00,0.0091
3585.00,0.0092
3584.00,0.0092
3583.00,0.0093
3582.00,0.0094
3581.00,0.0095
3580.00,0.0096
3579.00,0.0097
3578.00,0.0098
3577.00,0.0099
3576.00,0.0100
3575.00,0.0101
3574.00,0.0103
3573.00,0.0104
3572.00,0.0106
3571.00,0.0107
3570.00,0.0109
3569.00,0.0110
3568.00,0.0111
3567.00,0.0113
3566.00,0.0114
3565.00,0.0115
3564.00,0.0117
3563.00,0.0118
3562.00,0.0119
3561.00,0.0121
3560.00,0.0122
3559.00,0.0124
3558.00,0.0125
3557.00,0.0127
3556.00,0.0128
3555.00,0.0130
3554.00,0.0131
3553.00,0.0133
3552.00,0.0135
3551.00,0.0137
3550.00,0.0139
3549.00,0.0140
3548.00,0.0142
3547.00,0.0144
3546.00,0.0146
3545.00,0.0148
3544.00,0.0150
3543.00,0.0152
3542.00,0.0153
3541.00,0.0155
3540.00,0.0157
3539.00,0.0159
3538.00,0.0161
3537.00,0.0163
3536.00,0.0165
3535.00,0.0167
3534.00,0.0169
3533.00,0.0172
3532.00,0.0174
3531.00,0.0176
3530.00,0.0178
3529.00,0.0180
3528.00,0.0182
3527.00,0.0185
3526.00,0.0187
3525.00,0.0190
3524.00,0.0192
3523.00,0.0195
3522.00,0.0197
3521.00,0.0200
3520.00,0.0202
3519.00,0.0205
3518.00,0.0208
3517.00,0.0210
3516.00,0.0213
3515.00,0.0216
3514.00,0.0219
3513.00,0.0222
3512.00,0.0224
3511.00,0.0227
3510.00,0.0231
3509.00,0.0234
3508.00,0.0237
3507.00,0.0240
3506.00,0.0244
3505.00,0.0247
3504.00,0.0251
3503.00,0.0254
3502.00,0.0258
3501.00,0.0261
3500.00,0.0265
3499.00,0.0268
3498.00,0.0272
3497.00,0.0276
3496.00,0.0279
3495.00,0.0283
3494.00,0.0287
3493.00,0.0290
3492.00,0.0294
3491.00,0.0298
3490.00,0.0302
3489.00,0.0306
3488.00,0.0311
3487.00,0.0315
3486.00,0.0319
3485.00,0.0323
3484.00,0.0328
3483.00,0.0332
3482.00,0.0337
3481.00,0.0341
3480.00,0.0346
3479.00,0.0350
3478.00,0.0355
3477.00,0.0359
3476.00,0.0364
3475.00,0.0368
3474.00,0.0373
3473.00,0.0378
3472.00,0.0383
3471.00,0.0388
3470.00,0.0393
3469.00,0.0398
3468.00,0.0403
3467.00,0.0408
3466.00,0.0412
3465.00,0.0417
3464.00,0.0422
3463.00,0.0427
3462.00,0.0431
3461.00,0.0436
3460.00,0.0441
3459.00,0.0446
3458.00,0.0451
3457.00,0.0455
3456.00,0.0460
3455.00,0.0465
3454.00,0.0471
3453.00,0.0476
3452.00,0.0482
3451.00,0.0487
3450.00,0.0492
3449.00,0.0496
3448.00,0.0501
3447.00,0.0505
3446.00,0.0510
3445.00,0.0514
3444.00,0.0519
3443.00,0.0524
3442.00,0.0529
3441.00,0.0534
3440.00,0.0539
3439.00,0.0545
3438.00,0.0550
3437.00,0.0555
3436.00,0.0560
3435.00,0.0565
3434.00,0.0570
3433.00,0.0575
3432.00,0.0580
3431.00,0.0585
3430.00,0.0589
3429.00,0.0595
3428.00,0.0600
3427.00,0.0605
3426.00,0.0610
3425.00,0.0616
3424.00,0.0621
3423.00,0.0626
3422.00,0.0631
3421.00,0.0636
3420.00,0.0641
3419.00,0.0646
3418.00,0.0651
3417.00,0.0656
3416.00,0.0661
3415.00,0.0667
3414.00,0.0672
3413.00,0.0677
3412.00,0.0683
3411.00,0.0688
3410.00,0.0693
3409.00,0.0698
3408.00,0.0704
3407.00,0.0709
3406.00,0.0714
3405.00,0.0720
3404.00,0.0726
3403.00,0.0731
3402.00,0.0737
3401.00,0.0743
3400.00,0.0748
3399.00,0.0753
3398.00,0.0758
3397.00,0.0763
3396.00,0.0768
3395.00,0.0773
3394.00,0.0779
3393.00,0.0784
3392.00,0.0790
3391.00,0.0794
3390.00,0.0799
3389.00,0.0803
3388.00,0.0808
3387.00,0.0812
3386.00,0.0817
3385.00,0.0822
3384.00,0.0827
3383.00,0.0832
3382.00,0.0837
3381.00,0.0842
3380.00,0.0847
3379.00,0.0851
3378.00,0.0856
3377.00,0.0860
3376.00,0.0865
3375.00,0.0869
3374.00,0.0874
3373.00,0.0878
3372.00,0.0883
3371.00,0.0888
3370.00,0.0893
3369.00,0.0897
3368.00,0.0901
3367.00,0.0904
3366.00,0.0907
3365.00,0.0911
3364.00,0.0914
3363.00,0.0917
3362.00,0.0921
3361.00,0.0924
3360.00,0.0927
3359.00,0.0930
3358.00,0.0933
3357.00,0.0935
3356.00,0.0938
3355.00,0.0941
3354.00,0.0944
3353.00,0.0947
3352.00,0.0950
3351.00,0.0952
3350.00,0.0954
3349.00,0.0955
3348.00,0.0956
3347.00,0.0957
3346.00,0.0959
3345.00,0.0960
3344.00,0.0962
3343.00,0.0963
3342.00,0.0963
3341.00,0.0964
3340.00,0.0965
3339.00,0.0965
3338.00,0.0965
3337.00,0.0964
3336.00,0.0963
3335.00,0.0963
3334.00,0.0962
3333.00,0.0961
3332.00,0.0960
3331.00,0.0959
3330.00,0.0958
3329.00,0.0957
3328.00,0.0957
3327.00,0.0956
3326.00,0.0954
3325.00,0.0953
3324.00,0.0951
3323.00,0.0949
3322.00,0.0947
3321.00,0.0945
3320.00,0.0943
3319.00,0.0941
3318.00,0.0940
3317.00,0.0938
3316.00,0.0936
3315.00,0.0934
3314.00,0.0931
3313.00,0.0929
3312.00,0.0927
3311.00,0.0925
3310.00,0.0924
3309.00,0.0922
3308.00,0.0920
3307.00,0.0917
3306.00,0.0915
3305.00,0.0911
3304.00,0.0908
3303.00,0.0904
3302.00,0.0900
3301.00,0.0897
3300.00,0.0894
3299.00,0.0892
3298.00,0.0889
3297.00,0.0886
3296.00,0.0884
3295.00,0.0880
3294.00,0.0877
3293.00,0.0874
3292.00,0.0870
3291.00,0.0866
3290.00,0.0862
3289.00,0.0858
3288.00,0.0854
3287.00,0.0851
3286.00,0.0847
3285.00,0.0843
3284.00,0.0839
3283.00,0.0835
3282.00,0.0831
3281.00,0.0827
3280.00,0.0824
3279.00,0.0820
3278.00,0.0816
3277.00,0.0812
3276.00,0.0809
3275.00,0.0805
3274.00,0.0801
3273.00,0.0798
3272.00,0.0794
3271.00,0.0790
3270.00,0.0785
3269.00,0.0780
3268.00,0.0775
3267.00,0.0771
3266.00,0.0766
3265.00,0.0762
3264.00,0.0757
3263.00,0.0753
3262.00,0.0749
3261.00,0.0745
3260.00,0.0740
3259.00,0.0736
3258.00,0.0732
3257.00,0.0728
3256.00,0.0724
3255.00,0.0719
3254.00,0.0715
3253.00,0.0711
3252.00,0.0707
3251.00,0.0703
3250.00,0.0699
3249.00,0.0696
3248.00,0.0691
3247.00,0.0687
3246.00,0.0682
3245.00,0.0677
3244.00,0.0673
3243.00,0.0668
3242.00,0.0664
3241.00,0.0659
3240.00,0.0655
3239.00,0.0650
3238.00,0.0646
3237.00,0.0642
3236.00,0.0638
3235.00,0.0634
3234.00,0.0629
3233.00,0.0624
3232.00,0.0619
3231.00,0.0614
3230.00,0.0609
3229.00,0.0604
3228.00,0.0600
3227.00,0.0595
3226.00,0.0591
3225.00,0.0586
3224.00,0.0581
3223.00,0.0577
3222.00,0.0572
3221.00,0.0567
3220.00,0.0562
3219.00,0.0557
3218.00,0.0553
3217.00,0.0548
3216.00,0.0544
3215.00,0.0540
3214.00,0.0535
3213.00,0.0531
3212.00,0.0526
3211.00,0.0522
3210.00,0.0518
3209.00,0.0514
3208.00,0.0509
3207.00,0.0505
3206.00,0.0501
3205.00,0.0497
3204.00,0.0493
3203.00,0.0489
3202.00,0.0485
3201.00,0.0481
3200.00,0.0477
3199.00,0.0473
3198.00,0.0468
3197.00,0.0464
3196.00,0.0459
3195.00,0.0455
3194.00,0.0451
3193.00,0.0447
3192.00,0.0443
3191.00,0.0439
3190.00,0.0435
3189.00,0.0431
3188.00,0.0427
3187.00,0.0422
3186.00,0.0418
3185.00,0.0413
3184.00,0.0409
3183.00,0.0404
3182.00,0.0400
3181.00,0.0396
3180.00,0.0391
3179.00,0.0387
3178.00,0.0383
3177.00,0.0379
3176.00,0.0374
3175.00,0.0370
3174.00,0.0366
3173.00,0.0362
3172.00,0.0357
3171.00,0.0353
3170.00,0.0349
3169.00,0.0345
3168.00,0.0341
3167.00,0.0337
3166.00,0.0333
3165.00,0.0329
3164.00,0.0326
3163.00,0.0322
3162.00,0.0318
3161.00,0.0314
3160.00,0.0311
3159.00,0.0307
3158.00,0.0304
3157.00,0.0301
3156.00,0.0297
3155.00,0.0294
3154.00,0.0291
3153.00,0.0288
3152.00,0.0285
3151.00,0.0282
3150.00,0.0279
3149.00,0.0276
3148.00,0.0273
3147.00,0.0270
3146.00,0.0267
3145.00,0.0265
3144.00,0.0262
3143.00,0.0259
3142.00,0.0257
3141.00,0.0254
3140.00,0.0252
3139.00,0.0250
3138.00,0.0247
3137.00,0.0245
3136.00,0.0243
3135.00,0.0240
3134.00,0.0238
3133.00,0.0236
3132.00,0.0234
3131.00,0.0232
3130.00,0.0230
3129.00,0.0228
3128.00,0.0226
3127.00,0.0224
3126.00,0.0222
3125.00,0.0220
3124.00,0.0218
3123.00,0.0216
3122.00,0.0214
3121.00,0.0212
3120.00,0.0211
3119.00,0.0209
3118.00,0.0207
3117.00,0.0206
3116.00,0.0204
3115.00,0.0202
3114.00,0.0200
3113.00,0.0199
3112.00,0.0197
3111.00,0.0196
3110.00,0.0194
3109.00,0.0193
3108.00,0.0192
3107.00,0.0190
3106.00,0.0189
3105.00,0.0187
3104.00,0.0186
3103.00,0.0184
3102.00,0.0183
3101.00,0.0181
3100.00,0.0180
3099.00,0.0179
3098.00,0.0178
3097.00,0.0176
3096.00,0.0175
3095.00,0.0174
3094.00,0.0173
3093.00,0.0172
3092.00,0.0171
3091.00,0.0169
3090.00,0.0168
3089.00,0.0167
3088.00,0.0166
3087.00,0.0165
3086.00,0.0164
3085.00,0.0163
3084.00,0.0162
3083.00,0.0161
3082.00,0.0160
3081.00,0.0159
3080.00,0.0158
3079.00,0.0158
3078.00,0.0157
3077.00,0.0156
3076.00,0.0155
3075.00,0.0154
3074.00,0.0153
3073.00,0.0152
3072.00,0.0152
3071.00,0.0151
3070.00,0.0150
3069.00,0.0150
3068.00,0.0149
3067.00,0.0148
3066.00,0.0148
3065.00,0.0147
3064.00,0.0147
3063.00,0.0146
3062.00,0.0146
3061.00,0.0145
3060.00,0.0145
3059.00,0.0144
3058.00,0.0144
3057.00,0.0144
3056.00,0.0143
3055.00,0.0143
3054.00,0.0143
3053.00,0.0143
3052.00,0.0143
3051.00,0.0143
3050.00,0.0143
3049.00,0.0143
3048.00,0.0143
3047.00,0.0143
3046.00,0.0143
3045.00,0.0143
3044.00,0.0143
3043.00,0.0144
3042.00,0.0144
3041.00,0.0145
3040.00,0.0145
3039.00,0.0146
3038.00,0.0147
3037.00,0.0148
3036.00,0.0149
3035.00,0.0150
3034.00,0.0152
3033.00,0.0153
3032.00,0.0156
3031.00,0.0158
3030.00,0.0161
3029.00,0.0164
3028.00,0.0168
3027.00,0.0172
3026.00,0.0178
3025.00,0.0184
3024.00,0.0192
3023.00,0.0202
3022.00,0.0213
3021.00,0.0226
3020.00,0.0242
3019.00,0.0261
3018.00,0.0283
3017.00,0.0310
3016.00,0.0342
3015.00,0.0379
3014.00,0.0423
3013.00,0.0473
3012.00,0.0530
3011.00,0.0595
3010.00,0.0667
3009.00,0.0746
3008.00,0.0833
3007.00,0.0926
3006.00,0.1025
3005.00,0.1129
3004.00,0.1236
3003.00,0.1343
3002.00,0.1450
3001.00,0.1554
3000.00,0.1654
2999.00,0.1747
2998.00,0.1833
2997.00,0.1912
2996.00,0.1985
2995.00,0.2054
2994.00,0.2121
2993.00,0.2189
2992.00,0.2256
2991.00,0.2323
2990.00,0.2392
2989.00,0.2469
2988.00,0.2562
2987.00,0.2685
2986.00,0.2864
2985.00,0.3119
2984.00,0.3451
2983.00,0.3812
2982.00,0.4121
2981.00,0.4306
2980.00,0.4355
2979.00,0.4316
2978.00,0.4252
2977.00,0.4208
2976.00,0.4204
2975.00,0.4252
2974.00,0.4346
2973.00,0.4461
2972.00,0.4548
2971.00,0.4558
2970.00,0.4473
2969.00,0.4313
2968.00,0.4119
2967.00,0.3917
2966.00,0.3714
2965.00,0.3511
2964.00,0.3310
2963.00,0.3120
2962.00,0.2945
2961.00,0.2785
2960.00,0.2640
2959.00,0.2509
2958.00,0.2392
2957.00,0.2284
2956.00,0.2185
2955.00,0.2093
2954.00,0.2006
2953.00,0.1925
2952.00,0.1849
2951.00,0.1781
2950.00,0.1720
2949.00,0.1666
2948.00,0.1615
2947.00,0.1565
2946.00,0.1517
2945.00,0.1471
2944.00,0.1434
2943.00,0.1406
2942.00,0.1390
2941.00,0.1383
2940.00,0.1381
2939.00,0.1378
2938.00,0.1374
2937.00,0.1369
2936.00,0.1365
2935.00,0.1367
2934.00,0.1372
2933.00,0.1378
2932.00,0.1380
2931.00,0.1374
2930.00,0.1360
2929.00,0.1340
2928.00,0.1317
2927.00,0.1294
2926.00,0.1272
2925.00,0.1254
2924.00,0.1239
2923.00,0.1228
2922.00,0.1222
2921.00,0.1221
2920.00,0.1223
2919.00,0.1228
2918.00,0.1234
2917.00,0.1241
2916.00,0.1247
2915.00,0.1253
2914.00,0.1259
2913.00,0.1266
2912.00,0.1275
2911.00,0.1285
2910.00,0.1296
2909.00,0.1308
2908.00,0.1320
2907.00,0.1332
2906.00,0.1344
2905.00,0.1355
2904.00,0.1365
2903.00,0.1375
2902.00,0.1384
2901.00,0.1393
2900.00,0.1402
2899.00,0.1412
2898.00,0.1425
2897.00,0.1441
2896.00,0.1460
2895.00,0.1485
2894.00,0.1514
2893.00,0.1545
2892.00,0.1575
2891.00,0.1602
2890.00,0.1620
2889.00,0.1629
2888.00,0.1631
2887.00,0.1629
2886.00,0.1629
2885.00,0.1629
2884.00,0.1621
2883.00,0.1596
2882.00,0.1552
2881.00,0.1494
2880.00,0.1431
2879.00,0.1371
2878.00,0.1318
2877.00,0.1274
2876.00,0.1238
2875.00,0.1207
2874.00,0.1179
2873.00,0.1152
2872.00,0.1126
2871.00,0.1099
2870.00,0.1072
2869.00,0.1043
2868.00,0.1013
2867.00,0.0983
2866.00,0.0952
2865.00,0.0921
2864.00,0.0889
2863.00,0.0857
2862.00,0.0825
2861.00,0.0793
2860.00,0.0761
2859.00,0.0731
2858.00,0.0703
2857.00,0.0676
2856.00,0.0652
2855.00,0.0630
2854.00,0.0609
2853.00,0.0589
2852.00,0.0568
2851.00,0.0548
2850.00,0.0527
2849.00,0.0507
2848.00,0.0488
2847.00,0.0471
2846.00,0.0456
2845.00,0.0443
2844.00,0.0431
2843.00,0.0420
2842.00,0.0411
2841.00,0.0403
2840.00,0.0396
2839.00,0.0390
2838.00,0.0385
2837.00,0.0380
2836.00,0.0375
2835.00,0.0371
2834.00,0.0368
2833.00,0.0364
2832.00,0.0361
2831.00,0.0358
2830.00,0.0354
2829.00,0.0349
2828.00,0.0344
2827.00,0.0340
2826.00,0.0336
2825.00,0.0333
2824.00,0.0330
2823.00,0.0327
2822.00,0.0324
2821.00,0.0321
2820.00,0.0317
2819.00,0.0314
2818.00,0.0311
2817.00,0.0308
2816.00,0.0305
2815.00,0.0302
2814.00,0.0299
2813.00,0.0296
2812.00,0.0292
2811.00,0.0288
2810.00,0.0285
2809.00,0.0282
2808.00,0.0279
2807.00,0.0276
2806.00,0.0274
2805.00,0.0271
2804.00,0.0269
2803.00,0.0267
2802.00,0.0265
2801.00,0.0263
2800.00,0.0261
2799.00,0.0259
2798.00,0.0257
2797.00,0.0256
2796.00,0.0254
2795.00,0.0253
2794.00,0.0251
2793.00,0.0249
2792.00,0.0247
2791.00,0.0246
2790.00,0.0244
2789.00,0.0243
2788.00,0.0241
2787.00,0.0240
2786.00,0.0239
2785.00,0.0237
2784.00,0.0235
2783.00,0.0233
2782.00,0.0232
2781.00,0.0230
2780.00,0.0228
2779.00,0.0227
2778.00,0.0225
2777.00,0.0223
2776.00,0.0221
2775.00,0.0220
2774.00,0.0219
2773.00,0.0219
2772.00,0.0218
2771.00,0.0218
2770.00,0.0217
2769.00,0.0216
2768.00,0.0214
2767.00,0.0213
2766.00,0.0211
2765.00,0.0210
2764.00,0.0208
2763.00,0.0207
2762.00,0.0205
2761.00,0.0204
2760.00,0.0202
2759.00,0.0201
2758.00,0.0199
2757.00,0.0198
2756.00,0.0197
2755.00,0.0196
2754.00,0.0195
2753.00,0.0194
2752.00,0.0193
2751.00,0.0192
2750.00,0.0191
2749.00,0.0191
2748.00,0.0190
2747.00,0.0190
2746.00,0.0191
2745.00,0.0191
2744.00,0.0191
2743.00,0.0191
2742.00,0.0191
2741.00,0.0191
2740.00,0.0191
2739.00,0.0191
2738.00,0.0192
2737.00,0.0192
2736.00,0.0193
2735.00,0.0193
2734.00,0.0193
2733.00,0.0193
2732.00,0.0193
2731.00,0.0193
2730.00,0.0192
2729.00,0.0192
2728.00,0.0191
2727.00,0.0191
2726.00,0.0191
2725.00,0.0191
2724.00,0.0190
2723.00,0.0190
2722.00,0.0190
2721.00,0.0190
2720.00,0.0189
2719.00,0.0188
2718.00,0.0187
2717.00,0.0186
2716.00,0.0185
2715.00,0.0184
2714.00,0.0183
2713.00,0.0181
2712.00,0.0180
2711.00,0.0178
2710.00,0.0176
2709.00,0.0175
2708.00,0.0174
2707.00,0.0173
2706.00,0.0172
2705.00,0.0172
2704.00,0.0171
2703.00,0.0171
2702.00,0.0171
2701.00,0.0170
2700.00,0.0170
2699.00,0.0170
2698.00,0.0169
2697.00,0.0169
2696.00,0.0168
2695.00,0.0167
2694.00,0.0167
2693.00,0.0166
2692.00,0.0166
2691.00,0.0165
2690.00,0.0165
2689.00,0.0165
2688.00,0.0164
2687.00,0.0164
2686.00,0.0165
2685.00,0.0165
2684.00,0.0165
2683.00,0.0165
2682.00,0.0166
2681.00,0.0166
2680.00,0.0166
2679.00,0.0167
2678.00,0.0168
2677.00,0.0169
2676.00,0.0170
2675.00,0.0172
2674.00,0.0175
2673.00,0.0178
2672.00,0.0182
2671.00,0.0185
2670.00,0.0189
2669.00,0.0193
2668.00,0.0197
2667.00,0.0200
2666.00,0.0203
2665.00,0.0205
2664.00,0.0206
2663.00,0.0207
2662.00,0.0207
2661.00,0.0207
2660.00,0.0207
2659.00,0.0207
2658.00,0.0206
2657.00,0.0205
2656.00,0.0204
2655.00,0.0202
2654.00,0.0200
2653.00,0.0199
2652.00,0.0197
2651.00,0.0195
2650.00,0.0192
2649.00,0.0190
2648.00,0.0188
2647.00,0.0186
2646.00,0.0185
2645.00,0.0183
2644.00,0.0181
2643.00,0.0180
2642.00,0.0178
2641.00,0.0177
2640.00,0.0175
2639.00,0.0173
2638.00,0.0170
2637.00,0.0166
2636.00,0.0163
2635.00,0.0160
2634.00,0.0158
2633.00,0.0156
2632.00,0.0156
2631.00,0.0156
2630.00,0.0155
2629.00,0.0154
2628.00,0.0153
2627.00,0.0151
2626.00,0.0149
2625.00,0.0147
2624.00,0.0146
2623.00,0.0144
2622.00,0.0143
2621.00,0.0142
2620.00,0.0141
2619.00,0.0140
2618.00,0.0140
2617.00,0.0139
2616.00,0.0138
2615.00,0.0138
2614.00,0.0138
2613.00,0.0137
2612.00,0.0137
2611.00,0.0137
2610.00,0.0137
2609.00,0.0137
2608.00,0.0137
2607.00,0.0137
2606.00,0.0137
2605.00,0.0135
2604.00,0.0134
2603.00,0.0133
2602.00,0.0132
2601.00,0.0131
2600.00,0.0130
2599.00,0.0130
2598.00,0.0129
2597.00,0.0128
2596.00,0.0128
2595.00,0.0127
2594.00,0.0126
2593.00,0.0126
2592.00,0.0125
2591.00,0.0125
2590.00,0.0125
2589.00,0.0124
2588.00,0.0124
2587.00,0.0123
2586.00,0.0123
2585.00,0.0122
2584.00,0.0122
2583.00,0.0122
2582.00,0.0121
2581.00,0.0121
2580.00,0.0120
2579.00,0.0120
2578.00,0.0119
2577.00,0.0119
2576.00,0.0118
2575.00,0.0117
2574.00,0.0117
2573.00,0.0116
2572.00,0.0115
2571.00,0.0114
2570.00,0.0114
2569.00,0.0113
2568.00,0.0112
2567.00,0.0111
2566.00,0.0110
2565.00,0.0109
2564.00,0.0108
2563.00,0.0107
2562.00,0.0106
2561.00,0.0106
2560.00,0.0105
2559.00,0.0104
2558.00,0.0103
2557.00,0.0103
2556.00,0.0102
2555.00,0.0102
2554.00,0.0102
2553.00,0.0102
2552.00,0.0102
2551.00,0.0101
2550.00,0.0101
2549.00,0.0101
2548.00,0.0102
2547.00,0.0102
2546.00,0.0102
2545.00,0.0102
2544.00,0.0103
2543.00,0.0103
2542.00,0.0103
2541.00,0.0104
2540.00,0.0105
2539.00,0.0105
2538.00,0.0106
2537.00,0.0106
2536.00,0.0106
2535.00,0.0107
2534.00,0.0107
2533.00,0.0108
2532.00,0.0108
2531.00,0.0108
2530.00,0.0109
2529.00,0.0109
2528.00,0.0109
2527.00,0.0110
2526.00,0.0110
2525.00,0.0110
2524.00,0.0110
2523.00,0.0110
2522.00,0.0110
2521.00,0.0110
2520.00,0.0110
2519.00,0.0111
2518.00,0.0111
2517.00,0.0111
2516.00,0.0111
2515.00,0.0111
2514.00,0.0111
2513.00,0.0110
2512.00,0.0110
2511.00,0.0110
2510.00,0.0109
2509.00,0.0109
2508.00,0.0108
2507.00,0.0108
2506.00,0.0107
2505.00,0.0107
2504.00,0.0106
2503.00,0.0106
2502.00,0.0105
2501.00,0.0104
2500.00,0.0103
2499.00,0.0103
2498.00,0.0102
2497.00,0.0102
2496.00,0.0101
2495.00,0.0101
2494.00,0.0100
2493.00,0.0100
2492.00,0.0099
2491.00,0.0098
2490.00,0.0098
2489.00,0.0098
2488.00,0.0097
2487.00,0.0097
2486.00,0.0097
2485.00,0.0096
2484.00,0.0096
2483.00,0.0096
2482.00,0.0096
2481.00,0.0095
2480.00,0.0095
2479.00,0.0095
2478.00,0.0095
2477.00,0.0094
2476.00,0.0094
2475.00,0.0094
2474.00,0.0094
2473.00,0.0094
2472.00,0.0093
2471.00,0.0093
2470.00,0.0093
2469.00,0.0092
2468.00,0.0092
2467.00,0.0091
2466.00,0.0091
2465.00,0.0091
2464.00,0.0090
2463.00,0.0090
2462.00,0.0089
2461.00,0.0089
2460.00,0.0089
2459.00,0.0088
2458.00,0.0088
2457.00,0.0088
2456.00,0.0087
2455.00,0.0087
2454.00,0.0086
2453.00,0.0086
2452.00,0.0086
2451.00,0.0086
2450.00,0.0086
2449.00,0.0085
2448.00,0.0085
2447.00,0.0084
2446.00,0.0084
2445.00,0.0084
2444.00,0.0084
2443.00,0.0084
2442.00,0.0084
2441.00,0.0084
2440.00,0.0084
2439.00,0.0084
2438.00,0.0084
2437.00,0.0085
2436.00,0.0085
2435.00,0.0085
2434.00,0.0085
2433.00,0.0085
2432.00,0.0085
2431.00,0.0086
2430.00,0.0086
2429.00,0.0087
2428.00,0.0087
2427.00,0.0088
2426.00,0.0088
2425.00,0.0088
2424.00,0.0088
2423.00,0.0089
2422.00,0.0089
2421.00,0.0090
2420.00,0.0090
2419.00,0.0090
2418.00,0.0091
2417.00,0.0091
2416.00,0.0091
2415.00,0.0092
2414.00,0.0092
2413.00,0.0092
2412.00,0.0091
2411.00,0.0092
2410.00,0.0092
2409.00,0.0092
2408.00,0.0091
2407.00,0.0091
2406.00,0.0091
2405.00,0.0091
2404.00,0.0091
2403.00,0.0091
2402.00,0.0091
2401.00,0.0091
2400.00,0.0091
2399.00,0.0090
2398.00,0.0090
2397.00,0.0090
2396.00,0.0090
2395.00,0.0090
2394.00,0.0090
2393.00,0.0089
2392.00,0.0089
2391.00,0.0088
2390.00,0.0088
2389.00,0.0087
2388.00,0.0086
2387.00,0.0086
2386.00,0.0085
2385.00,0.0085
2384.00,0.0085
2383.00,0.0084
2382.00,0.0084
2381.00,0.0084
2380.00,0.0083
2379.00,0.0083
2378.00,0.0083
2377.00,0.0082
2376.00,0.0082
2375.00,0.0081
2374.00,0.0081
2373.00,0.0080
2372.00,0.0080
2371.00,0.0079
2370.00,0.0079
2369.00,0.0079
2368.00,0.0085
2367.00,0.0085
2366.00,0.0086
2365.00,0.0086
2364.00,0.0087
2363.00,0.0087
2362.00,0.0088
2361.00,0.0088
2360.00,0.0088
2359.00,0.0089
2358.00,0.0088
2357.00,0.0088
2356.00,0.0089
2355.00,0.0089
2354.00,0.0089
2353.00,0.0089
2352.00,0.0089
2351.00,0.0090
2350.00,0.0090
2349.00,0.0090
2348.00,0.0090
2347.00,0.0090
2346.00,0.0090
2345.00,0.0091
2344.00,0.0091
2343.00,0.0091
2342.00,0.0090
2341.00,0.0090
2340.00,0.0091
2339.00,0.0092
2338.00,0.0092
2337.00,0.0092
2336.00,0.0092
2335.00,0.0091
2334.00,0.0091
2333.00,0.0092
2332.00,0.0092
2331.00,0.0093
2330.00,0.0093
2329.00,0.0092
2328.00,0.0092
2327.00,0.0092
2326.00,0.0092
2325.00,0.0092
2324.00,0.0092
2323.00,0.0093
2322.00,0.0093
2321.00,0.0093
2320.00,0.0092
2319.00,0.0092
2318.00,0.0091
2317.00,0.0090
2316.00,0.0089
2315.00,0.0089
2314.00,0.0089
2313.00,0.0089
2312.00,0.0089
2311.00,0.0088
2310.00,0.0088
2309.00,0.0087
2308.00,0.0087
2307.00,0.0087
2306.00,0.0087
2305.00,0.0086
2304.00,0.0086
2303.00,0.0085
2302.00,0.0084
2301.00,0.0084
2300.00,0.0083
2299.00,0.0083
2298.00,0.0083
2297.00,0.0082
2296.00,0.0082
2295.00,0.0082
2294.00,0.0081
2293.00,0.0081
2292.00,0.0081
2291.00,0.0080
2290.00,0.0080
2289.00,0.0079
2288.00,0.0079
2287.00,0.0078
2286.00,0.0078
2285.00,0.0077
2284.00,0.0076
2283.00,0.0076
2282.00,0.0075
2281.00,0.0075
2280.00,0.0074
2279.00,0.0074
2278.00,0.0073
2277.00,0.0072
2276.00,0.0071
2275.00,0.0071
2274.00,0.0070
2273.00,0.0070
2272.00,0.0070
2271.00,0.0069
2270.00,0.0069
2269.00,0.0068
2268.00,0.0068
2267.00,0.0067
2266.00,0.0066
2265.00,0.0066
2264.00,0.0066
2263.00,0.0066
2262.00,0.0065
2261.00,0.0065
2260.00,0.0065
2259.00,0.0064
2258.00,0.0064
2257.00,0.0063
2256.00,0.0063
2255.00,0.0062
2254.00,0.0062
2253.00,0.0062
2252.00,0.0061
2251.00,0.0061
2250.00,0.0061
2249.00,0.0061
2248.00,0.0060
2247.00,0.0061
2246.00,0.0061
2245.00,0.0061
2244.00,0.0061
2243.00,0.0061
2242.00,0.0061
2241.00,0.0061
2240.00,0.0061
2239.00,0.0060
2238.00,0.0060
2237.00,0.0060
2236.00,0.0060
2235.00,0.0060
2234.00,0.0061
2233.00,0.0061
2232.00,0.0061
2231.00,0.0061
2230.00,0.0061
2229.00,0.0060
2228.00,0.0060
2227.00,0.0060
2226.00,0.0061
2225.00,0.0062
2224.00,0.0063
2223.00,0.0063
2222.00,0.0063
2221.00,0.0063
2220.00,0.0063
2219.00,0.0063
2218.00,0.0063
2217.00,0.0063
2216.00,0.0064
2215.00,0.0065
2214.00,0.0066
2213.00,0.0066
2212.00,0.0067
2211.00,0.0067
2210.00,0.0067
2209.00,0.0067
2208.00,0.0067
2207.00,0.0067
2206.00,0.0068
2205.00,0.0069
2204.00,0.0070
2203.00,0.0071
2202.00,0.0072
2201.00,0.0072
2200.00,0.0072
2199.00,0.0073
2198.00,0.0073
2197.00,0.0074
2196.00,0.0074
2195.00,0.0075
2194.00,0.0075
2193.00,0.0075
2192.00,0.0074
2191.00,0.0074
2190.00,0.0073
2189.00,0.0072
2188.00,0.0072
2187.00,0.0072
2186.00,0.0072
2185.00,0.0071
2184.00,0.0071
2183.00,0.0070
2182.00,0.0069
2181.00,0.0069
2180.00,0.0068
2179.00,0.0067
2178.00,0.0067
2177.00,0.0066
2176.00,0.0066
2175.00,0.0065
2174.00,0.0065
2173.00,0.0065
2172.00,0.0065
2171.00,0.0066
2170.00,0.0066
2169.00,0.0065
2168.00,0.0065
2167.00,0.0064
2166.00,0.0063
2165.00,0.0063
2164.00,0.0063
2163.00,0.0062
2162.00,0.0061
2161.00,0.0059
2160.00,0.0058
2159.00,0.0056
2158.00,0.0056
2157.00,0.0056
2156.00,0.0057
2155.00,0.0058
2154.00,0.0058
2153.00,0.0059
2152.00,0.0058
2151.00,0.0058
2150.00,0.0058
2149.00,0.0058
2148.00,0.0059
2147.00,0.0059
2146.00,0.0060
2145.00,0.0060
2144.00,0.0061
2143.00,0.0061
2142.00,0.0062
2141.00,0.0063
2140.00,0.0064
2139.00,0.0064
2138.00,0.0064
2137.00,0.0063
2136.00,0.0063
2135.00,0.0062
2134.00,0.0062
2133.00,0.0063
2132.00,0.0063
2131.00,0.0064
2130.00,0.0064
2129.00,0.0065
2128.00,0.0065
2127.00,0.0066
2126.00,0.0066
2125.00,0.0066
2124.00,0.0066
2123.00,0.0066
2122.00,0.0067
2121.00,0.0067
2120.00,0.0067
2119.00,0.0068
2118.00,0.0068
2117.00,0.0068
2116.00,0.0068
2115.00,0.0069
2114.00,0.0069
2113.00,0.0069
2112.00,0.0069
2111.00,0.0069
2110.00,0.0070
2109.00,0.0070
2108.00,0.0070
2107.00,0.0070
2106.00,0.0070
2105.00,0.0070
2104.00,0.0071
2103.00,0.0071
2102.00,0.0072
2101.00,0.0072
2100.00,0.0072
2099.00,0.0072
2098.00,0.0072
2097.00,0.0073
2096.00,0.0073
2095.00,0.0073
2094.00,0.0073
2093.00,0.0074
2092.00,0.0074
2091.00,0.0075
2090.00,0.0076
2089.00,0.0076
2088.00,0.0077
2087.00,0.0077
2086.00,0.0077
2085.00,0.0077
2084.00,0.0077
2083.00,0.0078
2082.00,0.0079
2081.00,0.0079
2080.00,0.0079
2079.00,0.0079
2078.00,0.0078
2077.00,0.0078
2076.00,0.0077
2075.00,0.0077
2074.00,0.0076
2073.00,0.0076
2072.00,0.0076
2071.00,0.0076
2070.00,0.0076
2069.00,0.0076
2068.00,0.0076
2067.00,0.0076
2066.00,0.0075
2065.00,0.0075
2064.00,0.0074
2063.00,0.0074
2062.00,0.0073
2061.00,0.0072
2060.00,0.0072
2059.00,0.0072
2058.00,0.0073
2057.00,0.0073
2056.00,0.0073
2055.00,0.0073
2054.00,0.0073
2053.00,0.0073
2052.00,0.0074
2051.00,0.0074
2050.00,0.0074
2049.00,0.0073
2048.00,0.0072
2047.00,0.0071
2046.00,0.0071
2045.00,0.0071
2044.00,0.0071
2043.00,0.0071
2042.00,0.0070
2041.00,0.0068
2040.00,0.0067
2039.00,0.0067
2038.00,0.0067
2037.00,0.0067
2036.00,0.0067
2035.00,0.0067
2034.00,0.0068
2033.00,0.0068
2032.00,0.0068
2031.00,0.0069
2030.00,0.0068
2029.00,0.0068
2028.00,0.0068
2027.00,0.0067
2026.00,0.0067
2025.00,0.0066
2024.00,0.0066
2023.00,0.0066
2022.00,0.0065
2021.00,0.0065
2020.00,0.0066
2019.00,0.0066
2018.00,0.0066
2017.00,0.0067
2016.00,0.0067
2015.00,0.0067
2014.00,0.0067
2013.00,0.0066
2012.00,0.0066
2011.00,0.0065
2010.00,0.0064
2009.00,0.0063
2008.00,0.0063
2007.00,0.0063
2006.00,0.0064
2005.00,0.0064
2004.00,0.0065
2003.00,0.0065
2002.00,0.0064
2001.00,0.0064
2000.00,0.0064
1999.00,0.0064
1998.00,0.0064
1997.00,0.0064
1996.00,0.0065
1995.00,0.0066
1994.00,0.0066
1993.00,0.0066
1992.00,0.0066
1991.00,0.0065
1990.00,0.0065
1989.00,0.0066
1988.00,0.0067
1987.00,0.0068
1986.00,0.0069
1985.00,0.0069
1984.00,0.0069
1983.00,0.0069
1982.00,0.0069
1981.00,0.0069
1980.00,0.0069
1979.00,0.0069
1978.00,0.0068
1977.00,0.0067
1976.00,0.0066
1975.00,0.0065
1974.00,0.0065
1973.00,0.0064
1972.00,0.0063
1971.00,0.0063
1970.00,0.0062
1969.00,0.0061
1968.00,0.0061
1967.00,0.0061
1966.00,0.0061
1965.00,0.0061
1964.00,0.0061
1963.00,0.0061
1962.00,0.0061
1961.00,0.0061
1960.00,0.0061
1959.00,0.0061
1958.00,0.0060
1957.00,0.0060
1956.00,0.0060
1955.00,0.0060
1954.00,0.0060
1953.00,0.0060
1952.00,0.0060
1951.00,0.0060
1950.00,0.0059
1949.00,0.0058
1948.00,0.0057
1947.00,0.0057
1946.00,0.0057
1945.00,0.0056
1944.00,0.0056
1943.00,0.0056
1942.00,0.0056
1941.00,0.0056
1940.00,0.0057
1939.00,0.0057
1938.00,0.0058
1937.00,0.0058
1936.00,0.0058
1935.00,0.0057
1934.00,0.0057
1933.00,0.0057
1932.00,0.0058
1931.00,0.0058
1930.00,0.0059
1929.00,0.0060
1928.00,0.0062
1927.00,0.0063
1926.00,0.0064
1925.00,0.0065
1924.00,0.0065
1923.00,0.0065
1922.00,0.0066
1921.00,0.0067
1920.00,0.0067
1919.00,0.0067
1918.00,0.0067
1917.00,0.0068
1916.00,0.0069
1915.00,0.0070
1914.00,0.0071
1913.00,0.0072
1912.00,0.0072
1911.00,0.0073
1910.00,0.0073
1909.00,0.0074
1908.00,0.0075
1907.00,0.0077
1906.00,0.0078
1905.00,0.0079
1904.00,0.0080
1903.00,0.0080
1902.00,0.0081
1901.00,0.0081
1900.00,0.0081
1899.00,0.0080
1898.00,0.0080
1897.00,0.0080
1896.00,0.0079
1895.00,0.0079
1894.00,0.0079
1893.00,0.0079
1892.00,0.0079
1891.00,0.0078
1890.00,0.0078
1889.00,0.0078
1888.00,0.0078
1887.00,0.0078
1886.00,0.0078
1885.00,0.0078
1884.00,0.0078
1883.00,0.0078
1882.00,0.0077
1881.00,0.0077
1880.00,0.0077
1879.00,0.0077
1878.00,0.0077
1877.00,0.0077
1876.00,0.0077
1875.00,0.0076
1874.00,0.0076
1873.00,0.0076
1872.00,0.0075
1871.00,0.0075
1870.00,0.0074
1869.00,0.0074
1868.00,0.0074
1867.00,0.0074
1866.00,0.0075
1865.00,0.0075
1864.00,0.0075
1863.00,0.0075
1862.00,0.0075
1861.00,0.0075
1860.00,0.0075
1859.00,0.0075
1858.00,0.0075
1857.00,0.0075
1856.00,0.0075
1855.00,0.0075
1854.00,0.0075
1853.00,0.0075
1852.00,0.0075
1851.00,0.0075
1850.00,0.0075
1849.00,0.0075
1848.00,0.0075
1847.00,0.0075
1846.00,0.0075
1845.00,0.0075
1844.00,0.0076
1843.00,0.0076
1842.00,0.0077
1841.00,0.0077
1840.00,0.0077
1839.00,0.0078
1838.00,0.0077
1837.00,0.0077
1836.00,0.0078
1835.00,0.0078
1834.00,0.0078
1833.00,0.0078
1832.00,0.0078
1831.00,0.0078
1830.00,0.0078
1829.00,0.0078
1828.00,0.0078
1827.00,0.0078
1826.00,0.0078
1825.00,0.0077
1824.00,0.0078
1823.00,0.0078
1822.00,0.0078
1821.00,0.0078
1820.00,0.0078
1819.00,0.0079
1818.00,0.0079
1817.00,0.0079
1816.00,0.0079
1815.00,0.0079
1814.00,0.0079
1813.00,0.0079
1812.00,0.0079
1811.00,0.0079
1810.00,0.0080
1809.00,0.0080
1808.00,0.0080
1807.00,0.0080
1806.00,0.0081
1805.00,0.0081
1804.00,0.0081
1803.00,0.0081
1802.00,0.0081
1801.00,0.0081
1800.00,0.0082
1799.00,0.0082
1798.00,0.0083
1797.00,0.0084
1796.00,0.0084
1795.00,0.0085
1794.00,0.0086
1793.00,0.0087
1792.00,0.0088
1791.00,0.0089
1790.00,0.0091
1789.00,0.0093
1788.00,0.0095
1787.00,0.0097
1786.00,0.0099
1785.00,0.0101
1784.00,0.0103
1783.00,0.0105
1782.00,0.0106
1781.00,0.0108
1780.00,0.0110
1779.00,0.0111
1778.00,0.0113
1777.00,0.0115
1776.00,0.0117
1775.00,0.0119
1774.00,0.0122
1773.00,0.0126
1772.00,0.0129
1771.00,0.0131
1770.00,0.0133
1769.00,0.0133
1768.00,0.0134
1767.00,0.0134
1766.00,0.0134
1765.00,0.0133
1764.00,0.0132
1763.00,0.0130
1762.00,0.0129
1761.00,0.0127
1760.00,0.0126
1759.00,0.0125
1758.00,0.0124
1757.00,0.0123
1756.00,0.0122
1755.00,0.0121
1754.00,0.0120
1753.00,0.0119
1752.00,0.0118
1751.00,0.0116
1750.00,0.0114
1749.00,0.0113
1748.00,0.0111
1747.00,0.0110
1746.00,0.0109
1745.00,0.0108
1744.00,0.0107
1743.00,0.0106
1742.00,0.0105
1741.00,0.0105
1740.00,0.0105
1739.00,0.0104
1738.00,0.0104
1737.00,0.0104
1736.00,0.0104
1735.00,0.0104
1734.00,0.0104
1733.00,0.0105
1732.00,0.0105
1731.00,0.0105
1730.00,0.0105
1729.00,0.0105
1728.00,0.0105
1727.00,0.0105
1726.00,0.0105
1725.00,0.0105
1724.00,0.0105
1723.00,0.0105
1722.00,0.0105
1721.00,0.0105
1720.00,0.0105
1719.00,0.0105
1718.00,0.0105
1717.00,0.0104
1716.00,0.0104
1715.00,0.0104
1714.00,0.0104
1713.00,0.0104
1712.00,0.0104
1711.00,0.0104
1710.00,0.0104
1709.00,0.0104
1708.00,0.0104
1707.00,0.0104
1706.00,0.0104
1705.00,0.0104
1704.00,0.0103
1703.00,0.0103
1702.00,0.0104
1701.00,0.0104
1700.00,0.0104
1699.00,0.0104
1698.00,0.0105
1697.00,0.0105
1696.00,0.0105
1695.00,0.0105
1694.00,0.0106
1693.00,0.0106
1692.00,0.0107
1691.00,0.0107
1690.00,0.0108
1689.00,0.0108
1688.00,0.0109
1687.00,0.0109
1686.00,0.0110
1685.00,0.0111
1684.00,0.0111
1683.00,0.0112
1682.00,0.0113
1681.00,0.0114
1680.00,0.0115
1679.00,0.0116
1678.00,0.0117
1677.00,0.0118
1676.00,0.0119
1675.00,0.0120
1674.00,0.0121
1673.00,0.0122
1672.00,0.0124
1671.00,0.0124
1670.00,0.0125
1669.00,0.0126
1668.00,0.0127
1667.00,0.0127
1666.00,0.0128
1665.00,0.0128
1664.00,0.0128
1663.00,0.0128
1662.00,0.0128
1661.00,0.0128
1660.00,0.0128
1659.00,0.0129
1658.00,0.0129
1657.00,0.0129
1656.00,0.0129
1655.00,0.0129
1654.00,0.0129
1653.00,0.0128
1652.00,0.0128
1651.00,0.0128
1650.00,0.0128
1649.00,0.0128
1648.00,0.0127
1647.00,0.0127
1646.00,0.0126
1645.00,0.0126
1644.00,0.0125
1643.00,0.0125
1642.00,0.0125
1641.00,0.0124
1640.00,0.0123
1639.00,0.0123
1638.00,0.0122
1637.00,0.0122
1636.00,0.0121
1635.00,0.0120
1634.00,0.0120
1633.00,0.0120
1632.00,0.0119
1631.00,0.0119
1630.00,0.0118
1629.00,0.0118
1628.00,0.0117
1627.00,0.0117
1626.00,0.0117
1625.00,0.0117
1624.00,0.0116
1623.00,0.0116
1622.00,0.0116
1621.00,0.0116
1620.00,0.0116
1619.00,0.0116
1618.00,0.0117
1617.00,0.0116
1616.00,0.0116
1615.00,0.0115
1614.00,0.0114
1613.00,0.0114
1612.00,0.0114
1611.00,0.0113
1610.00,0.0113
1609.00,0.0113
1608.00,0.0113
1607.00,0.0113
1606.00,0.0113
1605.00,0.0113
1604.00,0.0113
1603.00,0.0113
1602.00,0.0113
1601.00,0.0113
1600.00,0.0113
1599.00,0.0113
1598.00,0.0113
1597.00,0.0113
1596.00,0.0113
1595.00,0.0113
1594.00,0.0113
1593.00,0.0113
1592.00,0.0113
1591.00,0.0113
1590.00,0.0113
1589.00,0.0113
1588.00,0.0113
1587.00,0.0113
1586.00,0.0113
1585.00,0.0114
1584.00,0.0114
1583.00,0.0114
1582.00,0.0114
1581.00,0.0115
1580.00,0.0115
1579.00,0.0116
1578.00,0.0116
1577.00,0.0117
1576.00,0.0118
1575.00,0.0118
1574.00,0.0118
1573.00,0.0118
1572.00,0.0118
1571.00,0.0119
1570.00,0.0119
1569.00,0.0120
1568.00,0.0120
1567.00,0.0121
1566.00,0.0121
1565.00,0.0122
1564.00,0.0122
1563.00,0.0123
1562.00,0.0123
1561.00,0.0124
1560.00,0.0124
1559.00,0.0125
1558.00,0.0126
1557.00,0.0126
1556.00,0.0127
1555.00,0.0127
1554.00,0.0128
1553.00,0.0128
1552.00,0.0129
1551.00,0.0129
1550.00,0.0130
1549.00,0.0131
1548.00,0.0132
1547.00,0.0133
1546.00,0.0133
1545.00,0.0133
1544.00,0.0134
1543.00,0.0135
1542.00,0.0136
1541.00,0.0138
1540.00,0.0140
1539.00,0.0141
1538.00,0.0141
1537.00,0.0142
1536.00,0.0143
1535.00,0.0143
1534.00,0.0144
1533.00,0.0145
1532.00,0.0147
1531.00,0.0148
1530.00,0.0149
1529.00,0.0150
1528.00,0.0151
1527.00,0.0152
1526.00,0.0154
1525.00,0.0156
1524.00,0.0158
1523.00,0.0159
1522.00,0.0161
1521.00,0.0164
1520.00,0.0166
1519.00,0.0168
1518.00,0.0170
1517.00,0.0173
1516.00,0.0176
1515.00,0.0179
1514.00,0.0183
1513.00,0.0186
1512.00,0.0190
1511.00,0.0194
1510.00,0.0197
1509.00,0.0202
1508.00,0.0209
1507.00,0.0218
1506.00,0.0228
1505.00,0.0237
1504.00,0.0246
1503.00,0.0253
1502.00,0.0262
1501.00,0.0271
1500.00,0.0282
1499.00,0.0293
1498.00,0.0305
1497.00,0.0319
1496.00,0.0334
1495.00,0.0348
1494.00,0.0361
1493.00,0.0374
1492.00,0.0388
1491.00,0.0402
1490.00,0.0418
1489.00,0.0434
1488.00,0.0450
1487.00,0.0464
1486.00,0.0479
1485.00,0.0493
1484.00,0.0508
1483.00,0.0523
1482.00,0.0539
1481.00,0.0558
1480.00,0.0580
1479.00,0.0605
1478.00,0.0638
1477.00,0.0686
1476.00,0.0748
1475.00,0.0821
1474.00,0.0894
1473.00,0.0952
1472.00,0.0982
1471.00,0.0985
1470.00,0.0978
1469.00,0.0972
1468.00,0.0973
1467.00,0.0984
1466.00,0.1009
1465.00,0.1045
1464.00,0.1073
1463.00,0.1079
1462.00,0.1062
1461.00,0.1028
1460.00,0.0988
1459.00,0.0947
1458.00,0.0906
1457.00,0.0866
1456.00,0.0832
1455.00,0.0804
1454.00,0.0778
1453.00,0.0751
1452.00,0.0723
1451.00,0.0697
1450.00,0.0672
1449.00,0.0649
1448.00,0.0627
1447.00,0.0610
1446.00,0.0596
1445.00,0.0586
1444.00,0.0579
1443.00,0.0573
1442.00,0.0570
1441.00,0.0568
1440.00,0.0566
1439.00,0.0566
1438.00,0.0567
1437.00,0.0569
1436.00,0.0572
1435.00,0.0577
1434.00,0.0582
1433.00,0.0586
1432.00,0.0591
1431.00,0.0598
1430.00,0.0606
1429.00,0.0615
1428.00,0.0624
1427.00,0.0634
1426.00,0.0644
1425.00,0.0656
1424.00,0.0668
1423.00,0.0682
1422.00,0.0696
1421.00,0.0712
1420.00,0.0731
1419.00,0.0756
1418.00,0.0783
1417.00,0.0809
1416.00,0.0836
1415.00,0.0864
1414.00,0.0895
1413.00,0.0927
1412.00,0.0961
1411.00,0.0997
1410.00,0.1032
1409.00,0.1067
1408.00,0.1101
1407.00,0.1136
1406.00,0.1174
1405.00,0.1216
1404.00,0.1263
1403.00,0.1311
1402.00,0.1360
1401.00,0.1412
1400.00,0.1468
1399.00,0.1526
1398.00,0.1581
1397.00,0.1633
1396.00,0.1685
1395.00,0.1734
1394.00,0.1775
1393.00,0.1803
1392.00,0.1820
1391.00,0.1833
1390.00,0.1851
1389.00,0.1884
1388.00,0.1937
1387.00,0.2006
1386.00,0.2088
1385.00,0.2183
1384.00,0.2293
1383.00,0.2408
1382.00,0.2514
1381.00,0.2592
1380.00,0.2629
1379.00,0.2617
1378.00,0.2561
1377.00,0.2475
1376.00,0.2372
1375.00,0.2263
1374.00,0.2163
1373.00,0.2081
1372.00,0.2017
1371.00,0.1966
1370.00,0.1923
1369.00,0.1883
1368.00,0.1841
1367.00,0.1789
1366.00,0.1725
1365.00,0.1647
1364.00,0.1556
1363.00,0.1455
1362.00,0.1357
1361.00,0.1269
1360.00,0.1194
1359.00,0.1130
1358.00,0.1076
1357.00,0.1029
1356.00,0.0990
1355.00,0.0955
1354.00,0.0926
1353.00,0.0903
1352.00,0.0887
1351.00,0.0878
1350.00,0.0876
1349.00,0.0881
1348.00,0.0892
1347.00,0.0908
1346.00,0.0928
1345.00,0.0952
1344.00,0.0978
1343.00,0.1001
1342.00,0.1014
1341.00,0.1016
1340.00,0.1005
1339.00,0.0983
1338.00,0.0954
1337.00,0.0924
1336.00,0.0894
1335.00,0.0867
1334.00,0.0844
1333.00,0.0825
1332.00,0.0811
1331.00,0.0800
1330.00,0.0793
1329.00,0.0791
1328.00,0.0792
1327.00,0.0796
1326.00,0.0804
1325.00,0.0814
1324.00,0.0828
1323.00,0.0843
1322.00,0.0859
1321.00,0.0876
1320.00,0.0893
1319.00,0.0909
1318.00,0.0925
1317.00,0.0939
1316.00,0.0952
1315.00,0.0962
1314.00,0.0970
1313.00,0.0978
1312.00,0.0984
1311.00,0.0988
1310.00,0.0992
1309.00,0.0994
1308.00,0.0995
1307.00,0.0995
1306.00,0.0993
1305.00,0.0990
1304.00,0.0986
1303.00,0.0980
1302.00,0.0972
1301.00,0.0963
1300.00,0.0952
1299.00,0.0939
1298.00,0.0924
1297.00,0.0909
1296.00,0.0894
1295.00,0.0877
1294.00,0.0861
1293.00,0.0845
1292.00,0.0830
1291.00,0.0814
1290.00,0.0799
1289.00,0.0785
1288.00,0.0771
1287.00,0.0758
1286.00,0.0746
1285.00,0.0736
1284.00,0.0727
1283.00,0.0719
1282.00,0.0714
1281.00,0.0711
1280.00,0.0710
1279.00,0.0712
1278.00,0.0718
1277.00,0.0726
1276.00,0.0738
1275.00,0.0752
1274.00,0.0768
1273.00,0.0788
1272.00,0.0810
1271.00,0.0833
1270.00,0.0856
1269.00,0.0880
1268.00,0.0903
1267.00,0.0924
1266.00,0.0943
1265.00,0.0959
1264.00,0.0972
1263.00,0.0979
1262.00,0.0983
1261.00,0.0985
1260.00,0.0988
1259.00,0.0993
1258.00,0.1003
1257.00,0.1018
1256.00,0.1037
1255.00,0.1059
1254.00,0.1080
1253.00,0.1098
1252.00,0.1107
1251.00,0.1104
1250.00,0.1086
1249.00,0.1058
1248.00,0.1026
1247.00,0.0996
1246.00,0.0971
1245.00,0.0953
1244.00,0.0941
1243.00,0.0934
1242.00,0.0927
1241.00,0.0919
1240.00,0.0909
1239.00,0.0897
1238.00,0.0881
1237.00,0.0862
1236.00,0.0839
1235.00,0.0814
1234.00,0.0787
1233.00,0.0759
1232.00,0.0731
1231.00,0.0702
1230.00,0.0673
1229.00,0.0644
1228.00,0.0615
1227.00,0.0588
1226.00,0.0562
1225.00,0.0538
1224.00,0.0515
1223.00,0.0494
1222.00,0.0475
1221.00,0.0458
1220.00,0.0442
1219.00,0.0428
1218.00,0.0416
1217.00,0.0405
1216.00,0.0395
1215.00,0.0386
1214.00,0.0378
1213.00,0.0372
1212.00,0.0366
1211.00,0.0362
1210.00,0.0358
1209.00,0.0356
1208.00,0.0354
1207.00,0.0353
1206.00,0.0354
1205.00,0.0356
1204.00,0.0358
1203.00,0.0361
1202.00,0.0365
1201.00,0.0370
1200.00,0.0377
1199.00,0.0384
1198.00,0.0394
1197.00,0.0405
1196.00,0.0418
1195.00,0.0432
1194.00,0.0449
1193.00,0.0469
1192.00,0.0490
1191.00,0.0513
1190.00,0.0539
1189.00,0.0567
1188.00,0.0597
1187.00,0.0629
1186.00,0.0663
1185.00,0.0698
1184.00,0.0735
1183.00,0.0773
1182.00,0.0813
1181.00,0.0854
1180.00,0.0898
1179.00,0.0942
1178.00,0.0989
1177.00,0.1040
1176.00,0.1094
1175.00,0.1156
1174.00,0.1227
1173.00,0.1310
1172.00,0.1405
1171.00,0.1516
1170.00,0.1641
1169.00,0.1778
1168.00,0.1925
1167.00,0.2078
1166.00,0.2232
1165.00,0.2381
1164.00,0.2515
1163.00,0.2624
1162.00,0.2705
1161.00,0.2758
1160.00,0.2786
1159.00,0.2791
1158.00,0.2777
1157.00,0.2747
1156.00,0.2704
1155.00,0.2653
1154.00,0.2598
1153.00,0.2542
1152.00,0.2487
1151.00,0.2433
1150.00,0.2379
1149.00,0.2327
1148.00,0.2275
1147.00,0.2227
1146.00,0.2183
1145.00,0.2146
1144.00,0.2118
1143.00,0.2100
1142.00,0.2093
1141.00,0.2099
1140.00,0.2120
1139.00,0.2155
1138.00,0.2203
1137.00,0.2263
1136.00,0.2333
1135.00,0.2413
1134.00,0.2504
1133.00,0.2602
1132.00,0.2698
1131.00,0.2779
1130.00,0.2836
1129.00,0.2862
1128.00,0.2853
1127.00,0.2809
1126.00,0.2733
1125.00,0.2635
1124.00,0.2524
1123.00,0.2412
1122.00,0.2307
1121.00,0.2217
1120.00,0.2146
1119.00,0.2093
1118.00,0.2058
1117.00,0.2039
1116.00,0.2031
1115.00,0.2031
1114.00,0.2035
1113.00,0.2041
1112.00,0.2048
1111.00,0.2053
1110.00,0.2056
1109.00,0.2057
1108.00,0.2053
1107.00,0.2045
1106.00,0.2032
1105.00,0.2014
1104.00,0.1990
1103.00,0.1961
1102.00,0.1926
1101.00,0.1889
1100.00,0.1850
1099.00,0.1811
1098.00,0.1772
1097.00,0.1737
1096.00,0.1704
1095.00,0.1674
1094.00,0.1647
1093.00,0.1623
1092.00,0.1602
1091.00,0.1580
1090.00,0.1558
1089.00,0.1533
1088.00,0.1506
1087.00,0.1477
1086.00,0.1450
1085.00,0.1427
1084.00,0.1407
1083.00,0.1391
1082.00,0.1377
1081.00,0.1363
1080.00,0.1349
1079.00,0.1336
1078.00,0.1322
1077.00,0.1311
1076.00,0.1304
1075.00,0.1303
1074.00,0.1304
1073.00,0.1301
1072.00,0.1289
1071.00,0.1266
1070.00,0.1236
1069.00,0.1201
1068.00,0.1162
1067.00,0.1120
1066.00,0.1080
1065.00,0.1043
1064.00,0.1011
1063.00,0.0984
1062.00,0.0958
1061.00,0.0933
1060.00,0.0906
1059.00,0.0875
1058.00,0.0843
1057.00,0.0810
1056.00,0.0776
1055.00,0.0741
1054.00,0.0708
1053.00,0.0675
1052.00,0.0643
1051.00,0.0611
1050.00,0.0580
1049.00,0.0551
1048.00,0.0523
1047.00,0.0497
1046.00,0.0472
1045.00,0.0449
1044.00,0.0427
1043.00,0.0407
1042.00,0.0390
1041.00,0.0375
1040.00,0.0360
1039.00,0.0348
1038.00,0.0337
1037.00,0.0327
1036.00,0.0318
1035.00,0.0310
1034.00,0.0303
1033.00,0.0296
1032.00,0.0291
1031.00,0.0285
1030.00,0.0281
1029.00,0.0277
1028.00,0.0274
1027.00,0.0270
1026.00,0.0268
1025.00,0.0265
1024.00,0.0263
1023.00,0.0260
1022.00,0.0258
1021.00,0.0257
1020.00,0.0255
1019.00,0.0253
1018.00,0.0252
1017.00,0.0251
1016.00,0.0250
1015.00,0.0249
1014.00,0.0249
1013.00,0.0249
1012.00,0.0249
1011.00,0.0249
1010.00,0.0249
1009.00,0.0249
1008.00,0.0249
1007.00,0.0250
1006.00,0.0251
1005.00,0.0251
1004.00,0.0252
1003.00,0.0252
1002.00,0.0253
1001.00,0.0254
1000.00,0.0255
999.00,0.0256
998.00,0.0258
997.00,0.0261
996.00,0.0263
995.00,0.0266
994.00,0.0270
993.00,0.0274
992.00,0.0279
991.00,0.0285
990.00,0.0293
989.00,0.0301
988.00,0.0311
987.00,0.0323
986.00,0.0338
985.00,0.0355
984.00,0.0376
983.00,0.0401
982.00,0.0431
981.00,0.0466
980.00,0.0506
979.00,0.0554
978.00,0.0609
977.00,0.0671
976.00,0.0740
975.00,0.0815
974.00,0.0896
973.00,0.0981
972.00,0.1066
971.00,0.1149
970.00,0.1228
969.00,0.1301
968.00,0.1365
967.00,0.1421
966.00,0.1471
965.00,0.1519
964.00,0.1572
963.00,0.1643
962.00,0.1746
961.00,0.1896
960.00,0.2105
959.00,0.2375
958.00,0.2693
957.00,0.3042
956.00,0.3406
955.00,0.3774
954.00,0.4132
953.00,0.4443
952.00,0.4658
951.00,0.4736
950.00,0.4663
949.00,0.4464
948.00,0.4178
947.00,0.3850
946.00,0.3517
945.00,0.3199
944.00,0.2906
943.00,0.2643
942.00,0.2411
941.00,0.2211
940.00,0.2037
939.00,0.1885
938.00,0.1751
937.00,0.1629
936.00,0.1515
935.00,0.1406
934.00,0.1301
933.00,0.1201
932.00,0.1107
931.00,0.1020
930.00,0.0941
929.00,0.0869
928.00,0.0805
927.00,0.0749
926.00,0.0699
925.00,0.0657
924.00,0.0620
923.00,0.0587
922.00,0.0559
921.00,0.0533
920.00,0.0508
919.00,0.0484
918.00,0.0462
917.00,0.0441
916.00,0.0421
915.00,0.0403
914.00,0.0387
913.00,0.0373
912.00,0.0360
911.00,0.0349
910.00,0.0340
909.00,0.0331
908.00,0.0323
907.00,0.0317
906.00,0.0311
905.00,0.0306
904.00,0.0300
903.00,0.0296
902.00,0.0292
901.00,0.0288
900.00,0.0284
899.00,0.0281
898.00,0.0278
897.00,0.0276
896.00,0.0273
895.00,0.0271
894.00,0.0269
893.00,0.0268
892.00,0.0266
891.00,0.0264
890.00,0.0263
889.00,0.0262
888.00,0.0261
887.00,0.0260
886.00,0.0259
885.00,0.0259
884.00,0.0258
883.00,0.0257
882.00,0.0257
881.00,0.0257
880.00,0.0256
879.00,0.0256
878.00,0.0257
877.00,0.0257
876.00,0.0257
875.00,0.0258
874.00,0.0258
873.00,0.0259
872.00,0.0259
871.00,0.0259
870.00,0.0260
869.00,0.0261
868.00,0.0262
867.00,0.0262
866.00,0.0264
865.00,0.0265
864.00,0.0266
863.00,0.0267
862.00,0.0269
861.00,0.0270
860.00,0.0272
859.00,0.0273
858.00,0.0276
857.00,0.0278
856.00,0.0280
855.00,0.0282
854.00,0.0285
853.00,0.0288
852.00,0.0290
851.00,0.0293
850.00,0.0297
849.00,0.0301
848.00,0.0305
847.00,0.0310
846.00,0.0316
845.00,0.0322
844.00,0.0329
843.00,0.0337
842.00,0.0346
841.00,0.0357
840.00,0.0369
839.00,0.0382
838.00,0.0397
837.00,0.0413
836.00,0.0430
835.00,0.0447
834.00,0.0465
833.00,0.0483
832.00,0.0500
831.00,0.0517
830.00,0.0534
829.00,0.0552
828.00,0.0571
827.00,0.0594
826.00,0.0624
825.00,0.0666
824.00,0.0729
823.00,0.0824
822.00,0.0961
821.00,0.1141
820.00,0.1352
819.00,0.1566
818.00,0.1743
817.00,0.1839
816.00,0.1829
815.00,0.1720
814.00,0.1544
813.00,0.1342
812.00,0.1149
811.00,0.0986
810.00,0.0860
809.00,0.0767
808.00,0.0700
807.00,0.0652
806.00,0.0618
805.00,0.0592
804.00,0.0572
803.00,0.0556
802.00,0.0542
801.00,0.0530
800.00,0.0518
799.00,0.0506
798.00,0.0496
797.00,0.0486
796.00,0.0476
795.00,0.0467
794.00,0.0459
793.00,0.0452
792.00,0.0446
791.00,0.0440
790.00,0.0436
789.00,0.0432
788.00,0.0429
787.00,0.0427
786.00,0.0426
785.00,0.0425
784.00,0.0425
783.00,0.0425
782.00,0.0426
781.00,0.0428
780.00,0.0429
779.00,0.0431
778.00,0.0433
777.00,0.0435
776.00,0.0438
775.00,0.0440
774.00,0.0444
773.00,0.0447
772.00,0.0450
771.00,0.0453
770.00,0.0456
769.00,0.0460
768.00,0.0463
767.00,0.0466
766.00,0.0470
765.00,0.0473
764.00,0.0476
763.00,0.0480
762.00,0.0484
761.00,0.0487
760.00,0.0491
759.00,0.0495
758.00,0.0499
757.00,0.0503
756.00,0.0506
755.00,0.0509
754.00,0.0513
753.00,0.0518
752.00,0.0522
751.00,0.0526
750.00,0.0531
749.00,0.0535
748.00,0.0539
747.00,0.0543
746.00,0.0548
745.00,0.0553
744.00,0.0557
743.00,0.0561
742.00,0.0565
741.00,0.0569
740.00,0.0573
739.00,0.0578
738.00,0.0583
737.00,0.0587
736.00,0.0592
735.00,0.0596
734.00,0.0601
733.00,0.0606
732.00,0.0610
731.00,0.0615
730.00,0.0620
729.00,0.0625
728.00,0.0629
727.00,0.0633
726.00,0.0638
725.00,0.0643
724.00,0.0648
723.00,0.0652
722.00,0.0657
721.00,0.0662
720.00,0.0666
719.00,0.0670
718.00,0.0675
717.00,0.0680
716.00,0.0684
715.00,0.0689
714.00,0.0695
713.00,0.0700
712.00,0.0704
711.00,0.0709
710.00,0.0714
709.00,0.0719
708.00,0.0723
707.00,0.0727
706.00,0.0732
705.00,0.0737
704.00,0.0742
703.00,0.0746
702.00,0.0752
701.00,0.0757
700.00,0.0761
699.00,0.0765
698.00,0.0769
697.00,0.0774
696.00,0.0778
695.00,0.0782
694.00,0.0787
693.00,0.0792
692.00,0.0797
691.00,0.0802
690.00,0.0807
689.00,0.0812
688.00,0.0816
687.00,0.0820
686.00,0.0825
685.00,0.0830
684.00,0.0834
683.00,0.0838
682.00,0.0843
681.00,0.0847
680.00,0.0851
679.00,0.0855
678.00,0.0859
677.00,0.0863
676.00,0.0867
675.00,0.0870
674.00,0.0874
673.00,0.0877
672.00,0.0880
671.00,0.0882
670.00,0.0884
669.00,0.0888
668.00,0.0892
667.00,0.0894
666.00,0.0897
665.00,0.0902
664.00,0.0905
663.00,0.0909
662.00,0.0912
661.00,0.0916
660.00,0.0918
659.00,0.0921
658.00,0.0924
657.00,0.0928
656.00,0.0930
655.00,0.0933
654.00,0.0936
653.00,0.0939
652.00,0.0940
651.00,0.0942
650.00,0.0944
649.00,0.0946
648.00,0.0947
647.00,0.0948
646.00,0.0950
645.00,0.0951
644.00,0.0952
643.00,0.0952
642.00,0.0953
641.00,0.0954
640.00,0.0954
639.00,0.0955
638.00,0.0956
637.00,0.0957
636.00,0.0957
635.00,0.0956
634.00,0.0957
633.00,0.0957
632.00,0.0957
631.00,0.0956
630.00,0.0956
629.00,0.0957
628.00,0.0956
627.00,0.0955
626.00,0.0955
625.00,0.0954
624.00,0.0953
623.00,0.0951
622.00,0.0951
621.00,0.0950
620.00,0.0949
619.00,0.0948
618.00,0.0947
617.00,0.0946
616.00,0.0944
615.00,0.0942
614.00,0.0940
613.00,0.0938
612.00,0.0935
611.00,0.0932
610.00,0.0931
609.00,0.0929
608.00,0.0927
607.00,0.0925
606.00,0.0923
605.00,0.0921
604.00,0.0918
603.00,0.0915
602.00,0.0913
601.00,0.0912
600.00,0.0909
599.00,0.0906
598.00,0.0904
597.00,0.0901
596.00,0.0898
595.00,0.0894
594.00,0.0891
593.00,0.0888
592.00,0.0884
591.00,0.0881
590.00,0.0879
589.00,0.0876
588.00,0.0873
587.00,0.0869
586.00,0.0867
585.00,0.0864
584.00,0.0860
583.00,0.0856
582.00,0.0853
581.00,0.0850
580.00,0.0847
579.00,0.0843
578.00,0.0841
577.00,0.0839
576.00,0.0836
575.00,0.0832
574.00,0.0830
573.00,0.0828
572.00,0.0825
571.00,0.0821
570.00,0.0819
569.00,0.0816
568.00,0.0812
567.00,0.0809
566.00,0.0807
565.00,0.0805
564.00,0.0801
563.00,0.0798
562.00,0.0796
561.00,0.0794
560.00,0.0790
559.00,0.0786
558.00,0.0785
557.00,0.0783
556.00,0.0779
555.00,0.0777
554.00,0.0775
553.00,0.0773
552.00,0.0769
551.00,0.0765
550.00,0.0763
549.00,0.0761
548.00,0.0758
547.00,0.0755
546.00,0.0754
545.00,0.0752
544.00,0.0749
543.00,0.0746
542.00,0.0745
541.00,0.0745
540.00,0.0742
539.00,0.0739
538.00,0.0738
537.00,0.0736
536.00,0.0733
535.00,0.0730
534.00,0.0729
533.00,0.0728
532.00,0.0725
531.00,0.0723
530.00,0.0722
529.00,0.0721
528.00,0.0719
527.00,0.0717
526.00,0.0717
525.00,0.0717
524.00,0.0715
523.00,0.0713
522.00,0.0714
521.00,0.0714
520.00,0.0713
519.00,0.0712
518.00,0.0714
517.00,0.0715
516.00,0.0714
515.00,0.0713
514.00,0.0716
513.00,0.0719
512.00,0.0720
511.00,0.0723
510.00,0.0729
509.00,0.0735
508.00,0.0740
507.00,0.0746
506.00,0.0755
505.00,0.0763
504.00,0.0769
503.00,0.0778
502.00,0.0794
501.00,0.0812
500.00,0.0828
499.00,0.0844
498.00,0.0863
497.00,0.0883
496.00,0.0904
495.00,0.0926
494.00,0.0951
493.00,0.0976
492.00,0.0999
491.00,0.1022
490.00,0.1046
489.00,0.1066
488.00,0.1076
487.00,0.1078
486.00,0.1075
485.00,0.1065
484.00,0.1045
483.00,0.1020
482.00,0.0996
481.00,0.0970
480.00,0.0944
479.00,0.0920
478.00,0.0903
477.00,0.0888
476.00,0.0872
475.00,0.0858
474.00,0.0846
473.00,0.0832
472.00,0.0816
471.00,0.0804
470.00,0.0799
469.00,0.0795
468.00,0.0786
467.00,0.0779
466.00,0.0775
465.00,0.0772
464.00,0.0765
463.00,0.0758
462.00,0.0757
461.00,0.0757
460.00,0.0755
459.00,0.0753
458.00,0.0755
457.00,0.0756
456.00,0.0752
455.00,0.0751
454.00,0.0755
453.00,0.0760
452.00,0.0762
451.00,0.0767
450.00,0.0776
449.00,0.0786
448.00,0.0791
447.00,0.0797
446.00,0.0808
445.00,0.0820
444.00,0.0826
443.00,0.0834
442.00,0.0847
441.00,0.0860
440.00,0.0868
439.00,0.0878
438.00,0.0895
437.00,0.0915
436.00,0.0933
435.00,0.0953
434.00,0.0978
433.00,0.1003
432.00,0.1024
431.00,0.1047
430.00,0.1078
429.00,0.1109
428.00,0.1131
427.00,0.1149
426.00,0.1165
425.00,0.1171
424.00,0.1163
423.00,0.1148
422.00,0.1136
421.00,0.1120
420.00,0.1090
419.00,0.1057
418.00,0.1035
417.00,0.1018
416.00,0.0996
415.00,0.0974
414.00,0.0957
413.00,0.0936
412.00,0.0906
411.00,0.0877
410.00,0.0861
409.00,0.0850
408.00,0.0831
407.00,0.0815
406.00,0.0809
405.00,0.0800
404.00,0.0778
403.00,0.0757
402.00,0.0751
401.00,0.0745
400.00,0.0720
