Created as New Dataset,Sample 026 By YargerLab Date Friday, November 01 2024
cm-1,A
4000.00,0.0059
3999.00,0.0059
3998.00,0.0059
3997.00,0.0059
3996.00,0.0059
3995.00,0.0059
3994.00,0.0059
3993.00,0.0059
3992.00,0.0059
3991.00,0.0059
3990.00,0.0059
3989.00,0.0059
3988.00,0.0060
3987.00,0.0060
3986.00,0.0060
3985.00,0.0060
3984.00,0.0060
3983.00,0.0060
3982.00,0.0060
3981.00,0.0060
3980.00,0.0060
3979.00,0.0060
3978.00,0.0060
3977.00,0.0060
3976.00,0.0060
3975.00,0.0060
3974.00,0.0060
3973.00,0.0060
3972.00,0.0060
3971.00,0.0060
3970.00,0.0060
3969.00,0.0060
3968.00,0.0060
3967.00,0.0060
3966.00,0.0060
3965.00,0.0060
3964.00,0.0060
3963.00,0.0059
3962.00,0.0059
3961.00,0.0059
3960.00,0.0059
3959.00,0.0059
3958.00,0.0059
3957.00,0.0059
3956.00,0.0059
3955.00,0.0059
3954.00,0.0059
3953.00,0.0059
3952.00,0.0059
3951.00,0.0059
3950.00,0.0059
3949.00,0.0059
3948.00,0.0059
3947.00,0.0059
3946.00,0.0059
3945.00,0.0059
3944.00,0.0059
3943.00,0.0059
3942.00,0.0059
3941.00,0.0059
3940.00,0.0059
3939.00,0.0059
3938.00,0.0059
3937.00,0.0059
3936.00,0.0059
3935.00,0.0059
3934.00,0.0059
3933.00,0.0059
3932.00,0.0059
3931.00,0.0059
3930.00,0.0059
3929.00,0.0059
3928.00,0.0059
3927.00,0.0059
3926.00,0.0059
3925.00,0.0059
3924.00,0.0059
3923.00,0.0059
3922.00,0.0059
3921.00,0.0059
3920.00,0.0059
3919.00,0.0059
3918.00,0.0059
3917.00,0.0059
3916.00,0.0059
3915.00,0.0059
3914.00,0.0059
3913.00,0.0059
3912.00,0.0059
3911.00,0.0059
3910.00,0.0059
3909.00,0.0059
3908.00,0.0059
3907.00,0.0059
3906.00,0.0059
3905.00,0.0059
3904.00,0.0059
3903.00,0.0059
3902.00,0.0059
3901.00,0.0059
3900.00,0.0059
3899.00,0.0059
3898.00,0.0059
3897.00,0.0059
3896.00,0.0059
3895.00,0.0059
3894.00,0.0059
3893.00,0.0059
3892.00,0.0059
3891.00,0.0059
3890.00,0.0059
3889.00,0.0059
3888.00,0.0059
3887.00,0.0059
3886.00,0.0059
3885.00,0.0058
3884.00,0.0059
3883.00,0.0059
3882.00,0.0059
3881.00,0.0059
3880.00,0.0058
3879.00,0.0058
3878.00,0.0058
3877.00,0.0058
3876.00,0.0058
3875.00,0.0058
3874.00,0.0058
3873.00,0.0058
3872.00,0.0058
3871.00,0.0058
3870.00,0.0059
3869.00,0.0058
3868.00,0.0058
3867.00,0.0058
3866.00,0.0058
3865.00,0.0058
3864.00,0.0058
3863.00,0.0058
3862.00,0.0058
3861.00,0.0058
3860.00,0.0058
3859.00,0.0058
3858.00,0.0058
3857.00,0.0058
3856.00,0.0059
3855.00,0.0059
3854.00,0.0059
3853.00,0.0059
3852.00,0.0059
3851.00,0.0059
3850.00,0.0058
3849.00,0.0058
3848.00,0.0058
3847.00,0.0058
3846.00,0.0058
3845.00,0.0058
3844.00,0.0058
3843.00,0.0058
3842.00,0.0058
3841.00,0.0058
3840.00,0.0058
3839.00,0.0058
3838.00,0.0058
3837.00,0.0058
3836.00,0.0058
3835.00,0.0058
3834.00,0.0057
3833.00,0.0057
3832.00,0.0057
3831.00,0.0057
3830.00,0.0057
3829.00,0.0057
3828.00,0.0057
3827.00,0.0057
3826.00,0.0057
3825.00,0.0057
3824.00,0.0057
3823.00,0.0057
3822.00,0.0057
3821.00,0.0057
3820.00,0.0057
3819.00,0.0057
3818.00,0.0057
3817.00,0.0057
3816.00,0.0057
3815.00,0.0057
3814.00,0.0057
3813.00,0.0057
3812.00,0.0057
3811.00,0.0057
3810.00,0.0056
3809.00,0.0056
3808.00,0.0056
3807.00,0.0056
3806.00,0.0056
3805.00,0.0056
3804.00,0.0057
3803.00,0.0057
3802.00,0.0056
3801.00,0.0056
3800.00,0.0056
3799.00,0.0056
3798.00,0.0056
3797.00,0.0056
3796.00,0.0056
3795.00,0.0056
3794.00,0.0056
3793.00,0.0056
3792.00,0.0056
3791.00,0.0056
3790.00,0.0056
3789.00,0.0056
3788.00,0.0056
3787.00,0.0056
3786.00,0.0056
3785.00,0.0056
3784.00,0.0056
3783.00,0.0056
3782.00,0.0056
3781.00,0.0056
3780.00,0.0056
3779.00,0.0056
3778.00,0.0056
3777.00,0.0056
3776.00,0.0056
3775.00,0.0056
3774.00,0.0056
3773.00,0.0056
3772.00,0.0056
3771.00,0.0056
3770.00,0.0056
3769.00,0.0056
3768.00,0.0056
3767.00,0.0056
3766.00,0.0056
3765.00,0.0056
3764.00,0.0056
3763.00,0.0056
3762.00,0.0056
3761.00,0.0055
3760.00,0.0055
3759.00,0.0055
3758.00,0.0055
3757.00,0.0055
3756.00,0.0055
3755.00,0.0056
3754.00,0.0056
3753.00,0.0056
3752.00,0.0056
3751.00,0.0056
3750.00,0.0056
3749.00,0.0056
3748.00,0.0056
3747.00,0.0056
3746.00,0.0057
3745.00,0.0056
3744.00,0.0056
3743.00,0.0056
3742.00,0.0056
3741.00,0.0056
3740.00,0.0055
3739.00,0.0055
3738.00,0.0056
3737.00,0.0056
3736.00,0.0056
3735.00,0.0056
3734.00,0.0056
3733.00,0.0056
3732.00,0.0056
3731.00,0.0056
3730.00,0.0056
3729.00,0.0056
3728.00,0.0056
3727.00,0.0055
3726.00,0.0055
3725.00,0.0055
3724.00,0.0055
3723.00,0.0055
3722.00,0.0055
3721.00,0.0055
3720.00,0.0055
3719.00,0.0055
3718.00,0.0055
3717.00,0.0055
3716.00,0.0055
3715.00,0.0055
3714.00,0.0055
3713.00,0.0055
3712.00,0.0055
3711.00,0.0055
3710.00,0.0055
3709.00,0.0055
3708.00,0.0055
3707.00,0.0055
3706.00,0.0054
3705.00,0.0054
3704.00,0.0054
3703.00,0.0055
3702.00,0.0054
3701.00,0.0054
3700.00,0.0054
3699.00,0.0054
3698.00,0.0054
3697.00,0.0054
3696.00,0.0054
3695.00,0.0054
3694.00,0.0054
3693.00,0.0054
3692.00,0.0054
3691.00,0.0054
3690.00,0.0054
3689.00,0.0054
3688.00,0.0054
3687.00,0.0054
3686.00,0.0053
3685.00,0.0053
3684.00,0.0053
3683.00,0.0052
3682.00,0.0052
3681.00,0.0052
3680.00,0.0051
3679.00,0.0051
3678.00,0.0051
3677.00,0.0051
3676.00,0.0050
3675.00,0.0050
3674.00,0.0050
3673.00,0.0050
3672.00,0.0050
3671.00,0.0050
3670.00,0.0050
3669.00,0.0049
3668.00,0.0049
3667.00,0.0049
3666.00,0.0049
3665.00,0.0049
3664.00,0.0048
3663.00,0.0048
3662.00,0.0048
3661.00,0.0048
3660.00,0.0048
3659.00,0.0048
3658.00,0.0048
3657.00,0.0048
3656.00,0.0048
3655.00,0.0048
3654.00,0.0048
3653.00,0.0048
3652.00,0.0048
3651.00,0.0048
3650.00,0.0049
3649.00,0.0049
3648.00,0.0049
3647.00,0.0049
3646.00,0.0049
3645.00,0.0049
3644.00,0.0049
3643.00,0.0049
3642.00,0.0049
3641.00,0.0049
3640.00,0.0049
3639.00,0.0049
3638.00,0.0049
3637.00,0.0049
3636.00,0.0050
3635.00,0.0050
3634.00,0.0051
3633.00,0.0052
3632.00,0.0052
3631.00,0.0053
3630.00,0.0053
3629.00,0.0053
3628.00,0.0054
3627.00,0.0054
3626.00,0.0054
3625.00,0.0053
3624.00,0.0053
3623.00,0.0053
3622.00,0.0053
3621.00,0.0053
3620.00,0.0054
3619.00,0.0054
3618.00,0.0054
3617.00,0.0054
3616.00,0.0054
3615.00,0.0054
3614.00,0.0054
3613.00,0.0054
3612.00,0.0054
3611.00,0.0054
3610.00,0.0054
3609.00,0.0054
3608.00,0.0054
3607.00,0.0054
3606.00,0.0054
3605.00,0.0054
3604.00,0.0054
3603.00,0.0054
3602.00,0.0054
3601.00,0.0054
3600.00,0.0054
3599.00,0.0054
3598.00,0.0054
3597.00,0.0054
3596.00,0.0054
3595.00,0.0054
3594.00,0.0054
3593.00,0.0054
3592.00,0.0054
3591.00,0.0054
3590.00,0.0054
3589.00,0.0054
3588.00,0.0054
3587.00,0.0054
3586.00,0.0054
3585.00,0.0054
3584.00,0.0054
3583.00,0.0054
3582.00,0.0054
3581.00,0.0054
3580.00,0.0054
3579.00,0.0054
3578.00,0.0054
3577.00,0.0054
3576.00,0.0054
3575.00,0.0054
3574.00,0.0054
3573.00,0.0054
3572.00,0.0054
3571.00,0.0054
3570.00,0.0054
3569.00,0.0054
3568.00,0.0054
3567.00,0.0054
3566.00,0.0054
3565.00,0.0054
3564.00,0.0054
3563.00,0.0054
3562.00,0.0054
3561.00,0.0054
3560.00,0.0054
3559.00,0.0054
3558.00,0.0054
3557.00,0.0054
3556.00,0.0054
3555.00,0.0054
3554.00,0.0054
3553.00,0.0054
3552.00,0.0054
3551.00,0.0054
3550.00,0.0054
3549.00,0.0054
3548.00,0.0054
3547.00,0.0054
3546.00,0.0054
3545.00,0.0054
3544.00,0.0054
3543.00,0.0054
3542.00,0.0054
3541.00,0.0054
3540.00,0.0054
3539.00,0.0054
3538.00,0.0054
3537.00,0.0055
3536.00,0.0055
3535.00,0.0055
3534.00,0.0055
3533.00,0.0055
3532.00,0.0055
3531.00,0.0055
3530.00,0.0055
3529.00,0.0055
3528.00,0.0055
3527.00,0.0054
3526.00,0.0054
3525.00,0.0053
3524.00,0.0053
3523.00,0.0052
3522.00,0.0051
3521.00,0.0050
3520.00,0.0049
3519.00,0.0048
3518.00,0.0047
3517.00,0.0046
3516.00,0.0045
3515.00,0.0045
3514.00,0.0044
3513.00,0.0044
3512.00,0.0044
3511.00,0.0044
3510.00,0.0045
3509.00,0.0045
3508.00,0.0046
3507.00,0.0046
3506.00,0.0047
3505.00,0.0048
3504.00,0.0048
3503.00,0.0049
3502.00,0.0050
3501.00,0.0050
3500.00,0.0051
3499.00,0.0051
3498.00,0.0052
3497.00,0.0052
3496.00,0.0052
3495.00,0.0053
3494.00,0.0053
3493.00,0.0053
3492.00,0.0053
3491.00,0.0054
3490.00,0.0054
3489.00,0.0054
3488.00,0.0054
3487.00,0.0054
3486.00,0.0054
3485.00,0.0054
3484.00,0.0055
3483.00,0.0055
3482.00,0.0055
3481.00,0.0055
3480.00,0.0055
3479.00,0.0055
3478.00,0.0055
3477.00,0.0055
3476.00,0.0055
3475.00,0.0055
3474.00,0.0055
3473.00,0.0055
3472.00,0.0055
3471.00,0.0055
3470.00,0.0055
3469.00,0.0055
3468.00,0.0055
3467.00,0.0055
3466.00,0.0055
3465.00,0.0055
3464.00,0.0055
3463.00,0.0055
3462.00,0.0055
3461.00,0.0055
3460.00,0.0055
3459.00,0.0055
3458.00,0.0055
3457.00,0.0055
3456.00,0.0055
3455.00,0.0055
3454.00,0.0055
3453.00,0.0055
3452.00,0.0055
3451.00,0.0055
3450.00,0.0055
3449.00,0.0055
3448.00,0.0056
3447.00,0.0056
3446.00,0.0056
3445.00,0.0056
3444.00,0.0055
3443.00,0.0055
3442.00,0.0055
3441.00,0.0055
3440.00,0.0055
3439.00,0.0055
3438.00,0.0055
3437.00,0.0055
3436.00,0.0055
3435.00,0.0055
3434.00,0.0055
3433.00,0.0055
3432.00,0.0055
3431.00,0.0055
3430.00,0.0055
3429.00,0.0055
3428.00,0.0055
3427.00,0.0055
3426.00,0.0055
3425.00,0.0055
3424.00,0.0055
3423.00,0.0055
3422.00,0.0055
3421.00,0.0055
3420.00,0.0055
3419.00,0.0055
3418.00,0.0055
3417.00,0.0055
3416.00,0.0055
3415.00,0.0055
3414.00,0.0054
3413.00,0.0054
3412.00,0.0054
3411.00,0.0054
3410.00,0.0054
3409.00,0.0054
3408.00,0.0053
3407.00,0.0053
3406.00,0.0053
3405.00,0.0053
3404.00,0.0052
3403.00,0.0052
3402.00,0.0052
3401.00,0.0052
3400.00,0.0052
3399.00,0.0052
3398.00,0.0052
3397.00,0.0053
3396.00,0.0053
3395.00,0.0053
3394.00,0.0054
3393.00,0.0055
3392.00,0.0055
3391.00,0.0056
3390.00,0.0057
3389.00,0.0058
3388.00,0.0059
3387.00,0.0060
3386.00,0.0061
3385.00,0.0062
3384.00,0.0063
3383.00,0.0064
3382.00,0.0065
3381.00,0.0065
3380.00,0.0066
3379.00,0.0067
3378.00,0.0068
3377.00,0.0068
3376.00,0.0069
3375.00,0.0070
3374.00,0.0070
3373.00,0.0071
3372.00,0.0071
3371.00,0.0072
3370.00,0.0072
3369.00,0.0072
3368.00,0.0073
3367.00,0.0074
3366.00,0.0074
3365.00,0.0075
3364.00,0.0076
3363.00,0.0076
3362.00,0.0077
3361.00,0.0077
3360.00,0.0078
3359.00,0.0078
3358.00,0.0078
3357.00,0.0079
3356.00,0.0079
3355.00,0.0080
3354.00,0.0080
3353.00,0.0080
3352.00,0.0081
3351.00,0.0081
3350.00,0.0082
3349.00,0.0082
3348.00,0.0083
3347.00,0.0083
3346.00,0.0084
3345.00,0.0084
3344.00,0.0085
3343.00,0.0085
3342.00,0.0086
3341.00,0.0086
3340.00,0.0086
3339.00,0.0087
3338.00,0.0087
3337.00,0.0088
3336.00,0.0089
3335.00,0.0089
3334.00,0.0090
3333.00,0.0091
3332.00,0.0091
3331.00,0.0092
3330.00,0.0092
3329.00,0.0092
3328.00,0.0093
3327.00,0.0093
3326.00,0.0094
3325.00,0.0094
3324.00,0.0095
3323.00,0.0096
3322.00,0.0096
3321.00,0.0097
3320.00,0.0097
3319.00,0.0098
3318.00,0.0098
3317.00,0.0099
3316.00,0.0099
3315.00,0.0100
3314.00,0.0100
3313.00,0.0101
3312.00,0.0101
3311.00,0.0102
3310.00,0.0102
3309.00,0.0103
3308.00,0.0103
3307.00,0.0103
3306.00,0.0104
3305.00,0.0105
3304.00,0.0106
3303.00,0.0106
3302.00,0.0107
3301.00,0.0108
3300.00,0.0108
3299.00,0.0109
3298.00,0.0109
3297.00,0.0110
3296.00,0.0110
3295.00,0.0111
3294.00,0.0111
3293.00,0.0112
3292.00,0.0113
3291.00,0.0114
3290.00,0.0114
3289.00,0.0115
3288.00,0.0116
3287.00,0.0117
3286.00,0.0118
3285.00,0.0118
3284.00,0.0119
3283.00,0.0120
3282.00,0.0120
3281.00,0.0121
3280.00,0.0122
3279.00,0.0122
3278.00,0.0123
3277.00,0.0124
3276.00,0.0124
3275.00,0.0125
3274.00,0.0125
3273.00,0.0126
3272.00,0.0127
3271.00,0.0128
3270.00,0.0129
3269.00,0.0131
3268.00,0.0132
3267.00,0.0134
3266.00,0.0135
3265.00,0.0136
3264.00,0.0137
3263.00,0.0138
3262.00,0.0139
3261.00,0.0140
3260.00,0.0141
3259.00,0.0142
3258.00,0.0142
3257.00,0.0143
3256.00,0.0144
3255.00,0.0146
3254.00,0.0147
3253.00,0.0149
3252.00,0.0150
3251.00,0.0151
3250.00,0.0152
3249.00,0.0152
3248.00,0.0153
3247.00,0.0154
3246.00,0.0155
3245.00,0.0157
3244.00,0.0159
3243.00,0.0161
3242.00,0.0163
3241.00,0.0164
3240.00,0.0166
3239.00,0.0167
3238.00,0.0167
3237.00,0.0168
3236.00,0.0167
3235.00,0.0167
3234.00,0.0168
3233.00,0.0170
3232.00,0.0173
3231.00,0.0176
3230.00,0.0178
3229.00,0.0181
3228.00,0.0182
3227.00,0.0184
3226.00,0.0185
3225.00,0.0187
3224.00,0.0188
3223.00,0.0189
3222.00,0.0190
3221.00,0.0191
3220.00,0.0192
3219.00,0.0193
3218.00,0.0194
3217.00,0.0195
3216.00,0.0196
3215.00,0.0197
3214.00,0.0198
3213.00,0.0199
3212.00,0.0200
3211.00,0.0201
3210.00,0.0201
3209.00,0.0202
3208.00,0.0202
3207.00,0.0203
3206.00,0.0203
3205.00,0.0204
3204.00,0.0204
3203.00,0.0205
3202.00,0.0205
3201.00,0.0206
3200.00,0.0207
3199.00,0.0207
3198.00,0.0208
3197.00,0.0208
3196.00,0.0209
3195.00,0.0209
3194.00,0.0209
3193.00,0.0210
3192.00,0.0210
3191.00,0.0211
3190.00,0.0211
3189.00,0.0212
3188.00,0.0213
3187.00,0.0214
3186.00,0.0215
3185.00,0.0216
3184.00,0.0216
3183.00,0.0217
3182.00,0.0217
3181.00,0.0218
3180.00,0.0218
3179.00,0.0219
3178.00,0.0220
3177.00,0.0221
3176.00,0.0221
3175.00,0.0222
3174.00,0.0223
3173.00,0.0223
3172.00,0.0224
3171.00,0.0225
3170.00,0.0225
3169.00,0.0226
3168.00,0.0226
3167.00,0.0227
3166.00,0.0228
3165.00,0.0229
3164.00,0.0230
3163.00,0.0231
3162.00,0.0232
3161.00,0.0233
3160.00,0.0234
3159.00,0.0236
3158.00,0.0236
3157.00,0.0237
3156.00,0.0238
3155.00,0.0238
3154.00,0.0239
3153.00,0.0240
3152.00,0.0242
3151.00,0.0243
3150.00,0.0245
3149.00,0.0247
3148.00,0.0249
3147.00,0.0251
3146.00,0.0252
3145.00,0.0254
3144.00,0.0255
3143.00,0.0256
3142.00,0.0256
3141.00,0.0257
3140.00,0.0258
3139.00,0.0260
3138.00,0.0262
3137.00,0.0265
3136.00,0.0267
3135.00,0.0269
3134.00,0.0270
3133.00,0.0271
3132.00,0.0272
3131.00,0.0273
3130.00,0.0275
3129.00,0.0276
3128.00,0.0277
3127.00,0.0279
3126.00,0.0280
3125.00,0.0281
3124.00,0.0281
3123.00,0.0281
3122.00,0.0281
3121.00,0.0281
3120.00,0.0281
3119.00,0.0282
3118.00,0.0284
3117.00,0.0285
3116.00,0.0287
3115.00,0.0289
3114.00,0.0290
3113.00,0.0292
3112.00,0.0293
3111.00,0.0295
3110.00,0.0296
3109.00,0.0297
3108.00,0.0299
3107.00,0.0301
3106.00,0.0303
3105.00,0.0304
3104.00,0.0306
3103.00,0.0308
3102.00,0.0309
3101.00,0.0311
3100.00,0.0313
3099.00,0.0315
3098.00,0.0317
3097.00,0.0318
3096.00,0.0320
3095.00,0.0322
3094.00,0.0324
3093.00,0.0325
3092.00,0.0327
3091.00,0.0329
3090.00,0.0331
3089.00,0.0333
3088.00,0.0336
3087.00,0.0338
3086.00,0.0341
3085.00,0.0343
3084.00,0.0346
3083.00,0.0349
3082.00,0.0353
3081.00,0.0356
3080.00,0.0360
3079.00,0.0364
3078.00,0.0367
3077.00,0.0371
3076.00,0.0375
3075.00,0.0378
3074.00,0.0381
3073.00,0.0384
3072.00,0.0387
3071.00,0.0389
3070.00,0.0391
3069.00,0.0393
3068.00,0.0395
3067.00,0.0397
3066.00,0.0398
3065.00,0.0399
3064.00,0.0399
3063.00,0.0400
3062.00,0.0400
3061.00,0.0400
3060.00,0.0400
3059.00,0.0400
3058.00,0.0400
3057.00,0.0400
3056.00,0.0401
3055.00,0.0402
3054.00,0.0403
3053.00,0.0404
3052.00,0.0405
3051.00,0.0406
3050.00,0.0407
3049.00,0.0408
3048.00,0.0410
3047.00,0.0411
3046.00,0.0412
3045.00,0.0413
3044.00,0.0414
3043.00,0.0415
3042.00,0.0416
3041.00,0.0417
3040.00,0.0418
3039.00,0.0419
3038.00,0.0420
3037.00,0.0420
3036.00,0.0421
3035.00,0.0422
3034.00,0.0423
3033.00,0.0424
3032.00,0.0425
3031.00,0.0426
3030.00,0.0427
3029.00,0.0428
3028.00,0.0429
3027.00,0.0429
3026.00,0.0430
3025.00,0.0431
3024.00,0.0432
3023.00,0.0432
3022.00,0.0433
3021.00,0.0433
3020.00,0.0434
3019.00,0.0434
3018.00,0.0434
3017.00,0.0434
3016.00,0.0434
3015.00,0.0434
3014.00,0.0434
3013.00,0.0434
3012.00,0.0434
3011.00,0.0434
3010.00,0.0434
3009.00,0.0434
3008.00,0.0434
3007.00,0.0434
3006.00,0.0434
3005.00,0.0434
3004.00,0.0434
3003.00,0.0435
3002.00,0.0436
3001.00,0.0438
3000.00,0.0440
2999.00,0.0443
2998.00,0.0447
2997.00,0.0451
2996.00,0.0456
2995.00,0.0461
2994.00,0.0467
2993.00,0.0473
2992.00,0.0480
2991.00,0.0487
2990.00,0.0495
2989.00,0.0505
2988.00,0.0516
2987.00,0.0527
2986.00,0.0539
2985.00,0.0550
2984.00,0.0559
2983.00,0.0567
2982.00,0.0576
2981.00,0.0585
2980.00,0.0594
2979.00,0.0605
2978.00,0.0614
2977.00,0.0623
2976.00,0.0629
2975.00,0.0633
2974.00,0.0635
2973.00,0.0634
2972.00,0.0634
2971.00,0.0636
2970.00,0.0642
2969.00,0.0651
2968.00,0.0663
2967.00,0.0677
2966.00,0.0692
2965.00,0.0708
2964.00,0.0722
2963.00,0.0735
2962.00,0.0747
2961.00,0.0755
2960.00,0.0761
2959.00,0.0763
2958.00,0.0763
2957.00,0.0761
2956.00,0.0757
2955.00,0.0752
2954.00,0.0748
2953.00,0.0744
2952.00,0.0741
2951.00,0.0740
2950.00,0.0742
2949.00,0.0746
2948.00,0.0752
2947.00,0.0761
2946.00,0.0773
2945.00,0.0788
2944.00,0.0806
2943.00,0.0825
2942.00,0.0845
2941.00,0.0863
2940.00,0.0877
2939.00,0.0885
2938.00,0.0888
2937.00,0.0888
2936.00,0.0888
2935.00,0.0890
2934.00,0.0893
2933.00,0.0898
2932.00,0.0904
2931.00,0.0910
2930.00,0.0916
2929.00,0.0920
2928.00,0.0924
2927.00,0.0926
2926.00,0.0926
2925.00,0.0924
2924.00,0.0920
2923.00,0.0914
2922.00,0.0906
2921.00,0.0897
2920.00,0.0888
2919.00,0.0878
2918.00,0.0869
2917.00,0.0859
2916.00,0.0850
2915.00,0.0840
2914.00,0.0830
2913.00,0.0821
2912.00,0.0812
2911.00,0.0804
2910.00,0.0796
2909.00,0.0790
2908.00,0.0784
2907.00,0.0780
2906.00,0.0777
2905.00,0.0775
2904.00,0.0775
2903.00,0.0775
2902.00,0.0776
2901.00,0.0777
2900.00,0.0778
2899.00,0.0778
2898.00,0.0777
2897.00,0.0776
2896.00,0.0774
2895.00,0.0772
2894.00,0.0770
2893.00,0.0769
2892.00,0.0770
2891.00,0.0771
2890.00,0.0772
2889.00,0.0773
2888.00,0.0773
2887.00,0.0770
2886.00,0.0765
2885.00,0.0758
2884.00,0.0751
2883.00,0.0744
2882.00,0.0739
2881.00,0.0736
2880.00,0.0736
2879.00,0.0738
2878.00,0.0741
2877.00,0.0746
2876.00,0.0752
2875.00,0.0758
2874.00,0.0764
2873.00,0.0769
2872.00,0.0773
2871.00,0.0774
2870.00,0.0773
2869.00,0.0771
2868.00,0.0769
2867.00,0.0766
2866.00,0.0762
2865.00,0.0759
2864.00,0.0755
2863.00,0.0751
2862.00,0.0746
2861.00,0.0741
2860.00,0.0736
2859.00,0.0731
2858.00,0.0726
2857.00,0.0721
2856.00,0.0717
2855.00,0.0713
2854.00,0.0709
2853.00,0.0705
2852.00,0.0702
2851.00,0.0698
2850.00,0.0695
2849.00,0.0690
2848.00,0.0684
2847.00,0.0678
2846.00,0.0670
2845.00,0.0661
2844.00,0.0653
2843.00,0.0646
2842.00,0.0641
2841.00,0.0639
2840.00,0.0639
2839.00,0.0642
2838.00,0.0647
2837.00,0.0654
2836.00,0.0661
2835.00,0.0667
2834.00,0.0671
2833.00,0.0673
2832.00,0.0671
2831.00,0.0667
2830.00,0.0660
2829.00,0.0651
2828.00,0.0640
2827.00,0.0629
2826.00,0.0617
2825.00,0.0605
2824.00,0.0594
2823.00,0.0584
2822.00,0.0575
2821.00,0.0567
2820.00,0.0560
2819.00,0.0554
2818.00,0.0548
2817.00,0.0542
2816.00,0.0537
2815.00,0.0532
2814.00,0.0528
2813.00,0.0524
2812.00,0.0520
2811.00,0.0516
2810.00,0.0512
2809.00,0.0509
2808.00,0.0506
2807.00,0.0503
2806.00,0.0500
2805.00,0.0497
2804.00,0.0494
2803.00,0.0492
2802.00,0.0489
2801.00,0.0486
2800.00,0.0483
2799.00,0.0480
2798.00,0.0478
2797.00,0.0475
2796.00,0.0473
2795.00,0.0470
2794.00,0.0467
2793.00,0.0464
2792.00,0.0462
2791.00,0.0459
2790.00,0.0456
2789.00,0.0453
2788.00,0.0451
2787.00,0.0448
2786.00,0.0445
2785.00,0.0442
2784.00,0.0439
2783.00,0.0437
2782.00,0.0434
2781.00,0.0431
2780.00,0.0429
2779.00,0.0426
2778.00,0.0423
2777.00,0.0421
2776.00,0.0419
2775.00,0.0417
2774.00,0.0414
2773.00,0.0413
2772.00,0.0411
2771.00,0.0409
2770.00,0.0407
2769.00,0.0406
2768.00,0.0404
2767.00,0.0403
2766.00,0.0401
2765.00,0.0400
2764.00,0.0399
2763.00,0.0398
2762.00,0.0397
2761.00,0.0396
2760.00,0.0395
2759.00,0.0395
2758.00,0.0394
2757.00,0.0394
2756.00,0.0393
2755.00,0.0393
2754.00,0.0392
2753.00,0.0392
2752.00,0.0391
2751.00,0.0391
2750.00,0.0390
2749.00,0.0390
2748.00,0.0390
2747.00,0.0390
2746.00,0.0389
2745.00,0.0389
2744.00,0.0389
2743.00,0.0388
2742.00,0.0388
2741.00,0.0387
2740.00,0.0387
2739.00,0.0386
2738.00,0.0386
2737.00,0.0385
2736.00,0.0385
2735.00,0.0385
2734.00,0.0384
2733.00,0.0384
2732.00,0.0384
2731.00,0.0384
2730.00,0.0384
2729.00,0.0384
2728.00,0.0384
2727.00,0.0384
2726.00,0.0384
2725.00,0.0383
2724.00,0.0383
2723.00,0.0381
2722.00,0.0380
2721.00,0.0378
2720.00,0.0376
2719.00,0.0374
2718.00,0.0372
2717.00,0.0370
2716.00,0.0369
2715.00,0.0367
2714.00,0.0366
2713.00,0.0365
2712.00,0.0364
2711.00,0.0364
2710.00,0.0363
2709.00,0.0363
2708.00,0.0363
2707.00,0.0362
2706.00,0.0362
2705.00,0.0361
2704.00,0.0361
2703.00,0.0360
2702.00,0.0360
2701.00,0.0360
2700.00,0.0359
2699.00,0.0359
2698.00,0.0359
2697.00,0.0359
2696.00,0.0359
2695.00,0.0359
2694.00,0.0359
2693.00,0.0360
2692.00,0.0360
2691.00,0.0361
2690.00,0.0361
2689.00,0.0362
2688.00,0.0362
2687.00,0.0363
2686.00,0.0363
2685.00,0.0364
2684.00,0.0364
2683.00,0.0364
2682.00,0.0364
2681.00,0.0364
2680.00,0.0364
2679.00,0.0363
2678.00,0.0363
2677.00,0.0362
2676.00,0.0362
2675.00,0.0361
2674.00,0.0360
2673.00,0.0360
2672.00,0.0359
2671.00,0.0358
2670.00,0.0358
2669.00,0.0357
2668.00,0.0357
2667.00,0.0357
2666.00,0.0357
2665.00,0.0357
2664.00,0.0357
2663.00,0.0357
2662.00,0.0356
2661.00,0.0356
2660.00,0.0356
2659.00,0.0355
2658.00,0.0355
2657.00,0.0355
2656.00,0.0354
2655.00,0.0354
2654.00,0.0354
2653.00,0.0354
2652.00,0.0353
2651.00,0.0353
2650.00,0.0353
2649.00,0.0353
2648.00,0.0352
2647.00,0.0352
2646.00,0.0351
2645.00,0.0351
2644.00,0.0350
2643.00,0.0350
2642.00,0.0349
2641.00,0.0348
2640.00,0.0347
2639.00,0.0347
2638.00,0.0346
2637.00,0.0345
2636.00,0.0344
2635.00,0.0344
2634.00,0.0343
2633.00,0.0342
2632.00,0.0342
2631.00,0.0341
2630.00,0.0340
2629.00,0.0340
2628.00,0.0339
2627.00,0.0339
2626.00,0.0339
2625.00,0.0338
2624.00,0.0338
2623.00,0.0337
2622.00,0.0337
2621.00,0.0337
2620.00,0.0337
2619.00,0.0337
2618.00,0.0337
2617.00,0.0337
2616.00,0.0337
2615.00,0.0337
2614.00,0.0337
2613.00,0.0337
2612.00,0.0336
2611.00,0.0336
2610.00,0.0336
2609.00,0.0336
2608.00,0.0335
2607.00,0.0335
2606.00,0.0335
2605.00,0.0334
2604.00,0.0334
2603.00,0.0333
2602.00,0.0333
2601.00,0.0333
2600.00,0.0333
2599.00,0.0333
2598.00,0.0333
2597.00,0.0334
2596.00,0.0334
2595.00,0.0334
2594.00,0.0335
2593.00,0.0336
2592.00,0.0337
2591.00,0.0338
2590.00,0.0339
2589.00,0.0341
2588.00,0.0343
2587.00,0.0344
2586.00,0.0346
2585.00,0.0348
2584.00,0.0350
2583.00,0.0351
2582.00,0.0353
2581.00,0.0355
2580.00,0.0356
2579.00,0.0357
2578.00,0.0358
2577.00,0.0359
2576.00,0.0360
2575.00,0.0360
2574.00,0.0360
2573.00,0.0360
2572.00,0.0360
2571.00,0.0360
2570.00,0.0360
2569.00,0.0360
2568.00,0.0359
2567.00,0.0359
2566.00,0.0358
2565.00,0.0357
2564.00,0.0357
2563.00,0.0356
2562.00,0.0356
2561.00,0.0355
2560.00,0.0355
2559.00,0.0355
2558.00,0.0355
2557.00,0.0354
2556.00,0.0354
2555.00,0.0353
2554.00,0.0353
2553.00,0.0352
2552.00,0.0352
2551.00,0.0352
2550.00,0.0351
2549.00,0.0351
2548.00,0.0351
2547.00,0.0351
2546.00,0.0350
2545.00,0.0350
2544.00,0.0349
2543.00,0.0349
2542.00,0.0348
2541.00,0.0347
2540.00,0.0346
2539.00,0.0346
2538.00,0.0345
2537.00,0.0344
2536.00,0.0343
2535.00,0.0342
2534.00,0.0341
2533.00,0.0340
2532.00,0.0339
2531.00,0.0338
2530.00,0.0337
2529.00,0.0337
2528.00,0.0336
2527.00,0.0335
2526.00,0.0335
2525.00,0.0334
2524.00,0.0334
2523.00,0.0334
2522.00,0.0334
2521.00,0.0334
2520.00,0.0334
2519.00,0.0333
2518.00,0.0333
2517.00,0.0333
2516.00,0.0332
2515.00,0.0331
2514.00,0.0330
2513.00,0.0328
2512.00,0.0326
2511.00,0.0324
2510.00,0.0322
2509.00,0.0319
2508.00,0.0317
2507.00,0.0314
2506.00,0.0311
2505.00,0.0308
2504.00,0.0305
2503.00,0.0302
2502.00,0.0299
2501.00,0.0296
2500.00,0.0293
2499.00,0.0290
2498.00,0.0287
2497.00,0.0284
2496.00,0.0281
2495.00,0.0279
2494.00,0.0276
2493.00,0.0274
2492.00,0.0272
2491.00,0.0269
2490.00,0.0267
2489.00,0.0265
2488.00,0.0263
2487.00,0.0260
2486.00,0.0258
2485.00,0.0256
2484.00,0.0254
2483.00,0.0252
2482.00,0.0250
2481.00,0.0248
2480.00,0.0247
2479.00,0.0245
2478.00,0.0243
2477.00,0.0242
2476.00,0.0240
2475.00,0.0238
2474.00,0.0237
2473.00,0.0236
2472.00,0.0235
2471.00,0.0233
2470.00,0.0232
2469.00,0.0230
2468.00,0.0229
2467.00,0.0228
2466.00,0.0226
2465.00,0.0226
2464.00,0.0225
2463.00,0.0224
2462.00,0.0223
2461.00,0.0222
2460.00,0.0221
2459.00,0.0220
2458.00,0.0219
2457.00,0.0218
2456.00,0.0217
2455.00,0.0217
2454.00,0.0216
2453.00,0.0215
2452.00,0.0214
2451.00,0.0212
2450.00,0.0211
2449.00,0.0210
2448.00,0.0209
2447.00,0.0208
2446.00,0.0207
2445.00,0.0206
2444.00,0.0205
2443.00,0.0204
2442.00,0.0202
2441.00,0.0201
2440.00,0.0200
2439.00,0.0199
2438.00,0.0198
2437.00,0.0196
2436.00,0.0195
2435.00,0.0194
2434.00,0.0193
2433.00,0.0192
2432.00,0.0191
2431.00,0.0190
2430.00,0.0189
2429.00,0.0188
2428.00,0.0187
2427.00,0.0186
2426.00,0.0185
2425.00,0.0184
2424.00,0.0183
2423.00,0.0183
2422.00,0.0182
2421.00,0.0181
2420.00,0.0180
2419.00,0.0179
2418.00,0.0178
2417.00,0.0177
2416.00,0.0176
2415.00,0.0175
2414.00,0.0174
2413.00,0.0173
2412.00,0.0172
2411.00,0.0171
2410.00,0.0170
2409.00,0.0169
2408.00,0.0168
2407.00,0.0167
2406.00,0.0167
2405.00,0.0166
2404.00,0.0165
2403.00,0.0164
2402.00,0.0164
2401.00,0.0163
2400.00,0.0162
2399.00,0.0162
2398.00,0.0161
2397.00,0.0161
2396.00,0.0160
2395.00,0.0159
2394.00,0.0159
2393.00,0.0158
2392.00,0.0157
2391.00,0.0157
2390.00,0.0156
2389.00,0.0155
2388.00,0.0155
2387.00,0.0154
2386.00,0.0154
2385.00,0.0153
2384.00,0.0152
2383.00,0.0152
2382.00,0.0152
2381.00,0.0151
2380.00,0.0151
2379.00,0.0150
2378.00,0.0150
2377.00,0.0149
2376.00,0.0148
2375.00,0.0148
2374.00,0.0147
2373.00,0.0147
2372.00,0.0146
2371.00,0.0146
2370.00,0.0146
2369.00,0.0145
2368.00,0.0145
2367.00,0.0145
2366.00,0.0144
2365.00,0.0144
2364.00,0.0143
2363.00,0.0143
2362.00,0.0142
2361.00,0.0142
2360.00,0.0141
2359.00,0.0141
2358.00,0.0141
2357.00,0.0141
2356.00,0.0141
2355.00,0.0140
2354.00,0.0139
2353.00,0.0138
2352.00,0.0138
2351.00,0.0138
2350.00,0.0137
2349.00,0.0137
2348.00,0.0137
2347.00,0.0136
2346.00,0.0135
2345.00,0.0134
2344.00,0.0134
2343.00,0.0134
2342.00,0.0133
2341.00,0.0133
2340.00,0.0133
2339.00,0.0133
2338.00,0.0133
2337.00,0.0133
2336.00,0.0132
2335.00,0.0132
2334.00,0.0132
2333.00,0.0131
2332.00,0.0130
2331.00,0.0130
2330.00,0.0129
2329.00,0.0130
2328.00,0.0130
2327.00,0.0130
2326.00,0.0130
2325.00,0.0129
2324.00,0.0128
2323.00,0.0127
2322.00,0.0126
2321.00,0.0126
2320.00,0.0126
2319.00,0.0125
2318.00,0.0125
2317.00,0.0125
2316.00,0.0125
2315.00,0.0124
2314.00,0.0124
2313.00,0.0123
2312.00,0.0123
2311.00,0.0123
2310.00,0.0122
2309.00,0.0122
2308.00,0.0122
2307.00,0.0121
2306.00,0.0121
2305.00,0.0121
2304.00,0.0120
2303.00,0.0119
2302.00,0.0119
2301.00,0.0118
2300.00,0.0118
2299.00,0.0118
2298.00,0.0117
2297.00,0.0117
2296.00,0.0117
2295.00,0.0117
2294.00,0.0116
2293.00,0.0116
2292.00,0.0116
2291.00,0.0115
2290.00,0.0115
2289.00,0.0114
2288.00,0.0114
2287.00,0.0114
2286.00,0.0113
2285.00,0.0113
2284.00,0.0113
2283.00,0.0112
2282.00,0.0112
2281.00,0.0112
2280.00,0.0112
2279.00,0.0111
2278.00,0.0111
2277.00,0.0111
2276.00,0.0110
2275.00,0.0110
2274.00,0.0109
2273.00,0.0108
2272.00,0.0107
2271.00,0.0106
2270.00,0.0105
2269.00,0.0104
2268.00,0.0103
2267.00,0.0102
2266.00,0.0102
2265.00,0.0101
2264.00,0.0101
2263.00,0.0100
2262.00,0.0100
2261.00,0.0099
2260.00,0.0099
2259.00,0.0099
2258.00,0.0098
2257.00,0.0097
2256.00,0.0097
2255.00,0.0096
2254.00,0.0096
2253.00,0.0096
2252.00,0.0097
2251.00,0.0096
2250.00,0.0096
2249.00,0.0096
2248.00,0.0095
2247.00,0.0095
2246.00,0.0094
2245.00,0.0094
2244.00,0.0094
2243.00,0.0093
2242.00,0.0093
2241.00,0.0092
2240.00,0.0092
2239.00,0.0092
2238.00,0.0092
2237.00,0.0092
2236.00,0.0091
2235.00,0.0091
2234.00,0.0090
2233.00,0.0090
2232.00,0.0090
2231.00,0.0090
2230.00,0.0090
2229.00,0.0091
2228.00,0.0091
2227.00,0.0091
2226.00,0.0091
2225.00,0.0091
2224.00,0.0091
2223.00,0.0091
2222.00,0.0090
2221.00,0.0090
2220.00,0.0090
2219.00,0.0090
2218.00,0.0090
2217.00,0.0089
2216.00,0.0090
2215.00,0.0089
2214.00,0.0089
2213.00,0.0089
2212.00,0.0089
2211.00,0.0089
2210.00,0.0089
2209.00,0.0090
2208.00,0.0090
2207.00,0.0091
2206.00,0.0091
2205.00,0.0091
2204.00,0.0091
2203.00,0.0090
2202.00,0.0090
2201.00,0.0090
2200.00,0.0090
2199.00,0.0089
2198.00,0.0089
2197.00,0.0089
2196.00,0.0090
2195.00,0.0090
2194.00,0.0089
2193.00,0.0089
2192.00,0.0089
2191.00,0.0089
2190.00,0.0089
2189.00,0.0089
2188.00,0.0089
2187.00,0.0089
2186.00,0.0089
2185.00,0.0089
2184.00,0.0088
2183.00,0.0088
2182.00,0.0088
2181.00,0.0088
2180.00,0.0089
2179.00,0.0088
2178.00,0.0087
2177.00,0.0086
2176.00,0.0085
2175.00,0.0085
2174.00,0.0085
2173.00,0.0086
2172.00,0.0087
2171.00,0.0087
2170.00,0.0087
2169.00,0.0087
2168.00,0.0087
2167.00,0.0086
2166.00,0.0086
2165.00,0.0086
2164.00,0.0086
2163.00,0.0085
2162.00,0.0081
2161.00,0.0077
2160.00,0.0073
2159.00,0.0072
2158.00,0.0072
2157.00,0.0073
2156.00,0.0074
2155.00,0.0074
2154.00,0.0074
2153.00,0.0074
2152.00,0.0074
2151.00,0.0074
2150.00,0.0075
2149.00,0.0076
2148.00,0.0076
2147.00,0.0077
2146.00,0.0077
2145.00,0.0077
2144.00,0.0078
2143.00,0.0078
2142.00,0.0078
2141.00,0.0079
2140.00,0.0079
2139.00,0.0079
2138.00,0.0079
2137.00,0.0078
2136.00,0.0078
2135.00,0.0079
2134.00,0.0079
2133.00,0.0080
2132.00,0.0080
2131.00,0.0080
2130.00,0.0080
2129.00,0.0081
2128.00,0.0081
2127.00,0.0081
2126.00,0.0081
2125.00,0.0081
2124.00,0.0081
2123.00,0.0082
2122.00,0.0082
2121.00,0.0082
2120.00,0.0083
2119.00,0.0083
2118.00,0.0083
2117.00,0.0084
2116.00,0.0084
2115.00,0.0083
2114.00,0.0083
2113.00,0.0082
2112.00,0.0081
2111.00,0.0081
2110.00,0.0081
2109.00,0.0081
2108.00,0.0081
2107.00,0.0081
2106.00,0.0081
2105.00,0.0081
2104.00,0.0081
2103.00,0.0080
2102.00,0.0080
2101.00,0.0081
2100.00,0.0081
2099.00,0.0081
2098.00,0.0081
2097.00,0.0081
2096.00,0.0081
2095.00,0.0080
2094.00,0.0080
2093.00,0.0080
2092.00,0.0080
2091.00,0.0080
2090.00,0.0079
2089.00,0.0079
2088.00,0.0080
2087.00,0.0079
2086.00,0.0079
2085.00,0.0078
2084.00,0.0078
2083.00,0.0077
2082.00,0.0076
2081.00,0.0076
2080.00,0.0076
2079.00,0.0075
2078.00,0.0075
2077.00,0.0075
2076.00,0.0075
2075.00,0.0075
2074.00,0.0075
2073.00,0.0075
2072.00,0.0075
2071.00,0.0075
2070.00,0.0075
2069.00,0.0075
2068.00,0.0075
2067.00,0.0075
2066.00,0.0075
2065.00,0.0075
2064.00,0.0075
2063.00,0.0075
2062.00,0.0075
2061.00,0.0076
2060.00,0.0076
2059.00,0.0076
2058.00,0.0076
2057.00,0.0076
2056.00,0.0076
2055.00,0.0076
2054.00,0.0077
2053.00,0.0078
2052.00,0.0078
2051.00,0.0077
2050.00,0.0076
2049.00,0.0076
2048.00,0.0077
2047.00,0.0078
2046.00,0.0078
2045.00,0.0079
2044.00,0.0079
2043.00,0.0080
2042.00,0.0079
2041.00,0.0078
2040.00,0.0078
2039.00,0.0076
2038.00,0.0075
2037.00,0.0075
2036.00,0.0075
2035.00,0.0075
2034.00,0.0075
2033.00,0.0076
2032.00,0.0076
2031.00,0.0076
2030.00,0.0075
2029.00,0.0075
2028.00,0.0075
2027.00,0.0074
2026.00,0.0073
2025.00,0.0073
2024.00,0.0073
2023.00,0.0073
2022.00,0.0072
2021.00,0.0071
2020.00,0.0071
2019.00,0.0070
2018.00,0.0068
2017.00,0.0068
2016.00,0.0068
2015.00,0.0068
2014.00,0.0067
2013.00,0.0066
2012.00,0.0065
2011.00,0.0064
2010.00,0.0063
2009.00,0.0063
2008.00,0.0065
2007.00,0.0066
2006.00,0.0066
2005.00,0.0066
2004.00,0.0066
2003.00,0.0066
2002.00,0.0067
2001.00,0.0067
2000.00,0.0068
1999.00,0.0068
1998.00,0.0068
1997.00,0.0069
1996.00,0.0070
1995.00,0.0071
1994.00,0.0070
1993.00,0.0070
1992.00,0.0070
1991.00,0.0069
1990.00,0.0069
1989.00,0.0070
1988.00,0.0070
1987.00,0.0070
1986.00,0.0069
1985.00,0.0070
1984.00,0.0071
1983.00,0.0072
1982.00,0.0072
1981.00,0.0072
1980.00,0.0072
1979.00,0.0071
1978.00,0.0069
1977.00,0.0069
1976.00,0.0069
1975.00,0.0070
1974.00,0.0070
1973.00,0.0070
1972.00,0.0070
1971.00,0.0070
1970.00,0.0069
1969.00,0.0069
1968.00,0.0069
1967.00,0.0069
1966.00,0.0068
1965.00,0.0069
1964.00,0.0069
1963.00,0.0069
1962.00,0.0069
1961.00,0.0068
1960.00,0.0068
1959.00,0.0068
1958.00,0.0068
1957.00,0.0068
1956.00,0.0069
1955.00,0.0068
1954.00,0.0068
1953.00,0.0067
1952.00,0.0068
1951.00,0.0068
1950.00,0.0068
1949.00,0.0069
1948.00,0.0069
1947.00,0.0069
1946.00,0.0068
1945.00,0.0069
1944.00,0.0069
1943.00,0.0069
1942.00,0.0069
1941.00,0.0070
1940.00,0.0070
1939.00,0.0070
1938.00,0.0071
1937.00,0.0072
1936.00,0.0072
1935.00,0.0072
1934.00,0.0072
1933.00,0.0072
1932.00,0.0073
1931.00,0.0073
1930.00,0.0074
1929.00,0.0074
1928.00,0.0074
1927.00,0.0074
1926.00,0.0074
1925.00,0.0075
1924.00,0.0075
1923.00,0.0075
1922.00,0.0075
1921.00,0.0075
1920.00,0.0076
1919.00,0.0075
1918.00,0.0075
1917.00,0.0075
1916.00,0.0076
1915.00,0.0076
1914.00,0.0077
1913.00,0.0077
1912.00,0.0078
1911.00,0.0078
1910.00,0.0079
1909.00,0.0079
1908.00,0.0079
1907.00,0.0079
1906.00,0.0078
1905.00,0.0078
1904.00,0.0079
1903.00,0.0078
1902.00,0.0078
1901.00,0.0078
1900.00,0.0079
1899.00,0.0079
1898.00,0.0079
1897.00,0.0079
1896.00,0.0080
1895.00,0.0079
1894.00,0.0079
1893.00,0.0079
1892.00,0.0079
1891.00,0.0079
1890.00,0.0079
1889.00,0.0079
1888.00,0.0079
1887.00,0.0079
1886.00,0.0079
1885.00,0.0079
1884.00,0.0079
1883.00,0.0080
1882.00,0.0080
1881.00,0.0080
1880.00,0.0080
1879.00,0.0080
1878.00,0.0080
1877.00,0.0080
1876.00,0.0080
1875.00,0.0080
1874.00,0.0080
1873.00,0.0081
1872.00,0.0081
1871.00,0.0081
1870.00,0.0082
1869.00,0.0082
1868.00,0.0082
1867.00,0.0082
1866.00,0.0083
1865.00,0.0083
1864.00,0.0084
1863.00,0.0084
1862.00,0.0084
1861.00,0.0084
1860.00,0.0085
1859.00,0.0085
1858.00,0.0085
1857.00,0.0085
1856.00,0.0085
1855.00,0.0085
1854.00,0.0085
1853.00,0.0085
1852.00,0.0085
1851.00,0.0085
1850.00,0.0085
1849.00,0.0086
1848.00,0.0086
1847.00,0.0086
1846.00,0.0086
1845.00,0.0086
1844.00,0.0087
1843.00,0.0087
1842.00,0.0086
1841.00,0.0087
1840.00,0.0087
1839.00,0.0087
1838.00,0.0087
1837.00,0.0087
1836.00,0.0087
1835.00,0.0087
1834.00,0.0087
1833.00,0.0087
1832.00,0.0087
1831.00,0.0087
1830.00,0.0086
1829.00,0.0086
1828.00,0.0086
1827.00,0.0086
1826.00,0.0086
1825.00,0.0087
1824.00,0.0086
1823.00,0.0086
1822.00,0.0086
1821.00,0.0085
1820.00,0.0085
1819.00,0.0085
1818.00,0.0085
1817.00,0.0085
1816.00,0.0085
1815.00,0.0085
1814.00,0.0085
1813.00,0.0085
1812.00,0.0086
1811.00,0.0086
1810.00,0.0087
1809.00,0.0087
1808.00,0.0088
1807.00,0.0088
1806.00,0.0088
1805.00,0.0089
1804.00,0.0089
1803.00,0.0090
1802.00,0.0090
1801.00,0.0090
1800.00,0.0090
1799.00,0.0090
1798.00,0.0090
1797.00,0.0090
1796.00,0.0091
1795.00,0.0091
1794.00,0.0091
1793.00,0.0091
1792.00,0.0091
1791.00,0.0091
1790.00,0.0091
1789.00,0.0091
1788.00,0.0091
1787.00,0.0091
1786.00,0.0091
1785.00,0.0092
1784.00,0.0092
1783.00,0.0092
1782.00,0.0092
1781.00,0.0092
1780.00,0.0092
1779.00,0.0092
1778.00,0.0092
1777.00,0.0092
1776.00,0.0092
1775.00,0.0092
1774.00,0.0092
1773.00,0.0092
1772.00,0.0093
1771.00,0.0093
1770.00,0.0094
1769.00,0.0095
1768.00,0.0095
1767.00,0.0095
1766.00,0.0094
1765.00,0.0094
1764.00,0.0095
1763.00,0.0095
1762.00,0.0095
1761.00,0.0095
1760.00,0.0095
1759.00,0.0095
1758.00,0.0095
1757.00,0.0095
1756.00,0.0095
1755.00,0.0095
1754.00,0.0096
1753.00,0.0096
1752.00,0.0097
1751.00,0.0097
1750.00,0.0097
1749.00,0.0097
1748.00,0.0097
1747.00,0.0097
1746.00,0.0097
1745.00,0.0097
1744.00,0.0097
1743.00,0.0097
1742.00,0.0097
1741.00,0.0097
1740.00,0.0097
1739.00,0.0097
1738.00,0.0097
1737.00,0.0097
1736.00,0.0098
1735.00,0.0098
1734.00,0.0098
1733.00,0.0098
1732.00,0.0098
1731.00,0.0098
1730.00,0.0098
1729.00,0.0098
1728.00,0.0098
1727.00,0.0098
1726.00,0.0098
1725.00,0.0098
1724.00,0.0098
1723.00,0.0097
1722.00,0.0097
1721.00,0.0097
1720.00,0.0097
1719.00,0.0097
1718.00,0.0097
1717.00,0.0097
1716.00,0.0097
1715.00,0.0097
1714.00,0.0097
1713.00,0.0097
1712.00,0.0098
1711.00,0.0099
1710.00,0.0099
1709.00,0.0100
1708.00,0.0101
1707.00,0.0103
1706.00,0.0104
1705.00,0.0105
1704.00,0.0107
1703.00,0.0107
1702.00,0.0108
1701.00,0.0109
1700.00,0.0111
1699.00,0.0113
1698.00,0.0114
1697.00,0.0116
1696.00,0.0118
1695.00,0.0118
1694.00,0.0119
1693.00,0.0120
1692.00,0.0122
1691.00,0.0123
1690.00,0.0124
1689.00,0.0125
1688.00,0.0126
1687.00,0.0127
1686.00,0.0128
1685.00,0.0130
1684.00,0.0132
1683.00,0.0135
1682.00,0.0136
1681.00,0.0138
1680.00,0.0141
1679.00,0.0142
1678.00,0.0144
1677.00,0.0147
1676.00,0.0151
1675.00,0.0156
1674.00,0.0161
1673.00,0.0166
1672.00,0.0173
1671.00,0.0180
1670.00,0.0188
1669.00,0.0198
1668.00,0.0206
1667.00,0.0211
1666.00,0.0214
1665.00,0.0216
1664.00,0.0217
1663.00,0.0218
1662.00,0.0218
1661.00,0.0219
1660.00,0.0221
1659.00,0.0224
1658.00,0.0226
1657.00,0.0228
1656.00,0.0231
1655.00,0.0235
1654.00,0.0241
1653.00,0.0251
1652.00,0.0261
1651.00,0.0266
1650.00,0.0269
1649.00,0.0274
1648.00,0.0283
1647.00,0.0295
1646.00,0.0310
1645.00,0.0326
1644.00,0.0342
1643.00,0.0360
1642.00,0.0379
1641.00,0.0402
1640.00,0.0427
1639.00,0.0452
1638.00,0.0479
1637.00,0.0516
1636.00,0.0568
1635.00,0.0627
1634.00,0.0683
1633.00,0.0735
1632.00,0.0788
1631.00,0.0845
1630.00,0.0911
1629.00,0.0988
1628.00,0.1073
1627.00,0.1159
1626.00,0.1242
1625.00,0.1330
1624.00,0.1433
1623.00,0.1546
1622.00,0.1655
1621.00,0.1750
1620.00,0.1836
1619.00,0.1922
1618.00,0.2025
1617.00,0.2153
1616.00,0.2286
1615.00,0.2392
1614.00,0.2461
1613.00,0.2505
1612.00,0.2532
1611.00,0.2539
1610.00,0.2518
1609.00,0.2471
1608.00,0.2405
1607.00,0.2325
1606.00,0.2232
1605.00,0.2135
1604.00,0.2038
1603.00,0.1944
1602.00,0.1853
1601.00,0.1766
1600.00,0.1687
1599.00,0.1614
1598.00,0.1546
1597.00,0.1483
1596.00,0.1424
1595.00,0.1369
1594.00,0.1316
1593.00,0.1264
1592.00,0.1215
1591.00,0.1167
1590.00,0.1120
1589.00,0.1075
1588.00,0.1033
1587.00,0.0993
1586.00,0.0956
1585.00,0.0921
1584.00,0.0890
1583.00,0.0864
1582.00,0.0842
1581.00,0.0826
1580.00,0.0814
1579.00,0.0807
1578.00,0.0807
1577.00,0.0822
1576.00,0.0853
1575.00,0.0894
1574.00,0.0936
1573.00,0.0983
1572.00,0.1040
1571.00,0.1118
1570.00,0.1218
1569.00,0.1324
1568.00,0.1411
1567.00,0.1467
1566.00,0.1490
1565.00,0.1484
1564.00,0.1448
1563.00,0.1387
1562.00,0.1307
1561.00,0.1209
1560.00,0.1089
1559.00,0.0955
1558.00,0.0841
1557.00,0.0762
1556.00,0.0705
1555.00,0.0656
1554.00,0.0611
1553.00,0.0573
1552.00,0.0543
1551.00,0.0518
1550.00,0.0496
1549.00,0.0475
1548.00,0.0458
1547.00,0.0443
1546.00,0.0430
1545.00,0.0418
1544.00,0.0406
1543.00,0.0396
1542.00,0.0388
1541.00,0.0380
1540.00,0.0375
1539.00,0.0371
1538.00,0.0367
1537.00,0.0362
1536.00,0.0357
1535.00,0.0354
1534.00,0.0352
1533.00,0.0350
1532.00,0.0349
1531.00,0.0348
1530.00,0.0347
1529.00,0.0346
1528.00,0.0347
1527.00,0.0348
1526.00,0.0350
1525.00,0.0351
1524.00,0.0353
1523.00,0.0355
1522.00,0.0360
1521.00,0.0365
1520.00,0.0370
1519.00,0.0373
1518.00,0.0377
1517.00,0.0382
1516.00,0.0388
1515.00,0.0394
1514.00,0.0399
1513.00,0.0405
1512.00,0.0411
1511.00,0.0417
1510.00,0.0422
1509.00,0.0428
1508.00,0.0435
1507.00,0.0445
1506.00,0.0456
1505.00,0.0465
1504.00,0.0470
1503.00,0.0473
1502.00,0.0477
1501.00,0.0482
1500.00,0.0488
1499.00,0.0494
1498.00,0.0501
1497.00,0.0508
1496.00,0.0515
1495.00,0.0520
1494.00,0.0521
1493.00,0.0521
1492.00,0.0520
1491.00,0.0518
1490.00,0.0515
1489.00,0.0510
1488.00,0.0502
1487.00,0.0491
1486.00,0.0480
1485.00,0.0468
1484.00,0.0458
1483.00,0.0448
1482.00,0.0442
1481.00,0.0439
1480.00,0.0439
1479.00,0.0443
1478.00,0.0453
1477.00,0.0469
1476.00,0.0492
1475.00,0.0521
1474.00,0.0560
1473.00,0.0613
1472.00,0.0673
1471.00,0.0729
1470.00,0.0775
1469.00,0.0814
1468.00,0.0849
1467.00,0.0882
1466.00,0.0913
1465.00,0.0942
1464.00,0.0965
1463.00,0.0978
1462.00,0.0984
1461.00,0.0983
1460.00,0.0978
1459.00,0.0972
1458.00,0.0972
1457.00,0.0982
1456.00,0.0998
1455.00,0.1014
1454.00,0.1026
1453.00,0.1036
1452.00,0.1044
1451.00,0.1049
1450.00,0.1053
1449.00,0.1059
1448.00,0.1068
1447.00,0.1078
1446.00,0.1084
1445.00,0.1086
1444.00,0.1083
1443.00,0.1075
1442.00,0.1064
1441.00,0.1048
1440.00,0.1027
1439.00,0.1002
1438.00,0.0974
1437.00,0.0944
1436.00,0.0916
1435.00,0.0892
1434.00,0.0872
1433.00,0.0855
1432.00,0.0838
1431.00,0.0821
1430.00,0.0802
1429.00,0.0782
1428.00,0.0763
1427.00,0.0749
1426.00,0.0742
1425.00,0.0739
1424.00,0.0734
1423.00,0.0719
1422.00,0.0691
1421.00,0.0652
1420.00,0.0607
1419.00,0.0566
1418.00,0.0535
1417.00,0.0516
1416.00,0.0505
1415.00,0.0501
1414.00,0.0504
1413.00,0.0512
1412.00,0.0526
1411.00,0.0548
1410.00,0.0576
1409.00,0.0611
1408.00,0.0652
1407.00,0.0701
1406.00,0.0757
1405.00,0.0819
1404.00,0.0879
1403.00,0.0927
1402.00,0.0960
1401.00,0.0974
1400.00,0.0971
1399.00,0.0951
1398.00,0.0918
1397.00,0.0877
1396.00,0.0832
1395.00,0.0787
1394.00,0.0747
1393.00,0.0716
1392.00,0.0697
1391.00,0.0693
1390.00,0.0707
1389.00,0.0741
1388.00,0.0789
1387.00,0.0839
1386.00,0.0876
1385.00,0.0895
1384.00,0.0903
1383.00,0.0911
1382.00,0.0927
1381.00,0.0954
1380.00,0.0993
1379.00,0.1041
1378.00,0.1094
1377.00,0.1148
1376.00,0.1204
1375.00,0.1260
1374.00,0.1310
1373.00,0.1342
1372.00,0.1357
1371.00,0.1365
1370.00,0.1379
1369.00,0.1404
1368.00,0.1439
1367.00,0.1471
1366.00,0.1486
1365.00,0.1471
1364.00,0.1421
1363.00,0.1344
1362.00,0.1259
1361.00,0.1185
1360.00,0.1136
1359.00,0.1115
1358.00,0.1115
1357.00,0.1126
1356.00,0.1130
1355.00,0.1118
1354.00,0.1083
1353.00,0.1029
1352.00,0.0964
1351.00,0.0895
1350.00,0.0831
1349.00,0.0774
1348.00,0.0728
1347.00,0.0694
1346.00,0.0668
1345.00,0.0647
1344.00,0.0625
1343.00,0.0602
1342.00,0.0577
1341.00,0.0553
1340.00,0.0529
1339.00,0.0507
1338.00,0.0487
1337.00,0.0470
1336.00,0.0456
1335.00,0.0447
1334.00,0.0441
1333.00,0.0440
1332.00,0.0442
1331.00,0.0447
1330.00,0.0454
1329.00,0.0464
1328.00,0.0474
1327.00,0.0485
1326.00,0.0495
1325.00,0.0505
1324.00,0.0512
1323.00,0.0518
1322.00,0.0522
1321.00,0.0522
1320.00,0.0518
1319.00,0.0512
1318.00,0.0505
1317.00,0.0497
1316.00,0.0490
1315.00,0.0487
1314.00,0.0485
1313.00,0.0486
1312.00,0.0487
1311.00,0.0489
1310.00,0.0492
1309.00,0.0495
1308.00,0.0500
1307.00,0.0506
1306.00,0.0513
1305.00,0.0519
1304.00,0.0522
1303.00,0.0523
1302.00,0.0522
1301.00,0.0522
1300.00,0.0527
1299.00,0.0536
1298.00,0.0552
1297.00,0.0574
1296.00,0.0600
1295.00,0.0630
1294.00,0.0663
1293.00,0.0699
1292.00,0.0737
1291.00,0.0778
1290.00,0.0820
1289.00,0.0861
1288.00,0.0896
1287.00,0.0922
1286.00,0.0938
1285.00,0.0945
1284.00,0.0944
1283.00,0.0941
1282.00,0.0939
1281.00,0.0944
1280.00,0.0959
1279.00,0.0987
1278.00,0.1031
1277.00,0.1093
1276.00,0.1172
1275.00,0.1263
1274.00,0.1360
1273.00,0.1453
1272.00,0.1534
1271.00,0.1598
1270.00,0.1648
1269.00,0.1689
1268.00,0.1728
1267.00,0.1767
1266.00,0.1808
1265.00,0.1854
1264.00,0.1906
1263.00,0.1967
1262.00,0.2040
1261.00,0.2124
1260.00,0.2217
1259.00,0.2316
1258.00,0.2415
1257.00,0.2511
1256.00,0.2596
1255.00,0.2667
1254.00,0.2719
1253.00,0.2754
1252.00,0.2775
1251.00,0.2786
1250.00,0.2789
1249.00,0.2778
1248.00,0.2743
1247.00,0.2675
1246.00,0.2576
1245.00,0.2455
1244.00,0.2328
1243.00,0.2212
1242.00,0.2116
1241.00,0.2043
1240.00,0.1992
1239.00,0.1955
1238.00,0.1928
1237.00,0.1905
1236.00,0.1882
1235.00,0.1850
1234.00,0.1805
1233.00,0.1744
1232.00,0.1666
1231.00,0.1578
1230.00,0.1485
1229.00,0.1395
1228.00,0.1311
1227.00,0.1238
1226.00,0.1177
1225.00,0.1126
1224.00,0.1082
1223.00,0.1041
1222.00,0.0999
1221.00,0.0956
1220.00,0.0910
1219.00,0.0866
1218.00,0.0824
1217.00,0.0786
1216.00,0.0752
1215.00,0.0722
1214.00,0.0697
1213.00,0.0676
1212.00,0.0658
1211.00,0.0643
1210.00,0.0633
1209.00,0.0627
1208.00,0.0626
1207.00,0.0632
1206.00,0.0647
1205.00,0.0674
1204.00,0.0715
1203.00,0.0774
1202.00,0.0857
1201.00,0.0965
1200.00,0.1098
1199.00,0.1253
1198.00,0.1420
1197.00,0.1579
1196.00,0.1711
1195.00,0.1799
1194.00,0.1838
1193.00,0.1838
1192.00,0.1816
1191.00,0.1790
1190.00,0.1771
1189.00,0.1764
1188.00,0.1769
1187.00,0.1782
1186.00,0.1791
1185.00,0.1785
1184.00,0.1751
1183.00,0.1688
1182.00,0.1601
1181.00,0.1500
1180.00,0.1395
1179.00,0.1296
1178.00,0.1209
1177.00,0.1140
1176.00,0.1093
1175.00,0.1070
1174.00,0.1065
1173.00,0.1065
1172.00,0.1057
1171.00,0.1029
1170.00,0.0980
1169.00,0.0915
1168.00,0.0844
1167.00,0.0776
1166.00,0.0716
1165.00,0.0666
1164.00,0.0625
1163.00,0.0592
1162.00,0.0564
1161.00,0.0541
1160.00,0.0520
1159.00,0.0503
1158.00,0.0489
1157.00,0.0479
1156.00,0.0472
1155.00,0.0472
1154.00,0.0479
1153.00,0.0498
1152.00,0.0533
1151.00,0.0587
1150.00,0.0661
1149.00,0.0747
1148.00,0.0829
1147.00,0.0884
1146.00,0.0897
1145.00,0.0866
1144.00,0.0805
1143.00,0.0737
1142.00,0.0682
1141.00,0.0651
1140.00,0.0646
1139.00,0.0668
1138.00,0.0717
1137.00,0.0796
1136.00,0.0907
1135.00,0.1054
1134.00,0.1231
1133.00,0.1418
1132.00,0.1584
1131.00,0.1692
1130.00,0.1721
1129.00,0.1676
1128.00,0.1587
1127.00,0.1497
1126.00,0.1443
1125.00,0.1443
1124.00,0.1500
1123.00,0.1603
1122.00,0.1729
1121.00,0.1852
1120.00,0.1943
1119.00,0.1980
1118.00,0.1957
1117.00,0.1881
1116.00,0.1772
1115.00,0.1652
1114.00,0.1539
1113.00,0.1439
1112.00,0.1354
1111.00,0.1283
1110.00,0.1220
1109.00,0.1162
1108.00,0.1104
1107.00,0.1045
1106.00,0.0986
1105.00,0.0925
1104.00,0.0865
1103.00,0.0810
1102.00,0.0762
1101.00,0.0719
1100.00,0.0681
1099.00,0.0648
1098.00,0.0616
1097.00,0.0587
1096.00,0.0558
1095.00,0.0533
1094.00,0.0510
1093.00,0.0491
1092.00,0.0474
1091.00,0.0460
1090.00,0.0449
1089.00,0.0441
1088.00,0.0438
1087.00,0.0439
1086.00,0.0448
1085.00,0.0465
1084.00,0.0492
1083.00,0.0533
1082.00,0.0589
1081.00,0.0658
1080.00,0.0737
1079.00,0.0815
1078.00,0.0878
1077.00,0.0914
1076.00,0.0915
1075.00,0.0883
1074.00,0.0830
1073.00,0.0768
1072.00,0.0708
1071.00,0.0657
1070.00,0.0615
1069.00,0.0582
1068.00,0.0554
1067.00,0.0532
1066.00,0.0515
1065.00,0.0503
1064.00,0.0494
1063.00,0.0489
1062.00,0.0490
1061.00,0.0499
1060.00,0.0519
1059.00,0.0554
1058.00,0.0604
1057.00,0.0663
1056.00,0.0720
1055.00,0.0764
1054.00,0.0786
1053.00,0.0780
1052.00,0.0750
1051.00,0.0705
1050.00,0.0657
1049.00,0.0613
1048.00,0.0580
1047.00,0.0563
1046.00,0.0562
1045.00,0.0576
1044.00,0.0605
1043.00,0.0644
1042.00,0.0689
1041.00,0.0730
1040.00,0.0759
1039.00,0.0770
1038.00,0.0760
1037.00,0.0734
1036.00,0.0699
1035.00,0.0665
1034.00,0.0634
1033.00,0.0605
1032.00,0.0575
1031.00,0.0543
1030.00,0.0510
1029.00,0.0477
1028.00,0.0448
1027.00,0.0424
1026.00,0.0406
1025.00,0.0394
1024.00,0.0385
1023.00,0.0380
1022.00,0.0377
1021.00,0.0376
1020.00,0.0378
1019.00,0.0383
1018.00,0.0392
1017.00,0.0403
1016.00,0.0413
1015.00,0.0422
1014.00,0.0428
1013.00,0.0433
1012.00,0.0440
1011.00,0.0449
1010.00,0.0457
1009.00,0.0462
1008.00,0.0460
1007.00,0.0453
1006.00,0.0444
1005.00,0.0436
1004.00,0.0429
1003.00,0.0423
1002.00,0.0417
1001.00,0.0409
1000.00,0.0400
999.00,0.0391
998.00,0.0384
997.00,0.0379
996.00,0.0375
995.00,0.0371
994.00,0.0366
993.00,0.0359
992.00,0.0350
991.00,0.0339
990.00,0.0328
989.00,0.0320
988.00,0.0314
987.00,0.0310
986.00,0.0310
985.00,0.0311
984.00,0.0314
983.00,0.0319
982.00,0.0325
981.00,0.0331
980.00,0.0336
979.00,0.0342
978.00,0.0350
977.00,0.0360
976.00,0.0370
975.00,0.0381
974.00,0.0390
973.00,0.0394
972.00,0.0394
971.00,0.0388
970.00,0.0378
969.00,0.0365
968.00,0.0352
967.00,0.0341
966.00,0.0334
965.00,0.0328
964.00,0.0324
963.00,0.0322
962.00,0.0319
961.00,0.0317
960.00,0.0316
959.00,0.0316
958.00,0.0319
957.00,0.0323
956.00,0.0328
955.00,0.0334
954.00,0.0342
953.00,0.0350
952.00,0.0362
951.00,0.0379
950.00,0.0401
949.00,0.0429
948.00,0.0460
947.00,0.0490
946.00,0.0517
945.00,0.0536
944.00,0.0546
943.00,0.0547
942.00,0.0543
941.00,0.0534
940.00,0.0522
939.00,0.0513
938.00,0.0506
937.00,0.0504
936.00,0.0505
935.00,0.0508
934.00,0.0512
933.00,0.0517
932.00,0.0522
931.00,0.0530
930.00,0.0541
929.00,0.0554
928.00,0.0570
927.00,0.0586
926.00,0.0603
925.00,0.0620
924.00,0.0634
923.00,0.0648
922.00,0.0660
921.00,0.0671
920.00,0.0682
919.00,0.0693
918.00,0.0708
917.00,0.0727
916.00,0.0753
915.00,0.0788
914.00,0.0832
913.00,0.0881
912.00,0.0930
911.00,0.0977
910.00,0.1019
909.00,0.1055
908.00,0.1082
907.00,0.1094
906.00,0.1086
905.00,0.1056
904.00,0.1009
903.00,0.0958
902.00,0.0912
901.00,0.0877
900.00,0.0856
899.00,0.0852
898.00,0.0864
897.00,0.0887
896.00,0.0915
895.00,0.0942
894.00,0.0966
893.00,0.0983
892.00,0.0989
891.00,0.0980
890.00,0.0952
889.00,0.0909
888.00,0.0857
887.00,0.0804
886.00,0.0758
885.00,0.0719
884.00,0.0686
883.00,0.0660
882.00,0.0639
881.00,0.0620
880.00,0.0605
879.00,0.0591
878.00,0.0580
877.00,0.0570
876.00,0.0561
875.00,0.0554
874.00,0.0549
873.00,0.0547
872.00,0.0546
871.00,0.0548
870.00,0.0556
869.00,0.0567
868.00,0.0583
867.00,0.0604
866.00,0.0632
865.00,0.0668
864.00,0.0715
863.00,0.0774
862.00,0.0848
861.00,0.0931
860.00,0.1015
859.00,0.1087
858.00,0.1134
857.00,0.1151
856.00,0.1138
855.00,0.1107
854.00,0.1072
853.00,0.1040
852.00,0.1013
851.00,0.0991
850.00,0.0970
849.00,0.0948
848.00,0.0925
847.00,0.0903
846.00,0.0885
845.00,0.0870
844.00,0.0861
843.00,0.0857
842.00,0.0858
841.00,0.0862
840.00,0.0867
839.00,0.0874
838.00,0.0884
837.00,0.0897
836.00,0.0912
835.00,0.0925
834.00,0.0932
833.00,0.0925
832.00,0.0903
831.00,0.0869
830.00,0.0830
829.00,0.0789
828.00,0.0751
827.00,0.0717
826.00,0.0687
825.00,0.0659
824.00,0.0632
823.00,0.0608
822.00,0.0588
821.00,0.0572
820.00,0.0561
819.00,0.0556
818.00,0.0557
817.00,0.0563
816.00,0.0576
815.00,0.0597
814.00,0.0626
813.00,0.0664
812.00,0.0706
811.00,0.0750
810.00,0.0790
809.00,0.0820
808.00,0.0831
807.00,0.0815
806.00,0.0768
805.00,0.0694
804.00,0.0609
803.00,0.0531
802.00,0.0472
801.00,0.0431
800.00,0.0407
799.00,0.0395
798.00,0.0392
797.00,0.0396
796.00,0.0407
795.00,0.0427
794.00,0.0455
793.00,0.0494
792.00,0.0540
791.00,0.0591
790.00,0.0639
789.00,0.0672
788.00,0.0685
787.00,0.0677
786.00,0.0656
785.00,0.0631
784.00,0.0609
783.00,0.0597
782.00,0.0596
781.00,0.0605
780.00,0.0623
779.00,0.0652
778.00,0.0689
777.00,0.0734
776.00,0.0782
775.00,0.0830
774.00,0.0872
773.00,0.0899
772.00,0.0904
771.00,0.0883
770.00,0.0842
769.00,0.0790
768.00,0.0741
767.00,0.0708
766.00,0.0693
765.00,0.0691
764.00,0.0697
763.00,0.0707
762.00,0.0716
761.00,0.0722
760.00,0.0723
759.00,0.0721
758.00,0.0716
757.00,0.0709
756.00,0.0698
755.00,0.0687
754.00,0.0676
753.00,0.0665
752.00,0.0653
751.00,0.0644
750.00,0.0637
749.00,0.0631
748.00,0.0627
747.00,0.0626
746.00,0.0628
745.00,0.0632
744.00,0.0638
743.00,0.0646
742.00,0.0657
741.00,0.0671
740.00,0.0686
739.00,0.0702
738.00,0.0719
737.00,0.0733
736.00,0.0741
735.00,0.0741
734.00,0.0735
733.00,0.0726
732.00,0.0718
731.00,0.0716
730.00,0.0722
729.00,0.0736
728.00,0.0756
727.00,0.0782
726.00,0.0816
725.00,0.0856
724.00,0.0900
723.00,0.0945
722.00,0.0990
721.00,0.1032
720.00,0.1073
719.00,0.1121
718.00,0.1180
717.00,0.1246
716.00,0.1311
715.00,0.1363
714.00,0.1395
713.00,0.1400
712.00,0.1380
711.00,0.1342
710.00,0.1289
709.00,0.1225
708.00,0.1153
707.00,0.1078
706.00,0.1005
705.00,0.0937
704.00,0.0875
703.00,0.0819
702.00,0.0773
701.00,0.0732
700.00,0.0697
699.00,0.0666
698.00,0.0641
697.00,0.0618
696.00,0.0598
695.00,0.0581
694.00,0.0568
693.00,0.0557
692.00,0.0545
691.00,0.0534
690.00,0.0523
689.00,0.0510
688.00,0.0496
687.00,0.0483
686.00,0.0471
685.00,0.0460
684.00,0.0448
683.00,0.0438
682.00,0.0429
681.00,0.0419
680.00,0.0410
679.00,0.0401
678.00,0.0393
677.00,0.0387
676.00,0.0381
675.00,0.0377
674.00,0.0375
673.00,0.0374
672.00,0.0374
671.00,0.0375
670.00,0.0379
669.00,0.0387
668.00,0.0398
667.00,0.0409
666.00,0.0418
665.00,0.0425
664.00,0.0434
663.00,0.0448
662.00,0.0466
661.00,0.0483
660.00,0.0494
659.00,0.0498
658.00,0.0496
657.00,0.0491
656.00,0.0489
655.00,0.0492
654.00,0.0495
653.00,0.0492
652.00,0.0481
651.00,0.0470
650.00,0.0467
649.00,0.0478
648.00,0.0503
647.00,0.0532
646.00,0.0556
645.00,0.0566
644.00,0.0565
643.00,0.0565
642.00,0.0572
641.00,0.0586
640.00,0.0603
639.00,0.0615
638.00,0.0615
637.00,0.0602
636.00,0.0574
635.00,0.0540
634.00,0.0505
633.00,0.0473
632.00,0.0443
631.00,0.0420
630.00,0.0405
629.00,0.0396
628.00,0.0394
627.00,0.0402
626.00,0.0419
625.00,0.0440
624.00,0.0460
623.00,0.0476
622.00,0.0487
621.00,0.0494
620.00,0.0498
619.00,0.0499
618.00,0.0493
617.00,0.0479
616.00,0.0456
615.00,0.0432
614.00,0.0412
613.00,0.0398
612.00,0.0391
611.00,0.0392
610.00,0.0399
609.00,0.0406
608.00,0.0409
607.00,0.0408
606.00,0.0405
605.00,0.0399
604.00,0.0395
603.00,0.0397
602.00,0.0409
601.00,0.0431
600.00,0.0466
599.00,0.0513
598.00,0.0570
597.00,0.0630
596.00,0.0686
595.00,0.0732
594.00,0.0764
593.00,0.0777
592.00,0.0768
591.00,0.0738
590.00,0.0692
589.00,0.0638
588.00,0.0580
587.00,0.0526
586.00,0.0479
585.00,0.0440
584.00,0.0405
583.00,0.0378
582.00,0.0356
581.00,0.0338
580.00,0.0321
579.00,0.0307
578.00,0.0298
577.00,0.0292
576.00,0.0287
575.00,0.0287
574.00,0.0293
573.00,0.0304
572.00,0.0321
571.00,0.0343
570.00,0.0368
569.00,0.0390
568.00,0.0404
567.00,0.0408
566.00,0.0404
565.00,0.0390
564.00,0.0370
563.00,0.0352
562.00,0.0339
561.00,0.0331
560.00,0.0326
559.00,0.0325
558.00,0.0328
557.00,0.0331
556.00,0.0331
555.00,0.0331
554.00,0.0334
553.00,0.0339
552.00,0.0347
551.00,0.0362
550.00,0.0383
549.00,0.0405
548.00,0.0421
547.00,0.0428
546.00,0.0425
545.00,0.0410
544.00,0.0383
543.00,0.0354
542.00,0.0328
541.00,0.0305
540.00,0.0285
539.00,0.0271
538.00,0.0262
537.00,0.0256
536.00,0.0252
535.00,0.0251
534.00,0.0256
533.00,0.0264
532.00,0.0273
531.00,0.0287
530.00,0.0308
529.00,0.0335
528.00,0.0366
527.00,0.0402
526.00,0.0438
525.00,0.0459
524.00,0.0456
523.00,0.0433
522.00,0.0399
521.00,0.0364
520.00,0.0333
519.00,0.0313
518.00,0.0303
517.00,0.0300
516.00,0.0299
515.00,0.0305
514.00,0.0318
513.00,0.0337
512.00,0.0361
511.00,0.0393
510.00,0.0437
509.00,0.0489
508.00,0.0548
507.00,0.0613
506.00,0.0678
505.00,0.0729
504.00,0.0757
503.00,0.0760
502.00,0.0743
501.00,0.0712
500.00,0.0681
499.00,0.0668
498.00,0.0683
497.00,0.0724
496.00,0.0778
495.00,0.0826
494.00,0.0849
493.00,0.0830
492.00,0.0771
491.00,0.0691
490.00,0.0609
489.00,0.0532
488.00,0.0465
487.00,0.0414
486.00,0.0379
485.00,0.0356
484.00,0.0340
483.00,0.0334
482.00,0.0340
481.00,0.0352
480.00,0.0365
479.00,0.0379
478.00,0.0394
477.00,0.0404
476.00,0.0404
475.00,0.0403
474.00,0.0405
473.00,0.0408
472.00,0.0409
471.00,0.0413
470.00,0.0419
469.00,0.0419
468.00,0.0409
467.00,0.0395
466.00,0.0382
465.00,0.0368
464.00,0.0350
463.00,0.0334
462.00,0.0323
461.00,0.0314
460.00,0.0304
459.00,0.0297
458.00,0.0297
457.00,0.0298
456.00,0.0296
455.00,0.0296
454.00,0.0302
453.00,0.0307
452.00,0.0308
451.00,0.0310
450.00,0.0317
449.00,0.0323
448.00,0.0327
447.00,0.0333
446.00,0.0347
445.00,0.0364
444.00,0.0380
443.00,0.0403
442.00,0.0437
441.00,0.0472
440.00,0.0503
439.00,0.0533
438.00,0.0567
437.00,0.0600
436.00,0.0625
435.00,0.0649
434.00,0.0673
433.00,0.0692
432.00,0.0704
431.00,0.0715
430.00,0.0730
429.00,0.0742
428.00,0.0746
427.00,0.0753
426.00,0.0769
425.00,0.0787
424.00,0.0797
423.00,0.0802
422.00,0.0804
421.00,0.0791
420.00,0.0755
419.00,0.0709
418.00,0.0677
417.00,0.0659
416.00,0.0647
415.00,0.0646
414.00,0.0658
413.00,0.0663
412.00,0.0650
411.00,0.0625
410.00,0.0601
409.00,0.0570
408.00,0.0530
407.00,0.0496
406.00,0.0479
405.00,0.0465
404.00,0.0440
403.00,0.0419
402.00,0.0420
401.00,0.0428
400.00,0.0426
