Created as New Dataset,Sample 460 By YargerLab Date Saturday, March 01 2025
cm-1,A
4000.00,-0.0104
3999.00,-0.0104
3998.00,-0.0104
3997.00,-0.0105
3996.00,-0.0105
3995.00,-0.0105
3994.00,-0.0105
3993.00,-0.0105
3992.00,-0.0105
3991.00,-0.0105
3990.00,-0.0105
3989.00,-0.0105
3988.00,-0.0105
3987.00,-0.0105
3986.00,-0.0105
3985.00,-0.0105
3984.00,-0.0105
3983.00,-0.0105
3982.00,-0.0105
3981.00,-0.0105
3980.00,-0.0105
3979.00,-0.0105
3978.00,-0.0105
3977.00,-0.0105
3976.00,-0.0105
3975.00,-0.0105
3974.00,-0.0105
3973.00,-0.0105
3972.00,-0.0105
3971.00,-0.0105
3970.00,-0.0106
3969.00,-0.0106
3968.00,-0.0106
3967.00,-0.0106
3966.00,-0.0106
3965.00,-0.0106
3964.00,-0.0106
3963.00,-0.0106
3962.00,-0.0106
3961.00,-0.0106
3960.00,-0.0106
3959.00,-0.0106
3958.00,-0.0106
3957.00,-0.0106
3956.00,-0.0106
3955.00,-0.0107
3954.00,-0.0107
3953.00,-0.0107
3952.00,-0.0107
3951.00,-0.0107
3950.00,-0.0106
3949.00,-0.0106
3948.00,-0.0106
3947.00,-0.0106
3946.00,-0.0106
3945.00,-0.0106
3944.00,-0.0106
3943.00,-0.0106
3942.00,-0.0106
3941.00,-0.0106
3940.00,-0.0106
3939.00,-0.0107
3938.00,-0.0107
3937.00,-0.0107
3936.00,-0.0108
3935.00,-0.0107
3934.00,-0.0107
3933.00,-0.0107
3932.00,-0.0107
3931.00,-0.0107
3930.00,-0.0107
3929.00,-0.0108
3928.00,-0.0108
3927.00,-0.0108
3926.00,-0.0108
3925.00,-0.0108
3924.00,-0.0108
3923.00,-0.0108
3922.00,-0.0108
3921.00,-0.0108
3920.00,-0.0108
3919.00,-0.0108
3918.00,-0.0108
3917.00,-0.0108
3916.00,-0.0108
3915.00,-0.0108
3914.00,-0.0108
3913.00,-0.0108
3912.00,-0.0108
3911.00,-0.0108
3910.00,-0.0108
3909.00,-0.0109
3908.00,-0.0109
3907.00,-0.0109
3906.00,-0.0109
3905.00,-0.0109
3904.00,-0.0109
3903.00,-0.0110
3902.00,-0.0110
3901.00,-0.0110
3900.00,-0.0110
3899.00,-0.0110
3898.00,-0.0110
3897.00,-0.0110
3896.00,-0.0110
3895.00,-0.0110
3894.00,-0.0110
3893.00,-0.0110
3892.00,-0.0110
3891.00,-0.0110
3890.00,-0.0110
3889.00,-0.0110
3888.00,-0.0109
3887.00,-0.0110
3886.00,-0.0110
3885.00,-0.0110
3884.00,-0.0110
3883.00,-0.0110
3882.00,-0.0110
3881.00,-0.0110
3880.00,-0.0110
3879.00,-0.0110
3878.00,-0.0110
3877.00,-0.0110
3876.00,-0.0110
3875.00,-0.0110
3874.00,-0.0111
3873.00,-0.0111
3872.00,-0.0111
3871.00,-0.0111
3870.00,-0.0112
3869.00,-0.0112
3868.00,-0.0112
3867.00,-0.0112
3866.00,-0.0112
3865.00,-0.0112
3864.00,-0.0112
3863.00,-0.0111
3862.00,-0.0111
3861.00,-0.0112
3860.00,-0.0112
3859.00,-0.0112
3858.00,-0.0112
3857.00,-0.0112
3856.00,-0.0112
3855.00,-0.0112
3854.00,-0.0112
3853.00,-0.0112
3852.00,-0.0112
3851.00,-0.0112
3850.00,-0.0112
3849.00,-0.0113
3848.00,-0.0113
3847.00,-0.0113
3846.00,-0.0113
3845.00,-0.0113
3844.00,-0.0113
3843.00,-0.0112
3842.00,-0.0112
3841.00,-0.0112
3840.00,-0.0113
3839.00,-0.0113
3838.00,-0.0114
3837.00,-0.0115
3836.00,-0.0115
3835.00,-0.0114
3834.00,-0.0114
3833.00,-0.0114
3832.00,-0.0113
3831.00,-0.0113
3830.00,-0.0113
3829.00,-0.0113
3828.00,-0.0113
3827.00,-0.0113
3826.00,-0.0113
3825.00,-0.0113
3824.00,-0.0113
3823.00,-0.0113
3822.00,-0.0114
3821.00,-0.0114
3820.00,-0.0114
3819.00,-0.0114
3818.00,-0.0114
3817.00,-0.0114
3816.00,-0.0114
3815.00,-0.0114
3814.00,-0.0114
3813.00,-0.0114
3812.00,-0.0115
3811.00,-0.0115
3810.00,-0.0115
3809.00,-0.0115
3808.00,-0.0115
3807.00,-0.0115
3806.00,-0.0115
3805.00,-0.0115
3804.00,-0.0115
3803.00,-0.0115
3802.00,-0.0115
3801.00,-0.0115
3800.00,-0.0115
3799.00,-0.0115
3798.00,-0.0115
3797.00,-0.0115
3796.00,-0.0115
3795.00,-0.0115
3794.00,-0.0115
3793.00,-0.0115
3792.00,-0.0115
3791.00,-0.0115
3790.00,-0.0115
3789.00,-0.0115
3788.00,-0.0115
3787.00,-0.0115
3786.00,-0.0115
3785.00,-0.0115
3784.00,-0.0115
3783.00,-0.0115
3782.00,-0.0115
3781.00,-0.0115
3780.00,-0.0115
3779.00,-0.0115
3778.00,-0.0115
3777.00,-0.0116
3776.00,-0.0116
3775.00,-0.0116
3774.00,-0.0116
3773.00,-0.0116
3772.00,-0.0116
3771.00,-0.0116
3770.00,-0.0116
3769.00,-0.0116
3768.00,-0.0115
3767.00,-0.0115
3766.00,-0.0115
3765.00,-0.0115
3764.00,-0.0116
3763.00,-0.0116
3762.00,-0.0116
3761.00,-0.0116
3760.00,-0.0116
3759.00,-0.0116
3758.00,-0.0116
3757.00,-0.0116
3756.00,-0.0116
3755.00,-0.0116
3754.00,-0.0116
3753.00,-0.0116
3752.00,-0.0116
3751.00,-0.0117
3750.00,-0.0117
3749.00,-0.0117
3748.00,-0.0117
3747.00,-0.0117
3746.00,-0.0117
3745.00,-0.0117
3744.00,-0.0117
3743.00,-0.0117
3742.00,-0.0117
3741.00,-0.0118
3740.00,-0.0118
3739.00,-0.0119
3738.00,-0.0119
3737.00,-0.0119
3736.00,-0.0118
3735.00,-0.0118
3734.00,-0.0118
3733.00,-0.0118
3732.00,-0.0118
3731.00,-0.0118
3730.00,-0.0118
3729.00,-0.0118
3728.00,-0.0118
3727.00,-0.0118
3726.00,-0.0118
3725.00,-0.0118
3724.00,-0.0118
3723.00,-0.0119
3722.00,-0.0119
3721.00,-0.0119
3720.00,-0.0119
3719.00,-0.0119
3718.00,-0.0119
3717.00,-0.0119
3716.00,-0.0119
3715.00,-0.0119
3714.00,-0.0119
3713.00,-0.0119
3712.00,-0.0119
3711.00,-0.0119
3710.00,-0.0118
3709.00,-0.0118
3708.00,-0.0118
3707.00,-0.0118
3706.00,-0.0118
3705.00,-0.0118
3704.00,-0.0118
3703.00,-0.0118
3702.00,-0.0118
3701.00,-0.0118
3700.00,-0.0118
3699.00,-0.0119
3698.00,-0.0119
3697.00,-0.0119
3696.00,-0.0120
3695.00,-0.0120
3694.00,-0.0120
3693.00,-0.0120
3692.00,-0.0120
3691.00,-0.0119
3690.00,-0.0120
3689.00,-0.0120
3688.00,-0.0120
3687.00,-0.0121
3686.00,-0.0121
3685.00,-0.0121
3684.00,-0.0121
3683.00,-0.0121
3682.00,-0.0121
3681.00,-0.0121
3680.00,-0.0122
3679.00,-0.0122
3678.00,-0.0122
3677.00,-0.0122
3676.00,-0.0122
3675.00,-0.0122
3674.00,-0.0123
3673.00,-0.0122
3672.00,-0.0122
3671.00,-0.0122
3670.00,-0.0122
3669.00,-0.0122
3668.00,-0.0122
3667.00,-0.0122
3666.00,-0.0121
3665.00,-0.0121
3664.00,-0.0121
3663.00,-0.0121
3662.00,-0.0121
3661.00,-0.0120
3660.00,-0.0120
3659.00,-0.0120
3658.00,-0.0121
3657.00,-0.0121
3656.00,-0.0121
3655.00,-0.0121
3654.00,-0.0121
3653.00,-0.0121
3652.00,-0.0121
3651.00,-0.0121
3650.00,-0.0121
3649.00,-0.0121
3648.00,-0.0121
3647.00,-0.0121
3646.00,-0.0121
3645.00,-0.0121
3644.00,-0.0120
3643.00,-0.0120
3642.00,-0.0119
3641.00,-0.0119
3640.00,-0.0118
3639.00,-0.0118
3638.00,-0.0118
3637.00,-0.0118
3636.00,-0.0118
3635.00,-0.0117
3634.00,-0.0116
3633.00,-0.0116
3632.00,-0.0115
3631.00,-0.0115
3630.00,-0.0115
3629.00,-0.0115
3628.00,-0.0115
3627.00,-0.0115
3626.00,-0.0115
3625.00,-0.0115
3624.00,-0.0115
3623.00,-0.0115
3622.00,-0.0114
3621.00,-0.0114
3620.00,-0.0114
3619.00,-0.0113
3618.00,-0.0113
3617.00,-0.0113
3616.00,-0.0113
3615.00,-0.0113
3614.00,-0.0113
3613.00,-0.0114
3612.00,-0.0114
3611.00,-0.0114
3610.00,-0.0114
3609.00,-0.0114
3608.00,-0.0113
3607.00,-0.0113
3606.00,-0.0113
3605.00,-0.0113
3604.00,-0.0112
3603.00,-0.0112
3602.00,-0.0112
3601.00,-0.0112
3600.00,-0.0111
3599.00,-0.0111
3598.00,-0.0111
3597.00,-0.0111
3596.00,-0.0111
3595.00,-0.0111
3594.00,-0.0111
3593.00,-0.0111
3592.00,-0.0110
3591.00,-0.0110
3590.00,-0.0110
3589.00,-0.0109
3588.00,-0.0109
3587.00,-0.0109
3586.00,-0.0109
3585.00,-0.0109
3584.00,-0.0109
3583.00,-0.0109
3582.00,-0.0110
3581.00,-0.0109
3580.00,-0.0109
3579.00,-0.0109
3578.00,-0.0108
3577.00,-0.0108
3576.00,-0.0107
3575.00,-0.0107
3574.00,-0.0107
3573.00,-0.0107
3572.00,-0.0107
3571.00,-0.0107
3570.00,-0.0107
3569.00,-0.0108
3568.00,-0.0108
3567.00,-0.0108
3566.00,-0.0107
3565.00,-0.0107
3564.00,-0.0106
3563.00,-0.0106
3562.00,-0.0106
3561.00,-0.0105
3560.00,-0.0105
3559.00,-0.0105
3558.00,-0.0105
3557.00,-0.0105
3556.00,-0.0105
3555.00,-0.0105
3554.00,-0.0105
3553.00,-0.0104
3552.00,-0.0104
3551.00,-0.0104
3550.00,-0.0104
3549.00,-0.0104
3548.00,-0.0103
3547.00,-0.0103
3546.00,-0.0102
3545.00,-0.0102
3544.00,-0.0102
3543.00,-0.0102
3542.00,-0.0102
3541.00,-0.0102
3540.00,-0.0102
3539.00,-0.0102
3538.00,-0.0102
3537.00,-0.0102
3536.00,-0.0102
3535.00,-0.0101
3534.00,-0.0101
3533.00,-0.0101
3532.00,-0.0101
3531.00,-0.0100
3530.00,-0.0100
3529.00,-0.0100
3528.00,-0.0100
3527.00,-0.0100
3526.00,-0.0100
3525.00,-0.0099
3524.00,-0.0099
3523.00,-0.0099
3522.00,-0.0099
3521.00,-0.0099
3520.00,-0.0099
3519.00,-0.0098
3518.00,-0.0097
3517.00,-0.0097
3516.00,-0.0097
3515.00,-0.0096
3514.00,-0.0096
3513.00,-0.0096
3512.00,-0.0096
3511.00,-0.0096
3510.00,-0.0096
3509.00,-0.0096
3508.00,-0.0095
3507.00,-0.0095
3506.00,-0.0094
3505.00,-0.0094
3504.00,-0.0094
3503.00,-0.0094
3502.00,-0.0093
3501.00,-0.0093
3500.00,-0.0092
3499.00,-0.0092
3498.00,-0.0092
3497.00,-0.0092
3496.00,-0.0091
3495.00,-0.0091
3494.00,-0.0090
3493.00,-0.0089
3492.00,-0.0089
3491.00,-0.0088
3490.00,-0.0088
3489.00,-0.0087
3488.00,-0.0087
3487.00,-0.0087
3486.00,-0.0087
3485.00,-0.0086
3484.00,-0.0086
3483.00,-0.0086
3482.00,-0.0086
3481.00,-0.0085
3480.00,-0.0085
3479.00,-0.0084
3478.00,-0.0084
3477.00,-0.0084
3476.00,-0.0083
3475.00,-0.0083
3474.00,-0.0083
3473.00,-0.0082
3472.00,-0.0082
3471.00,-0.0081
3470.00,-0.0081
3469.00,-0.0081
3468.00,-0.0080
3467.00,-0.0080
3466.00,-0.0080
3465.00,-0.0079
3464.00,-0.0078
3463.00,-0.0078
3462.00,-0.0077
3461.00,-0.0077
3460.00,-0.0077
3459.00,-0.0077
3458.00,-0.0077
3457.00,-0.0076
3456.00,-0.0076
3455.00,-0.0075
3454.00,-0.0075
3453.00,-0.0074
3452.00,-0.0074
3451.00,-0.0074
3450.00,-0.0073
3449.00,-0.0073
3448.00,-0.0073
3447.00,-0.0073
3446.00,-0.0072
3445.00,-0.0071
3444.00,-0.0071
3443.00,-0.0071
3442.00,-0.0070
3441.00,-0.0069
3440.00,-0.0068
3439.00,-0.0068
3438.00,-0.0067
3437.00,-0.0066
3436.00,-0.0066
3435.00,-0.0065
3434.00,-0.0065
3433.00,-0.0065
3432.00,-0.0064
3431.00,-0.0064
3430.00,-0.0064
3429.00,-0.0063
3428.00,-0.0063
3427.00,-0.0063
3426.00,-0.0062
3425.00,-0.0061
3424.00,-0.0061
3423.00,-0.0060
3422.00,-0.0060
3421.00,-0.0059
3420.00,-0.0058
3419.00,-0.0057
3418.00,-0.0057
3417.00,-0.0056
3416.00,-0.0055
3415.00,-0.0055
3414.00,-0.0054
3413.00,-0.0054
3412.00,-0.0053
3411.00,-0.0053
3410.00,-0.0052
3409.00,-0.0052
3408.00,-0.0052
3407.00,-0.0052
3406.00,-0.0051
3405.00,-0.0050
3404.00,-0.0049
3403.00,-0.0048
3402.00,-0.0048
3401.00,-0.0047
3400.00,-0.0046
3399.00,-0.0046
3398.00,-0.0045
3397.00,-0.0045
3396.00,-0.0044
3395.00,-0.0044
3394.00,-0.0044
3393.00,-0.0043
3392.00,-0.0043
3391.00,-0.0042
3390.00,-0.0041
3389.00,-0.0041
3388.00,-0.0040
3387.00,-0.0040
3386.00,-0.0039
3385.00,-0.0038
3384.00,-0.0037
3383.00,-0.0037
3382.00,-0.0036
3381.00,-0.0036
3380.00,-0.0035
3379.00,-0.0035
3378.00,-0.0034
3377.00,-0.0033
3376.00,-0.0032
3375.00,-0.0031
3374.00,-0.0030
3373.00,-0.0029
3372.00,-0.0028
3371.00,-0.0027
3370.00,-0.0027
3369.00,-0.0026
3368.00,-0.0025
3367.00,-0.0024
3366.00,-0.0022
3365.00,-0.0021
3364.00,-0.0020
3363.00,-0.0019
3362.00,-0.0018
3361.00,-0.0017
3360.00,-0.0015
3359.00,-0.0014
3358.00,-0.0013
3357.00,-0.0011
3356.00,-0.0010
3355.00,-0.0008
3354.00,-0.0007
3353.00,-0.0006
3352.00,-0.0004
3351.00,-0.0003
3350.00,-0.0001
3349.00,0.0001
3348.00,0.0002
3347.00,0.0004
3346.00,0.0005
3345.00,0.0007
3344.00,0.0008
3343.00,0.0010
3342.00,0.0011
3341.00,0.0013
3340.00,0.0015
3339.00,0.0017
3338.00,0.0019
3337.00,0.0022
3336.00,0.0024
3335.00,0.0026
3334.00,0.0028
3333.00,0.0030
3332.00,0.0032
3331.00,0.0034
3330.00,0.0037
3329.00,0.0039
3328.00,0.0041
3327.00,0.0044
3326.00,0.0046
3325.00,0.0049
3324.00,0.0051
3323.00,0.0054
3322.00,0.0056
3321.00,0.0059
3320.00,0.0061
3319.00,0.0064
3318.00,0.0066
3317.00,0.0069
3316.00,0.0072
3315.00,0.0075
3314.00,0.0078
3313.00,0.0081
3312.00,0.0084
3311.00,0.0087
3310.00,0.0090
3309.00,0.0093
3308.00,0.0096
3307.00,0.0099
3306.00,0.0102
3305.00,0.0105
3304.00,0.0109
3303.00,0.0112
3302.00,0.0115
3301.00,0.0119
3300.00,0.0122
3299.00,0.0125
3298.00,0.0128
3297.00,0.0132
3296.00,0.0135
3295.00,0.0138
3294.00,0.0141
3293.00,0.0144
3292.00,0.0147
3291.00,0.0150
3290.00,0.0152
3289.00,0.0154
3288.00,0.0157
3287.00,0.0159
3286.00,0.0161
3285.00,0.0163
3284.00,0.0166
3283.00,0.0168
3282.00,0.0170
3281.00,0.0172
3280.00,0.0174
3279.00,0.0175
3278.00,0.0176
3277.00,0.0177
3276.00,0.0178
3275.00,0.0178
3274.00,0.0178
3273.00,0.0178
3272.00,0.0178
3271.00,0.0177
3270.00,0.0177
3269.00,0.0176
3268.00,0.0175
3267.00,0.0173
3266.00,0.0172
3265.00,0.0170
3264.00,0.0168
3263.00,0.0166
3262.00,0.0164
3261.00,0.0162
3260.00,0.0159
3259.00,0.0157
3258.00,0.0155
3257.00,0.0152
3256.00,0.0149
3255.00,0.0147
3254.00,0.0144
3253.00,0.0142
3252.00,0.0139
3251.00,0.0136
3250.00,0.0133
3249.00,0.0130
3248.00,0.0128
3247.00,0.0126
3246.00,0.0124
3245.00,0.0121
3244.00,0.0119
3243.00,0.0117
3242.00,0.0115
3241.00,0.0113
3240.00,0.0111
3239.00,0.0109
3238.00,0.0107
3237.00,0.0104
3236.00,0.0102
3235.00,0.0100
3234.00,0.0097
3233.00,0.0095
3232.00,0.0094
3231.00,0.0092
3230.00,0.0090
3229.00,0.0088
3228.00,0.0086
3227.00,0.0085
3226.00,0.0083
3225.00,0.0082
3224.00,0.0081
3223.00,0.0079
3222.00,0.0077
3221.00,0.0075
3220.00,0.0074
3219.00,0.0073
3218.00,0.0071
3217.00,0.0070
3216.00,0.0068
3215.00,0.0067
3214.00,0.0066
3213.00,0.0065
3212.00,0.0063
3211.00,0.0062
3210.00,0.0060
3209.00,0.0059
3208.00,0.0058
3207.00,0.0056
3206.00,0.0055
3205.00,0.0054
3204.00,0.0053
3203.00,0.0052
3202.00,0.0050
3201.00,0.0049
3200.00,0.0048
3199.00,0.0046
3198.00,0.0045
3197.00,0.0044
3196.00,0.0043
3195.00,0.0042
3194.00,0.0041
3193.00,0.0039
3192.00,0.0038
3191.00,0.0037
3190.00,0.0036
3189.00,0.0035
3188.00,0.0033
3187.00,0.0032
3186.00,0.0030
3185.00,0.0028
3184.00,0.0027
3183.00,0.0025
3182.00,0.0024
3181.00,0.0023
3180.00,0.0022
3179.00,0.0020
3178.00,0.0019
3177.00,0.0017
3176.00,0.0015
3175.00,0.0014
3174.00,0.0012
3173.00,0.0011
3172.00,0.0010
3171.00,0.0009
3170.00,0.0008
3169.00,0.0006
3168.00,0.0005
3167.00,0.0004
3166.00,0.0002
3165.00,0.0001
3164.00,-0.0000
3163.00,-0.0002
3162.00,-0.0003
3161.00,-0.0004
3160.00,-0.0005
3159.00,-0.0006
3158.00,-0.0008
3157.00,-0.0009
3156.00,-0.0010
3155.00,-0.0011
3154.00,-0.0012
3153.00,-0.0013
3152.00,-0.0014
3151.00,-0.0015
3150.00,-0.0016
3149.00,-0.0017
3148.00,-0.0019
3147.00,-0.0020
3146.00,-0.0021
3145.00,-0.0022
3144.00,-0.0023
3143.00,-0.0024
3142.00,-0.0024
3141.00,-0.0025
3140.00,-0.0026
3139.00,-0.0026
3138.00,-0.0027
3137.00,-0.0028
3136.00,-0.0029
3135.00,-0.0029
3134.00,-0.0030
3133.00,-0.0031
3132.00,-0.0032
3131.00,-0.0032
3130.00,-0.0032
3129.00,-0.0033
3128.00,-0.0033
3127.00,-0.0034
3126.00,-0.0034
3125.00,-0.0035
3124.00,-0.0035
3123.00,-0.0036
3122.00,-0.0037
3121.00,-0.0037
3120.00,-0.0038
3119.00,-0.0038
3118.00,-0.0039
3117.00,-0.0039
3116.00,-0.0039
3115.00,-0.0039
3114.00,-0.0038
3113.00,-0.0038
3112.00,-0.0038
3111.00,-0.0039
3110.00,-0.0039
3109.00,-0.0039
3108.00,-0.0039
3107.00,-0.0039
3106.00,-0.0038
3105.00,-0.0038
3104.00,-0.0038
3103.00,-0.0038
3102.00,-0.0038
3101.00,-0.0038
3100.00,-0.0038
3099.00,-0.0038
3098.00,-0.0037
3097.00,-0.0037
3096.00,-0.0037
3095.00,-0.0036
3094.00,-0.0036
3093.00,-0.0036
3092.00,-0.0036
3091.00,-0.0035
3090.00,-0.0034
3089.00,-0.0034
3088.00,-0.0033
3087.00,-0.0033
3086.00,-0.0033
3085.00,-0.0033
3084.00,-0.0033
3083.00,-0.0033
3082.00,-0.0033
3081.00,-0.0033
3080.00,-0.0032
3079.00,-0.0032
3078.00,-0.0032
3077.00,-0.0031
3076.00,-0.0031
3075.00,-0.0031
3074.00,-0.0031
3073.00,-0.0031
3072.00,-0.0031
3071.00,-0.0031
3070.00,-0.0031
3069.00,-0.0031
3068.00,-0.0031
3067.00,-0.0032
3066.00,-0.0032
3065.00,-0.0032
3064.00,-0.0032
3063.00,-0.0031
3062.00,-0.0032
3061.00,-0.0032
3060.00,-0.0032
3059.00,-0.0033
3058.00,-0.0033
3057.00,-0.0034
3056.00,-0.0035
3055.00,-0.0036
3054.00,-0.0036
3053.00,-0.0037
3052.00,-0.0038
3051.00,-0.0039
3050.00,-0.0039
3049.00,-0.0040
3048.00,-0.0041
3047.00,-0.0042
3046.00,-0.0043
3045.00,-0.0044
3044.00,-0.0045
3043.00,-0.0046
3042.00,-0.0047
3041.00,-0.0047
3040.00,-0.0048
3039.00,-0.0048
3038.00,-0.0049
3037.00,-0.0050
3036.00,-0.0051
3035.00,-0.0052
3034.00,-0.0053
3033.00,-0.0054
3032.00,-0.0054
3031.00,-0.0055
3030.00,-0.0055
3029.00,-0.0056
3028.00,-0.0057
3027.00,-0.0058
3026.00,-0.0059
3025.00,-0.0060
3024.00,-0.0061
3023.00,-0.0062
3022.00,-0.0063
3021.00,-0.0064
3020.00,-0.0065
3019.00,-0.0067
3018.00,-0.0068
3017.00,-0.0069
3016.00,-0.0070
3015.00,-0.0071
3014.00,-0.0072
3013.00,-0.0073
3012.00,-0.0074
3011.00,-0.0075
3010.00,-0.0075
3009.00,-0.0075
3008.00,-0.0076
3007.00,-0.0077
3006.00,-0.0079
3005.00,-0.0080
3004.00,-0.0081
3003.00,-0.0082
3002.00,-0.0083
3001.00,-0.0084
3000.00,-0.0084
2999.00,-0.0085
2998.00,-0.0086
2997.00,-0.0086
2996.00,-0.0086
2995.00,-0.0086
2994.00,-0.0086
2993.00,-0.0086
2992.00,-0.0086
2991.00,-0.0085
2990.00,-0.0085
2989.00,-0.0084
2988.00,-0.0083
2987.00,-0.0083
2986.00,-0.0084
2985.00,-0.0085
2984.00,-0.0086
2983.00,-0.0087
2982.00,-0.0088
2981.00,-0.0087
2980.00,-0.0085
2979.00,-0.0083
2978.00,-0.0080
2977.00,-0.0077
2976.00,-0.0075
2975.00,-0.0073
2974.00,-0.0072
2973.00,-0.0071
2972.00,-0.0070
2971.00,-0.0069
2970.00,-0.0067
2969.00,-0.0065
2968.00,-0.0063
2967.00,-0.0061
2966.00,-0.0060
2965.00,-0.0060
2964.00,-0.0059
2963.00,-0.0058
2962.00,-0.0058
2961.00,-0.0057
2960.00,-0.0057
2959.00,-0.0056
2958.00,-0.0057
2957.00,-0.0057
2956.00,-0.0057
2955.00,-0.0058
2954.00,-0.0058
2953.00,-0.0059
2952.00,-0.0059
2951.00,-0.0060
2950.00,-0.0060
2949.00,-0.0060
2948.00,-0.0060
2947.00,-0.0060
2946.00,-0.0060
2945.00,-0.0059
2944.00,-0.0058
2943.00,-0.0057
2942.00,-0.0056
2941.00,-0.0055
2940.00,-0.0053
2939.00,-0.0052
2938.00,-0.0051
2937.00,-0.0050
2936.00,-0.0049
2935.00,-0.0048
2934.00,-0.0048
2933.00,-0.0047
2932.00,-0.0047
2931.00,-0.0047
2930.00,-0.0047
2929.00,-0.0047
2928.00,-0.0047
2927.00,-0.0048
2926.00,-0.0049
2925.00,-0.0050
2924.00,-0.0051
2923.00,-0.0052
2922.00,-0.0053
2921.00,-0.0054
2920.00,-0.0056
2919.00,-0.0057
2918.00,-0.0059
2917.00,-0.0060
2916.00,-0.0062
2915.00,-0.0064
2914.00,-0.0066
2913.00,-0.0067
2912.00,-0.0069
2911.00,-0.0070
2910.00,-0.0071
2909.00,-0.0072
2908.00,-0.0073
2907.00,-0.0074
2906.00,-0.0075
2905.00,-0.0075
2904.00,-0.0076
2903.00,-0.0076
2902.00,-0.0077
2901.00,-0.0078
2900.00,-0.0079
2899.00,-0.0079
2898.00,-0.0080
2897.00,-0.0081
2896.00,-0.0082
2895.00,-0.0082
2894.00,-0.0083
2893.00,-0.0083
2892.00,-0.0084
2891.00,-0.0084
2890.00,-0.0084
2889.00,-0.0084
2888.00,-0.0083
2887.00,-0.0083
2886.00,-0.0082
2885.00,-0.0082
2884.00,-0.0081
2883.00,-0.0080
2882.00,-0.0079
2881.00,-0.0078
2880.00,-0.0077
2879.00,-0.0076
2878.00,-0.0075
2877.00,-0.0075
2876.00,-0.0074
2875.00,-0.0074
2874.00,-0.0074
2873.00,-0.0075
2872.00,-0.0075
2871.00,-0.0076
2870.00,-0.0077
2869.00,-0.0077
2868.00,-0.0078
2867.00,-0.0080
2866.00,-0.0081
2865.00,-0.0082
2864.00,-0.0083
2863.00,-0.0084
2862.00,-0.0085
2861.00,-0.0086
2860.00,-0.0086
2859.00,-0.0087
2858.00,-0.0088
2857.00,-0.0088
2856.00,-0.0088
2855.00,-0.0089
2854.00,-0.0089
2853.00,-0.0089
2852.00,-0.0090
2851.00,-0.0090
2850.00,-0.0091
2849.00,-0.0091
2848.00,-0.0092
2847.00,-0.0093
2846.00,-0.0094
2845.00,-0.0095
2844.00,-0.0096
2843.00,-0.0097
2842.00,-0.0097
2841.00,-0.0098
2840.00,-0.0099
2839.00,-0.0099
2838.00,-0.0100
2837.00,-0.0100
2836.00,-0.0101
2835.00,-0.0101
2834.00,-0.0101
2833.00,-0.0101
2832.00,-0.0101
2831.00,-0.0101
2830.00,-0.0102
2829.00,-0.0102
2828.00,-0.0103
2827.00,-0.0103
2826.00,-0.0103
2825.00,-0.0103
2824.00,-0.0103
2823.00,-0.0103
2822.00,-0.0103
2821.00,-0.0104
2820.00,-0.0104
2819.00,-0.0104
2818.00,-0.0105
2817.00,-0.0105
2816.00,-0.0105
2815.00,-0.0105
2814.00,-0.0106
2813.00,-0.0106
2812.00,-0.0106
2811.00,-0.0106
2810.00,-0.0106
2809.00,-0.0106
2808.00,-0.0106
2807.00,-0.0106
2806.00,-0.0106
2805.00,-0.0106
2804.00,-0.0106
2803.00,-0.0107
2802.00,-0.0108
2801.00,-0.0108
2800.00,-0.0109
2799.00,-0.0109
2798.00,-0.0110
2797.00,-0.0110
2796.00,-0.0110
2795.00,-0.0110
2794.00,-0.0110
2793.00,-0.0110
2792.00,-0.0110
2791.00,-0.0110
2790.00,-0.0110
2789.00,-0.0110
2788.00,-0.0111
2787.00,-0.0111
2786.00,-0.0111
2785.00,-0.0111
2784.00,-0.0111
2783.00,-0.0111
2782.00,-0.0111
2781.00,-0.0112
2780.00,-0.0112
2779.00,-0.0112
2778.00,-0.0112
2777.00,-0.0112
2776.00,-0.0113
2775.00,-0.0113
2774.00,-0.0113
2773.00,-0.0114
2772.00,-0.0114
2771.00,-0.0115
2770.00,-0.0115
2769.00,-0.0115
2768.00,-0.0115
2767.00,-0.0115
2766.00,-0.0115
2765.00,-0.0116
2764.00,-0.0116
2763.00,-0.0116
2762.00,-0.0116
2761.00,-0.0117
2760.00,-0.0117
2759.00,-0.0117
2758.00,-0.0117
2757.00,-0.0117
2756.00,-0.0117
2755.00,-0.0118
2754.00,-0.0118
2753.00,-0.0119
2752.00,-0.0119
2751.00,-0.0119
2750.00,-0.0119
2749.00,-0.0119
2748.00,-0.0120
2747.00,-0.0120
2746.00,-0.0120
2745.00,-0.0120
2744.00,-0.0121
2743.00,-0.0121
2742.00,-0.0121
2741.00,-0.0121
2740.00,-0.0121
2739.00,-0.0122
2738.00,-0.0122
2737.00,-0.0122
2736.00,-0.0122
2735.00,-0.0122
2734.00,-0.0123
2733.00,-0.0123
2732.00,-0.0124
2731.00,-0.0124
2730.00,-0.0124
2729.00,-0.0124
2728.00,-0.0124
2727.00,-0.0124
2726.00,-0.0125
2725.00,-0.0125
2724.00,-0.0126
2723.00,-0.0126
2722.00,-0.0126
2721.00,-0.0126
2720.00,-0.0127
2719.00,-0.0127
2718.00,-0.0127
2717.00,-0.0127
2716.00,-0.0127
2715.00,-0.0127
2714.00,-0.0128
2713.00,-0.0128
2712.00,-0.0128
2711.00,-0.0128
2710.00,-0.0128
2709.00,-0.0129
2708.00,-0.0129
2707.00,-0.0129
2706.00,-0.0130
2705.00,-0.0130
2704.00,-0.0131
2703.00,-0.0131
2702.00,-0.0132
2701.00,-0.0132
2700.00,-0.0132
2699.00,-0.0132
2698.00,-0.0132
2697.00,-0.0132
2696.00,-0.0132
2695.00,-0.0132
2694.00,-0.0132
2693.00,-0.0132
2692.00,-0.0133
2691.00,-0.0133
2690.00,-0.0133
2689.00,-0.0134
2688.00,-0.0134
2687.00,-0.0134
2686.00,-0.0134
2685.00,-0.0135
2684.00,-0.0135
2683.00,-0.0135
2682.00,-0.0135
2681.00,-0.0135
2680.00,-0.0136
2679.00,-0.0136
2678.00,-0.0136
2677.00,-0.0136
2676.00,-0.0136
2675.00,-0.0137
2674.00,-0.0137
2673.00,-0.0137
2672.00,-0.0137
2671.00,-0.0137
2670.00,-0.0137
2669.00,-0.0137
2668.00,-0.0138
2667.00,-0.0138
2666.00,-0.0139
2665.00,-0.0139
2664.00,-0.0139
2663.00,-0.0139
2662.00,-0.0140
2661.00,-0.0140
2660.00,-0.0140
2659.00,-0.0140
2658.00,-0.0140
2657.00,-0.0140
2656.00,-0.0140
2655.00,-0.0140
2654.00,-0.0140
2653.00,-0.0140
2652.00,-0.0140
2651.00,-0.0141
2650.00,-0.0141
2649.00,-0.0141
2648.00,-0.0141
2647.00,-0.0141
2646.00,-0.0141
2645.00,-0.0141
2644.00,-0.0141
2643.00,-0.0141
2642.00,-0.0141
2641.00,-0.0141
2640.00,-0.0141
2639.00,-0.0141
2638.00,-0.0141
2637.00,-0.0141
2636.00,-0.0141
2635.00,-0.0142
2634.00,-0.0142
2633.00,-0.0142
2632.00,-0.0142
2631.00,-0.0142
2630.00,-0.0142
2629.00,-0.0142
2628.00,-0.0143
2627.00,-0.0143
2626.00,-0.0143
2625.00,-0.0143
2624.00,-0.0142
2623.00,-0.0142
2622.00,-0.0143
2621.00,-0.0143
2620.00,-0.0143
2619.00,-0.0143
2618.00,-0.0143
2617.00,-0.0143
2616.00,-0.0143
2615.00,-0.0143
2614.00,-0.0143
2613.00,-0.0143
2612.00,-0.0143
2611.00,-0.0143
2610.00,-0.0144
2609.00,-0.0144
2608.00,-0.0144
2607.00,-0.0144
2606.00,-0.0144
2605.00,-0.0144
2604.00,-0.0144
2603.00,-0.0144
2602.00,-0.0145
2601.00,-0.0145
2600.00,-0.0145
2599.00,-0.0145
2598.00,-0.0145
2597.00,-0.0146
2596.00,-0.0146
2595.00,-0.0146
2594.00,-0.0146
2593.00,-0.0145
2592.00,-0.0145
2591.00,-0.0145
2590.00,-0.0145
2589.00,-0.0145
2588.00,-0.0145
2587.00,-0.0146
2586.00,-0.0146
2585.00,-0.0146
2584.00,-0.0147
2583.00,-0.0147
2582.00,-0.0148
2581.00,-0.0148
2580.00,-0.0148
2579.00,-0.0148
2578.00,-0.0148
2577.00,-0.0148
2576.00,-0.0148
2575.00,-0.0148
2574.00,-0.0149
2573.00,-0.0149
2572.00,-0.0149
2571.00,-0.0149
2570.00,-0.0149
2569.00,-0.0149
2568.00,-0.0148
2567.00,-0.0148
2566.00,-0.0149
2565.00,-0.0149
2564.00,-0.0149
2563.00,-0.0150
2562.00,-0.0150
2561.00,-0.0150
2560.00,-0.0150
2559.00,-0.0150
2558.00,-0.0150
2557.00,-0.0151
2556.00,-0.0151
2555.00,-0.0152
2554.00,-0.0152
2553.00,-0.0152
2552.00,-0.0153
2551.00,-0.0153
2550.00,-0.0153
2549.00,-0.0153
2548.00,-0.0153
2547.00,-0.0153
2546.00,-0.0153
2545.00,-0.0153
2544.00,-0.0153
2543.00,-0.0153
2542.00,-0.0154
2541.00,-0.0154
2540.00,-0.0154
2539.00,-0.0154
2538.00,-0.0153
2537.00,-0.0153
2536.00,-0.0154
2535.00,-0.0154
2534.00,-0.0154
2533.00,-0.0155
2532.00,-0.0155
2531.00,-0.0155
2530.00,-0.0155
2529.00,-0.0155
2528.00,-0.0155
2527.00,-0.0155
2526.00,-0.0155
2525.00,-0.0156
2524.00,-0.0156
2523.00,-0.0156
2522.00,-0.0156
2521.00,-0.0155
2520.00,-0.0155
2519.00,-0.0155
2518.00,-0.0155
2517.00,-0.0156
2516.00,-0.0156
2515.00,-0.0156
2514.00,-0.0156
2513.00,-0.0156
2512.00,-0.0156
2511.00,-0.0157
2510.00,-0.0158
2509.00,-0.0158
2508.00,-0.0158
2507.00,-0.0158
2506.00,-0.0158
2505.00,-0.0158
2504.00,-0.0158
2503.00,-0.0158
2502.00,-0.0158
2501.00,-0.0158
2500.00,-0.0158
2499.00,-0.0158
2498.00,-0.0158
2497.00,-0.0158
2496.00,-0.0158
2495.00,-0.0159
2494.00,-0.0159
2493.00,-0.0159
2492.00,-0.0158
2491.00,-0.0158
2490.00,-0.0159
2489.00,-0.0160
2488.00,-0.0160
2487.00,-0.0160
2486.00,-0.0160
2485.00,-0.0160
2484.00,-0.0160
2483.00,-0.0160
2482.00,-0.0160
2481.00,-0.0160
2480.00,-0.0160
2479.00,-0.0160
2478.00,-0.0160
2477.00,-0.0160
2476.00,-0.0160
2475.00,-0.0161
2474.00,-0.0161
2473.00,-0.0162
2472.00,-0.0162
2471.00,-0.0162
2470.00,-0.0161
2469.00,-0.0161
2468.00,-0.0161
2467.00,-0.0162
2466.00,-0.0162
2465.00,-0.0162
2464.00,-0.0163
2463.00,-0.0163
2462.00,-0.0163
2461.00,-0.0163
2460.00,-0.0163
2459.00,-0.0164
2458.00,-0.0164
2457.00,-0.0164
2456.00,-0.0164
2455.00,-0.0164
2454.00,-0.0164
2453.00,-0.0163
2452.00,-0.0163
2451.00,-0.0164
2450.00,-0.0164
2449.00,-0.0164
2448.00,-0.0164
2447.00,-0.0164
2446.00,-0.0164
2445.00,-0.0164
2444.00,-0.0165
2443.00,-0.0165
2442.00,-0.0166
2441.00,-0.0166
2440.00,-0.0165
2439.00,-0.0165
2438.00,-0.0165
2437.00,-0.0165
2436.00,-0.0165
2435.00,-0.0165
2434.00,-0.0166
2433.00,-0.0166
2432.00,-0.0166
2431.00,-0.0166
2430.00,-0.0166
2429.00,-0.0166
2428.00,-0.0167
2427.00,-0.0167
2426.00,-0.0167
2425.00,-0.0167
2424.00,-0.0167
2423.00,-0.0168
2422.00,-0.0168
2421.00,-0.0168
2420.00,-0.0169
2419.00,-0.0169
2418.00,-0.0169
2417.00,-0.0169
2416.00,-0.0169
2415.00,-0.0169
2414.00,-0.0169
2413.00,-0.0169
2412.00,-0.0169
2411.00,-0.0169
2410.00,-0.0169
2409.00,-0.0169
2408.00,-0.0169
2407.00,-0.0169
2406.00,-0.0170
2405.00,-0.0170
2404.00,-0.0171
2403.00,-0.0171
2402.00,-0.0171
2401.00,-0.0171
2400.00,-0.0171
2399.00,-0.0171
2398.00,-0.0171
2397.00,-0.0172
2396.00,-0.0172
2395.00,-0.0172
2394.00,-0.0172
2393.00,-0.0172
2392.00,-0.0172
2391.00,-0.0173
2390.00,-0.0173
2389.00,-0.0174
2388.00,-0.0174
2387.00,-0.0174
2386.00,-0.0173
2385.00,-0.0173
2384.00,-0.0173
2383.00,-0.0173
2382.00,-0.0173
2381.00,-0.0173
2380.00,-0.0173
2379.00,-0.0173
2378.00,-0.0173
2377.00,-0.0173
2376.00,-0.0173
2375.00,-0.0173
2374.00,-0.0173
2373.00,-0.0174
2372.00,-0.0174
2371.00,-0.0175
2370.00,-0.0175
2369.00,-0.0176
2368.00,-0.0175
2367.00,-0.0175
2366.00,-0.0175
2365.00,-0.0175
2364.00,-0.0175
2363.00,-0.0176
2362.00,-0.0176
2361.00,-0.0177
2360.00,-0.0177
2359.00,-0.0177
2358.00,-0.0177
2357.00,-0.0177
2356.00,-0.0177
2355.00,-0.0178
2354.00,-0.0178
2353.00,-0.0179
2352.00,-0.0179
2351.00,-0.0179
2350.00,-0.0179
2349.00,-0.0179
2348.00,-0.0179
2347.00,-0.0179
2346.00,-0.0179
2345.00,-0.0179
2344.00,-0.0178
2343.00,-0.0178
2342.00,-0.0178
2341.00,-0.0178
2340.00,-0.0178
2339.00,-0.0179
2338.00,-0.0179
2337.00,-0.0180
2336.00,-0.0180
2335.00,-0.0181
2334.00,-0.0181
2333.00,-0.0181
2332.00,-0.0181
2331.00,-0.0181
2330.00,-0.0181
2329.00,-0.0182
2328.00,-0.0182
2327.00,-0.0183
2326.00,-0.0183
2325.00,-0.0183
2324.00,-0.0183
2323.00,-0.0182
2322.00,-0.0182
2321.00,-0.0182
2320.00,-0.0183
2319.00,-0.0183
2318.00,-0.0183
2317.00,-0.0183
2316.00,-0.0183
2315.00,-0.0183
2314.00,-0.0183
2313.00,-0.0183
2312.00,-0.0183
2311.00,-0.0184
2310.00,-0.0184
2309.00,-0.0184
2308.00,-0.0184
2307.00,-0.0184
2306.00,-0.0184
2305.00,-0.0185
2304.00,-0.0185
2303.00,-0.0185
2302.00,-0.0184
2301.00,-0.0184
2300.00,-0.0184
2299.00,-0.0184
2298.00,-0.0184
2297.00,-0.0184
2296.00,-0.0185
2295.00,-0.0185
2294.00,-0.0186
2293.00,-0.0186
2292.00,-0.0186
2291.00,-0.0186
2290.00,-0.0186
2289.00,-0.0186
2288.00,-0.0186
2287.00,-0.0186
2286.00,-0.0186
2285.00,-0.0186
2284.00,-0.0187
2283.00,-0.0187
2282.00,-0.0188
2281.00,-0.0188
2280.00,-0.0187
2279.00,-0.0186
2278.00,-0.0186
2277.00,-0.0185
2276.00,-0.0185
2275.00,-0.0185
2274.00,-0.0186
2273.00,-0.0186
2272.00,-0.0187
2271.00,-0.0187
2270.00,-0.0187
2269.00,-0.0187
2268.00,-0.0188
2267.00,-0.0188
2266.00,-0.0188
2265.00,-0.0188
2264.00,-0.0188
2263.00,-0.0188
2262.00,-0.0188
2261.00,-0.0188
2260.00,-0.0188
2259.00,-0.0189
2258.00,-0.0190
2257.00,-0.0190
2256.00,-0.0189
2255.00,-0.0189
2254.00,-0.0187
2253.00,-0.0187
2252.00,-0.0187
2251.00,-0.0187
2250.00,-0.0188
2249.00,-0.0188
2248.00,-0.0188
2247.00,-0.0188
2246.00,-0.0189
2245.00,-0.0190
2244.00,-0.0191
2243.00,-0.0191
2242.00,-0.0191
2241.00,-0.0191
2240.00,-0.0192
2239.00,-0.0192
2238.00,-0.0193
2237.00,-0.0193
2236.00,-0.0193
2235.00,-0.0192
2234.00,-0.0192
2233.00,-0.0191
2232.00,-0.0191
2231.00,-0.0192
2230.00,-0.0193
2229.00,-0.0194
2228.00,-0.0194
2227.00,-0.0193
2226.00,-0.0193
2225.00,-0.0192
2224.00,-0.0191
2223.00,-0.0191
2222.00,-0.0191
2221.00,-0.0193
2220.00,-0.0194
2219.00,-0.0195
2218.00,-0.0194
2217.00,-0.0193
2216.00,-0.0192
2215.00,-0.0192
2214.00,-0.0192
2213.00,-0.0194
2212.00,-0.0196
2211.00,-0.0196
2210.00,-0.0195
2209.00,-0.0194
2208.00,-0.0193
2207.00,-0.0194
2206.00,-0.0195
2205.00,-0.0196
2204.00,-0.0197
2203.00,-0.0197
2202.00,-0.0196
2201.00,-0.0195
2200.00,-0.0194
2199.00,-0.0194
2198.00,-0.0194
2197.00,-0.0194
2196.00,-0.0194
2195.00,-0.0194
2194.00,-0.0194
2193.00,-0.0193
2192.00,-0.0192
2191.00,-0.0193
2190.00,-0.0194
2189.00,-0.0197
2188.00,-0.0198
2187.00,-0.0199
2186.00,-0.0198
2185.00,-0.0197
2184.00,-0.0197
2183.00,-0.0198
2182.00,-0.0199
2181.00,-0.0201
2180.00,-0.0201
2179.00,-0.0201
2178.00,-0.0200
2177.00,-0.0199
2176.00,-0.0199
2175.00,-0.0200
2174.00,-0.0201
2173.00,-0.0202
2172.00,-0.0202
2171.00,-0.0202
2170.00,-0.0201
2169.00,-0.0200
2168.00,-0.0199
2167.00,-0.0200
2166.00,-0.0202
2165.00,-0.0203
2164.00,-0.0202
2163.00,-0.0201
2162.00,-0.0199
2161.00,-0.0198
2160.00,-0.0199
2159.00,-0.0202
2158.00,-0.0202
2157.00,-0.0201
2156.00,-0.0199
2155.00,-0.0200
2154.00,-0.0202
2153.00,-0.0205
2152.00,-0.0206
2151.00,-0.0207
2150.00,-0.0207
2149.00,-0.0206
2148.00,-0.0204
2147.00,-0.0204
2146.00,-0.0204
2145.00,-0.0206
2144.00,-0.0207
2143.00,-0.0208
2142.00,-0.0207
2141.00,-0.0206
2140.00,-0.0205
2139.00,-0.0204
2138.00,-0.0204
2137.00,-0.0204
2136.00,-0.0204
2135.00,-0.0204
2134.00,-0.0205
2133.00,-0.0207
2132.00,-0.0208
2131.00,-0.0209
2130.00,-0.0208
2129.00,-0.0208
2128.00,-0.0207
2127.00,-0.0206
2126.00,-0.0207
2125.00,-0.0207
2124.00,-0.0208
2123.00,-0.0208
2122.00,-0.0208
2121.00,-0.0208
2120.00,-0.0207
2119.00,-0.0207
2118.00,-0.0207
2117.00,-0.0208
2116.00,-0.0209
2115.00,-0.0210
2114.00,-0.0211
2113.00,-0.0212
2112.00,-0.0211
2111.00,-0.0211
2110.00,-0.0210
2109.00,-0.0210
2108.00,-0.0210
2107.00,-0.0210
2106.00,-0.0210
2105.00,-0.0210
2104.00,-0.0209
2103.00,-0.0209
2102.00,-0.0209
2101.00,-0.0210
2100.00,-0.0212
2099.00,-0.0213
2098.00,-0.0213
2097.00,-0.0213
2096.00,-0.0212
2095.00,-0.0213
2094.00,-0.0213
2093.00,-0.0214
2092.00,-0.0215
2091.00,-0.0214
2090.00,-0.0213
2089.00,-0.0212
2088.00,-0.0212
2087.00,-0.0213
2086.00,-0.0213
2085.00,-0.0213
2084.00,-0.0213
2083.00,-0.0214
2082.00,-0.0215
2081.00,-0.0215
2080.00,-0.0216
2079.00,-0.0216
2078.00,-0.0215
2077.00,-0.0215
2076.00,-0.0215
2075.00,-0.0216
2074.00,-0.0216
2073.00,-0.0216
2072.00,-0.0216
2071.00,-0.0216
2070.00,-0.0216
2069.00,-0.0216
2068.00,-0.0216
2067.00,-0.0216
2066.00,-0.0216
2065.00,-0.0216
2064.00,-0.0215
2063.00,-0.0215
2062.00,-0.0216
2061.00,-0.0216
2060.00,-0.0216
2059.00,-0.0216
2058.00,-0.0216
2057.00,-0.0216
2056.00,-0.0217
2055.00,-0.0219
2054.00,-0.0220
2053.00,-0.0220
2052.00,-0.0221
2051.00,-0.0221
2050.00,-0.0221
2049.00,-0.0220
2048.00,-0.0219
2047.00,-0.0218
2046.00,-0.0216
2045.00,-0.0216
2044.00,-0.0216
2043.00,-0.0216
2042.00,-0.0216
2041.00,-0.0216
2040.00,-0.0216
2039.00,-0.0217
2038.00,-0.0218
2037.00,-0.0220
2036.00,-0.0224
2035.00,-0.0227
2034.00,-0.0228
2033.00,-0.0226
2032.00,-0.0225
2031.00,-0.0224
2030.00,-0.0224
2029.00,-0.0224
2028.00,-0.0224
2027.00,-0.0223
2026.00,-0.0222
2025.00,-0.0222
2024.00,-0.0222
2023.00,-0.0221
2022.00,-0.0221
2021.00,-0.0221
2020.00,-0.0222
2019.00,-0.0224
2018.00,-0.0224
2017.00,-0.0224
2016.00,-0.0222
2015.00,-0.0223
2014.00,-0.0224
2013.00,-0.0227
2012.00,-0.0228
2011.00,-0.0230
2010.00,-0.0231
2009.00,-0.0230
2008.00,-0.0228
2007.00,-0.0226
2006.00,-0.0225
2005.00,-0.0225
2004.00,-0.0225
2003.00,-0.0226
2002.00,-0.0227
2001.00,-0.0229
2000.00,-0.0231
1999.00,-0.0231
1998.00,-0.0230
1997.00,-0.0229
1996.00,-0.0228
1995.00,-0.0228
1994.00,-0.0229
1993.00,-0.0229
1992.00,-0.0230
1991.00,-0.0230
1990.00,-0.0230
1989.00,-0.0230
1988.00,-0.0230
1987.00,-0.0232
1986.00,-0.0234
1985.00,-0.0235
1984.00,-0.0235
1983.00,-0.0235
1982.00,-0.0235
1981.00,-0.0233
1980.00,-0.0231
1979.00,-0.0230
1978.00,-0.0230
1977.00,-0.0230
1976.00,-0.0230
1975.00,-0.0229
1974.00,-0.0230
1973.00,-0.0231
1972.00,-0.0233
1971.00,-0.0234
1970.00,-0.0234
1969.00,-0.0234
1968.00,-0.0234
1967.00,-0.0234
1966.00,-0.0235
1965.00,-0.0237
1964.00,-0.0237
1963.00,-0.0236
1962.00,-0.0234
1961.00,-0.0233
1960.00,-0.0233
1959.00,-0.0234
1958.00,-0.0234
1957.00,-0.0234
1956.00,-0.0233
1955.00,-0.0233
1954.00,-0.0233
1953.00,-0.0233
1952.00,-0.0235
1951.00,-0.0236
1950.00,-0.0237
1949.00,-0.0239
1948.00,-0.0240
1947.00,-0.0241
1946.00,-0.0243
1945.00,-0.0243
1944.00,-0.0243
1943.00,-0.0242
1942.00,-0.0242
1941.00,-0.0241
1940.00,-0.0241
1939.00,-0.0241
1938.00,-0.0241
1937.00,-0.0242
1936.00,-0.0243
1935.00,-0.0244
1934.00,-0.0245
1933.00,-0.0245
1932.00,-0.0245
1931.00,-0.0245
1930.00,-0.0246
1929.00,-0.0246
1928.00,-0.0246
1927.00,-0.0247
1926.00,-0.0247
1925.00,-0.0248
1924.00,-0.0250
1923.00,-0.0250
1922.00,-0.0250
1921.00,-0.0249
1920.00,-0.0248
1919.00,-0.0247
1918.00,-0.0248
1917.00,-0.0249
1916.00,-0.0251
1915.00,-0.0252
1914.00,-0.0252
1913.00,-0.0252
1912.00,-0.0252
1911.00,-0.0252
1910.00,-0.0252
1909.00,-0.0252
1908.00,-0.0252
1907.00,-0.0252
1906.00,-0.0252
1905.00,-0.0252
1904.00,-0.0253
1903.00,-0.0253
1902.00,-0.0254
1901.00,-0.0254
1900.00,-0.0255
1899.00,-0.0255
1898.00,-0.0255
1897.00,-0.0256
1896.00,-0.0256
1895.00,-0.0257
1894.00,-0.0257
1893.00,-0.0256
1892.00,-0.0256
1891.00,-0.0256
1890.00,-0.0256
1889.00,-0.0256
1888.00,-0.0257
1887.00,-0.0257
1886.00,-0.0258
1885.00,-0.0258
1884.00,-0.0259
1883.00,-0.0259
1882.00,-0.0259
1881.00,-0.0260
1880.00,-0.0260
1879.00,-0.0261
1878.00,-0.0261
1877.00,-0.0262
1876.00,-0.0262
1875.00,-0.0263
1874.00,-0.0264
1873.00,-0.0265
1872.00,-0.0265
1871.00,-0.0265
1870.00,-0.0265
1869.00,-0.0265
1868.00,-0.0265
1867.00,-0.0265
1866.00,-0.0265
1865.00,-0.0265
1864.00,-0.0265
1863.00,-0.0266
1862.00,-0.0266
1861.00,-0.0267
1860.00,-0.0267
1859.00,-0.0268
1858.00,-0.0269
1857.00,-0.0269
1856.00,-0.0270
1855.00,-0.0270
1854.00,-0.0270
1853.00,-0.0270
1852.00,-0.0270
1851.00,-0.0271
1850.00,-0.0271
1849.00,-0.0272
1848.00,-0.0272
1847.00,-0.0272
1846.00,-0.0272
1845.00,-0.0273
1844.00,-0.0274
1843.00,-0.0275
1842.00,-0.0276
1841.00,-0.0276
1840.00,-0.0276
1839.00,-0.0276
1838.00,-0.0276
1837.00,-0.0276
1836.00,-0.0276
1835.00,-0.0276
1834.00,-0.0277
1833.00,-0.0277
1832.00,-0.0277
1831.00,-0.0278
1830.00,-0.0279
1829.00,-0.0279
1828.00,-0.0279
1827.00,-0.0279
1826.00,-0.0280
1825.00,-0.0281
1824.00,-0.0281
1823.00,-0.0282
1822.00,-0.0282
1821.00,-0.0282
1820.00,-0.0283
1819.00,-0.0283
1818.00,-0.0283
1817.00,-0.0284
1816.00,-0.0284
1815.00,-0.0284
1814.00,-0.0284
1813.00,-0.0284
1812.00,-0.0284
1811.00,-0.0285
1810.00,-0.0285
1809.00,-0.0286
1808.00,-0.0287
1807.00,-0.0287
1806.00,-0.0288
1805.00,-0.0288
1804.00,-0.0289
1803.00,-0.0289
1802.00,-0.0290
1801.00,-0.0290
1800.00,-0.0290
1799.00,-0.0291
1798.00,-0.0291
1797.00,-0.0291
1796.00,-0.0291
1795.00,-0.0292
1794.00,-0.0293
1793.00,-0.0294
1792.00,-0.0294
1791.00,-0.0295
1790.00,-0.0295
1789.00,-0.0296
1788.00,-0.0296
1787.00,-0.0296
1786.00,-0.0297
1785.00,-0.0297
1784.00,-0.0298
1783.00,-0.0298
1782.00,-0.0299
1781.00,-0.0299
1780.00,-0.0299
1779.00,-0.0300
1778.00,-0.0300
1777.00,-0.0301
1776.00,-0.0301
1775.00,-0.0302
1774.00,-0.0302
1773.00,-0.0303
1772.00,-0.0304
1771.00,-0.0304
1770.00,-0.0305
1769.00,-0.0305
1768.00,-0.0306
1767.00,-0.0306
1766.00,-0.0307
1765.00,-0.0307
1764.00,-0.0308
1763.00,-0.0308
1762.00,-0.0310
1761.00,-0.0311
1760.00,-0.0312
1759.00,-0.0312
1758.00,-0.0312
1757.00,-0.0313
1756.00,-0.0313
1755.00,-0.0314
1754.00,-0.0314
1753.00,-0.0315
1752.00,-0.0316
1751.00,-0.0317
1750.00,-0.0318
1749.00,-0.0318
1748.00,-0.0318
1747.00,-0.0318
1746.00,-0.0319
1745.00,-0.0320
1744.00,-0.0321
1743.00,-0.0321
1742.00,-0.0322
1741.00,-0.0323
1740.00,-0.0324
1739.00,-0.0325
1738.00,-0.0325
1737.00,-0.0326
1736.00,-0.0326
1735.00,-0.0327
1734.00,-0.0330
1733.00,-0.0332
1732.00,-0.0333
1731.00,-0.0333
1730.00,-0.0333
1729.00,-0.0334
1728.00,-0.0334
1727.00,-0.0335
1726.00,-0.0335
1725.00,-0.0336
1724.00,-0.0336
1723.00,-0.0336
1722.00,-0.0336
1721.00,-0.0336
1720.00,-0.0336
1719.00,-0.0335
1718.00,-0.0334
1717.00,-0.0333
1716.00,-0.0331
1715.00,-0.0329
1714.00,-0.0326
1713.00,-0.0323
1712.00,-0.0319
1711.00,-0.0313
1710.00,-0.0307
1709.00,-0.0300
1708.00,-0.0291
1707.00,-0.0280
1706.00,-0.0267
1705.00,-0.0252
1704.00,-0.0235
1703.00,-0.0218
1702.00,-0.0199
1701.00,-0.0176
1700.00,-0.0151
1699.00,-0.0130
1698.00,-0.0116
1697.00,-0.0106
1696.00,-0.0098
1695.00,-0.0093
1694.00,-0.0089
1693.00,-0.0085
1692.00,-0.0081
1691.00,-0.0075
1690.00,-0.0069
1689.00,-0.0062
1688.00,-0.0055
1687.00,-0.0048
1686.00,-0.0040
1685.00,-0.0030
1684.00,-0.0018
1683.00,-0.0007
1682.00,0.0003
1681.00,0.0012
1680.00,0.0023
1679.00,0.0033
1678.00,0.0042
1677.00,0.0051
1676.00,0.0062
1675.00,0.0073
1674.00,0.0084
1673.00,0.0093
1672.00,0.0102
1671.00,0.0112
1670.00,0.0122
1669.00,0.0134
1668.00,0.0144
1667.00,0.0152
1666.00,0.0159
1665.00,0.0166
1664.00,0.0174
1663.00,0.0183
1662.00,0.0192
1661.00,0.0200
1660.00,0.0206
1659.00,0.0211
1658.00,0.0216
1657.00,0.0220
1656.00,0.0223
1655.00,0.0226
1654.00,0.0230
1653.00,0.0238
1652.00,0.0245
1651.00,0.0247
1650.00,0.0246
1649.00,0.0246
1648.00,0.0247
1647.00,0.0249
1646.00,0.0251
1645.00,0.0252
1644.00,0.0252
1643.00,0.0252
1642.00,0.0252
1641.00,0.0253
1640.00,0.0255
1639.00,0.0256
1638.00,0.0258
1637.00,0.0262
1636.00,0.0269
1635.00,0.0278
1634.00,0.0285
1633.00,0.0292
1632.00,0.0298
1631.00,0.0307
1630.00,0.0317
1629.00,0.0329
1628.00,0.0343
1627.00,0.0358
1626.00,0.0372
1625.00,0.0386
1624.00,0.0402
1623.00,0.0420
1622.00,0.0436
1621.00,0.0447
1620.00,0.0455
1619.00,0.0460
1618.00,0.0464
1617.00,0.0468
1616.00,0.0468
1615.00,0.0464
1614.00,0.0454
1613.00,0.0440
1612.00,0.0425
1611.00,0.0407
1610.00,0.0389
1609.00,0.0369
1608.00,0.0348
1607.00,0.0327
1606.00,0.0306
1605.00,0.0285
1604.00,0.0264
1603.00,0.0244
1602.00,0.0225
1601.00,0.0206
1600.00,0.0189
1599.00,0.0172
1598.00,0.0156
1597.00,0.0140
1596.00,0.0125
1595.00,0.0111
1594.00,0.0097
1593.00,0.0084
1592.00,0.0072
1591.00,0.0060
1590.00,0.0049
1589.00,0.0039
1588.00,0.0029
1587.00,0.0020
1586.00,0.0012
1585.00,0.0005
1584.00,-0.0001
1583.00,-0.0007
1582.00,-0.0013
1581.00,-0.0017
1580.00,-0.0021
1579.00,-0.0024
1578.00,-0.0025
1577.00,-0.0026
1576.00,-0.0025
1575.00,-0.0024
1574.00,-0.0022
1573.00,-0.0020
1572.00,-0.0018
1571.00,-0.0015
1570.00,-0.0010
1569.00,-0.0003
1568.00,0.0003
1567.00,0.0009
1566.00,0.0016
1565.00,0.0025
1564.00,0.0033
1563.00,0.0041
1562.00,0.0049
1561.00,0.0057
1560.00,0.0068
1559.00,0.0084
1558.00,0.0101
1557.00,0.0114
1556.00,0.0123
1555.00,0.0133
1554.00,0.0145
1553.00,0.0157
1552.00,0.0168
1551.00,0.0179
1550.00,0.0191
1549.00,0.0203
1548.00,0.0213
1547.00,0.0223
1546.00,0.0232
1545.00,0.0243
1544.00,0.0253
1543.00,0.0262
1542.00,0.0272
1541.00,0.0283
1540.00,0.0297
1539.00,0.0311
1538.00,0.0321
1537.00,0.0327
1536.00,0.0333
1535.00,0.0341
1534.00,0.0351
1533.00,0.0363
1532.00,0.0373
1531.00,0.0381
1530.00,0.0389
1529.00,0.0396
1528.00,0.0405
1527.00,0.0414
1526.00,0.0423
1525.00,0.0432
1524.00,0.0439
1523.00,0.0448
1522.00,0.0459
1521.00,0.0472
1520.00,0.0484
1519.00,0.0493
1518.00,0.0501
1517.00,0.0510
1516.00,0.0518
1515.00,0.0523
1514.00,0.0525
1513.00,0.0524
1512.00,0.0523
1511.00,0.0520
1510.00,0.0516
1509.00,0.0511
1508.00,0.0505
1507.00,0.0501
1506.00,0.0495
1505.00,0.0486
1504.00,0.0475
1503.00,0.0464
1502.00,0.0452
1501.00,0.0440
1500.00,0.0427
1499.00,0.0415
1498.00,0.0402
1497.00,0.0388
1496.00,0.0372
1495.00,0.0356
1494.00,0.0340
1493.00,0.0322
1492.00,0.0304
1491.00,0.0286
1490.00,0.0269
1489.00,0.0252
1488.00,0.0235
1487.00,0.0218
1486.00,0.0201
1485.00,0.0185
1484.00,0.0170
1483.00,0.0155
1482.00,0.0142
1481.00,0.0130
1480.00,0.0118
1479.00,0.0108
1478.00,0.0099
1477.00,0.0091
1476.00,0.0084
1475.00,0.0078
1474.00,0.0073
1473.00,0.0070
1472.00,0.0068
1471.00,0.0066
1470.00,0.0064
1469.00,0.0061
1468.00,0.0058
1467.00,0.0055
1466.00,0.0052
1465.00,0.0051
1464.00,0.0049
1463.00,0.0049
1462.00,0.0049
1461.00,0.0050
1460.00,0.0051
1459.00,0.0054
1458.00,0.0060
1457.00,0.0068
1456.00,0.0075
1455.00,0.0080
1454.00,0.0083
1453.00,0.0086
1452.00,0.0087
1451.00,0.0087
1450.00,0.0087
1449.00,0.0087
1448.00,0.0086
1447.00,0.0084
1446.00,0.0082
1445.00,0.0078
1444.00,0.0073
1443.00,0.0067
1442.00,0.0061
1441.00,0.0054
1440.00,0.0047
1439.00,0.0040
1438.00,0.0032
1437.00,0.0025
1436.00,0.0019
1435.00,0.0013
1434.00,0.0007
1433.00,0.0001
1432.00,-0.0004
1431.00,-0.0009
1430.00,-0.0012
1429.00,-0.0016
1428.00,-0.0018
1427.00,-0.0021
1426.00,-0.0022
1425.00,-0.0023
1424.00,-0.0023
1423.00,-0.0022
1422.00,-0.0022
1421.00,-0.0021
1420.00,-0.0019
1419.00,-0.0016
1418.00,-0.0013
1417.00,-0.0009
1416.00,-0.0006
1415.00,-0.0003
1414.00,0.0001
1413.00,0.0004
1412.00,0.0007
1411.00,0.0010
1410.00,0.0013
1409.00,0.0016
1408.00,0.0018
1407.00,0.0020
1406.00,0.0021
1405.00,0.0023
1404.00,0.0023
1403.00,0.0024
1402.00,0.0023
1401.00,0.0023
1400.00,0.0022
1399.00,0.0022
1398.00,0.0022
1397.00,0.0021
1396.00,0.0020
1395.00,0.0019
1394.00,0.0019
1393.00,0.0018
1392.00,0.0018
1391.00,0.0017
1390.00,0.0016
1389.00,0.0015
1388.00,0.0014
1387.00,0.0013
1386.00,0.0011
1385.00,0.0008
1384.00,0.0005
1383.00,0.0002
1382.00,-0.0000
1381.00,-0.0003
1380.00,-0.0006
1379.00,-0.0008
1378.00,-0.0010
1377.00,-0.0011
1376.00,-0.0013
1375.00,-0.0014
1374.00,-0.0014
1373.00,-0.0015
1372.00,-0.0017
1371.00,-0.0018
1370.00,-0.0020
1369.00,-0.0022
1368.00,-0.0025
1367.00,-0.0028
1366.00,-0.0032
1365.00,-0.0036
1364.00,-0.0040
1363.00,-0.0044
1362.00,-0.0047
1361.00,-0.0050
1360.00,-0.0052
1359.00,-0.0054
1358.00,-0.0055
1357.00,-0.0056
1356.00,-0.0056
1355.00,-0.0056
1354.00,-0.0056
1353.00,-0.0055
1352.00,-0.0055
1351.00,-0.0054
1350.00,-0.0053
1349.00,-0.0052
1348.00,-0.0051
1347.00,-0.0050
1346.00,-0.0049
1345.00,-0.0049
1344.00,-0.0049
1343.00,-0.0048
1342.00,-0.0047
1341.00,-0.0046
1340.00,-0.0046
1339.00,-0.0046
1338.00,-0.0045
1337.00,-0.0046
1336.00,-0.0046
1335.00,-0.0047
1334.00,-0.0047
1333.00,-0.0048
1332.00,-0.0048
1331.00,-0.0049
1330.00,-0.0050
1329.00,-0.0051
1328.00,-0.0052
1327.00,-0.0053
1326.00,-0.0053
1325.00,-0.0054
1324.00,-0.0055
1323.00,-0.0055
1322.00,-0.0056
1321.00,-0.0057
1320.00,-0.0057
1319.00,-0.0058
1318.00,-0.0059
1317.00,-0.0059
1316.00,-0.0060
1315.00,-0.0060
1314.00,-0.0060
1313.00,-0.0060
1312.00,-0.0060
1311.00,-0.0061
1310.00,-0.0061
1309.00,-0.0062
1308.00,-0.0063
1307.00,-0.0063
1306.00,-0.0064
1305.00,-0.0065
1304.00,-0.0066
1303.00,-0.0066
1302.00,-0.0067
1301.00,-0.0068
1300.00,-0.0070
1299.00,-0.0071
1298.00,-0.0072
1297.00,-0.0073
1296.00,-0.0075
1295.00,-0.0076
1294.00,-0.0076
1293.00,-0.0077
1292.00,-0.0078
1291.00,-0.0078
1290.00,-0.0078
1289.00,-0.0079
1288.00,-0.0079
1287.00,-0.0080
1286.00,-0.0080
1285.00,-0.0081
1284.00,-0.0082
1283.00,-0.0083
1282.00,-0.0084
1281.00,-0.0086
1280.00,-0.0088
1279.00,-0.0089
1278.00,-0.0091
1277.00,-0.0092
1276.00,-0.0094
1275.00,-0.0095
1274.00,-0.0096
1273.00,-0.0098
1272.00,-0.0099
1271.00,-0.0100
1270.00,-0.0101
1269.00,-0.0102
1268.00,-0.0103
1267.00,-0.0103
1266.00,-0.0104
1265.00,-0.0104
1264.00,-0.0104
1263.00,-0.0104
1262.00,-0.0103
1261.00,-0.0102
1260.00,-0.0101
1259.00,-0.0101
1258.00,-0.0099
1257.00,-0.0098
1256.00,-0.0096
1255.00,-0.0093
1254.00,-0.0090
1253.00,-0.0087
1252.00,-0.0084
1251.00,-0.0080
1250.00,-0.0076
1249.00,-0.0072
1248.00,-0.0067
1247.00,-0.0064
1246.00,-0.0060
1245.00,-0.0057
1244.00,-0.0053
1243.00,-0.0050
1242.00,-0.0047
1241.00,-0.0044
1240.00,-0.0041
1239.00,-0.0038
1238.00,-0.0035
1237.00,-0.0032
1236.00,-0.0029
1235.00,-0.0026
1234.00,-0.0023
1233.00,-0.0021
1232.00,-0.0019
1231.00,-0.0017
1230.00,-0.0015
1229.00,-0.0013
1228.00,-0.0012
1227.00,-0.0011
1226.00,-0.0011
1225.00,-0.0011
1224.00,-0.0012
1223.00,-0.0012
1222.00,-0.0013
1221.00,-0.0014
1220.00,-0.0015
1219.00,-0.0016
1218.00,-0.0018
1217.00,-0.0020
1216.00,-0.0023
1215.00,-0.0027
1214.00,-0.0030
1213.00,-0.0034
1212.00,-0.0037
1211.00,-0.0041
1210.00,-0.0046
1209.00,-0.0050
1208.00,-0.0055
1207.00,-0.0060
1206.00,-0.0065
1205.00,-0.0070
1204.00,-0.0075
1203.00,-0.0080
1202.00,-0.0085
1201.00,-0.0091
1200.00,-0.0096
1199.00,-0.0102
1198.00,-0.0107
1197.00,-0.0111
1196.00,-0.0115
1195.00,-0.0119
1194.00,-0.0122
1193.00,-0.0126
1192.00,-0.0130
1191.00,-0.0134
1190.00,-0.0137
1189.00,-0.0140
1188.00,-0.0143
1187.00,-0.0146
1186.00,-0.0148
1185.00,-0.0151
1184.00,-0.0153
1183.00,-0.0156
1182.00,-0.0158
1181.00,-0.0160
1180.00,-0.0162
1179.00,-0.0163
1178.00,-0.0164
1177.00,-0.0164
1176.00,-0.0164
1175.00,-0.0163
1174.00,-0.0161
1173.00,-0.0160
1172.00,-0.0158
1171.00,-0.0157
1170.00,-0.0156
1169.00,-0.0155
1168.00,-0.0154
1167.00,-0.0153
1166.00,-0.0153
1165.00,-0.0152
1164.00,-0.0152
1163.00,-0.0152
1162.00,-0.0152
1161.00,-0.0152
1160.00,-0.0152
1159.00,-0.0153
1158.00,-0.0154
1157.00,-0.0156
1156.00,-0.0159
1155.00,-0.0161
1154.00,-0.0164
1153.00,-0.0167
1152.00,-0.0170
1151.00,-0.0174
1150.00,-0.0178
1149.00,-0.0182
1148.00,-0.0186
1147.00,-0.0190
1146.00,-0.0193
1145.00,-0.0196
1144.00,-0.0199
1143.00,-0.0201
1142.00,-0.0203
1141.00,-0.0205
1140.00,-0.0208
1139.00,-0.0211
1138.00,-0.0213
1137.00,-0.0216
1136.00,-0.0219
1135.00,-0.0221
1134.00,-0.0223
1133.00,-0.0225
1132.00,-0.0228
1131.00,-0.0230
1130.00,-0.0231
1129.00,-0.0232
1128.00,-0.0233
1127.00,-0.0235
1126.00,-0.0236
1125.00,-0.0238
1124.00,-0.0240
1123.00,-0.0242
1122.00,-0.0244
1121.00,-0.0245
1120.00,-0.0247
1119.00,-0.0248
1118.00,-0.0249
1117.00,-0.0250
1116.00,-0.0251
1115.00,-0.0251
1114.00,-0.0252
1113.00,-0.0253
1112.00,-0.0254
1111.00,-0.0255
1110.00,-0.0256
1109.00,-0.0257
1108.00,-0.0258
1107.00,-0.0258
1106.00,-0.0258
1105.00,-0.0258
1104.00,-0.0259
1103.00,-0.0259
1102.00,-0.0260
1101.00,-0.0260
1100.00,-0.0260
1099.00,-0.0260
1098.00,-0.0260
1097.00,-0.0260
1096.00,-0.0258
1095.00,-0.0257
1094.00,-0.0254
1093.00,-0.0252
1092.00,-0.0250
1091.00,-0.0247
1090.00,-0.0243
1089.00,-0.0240
1088.00,-0.0236
1087.00,-0.0232
1086.00,-0.0226
1085.00,-0.0221
1084.00,-0.0216
1083.00,-0.0211
1082.00,-0.0206
1081.00,-0.0200
1080.00,-0.0195
1079.00,-0.0189
1078.00,-0.0183
1077.00,-0.0178
1076.00,-0.0174
1075.00,-0.0170
1074.00,-0.0166
1073.00,-0.0161
1072.00,-0.0157
1071.00,-0.0154
1070.00,-0.0150
1069.00,-0.0147
1068.00,-0.0145
1067.00,-0.0144
1066.00,-0.0143
1065.00,-0.0142
1064.00,-0.0142
1063.00,-0.0143
1062.00,-0.0145
1061.00,-0.0148
1060.00,-0.0151
1059.00,-0.0154
1058.00,-0.0157
1057.00,-0.0161
1056.00,-0.0165
1055.00,-0.0169
1054.00,-0.0172
1053.00,-0.0176
1052.00,-0.0180
1051.00,-0.0183
1050.00,-0.0185
1049.00,-0.0187
1048.00,-0.0191
1047.00,-0.0195
1046.00,-0.0198
1045.00,-0.0201
1044.00,-0.0204
1043.00,-0.0207
1042.00,-0.0210
1041.00,-0.0213
1040.00,-0.0217
1039.00,-0.0221
1038.00,-0.0224
1037.00,-0.0227
1036.00,-0.0231
1035.00,-0.0234
1034.00,-0.0236
1033.00,-0.0239
1032.00,-0.0242
1031.00,-0.0246
1030.00,-0.0249
1029.00,-0.0252
1028.00,-0.0256
1027.00,-0.0260
1026.00,-0.0265
1025.00,-0.0270
1024.00,-0.0275
1023.00,-0.0280
1022.00,-0.0285
1021.00,-0.0289
1020.00,-0.0293
1019.00,-0.0297
1018.00,-0.0301
1017.00,-0.0304
1016.00,-0.0308
1015.00,-0.0312
1014.00,-0.0315
1013.00,-0.0319
1012.00,-0.0322
1011.00,-0.0324
1010.00,-0.0327
1009.00,-0.0329
1008.00,-0.0331
1007.00,-0.0333
1006.00,-0.0335
1005.00,-0.0337
1004.00,-0.0339
1003.00,-0.0340
1002.00,-0.0342
1001.00,-0.0344
1000.00,-0.0346
999.00,-0.0348
998.00,-0.0349
997.00,-0.0350
996.00,-0.0351
995.00,-0.0352
994.00,-0.0352
993.00,-0.0353
992.00,-0.0354
991.00,-0.0354
990.00,-0.0354
989.00,-0.0355
988.00,-0.0355
987.00,-0.0356
986.00,-0.0357
985.00,-0.0357
984.00,-0.0358
983.00,-0.0357
982.00,-0.0357
981.00,-0.0356
980.00,-0.0356
979.00,-0.0356
978.00,-0.0356
977.00,-0.0355
976.00,-0.0355
975.00,-0.0354
974.00,-0.0354
973.00,-0.0355
972.00,-0.0355
971.00,-0.0354
970.00,-0.0354
969.00,-0.0353
968.00,-0.0352
967.00,-0.0351
966.00,-0.0350
965.00,-0.0349
964.00,-0.0348
963.00,-0.0347
962.00,-0.0346
961.00,-0.0346
960.00,-0.0346
959.00,-0.0347
958.00,-0.0348
957.00,-0.0350
956.00,-0.0352
955.00,-0.0354
954.00,-0.0355
953.00,-0.0357
952.00,-0.0358
951.00,-0.0359
950.00,-0.0360
949.00,-0.0361
948.00,-0.0362
947.00,-0.0363
946.00,-0.0364
945.00,-0.0364
944.00,-0.0364
943.00,-0.0364
942.00,-0.0363
941.00,-0.0363
940.00,-0.0363
939.00,-0.0363
938.00,-0.0363
937.00,-0.0362
936.00,-0.0362
935.00,-0.0361
934.00,-0.0359
933.00,-0.0359
932.00,-0.0358
931.00,-0.0358
930.00,-0.0358
929.00,-0.0358
928.00,-0.0358
927.00,-0.0359
926.00,-0.0361
925.00,-0.0362
924.00,-0.0365
923.00,-0.0367
922.00,-0.0369
921.00,-0.0372
920.00,-0.0374
919.00,-0.0377
918.00,-0.0379
917.00,-0.0381
916.00,-0.0383
915.00,-0.0385
914.00,-0.0387
913.00,-0.0388
912.00,-0.0389
911.00,-0.0390
910.00,-0.0390
909.00,-0.0390
908.00,-0.0390
907.00,-0.0390
906.00,-0.0390
905.00,-0.0390
904.00,-0.0390
903.00,-0.0391
902.00,-0.0391
901.00,-0.0391
900.00,-0.0391
899.00,-0.0392
898.00,-0.0392
897.00,-0.0393
896.00,-0.0395
895.00,-0.0396
894.00,-0.0396
893.00,-0.0397
892.00,-0.0398
891.00,-0.0399
890.00,-0.0400
889.00,-0.0400
888.00,-0.0402
887.00,-0.0402
886.00,-0.0403
885.00,-0.0404
884.00,-0.0404
883.00,-0.0405
882.00,-0.0405
881.00,-0.0406
880.00,-0.0407
879.00,-0.0407
878.00,-0.0407
877.00,-0.0407
876.00,-0.0407
875.00,-0.0407
874.00,-0.0407
873.00,-0.0407
872.00,-0.0408
871.00,-0.0409
870.00,-0.0411
869.00,-0.0412
868.00,-0.0414
867.00,-0.0416
866.00,-0.0418
865.00,-0.0419
864.00,-0.0421
863.00,-0.0422
862.00,-0.0423
861.00,-0.0424
860.00,-0.0426
859.00,-0.0427
858.00,-0.0427
857.00,-0.0426
856.00,-0.0427
855.00,-0.0427
854.00,-0.0427
853.00,-0.0427
852.00,-0.0428
851.00,-0.0429
850.00,-0.0429
849.00,-0.0430
848.00,-0.0431
847.00,-0.0431
846.00,-0.0431
845.00,-0.0431
844.00,-0.0432
843.00,-0.0433
842.00,-0.0433
841.00,-0.0433
840.00,-0.0433
839.00,-0.0432
838.00,-0.0430
837.00,-0.0429
836.00,-0.0429
835.00,-0.0428
834.00,-0.0426
833.00,-0.0425
832.00,-0.0424
831.00,-0.0422
830.00,-0.0421
829.00,-0.0419
828.00,-0.0419
827.00,-0.0419
826.00,-0.0419
825.00,-0.0420
824.00,-0.0421
823.00,-0.0422
822.00,-0.0421
821.00,-0.0420
820.00,-0.0418
819.00,-0.0417
818.00,-0.0416
817.00,-0.0416
816.00,-0.0415
815.00,-0.0415
814.00,-0.0414
813.00,-0.0414
812.00,-0.0413
811.00,-0.0412
810.00,-0.0410
809.00,-0.0409
808.00,-0.0409
807.00,-0.0409
806.00,-0.0408
805.00,-0.0408
804.00,-0.0408
803.00,-0.0408
802.00,-0.0408
801.00,-0.0407
800.00,-0.0407
799.00,-0.0406
798.00,-0.0405
797.00,-0.0405
796.00,-0.0405
795.00,-0.0404
794.00,-0.0403
793.00,-0.0401
792.00,-0.0400
791.00,-0.0399
790.00,-0.0398
789.00,-0.0397
788.00,-0.0395
787.00,-0.0394
786.00,-0.0392
785.00,-0.0390
784.00,-0.0389
783.00,-0.0388
782.00,-0.0388
781.00,-0.0387
780.00,-0.0387
779.00,-0.0385
778.00,-0.0383
777.00,-0.0381
776.00,-0.0378
775.00,-0.0376
774.00,-0.0374
773.00,-0.0373
772.00,-0.0373
771.00,-0.0374
770.00,-0.0375
769.00,-0.0377
768.00,-0.0376
767.00,-0.0374
766.00,-0.0369
765.00,-0.0365
764.00,-0.0362
763.00,-0.0359
762.00,-0.0358
761.00,-0.0356
760.00,-0.0355
759.00,-0.0353
758.00,-0.0352
757.00,-0.0350
756.00,-0.0349
755.00,-0.0347
754.00,-0.0344
753.00,-0.0341
752.00,-0.0338
751.00,-0.0335
750.00,-0.0332
749.00,-0.0329
748.00,-0.0327
747.00,-0.0326
746.00,-0.0325
745.00,-0.0325
744.00,-0.0325
743.00,-0.0324
742.00,-0.0323
741.00,-0.0323
740.00,-0.0323
739.00,-0.0323
738.00,-0.0322
737.00,-0.0322
736.00,-0.0322
735.00,-0.0321
734.00,-0.0319
733.00,-0.0316
732.00,-0.0313
731.00,-0.0310
730.00,-0.0307
729.00,-0.0304
728.00,-0.0302
727.00,-0.0299
726.00,-0.0295
725.00,-0.0290
724.00,-0.0286
723.00,-0.0281
722.00,-0.0275
721.00,-0.0269
720.00,-0.0264
719.00,-0.0258
718.00,-0.0252
717.00,-0.0246
716.00,-0.0240
715.00,-0.0233
714.00,-0.0226
713.00,-0.0220
712.00,-0.0213
711.00,-0.0206
710.00,-0.0198
709.00,-0.0190
708.00,-0.0182
707.00,-0.0174
706.00,-0.0165
705.00,-0.0155
704.00,-0.0146
703.00,-0.0137
702.00,-0.0128
701.00,-0.0123
700.00,-0.0120
699.00,-0.0117
698.00,-0.0116
697.00,-0.0114
696.00,-0.0114
695.00,-0.0114
694.00,-0.0113
693.00,-0.0113
692.00,-0.0114
691.00,-0.0115
690.00,-0.0115
689.00,-0.0114
688.00,-0.0114
687.00,-0.0114
686.00,-0.0113
685.00,-0.0113
684.00,-0.0112
683.00,-0.0112
682.00,-0.0113
681.00,-0.0113
680.00,-0.0114
679.00,-0.0114
678.00,-0.0113
677.00,-0.0113
676.00,-0.0113
675.00,-0.0113
674.00,-0.0112
673.00,-0.0112
672.00,-0.0113
671.00,-0.0113
670.00,-0.0113
669.00,-0.0114
668.00,-0.0116
667.00,-0.0117
666.00,-0.0115
665.00,-0.0114
664.00,-0.0113
663.00,-0.0112
662.00,-0.0111
661.00,-0.0109
660.00,-0.0109
659.00,-0.0109
658.00,-0.0108
657.00,-0.0107
656.00,-0.0106
655.00,-0.0104
654.00,-0.0102
653.00,-0.0101
652.00,-0.0100
651.00,-0.0101
650.00,-0.0100
649.00,-0.0098
648.00,-0.0097
647.00,-0.0095
646.00,-0.0093
645.00,-0.0091
644.00,-0.0089
643.00,-0.0087
642.00,-0.0085
641.00,-0.0083
640.00,-0.0082
639.00,-0.0080
638.00,-0.0078
637.00,-0.0075
636.00,-0.0073
635.00,-0.0072
634.00,-0.0071
633.00,-0.0069
632.00,-0.0068
631.00,-0.0066
630.00,-0.0063
629.00,-0.0062
628.00,-0.0061
627.00,-0.0061
626.00,-0.0060
625.00,-0.0059
624.00,-0.0060
623.00,-0.0062
622.00,-0.0064
621.00,-0.0066
620.00,-0.0068
619.00,-0.0069
618.00,-0.0069
617.00,-0.0069
616.00,-0.0070
615.00,-0.0071
614.00,-0.0073
613.00,-0.0075
612.00,-0.0078
611.00,-0.0081
610.00,-0.0083
609.00,-0.0084
608.00,-0.0085
607.00,-0.0085
606.00,-0.0084
605.00,-0.0085
604.00,-0.0087
603.00,-0.0089
602.00,-0.0088
601.00,-0.0088
600.00,-0.0089
599.00,-0.0091
598.00,-0.0091
597.00,-0.0092
596.00,-0.0093
595.00,-0.0094
594.00,-0.0094
593.00,-0.0093
592.00,-0.0094
591.00,-0.0094
590.00,-0.0091
589.00,-0.0089
588.00,-0.0088
587.00,-0.0088
586.00,-0.0088
585.00,-0.0089
584.00,-0.0091
583.00,-0.0091
582.00,-0.0090
581.00,-0.0088
580.00,-0.0087
579.00,-0.0086
578.00,-0.0084
577.00,-0.0082
576.00,-0.0081
575.00,-0.0080
574.00,-0.0079
573.00,-0.0078
572.00,-0.0080
571.00,-0.0082
570.00,-0.0084
569.00,-0.0086
568.00,-0.0088
567.00,-0.0087
566.00,-0.0083
565.00,-0.0078
564.00,-0.0076
563.00,-0.0075
562.00,-0.0075
561.00,-0.0075
560.00,-0.0075
559.00,-0.0076
558.00,-0.0075
557.00,-0.0074
556.00,-0.0074
555.00,-0.0074
554.00,-0.0075
553.00,-0.0076
552.00,-0.0078
551.00,-0.0078
550.00,-0.0076
549.00,-0.0074
548.00,-0.0075
547.00,-0.0076
546.00,-0.0077
545.00,-0.0079
544.00,-0.0082
543.00,-0.0083
542.00,-0.0081
541.00,-0.0078
540.00,-0.0077
539.00,-0.0077
538.00,-0.0078
537.00,-0.0079
536.00,-0.0080
535.00,-0.0081
534.00,-0.0079
533.00,-0.0077
532.00,-0.0075
531.00,-0.0074
530.00,-0.0074
529.00,-0.0076
528.00,-0.0079
527.00,-0.0081
526.00,-0.0079
525.00,-0.0078
524.00,-0.0078
523.00,-0.0078
522.00,-0.0078
521.00,-0.0077
520.00,-0.0077
519.00,-0.0078
518.00,-0.0078
517.00,-0.0080
516.00,-0.0083
515.00,-0.0085
514.00,-0.0085
513.00,-0.0086
512.00,-0.0088
511.00,-0.0091
510.00,-0.0091
509.00,-0.0090
508.00,-0.0092
507.00,-0.0092
506.00,-0.0090
505.00,-0.0088
504.00,-0.0088
503.00,-0.0088
502.00,-0.0088
501.00,-0.0091
500.00,-0.0095
499.00,-0.0098
498.00,-0.0098
497.00,-0.0098
496.00,-0.0100
495.00,-0.0102
494.00,-0.0102
493.00,-0.0102
492.00,-0.0103
491.00,-0.0104
490.00,-0.0106
489.00,-0.0108
488.00,-0.0111
487.00,-0.0110
486.00,-0.0105
485.00,-0.0103
484.00,-0.0108
483.00,-0.0115
482.00,-0.0118
481.00,-0.0120
480.00,-0.0121
479.00,-0.0119
478.00,-0.0114
477.00,-0.0111
476.00,-0.0114
475.00,-0.0119
474.00,-0.0120
473.00,-0.0121
472.00,-0.0122
471.00,-0.0121
470.00,-0.0116
469.00,-0.0112
468.00,-0.0111
467.00,-0.0113
466.00,-0.0114
465.00,-0.0117
464.00,-0.0120
463.00,-0.0120
462.00,-0.0118
461.00,-0.0118
460.00,-0.0122
459.00,-0.0125
458.00,-0.0124
457.00,-0.0124
456.00,-0.0126
455.00,-0.0125
454.00,-0.0121
453.00,-0.0117
452.00,-0.0118
451.00,-0.0121
450.00,-0.0122
449.00,-0.0124
448.00,-0.0128
447.00,-0.0129
446.00,-0.0126
445.00,-0.0126
444.00,-0.0132
443.00,-0.0139
442.00,-0.0144
441.00,-0.0149
440.00,-0.0153
439.00,-0.0154
438.00,-0.0152
437.00,-0.0154
436.00,-0.0162
435.00,-0.0169
434.00,-0.0170
433.00,-0.0173
432.00,-0.0181
431.00,-0.0187
430.00,-0.0189
429.00,-0.0193
428.00,-0.0203
427.00,-0.0211
426.00,-0.0211
425.00,-0.0211
424.00,-0.0215
423.00,-0.0218
422.00,-0.0215
421.00,-0.0216
420.00,-0.0225
419.00,-0.0231
418.00,-0.0226
417.00,-0.0220
416.00,-0.0221
415.00,-0.0224
414.00,-0.0221
413.00,-0.0221
412.00,-0.0228
411.00,-0.0234
410.00,-0.0231
409.00,-0.0231
408.00,-0.0243
407.00,-0.0254
406.00,-0.0253
405.00,-0.0252
404.00,-0.0262
403.00,-0.0269
402.00,-0.0258
401.00,-0.0244
400.00,-0.0247
