Created as New Dataset,Sample 653 By YargerLab Date Tuesday, June 10 2025
cm-1,A
4000.00,0.0112
3999.00,0.0112
3998.00,0.0111
3997.00,0.0112
3996.00,0.0111
3995.00,0.0112
3994.00,0.0112
3993.00,0.0112
3992.00,0.0112
3991.00,0.0112
3990.00,0.0112
3989.00,0.0112
3988.00,0.0111
3987.00,0.0112
3986.00,0.0112
3985.00,0.0112
3984.00,0.0112
3983.00,0.0112
3982.00,0.0112
3981.00,0.0111
3980.00,0.0111
3979.00,0.0111
3978.00,0.0111
3977.00,0.0111
3976.00,0.0111
3975.00,0.0111
3974.00,0.0111
3973.00,0.0111
3972.00,0.0111
3971.00,0.0112
3970.00,0.0111
3969.00,0.0111
3968.00,0.0111
3967.00,0.0111
3966.00,0.0111
3965.00,0.0111
3964.00,0.0111
3963.00,0.0111
3962.00,0.0111
3961.00,0.0111
3960.00,0.0112
3959.00,0.0112
3958.00,0.0112
3957.00,0.0112
3956.00,0.0112
3955.00,0.0112
3954.00,0.0112
3953.00,0.0111
3952.00,0.0111
3951.00,0.0111
3950.00,0.0111
3949.00,0.0111
3948.00,0.0111
3947.00,0.0111
3946.00,0.0111
3945.00,0.0112
3944.00,0.0112
3943.00,0.0111
3942.00,0.0111
3941.00,0.0111
3940.00,0.0111
3939.00,0.0111
3938.00,0.0111
3937.00,0.0112
3936.00,0.0112
3935.00,0.0112
3934.00,0.0112
3933.00,0.0112
3932.00,0.0112
3931.00,0.0112
3930.00,0.0111
3929.00,0.0111
3928.00,0.0111
3927.00,0.0111
3926.00,0.0111
3925.00,0.0111
3924.00,0.0111
3923.00,0.0110
3922.00,0.0110
3921.00,0.0110
3920.00,0.0110
3919.00,0.0110
3918.00,0.0110
3917.00,0.0110
3916.00,0.0110
3915.00,0.0110
3914.00,0.0110
3913.00,0.0110
3912.00,0.0110
3911.00,0.0110
3910.00,0.0110
3909.00,0.0110
3908.00,0.0110
3907.00,0.0110
3906.00,0.0110
3905.00,0.0110
3904.00,0.0111
3903.00,0.0111
3902.00,0.0111
3901.00,0.0111
3900.00,0.0111
3899.00,0.0111
3898.00,0.0111
3897.00,0.0112
3896.00,0.0112
3895.00,0.0111
3894.00,0.0111
3893.00,0.0111
3892.00,0.0110
3891.00,0.0110
3890.00,0.0110
3889.00,0.0110
3888.00,0.0110
3887.00,0.0110
3886.00,0.0110
3885.00,0.0110
3884.00,0.0110
3883.00,0.0110
3882.00,0.0109
3881.00,0.0109
3880.00,0.0109
3879.00,0.0109
3878.00,0.0109
3877.00,0.0109
3876.00,0.0110
3875.00,0.0110
3874.00,0.0110
3873.00,0.0110
3872.00,0.0110
3871.00,0.0110
3870.00,0.0110
3869.00,0.0109
3868.00,0.0110
3867.00,0.0110
3866.00,0.0111
3865.00,0.0111
3864.00,0.0111
3863.00,0.0110
3862.00,0.0110
3861.00,0.0110
3860.00,0.0110
3859.00,0.0110
3858.00,0.0109
3857.00,0.0109
3856.00,0.0109
3855.00,0.0109
3854.00,0.0108
3853.00,0.0108
3852.00,0.0109
3851.00,0.0109
3850.00,0.0109
3849.00,0.0109
3848.00,0.0109
3847.00,0.0109
3846.00,0.0109
3845.00,0.0109
3844.00,0.0109
3843.00,0.0109
3842.00,0.0109
3841.00,0.0109
3840.00,0.0109
3839.00,0.0109
3838.00,0.0109
3837.00,0.0109
3836.00,0.0109
3835.00,0.0109
3834.00,0.0109
3833.00,0.0109
3832.00,0.0109
3831.00,0.0109
3830.00,0.0109
3829.00,0.0109
3828.00,0.0108
3827.00,0.0108
3826.00,0.0108
3825.00,0.0108
3824.00,0.0108
3823.00,0.0108
3822.00,0.0108
3821.00,0.0108
3820.00,0.0108
3819.00,0.0108
3818.00,0.0108
3817.00,0.0108
3816.00,0.0108
3815.00,0.0108
3814.00,0.0108
3813.00,0.0107
3812.00,0.0107
3811.00,0.0107
3810.00,0.0107
3809.00,0.0108
3808.00,0.0108
3807.00,0.0108
3806.00,0.0109
3805.00,0.0109
3804.00,0.0109
3803.00,0.0109
3802.00,0.0109
3801.00,0.0108
3800.00,0.0108
3799.00,0.0108
3798.00,0.0108
3797.00,0.0108
3796.00,0.0108
3795.00,0.0108
3794.00,0.0108
3793.00,0.0108
3792.00,0.0108
3791.00,0.0108
3790.00,0.0108
3789.00,0.0108
3788.00,0.0108
3787.00,0.0108
3786.00,0.0107
3785.00,0.0107
3784.00,0.0107
3783.00,0.0107
3782.00,0.0107
3781.00,0.0107
3780.00,0.0107
3779.00,0.0107
3778.00,0.0107
3777.00,0.0107
3776.00,0.0107
3775.00,0.0107
3774.00,0.0108
3773.00,0.0108
3772.00,0.0109
3771.00,0.0109
3770.00,0.0109
3769.00,0.0108
3768.00,0.0108
3767.00,0.0107
3766.00,0.0107
3765.00,0.0107
3764.00,0.0107
3763.00,0.0107
3762.00,0.0108
3761.00,0.0108
3760.00,0.0108
3759.00,0.0108
3758.00,0.0107
3757.00,0.0107
3756.00,0.0106
3755.00,0.0106
3754.00,0.0106
3753.00,0.0107
3752.00,0.0107
3751.00,0.0107
3750.00,0.0107
3749.00,0.0107
3748.00,0.0107
3747.00,0.0107
3746.00,0.0107
3745.00,0.0107
3744.00,0.0107
3743.00,0.0107
3742.00,0.0107
3741.00,0.0107
3740.00,0.0106
3739.00,0.0106
3738.00,0.0106
3737.00,0.0107
3736.00,0.0107
3735.00,0.0107
3734.00,0.0107
3733.00,0.0107
3732.00,0.0107
3731.00,0.0107
3730.00,0.0107
3729.00,0.0107
3728.00,0.0107
3727.00,0.0106
3726.00,0.0106
3725.00,0.0106
3724.00,0.0106
3723.00,0.0106
3722.00,0.0106
3721.00,0.0106
3720.00,0.0106
3719.00,0.0106
3718.00,0.0105
3717.00,0.0105
3716.00,0.0105
3715.00,0.0105
3714.00,0.0105
3713.00,0.0105
3712.00,0.0105
3711.00,0.0105
3710.00,0.0105
3709.00,0.0105
3708.00,0.0105
3707.00,0.0105
3706.00,0.0105
3705.00,0.0105
3704.00,0.0105
3703.00,0.0105
3702.00,0.0105
3701.00,0.0105
3700.00,0.0104
3699.00,0.0104
3698.00,0.0104
3697.00,0.0105
3696.00,0.0104
3695.00,0.0104
3694.00,0.0105
3693.00,0.0105
3692.00,0.0105
3691.00,0.0105
3690.00,0.0104
3689.00,0.0104
3688.00,0.0104
3687.00,0.0104
3686.00,0.0104
3685.00,0.0104
3684.00,0.0104
3683.00,0.0104
3682.00,0.0105
3681.00,0.0105
3680.00,0.0105
3679.00,0.0106
3678.00,0.0107
3677.00,0.0107
3676.00,0.0107
3675.00,0.0107
3674.00,0.0107
3673.00,0.0107
3672.00,0.0108
3671.00,0.0108
3670.00,0.0108
3669.00,0.0108
3668.00,0.0108
3667.00,0.0108
3666.00,0.0108
3665.00,0.0109
3664.00,0.0109
3663.00,0.0109
3662.00,0.0109
3661.00,0.0110
3660.00,0.0110
3659.00,0.0110
3658.00,0.0110
3657.00,0.0110
3656.00,0.0111
3655.00,0.0112
3654.00,0.0112
3653.00,0.0113
3652.00,0.0113
3651.00,0.0113
3650.00,0.0113
3649.00,0.0113
3648.00,0.0113
3647.00,0.0114
3646.00,0.0114
3645.00,0.0114
3644.00,0.0113
3643.00,0.0114
3642.00,0.0114
3641.00,0.0114
3640.00,0.0115
3639.00,0.0115
3638.00,0.0116
3637.00,0.0116
3636.00,0.0117
3635.00,0.0117
3634.00,0.0117
3633.00,0.0118
3632.00,0.0118
3631.00,0.0119
3630.00,0.0119
3629.00,0.0120
3628.00,0.0121
3627.00,0.0122
3626.00,0.0122
3625.00,0.0123
3624.00,0.0123
3623.00,0.0123
3622.00,0.0122
3621.00,0.0123
3620.00,0.0123
3619.00,0.0124
3618.00,0.0124
3617.00,0.0125
3616.00,0.0125
3615.00,0.0126
3614.00,0.0127
3613.00,0.0127
3612.00,0.0128
3611.00,0.0129
3610.00,0.0130
3609.00,0.0131
3608.00,0.0131
3607.00,0.0132
3606.00,0.0133
3605.00,0.0133
3604.00,0.0133
3603.00,0.0133
3602.00,0.0134
3601.00,0.0134
3600.00,0.0135
3599.00,0.0136
3598.00,0.0137
3597.00,0.0137
3596.00,0.0138
3595.00,0.0138
3594.00,0.0139
3593.00,0.0139
3592.00,0.0140
3591.00,0.0141
3590.00,0.0141
3589.00,0.0142
3588.00,0.0143
3587.00,0.0144
3586.00,0.0145
3585.00,0.0146
3584.00,0.0147
3583.00,0.0148
3582.00,0.0148
3581.00,0.0148
3580.00,0.0148
3579.00,0.0148
3578.00,0.0148
3577.00,0.0149
3576.00,0.0150
3575.00,0.0151
3574.00,0.0152
3573.00,0.0153
3572.00,0.0153
3571.00,0.0154
3570.00,0.0155
3569.00,0.0156
3568.00,0.0158
3567.00,0.0159
3566.00,0.0160
3565.00,0.0160
3564.00,0.0161
3563.00,0.0162
3562.00,0.0162
3561.00,0.0163
3560.00,0.0163
3559.00,0.0164
3558.00,0.0165
3557.00,0.0165
3556.00,0.0166
3555.00,0.0166
3554.00,0.0167
3553.00,0.0168
3552.00,0.0168
3551.00,0.0169
3550.00,0.0170
3549.00,0.0171
3548.00,0.0172
3547.00,0.0173
3546.00,0.0175
3545.00,0.0176
3544.00,0.0177
3543.00,0.0178
3542.00,0.0178
3541.00,0.0179
3540.00,0.0179
3539.00,0.0180
3538.00,0.0181
3537.00,0.0182
3536.00,0.0183
3535.00,0.0183
3534.00,0.0184
3533.00,0.0184
3532.00,0.0185
3531.00,0.0186
3530.00,0.0187
3529.00,0.0188
3528.00,0.0189
3527.00,0.0190
3526.00,0.0191
3525.00,0.0192
3524.00,0.0193
3523.00,0.0194
3522.00,0.0195
3521.00,0.0196
3520.00,0.0198
3519.00,0.0199
3518.00,0.0199
3517.00,0.0200
3516.00,0.0200
3515.00,0.0201
3514.00,0.0201
3513.00,0.0202
3512.00,0.0203
3511.00,0.0203
3510.00,0.0204
3509.00,0.0205
3508.00,0.0206
3507.00,0.0207
3506.00,0.0207
3505.00,0.0208
3504.00,0.0210
3503.00,0.0211
3502.00,0.0212
3501.00,0.0213
3500.00,0.0214
3499.00,0.0215
3498.00,0.0216
3497.00,0.0217
3496.00,0.0218
3495.00,0.0219
3494.00,0.0220
3493.00,0.0221
3492.00,0.0222
3491.00,0.0223
3490.00,0.0224
3489.00,0.0225
3488.00,0.0226
3487.00,0.0227
3486.00,0.0228
3485.00,0.0229
3484.00,0.0231
3483.00,0.0232
3482.00,0.0233
3481.00,0.0234
3480.00,0.0235
3479.00,0.0236
3478.00,0.0238
3477.00,0.0239
3476.00,0.0240
3475.00,0.0241
3474.00,0.0242
3473.00,0.0242
3472.00,0.0243
3471.00,0.0244
3470.00,0.0245
3469.00,0.0247
3468.00,0.0248
3467.00,0.0249
3466.00,0.0250
3465.00,0.0251
3464.00,0.0252
3463.00,0.0254
3462.00,0.0255
3461.00,0.0256
3460.00,0.0258
3459.00,0.0259
3458.00,0.0261
3457.00,0.0263
3456.00,0.0264
3455.00,0.0265
3454.00,0.0265
3453.00,0.0265
3452.00,0.0265
3451.00,0.0266
3450.00,0.0267
3449.00,0.0269
3448.00,0.0270
3447.00,0.0272
3446.00,0.0273
3445.00,0.0274
3444.00,0.0274
3443.00,0.0275
3442.00,0.0277
3441.00,0.0278
3440.00,0.0279
3439.00,0.0281
3438.00,0.0282
3437.00,0.0283
3436.00,0.0284
3435.00,0.0285
3434.00,0.0287
3433.00,0.0288
3432.00,0.0290
3431.00,0.0291
3430.00,0.0293
3429.00,0.0294
3428.00,0.0296
3427.00,0.0297
3426.00,0.0298
3425.00,0.0299
3424.00,0.0300
3423.00,0.0301
3422.00,0.0303
3421.00,0.0305
3420.00,0.0307
3419.00,0.0308
3418.00,0.0310
3417.00,0.0311
3416.00,0.0312
3415.00,0.0314
3414.00,0.0315
3413.00,0.0317
3412.00,0.0318
3411.00,0.0319
3410.00,0.0320
3409.00,0.0321
3408.00,0.0323
3407.00,0.0324
3406.00,0.0325
3405.00,0.0326
3404.00,0.0328
3403.00,0.0329
3402.00,0.0331
3401.00,0.0332
3400.00,0.0334
3399.00,0.0336
3398.00,0.0337
3397.00,0.0338
3396.00,0.0339
3395.00,0.0340
3394.00,0.0341
3393.00,0.0343
3392.00,0.0344
3391.00,0.0346
3390.00,0.0347
3389.00,0.0349
3388.00,0.0351
3387.00,0.0352
3386.00,0.0354
3385.00,0.0355
3384.00,0.0357
3383.00,0.0358
3382.00,0.0359
3381.00,0.0361
3380.00,0.0362
3379.00,0.0363
3378.00,0.0365
3377.00,0.0367
3376.00,0.0369
3375.00,0.0370
3374.00,0.0372
3373.00,0.0374
3372.00,0.0375
3371.00,0.0376
3370.00,0.0378
3369.00,0.0380
3368.00,0.0382
3367.00,0.0384
3366.00,0.0387
3365.00,0.0390
3364.00,0.0392
3363.00,0.0395
3362.00,0.0397
3361.00,0.0399
3360.00,0.0401
3359.00,0.0403
3358.00,0.0405
3357.00,0.0407
3356.00,0.0409
3355.00,0.0411
3354.00,0.0413
3353.00,0.0415
3352.00,0.0417
3351.00,0.0419
3350.00,0.0422
3349.00,0.0425
3348.00,0.0428
3347.00,0.0431
3346.00,0.0433
3345.00,0.0436
3344.00,0.0438
3343.00,0.0440
3342.00,0.0443
3341.00,0.0445
3340.00,0.0448
3339.00,0.0450
3338.00,0.0454
3337.00,0.0457
3336.00,0.0460
3335.00,0.0464
3334.00,0.0466
3333.00,0.0469
3332.00,0.0471
3331.00,0.0474
3330.00,0.0477
3329.00,0.0480
3328.00,0.0482
3327.00,0.0485
3326.00,0.0487
3325.00,0.0490
3324.00,0.0494
3323.00,0.0497
3322.00,0.0501
3321.00,0.0504
3320.00,0.0507
3319.00,0.0510
3318.00,0.0514
3317.00,0.0517
3316.00,0.0520
3315.00,0.0523
3314.00,0.0526
3313.00,0.0528
3312.00,0.0531
3311.00,0.0534
3310.00,0.0536
3309.00,0.0538
3308.00,0.0541
3307.00,0.0543
3306.00,0.0547
3305.00,0.0551
3304.00,0.0555
3303.00,0.0559
3302.00,0.0563
3301.00,0.0567
3300.00,0.0570
3299.00,0.0573
3298.00,0.0575
3297.00,0.0578
3296.00,0.0580
3295.00,0.0583
3294.00,0.0585
3293.00,0.0588
3292.00,0.0591
3291.00,0.0594
3290.00,0.0597
3289.00,0.0600
3288.00,0.0603
3287.00,0.0605
3286.00,0.0606
3285.00,0.0608
3284.00,0.0609
3283.00,0.0611
3282.00,0.0611
3281.00,0.0612
3280.00,0.0613
3279.00,0.0613
3278.00,0.0613
3277.00,0.0612
3276.00,0.0612
3275.00,0.0611
3274.00,0.0609
3273.00,0.0608
3272.00,0.0606
3271.00,0.0605
3270.00,0.0604
3269.00,0.0603
3268.00,0.0602
3267.00,0.0601
3266.00,0.0599
3265.00,0.0596
3264.00,0.0594
3263.00,0.0591
3262.00,0.0588
3261.00,0.0585
3260.00,0.0582
3259.00,0.0579
3258.00,0.0575
3257.00,0.0572
3256.00,0.0569
3255.00,0.0566
3254.00,0.0563
3253.00,0.0561
3252.00,0.0558
3251.00,0.0554
3250.00,0.0550
3249.00,0.0547
3248.00,0.0543
3247.00,0.0541
3246.00,0.0538
3245.00,0.0536
3244.00,0.0534
3243.00,0.0532
3242.00,0.0529
3241.00,0.0527
3240.00,0.0524
3239.00,0.0521
3238.00,0.0519
3237.00,0.0516
3236.00,0.0512
3235.00,0.0509
3234.00,0.0507
3233.00,0.0505
3232.00,0.0503
3231.00,0.0502
3230.00,0.0500
3229.00,0.0498
3228.00,0.0497
3227.00,0.0495
3226.00,0.0493
3225.00,0.0492
3224.00,0.0489
3223.00,0.0487
3222.00,0.0485
3221.00,0.0483
3220.00,0.0481
3219.00,0.0480
3218.00,0.0478
3217.00,0.0477
3216.00,0.0475
3215.00,0.0473
3214.00,0.0472
3213.00,0.0470
3212.00,0.0469
3211.00,0.0467
3210.00,0.0465
3209.00,0.0463
3208.00,0.0462
3207.00,0.0460
3206.00,0.0459
3205.00,0.0457
3204.00,0.0456
3203.00,0.0454
3202.00,0.0453
3201.00,0.0451
3200.00,0.0449
3199.00,0.0447
3198.00,0.0446
3197.00,0.0444
3196.00,0.0442
3195.00,0.0440
3194.00,0.0438
3193.00,0.0436
3192.00,0.0434
3191.00,0.0432
3190.00,0.0431
3189.00,0.0429
3188.00,0.0427
3187.00,0.0425
3186.00,0.0423
3185.00,0.0421
3184.00,0.0419
3183.00,0.0417
3182.00,0.0415
3181.00,0.0413
3180.00,0.0411
3179.00,0.0409
3178.00,0.0407
3177.00,0.0406
3176.00,0.0404
3175.00,0.0402
3174.00,0.0399
3173.00,0.0397
3172.00,0.0394
3171.00,0.0392
3170.00,0.0390
3169.00,0.0388
3168.00,0.0386
3167.00,0.0384
3166.00,0.0382
3165.00,0.0380
3164.00,0.0378
3163.00,0.0376
3162.00,0.0374
3161.00,0.0372
3160.00,0.0370
3159.00,0.0368
3158.00,0.0366
3157.00,0.0364
3156.00,0.0362
3155.00,0.0360
3154.00,0.0358
3153.00,0.0356
3152.00,0.0355
3151.00,0.0353
3150.00,0.0352
3149.00,0.0351
3148.00,0.0350
3147.00,0.0349
3146.00,0.0347
3145.00,0.0346
3144.00,0.0345
3143.00,0.0343
3142.00,0.0342
3141.00,0.0340
3140.00,0.0338
3139.00,0.0336
3138.00,0.0335
3137.00,0.0334
3136.00,0.0333
3135.00,0.0332
3134.00,0.0331
3133.00,0.0330
3132.00,0.0328
3131.00,0.0327
3130.00,0.0326
3129.00,0.0326
3128.00,0.0325
3127.00,0.0325
3126.00,0.0324
3125.00,0.0323
3124.00,0.0322
3123.00,0.0320
3122.00,0.0319
3121.00,0.0318
3120.00,0.0317
3119.00,0.0316
3118.00,0.0316
3117.00,0.0315
3116.00,0.0316
3115.00,0.0316
3114.00,0.0316
3113.00,0.0316
3112.00,0.0316
3111.00,0.0316
3110.00,0.0316
3109.00,0.0316
3108.00,0.0316
3107.00,0.0317
3106.00,0.0317
3105.00,0.0318
3104.00,0.0318
3103.00,0.0318
3102.00,0.0318
3101.00,0.0318
3100.00,0.0319
3099.00,0.0319
3098.00,0.0320
3097.00,0.0321
3096.00,0.0321
3095.00,0.0322
3094.00,0.0322
3093.00,0.0322
3092.00,0.0322
3091.00,0.0322
3090.00,0.0322
3089.00,0.0322
3088.00,0.0323
3087.00,0.0323
3086.00,0.0323
3085.00,0.0324
3084.00,0.0324
3083.00,0.0324
3082.00,0.0323
3081.00,0.0323
3080.00,0.0323
3079.00,0.0324
3078.00,0.0325
3077.00,0.0326
3076.00,0.0328
3075.00,0.0329
3074.00,0.0330
3073.00,0.0330
3072.00,0.0330
3071.00,0.0330
3070.00,0.0329
3069.00,0.0328
3068.00,0.0327
3067.00,0.0327
3066.00,0.0328
3065.00,0.0328
3064.00,0.0329
3063.00,0.0329
3062.00,0.0329
3061.00,0.0329
3060.00,0.0328
3059.00,0.0327
3058.00,0.0325
3057.00,0.0324
3056.00,0.0323
3055.00,0.0322
3054.00,0.0321
3053.00,0.0319
3052.00,0.0318
3051.00,0.0317
3050.00,0.0317
3049.00,0.0316
3048.00,0.0316
3047.00,0.0314
3046.00,0.0312
3045.00,0.0310
3044.00,0.0308
3043.00,0.0307
3042.00,0.0307
3041.00,0.0306
3040.00,0.0306
3039.00,0.0305
3038.00,0.0304
3037.00,0.0302
3036.00,0.0300
3035.00,0.0299
3034.00,0.0298
3033.00,0.0297
3032.00,0.0296
3031.00,0.0296
3030.00,0.0296
3029.00,0.0295
3028.00,0.0294
3027.00,0.0293
3026.00,0.0291
3025.00,0.0290
3024.00,0.0288
3023.00,0.0287
3022.00,0.0285
3021.00,0.0283
3020.00,0.0281
3019.00,0.0279
3018.00,0.0277
3017.00,0.0276
3016.00,0.0275
3015.00,0.0274
3014.00,0.0274
3013.00,0.0274
3012.00,0.0274
3011.00,0.0274
3010.00,0.0275
3009.00,0.0276
3008.00,0.0276
3007.00,0.0276
3006.00,0.0275
3005.00,0.0274
3004.00,0.0274
3003.00,0.0274
3002.00,0.0274
3001.00,0.0274
3000.00,0.0274
2999.00,0.0273
2998.00,0.0274
2997.00,0.0275
2996.00,0.0276
2995.00,0.0276
2994.00,0.0277
2993.00,0.0278
2992.00,0.0280
2991.00,0.0282
2990.00,0.0284
2989.00,0.0286
2988.00,0.0288
2987.00,0.0290
2986.00,0.0292
2985.00,0.0293
2984.00,0.0295
2983.00,0.0296
2982.00,0.0298
2981.00,0.0300
2980.00,0.0302
2979.00,0.0305
2978.00,0.0307
2977.00,0.0309
2976.00,0.0311
2975.00,0.0312
2974.00,0.0314
2973.00,0.0317
2972.00,0.0319
2971.00,0.0321
2970.00,0.0323
2969.00,0.0325
2968.00,0.0327
2967.00,0.0328
2966.00,0.0329
2965.00,0.0330
2964.00,0.0331
2963.00,0.0332
2962.00,0.0333
2961.00,0.0334
2960.00,0.0334
2959.00,0.0334
2958.00,0.0334
2957.00,0.0333
2956.00,0.0332
2955.00,0.0331
2954.00,0.0330
2953.00,0.0329
2952.00,0.0328
2951.00,0.0328
2950.00,0.0327
2949.00,0.0327
2948.00,0.0327
2947.00,0.0328
2946.00,0.0329
2945.00,0.0331
2944.00,0.0333
2943.00,0.0335
2942.00,0.0338
2941.00,0.0341
2940.00,0.0344
2939.00,0.0346
2938.00,0.0349
2937.00,0.0351
2936.00,0.0354
2935.00,0.0357
2934.00,0.0359
2933.00,0.0360
2932.00,0.0362
2931.00,0.0363
2930.00,0.0364
2929.00,0.0366
2928.00,0.0368
2927.00,0.0370
2926.00,0.0372
2925.00,0.0374
2924.00,0.0376
2923.00,0.0378
2922.00,0.0381
2921.00,0.0383
2920.00,0.0384
2919.00,0.0384
2918.00,0.0383
2917.00,0.0380
2916.00,0.0376
2915.00,0.0370
2914.00,0.0362
2913.00,0.0354
2912.00,0.0347
2911.00,0.0341
2910.00,0.0335
2909.00,0.0330
2908.00,0.0326
2907.00,0.0323
2906.00,0.0319
2905.00,0.0316
2904.00,0.0314
2903.00,0.0312
2902.00,0.0310
2901.00,0.0309
2900.00,0.0307
2899.00,0.0305
2898.00,0.0303
2897.00,0.0302
2896.00,0.0300
2895.00,0.0299
2894.00,0.0298
2893.00,0.0298
2892.00,0.0297
2891.00,0.0296
2890.00,0.0296
2889.00,0.0295
2888.00,0.0295
2887.00,0.0295
2886.00,0.0295
2885.00,0.0295
2884.00,0.0295
2883.00,0.0295
2882.00,0.0296
2881.00,0.0296
2880.00,0.0297
2879.00,0.0297
2878.00,0.0298
2877.00,0.0298
2876.00,0.0297
2875.00,0.0297
2874.00,0.0296
2873.00,0.0296
2872.00,0.0295
2871.00,0.0294
2870.00,0.0292
2869.00,0.0290
2868.00,0.0288
2867.00,0.0286
2866.00,0.0284
2865.00,0.0283
2864.00,0.0282
2863.00,0.0281
2862.00,0.0280
2861.00,0.0279
2860.00,0.0280
2859.00,0.0281
2858.00,0.0282
2857.00,0.0284
2856.00,0.0286
2855.00,0.0289
2854.00,0.0292
2853.00,0.0296
2852.00,0.0299
2851.00,0.0301
2850.00,0.0301
2849.00,0.0299
2848.00,0.0294
2847.00,0.0287
2846.00,0.0280
2845.00,0.0274
2844.00,0.0268
2843.00,0.0263
2842.00,0.0259
2841.00,0.0255
2840.00,0.0252
2839.00,0.0249
2838.00,0.0247
2837.00,0.0245
2836.00,0.0244
2835.00,0.0243
2834.00,0.0241
2833.00,0.0240
2832.00,0.0240
2831.00,0.0239
2830.00,0.0238
2829.00,0.0238
2828.00,0.0237
2827.00,0.0236
2826.00,0.0235
2825.00,0.0235
2824.00,0.0234
2823.00,0.0233
2822.00,0.0233
2821.00,0.0232
2820.00,0.0232
2819.00,0.0231
2818.00,0.0231
2817.00,0.0230
2816.00,0.0229
2815.00,0.0229
2814.00,0.0228
2813.00,0.0227
2812.00,0.0227
2811.00,0.0226
2810.00,0.0226
2809.00,0.0225
2808.00,0.0225
2807.00,0.0225
2806.00,0.0224
2805.00,0.0224
2804.00,0.0223
2803.00,0.0223
2802.00,0.0222
2801.00,0.0222
2800.00,0.0221
2799.00,0.0220
2798.00,0.0220
2797.00,0.0219
2796.00,0.0219
2795.00,0.0219
2794.00,0.0218
2793.00,0.0218
2792.00,0.0218
2791.00,0.0217
2790.00,0.0217
2789.00,0.0216
2788.00,0.0216
2787.00,0.0216
2786.00,0.0216
2785.00,0.0215
2784.00,0.0215
2783.00,0.0215
2782.00,0.0214
2781.00,0.0214
2780.00,0.0214
2779.00,0.0213
2778.00,0.0213
2777.00,0.0212
2776.00,0.0212
2775.00,0.0211
2774.00,0.0211
2773.00,0.0211
2772.00,0.0210
2771.00,0.0210
2770.00,0.0209
2769.00,0.0209
2768.00,0.0209
2767.00,0.0208
2766.00,0.0208
2765.00,0.0207
2764.00,0.0207
2763.00,0.0207
2762.00,0.0207
2761.00,0.0207
2760.00,0.0206
2759.00,0.0206
2758.00,0.0206
2757.00,0.0205
2756.00,0.0205
2755.00,0.0205
2754.00,0.0204
2753.00,0.0204
2752.00,0.0204
2751.00,0.0203
2750.00,0.0202
2749.00,0.0202
2748.00,0.0202
2747.00,0.0202
2746.00,0.0202
2745.00,0.0201
2744.00,0.0201
2743.00,0.0201
2742.00,0.0201
2741.00,0.0200
2740.00,0.0200
2739.00,0.0200
2738.00,0.0199
2737.00,0.0199
2736.00,0.0198
2735.00,0.0197
2734.00,0.0197
2733.00,0.0197
2732.00,0.0196
2731.00,0.0196
2730.00,0.0196
2729.00,0.0196
2728.00,0.0195
2727.00,0.0195
2726.00,0.0194
2725.00,0.0194
2724.00,0.0194
2723.00,0.0194
2722.00,0.0193
2721.00,0.0193
2720.00,0.0193
2719.00,0.0192
2718.00,0.0192
2717.00,0.0192
2716.00,0.0191
2715.00,0.0191
2714.00,0.0191
2713.00,0.0191
2712.00,0.0190
2711.00,0.0190
2710.00,0.0189
2709.00,0.0189
2708.00,0.0189
2707.00,0.0189
2706.00,0.0189
2705.00,0.0188
2704.00,0.0188
2703.00,0.0188
2702.00,0.0187
2701.00,0.0187
2700.00,0.0187
2699.00,0.0187
2698.00,0.0187
2697.00,0.0186
2696.00,0.0186
2695.00,0.0185
2694.00,0.0185
2693.00,0.0185
2692.00,0.0185
2691.00,0.0185
2690.00,0.0185
2689.00,0.0184
2688.00,0.0184
2687.00,0.0184
2686.00,0.0184
2685.00,0.0183
2684.00,0.0183
2683.00,0.0183
2682.00,0.0183
2681.00,0.0183
2680.00,0.0183
2679.00,0.0182
2678.00,0.0182
2677.00,0.0182
2676.00,0.0182
2675.00,0.0182
2674.00,0.0181
2673.00,0.0181
2672.00,0.0181
2671.00,0.0180
2670.00,0.0180
2669.00,0.0180
2668.00,0.0181
2667.00,0.0181
2666.00,0.0182
2665.00,0.0182
2664.00,0.0183
2663.00,0.0183
2662.00,0.0183
2661.00,0.0184
2660.00,0.0184
2659.00,0.0184
2658.00,0.0184
2657.00,0.0183
2656.00,0.0184
2655.00,0.0184
2654.00,0.0184
2653.00,0.0183
2652.00,0.0183
2651.00,0.0183
2650.00,0.0183
2649.00,0.0183
2648.00,0.0183
2647.00,0.0182
2646.00,0.0182
2645.00,0.0182
2644.00,0.0181
2643.00,0.0181
2642.00,0.0181
2641.00,0.0181
2640.00,0.0180
2639.00,0.0180
2638.00,0.0180
2637.00,0.0181
2636.00,0.0181
2635.00,0.0181
2634.00,0.0180
2633.00,0.0180
2632.00,0.0180
2631.00,0.0179
2630.00,0.0179
2629.00,0.0179
2628.00,0.0179
2627.00,0.0179
2626.00,0.0179
2625.00,0.0179
2624.00,0.0179
2623.00,0.0178
2622.00,0.0178
2621.00,0.0178
2620.00,0.0178
2619.00,0.0178
2618.00,0.0178
2617.00,0.0178
2616.00,0.0177
2615.00,0.0177
2614.00,0.0177
2613.00,0.0177
2612.00,0.0176
2611.00,0.0176
2610.00,0.0176
2609.00,0.0176
2608.00,0.0176
2607.00,0.0176
2606.00,0.0176
2605.00,0.0175
2604.00,0.0175
2603.00,0.0174
2602.00,0.0174
2601.00,0.0174
2600.00,0.0173
2599.00,0.0173
2598.00,0.0173
2597.00,0.0173
2596.00,0.0173
2595.00,0.0172
2594.00,0.0172
2593.00,0.0172
2592.00,0.0172
2591.00,0.0171
2590.00,0.0171
2589.00,0.0171
2588.00,0.0171
2587.00,0.0171
2586.00,0.0170
2585.00,0.0170
2584.00,0.0170
2583.00,0.0169
2582.00,0.0169
2581.00,0.0168
2580.00,0.0168
2579.00,0.0168
2578.00,0.0167
2577.00,0.0166
2576.00,0.0166
2575.00,0.0166
2574.00,0.0167
2573.00,0.0167
2572.00,0.0168
2571.00,0.0167
2570.00,0.0167
2569.00,0.0167
2568.00,0.0166
2567.00,0.0166
2566.00,0.0166
2565.00,0.0166
2564.00,0.0166
2563.00,0.0166
2562.00,0.0165
2561.00,0.0165
2560.00,0.0164
2559.00,0.0164
2558.00,0.0164
2557.00,0.0164
2556.00,0.0164
2555.00,0.0164
2554.00,0.0163
2553.00,0.0163
2552.00,0.0163
2551.00,0.0163
2550.00,0.0163
2549.00,0.0163
2548.00,0.0163
2547.00,0.0163
2546.00,0.0162
2545.00,0.0162
2544.00,0.0162
2543.00,0.0161
2542.00,0.0161
2541.00,0.0162
2540.00,0.0162
2539.00,0.0162
2538.00,0.0162
2537.00,0.0162
2536.00,0.0161
2535.00,0.0161
2534.00,0.0161
2533.00,0.0160
2532.00,0.0160
2531.00,0.0161
2530.00,0.0161
2529.00,0.0161
2528.00,0.0161
2527.00,0.0161
2526.00,0.0160
2525.00,0.0160
2524.00,0.0160
2523.00,0.0159
2522.00,0.0159
2521.00,0.0159
2520.00,0.0159
2519.00,0.0159
2518.00,0.0159
2517.00,0.0159
2516.00,0.0159
2515.00,0.0158
2514.00,0.0158
2513.00,0.0158
2512.00,0.0157
2511.00,0.0158
2510.00,0.0158
2509.00,0.0158
2508.00,0.0158
2507.00,0.0158
2506.00,0.0158
2505.00,0.0158
2504.00,0.0158
2503.00,0.0158
2502.00,0.0157
2501.00,0.0157
2500.00,0.0157
2499.00,0.0157
2498.00,0.0156
2497.00,0.0156
2496.00,0.0156
2495.00,0.0156
2494.00,0.0156
2493.00,0.0156
2492.00,0.0156
2491.00,0.0156
2490.00,0.0156
2489.00,0.0156
2488.00,0.0156
2487.00,0.0156
2486.00,0.0156
2485.00,0.0156
2484.00,0.0156
2483.00,0.0156
2482.00,0.0155
2481.00,0.0155
2480.00,0.0154
2479.00,0.0154
2478.00,0.0154
2477.00,0.0154
2476.00,0.0154
2475.00,0.0154
2474.00,0.0154
2473.00,0.0154
2472.00,0.0153
2471.00,0.0153
2470.00,0.0154
2469.00,0.0154
2468.00,0.0154
2467.00,0.0154
2466.00,0.0154
2465.00,0.0153
2464.00,0.0153
2463.00,0.0153
2462.00,0.0153
2461.00,0.0153
2460.00,0.0154
2459.00,0.0154
2458.00,0.0154
2457.00,0.0153
2456.00,0.0153
2455.00,0.0153
2454.00,0.0152
2453.00,0.0152
2452.00,0.0152
2451.00,0.0151
2450.00,0.0151
2449.00,0.0152
2448.00,0.0152
2447.00,0.0152
2446.00,0.0151
2445.00,0.0151
2444.00,0.0151
2443.00,0.0150
2442.00,0.0150
2441.00,0.0150
2440.00,0.0150
2439.00,0.0150
2438.00,0.0150
2437.00,0.0149
2436.00,0.0149
2435.00,0.0149
2434.00,0.0149
2433.00,0.0148
2432.00,0.0148
2431.00,0.0148
2430.00,0.0147
2429.00,0.0147
2428.00,0.0147
2427.00,0.0146
2426.00,0.0146
2425.00,0.0146
2424.00,0.0146
2423.00,0.0146
2422.00,0.0146
2421.00,0.0146
2420.00,0.0146
2419.00,0.0146
2418.00,0.0146
2417.00,0.0146
2416.00,0.0146
2415.00,0.0146
2414.00,0.0146
2413.00,0.0145
2412.00,0.0145
2411.00,0.0145
2410.00,0.0144
2409.00,0.0144
2408.00,0.0143
2407.00,0.0143
2406.00,0.0142
2405.00,0.0142
2404.00,0.0142
2403.00,0.0142
2402.00,0.0142
2401.00,0.0142
2400.00,0.0142
2399.00,0.0142
2398.00,0.0142
2397.00,0.0142
2396.00,0.0142
2395.00,0.0141
2394.00,0.0141
2393.00,0.0141
2392.00,0.0141
2391.00,0.0140
2390.00,0.0140
2389.00,0.0139
2388.00,0.0139
2387.00,0.0139
2386.00,0.0138
2385.00,0.0138
2384.00,0.0137
2383.00,0.0136
2382.00,0.0136
2381.00,0.0136
2380.00,0.0136
2379.00,0.0136
2378.00,0.0136
2377.00,0.0136
2376.00,0.0136
2375.00,0.0136
2374.00,0.0136
2373.00,0.0136
2372.00,0.0136
2371.00,0.0135
2370.00,0.0135
2369.00,0.0134
2368.00,0.0133
2367.00,0.0133
2366.00,0.0133
2365.00,0.0134
2364.00,0.0135
2363.00,0.0136
2362.00,0.0136
2361.00,0.0136
2360.00,0.0136
2359.00,0.0135
2358.00,0.0135
2357.00,0.0134
2356.00,0.0135
2355.00,0.0135
2354.00,0.0136
2353.00,0.0136
2352.00,0.0136
2351.00,0.0136
2350.00,0.0136
2349.00,0.0136
2348.00,0.0137
2347.00,0.0137
2346.00,0.0137
2345.00,0.0137
2344.00,0.0137
2343.00,0.0138
2342.00,0.0138
2341.00,0.0138
2340.00,0.0139
2339.00,0.0139
2338.00,0.0139
2337.00,0.0139
2336.00,0.0138
2335.00,0.0138
2334.00,0.0137
2333.00,0.0137
2332.00,0.0137
2331.00,0.0138
2330.00,0.0139
2329.00,0.0142
2328.00,0.0145
2327.00,0.0148
2326.00,0.0149
2325.00,0.0149
2324.00,0.0148
2323.00,0.0147
2322.00,0.0146
2321.00,0.0146
2320.00,0.0146
2319.00,0.0145
2318.00,0.0144
2317.00,0.0143
2316.00,0.0142
2315.00,0.0142
2314.00,0.0141
2313.00,0.0140
2312.00,0.0140
2311.00,0.0140
2310.00,0.0140
2309.00,0.0140
2308.00,0.0141
2307.00,0.0141
2306.00,0.0141
2305.00,0.0141
2304.00,0.0141
2303.00,0.0141
2302.00,0.0142
2301.00,0.0142
2300.00,0.0142
2299.00,0.0142
2298.00,0.0142
2297.00,0.0143
2296.00,0.0144
2295.00,0.0145
2294.00,0.0147
2293.00,0.0148
2292.00,0.0147
2291.00,0.0147
2290.00,0.0146
2289.00,0.0146
2288.00,0.0147
2287.00,0.0147
2286.00,0.0146
2285.00,0.0146
2284.00,0.0145
2283.00,0.0144
2282.00,0.0143
2281.00,0.0142
2280.00,0.0142
2279.00,0.0142
2278.00,0.0141
2277.00,0.0142
2276.00,0.0141
2275.00,0.0141
2274.00,0.0141
2273.00,0.0140
2272.00,0.0140
2271.00,0.0140
2270.00,0.0140
2269.00,0.0140
2268.00,0.0140
2267.00,0.0139
2266.00,0.0138
2265.00,0.0138
2264.00,0.0137
2263.00,0.0137
2262.00,0.0137
2261.00,0.0138
2260.00,0.0138
2259.00,0.0138
2258.00,0.0137
2257.00,0.0136
2256.00,0.0136
2255.00,0.0135
2254.00,0.0135
2253.00,0.0136
2252.00,0.0136
2251.00,0.0136
2250.00,0.0136
2249.00,0.0135
2248.00,0.0135
2247.00,0.0135
2246.00,0.0135
2245.00,0.0135
2244.00,0.0135
2243.00,0.0135
2242.00,0.0135
2241.00,0.0135
2240.00,0.0135
2239.00,0.0136
2238.00,0.0138
2237.00,0.0138
2236.00,0.0138
2235.00,0.0137
2234.00,0.0137
2233.00,0.0137
2232.00,0.0137
2231.00,0.0137
2230.00,0.0136
2229.00,0.0135
2228.00,0.0135
2227.00,0.0134
2226.00,0.0134
2225.00,0.0134
2224.00,0.0134
2223.00,0.0133
2222.00,0.0133
2221.00,0.0133
2220.00,0.0134
2219.00,0.0135
2218.00,0.0136
2217.00,0.0136
2216.00,0.0136
2215.00,0.0135
2214.00,0.0134
2213.00,0.0133
2212.00,0.0133
2211.00,0.0133
2210.00,0.0133
2209.00,0.0134
2208.00,0.0136
2207.00,0.0137
2206.00,0.0137
2205.00,0.0137
2204.00,0.0136
2203.00,0.0135
2202.00,0.0136
2201.00,0.0137
2200.00,0.0139
2199.00,0.0139
2198.00,0.0137
2197.00,0.0135
2196.00,0.0134
2195.00,0.0134
2194.00,0.0135
2193.00,0.0136
2192.00,0.0136
2191.00,0.0137
2190.00,0.0137
2189.00,0.0138
2188.00,0.0138
2187.00,0.0137
2186.00,0.0137
2185.00,0.0135
2184.00,0.0133
2183.00,0.0130
2182.00,0.0127
2181.00,0.0126
2180.00,0.0127
2179.00,0.0127
2178.00,0.0126
2177.00,0.0125
2176.00,0.0125
2175.00,0.0126
2174.00,0.0129
2173.00,0.0132
2172.00,0.0134
2171.00,0.0136
2170.00,0.0138
2169.00,0.0141
2168.00,0.0143
2167.00,0.0143
2166.00,0.0142
2165.00,0.0142
2164.00,0.0143
2163.00,0.0141
2162.00,0.0134
2161.00,0.0120
2160.00,0.0105
2159.00,0.0094
2158.00,0.0091
2157.00,0.0094
2156.00,0.0098
2155.00,0.0102
2154.00,0.0105
2153.00,0.0108
2152.00,0.0110
2151.00,0.0111
2150.00,0.0111
2149.00,0.0110
2148.00,0.0108
2147.00,0.0107
2146.00,0.0108
2145.00,0.0108
2144.00,0.0110
2143.00,0.0111
2142.00,0.0112
2141.00,0.0113
2140.00,0.0112
2139.00,0.0110
2138.00,0.0108
2137.00,0.0105
2136.00,0.0103
2135.00,0.0102
2134.00,0.0103
2133.00,0.0106
2132.00,0.0108
2131.00,0.0111
2130.00,0.0113
2129.00,0.0114
2128.00,0.0115
2127.00,0.0116
2126.00,0.0117
2125.00,0.0118
2124.00,0.0119
2123.00,0.0120
2122.00,0.0120
2121.00,0.0121
2120.00,0.0123
2119.00,0.0124
2118.00,0.0126
2117.00,0.0127
2116.00,0.0127
2115.00,0.0126
2114.00,0.0125
2113.00,0.0125
2112.00,0.0125
2111.00,0.0125
2110.00,0.0125
2109.00,0.0125
2108.00,0.0126
2107.00,0.0127
2106.00,0.0128
2105.00,0.0127
2104.00,0.0126
2103.00,0.0124
2102.00,0.0123
2101.00,0.0123
2100.00,0.0123
2099.00,0.0123
2098.00,0.0122
2097.00,0.0120
2096.00,0.0119
2095.00,0.0118
2094.00,0.0118
2093.00,0.0119
2092.00,0.0121
2091.00,0.0122
2090.00,0.0123
2089.00,0.0123
2088.00,0.0124
2087.00,0.0124
2086.00,0.0124
2085.00,0.0125
2084.00,0.0126
2083.00,0.0126
2082.00,0.0126
2081.00,0.0127
2080.00,0.0127
2079.00,0.0127
2078.00,0.0127
2077.00,0.0128
2076.00,0.0128
2075.00,0.0128
2074.00,0.0128
2073.00,0.0127
2072.00,0.0125
2071.00,0.0123
2070.00,0.0123
2069.00,0.0122
2068.00,0.0122
2067.00,0.0121
2066.00,0.0120
2065.00,0.0119
2064.00,0.0118
2063.00,0.0117
2062.00,0.0117
2061.00,0.0117
2060.00,0.0118
2059.00,0.0119
2058.00,0.0120
2057.00,0.0121
2056.00,0.0122
2055.00,0.0123
2054.00,0.0126
2053.00,0.0130
2052.00,0.0133
2051.00,0.0132
2050.00,0.0127
2049.00,0.0123
2048.00,0.0120
2047.00,0.0119
2046.00,0.0118
2045.00,0.0119
2044.00,0.0120
2043.00,0.0122
2042.00,0.0123
2041.00,0.0124
2040.00,0.0123
2039.00,0.0121
2038.00,0.0120
2037.00,0.0118
2036.00,0.0115
2035.00,0.0111
2034.00,0.0109
2033.00,0.0108
2032.00,0.0109
2031.00,0.0108
2030.00,0.0108
2029.00,0.0108
2028.00,0.0110
2027.00,0.0111
2026.00,0.0110
2025.00,0.0110
2024.00,0.0110
2023.00,0.0111
2022.00,0.0111
2021.00,0.0111
2020.00,0.0110
2019.00,0.0109
2018.00,0.0109
2017.00,0.0111
2016.00,0.0112
2015.00,0.0110
2014.00,0.0103
2013.00,0.0094
2012.00,0.0088
2011.00,0.0085
2010.00,0.0088
2009.00,0.0093
2008.00,0.0098
2007.00,0.0100
2006.00,0.0103
2005.00,0.0106
2004.00,0.0109
2003.00,0.0111
2002.00,0.0113
2001.00,0.0114
2000.00,0.0114
1999.00,0.0113
1998.00,0.0110
1997.00,0.0109
1996.00,0.0108
1995.00,0.0109
1994.00,0.0111
1993.00,0.0114
1992.00,0.0116
1991.00,0.0116
1990.00,0.0115
1989.00,0.0116
1988.00,0.0118
1987.00,0.0120
1986.00,0.0122
1985.00,0.0123
1984.00,0.0125
1983.00,0.0128
1982.00,0.0132
1981.00,0.0135
1980.00,0.0134
1979.00,0.0127
1978.00,0.0116
1977.00,0.0108
1976.00,0.0103
1975.00,0.0102
1974.00,0.0102
1973.00,0.0102
1972.00,0.0103
1971.00,0.0104
1970.00,0.0105
1969.00,0.0107
1968.00,0.0108
1967.00,0.0107
1966.00,0.0106
1965.00,0.0105
1964.00,0.0105
1963.00,0.0105
1962.00,0.0103
1961.00,0.0100
1960.00,0.0098
1959.00,0.0098
1958.00,0.0099
1957.00,0.0101
1956.00,0.0104
1955.00,0.0105
1954.00,0.0104
1953.00,0.0104
1952.00,0.0104
1951.00,0.0104
1950.00,0.0105
1949.00,0.0106
1948.00,0.0107
1947.00,0.0106
1946.00,0.0105
1945.00,0.0105
1944.00,0.0106
1943.00,0.0106
1942.00,0.0106
1941.00,0.0105
1940.00,0.0104
1939.00,0.0103
1938.00,0.0103
1937.00,0.0103
1936.00,0.0103
1935.00,0.0103
1934.00,0.0103
1933.00,0.0102
1932.00,0.0102
1931.00,0.0102
1930.00,0.0102
1929.00,0.0103
1928.00,0.0103
1927.00,0.0103
1926.00,0.0102
1925.00,0.0103
1924.00,0.0104
1923.00,0.0104
1922.00,0.0104
1921.00,0.0105
1920.00,0.0105
1919.00,0.0105
1918.00,0.0104
1917.00,0.0102
1916.00,0.0102
1915.00,0.0102
1914.00,0.0104
1913.00,0.0105
1912.00,0.0107
1911.00,0.0107
1910.00,0.0107
1909.00,0.0107
1908.00,0.0106
1907.00,0.0106
1906.00,0.0105
1905.00,0.0105
1904.00,0.0104
1903.00,0.0104
1902.00,0.0103
1901.00,0.0102
1900.00,0.0102
1899.00,0.0102
1898.00,0.0102
1897.00,0.0103
1896.00,0.0104
1895.00,0.0104
1894.00,0.0103
1893.00,0.0103
1892.00,0.0104
1891.00,0.0104
1890.00,0.0104
1889.00,0.0104
1888.00,0.0103
1887.00,0.0104
1886.00,0.0104
1885.00,0.0105
1884.00,0.0105
1883.00,0.0104
1882.00,0.0103
1881.00,0.0103
1880.00,0.0103
1879.00,0.0103
1878.00,0.0102
1877.00,0.0102
1876.00,0.0102
1875.00,0.0102
1874.00,0.0102
1873.00,0.0102
1872.00,0.0102
1871.00,0.0103
1870.00,0.0103
1869.00,0.0103
1868.00,0.0102
1867.00,0.0101
1866.00,0.0100
1865.00,0.0099
1864.00,0.0099
1863.00,0.0099
1862.00,0.0099
1861.00,0.0099
1860.00,0.0100
1859.00,0.0100
1858.00,0.0100
1857.00,0.0100
1856.00,0.0101
1855.00,0.0101
1854.00,0.0102
1853.00,0.0101
1852.00,0.0101
1851.00,0.0100
1850.00,0.0099
1849.00,0.0100
1848.00,0.0100
1847.00,0.0100
1846.00,0.0099
1845.00,0.0098
1844.00,0.0095
1843.00,0.0092
1842.00,0.0092
1841.00,0.0094
1840.00,0.0097
1839.00,0.0098
1838.00,0.0098
1837.00,0.0098
1836.00,0.0098
1835.00,0.0097
1834.00,0.0097
1833.00,0.0097
1832.00,0.0098
1831.00,0.0099
1830.00,0.0099
1829.00,0.0097
1828.00,0.0095
1827.00,0.0095
1826.00,0.0095
1825.00,0.0095
1824.00,0.0094
1823.00,0.0094
1822.00,0.0094
1821.00,0.0095
1820.00,0.0094
1819.00,0.0093
1818.00,0.0092
1817.00,0.0092
1816.00,0.0093
1815.00,0.0094
1814.00,0.0095
1813.00,0.0095
1812.00,0.0096
1811.00,0.0096
1810.00,0.0096
1809.00,0.0096
1808.00,0.0095
1807.00,0.0095
1806.00,0.0095
1805.00,0.0096
1804.00,0.0096
1803.00,0.0096
1802.00,0.0096
1801.00,0.0096
1800.00,0.0095
1799.00,0.0095
1798.00,0.0095
1797.00,0.0096
1796.00,0.0097
1795.00,0.0097
1794.00,0.0097
1793.00,0.0096
1792.00,0.0094
1791.00,0.0091
1790.00,0.0090
1789.00,0.0091
1788.00,0.0093
1787.00,0.0094
1786.00,0.0093
1785.00,0.0093
1784.00,0.0093
1783.00,0.0094
1782.00,0.0096
1781.00,0.0096
1780.00,0.0096
1779.00,0.0095
1778.00,0.0094
1777.00,0.0095
1776.00,0.0096
1775.00,0.0097
1774.00,0.0097
1773.00,0.0097
1772.00,0.0094
1771.00,0.0090
1770.00,0.0087
1769.00,0.0087
1768.00,0.0087
1767.00,0.0087
1766.00,0.0088
1765.00,0.0090
1764.00,0.0092
1763.00,0.0092
1762.00,0.0089
1761.00,0.0087
1760.00,0.0086
1759.00,0.0087
1758.00,0.0088
1757.00,0.0088
1756.00,0.0087
1755.00,0.0087
1754.00,0.0087
1753.00,0.0088
1752.00,0.0089
1751.00,0.0089
1750.00,0.0089
1749.00,0.0091
1748.00,0.0093
1747.00,0.0093
1746.00,0.0093
1745.00,0.0094
1744.00,0.0095
1743.00,0.0096
1742.00,0.0095
1741.00,0.0095
1740.00,0.0096
1739.00,0.0096
1738.00,0.0095
1737.00,0.0096
1736.00,0.0097
1735.00,0.0097
1734.00,0.0095
1733.00,0.0093
1732.00,0.0096
1731.00,0.0102
1730.00,0.0106
1729.00,0.0108
1728.00,0.0108
1727.00,0.0109
1726.00,0.0111
1725.00,0.0114
1724.00,0.0117
1723.00,0.0119
1722.00,0.0119
1721.00,0.0121
1720.00,0.0124
1719.00,0.0127
1718.00,0.0129
1717.00,0.0130
1716.00,0.0132
1715.00,0.0136
1714.00,0.0141
1713.00,0.0148
1712.00,0.0157
1711.00,0.0166
1710.00,0.0175
1709.00,0.0185
1708.00,0.0198
1707.00,0.0212
1706.00,0.0229
1705.00,0.0245
1704.00,0.0260
1703.00,0.0272
1702.00,0.0288
1701.00,0.0314
1700.00,0.0347
1699.00,0.0374
1698.00,0.0395
1697.00,0.0414
1696.00,0.0432
1695.00,0.0447
1694.00,0.0459
1693.00,0.0473
1692.00,0.0488
1691.00,0.0504
1690.00,0.0521
1689.00,0.0536
1688.00,0.0547
1687.00,0.0556
1686.00,0.0569
1685.00,0.0592
1684.00,0.0620
1683.00,0.0642
1682.00,0.0659
1681.00,0.0676
1680.00,0.0693
1679.00,0.0707
1678.00,0.0719
1677.00,0.0731
1676.00,0.0751
1675.00,0.0775
1674.00,0.0797
1673.00,0.0814
1672.00,0.0831
1671.00,0.0850
1670.00,0.0875
1669.00,0.0902
1668.00,0.0925
1667.00,0.0942
1666.00,0.0956
1665.00,0.0971
1664.00,0.0991
1663.00,0.1017
1662.00,0.1044
1661.00,0.1066
1660.00,0.1084
1659.00,0.1101
1658.00,0.1113
1657.00,0.1119
1656.00,0.1119
1655.00,0.1122
1654.00,0.1147
1653.00,0.1193
1652.00,0.1225
1651.00,0.1237
1650.00,0.1236
1649.00,0.1234
1648.00,0.1241
1647.00,0.1256
1646.00,0.1269
1645.00,0.1275
1644.00,0.1277
1643.00,0.1276
1642.00,0.1274
1641.00,0.1272
1640.00,0.1269
1639.00,0.1264
1638.00,0.1259
1637.00,0.1260
1636.00,0.1272
1635.00,0.1285
1634.00,0.1290
1633.00,0.1289
1632.00,0.1285
1631.00,0.1282
1630.00,0.1282
1629.00,0.1287
1628.00,0.1294
1627.00,0.1300
1626.00,0.1302
1625.00,0.1305
1624.00,0.1314
1623.00,0.1326
1622.00,0.1334
1621.00,0.1332
1620.00,0.1323
1619.00,0.1312
1618.00,0.1305
1617.00,0.1305
1616.00,0.1302
1615.00,0.1290
1614.00,0.1268
1613.00,0.1242
1612.00,0.1213
1611.00,0.1185
1610.00,0.1156
1609.00,0.1126
1608.00,0.1095
1607.00,0.1063
1606.00,0.1032
1605.00,0.1002
1604.00,0.0972
1603.00,0.0944
1602.00,0.0917
1601.00,0.0891
1600.00,0.0865
1599.00,0.0842
1598.00,0.0821
1597.00,0.0800
1596.00,0.0781
1595.00,0.0763
1594.00,0.0746
1593.00,0.0730
1592.00,0.0713
1591.00,0.0699
1590.00,0.0686
1589.00,0.0675
1588.00,0.0664
1587.00,0.0655
1586.00,0.0648
1585.00,0.0643
1584.00,0.0638
1583.00,0.0634
1582.00,0.0633
1581.00,0.0631
1580.00,0.0629
1579.00,0.0627
1578.00,0.0627
1577.00,0.0631
1576.00,0.0636
1575.00,0.0639
1574.00,0.0641
1573.00,0.0642
1572.00,0.0643
1571.00,0.0648
1570.00,0.0658
1569.00,0.0669
1568.00,0.0677
1567.00,0.0685
1566.00,0.0696
1565.00,0.0707
1564.00,0.0717
1563.00,0.0722
1562.00,0.0722
1561.00,0.0725
1560.00,0.0745
1559.00,0.0785
1558.00,0.0816
1557.00,0.0833
1556.00,0.0848
1555.00,0.0864
1554.00,0.0884
1553.00,0.0904
1552.00,0.0921
1551.00,0.0941
1550.00,0.0961
1549.00,0.0981
1548.00,0.0995
1547.00,0.1007
1546.00,0.1022
1545.00,0.1039
1544.00,0.1055
1543.00,0.1069
1542.00,0.1084
1541.00,0.1107
1540.00,0.1135
1539.00,0.1156
1538.00,0.1166
1537.00,0.1167
1536.00,0.1164
1535.00,0.1166
1534.00,0.1178
1533.00,0.1194
1532.00,0.1205
1531.00,0.1209
1530.00,0.1211
1529.00,0.1214
1528.00,0.1218
1527.00,0.1224
1526.00,0.1231
1525.00,0.1235
1524.00,0.1237
1523.00,0.1240
1522.00,0.1253
1521.00,0.1270
1520.00,0.1282
1519.00,0.1289
1518.00,0.1296
1517.00,0.1307
1516.00,0.1314
1515.00,0.1314
1514.00,0.1309
1513.00,0.1301
1512.00,0.1293
1511.00,0.1282
1510.00,0.1267
1509.00,0.1251
1508.00,0.1242
1507.00,0.1241
1506.00,0.1236
1505.00,0.1224
1504.00,0.1207
1503.00,0.1187
1502.00,0.1165
1501.00,0.1142
1500.00,0.1121
1499.00,0.1100
1498.00,0.1081
1497.00,0.1062
1496.00,0.1042
1495.00,0.1021
1494.00,0.0998
1493.00,0.0973
1492.00,0.0947
1491.00,0.0924
1490.00,0.0903
1489.00,0.0882
1488.00,0.0860
1487.00,0.0838
1486.00,0.0816
1485.00,0.0796
1484.00,0.0778
1483.00,0.0762
1482.00,0.0749
1481.00,0.0737
1480.00,0.0725
1479.00,0.0715
1478.00,0.0707
1477.00,0.0701
1476.00,0.0697
1475.00,0.0694
1474.00,0.0695
1473.00,0.0700
1472.00,0.0705
1471.00,0.0708
1470.00,0.0710
1469.00,0.0710
1468.00,0.0709
1467.00,0.0708
1466.00,0.0708
1465.00,0.0711
1464.00,0.0715
1463.00,0.0717
1462.00,0.0718
1461.00,0.0718
1460.00,0.0717
1459.00,0.0719
1458.00,0.0727
1457.00,0.0741
1456.00,0.0754
1455.00,0.0764
1454.00,0.0769
1453.00,0.0772
1452.00,0.0772
1451.00,0.0772
1450.00,0.0770
1449.00,0.0769
1448.00,0.0768
1447.00,0.0766
1446.00,0.0762
1445.00,0.0757
1444.00,0.0750
1443.00,0.0744
1442.00,0.0737
1441.00,0.0729
1440.00,0.0719
1439.00,0.0707
1438.00,0.0696
1437.00,0.0689
1436.00,0.0686
1435.00,0.0685
1434.00,0.0682
1433.00,0.0678
1432.00,0.0673
1431.00,0.0669
1430.00,0.0665
1429.00,0.0662
1428.00,0.0659
1427.00,0.0657
1426.00,0.0657
1425.00,0.0659
1424.00,0.0662
1423.00,0.0663
1422.00,0.0661
1421.00,0.0660
1420.00,0.0663
1419.00,0.0671
1418.00,0.0681
1417.00,0.0687
1416.00,0.0692
1415.00,0.0696
1414.00,0.0700
1413.00,0.0703
1412.00,0.0707
1411.00,0.0711
1410.00,0.0713
1409.00,0.0715
1408.00,0.0716
1407.00,0.0716
1406.00,0.0716
1405.00,0.0716
1404.00,0.0715
1403.00,0.0712
1402.00,0.0708
1401.00,0.0704
1400.00,0.0701
1399.00,0.0700
1398.00,0.0698
1397.00,0.0695
1396.00,0.0693
1395.00,0.0692
1394.00,0.0691
1393.00,0.0691
1392.00,0.0690
1391.00,0.0689
1390.00,0.0687
1389.00,0.0685
1388.00,0.0685
1387.00,0.0686
1386.00,0.0686
1385.00,0.0686
1384.00,0.0685
1383.00,0.0683
1382.00,0.0681
1381.00,0.0679
1380.00,0.0677
1379.00,0.0675
1378.00,0.0672
1377.00,0.0670
1376.00,0.0668
1375.00,0.0667
1374.00,0.0665
1373.00,0.0663
1372.00,0.0660
1371.00,0.0657
1370.00,0.0654
1369.00,0.0650
1368.00,0.0645
1367.00,0.0640
1366.00,0.0634
1365.00,0.0627
1364.00,0.0622
1363.00,0.0617
1362.00,0.0613
1361.00,0.0609
1360.00,0.0606
1359.00,0.0603
1358.00,0.0602
1357.00,0.0600
1356.00,0.0599
1355.00,0.0598
1354.00,0.0597
1353.00,0.0597
1352.00,0.0597
1351.00,0.0598
1350.00,0.0599
1349.00,0.0599
1348.00,0.0598
1347.00,0.0598
1346.00,0.0597
1345.00,0.0597
1344.00,0.0598
1343.00,0.0599
1342.00,0.0599
1341.00,0.0600
1340.00,0.0601
1339.00,0.0602
1338.00,0.0602
1337.00,0.0602
1336.00,0.0602
1335.00,0.0602
1334.00,0.0601
1333.00,0.0599
1332.00,0.0598
1331.00,0.0597
1330.00,0.0595
1329.00,0.0594
1328.00,0.0593
1327.00,0.0592
1326.00,0.0591
1325.00,0.0591
1324.00,0.0591
1323.00,0.0591
1322.00,0.0592
1321.00,0.0593
1320.00,0.0595
1319.00,0.0596
1318.00,0.0598
1317.00,0.0599
1316.00,0.0600
1315.00,0.0601
1314.00,0.0602
1313.00,0.0602
1312.00,0.0602
1311.00,0.0602
1310.00,0.0603
1309.00,0.0602
1308.00,0.0602
1307.00,0.0602
1306.00,0.0601
1305.00,0.0601
1304.00,0.0601
1303.00,0.0600
1302.00,0.0600
1301.00,0.0599
1300.00,0.0598
1299.00,0.0597
1298.00,0.0596
1297.00,0.0595
1296.00,0.0594
1295.00,0.0593
1294.00,0.0593
1293.00,0.0592
1292.00,0.0591
1291.00,0.0591
1290.00,0.0591
1289.00,0.0591
1288.00,0.0590
1287.00,0.0590
1286.00,0.0590
1285.00,0.0590
1284.00,0.0589
1283.00,0.0589
1282.00,0.0589
1281.00,0.0588
1280.00,0.0588
1279.00,0.0588
1278.00,0.0589
1277.00,0.0589
1276.00,0.0589
1275.00,0.0589
1274.00,0.0589
1273.00,0.0590
1272.00,0.0591
1271.00,0.0593
1270.00,0.0595
1269.00,0.0596
1268.00,0.0598
1267.00,0.0600
1266.00,0.0603
1265.00,0.0606
1264.00,0.0609
1263.00,0.0612
1262.00,0.0616
1261.00,0.0619
1260.00,0.0622
1259.00,0.0625
1258.00,0.0628
1257.00,0.0631
1256.00,0.0634
1255.00,0.0638
1254.00,0.0642
1253.00,0.0646
1252.00,0.0650
1251.00,0.0654
1250.00,0.0658
1249.00,0.0661
1248.00,0.0665
1247.00,0.0669
1246.00,0.0672
1245.00,0.0675
1244.00,0.0678
1243.00,0.0681
1242.00,0.0683
1241.00,0.0686
1240.00,0.0688
1239.00,0.0690
1238.00,0.0691
1237.00,0.0693
1236.00,0.0693
1235.00,0.0694
1234.00,0.0695
1233.00,0.0696
1232.00,0.0696
1231.00,0.0696
1230.00,0.0695
1229.00,0.0693
1228.00,0.0691
1227.00,0.0688
1226.00,0.0685
1225.00,0.0680
1224.00,0.0676
1223.00,0.0671
1222.00,0.0666
1221.00,0.0662
1220.00,0.0657
1219.00,0.0652
1218.00,0.0647
1217.00,0.0642
1216.00,0.0636
1215.00,0.0630
1214.00,0.0625
1213.00,0.0619
1212.00,0.0614
1211.00,0.0608
1210.00,0.0603
1209.00,0.0597
1208.00,0.0591
1207.00,0.0585
1206.00,0.0579
1205.00,0.0572
1204.00,0.0565
1203.00,0.0559
1202.00,0.0553
1201.00,0.0547
1200.00,0.0541
1199.00,0.0536
1198.00,0.0531
1197.00,0.0526
1196.00,0.0522
1195.00,0.0518
1194.00,0.0515
1193.00,0.0512
1192.00,0.0509
1191.00,0.0505
1190.00,0.0503
1189.00,0.0500
1188.00,0.0497
1187.00,0.0494
1186.00,0.0493
1185.00,0.0491
1184.00,0.0489
1183.00,0.0489
1182.00,0.0488
1181.00,0.0488
1180.00,0.0489
1179.00,0.0490
1178.00,0.0493
1177.00,0.0495
1176.00,0.0499
1175.00,0.0503
1174.00,0.0507
1173.00,0.0511
1172.00,0.0514
1171.00,0.0517
1170.00,0.0520
1169.00,0.0521
1168.00,0.0523
1167.00,0.0524
1166.00,0.0526
1165.00,0.0527
1164.00,0.0528
1163.00,0.0528
1162.00,0.0527
1161.00,0.0526
1160.00,0.0523
1159.00,0.0521
1158.00,0.0519
1157.00,0.0516
1156.00,0.0513
1155.00,0.0510
1154.00,0.0507
1153.00,0.0504
1152.00,0.0500
1151.00,0.0496
1150.00,0.0492
1149.00,0.0488
1148.00,0.0484
1147.00,0.0480
1146.00,0.0477
1145.00,0.0474
1144.00,0.0472
1143.00,0.0469
1142.00,0.0468
1141.00,0.0466
1140.00,0.0464
1139.00,0.0463
1138.00,0.0463
1137.00,0.0462
1136.00,0.0461
1135.00,0.0461
1134.00,0.0461
1133.00,0.0461
1132.00,0.0462
1131.00,0.0463
1130.00,0.0463
1129.00,0.0464
1128.00,0.0464
1127.00,0.0465
1126.00,0.0465
1125.00,0.0465
1124.00,0.0465
1123.00,0.0465
1122.00,0.0464
1121.00,0.0464
1120.00,0.0463
1119.00,0.0462
1118.00,0.0462
1117.00,0.0461
1116.00,0.0461
1115.00,0.0460
1114.00,0.0460
1113.00,0.0459
1112.00,0.0458
1111.00,0.0458
1110.00,0.0459
1109.00,0.0459
1108.00,0.0460
1107.00,0.0461
1106.00,0.0463
1105.00,0.0464
1104.00,0.0465
1103.00,0.0466
1102.00,0.0467
1101.00,0.0467
1100.00,0.0468
1099.00,0.0468
1098.00,0.0470
1097.00,0.0471
1096.00,0.0473
1095.00,0.0476
1094.00,0.0479
1093.00,0.0483
1092.00,0.0486
1091.00,0.0491
1090.00,0.0496
1089.00,0.0502
1088.00,0.0509
1087.00,0.0516
1086.00,0.0524
1085.00,0.0531
1084.00,0.0538
1083.00,0.0546
1082.00,0.0553
1081.00,0.0560
1080.00,0.0566
1079.00,0.0573
1078.00,0.0580
1077.00,0.0586
1076.00,0.0592
1075.00,0.0597
1074.00,0.0603
1073.00,0.0607
1072.00,0.0611
1071.00,0.0615
1070.00,0.0618
1069.00,0.0621
1068.00,0.0623
1067.00,0.0627
1066.00,0.0630
1065.00,0.0633
1064.00,0.0635
1063.00,0.0636
1062.00,0.0637
1061.00,0.0637
1060.00,0.0637
1059.00,0.0636
1058.00,0.0636
1057.00,0.0634
1056.00,0.0632
1055.00,0.0630
1054.00,0.0628
1053.00,0.0626
1052.00,0.0624
1051.00,0.0621
1050.00,0.0618
1049.00,0.0615
1048.00,0.0611
1047.00,0.0607
1046.00,0.0603
1045.00,0.0599
1044.00,0.0594
1043.00,0.0589
1042.00,0.0584
1041.00,0.0579
1040.00,0.0573
1039.00,0.0567
1038.00,0.0562
1037.00,0.0557
1036.00,0.0552
1035.00,0.0548
1034.00,0.0545
1033.00,0.0540
1032.00,0.0535
1031.00,0.0531
1030.00,0.0526
1029.00,0.0521
1028.00,0.0515
1027.00,0.0509
1026.00,0.0503
1025.00,0.0497
1024.00,0.0491
1023.00,0.0485
1022.00,0.0479
1021.00,0.0474
1020.00,0.0468
1019.00,0.0462
1018.00,0.0457
1017.00,0.0451
1016.00,0.0445
1015.00,0.0440
1014.00,0.0436
1013.00,0.0432
1012.00,0.0428
1011.00,0.0424
1010.00,0.0421
1009.00,0.0416
1008.00,0.0411
1007.00,0.0407
1006.00,0.0403
1005.00,0.0398
1004.00,0.0394
1003.00,0.0390
1002.00,0.0387
1001.00,0.0384
1000.00,0.0381
999.00,0.0379
998.00,0.0376
997.00,0.0374
996.00,0.0371
995.00,0.0368
994.00,0.0366
993.00,0.0364
992.00,0.0361
991.00,0.0359
990.00,0.0357
989.00,0.0356
988.00,0.0355
987.00,0.0354
986.00,0.0353
985.00,0.0352
984.00,0.0350
983.00,0.0350
982.00,0.0349
981.00,0.0349
980.00,0.0348
979.00,0.0348
978.00,0.0348
977.00,0.0348
976.00,0.0347
975.00,0.0346
974.00,0.0346
973.00,0.0346
972.00,0.0346
971.00,0.0346
970.00,0.0347
969.00,0.0348
968.00,0.0348
967.00,0.0349
966.00,0.0350
965.00,0.0351
964.00,0.0352
963.00,0.0353
962.00,0.0354
961.00,0.0354
960.00,0.0353
959.00,0.0352
958.00,0.0351
957.00,0.0350
956.00,0.0348
955.00,0.0346
954.00,0.0345
953.00,0.0344
952.00,0.0343
951.00,0.0342
950.00,0.0341
949.00,0.0340
948.00,0.0339
947.00,0.0338
946.00,0.0338
945.00,0.0338
944.00,0.0338
943.00,0.0337
942.00,0.0338
941.00,0.0338
940.00,0.0338
939.00,0.0339
938.00,0.0340
937.00,0.0341
936.00,0.0341
935.00,0.0341
934.00,0.0342
933.00,0.0342
932.00,0.0341
931.00,0.0341
930.00,0.0342
929.00,0.0341
928.00,0.0340
927.00,0.0340
926.00,0.0339
925.00,0.0339
924.00,0.0337
923.00,0.0336
922.00,0.0335
921.00,0.0334
920.00,0.0332
919.00,0.0330
918.00,0.0329
917.00,0.0327
916.00,0.0325
915.00,0.0324
914.00,0.0323
913.00,0.0323
912.00,0.0323
911.00,0.0323
910.00,0.0324
909.00,0.0325
908.00,0.0326
907.00,0.0327
906.00,0.0328
905.00,0.0329
904.00,0.0329
903.00,0.0330
902.00,0.0331
901.00,0.0332
900.00,0.0331
899.00,0.0330
898.00,0.0330
897.00,0.0329
896.00,0.0328
895.00,0.0327
894.00,0.0326
893.00,0.0325
892.00,0.0324
891.00,0.0322
890.00,0.0321
889.00,0.0320
888.00,0.0319
887.00,0.0319
886.00,0.0320
885.00,0.0322
884.00,0.0322
883.00,0.0321
882.00,0.0320
881.00,0.0318
880.00,0.0317
879.00,0.0317
878.00,0.0317
877.00,0.0317
876.00,0.0316
875.00,0.0315
874.00,0.0315
873.00,0.0314
872.00,0.0312
871.00,0.0310
870.00,0.0309
869.00,0.0308
868.00,0.0307
867.00,0.0306
866.00,0.0305
865.00,0.0304
864.00,0.0302
863.00,0.0301
862.00,0.0301
861.00,0.0301
860.00,0.0301
859.00,0.0301
858.00,0.0301
857.00,0.0301
856.00,0.0301
855.00,0.0302
854.00,0.0303
853.00,0.0304
852.00,0.0304
851.00,0.0304
850.00,0.0304
849.00,0.0304
848.00,0.0304
847.00,0.0304
846.00,0.0306
845.00,0.0307
844.00,0.0308
843.00,0.0309
842.00,0.0311
841.00,0.0313
840.00,0.0314
839.00,0.0316
838.00,0.0319
837.00,0.0321
836.00,0.0324
835.00,0.0327
834.00,0.0330
833.00,0.0333
832.00,0.0335
831.00,0.0337
830.00,0.0340
829.00,0.0343
828.00,0.0345
827.00,0.0347
826.00,0.0349
825.00,0.0351
824.00,0.0352
823.00,0.0352
822.00,0.0353
821.00,0.0353
820.00,0.0354
819.00,0.0355
818.00,0.0358
817.00,0.0361
816.00,0.0363
815.00,0.0366
814.00,0.0369
813.00,0.0371
812.00,0.0372
811.00,0.0374
810.00,0.0377
809.00,0.0379
808.00,0.0381
807.00,0.0382
806.00,0.0384
805.00,0.0386
804.00,0.0387
803.00,0.0388
802.00,0.0390
801.00,0.0390
800.00,0.0390
799.00,0.0391
798.00,0.0393
797.00,0.0395
796.00,0.0397
795.00,0.0398
794.00,0.0401
793.00,0.0402
792.00,0.0404
791.00,0.0406
790.00,0.0409
789.00,0.0411
788.00,0.0413
787.00,0.0415
786.00,0.0419
785.00,0.0422
784.00,0.0425
783.00,0.0428
782.00,0.0431
781.00,0.0434
780.00,0.0437
779.00,0.0440
778.00,0.0444
777.00,0.0448
776.00,0.0452
775.00,0.0456
774.00,0.0460
773.00,0.0463
772.00,0.0466
771.00,0.0469
770.00,0.0472
769.00,0.0475
768.00,0.0478
767.00,0.0480
766.00,0.0483
765.00,0.0486
764.00,0.0488
763.00,0.0491
762.00,0.0493
761.00,0.0496
760.00,0.0498
759.00,0.0500
758.00,0.0503
757.00,0.0507
756.00,0.0510
755.00,0.0513
754.00,0.0517
753.00,0.0520
752.00,0.0523
751.00,0.0525
750.00,0.0529
749.00,0.0532
748.00,0.0534
747.00,0.0537
746.00,0.0539
745.00,0.0540
744.00,0.0541
743.00,0.0541
742.00,0.0543
741.00,0.0544
740.00,0.0544
739.00,0.0545
738.00,0.0547
737.00,0.0550
736.00,0.0552
735.00,0.0553
734.00,0.0556
733.00,0.0559
732.00,0.0562
731.00,0.0565
730.00,0.0570
729.00,0.0576
728.00,0.0581
727.00,0.0586
726.00,0.0592
725.00,0.0599
724.00,0.0605
723.00,0.0612
722.00,0.0620
721.00,0.0628
720.00,0.0636
719.00,0.0644
718.00,0.0652
717.00,0.0660
716.00,0.0667
715.00,0.0674
714.00,0.0683
713.00,0.0693
712.00,0.0701
711.00,0.0711
710.00,0.0721
709.00,0.0732
708.00,0.0743
707.00,0.0755
706.00,0.0766
705.00,0.0778
704.00,0.0789
703.00,0.0799
702.00,0.0808
701.00,0.0816
700.00,0.0821
699.00,0.0825
698.00,0.0828
697.00,0.0830
696.00,0.0831
695.00,0.0831
694.00,0.0831
693.00,0.0831
692.00,0.0830
691.00,0.0830
690.00,0.0831
689.00,0.0833
688.00,0.0835
687.00,0.0837
686.00,0.0839
685.00,0.0841
684.00,0.0843
683.00,0.0846
682.00,0.0850
681.00,0.0854
680.00,0.0857
679.00,0.0860
678.00,0.0863
677.00,0.0866
676.00,0.0868
675.00,0.0871
674.00,0.0875
673.00,0.0878
672.00,0.0879
671.00,0.0878
670.00,0.0879
669.00,0.0885
668.00,0.0897
667.00,0.0906
666.00,0.0909
665.00,0.0908
664.00,0.0906
663.00,0.0906
662.00,0.0909
661.00,0.0911
660.00,0.0913
659.00,0.0915
658.00,0.0917
657.00,0.0919
656.00,0.0920
655.00,0.0922
654.00,0.0925
653.00,0.0927
652.00,0.0929
651.00,0.0931
650.00,0.0934
649.00,0.0938
648.00,0.0941
647.00,0.0944
646.00,0.0948
645.00,0.0952
644.00,0.0955
643.00,0.0959
642.00,0.0963
641.00,0.0968
640.00,0.0971
639.00,0.0975
638.00,0.0980
637.00,0.0984
636.00,0.0987
635.00,0.0991
634.00,0.0995
633.00,0.0999
632.00,0.1002
631.00,0.1005
630.00,0.1009
629.00,0.1013
628.00,0.1016
627.00,0.1019
626.00,0.1022
625.00,0.1025
624.00,0.1027
623.00,0.1028
622.00,0.1030
621.00,0.1032
620.00,0.1033
619.00,0.1033
618.00,0.1034
617.00,0.1036
616.00,0.1035
615.00,0.1035
614.00,0.1035
613.00,0.1034
612.00,0.1033
611.00,0.1034
610.00,0.1035
609.00,0.1035
608.00,0.1033
607.00,0.1032
606.00,0.1033
605.00,0.1033
604.00,0.1033
603.00,0.1033
602.00,0.1035
601.00,0.1036
600.00,0.1037
599.00,0.1038
598.00,0.1041
597.00,0.1042
596.00,0.1041
595.00,0.1041
594.00,0.1043
593.00,0.1045
592.00,0.1046
591.00,0.1046
590.00,0.1048
589.00,0.1049
588.00,0.1050
587.00,0.1052
586.00,0.1056
585.00,0.1059
584.00,0.1061
583.00,0.1063
582.00,0.1065
581.00,0.1066
580.00,0.1066
579.00,0.1067
578.00,0.1071
577.00,0.1074
576.00,0.1076
575.00,0.1077
574.00,0.1080
573.00,0.1082
572.00,0.1084
571.00,0.1085
570.00,0.1088
569.00,0.1090
568.00,0.1090
567.00,0.1090
566.00,0.1093
565.00,0.1096
564.00,0.1097
563.00,0.1099
562.00,0.1103
561.00,0.1106
560.00,0.1106
559.00,0.1107
558.00,0.1108
557.00,0.1110
556.00,0.1109
555.00,0.1109
554.00,0.1112
553.00,0.1113
552.00,0.1113
551.00,0.1112
550.00,0.1113
549.00,0.1113
548.00,0.1111
547.00,0.1111
546.00,0.1114
545.00,0.1116
544.00,0.1117
543.00,0.1117
542.00,0.1119
541.00,0.1119
540.00,0.1118
539.00,0.1119
538.00,0.1122
537.00,0.1124
536.00,0.1123
535.00,0.1123
534.00,0.1125
533.00,0.1126
532.00,0.1126
531.00,0.1126
530.00,0.1128
529.00,0.1129
528.00,0.1128
527.00,0.1127
526.00,0.1129
525.00,0.1132
524.00,0.1133
523.00,0.1133
522.00,0.1133
521.00,0.1132
520.00,0.1128
519.00,0.1126
518.00,0.1128
517.00,0.1130
516.00,0.1128
515.00,0.1124
514.00,0.1121
513.00,0.1117
512.00,0.1112
511.00,0.1108
510.00,0.1107
509.00,0.1106
508.00,0.1100
507.00,0.1095
506.00,0.1094
505.00,0.1092
504.00,0.1088
503.00,0.1083
502.00,0.1081
501.00,0.1079
500.00,0.1077
499.00,0.1075
498.00,0.1076
497.00,0.1075
496.00,0.1071
495.00,0.1068
494.00,0.1069
493.00,0.1069
492.00,0.1067
491.00,0.1066
490.00,0.1065
489.00,0.1063
488.00,0.1058
487.00,0.1054
486.00,0.1054
485.00,0.1053
484.00,0.1049
483.00,0.1046
482.00,0.1047
481.00,0.1047
480.00,0.1042
479.00,0.1037
478.00,0.1035
477.00,0.1033
476.00,0.1029
475.00,0.1027
474.00,0.1030
473.00,0.1034
472.00,0.1034
471.00,0.1034
470.00,0.1037
469.00,0.1038
468.00,0.1034
467.00,0.1031
466.00,0.1035
465.00,0.1041
464.00,0.1044
463.00,0.1046
462.00,0.1049
461.00,0.1047
460.00,0.1041
459.00,0.1037
458.00,0.1043
457.00,0.1048
456.00,0.1045
455.00,0.1038
454.00,0.1033
453.00,0.1028
452.00,0.1023
451.00,0.1022
450.00,0.1025
449.00,0.1026
448.00,0.1019
447.00,0.1011
446.00,0.1009
445.00,0.1009
444.00,0.1007
443.00,0.1009
442.00,0.1015
441.00,0.1017
440.00,0.1008
439.00,0.0997
438.00,0.0991
437.00,0.0989
436.00,0.0985
435.00,0.0983
434.00,0.0986
433.00,0.0988
432.00,0.0986
431.00,0.0986
430.00,0.0991
429.00,0.0993
428.00,0.0988
427.00,0.0983
426.00,0.0983
425.00,0.0982
424.00,0.0977
423.00,0.0974
422.00,0.0977
421.00,0.0975
420.00,0.0963
419.00,0.0955
418.00,0.0960
417.00,0.0967
416.00,0.0968
415.00,0.0971
414.00,0.0981
413.00,0.0986
412.00,0.0979
411.00,0.0971
410.00,0.0972
409.00,0.0968
408.00,0.0952
407.00,0.0938
406.00,0.0940
405.00,0.0942
404.00,0.0929
403.00,0.0913
402.00,0.0907
401.00,0.0897
400.00,0.0871
