Created as New Dataset,Sample 643 By YargerLab Date Tuesday, June 10 2025
cm-1,A
4000.00,0.0159
3999.00,0.0159
3998.00,0.0159
3997.00,0.0160
3996.00,0.0160
3995.00,0.0160
3994.00,0.0160
3993.00,0.0160
3992.00,0.0160
3991.00,0.0160
3990.00,0.0160
3989.00,0.0160
3988.00,0.0160
3987.00,0.0160
3986.00,0.0160
3985.00,0.0160
3984.00,0.0160
3983.00,0.0160
3982.00,0.0159
3981.00,0.0159
3980.00,0.0159
3979.00,0.0158
3978.00,0.0158
3977.00,0.0158
3976.00,0.0158
3975.00,0.0158
3974.00,0.0158
3973.00,0.0158
3972.00,0.0158
3971.00,0.0158
3970.00,0.0158
3969.00,0.0158
3968.00,0.0158
3967.00,0.0158
3966.00,0.0159
3965.00,0.0159
3964.00,0.0159
3963.00,0.0159
3962.00,0.0159
3961.00,0.0159
3960.00,0.0159
3959.00,0.0159
3958.00,0.0159
3957.00,0.0159
3956.00,0.0159
3955.00,0.0158
3954.00,0.0158
3953.00,0.0158
3952.00,0.0158
3951.00,0.0158
3950.00,0.0158
3949.00,0.0158
3948.00,0.0158
3947.00,0.0158
3946.00,0.0158
3945.00,0.0158
3944.00,0.0158
3943.00,0.0158
3942.00,0.0158
3941.00,0.0158
3940.00,0.0157
3939.00,0.0157
3938.00,0.0157
3937.00,0.0157
3936.00,0.0157
3935.00,0.0157
3934.00,0.0158
3933.00,0.0158
3932.00,0.0158
3931.00,0.0158
3930.00,0.0157
3929.00,0.0157
3928.00,0.0157
3927.00,0.0157
3926.00,0.0157
3925.00,0.0157
3924.00,0.0157
3923.00,0.0157
3922.00,0.0157
3921.00,0.0157
3920.00,0.0157
3919.00,0.0157
3918.00,0.0157
3917.00,0.0157
3916.00,0.0156
3915.00,0.0156
3914.00,0.0156
3913.00,0.0156
3912.00,0.0156
3911.00,0.0156
3910.00,0.0156
3909.00,0.0156
3908.00,0.0156
3907.00,0.0156
3906.00,0.0156
3905.00,0.0156
3904.00,0.0157
3903.00,0.0157
3902.00,0.0157
3901.00,0.0157
3900.00,0.0158
3899.00,0.0158
3898.00,0.0158
3897.00,0.0158
3896.00,0.0158
3895.00,0.0157
3894.00,0.0156
3893.00,0.0156
3892.00,0.0156
3891.00,0.0156
3890.00,0.0156
3889.00,0.0156
3888.00,0.0156
3887.00,0.0156
3886.00,0.0155
3885.00,0.0155
3884.00,0.0155
3883.00,0.0155
3882.00,0.0155
3881.00,0.0155
3880.00,0.0155
3879.00,0.0155
3878.00,0.0155
3877.00,0.0155
3876.00,0.0155
3875.00,0.0155
3874.00,0.0155
3873.00,0.0155
3872.00,0.0156
3871.00,0.0156
3870.00,0.0155
3869.00,0.0155
3868.00,0.0155
3867.00,0.0155
3866.00,0.0155
3865.00,0.0155
3864.00,0.0155
3863.00,0.0155
3862.00,0.0154
3861.00,0.0154
3860.00,0.0154
3859.00,0.0154
3858.00,0.0154
3857.00,0.0153
3856.00,0.0153
3855.00,0.0153
3854.00,0.0153
3853.00,0.0153
3852.00,0.0153
3851.00,0.0153
3850.00,0.0153
3849.00,0.0153
3848.00,0.0154
3847.00,0.0154
3846.00,0.0154
3845.00,0.0154
3844.00,0.0153
3843.00,0.0153
3842.00,0.0153
3841.00,0.0153
3840.00,0.0153
3839.00,0.0153
3838.00,0.0153
3837.00,0.0153
3836.00,0.0152
3835.00,0.0152
3834.00,0.0152
3833.00,0.0152
3832.00,0.0153
3831.00,0.0153
3830.00,0.0153
3829.00,0.0152
3828.00,0.0152
3827.00,0.0152
3826.00,0.0152
3825.00,0.0152
3824.00,0.0152
3823.00,0.0152
3822.00,0.0151
3821.00,0.0151
3820.00,0.0151
3819.00,0.0151
3818.00,0.0151
3817.00,0.0151
3816.00,0.0151
3815.00,0.0151
3814.00,0.0151
3813.00,0.0151
3812.00,0.0151
3811.00,0.0151
3810.00,0.0151
3809.00,0.0151
3808.00,0.0151
3807.00,0.0151
3806.00,0.0151
3805.00,0.0151
3804.00,0.0151
3803.00,0.0151
3802.00,0.0151
3801.00,0.0151
3800.00,0.0151
3799.00,0.0150
3798.00,0.0150
3797.00,0.0151
3796.00,0.0151
3795.00,0.0151
3794.00,0.0151
3793.00,0.0151
3792.00,0.0151
3791.00,0.0150
3790.00,0.0150
3789.00,0.0150
3788.00,0.0150
3787.00,0.0149
3786.00,0.0149
3785.00,0.0149
3784.00,0.0149
3783.00,0.0149
3782.00,0.0149
3781.00,0.0149
3780.00,0.0149
3779.00,0.0149
3778.00,0.0149
3777.00,0.0149
3776.00,0.0149
3775.00,0.0149
3774.00,0.0149
3773.00,0.0150
3772.00,0.0150
3771.00,0.0150
3770.00,0.0150
3769.00,0.0150
3768.00,0.0149
3767.00,0.0149
3766.00,0.0149
3765.00,0.0149
3764.00,0.0149
3763.00,0.0149
3762.00,0.0149
3761.00,0.0149
3760.00,0.0149
3759.00,0.0149
3758.00,0.0149
3757.00,0.0148
3756.00,0.0148
3755.00,0.0148
3754.00,0.0148
3753.00,0.0148
3752.00,0.0148
3751.00,0.0148
3750.00,0.0148
3749.00,0.0148
3748.00,0.0148
3747.00,0.0148
3746.00,0.0148
3745.00,0.0148
3744.00,0.0148
3743.00,0.0148
3742.00,0.0148
3741.00,0.0147
3740.00,0.0147
3739.00,0.0147
3738.00,0.0147
3737.00,0.0147
3736.00,0.0148
3735.00,0.0149
3734.00,0.0149
3733.00,0.0149
3732.00,0.0149
3731.00,0.0148
3730.00,0.0148
3729.00,0.0147
3728.00,0.0147
3727.00,0.0147
3726.00,0.0147
3725.00,0.0147
3724.00,0.0147
3723.00,0.0147
3722.00,0.0147
3721.00,0.0147
3720.00,0.0146
3719.00,0.0146
3718.00,0.0145
3717.00,0.0145
3716.00,0.0145
3715.00,0.0145
3714.00,0.0145
3713.00,0.0145
3712.00,0.0145
3711.00,0.0145
3710.00,0.0146
3709.00,0.0146
3708.00,0.0146
3707.00,0.0146
3706.00,0.0145
3705.00,0.0145
3704.00,0.0145
3703.00,0.0144
3702.00,0.0144
3701.00,0.0144
3700.00,0.0144
3699.00,0.0144
3698.00,0.0144
3697.00,0.0144
3696.00,0.0144
3695.00,0.0144
3694.00,0.0144
3693.00,0.0144
3692.00,0.0143
3691.00,0.0143
3690.00,0.0143
3689.00,0.0143
3688.00,0.0143
3687.00,0.0142
3686.00,0.0143
3685.00,0.0143
3684.00,0.0143
3683.00,0.0143
3682.00,0.0143
3681.00,0.0143
3680.00,0.0143
3679.00,0.0144
3678.00,0.0144
3677.00,0.0145
3676.00,0.0145
3675.00,0.0145
3674.00,0.0145
3673.00,0.0144
3672.00,0.0144
3671.00,0.0144
3670.00,0.0144
3669.00,0.0144
3668.00,0.0145
3667.00,0.0145
3666.00,0.0145
3665.00,0.0145
3664.00,0.0145
3663.00,0.0146
3662.00,0.0146
3661.00,0.0146
3660.00,0.0146
3659.00,0.0146
3658.00,0.0147
3657.00,0.0147
3656.00,0.0147
3655.00,0.0147
3654.00,0.0148
3653.00,0.0148
3652.00,0.0148
3651.00,0.0148
3650.00,0.0148
3649.00,0.0148
3648.00,0.0148
3647.00,0.0148
3646.00,0.0148
3645.00,0.0148
3644.00,0.0147
3643.00,0.0147
3642.00,0.0148
3641.00,0.0149
3640.00,0.0149
3639.00,0.0149
3638.00,0.0149
3637.00,0.0150
3636.00,0.0150
3635.00,0.0150
3634.00,0.0151
3633.00,0.0151
3632.00,0.0152
3631.00,0.0153
3630.00,0.0153
3629.00,0.0153
3628.00,0.0154
3627.00,0.0154
3626.00,0.0154
3625.00,0.0154
3624.00,0.0154
3623.00,0.0154
3622.00,0.0154
3621.00,0.0154
3620.00,0.0154
3619.00,0.0154
3618.00,0.0154
3617.00,0.0155
3616.00,0.0155
3615.00,0.0156
3614.00,0.0156
3613.00,0.0157
3612.00,0.0158
3611.00,0.0159
3610.00,0.0160
3609.00,0.0160
3608.00,0.0161
3607.00,0.0161
3606.00,0.0161
3605.00,0.0160
3604.00,0.0161
3603.00,0.0161
3602.00,0.0161
3601.00,0.0162
3600.00,0.0163
3599.00,0.0163
3598.00,0.0163
3597.00,0.0164
3596.00,0.0164
3595.00,0.0164
3594.00,0.0165
3593.00,0.0165
3592.00,0.0165
3591.00,0.0166
3590.00,0.0167
3589.00,0.0167
3588.00,0.0168
3587.00,0.0168
3586.00,0.0169
3585.00,0.0169
3584.00,0.0170
3583.00,0.0170
3582.00,0.0171
3581.00,0.0170
3580.00,0.0170
3579.00,0.0170
3578.00,0.0170
3577.00,0.0170
3576.00,0.0170
3575.00,0.0171
3574.00,0.0172
3573.00,0.0172
3572.00,0.0173
3571.00,0.0174
3570.00,0.0175
3569.00,0.0177
3568.00,0.0178
3567.00,0.0178
3566.00,0.0178
3565.00,0.0179
3564.00,0.0179
3563.00,0.0179
3562.00,0.0179
3561.00,0.0179
3560.00,0.0180
3559.00,0.0180
3558.00,0.0180
3557.00,0.0181
3556.00,0.0181
3555.00,0.0181
3554.00,0.0182
3553.00,0.0182
3552.00,0.0182
3551.00,0.0183
3550.00,0.0183
3549.00,0.0184
3548.00,0.0185
3547.00,0.0186
3546.00,0.0187
3545.00,0.0188
3544.00,0.0188
3543.00,0.0188
3542.00,0.0188
3541.00,0.0189
3540.00,0.0189
3539.00,0.0190
3538.00,0.0191
3537.00,0.0191
3536.00,0.0192
3535.00,0.0192
3534.00,0.0192
3533.00,0.0192
3532.00,0.0193
3531.00,0.0193
3530.00,0.0194
3529.00,0.0195
3528.00,0.0195
3527.00,0.0196
3526.00,0.0197
3525.00,0.0198
3524.00,0.0198
3523.00,0.0199
3522.00,0.0200
3521.00,0.0200
3520.00,0.0201
3519.00,0.0201
3518.00,0.0201
3517.00,0.0201
3516.00,0.0201
3515.00,0.0201
3514.00,0.0202
3513.00,0.0202
3512.00,0.0203
3511.00,0.0203
3510.00,0.0203
3509.00,0.0204
3508.00,0.0204
3507.00,0.0204
3506.00,0.0205
3505.00,0.0205
3504.00,0.0206
3503.00,0.0206
3502.00,0.0207
3501.00,0.0207
3500.00,0.0208
3499.00,0.0208
3498.00,0.0209
3497.00,0.0209
3496.00,0.0210
3495.00,0.0210
3494.00,0.0211
3493.00,0.0211
3492.00,0.0211
3491.00,0.0212
3490.00,0.0212
3489.00,0.0212
3488.00,0.0213
3487.00,0.0213
3486.00,0.0214
3485.00,0.0214
3484.00,0.0215
3483.00,0.0215
3482.00,0.0215
3481.00,0.0216
3480.00,0.0216
3479.00,0.0217
3478.00,0.0217
3477.00,0.0218
3476.00,0.0218
3475.00,0.0218
3474.00,0.0219
3473.00,0.0219
3472.00,0.0219
3471.00,0.0220
3470.00,0.0220
3469.00,0.0221
3468.00,0.0221
3467.00,0.0221
3466.00,0.0222
3465.00,0.0222
3464.00,0.0223
3463.00,0.0223
3462.00,0.0224
3461.00,0.0224
3460.00,0.0225
3459.00,0.0226
3458.00,0.0227
3457.00,0.0228
3456.00,0.0229
3455.00,0.0229
3454.00,0.0229
3453.00,0.0228
3452.00,0.0228
3451.00,0.0228
3450.00,0.0229
3449.00,0.0229
3448.00,0.0230
3447.00,0.0230
3446.00,0.0231
3445.00,0.0231
3444.00,0.0231
3443.00,0.0232
3442.00,0.0233
3441.00,0.0234
3440.00,0.0234
3439.00,0.0235
3438.00,0.0235
3437.00,0.0236
3436.00,0.0236
3435.00,0.0237
3434.00,0.0237
3433.00,0.0238
3432.00,0.0239
3431.00,0.0239
3430.00,0.0240
3429.00,0.0241
3428.00,0.0242
3427.00,0.0243
3426.00,0.0243
3425.00,0.0244
3424.00,0.0244
3423.00,0.0245
3422.00,0.0246
3421.00,0.0247
3420.00,0.0248
3419.00,0.0248
3418.00,0.0249
3417.00,0.0250
3416.00,0.0251
3415.00,0.0252
3414.00,0.0253
3413.00,0.0254
3412.00,0.0255
3411.00,0.0256
3410.00,0.0256
3409.00,0.0257
3408.00,0.0258
3407.00,0.0259
3406.00,0.0259
3405.00,0.0260
3404.00,0.0261
3403.00,0.0262
3402.00,0.0263
3401.00,0.0264
3400.00,0.0265
3399.00,0.0266
3398.00,0.0267
3397.00,0.0267
3396.00,0.0268
3395.00,0.0269
3394.00,0.0270
3393.00,0.0270
3392.00,0.0271
3391.00,0.0273
3390.00,0.0274
3389.00,0.0275
3388.00,0.0275
3387.00,0.0276
3386.00,0.0277
3385.00,0.0278
3384.00,0.0279
3383.00,0.0280
3382.00,0.0281
3381.00,0.0282
3380.00,0.0283
3379.00,0.0284
3378.00,0.0285
3377.00,0.0287
3376.00,0.0288
3375.00,0.0289
3374.00,0.0290
3373.00,0.0291
3372.00,0.0292
3371.00,0.0293
3370.00,0.0294
3369.00,0.0295
3368.00,0.0297
3367.00,0.0299
3366.00,0.0300
3365.00,0.0302
3364.00,0.0304
3363.00,0.0305
3362.00,0.0307
3361.00,0.0308
3360.00,0.0310
3359.00,0.0311
3358.00,0.0313
3357.00,0.0315
3356.00,0.0316
3355.00,0.0318
3354.00,0.0320
3353.00,0.0322
3352.00,0.0324
3351.00,0.0325
3350.00,0.0327
3349.00,0.0329
3348.00,0.0332
3347.00,0.0334
3346.00,0.0336
3345.00,0.0338
3344.00,0.0341
3343.00,0.0343
3342.00,0.0345
3341.00,0.0348
3340.00,0.0350
3339.00,0.0353
3338.00,0.0356
3337.00,0.0359
3336.00,0.0362
3335.00,0.0364
3334.00,0.0367
3333.00,0.0369
3332.00,0.0372
3331.00,0.0375
3330.00,0.0378
3329.00,0.0381
3328.00,0.0384
3327.00,0.0388
3326.00,0.0391
3325.00,0.0394
3324.00,0.0398
3323.00,0.0402
3322.00,0.0405
3321.00,0.0409
3320.00,0.0413
3319.00,0.0417
3318.00,0.0421
3317.00,0.0425
3316.00,0.0429
3315.00,0.0433
3314.00,0.0437
3313.00,0.0441
3312.00,0.0445
3311.00,0.0449
3310.00,0.0453
3309.00,0.0456
3308.00,0.0460
3307.00,0.0464
3306.00,0.0468
3305.00,0.0473
3304.00,0.0477
3303.00,0.0481
3302.00,0.0486
3301.00,0.0489
3300.00,0.0493
3299.00,0.0497
3298.00,0.0501
3297.00,0.0504
3296.00,0.0508
3295.00,0.0511
3294.00,0.0514
3293.00,0.0517
3292.00,0.0520
3291.00,0.0522
3290.00,0.0524
3289.00,0.0526
3288.00,0.0528
3287.00,0.0530
3286.00,0.0531
3285.00,0.0532
3284.00,0.0533
3283.00,0.0533
3282.00,0.0533
3281.00,0.0533
3280.00,0.0532
3279.00,0.0531
3278.00,0.0529
3277.00,0.0528
3276.00,0.0526
3275.00,0.0524
3274.00,0.0522
3273.00,0.0519
3272.00,0.0516
3271.00,0.0513
3270.00,0.0511
3269.00,0.0508
3268.00,0.0505
3267.00,0.0502
3266.00,0.0499
3265.00,0.0495
3264.00,0.0491
3263.00,0.0488
3262.00,0.0484
3261.00,0.0481
3260.00,0.0477
3259.00,0.0474
3258.00,0.0470
3257.00,0.0467
3256.00,0.0463
3255.00,0.0460
3254.00,0.0457
3253.00,0.0454
3252.00,0.0451
3251.00,0.0448
3250.00,0.0445
3249.00,0.0442
3248.00,0.0440
3247.00,0.0437
3246.00,0.0434
3245.00,0.0432
3244.00,0.0430
3243.00,0.0427
3242.00,0.0425
3241.00,0.0422
3240.00,0.0420
3239.00,0.0417
3238.00,0.0414
3237.00,0.0412
3236.00,0.0409
3235.00,0.0407
3234.00,0.0405
3233.00,0.0403
3232.00,0.0402
3231.00,0.0400
3230.00,0.0398
3229.00,0.0396
3228.00,0.0395
3227.00,0.0393
3226.00,0.0391
3225.00,0.0390
3224.00,0.0388
3223.00,0.0386
3222.00,0.0384
3221.00,0.0382
3220.00,0.0380
3219.00,0.0379
3218.00,0.0377
3217.00,0.0376
3216.00,0.0374
3215.00,0.0373
3214.00,0.0371
3213.00,0.0369
3212.00,0.0368
3211.00,0.0366
3210.00,0.0364
3209.00,0.0362
3208.00,0.0361
3207.00,0.0359
3206.00,0.0358
3205.00,0.0357
3204.00,0.0355
3203.00,0.0354
3202.00,0.0352
3201.00,0.0350
3200.00,0.0349
3199.00,0.0347
3198.00,0.0346
3197.00,0.0344
3196.00,0.0343
3195.00,0.0341
3194.00,0.0339
3193.00,0.0337
3192.00,0.0336
3191.00,0.0334
3190.00,0.0333
3189.00,0.0331
3188.00,0.0330
3187.00,0.0328
3186.00,0.0326
3185.00,0.0325
3184.00,0.0323
3183.00,0.0322
3182.00,0.0320
3181.00,0.0319
3180.00,0.0317
3179.00,0.0316
3178.00,0.0314
3177.00,0.0313
3176.00,0.0312
3175.00,0.0311
3174.00,0.0310
3173.00,0.0308
3172.00,0.0306
3171.00,0.0304
3170.00,0.0303
3169.00,0.0301
3168.00,0.0300
3167.00,0.0298
3166.00,0.0297
3165.00,0.0295
3164.00,0.0294
3163.00,0.0293
3162.00,0.0291
3161.00,0.0290
3160.00,0.0289
3159.00,0.0287
3158.00,0.0286
3157.00,0.0285
3156.00,0.0284
3155.00,0.0283
3154.00,0.0282
3153.00,0.0281
3152.00,0.0280
3151.00,0.0279
3150.00,0.0278
3149.00,0.0277
3148.00,0.0277
3147.00,0.0276
3146.00,0.0275
3145.00,0.0275
3144.00,0.0274
3143.00,0.0273
3142.00,0.0273
3141.00,0.0272
3140.00,0.0271
3139.00,0.0270
3138.00,0.0269
3137.00,0.0268
3136.00,0.0267
3135.00,0.0267
3134.00,0.0266
3133.00,0.0266
3132.00,0.0265
3131.00,0.0265
3130.00,0.0264
3129.00,0.0264
3128.00,0.0264
3127.00,0.0263
3126.00,0.0263
3125.00,0.0263
3124.00,0.0262
3123.00,0.0262
3122.00,0.0262
3121.00,0.0261
3120.00,0.0261
3119.00,0.0261
3118.00,0.0261
3117.00,0.0261
3116.00,0.0261
3115.00,0.0261
3114.00,0.0261
3113.00,0.0261
3112.00,0.0261
3111.00,0.0262
3110.00,0.0262
3109.00,0.0262
3108.00,0.0263
3107.00,0.0263
3106.00,0.0264
3105.00,0.0264
3104.00,0.0265
3103.00,0.0265
3102.00,0.0266
3101.00,0.0266
3100.00,0.0266
3099.00,0.0267
3098.00,0.0267
3097.00,0.0268
3096.00,0.0268
3095.00,0.0269
3094.00,0.0269
3093.00,0.0270
3092.00,0.0270
3091.00,0.0271
3090.00,0.0271
3089.00,0.0271
3088.00,0.0272
3087.00,0.0273
3086.00,0.0273
3085.00,0.0274
3084.00,0.0274
3083.00,0.0274
3082.00,0.0274
3081.00,0.0274
3080.00,0.0274
3079.00,0.0274
3078.00,0.0275
3077.00,0.0276
3076.00,0.0276
3075.00,0.0277
3074.00,0.0277
3073.00,0.0277
3072.00,0.0277
3071.00,0.0277
3070.00,0.0277
3069.00,0.0277
3068.00,0.0277
3067.00,0.0276
3066.00,0.0276
3065.00,0.0276
3064.00,0.0276
3063.00,0.0276
3062.00,0.0276
3061.00,0.0276
3060.00,0.0275
3059.00,0.0274
3058.00,0.0273
3057.00,0.0272
3056.00,0.0271
3055.00,0.0270
3054.00,0.0269
3053.00,0.0268
3052.00,0.0268
3051.00,0.0267
3050.00,0.0266
3049.00,0.0266
3048.00,0.0265
3047.00,0.0264
3046.00,0.0263
3045.00,0.0261
3044.00,0.0260
3043.00,0.0259
3042.00,0.0259
3041.00,0.0258
3040.00,0.0257
3039.00,0.0256
3038.00,0.0255
3037.00,0.0254
3036.00,0.0252
3035.00,0.0251
3034.00,0.0250
3033.00,0.0249
3032.00,0.0248
3031.00,0.0248
3030.00,0.0247
3029.00,0.0247
3028.00,0.0246
3027.00,0.0246
3026.00,0.0245
3025.00,0.0244
3024.00,0.0243
3023.00,0.0242
3022.00,0.0241
3021.00,0.0240
3020.00,0.0239
3019.00,0.0238
3018.00,0.0236
3017.00,0.0236
3016.00,0.0236
3015.00,0.0236
3014.00,0.0235
3013.00,0.0235
3012.00,0.0235
3011.00,0.0235
3010.00,0.0236
3009.00,0.0236
3008.00,0.0235
3007.00,0.0235
3006.00,0.0235
3005.00,0.0234
3004.00,0.0234
3003.00,0.0234
3002.00,0.0234
3001.00,0.0234
3000.00,0.0234
2999.00,0.0234
2998.00,0.0235
2997.00,0.0235
2996.00,0.0236
2995.00,0.0237
2994.00,0.0237
2993.00,0.0238
2992.00,0.0239
2991.00,0.0241
2990.00,0.0242
2989.00,0.0243
2988.00,0.0245
2987.00,0.0246
2986.00,0.0247
2985.00,0.0249
2984.00,0.0250
2983.00,0.0251
2982.00,0.0252
2981.00,0.0253
2980.00,0.0254
2979.00,0.0256
2978.00,0.0257
2977.00,0.0258
2976.00,0.0259
2975.00,0.0260
2974.00,0.0261
2973.00,0.0263
2972.00,0.0264
2971.00,0.0266
2970.00,0.0268
2969.00,0.0269
2968.00,0.0271
2967.00,0.0272
2966.00,0.0273
2965.00,0.0274
2964.00,0.0275
2963.00,0.0276
2962.00,0.0277
2961.00,0.0278
2960.00,0.0278
2959.00,0.0279
2958.00,0.0279
2957.00,0.0279
2956.00,0.0278
2955.00,0.0278
2954.00,0.0278
2953.00,0.0277
2952.00,0.0277
2951.00,0.0276
2950.00,0.0276
2949.00,0.0276
2948.00,0.0277
2947.00,0.0278
2946.00,0.0279
2945.00,0.0281
2944.00,0.0284
2943.00,0.0287
2942.00,0.0290
2941.00,0.0295
2940.00,0.0299
2939.00,0.0304
2938.00,0.0309
2937.00,0.0314
2936.00,0.0320
2935.00,0.0325
2934.00,0.0331
2933.00,0.0336
2932.00,0.0342
2931.00,0.0347
2930.00,0.0353
2929.00,0.0358
2928.00,0.0363
2927.00,0.0368
2926.00,0.0372
2925.00,0.0376
2924.00,0.0379
2923.00,0.0381
2922.00,0.0383
2921.00,0.0384
2920.00,0.0385
2919.00,0.0384
2918.00,0.0382
2917.00,0.0378
2916.00,0.0373
2915.00,0.0366
2914.00,0.0358
2913.00,0.0349
2912.00,0.0340
2911.00,0.0331
2910.00,0.0324
2909.00,0.0317
2908.00,0.0311
2907.00,0.0307
2906.00,0.0302
2905.00,0.0299
2904.00,0.0296
2903.00,0.0293
2902.00,0.0290
2901.00,0.0288
2900.00,0.0285
2899.00,0.0283
2898.00,0.0280
2897.00,0.0278
2896.00,0.0276
2895.00,0.0274
2894.00,0.0272
2893.00,0.0270
2892.00,0.0268
2891.00,0.0266
2890.00,0.0265
2889.00,0.0263
2888.00,0.0262
2887.00,0.0261
2886.00,0.0259
2885.00,0.0259
2884.00,0.0258
2883.00,0.0257
2882.00,0.0257
2881.00,0.0256
2880.00,0.0256
2879.00,0.0256
2878.00,0.0256
2877.00,0.0257
2876.00,0.0257
2875.00,0.0258
2874.00,0.0258
2873.00,0.0258
2872.00,0.0258
2871.00,0.0258
2870.00,0.0257
2869.00,0.0256
2868.00,0.0256
2867.00,0.0255
2866.00,0.0255
2865.00,0.0255
2864.00,0.0256
2863.00,0.0257
2862.00,0.0259
2861.00,0.0261
2860.00,0.0265
2859.00,0.0269
2858.00,0.0274
2857.00,0.0279
2856.00,0.0284
2855.00,0.0289
2854.00,0.0293
2853.00,0.0297
2852.00,0.0300
2851.00,0.0302
2850.00,0.0302
2849.00,0.0298
2848.00,0.0292
2847.00,0.0285
2846.00,0.0276
2845.00,0.0267
2844.00,0.0259
2843.00,0.0252
2842.00,0.0246
2841.00,0.0242
2840.00,0.0237
2839.00,0.0234
2838.00,0.0231
2837.00,0.0229
2836.00,0.0226
2835.00,0.0225
2834.00,0.0223
2833.00,0.0222
2832.00,0.0221
2831.00,0.0220
2830.00,0.0219
2829.00,0.0218
2828.00,0.0217
2827.00,0.0216
2826.00,0.0215
2825.00,0.0214
2824.00,0.0213
2823.00,0.0213
2822.00,0.0212
2821.00,0.0212
2820.00,0.0212
2819.00,0.0211
2818.00,0.0210
2817.00,0.0210
2816.00,0.0209
2815.00,0.0209
2814.00,0.0208
2813.00,0.0208
2812.00,0.0208
2811.00,0.0207
2810.00,0.0207
2809.00,0.0207
2808.00,0.0206
2807.00,0.0206
2806.00,0.0205
2805.00,0.0205
2804.00,0.0205
2803.00,0.0204
2802.00,0.0204
2801.00,0.0204
2800.00,0.0203
2799.00,0.0203
2798.00,0.0202
2797.00,0.0201
2796.00,0.0201
2795.00,0.0201
2794.00,0.0201
2793.00,0.0200
2792.00,0.0200
2791.00,0.0199
2790.00,0.0199
2789.00,0.0199
2788.00,0.0199
2787.00,0.0198
2786.00,0.0198
2785.00,0.0198
2784.00,0.0197
2783.00,0.0197
2782.00,0.0196
2781.00,0.0196
2780.00,0.0196
2779.00,0.0196
2778.00,0.0195
2777.00,0.0195
2776.00,0.0195
2775.00,0.0194
2774.00,0.0194
2773.00,0.0194
2772.00,0.0193
2771.00,0.0193
2770.00,0.0193
2769.00,0.0193
2768.00,0.0192
2767.00,0.0192
2766.00,0.0191
2765.00,0.0191
2764.00,0.0190
2763.00,0.0190
2762.00,0.0190
2761.00,0.0190
2760.00,0.0190
2759.00,0.0190
2758.00,0.0190
2757.00,0.0189
2756.00,0.0189
2755.00,0.0189
2754.00,0.0188
2753.00,0.0188
2752.00,0.0188
2751.00,0.0188
2750.00,0.0187
2749.00,0.0187
2748.00,0.0187
2747.00,0.0187
2746.00,0.0186
2745.00,0.0186
2744.00,0.0186
2743.00,0.0186
2742.00,0.0186
2741.00,0.0185
2740.00,0.0185
2739.00,0.0185
2738.00,0.0185
2737.00,0.0184
2736.00,0.0183
2735.00,0.0183
2734.00,0.0183
2733.00,0.0182
2732.00,0.0182
2731.00,0.0182
2730.00,0.0182
2729.00,0.0182
2728.00,0.0182
2727.00,0.0182
2726.00,0.0181
2725.00,0.0181
2724.00,0.0181
2723.00,0.0181
2722.00,0.0181
2721.00,0.0180
2720.00,0.0180
2719.00,0.0180
2718.00,0.0179
2717.00,0.0179
2716.00,0.0179
2715.00,0.0179
2714.00,0.0179
2713.00,0.0179
2712.00,0.0178
2711.00,0.0178
2710.00,0.0178
2709.00,0.0178
2708.00,0.0177
2707.00,0.0177
2706.00,0.0177
2705.00,0.0177
2704.00,0.0177
2703.00,0.0177
2702.00,0.0176
2701.00,0.0176
2700.00,0.0176
2699.00,0.0176
2698.00,0.0176
2697.00,0.0176
2696.00,0.0175
2695.00,0.0175
2694.00,0.0175
2693.00,0.0175
2692.00,0.0175
2691.00,0.0175
2690.00,0.0175
2689.00,0.0175
2688.00,0.0175
2687.00,0.0175
2686.00,0.0174
2685.00,0.0174
2684.00,0.0174
2683.00,0.0174
2682.00,0.0174
2681.00,0.0174
2680.00,0.0173
2679.00,0.0173
2678.00,0.0173
2677.00,0.0173
2676.00,0.0172
2675.00,0.0172
2674.00,0.0172
2673.00,0.0171
2672.00,0.0171
2671.00,0.0171
2670.00,0.0171
2669.00,0.0171
2668.00,0.0172
2667.00,0.0172
2666.00,0.0172
2665.00,0.0172
2664.00,0.0172
2663.00,0.0172
2662.00,0.0172
2661.00,0.0173
2660.00,0.0173
2659.00,0.0173
2658.00,0.0173
2657.00,0.0172
2656.00,0.0172
2655.00,0.0172
2654.00,0.0172
2653.00,0.0172
2652.00,0.0172
2651.00,0.0172
2650.00,0.0172
2649.00,0.0172
2648.00,0.0172
2647.00,0.0171
2646.00,0.0171
2645.00,0.0171
2644.00,0.0171
2643.00,0.0170
2642.00,0.0170
2641.00,0.0170
2640.00,0.0169
2639.00,0.0169
2638.00,0.0169
2637.00,0.0169
2636.00,0.0169
2635.00,0.0169
2634.00,0.0169
2633.00,0.0169
2632.00,0.0168
2631.00,0.0168
2630.00,0.0168
2629.00,0.0168
2628.00,0.0168
2627.00,0.0168
2626.00,0.0168
2625.00,0.0168
2624.00,0.0168
2623.00,0.0168
2622.00,0.0168
2621.00,0.0167
2620.00,0.0167
2619.00,0.0167
2618.00,0.0167
2617.00,0.0167
2616.00,0.0166
2615.00,0.0166
2614.00,0.0166
2613.00,0.0166
2612.00,0.0166
2611.00,0.0166
2610.00,0.0166
2609.00,0.0166
2608.00,0.0165
2607.00,0.0165
2606.00,0.0165
2605.00,0.0164
2604.00,0.0164
2603.00,0.0164
2602.00,0.0164
2601.00,0.0164
2600.00,0.0163
2599.00,0.0163
2598.00,0.0163
2597.00,0.0163
2596.00,0.0163
2595.00,0.0163
2594.00,0.0162
2593.00,0.0162
2592.00,0.0162
2591.00,0.0162
2590.00,0.0161
2589.00,0.0161
2588.00,0.0161
2587.00,0.0161
2586.00,0.0160
2585.00,0.0160
2584.00,0.0160
2583.00,0.0159
2582.00,0.0159
2581.00,0.0159
2580.00,0.0159
2579.00,0.0158
2578.00,0.0158
2577.00,0.0157
2576.00,0.0156
2575.00,0.0156
2574.00,0.0157
2573.00,0.0157
2572.00,0.0158
2571.00,0.0158
2570.00,0.0158
2569.00,0.0157
2568.00,0.0157
2567.00,0.0157
2566.00,0.0157
2565.00,0.0157
2564.00,0.0156
2563.00,0.0156
2562.00,0.0156
2561.00,0.0156
2560.00,0.0156
2559.00,0.0156
2558.00,0.0156
2557.00,0.0155
2556.00,0.0155
2555.00,0.0154
2554.00,0.0154
2553.00,0.0154
2552.00,0.0155
2551.00,0.0155
2550.00,0.0155
2549.00,0.0155
2548.00,0.0154
2547.00,0.0154
2546.00,0.0153
2545.00,0.0153
2544.00,0.0153
2543.00,0.0153
2542.00,0.0153
2541.00,0.0153
2540.00,0.0153
2539.00,0.0153
2538.00,0.0153
2537.00,0.0153
2536.00,0.0153
2535.00,0.0152
2534.00,0.0152
2533.00,0.0152
2532.00,0.0152
2531.00,0.0152
2530.00,0.0153
2529.00,0.0153
2528.00,0.0153
2527.00,0.0152
2526.00,0.0152
2525.00,0.0151
2524.00,0.0151
2523.00,0.0151
2522.00,0.0151
2521.00,0.0151
2520.00,0.0151
2519.00,0.0151
2518.00,0.0151
2517.00,0.0151
2516.00,0.0151
2515.00,0.0150
2514.00,0.0149
2513.00,0.0149
2512.00,0.0149
2511.00,0.0149
2510.00,0.0149
2509.00,0.0150
2508.00,0.0150
2507.00,0.0150
2506.00,0.0150
2505.00,0.0150
2504.00,0.0150
2503.00,0.0150
2502.00,0.0150
2501.00,0.0149
2500.00,0.0149
2499.00,0.0148
2498.00,0.0148
2497.00,0.0148
2496.00,0.0148
2495.00,0.0148
2494.00,0.0148
2493.00,0.0148
2492.00,0.0148
2491.00,0.0148
2490.00,0.0148
2489.00,0.0149
2488.00,0.0149
2487.00,0.0149
2486.00,0.0149
2485.00,0.0149
2484.00,0.0148
2483.00,0.0148
2482.00,0.0148
2481.00,0.0147
2480.00,0.0147
2479.00,0.0147
2478.00,0.0147
2477.00,0.0147
2476.00,0.0147
2475.00,0.0147
2474.00,0.0147
2473.00,0.0146
2472.00,0.0146
2471.00,0.0146
2470.00,0.0146
2469.00,0.0147
2468.00,0.0147
2467.00,0.0147
2466.00,0.0146
2465.00,0.0146
2464.00,0.0146
2463.00,0.0146
2462.00,0.0145
2461.00,0.0145
2460.00,0.0146
2459.00,0.0146
2458.00,0.0146
2457.00,0.0146
2456.00,0.0146
2455.00,0.0145
2454.00,0.0145
2453.00,0.0145
2452.00,0.0145
2451.00,0.0144
2450.00,0.0144
2449.00,0.0144
2448.00,0.0144
2447.00,0.0144
2446.00,0.0144
2445.00,0.0144
2444.00,0.0144
2443.00,0.0144
2442.00,0.0143
2441.00,0.0143
2440.00,0.0143
2439.00,0.0143
2438.00,0.0143
2437.00,0.0143
2436.00,0.0142
2435.00,0.0142
2434.00,0.0142
2433.00,0.0142
2432.00,0.0141
2431.00,0.0141
2430.00,0.0141
2429.00,0.0141
2428.00,0.0140
2427.00,0.0140
2426.00,0.0140
2425.00,0.0140
2424.00,0.0140
2423.00,0.0140
2422.00,0.0140
2421.00,0.0140
2420.00,0.0140
2419.00,0.0140
2418.00,0.0140
2417.00,0.0140
2416.00,0.0140
2415.00,0.0140
2414.00,0.0139
2413.00,0.0139
2412.00,0.0139
2411.00,0.0139
2410.00,0.0139
2409.00,0.0138
2408.00,0.0138
2407.00,0.0137
2406.00,0.0137
2405.00,0.0137
2404.00,0.0137
2403.00,0.0137
2402.00,0.0136
2401.00,0.0136
2400.00,0.0136
2399.00,0.0136
2398.00,0.0136
2397.00,0.0136
2396.00,0.0136
2395.00,0.0136
2394.00,0.0135
2393.00,0.0135
2392.00,0.0135
2391.00,0.0135
2390.00,0.0135
2389.00,0.0135
2388.00,0.0135
2387.00,0.0135
2386.00,0.0135
2385.00,0.0135
2384.00,0.0135
2383.00,0.0134
2382.00,0.0134
2381.00,0.0134
2380.00,0.0134
2379.00,0.0134
2378.00,0.0134
2377.00,0.0133
2376.00,0.0133
2375.00,0.0134
2374.00,0.0134
2373.00,0.0134
2372.00,0.0134
2371.00,0.0134
2370.00,0.0134
2369.00,0.0134
2368.00,0.0133
2367.00,0.0133
2366.00,0.0133
2365.00,0.0133
2364.00,0.0134
2363.00,0.0134
2362.00,0.0135
2361.00,0.0135
2360.00,0.0135
2359.00,0.0134
2358.00,0.0133
2357.00,0.0132
2356.00,0.0132
2355.00,0.0132
2354.00,0.0133
2353.00,0.0133
2352.00,0.0134
2351.00,0.0134
2350.00,0.0134
2349.00,0.0134
2348.00,0.0134
2347.00,0.0134
2346.00,0.0134
2345.00,0.0134
2344.00,0.0135
2343.00,0.0135
2342.00,0.0135
2341.00,0.0135
2340.00,0.0134
2339.00,0.0134
2338.00,0.0134
2337.00,0.0134
2336.00,0.0134
2335.00,0.0134
2334.00,0.0134
2333.00,0.0133
2332.00,0.0134
2331.00,0.0134
2330.00,0.0134
2329.00,0.0135
2328.00,0.0137
2327.00,0.0138
2326.00,0.0138
2325.00,0.0138
2324.00,0.0138
2323.00,0.0138
2322.00,0.0139
2321.00,0.0138
2320.00,0.0138
2319.00,0.0137
2318.00,0.0136
2317.00,0.0135
2316.00,0.0135
2315.00,0.0134
2314.00,0.0134
2313.00,0.0134
2312.00,0.0134
2311.00,0.0134
2310.00,0.0134
2309.00,0.0134
2308.00,0.0134
2307.00,0.0134
2306.00,0.0134
2305.00,0.0134
2304.00,0.0134
2303.00,0.0134
2302.00,0.0134
2301.00,0.0134
2300.00,0.0134
2299.00,0.0134
2298.00,0.0134
2297.00,0.0135
2296.00,0.0135
2295.00,0.0136
2294.00,0.0137
2293.00,0.0137
2292.00,0.0137
2291.00,0.0136
2290.00,0.0136
2289.00,0.0136
2288.00,0.0136
2287.00,0.0136
2286.00,0.0136
2285.00,0.0135
2284.00,0.0135
2283.00,0.0134
2282.00,0.0134
2281.00,0.0133
2280.00,0.0133
2279.00,0.0133
2278.00,0.0133
2277.00,0.0132
2276.00,0.0132
2275.00,0.0131
2274.00,0.0131
2273.00,0.0130
2272.00,0.0130
2271.00,0.0131
2270.00,0.0131
2269.00,0.0131
2268.00,0.0131
2267.00,0.0130
2266.00,0.0129
2265.00,0.0129
2264.00,0.0129
2263.00,0.0130
2262.00,0.0130
2261.00,0.0131
2260.00,0.0131
2259.00,0.0131
2258.00,0.0130
2257.00,0.0129
2256.00,0.0128
2255.00,0.0128
2254.00,0.0128
2253.00,0.0129
2252.00,0.0129
2251.00,0.0128
2250.00,0.0128
2249.00,0.0127
2248.00,0.0127
2247.00,0.0127
2246.00,0.0127
2245.00,0.0126
2244.00,0.0126
2243.00,0.0126
2242.00,0.0127
2241.00,0.0127
2240.00,0.0127
2239.00,0.0128
2238.00,0.0128
2237.00,0.0128
2236.00,0.0128
2235.00,0.0127
2234.00,0.0127
2233.00,0.0127
2232.00,0.0128
2231.00,0.0128
2230.00,0.0127
2229.00,0.0126
2228.00,0.0125
2227.00,0.0125
2226.00,0.0125
2225.00,0.0125
2224.00,0.0126
2223.00,0.0125
2222.00,0.0124
2221.00,0.0124
2220.00,0.0124
2219.00,0.0125
2218.00,0.0126
2217.00,0.0127
2216.00,0.0127
2215.00,0.0126
2214.00,0.0125
2213.00,0.0124
2212.00,0.0124
2211.00,0.0124
2210.00,0.0125
2209.00,0.0126
2208.00,0.0127
2207.00,0.0128
2206.00,0.0127
2205.00,0.0126
2204.00,0.0125
2203.00,0.0125
2202.00,0.0125
2201.00,0.0127
2200.00,0.0128
2199.00,0.0128
2198.00,0.0127
2197.00,0.0126
2196.00,0.0124
2195.00,0.0124
2194.00,0.0124
2193.00,0.0124
2192.00,0.0125
2191.00,0.0125
2190.00,0.0126
2189.00,0.0126
2188.00,0.0126
2187.00,0.0127
2186.00,0.0127
2185.00,0.0126
2184.00,0.0125
2183.00,0.0123
2182.00,0.0121
2181.00,0.0121
2180.00,0.0121
2179.00,0.0122
2178.00,0.0120
2177.00,0.0118
2176.00,0.0117
2175.00,0.0117
2174.00,0.0119
2173.00,0.0121
2172.00,0.0123
2171.00,0.0125
2170.00,0.0127
2169.00,0.0128
2168.00,0.0129
2167.00,0.0129
2166.00,0.0128
2165.00,0.0127
2164.00,0.0128
2163.00,0.0129
2162.00,0.0127
2161.00,0.0119
2160.00,0.0109
2159.00,0.0100
2158.00,0.0097
2157.00,0.0099
2156.00,0.0103
2155.00,0.0107
2154.00,0.0109
2153.00,0.0110
2152.00,0.0111
2151.00,0.0111
2150.00,0.0110
2149.00,0.0109
2148.00,0.0108
2147.00,0.0108
2146.00,0.0108
2145.00,0.0108
2144.00,0.0109
2143.00,0.0109
2142.00,0.0109
2141.00,0.0109
2140.00,0.0109
2139.00,0.0107
2138.00,0.0105
2137.00,0.0103
2136.00,0.0102
2135.00,0.0101
2134.00,0.0101
2133.00,0.0103
2132.00,0.0105
2131.00,0.0107
2130.00,0.0109
2129.00,0.0111
2128.00,0.0112
2127.00,0.0112
2126.00,0.0112
2125.00,0.0113
2124.00,0.0113
2123.00,0.0113
2122.00,0.0113
2121.00,0.0113
2120.00,0.0114
2119.00,0.0115
2118.00,0.0116
2117.00,0.0116
2116.00,0.0117
2115.00,0.0117
2114.00,0.0116
2113.00,0.0116
2112.00,0.0116
2111.00,0.0115
2110.00,0.0115
2109.00,0.0115
2108.00,0.0116
2107.00,0.0117
2106.00,0.0117
2105.00,0.0117
2104.00,0.0116
2103.00,0.0115
2102.00,0.0114
2101.00,0.0114
2100.00,0.0114
2099.00,0.0114
2098.00,0.0114
2097.00,0.0113
2096.00,0.0112
2095.00,0.0111
2094.00,0.0110
2093.00,0.0111
2092.00,0.0112
2091.00,0.0113
2090.00,0.0114
2089.00,0.0114
2088.00,0.0114
2087.00,0.0114
2086.00,0.0114
2085.00,0.0115
2084.00,0.0116
2083.00,0.0116
2082.00,0.0116
2081.00,0.0116
2080.00,0.0116
2079.00,0.0116
2078.00,0.0116
2077.00,0.0117
2076.00,0.0119
2075.00,0.0120
2074.00,0.0121
2073.00,0.0120
2072.00,0.0118
2071.00,0.0116
2070.00,0.0114
2069.00,0.0114
2068.00,0.0113
2067.00,0.0112
2066.00,0.0111
2065.00,0.0110
2064.00,0.0110
2063.00,0.0110
2062.00,0.0110
2061.00,0.0110
2060.00,0.0111
2059.00,0.0111
2058.00,0.0112
2057.00,0.0112
2056.00,0.0112
2055.00,0.0112
2054.00,0.0114
2053.00,0.0117
2052.00,0.0119
2051.00,0.0119
2050.00,0.0117
2049.00,0.0114
2048.00,0.0112
2047.00,0.0111
2046.00,0.0111
2045.00,0.0111
2044.00,0.0111
2043.00,0.0113
2042.00,0.0115
2041.00,0.0116
2040.00,0.0115
2039.00,0.0112
2038.00,0.0109
2037.00,0.0108
2036.00,0.0107
2035.00,0.0106
2034.00,0.0104
2033.00,0.0104
2032.00,0.0103
2031.00,0.0102
2030.00,0.0101
2029.00,0.0103
2028.00,0.0105
2027.00,0.0106
2026.00,0.0105
2025.00,0.0104
2024.00,0.0104
2023.00,0.0104
2022.00,0.0104
2021.00,0.0103
2020.00,0.0101
2019.00,0.0100
2018.00,0.0100
2017.00,0.0102
2016.00,0.0103
2015.00,0.0101
2014.00,0.0095
2013.00,0.0087
2012.00,0.0081
2011.00,0.0079
2010.00,0.0082
2009.00,0.0088
2008.00,0.0094
2007.00,0.0098
2006.00,0.0100
2005.00,0.0102
2004.00,0.0104
2003.00,0.0105
2002.00,0.0105
2001.00,0.0104
2000.00,0.0103
1999.00,0.0101
1998.00,0.0100
1997.00,0.0099
1996.00,0.0100
1995.00,0.0101
1994.00,0.0102
1993.00,0.0105
1992.00,0.0107
1991.00,0.0108
1990.00,0.0107
1989.00,0.0107
1988.00,0.0107
1987.00,0.0109
1986.00,0.0110
1985.00,0.0112
1984.00,0.0113
1983.00,0.0114
1982.00,0.0116
1981.00,0.0119
1980.00,0.0120
1979.00,0.0116
1978.00,0.0108
1977.00,0.0101
1976.00,0.0096
1975.00,0.0094
1974.00,0.0093
1973.00,0.0093
1972.00,0.0094
1971.00,0.0095
1970.00,0.0096
1969.00,0.0097
1968.00,0.0098
1967.00,0.0099
1966.00,0.0098
1965.00,0.0098
1964.00,0.0099
1963.00,0.0098
1962.00,0.0097
1961.00,0.0096
1960.00,0.0095
1959.00,0.0094
1958.00,0.0094
1957.00,0.0094
1956.00,0.0094
1955.00,0.0094
1954.00,0.0094
1953.00,0.0094
1952.00,0.0095
1951.00,0.0096
1950.00,0.0097
1949.00,0.0097
1948.00,0.0098
1947.00,0.0097
1946.00,0.0096
1945.00,0.0095
1944.00,0.0095
1943.00,0.0096
1942.00,0.0096
1941.00,0.0096
1940.00,0.0096
1939.00,0.0095
1938.00,0.0095
1937.00,0.0094
1936.00,0.0095
1935.00,0.0095
1934.00,0.0094
1933.00,0.0094
1932.00,0.0094
1931.00,0.0094
1930.00,0.0094
1929.00,0.0095
1928.00,0.0095
1927.00,0.0094
1926.00,0.0093
1925.00,0.0093
1924.00,0.0093
1923.00,0.0093
1922.00,0.0093
1921.00,0.0093
1920.00,0.0093
1919.00,0.0093
1918.00,0.0093
1917.00,0.0094
1916.00,0.0094
1915.00,0.0094
1914.00,0.0094
1913.00,0.0094
1912.00,0.0095
1911.00,0.0095
1910.00,0.0095
1909.00,0.0095
1908.00,0.0095
1907.00,0.0094
1906.00,0.0094
1905.00,0.0093
1904.00,0.0092
1903.00,0.0092
1902.00,0.0091
1901.00,0.0091
1900.00,0.0092
1899.00,0.0092
1898.00,0.0092
1897.00,0.0093
1896.00,0.0093
1895.00,0.0093
1894.00,0.0093
1893.00,0.0092
1892.00,0.0092
1891.00,0.0092
1890.00,0.0092
1889.00,0.0093
1888.00,0.0093
1887.00,0.0094
1886.00,0.0093
1885.00,0.0093
1884.00,0.0093
1883.00,0.0092
1882.00,0.0091
1881.00,0.0091
1880.00,0.0091
1879.00,0.0090
1878.00,0.0090
1877.00,0.0090
1876.00,0.0090
1875.00,0.0090
1874.00,0.0090
1873.00,0.0090
1872.00,0.0089
1871.00,0.0089
1870.00,0.0088
1869.00,0.0089
1868.00,0.0089
1867.00,0.0090
1866.00,0.0089
1865.00,0.0089
1864.00,0.0088
1863.00,0.0087
1862.00,0.0087
1861.00,0.0087
1860.00,0.0088
1859.00,0.0088
1858.00,0.0088
1857.00,0.0088
1856.00,0.0088
1855.00,0.0089
1854.00,0.0089
1853.00,0.0088
1852.00,0.0087
1851.00,0.0087
1850.00,0.0086
1849.00,0.0086
1848.00,0.0087
1847.00,0.0086
1846.00,0.0086
1845.00,0.0085
1844.00,0.0085
1843.00,0.0085
1842.00,0.0085
1841.00,0.0085
1840.00,0.0085
1839.00,0.0085
1838.00,0.0085
1837.00,0.0085
1836.00,0.0085
1835.00,0.0085
1834.00,0.0084
1833.00,0.0083
1832.00,0.0083
1831.00,0.0083
1830.00,0.0083
1829.00,0.0083
1828.00,0.0083
1827.00,0.0082
1826.00,0.0082
1825.00,0.0082
1824.00,0.0083
1823.00,0.0083
1822.00,0.0083
1821.00,0.0083
1820.00,0.0082
1819.00,0.0081
1818.00,0.0081
1817.00,0.0081
1816.00,0.0081
1815.00,0.0081
1814.00,0.0081
1813.00,0.0081
1812.00,0.0082
1811.00,0.0082
1810.00,0.0082
1809.00,0.0083
1808.00,0.0083
1807.00,0.0083
1806.00,0.0082
1805.00,0.0082
1804.00,0.0081
1803.00,0.0081
1802.00,0.0081
1801.00,0.0081
1800.00,0.0082
1799.00,0.0082
1798.00,0.0083
1797.00,0.0083
1796.00,0.0083
1795.00,0.0083
1794.00,0.0082
1793.00,0.0082
1792.00,0.0082
1791.00,0.0083
1790.00,0.0083
1789.00,0.0082
1788.00,0.0082
1787.00,0.0081
1786.00,0.0080
1785.00,0.0081
1784.00,0.0081
1783.00,0.0082
1782.00,0.0082
1781.00,0.0082
1780.00,0.0082
1779.00,0.0082
1778.00,0.0082
1777.00,0.0082
1776.00,0.0082
1775.00,0.0082
1774.00,0.0082
1773.00,0.0083
1772.00,0.0082
1771.00,0.0081
1770.00,0.0080
1769.00,0.0080
1768.00,0.0080
1767.00,0.0081
1766.00,0.0081
1765.00,0.0080
1764.00,0.0080
1763.00,0.0079
1762.00,0.0079
1761.00,0.0079
1760.00,0.0080
1759.00,0.0080
1758.00,0.0080
1757.00,0.0080
1756.00,0.0081
1755.00,0.0082
1754.00,0.0082
1753.00,0.0083
1752.00,0.0084
1751.00,0.0085
1750.00,0.0086
1749.00,0.0088
1748.00,0.0089
1747.00,0.0090
1746.00,0.0091
1745.00,0.0093
1744.00,0.0094
1743.00,0.0095
1742.00,0.0096
1741.00,0.0097
1740.00,0.0099
1739.00,0.0100
1738.00,0.0101
1737.00,0.0102
1736.00,0.0103
1735.00,0.0106
1734.00,0.0108
1733.00,0.0109
1732.00,0.0109
1731.00,0.0109
1730.00,0.0108
1729.00,0.0108
1728.00,0.0108
1727.00,0.0109
1726.00,0.0109
1725.00,0.0111
1724.00,0.0113
1723.00,0.0114
1722.00,0.0115
1721.00,0.0116
1720.00,0.0119
1719.00,0.0124
1718.00,0.0129
1717.00,0.0133
1716.00,0.0137
1715.00,0.0140
1714.00,0.0144
1713.00,0.0150
1712.00,0.0157
1711.00,0.0165
1710.00,0.0173
1709.00,0.0183
1708.00,0.0194
1707.00,0.0209
1706.00,0.0227
1705.00,0.0247
1704.00,0.0268
1703.00,0.0287
1702.00,0.0306
1701.00,0.0328
1700.00,0.0353
1699.00,0.0373
1698.00,0.0387
1697.00,0.0397
1696.00,0.0402
1695.00,0.0406
1694.00,0.0409
1693.00,0.0414
1692.00,0.0421
1691.00,0.0430
1690.00,0.0439
1689.00,0.0449
1688.00,0.0460
1687.00,0.0472
1686.00,0.0484
1685.00,0.0497
1684.00,0.0509
1683.00,0.0521
1682.00,0.0533
1681.00,0.0546
1680.00,0.0561
1679.00,0.0574
1678.00,0.0587
1677.00,0.0600
1676.00,0.0615
1675.00,0.0632
1674.00,0.0648
1673.00,0.0664
1672.00,0.0681
1671.00,0.0697
1670.00,0.0714
1669.00,0.0731
1668.00,0.0749
1667.00,0.0766
1666.00,0.0782
1665.00,0.0799
1664.00,0.0817
1663.00,0.0835
1662.00,0.0854
1661.00,0.0872
1660.00,0.0890
1659.00,0.0908
1658.00,0.0925
1657.00,0.0942
1656.00,0.0959
1655.00,0.0977
1654.00,0.0992
1653.00,0.1003
1652.00,0.1012
1651.00,0.1023
1650.00,0.1033
1649.00,0.1045
1648.00,0.1057
1647.00,0.1066
1646.00,0.1072
1645.00,0.1078
1644.00,0.1087
1643.00,0.1098
1642.00,0.1108
1641.00,0.1118
1640.00,0.1129
1639.00,0.1140
1638.00,0.1152
1637.00,0.1162
1636.00,0.1170
1635.00,0.1177
1634.00,0.1186
1633.00,0.1197
1632.00,0.1209
1631.00,0.1221
1630.00,0.1231
1629.00,0.1238
1628.00,0.1242
1627.00,0.1246
1626.00,0.1248
1625.00,0.1246
1624.00,0.1238
1623.00,0.1224
1622.00,0.1206
1621.00,0.1188
1620.00,0.1172
1619.00,0.1154
1618.00,0.1127
1617.00,0.1089
1616.00,0.1047
1615.00,0.1009
1614.00,0.0977
1613.00,0.0949
1612.00,0.0918
1611.00,0.0885
1610.00,0.0851
1609.00,0.0816
1608.00,0.0782
1607.00,0.0749
1606.00,0.0718
1605.00,0.0690
1604.00,0.0663
1603.00,0.0638
1602.00,0.0615
1601.00,0.0595
1600.00,0.0577
1599.00,0.0562
1598.00,0.0548
1597.00,0.0536
1596.00,0.0525
1595.00,0.0513
1594.00,0.0502
1593.00,0.0492
1592.00,0.0482
1591.00,0.0473
1590.00,0.0464
1589.00,0.0457
1588.00,0.0450
1587.00,0.0445
1586.00,0.0441
1585.00,0.0439
1584.00,0.0438
1583.00,0.0437
1582.00,0.0438
1581.00,0.0440
1580.00,0.0443
1579.00,0.0448
1578.00,0.0454
1577.00,0.0462
1576.00,0.0468
1575.00,0.0472
1574.00,0.0477
1573.00,0.0483
1572.00,0.0490
1571.00,0.0499
1570.00,0.0510
1569.00,0.0522
1568.00,0.0533
1567.00,0.0545
1566.00,0.0558
1565.00,0.0572
1564.00,0.0587
1563.00,0.0600
1562.00,0.0614
1561.00,0.0627
1560.00,0.0643
1559.00,0.0661
1558.00,0.0677
1557.00,0.0692
1556.00,0.0707
1555.00,0.0723
1554.00,0.0739
1553.00,0.0754
1552.00,0.0769
1551.00,0.0784
1550.00,0.0799
1549.00,0.0814
1548.00,0.0828
1547.00,0.0842
1546.00,0.0856
1545.00,0.0871
1544.00,0.0886
1543.00,0.0900
1542.00,0.0915
1541.00,0.0930
1540.00,0.0942
1539.00,0.0950
1538.00,0.0959
1537.00,0.0969
1536.00,0.0979
1535.00,0.0988
1534.00,0.0998
1533.00,0.1007
1532.00,0.1016
1531.00,0.1027
1530.00,0.1037
1529.00,0.1047
1528.00,0.1056
1527.00,0.1064
1526.00,0.1073
1525.00,0.1082
1524.00,0.1092
1523.00,0.1103
1522.00,0.1114
1521.00,0.1124
1520.00,0.1134
1519.00,0.1146
1518.00,0.1159
1517.00,0.1171
1516.00,0.1178
1515.00,0.1182
1514.00,0.1182
1513.00,0.1176
1512.00,0.1166
1511.00,0.1153
1510.00,0.1142
1509.00,0.1130
1508.00,0.1112
1507.00,0.1082
1506.00,0.1047
1505.00,0.1019
1504.00,0.0999
1503.00,0.0982
1502.00,0.0963
1501.00,0.0941
1500.00,0.0917
1499.00,0.0892
1498.00,0.0866
1497.00,0.0837
1496.00,0.0808
1495.00,0.0780
1494.00,0.0757
1493.00,0.0735
1492.00,0.0713
1491.00,0.0690
1490.00,0.0666
1489.00,0.0643
1488.00,0.0622
1487.00,0.0604
1486.00,0.0587
1485.00,0.0572
1484.00,0.0558
1483.00,0.0546
1482.00,0.0533
1481.00,0.0522
1480.00,0.0512
1479.00,0.0504
1478.00,0.0497
1477.00,0.0491
1476.00,0.0488
1475.00,0.0486
1474.00,0.0486
1473.00,0.0487
1472.00,0.0488
1471.00,0.0490
1470.00,0.0493
1469.00,0.0496
1468.00,0.0498
1467.00,0.0500
1466.00,0.0501
1465.00,0.0502
1464.00,0.0504
1463.00,0.0506
1462.00,0.0509
1461.00,0.0512
1460.00,0.0517
1459.00,0.0523
1458.00,0.0532
1457.00,0.0541
1456.00,0.0551
1455.00,0.0561
1454.00,0.0570
1453.00,0.0579
1452.00,0.0587
1451.00,0.0594
1450.00,0.0600
1449.00,0.0604
1448.00,0.0606
1447.00,0.0607
1446.00,0.0605
1445.00,0.0603
1444.00,0.0599
1443.00,0.0595
1442.00,0.0589
1441.00,0.0583
1440.00,0.0576
1439.00,0.0568
1438.00,0.0558
1437.00,0.0545
1436.00,0.0533
1435.00,0.0523
1434.00,0.0514
1433.00,0.0506
1432.00,0.0497
1431.00,0.0489
1430.00,0.0481
1429.00,0.0474
1428.00,0.0469
1427.00,0.0466
1426.00,0.0464
1425.00,0.0464
1424.00,0.0464
1423.00,0.0464
1422.00,0.0465
1421.00,0.0466
1420.00,0.0468
1419.00,0.0471
1418.00,0.0474
1417.00,0.0477
1416.00,0.0480
1415.00,0.0482
1414.00,0.0485
1413.00,0.0487
1412.00,0.0489
1411.00,0.0491
1410.00,0.0491
1409.00,0.0491
1408.00,0.0491
1407.00,0.0490
1406.00,0.0488
1405.00,0.0485
1404.00,0.0482
1403.00,0.0479
1402.00,0.0476
1401.00,0.0473
1400.00,0.0469
1399.00,0.0466
1398.00,0.0464
1397.00,0.0462
1396.00,0.0461
1395.00,0.0460
1394.00,0.0459
1393.00,0.0459
1392.00,0.0459
1391.00,0.0460
1390.00,0.0460
1389.00,0.0460
1388.00,0.0460
1387.00,0.0459
1386.00,0.0459
1385.00,0.0459
1384.00,0.0458
1383.00,0.0458
1382.00,0.0457
1381.00,0.0457
1380.00,0.0457
1379.00,0.0457
1378.00,0.0456
1377.00,0.0456
1376.00,0.0455
1375.00,0.0454
1374.00,0.0452
1373.00,0.0451
1372.00,0.0451
1371.00,0.0450
1370.00,0.0449
1369.00,0.0447
1368.00,0.0444
1367.00,0.0440
1366.00,0.0436
1365.00,0.0430
1364.00,0.0424
1363.00,0.0417
1362.00,0.0411
1361.00,0.0405
1360.00,0.0400
1359.00,0.0397
1358.00,0.0394
1357.00,0.0392
1356.00,0.0390
1355.00,0.0388
1354.00,0.0387
1353.00,0.0387
1352.00,0.0387
1351.00,0.0387
1350.00,0.0388
1349.00,0.0388
1348.00,0.0389
1347.00,0.0389
1346.00,0.0390
1345.00,0.0391
1344.00,0.0393
1343.00,0.0395
1342.00,0.0396
1341.00,0.0398
1340.00,0.0399
1339.00,0.0400
1338.00,0.0401
1337.00,0.0401
1336.00,0.0401
1335.00,0.0400
1334.00,0.0399
1333.00,0.0398
1332.00,0.0396
1331.00,0.0394
1330.00,0.0392
1329.00,0.0389
1328.00,0.0387
1327.00,0.0384
1326.00,0.0382
1325.00,0.0381
1324.00,0.0379
1323.00,0.0378
1322.00,0.0377
1321.00,0.0377
1320.00,0.0376
1319.00,0.0377
1318.00,0.0377
1317.00,0.0378
1316.00,0.0378
1315.00,0.0379
1314.00,0.0380
1313.00,0.0380
1312.00,0.0381
1311.00,0.0382
1310.00,0.0382
1309.00,0.0383
1308.00,0.0383
1307.00,0.0383
1306.00,0.0384
1305.00,0.0385
1304.00,0.0385
1303.00,0.0385
1302.00,0.0386
1301.00,0.0386
1300.00,0.0386
1299.00,0.0387
1298.00,0.0387
1297.00,0.0388
1296.00,0.0389
1295.00,0.0390
1294.00,0.0391
1293.00,0.0392
1292.00,0.0394
1291.00,0.0396
1290.00,0.0397
1289.00,0.0399
1288.00,0.0401
1287.00,0.0403
1286.00,0.0406
1285.00,0.0408
1284.00,0.0410
1283.00,0.0413
1282.00,0.0416
1281.00,0.0419
1280.00,0.0423
1279.00,0.0427
1278.00,0.0431
1277.00,0.0436
1276.00,0.0442
1275.00,0.0448
1274.00,0.0454
1273.00,0.0461
1272.00,0.0468
1271.00,0.0475
1270.00,0.0482
1269.00,0.0489
1268.00,0.0496
1267.00,0.0502
1266.00,0.0507
1265.00,0.0512
1264.00,0.0516
1263.00,0.0519
1262.00,0.0522
1261.00,0.0525
1260.00,0.0526
1259.00,0.0527
1258.00,0.0528
1257.00,0.0528
1256.00,0.0529
1255.00,0.0531
1254.00,0.0533
1253.00,0.0536
1252.00,0.0538
1251.00,0.0541
1250.00,0.0544
1249.00,0.0548
1248.00,0.0552
1247.00,0.0556
1246.00,0.0561
1245.00,0.0565
1244.00,0.0570
1243.00,0.0576
1242.00,0.0581
1241.00,0.0587
1240.00,0.0593
1239.00,0.0598
1238.00,0.0604
1237.00,0.0609
1236.00,0.0615
1235.00,0.0620
1234.00,0.0625
1233.00,0.0628
1232.00,0.0631
1231.00,0.0633
1230.00,0.0634
1229.00,0.0633
1228.00,0.0630
1227.00,0.0627
1226.00,0.0621
1225.00,0.0616
1224.00,0.0609
1223.00,0.0602
1222.00,0.0595
1221.00,0.0587
1220.00,0.0578
1219.00,0.0569
1218.00,0.0560
1217.00,0.0550
1216.00,0.0539
1215.00,0.0529
1214.00,0.0517
1213.00,0.0506
1212.00,0.0495
1211.00,0.0484
1210.00,0.0473
1209.00,0.0462
1208.00,0.0452
1207.00,0.0441
1206.00,0.0431
1205.00,0.0421
1204.00,0.0412
1203.00,0.0403
1202.00,0.0395
1201.00,0.0387
1200.00,0.0380
1199.00,0.0374
1198.00,0.0368
1197.00,0.0363
1196.00,0.0359
1195.00,0.0355
1194.00,0.0351
1193.00,0.0348
1192.00,0.0345
1191.00,0.0343
1190.00,0.0341
1189.00,0.0339
1188.00,0.0338
1187.00,0.0338
1186.00,0.0338
1185.00,0.0338
1184.00,0.0339
1183.00,0.0341
1182.00,0.0343
1181.00,0.0346
1180.00,0.0349
1179.00,0.0354
1178.00,0.0359
1177.00,0.0365
1176.00,0.0372
1175.00,0.0379
1174.00,0.0385
1173.00,0.0391
1172.00,0.0396
1171.00,0.0400
1170.00,0.0403
1169.00,0.0404
1168.00,0.0405
1167.00,0.0405
1166.00,0.0405
1165.00,0.0404
1164.00,0.0403
1163.00,0.0402
1162.00,0.0399
1161.00,0.0396
1160.00,0.0392
1159.00,0.0388
1158.00,0.0384
1157.00,0.0380
1156.00,0.0376
1155.00,0.0371
1154.00,0.0366
1153.00,0.0361
1152.00,0.0356
1151.00,0.0351
1150.00,0.0347
1149.00,0.0342
1148.00,0.0338
1147.00,0.0333
1146.00,0.0329
1145.00,0.0325
1144.00,0.0322
1143.00,0.0319
1142.00,0.0318
1141.00,0.0316
1140.00,0.0315
1139.00,0.0313
1138.00,0.0312
1137.00,0.0311
1136.00,0.0311
1135.00,0.0311
1134.00,0.0311
1133.00,0.0311
1132.00,0.0312
1131.00,0.0312
1130.00,0.0313
1129.00,0.0314
1128.00,0.0315
1127.00,0.0315
1126.00,0.0316
1125.00,0.0316
1124.00,0.0317
1123.00,0.0317
1122.00,0.0318
1121.00,0.0319
1120.00,0.0319
1119.00,0.0320
1118.00,0.0320
1117.00,0.0320
1116.00,0.0321
1115.00,0.0321
1114.00,0.0322
1113.00,0.0322
1112.00,0.0322
1111.00,0.0322
1110.00,0.0323
1109.00,0.0324
1108.00,0.0325
1107.00,0.0326
1106.00,0.0327
1105.00,0.0328
1104.00,0.0329
1103.00,0.0329
1102.00,0.0329
1101.00,0.0328
1100.00,0.0326
1099.00,0.0325
1098.00,0.0324
1097.00,0.0323
1096.00,0.0322
1095.00,0.0321
1094.00,0.0322
1093.00,0.0322
1092.00,0.0323
1091.00,0.0324
1090.00,0.0325
1089.00,0.0327
1088.00,0.0329
1087.00,0.0332
1086.00,0.0335
1085.00,0.0337
1084.00,0.0340
1083.00,0.0343
1082.00,0.0346
1081.00,0.0348
1080.00,0.0351
1079.00,0.0353
1078.00,0.0355
1077.00,0.0357
1076.00,0.0359
1075.00,0.0361
1074.00,0.0362
1073.00,0.0363
1072.00,0.0364
1071.00,0.0365
1070.00,0.0365
1069.00,0.0365
1068.00,0.0364
1067.00,0.0365
1066.00,0.0366
1065.00,0.0367
1064.00,0.0367
1063.00,0.0367
1062.00,0.0367
1061.00,0.0366
1060.00,0.0365
1059.00,0.0364
1058.00,0.0362
1057.00,0.0361
1056.00,0.0359
1055.00,0.0357
1054.00,0.0355
1053.00,0.0352
1052.00,0.0349
1051.00,0.0346
1050.00,0.0343
1049.00,0.0340
1048.00,0.0337
1047.00,0.0334
1046.00,0.0331
1045.00,0.0329
1044.00,0.0326
1043.00,0.0324
1042.00,0.0321
1041.00,0.0319
1040.00,0.0316
1039.00,0.0314
1038.00,0.0311
1037.00,0.0310
1036.00,0.0308
1035.00,0.0307
1034.00,0.0306
1033.00,0.0304
1032.00,0.0303
1031.00,0.0302
1030.00,0.0301
1029.00,0.0301
1028.00,0.0300
1027.00,0.0299
1026.00,0.0299
1025.00,0.0299
1024.00,0.0300
1023.00,0.0302
1022.00,0.0304
1021.00,0.0307
1020.00,0.0310
1019.00,0.0313
1018.00,0.0315
1017.00,0.0318
1016.00,0.0320
1015.00,0.0321
1014.00,0.0321
1013.00,0.0320
1012.00,0.0320
1011.00,0.0319
1010.00,0.0318
1009.00,0.0317
1008.00,0.0316
1007.00,0.0315
1006.00,0.0314
1005.00,0.0313
1004.00,0.0312
1003.00,0.0311
1002.00,0.0310
1001.00,0.0310
1000.00,0.0309
999.00,0.0308
998.00,0.0305
997.00,0.0301
996.00,0.0296
995.00,0.0291
994.00,0.0286
993.00,0.0280
992.00,0.0275
991.00,0.0270
990.00,0.0266
989.00,0.0262
988.00,0.0260
987.00,0.0258
986.00,0.0258
985.00,0.0257
984.00,0.0258
983.00,0.0258
982.00,0.0260
981.00,0.0262
980.00,0.0263
979.00,0.0265
978.00,0.0266
977.00,0.0267
976.00,0.0267
975.00,0.0267
974.00,0.0266
973.00,0.0264
972.00,0.0262
971.00,0.0259
970.00,0.0257
969.00,0.0253
968.00,0.0250
967.00,0.0248
966.00,0.0245
965.00,0.0243
964.00,0.0241
963.00,0.0240
962.00,0.0238
961.00,0.0238
960.00,0.0237
959.00,0.0236
958.00,0.0236
957.00,0.0235
956.00,0.0234
955.00,0.0234
954.00,0.0233
953.00,0.0232
952.00,0.0232
951.00,0.0231
950.00,0.0230
949.00,0.0230
948.00,0.0229
947.00,0.0229
946.00,0.0228
945.00,0.0228
944.00,0.0227
943.00,0.0227
942.00,0.0227
941.00,0.0226
940.00,0.0226
939.00,0.0226
938.00,0.0227
937.00,0.0227
936.00,0.0227
935.00,0.0227
934.00,0.0227
933.00,0.0226
932.00,0.0226
931.00,0.0226
930.00,0.0226
929.00,0.0225
928.00,0.0224
927.00,0.0224
926.00,0.0223
925.00,0.0222
924.00,0.0220
923.00,0.0218
922.00,0.0216
921.00,0.0214
920.00,0.0212
919.00,0.0210
918.00,0.0208
917.00,0.0206
916.00,0.0204
915.00,0.0202
914.00,0.0200
913.00,0.0199
912.00,0.0198
911.00,0.0197
910.00,0.0196
909.00,0.0195
908.00,0.0195
907.00,0.0194
906.00,0.0193
905.00,0.0193
904.00,0.0193
903.00,0.0193
902.00,0.0193
901.00,0.0193
900.00,0.0192
899.00,0.0192
898.00,0.0191
897.00,0.0191
896.00,0.0190
895.00,0.0190
894.00,0.0189
893.00,0.0188
892.00,0.0187
891.00,0.0186
890.00,0.0186
889.00,0.0186
888.00,0.0186
887.00,0.0186
886.00,0.0186
885.00,0.0186
884.00,0.0186
883.00,0.0186
882.00,0.0186
881.00,0.0186
880.00,0.0186
879.00,0.0186
878.00,0.0187
877.00,0.0187
876.00,0.0187
875.00,0.0187
874.00,0.0188
873.00,0.0187
872.00,0.0187
871.00,0.0186
870.00,0.0186
869.00,0.0186
868.00,0.0186
867.00,0.0187
866.00,0.0187
865.00,0.0188
864.00,0.0189
863.00,0.0190
862.00,0.0192
861.00,0.0194
860.00,0.0196
859.00,0.0198
858.00,0.0200
857.00,0.0203
856.00,0.0205
855.00,0.0208
854.00,0.0210
853.00,0.0212
852.00,0.0214
851.00,0.0214
850.00,0.0213
849.00,0.0212
848.00,0.0212
847.00,0.0212
846.00,0.0213
845.00,0.0213
844.00,0.0214
843.00,0.0214
842.00,0.0215
841.00,0.0217
840.00,0.0219
839.00,0.0220
838.00,0.0222
837.00,0.0223
836.00,0.0225
835.00,0.0227
834.00,0.0228
833.00,0.0230
832.00,0.0232
831.00,0.0235
830.00,0.0237
829.00,0.0239
828.00,0.0240
827.00,0.0240
826.00,0.0240
825.00,0.0239
824.00,0.0238
823.00,0.0238
822.00,0.0237
821.00,0.0236
820.00,0.0236
819.00,0.0236
818.00,0.0236
817.00,0.0236
816.00,0.0238
815.00,0.0239
814.00,0.0239
813.00,0.0240
812.00,0.0241
811.00,0.0243
810.00,0.0245
809.00,0.0246
808.00,0.0248
807.00,0.0249
806.00,0.0250
805.00,0.0251
804.00,0.0252
803.00,0.0253
802.00,0.0255
801.00,0.0255
800.00,0.0256
799.00,0.0257
798.00,0.0258
797.00,0.0260
796.00,0.0261
795.00,0.0263
794.00,0.0264
793.00,0.0266
792.00,0.0268
791.00,0.0270
790.00,0.0273
789.00,0.0275
788.00,0.0277
787.00,0.0279
786.00,0.0281
785.00,0.0283
784.00,0.0286
783.00,0.0288
782.00,0.0291
781.00,0.0293
780.00,0.0296
779.00,0.0299
778.00,0.0301
777.00,0.0304
776.00,0.0307
775.00,0.0310
774.00,0.0313
773.00,0.0316
772.00,0.0319
771.00,0.0322
770.00,0.0325
769.00,0.0327
768.00,0.0330
767.00,0.0332
766.00,0.0334
765.00,0.0337
764.00,0.0339
763.00,0.0340
762.00,0.0342
761.00,0.0344
760.00,0.0346
759.00,0.0349
758.00,0.0351
757.00,0.0354
756.00,0.0357
755.00,0.0360
754.00,0.0362
753.00,0.0365
752.00,0.0369
751.00,0.0372
750.00,0.0376
749.00,0.0380
748.00,0.0385
747.00,0.0389
746.00,0.0393
745.00,0.0397
744.00,0.0402
743.00,0.0407
742.00,0.0412
741.00,0.0417
740.00,0.0422
739.00,0.0428
738.00,0.0434
737.00,0.0440
736.00,0.0446
735.00,0.0452
734.00,0.0458
733.00,0.0465
732.00,0.0471
731.00,0.0478
730.00,0.0486
729.00,0.0493
728.00,0.0500
727.00,0.0507
726.00,0.0513
725.00,0.0520
724.00,0.0527
723.00,0.0534
722.00,0.0541
721.00,0.0548
720.00,0.0553
719.00,0.0557
718.00,0.0559
717.00,0.0561
716.00,0.0563
715.00,0.0565
714.00,0.0568
713.00,0.0571
712.00,0.0575
711.00,0.0579
710.00,0.0584
709.00,0.0589
708.00,0.0595
707.00,0.0600
706.00,0.0605
705.00,0.0609
704.00,0.0614
703.00,0.0618
702.00,0.0622
701.00,0.0626
700.00,0.0629
699.00,0.0632
698.00,0.0634
697.00,0.0637
696.00,0.0639
695.00,0.0642
694.00,0.0645
693.00,0.0647
692.00,0.0649
691.00,0.0651
690.00,0.0652
689.00,0.0654
688.00,0.0655
687.00,0.0657
686.00,0.0658
685.00,0.0659
684.00,0.0660
683.00,0.0662
682.00,0.0664
681.00,0.0666
680.00,0.0667
679.00,0.0668
678.00,0.0668
677.00,0.0669
676.00,0.0670
675.00,0.0672
674.00,0.0674
673.00,0.0675
672.00,0.0677
671.00,0.0679
670.00,0.0681
669.00,0.0682
668.00,0.0683
667.00,0.0684
666.00,0.0685
665.00,0.0687
664.00,0.0689
663.00,0.0691
662.00,0.0693
661.00,0.0696
660.00,0.0698
659.00,0.0699
658.00,0.0701
657.00,0.0702
656.00,0.0704
655.00,0.0705
654.00,0.0707
653.00,0.0709
652.00,0.0711
651.00,0.0713
650.00,0.0716
649.00,0.0718
648.00,0.0720
647.00,0.0721
646.00,0.0722
645.00,0.0724
644.00,0.0726
643.00,0.0728
642.00,0.0729
641.00,0.0730
640.00,0.0730
639.00,0.0730
638.00,0.0730
637.00,0.0730
636.00,0.0730
635.00,0.0730
634.00,0.0731
633.00,0.0731
632.00,0.0731
631.00,0.0730
630.00,0.0730
629.00,0.0730
628.00,0.0730
627.00,0.0731
626.00,0.0731
625.00,0.0732
624.00,0.0734
623.00,0.0736
622.00,0.0738
621.00,0.0741
620.00,0.0746
619.00,0.0750
618.00,0.0755
617.00,0.0759
616.00,0.0762
615.00,0.0765
614.00,0.0766
613.00,0.0766
612.00,0.0767
611.00,0.0767
610.00,0.0766
609.00,0.0764
608.00,0.0761
607.00,0.0757
606.00,0.0754
605.00,0.0751
604.00,0.0748
603.00,0.0744
602.00,0.0740
601.00,0.0737
600.00,0.0735
599.00,0.0733
598.00,0.0731
597.00,0.0729
596.00,0.0727
595.00,0.0726
594.00,0.0726
593.00,0.0726
592.00,0.0726
591.00,0.0727
590.00,0.0728
589.00,0.0729
588.00,0.0730
587.00,0.0731
586.00,0.0731
585.00,0.0732
584.00,0.0734
583.00,0.0736
582.00,0.0738
581.00,0.0740
580.00,0.0742
579.00,0.0744
578.00,0.0746
577.00,0.0748
576.00,0.0751
575.00,0.0753
574.00,0.0756
573.00,0.0759
572.00,0.0763
571.00,0.0767
570.00,0.0770
569.00,0.0772
568.00,0.0774
567.00,0.0777
566.00,0.0783
565.00,0.0790
564.00,0.0798
563.00,0.0805
562.00,0.0813
561.00,0.0820
560.00,0.0828
559.00,0.0837
558.00,0.0847
557.00,0.0856
556.00,0.0865
555.00,0.0873
554.00,0.0877
553.00,0.0879
552.00,0.0881
551.00,0.0880
550.00,0.0879
549.00,0.0878
548.00,0.0877
547.00,0.0876
546.00,0.0876
545.00,0.0875
544.00,0.0875
543.00,0.0873
542.00,0.0871
541.00,0.0867
540.00,0.0864
539.00,0.0861
538.00,0.0858
537.00,0.0854
536.00,0.0851
535.00,0.0849
534.00,0.0846
533.00,0.0843
532.00,0.0841
531.00,0.0838
530.00,0.0836
529.00,0.0833
528.00,0.0831
527.00,0.0830
526.00,0.0828
525.00,0.0826
524.00,0.0824
523.00,0.0822
522.00,0.0819
521.00,0.0816
520.00,0.0815
519.00,0.0815
518.00,0.0816
517.00,0.0816
516.00,0.0815
515.00,0.0812
514.00,0.0808
513.00,0.0805
512.00,0.0804
511.00,0.0804
510.00,0.0804
509.00,0.0802
508.00,0.0799
507.00,0.0796
506.00,0.0793
505.00,0.0791
504.00,0.0789
503.00,0.0786
502.00,0.0782
501.00,0.0778
500.00,0.0775
499.00,0.0773
498.00,0.0771
497.00,0.0770
496.00,0.0770
495.00,0.0771
494.00,0.0773
493.00,0.0775
492.00,0.0776
491.00,0.0775
490.00,0.0773
489.00,0.0770
488.00,0.0768
487.00,0.0766
486.00,0.0763
485.00,0.0760
484.00,0.0758
483.00,0.0754
482.00,0.0750
481.00,0.0747
480.00,0.0744
479.00,0.0742
478.00,0.0739
477.00,0.0735
476.00,0.0731
475.00,0.0728
474.00,0.0728
473.00,0.0729
472.00,0.0732
471.00,0.0733
470.00,0.0732
469.00,0.0729
468.00,0.0725
467.00,0.0722
466.00,0.0721
465.00,0.0723
464.00,0.0723
463.00,0.0720
462.00,0.0715
461.00,0.0711
460.00,0.0708
459.00,0.0706
458.00,0.0704
457.00,0.0703
456.00,0.0702
455.00,0.0699
454.00,0.0694
453.00,0.0691
452.00,0.0691
451.00,0.0692
450.00,0.0691
449.00,0.0688
448.00,0.0684
447.00,0.0680
446.00,0.0677
445.00,0.0675
444.00,0.0673
443.00,0.0670
442.00,0.0666
441.00,0.0662
440.00,0.0658
439.00,0.0654
438.00,0.0651
437.00,0.0650
436.00,0.0653
435.00,0.0657
434.00,0.0658
433.00,0.0656
432.00,0.0655
431.00,0.0658
430.00,0.0663
429.00,0.0669
428.00,0.0673
427.00,0.0672
426.00,0.0667
425.00,0.0661
424.00,0.0658
423.00,0.0655
422.00,0.0650
421.00,0.0643
420.00,0.0636
419.00,0.0630
418.00,0.0624
417.00,0.0620
416.00,0.0618
415.00,0.0617
414.00,0.0618
413.00,0.0621
412.00,0.0624
411.00,0.0624
410.00,0.0616
409.00,0.0602
408.00,0.0586
407.00,0.0572
406.00,0.0565
405.00,0.0563
404.00,0.0567
403.00,0.0570
402.00,0.0569
401.00,0.0562
400.00,0.0552
