Created as New Dataset,Sample 642 By YargerLab Date Tuesday, June 10 2025
cm-1,A
4000.00,0.0019
3999.00,0.0019
3998.00,0.0019
3997.00,0.0019
3996.00,0.0019
3995.00,0.0019
3994.00,0.0019
3993.00,0.0019
3992.00,0.0019
3991.00,0.0020
3990.00,0.0020
3989.00,0.0019
3988.00,0.0019
3987.00,0.0018
3986.00,0.0018
3985.00,0.0018
3984.00,0.0018
3983.00,0.0018
3982.00,0.0018
3981.00,0.0018
3980.00,0.0018
3979.00,0.0018
3978.00,0.0018
3977.00,0.0018
3976.00,0.0018
3975.00,0.0018
3974.00,0.0018
3973.00,0.0018
3972.00,0.0018
3971.00,0.0018
3970.00,0.0018
3969.00,0.0018
3968.00,0.0018
3967.00,0.0018
3966.00,0.0018
3965.00,0.0017
3964.00,0.0017
3963.00,0.0017
3962.00,0.0017
3961.00,0.0017
3960.00,0.0017
3959.00,0.0017
3958.00,0.0017
3957.00,0.0017
3956.00,0.0018
3955.00,0.0018
3954.00,0.0018
3953.00,0.0018
3952.00,0.0017
3951.00,0.0017
3950.00,0.0017
3949.00,0.0017
3948.00,0.0016
3947.00,0.0016
3946.00,0.0016
3945.00,0.0016
3944.00,0.0016
3943.00,0.0017
3942.00,0.0017
3941.00,0.0017
3940.00,0.0016
3939.00,0.0016
3938.00,0.0016
3937.00,0.0016
3936.00,0.0015
3935.00,0.0014
3934.00,0.0013
3933.00,0.0013
3932.00,0.0014
3931.00,0.0015
3930.00,0.0015
3929.00,0.0016
3928.00,0.0016
3927.00,0.0016
3926.00,0.0017
3925.00,0.0018
3924.00,0.0018
3923.00,0.0017
3922.00,0.0015
3921.00,0.0014
3920.00,0.0013
3919.00,0.0013
3918.00,0.0013
3917.00,0.0013
3916.00,0.0014
3915.00,0.0015
3914.00,0.0015
3913.00,0.0016
3912.00,0.0016
3911.00,0.0017
3910.00,0.0017
3909.00,0.0017
3908.00,0.0016
3907.00,0.0016
3906.00,0.0015
3905.00,0.0013
3904.00,0.0010
3903.00,0.0008
3902.00,0.0006
3901.00,0.0005
3900.00,0.0007
3899.00,0.0009
3898.00,0.0010
3897.00,0.0011
3896.00,0.0012
3895.00,0.0013
3894.00,0.0014
3893.00,0.0015
3892.00,0.0016
3891.00,0.0016
3890.00,0.0015
3889.00,0.0013
3888.00,0.0011
3887.00,0.0009
3886.00,0.0009
3885.00,0.0010
3884.00,0.0010
3883.00,0.0010
3882.00,0.0009
3881.00,0.0010
3880.00,0.0011
3879.00,0.0012
3878.00,0.0011
3877.00,0.0011
3876.00,0.0011
3875.00,0.0012
3874.00,0.0013
3873.00,0.0013
3872.00,0.0011
3871.00,0.0009
3870.00,0.0008
3869.00,0.0008
3868.00,0.0009
3867.00,0.0008
3866.00,0.0008
3865.00,0.0009
3864.00,0.0010
3863.00,0.0011
3862.00,0.0010
3861.00,0.0009
3860.00,0.0009
3859.00,0.0011
3858.00,0.0013
3857.00,0.0015
3856.00,0.0016
3855.00,0.0016
3854.00,0.0014
3853.00,0.0012
3852.00,0.0010
3851.00,0.0009
3850.00,0.0008
3849.00,0.0008
3848.00,0.0009
3847.00,0.0010
3846.00,0.0010
3845.00,0.0010
3844.00,0.0010
3843.00,0.0010
3842.00,0.0009
3841.00,0.0009
3840.00,0.0009
3839.00,0.0008
3838.00,0.0008
3837.00,0.0009
3836.00,0.0009
3835.00,0.0010
3834.00,0.0010
3833.00,0.0010
3832.00,0.0010
3831.00,0.0010
3830.00,0.0011
3829.00,0.0011
3828.00,0.0011
3827.00,0.0011
3826.00,0.0011
3825.00,0.0011
3824.00,0.0010
3823.00,0.0008
3822.00,0.0008
3821.00,0.0009
3820.00,0.0010
3819.00,0.0010
3818.00,0.0008
3817.00,0.0007
3816.00,0.0008
3815.00,0.0011
3814.00,0.0013
3813.00,0.0013
3812.00,0.0014
3811.00,0.0014
3810.00,0.0015
3809.00,0.0015
3808.00,0.0014
3807.00,0.0013
3806.00,0.0013
3805.00,0.0012
3804.00,0.0010
3803.00,0.0008
3802.00,0.0009
3801.00,0.0010
3800.00,0.0010
3799.00,0.0010
3798.00,0.0009
3797.00,0.0009
3796.00,0.0011
3795.00,0.0012
3794.00,0.0014
3793.00,0.0014
3792.00,0.0015
3791.00,0.0016
3790.00,0.0017
3789.00,0.0017
3788.00,0.0017
3787.00,0.0016
3786.00,0.0016
3785.00,0.0016
3784.00,0.0015
3783.00,0.0015
3782.00,0.0014
3781.00,0.0013
3780.00,0.0013
3779.00,0.0013
3778.00,0.0013
3777.00,0.0013
3776.00,0.0013
3775.00,0.0014
3774.00,0.0014
3773.00,0.0015
3772.00,0.0014
3771.00,0.0013
3770.00,0.0013
3769.00,0.0012
3768.00,0.0012
3767.00,0.0011
3766.00,0.0011
3765.00,0.0011
3764.00,0.0012
3763.00,0.0011
3762.00,0.0010
3761.00,0.0010
3760.00,0.0010
3759.00,0.0010
3758.00,0.0009
3757.00,0.0008
3756.00,0.0008
3755.00,0.0007
3754.00,0.0006
3753.00,0.0005
3752.00,0.0004
3751.00,0.0002
3750.00,-0.0000
3749.00,-0.0002
3748.00,-0.0002
3747.00,-0.0002
3746.00,-0.0003
3745.00,-0.0004
3744.00,-0.0002
3743.00,0.0000
3742.00,0.0001
3741.00,-0.0000
3740.00,-0.0002
3739.00,-0.0003
3738.00,-0.0004
3737.00,-0.0005
3736.00,-0.0003
3735.00,-0.0002
3734.00,-0.0001
3733.00,-0.0001
3732.00,0.0000
3731.00,0.0002
3730.00,0.0004
3729.00,0.0005
3728.00,0.0005
3727.00,0.0005
3726.00,0.0006
3725.00,0.0006
3724.00,0.0007
3723.00,0.0007
3722.00,0.0008
3721.00,0.0009
3720.00,0.0010
3719.00,0.0010
3718.00,0.0011
3717.00,0.0011
3716.00,0.0011
3715.00,0.0010
3714.00,0.0008
3713.00,0.0007
3712.00,0.0007
3711.00,0.0007
3710.00,0.0007
3709.00,0.0007
3708.00,0.0007
3707.00,0.0008
3706.00,0.0009
3705.00,0.0009
3704.00,0.0010
3703.00,0.0010
3702.00,0.0011
3701.00,0.0012
3700.00,0.0012
3699.00,0.0012
3698.00,0.0012
3697.00,0.0012
3696.00,0.0013
3695.00,0.0013
3694.00,0.0012
3693.00,0.0011
3692.00,0.0011
3691.00,0.0010
3690.00,0.0009
3689.00,0.0007
3688.00,0.0006
3687.00,0.0006
3686.00,0.0007
3685.00,0.0008
3684.00,0.0008
3683.00,0.0008
3682.00,0.0008
3681.00,0.0008
3680.00,0.0009
3679.00,0.0009
3678.00,0.0007
3677.00,0.0005
3676.00,0.0004
3675.00,0.0003
3674.00,0.0003
3673.00,0.0002
3672.00,-0.0000
3671.00,-0.0000
3670.00,0.0002
3669.00,0.0004
3668.00,0.0005
3667.00,0.0006
3666.00,0.0007
3665.00,0.0008
3664.00,0.0009
3663.00,0.0010
3662.00,0.0011
3661.00,0.0011
3660.00,0.0011
3659.00,0.0011
3658.00,0.0010
3657.00,0.0009
3656.00,0.0009
3655.00,0.0008
3654.00,0.0006
3653.00,0.0003
3652.00,0.0000
3651.00,-0.0001
3650.00,-0.0001
3649.00,-0.0002
3648.00,-0.0003
3647.00,-0.0002
3646.00,0.0000
3645.00,0.0003
3644.00,0.0005
3643.00,0.0007
3642.00,0.0009
3641.00,0.0010
3640.00,0.0011
3639.00,0.0011
3638.00,0.0010
3637.00,0.0010
3636.00,0.0009
3635.00,0.0008
3634.00,0.0008
3633.00,0.0008
3632.00,0.0008
3631.00,0.0006
3630.00,0.0005
3629.00,0.0005
3628.00,0.0005
3627.00,0.0004
3626.00,0.0004
3625.00,0.0004
3624.00,0.0005
3623.00,0.0006
3622.00,0.0007
3621.00,0.0008
3620.00,0.0009
3619.00,0.0008
3618.00,0.0006
3617.00,0.0004
3616.00,0.0002
3615.00,0.0001
3614.00,0.0001
3613.00,0.0001
3612.00,0.0001
3611.00,0.0001
3610.00,0.0001
3609.00,0.0002
3608.00,0.0004
3607.00,0.0006
3606.00,0.0007
3605.00,0.0007
3604.00,0.0008
3603.00,0.0009
3602.00,0.0009
3601.00,0.0010
3600.00,0.0009
3599.00,0.0009
3598.00,0.0009
3597.00,0.0008
3596.00,0.0008
3595.00,0.0008
3594.00,0.0008
3593.00,0.0008
3592.00,0.0007
3591.00,0.0006
3590.00,0.0005
3589.00,0.0004
3588.00,0.0005
3587.00,0.0006
3586.00,0.0007
3585.00,0.0007
3584.00,0.0008
3583.00,0.0009
3582.00,0.0010
3581.00,0.0012
3580.00,0.0013
3579.00,0.0014
3578.00,0.0014
3577.00,0.0014
3576.00,0.0014
3575.00,0.0014
3574.00,0.0014
3573.00,0.0013
3572.00,0.0012
3571.00,0.0011
3570.00,0.0009
3569.00,0.0007
3568.00,0.0006
3567.00,0.0006
3566.00,0.0006
3565.00,0.0007
3564.00,0.0008
3563.00,0.0009
3562.00,0.0010
3561.00,0.0012
3560.00,0.0013
3559.00,0.0014
3558.00,0.0015
3557.00,0.0015
3556.00,0.0015
3555.00,0.0015
3554.00,0.0015
3553.00,0.0015
3552.00,0.0015
3551.00,0.0014
3550.00,0.0013
3549.00,0.0012
3548.00,0.0011
3547.00,0.0010
3546.00,0.0011
3545.00,0.0012
3544.00,0.0012
3543.00,0.0013
3542.00,0.0014
3541.00,0.0015
3540.00,0.0016
3539.00,0.0017
3538.00,0.0017
3537.00,0.0017
3536.00,0.0017
3535.00,0.0017
3534.00,0.0017
3533.00,0.0017
3532.00,0.0017
3531.00,0.0017
3530.00,0.0017
3529.00,0.0017
3528.00,0.0016
3527.00,0.0016
3526.00,0.0016
3525.00,0.0016
3524.00,0.0016
3523.00,0.0017
3522.00,0.0017
3521.00,0.0017
3520.00,0.0018
3519.00,0.0018
3518.00,0.0019
3517.00,0.0019
3516.00,0.0019
3515.00,0.0019
3514.00,0.0020
3513.00,0.0020
3512.00,0.0020
3511.00,0.0020
3510.00,0.0020
3509.00,0.0020
3508.00,0.0019
3507.00,0.0019
3506.00,0.0018
3505.00,0.0018
3504.00,0.0018
3503.00,0.0018
3502.00,0.0019
3501.00,0.0019
3500.00,0.0019
3499.00,0.0020
3498.00,0.0020
3497.00,0.0021
3496.00,0.0021
3495.00,0.0021
3494.00,0.0022
3493.00,0.0022
3492.00,0.0022
3491.00,0.0023
3490.00,0.0023
3489.00,0.0023
3488.00,0.0023
3487.00,0.0023
3486.00,0.0023
3485.00,0.0023
3484.00,0.0023
3483.00,0.0023
3482.00,0.0024
3481.00,0.0024
3480.00,0.0024
3479.00,0.0024
3478.00,0.0024
3477.00,0.0024
3476.00,0.0024
3475.00,0.0024
3474.00,0.0024
3473.00,0.0024
3472.00,0.0025
3471.00,0.0025
3470.00,0.0025
3469.00,0.0025
3468.00,0.0025
3467.00,0.0026
3466.00,0.0026
3465.00,0.0026
3464.00,0.0026
3463.00,0.0026
3462.00,0.0026
3461.00,0.0026
3460.00,0.0026
3459.00,0.0027
3458.00,0.0027
3457.00,0.0028
3456.00,0.0028
3455.00,0.0028
3454.00,0.0028
3453.00,0.0028
3452.00,0.0028
3451.00,0.0028
3450.00,0.0027
3449.00,0.0027
3448.00,0.0027
3447.00,0.0027
3446.00,0.0027
3445.00,0.0027
3444.00,0.0028
3443.00,0.0028
3442.00,0.0028
3441.00,0.0028
3440.00,0.0028
3439.00,0.0028
3438.00,0.0028
3437.00,0.0028
3436.00,0.0028
3435.00,0.0029
3434.00,0.0029
3433.00,0.0029
3432.00,0.0029
3431.00,0.0029
3430.00,0.0030
3429.00,0.0030
3428.00,0.0030
3427.00,0.0030
3426.00,0.0030
3425.00,0.0030
3424.00,0.0030
3423.00,0.0031
3422.00,0.0031
3421.00,0.0032
3420.00,0.0032
3419.00,0.0032
3418.00,0.0032
3417.00,0.0032
3416.00,0.0031
3415.00,0.0031
3414.00,0.0031
3413.00,0.0032
3412.00,0.0032
3411.00,0.0033
3410.00,0.0033
3409.00,0.0033
3408.00,0.0032
3407.00,0.0032
3406.00,0.0033
3405.00,0.0033
3404.00,0.0034
3403.00,0.0034
3402.00,0.0034
3401.00,0.0034
3400.00,0.0033
3399.00,0.0033
3398.00,0.0033
3397.00,0.0033
3396.00,0.0034
3395.00,0.0033
3394.00,0.0033
3393.00,0.0033
3392.00,0.0033
3391.00,0.0033
3390.00,0.0034
3389.00,0.0034
3388.00,0.0034
3387.00,0.0035
3386.00,0.0035
3385.00,0.0035
3384.00,0.0035
3383.00,0.0035
3382.00,0.0035
3381.00,0.0035
3380.00,0.0035
3379.00,0.0035
3378.00,0.0035
3377.00,0.0035
3376.00,0.0036
3375.00,0.0036
3374.00,0.0036
3373.00,0.0036
3372.00,0.0036
3371.00,0.0036
3370.00,0.0036
3369.00,0.0036
3368.00,0.0036
3367.00,0.0037
3366.00,0.0037
3365.00,0.0037
3364.00,0.0038
3363.00,0.0038
3362.00,0.0038
3361.00,0.0038
3360.00,0.0038
3359.00,0.0038
3358.00,0.0038
3357.00,0.0039
3356.00,0.0039
3355.00,0.0039
3354.00,0.0039
3353.00,0.0039
3352.00,0.0039
3351.00,0.0039
3350.00,0.0039
3349.00,0.0040
3348.00,0.0040
3347.00,0.0041
3346.00,0.0041
3345.00,0.0041
3344.00,0.0041
3343.00,0.0041
3342.00,0.0041
3341.00,0.0041
3340.00,0.0041
3339.00,0.0041
3338.00,0.0041
3337.00,0.0041
3336.00,0.0041
3335.00,0.0041
3334.00,0.0041
3333.00,0.0041
3332.00,0.0041
3331.00,0.0041
3330.00,0.0041
3329.00,0.0041
3328.00,0.0041
3327.00,0.0041
3326.00,0.0040
3325.00,0.0040
3324.00,0.0040
3323.00,0.0040
3322.00,0.0040
3321.00,0.0040
3320.00,0.0040
3319.00,0.0040
3318.00,0.0040
3317.00,0.0040
3316.00,0.0040
3315.00,0.0040
3314.00,0.0040
3313.00,0.0040
3312.00,0.0040
3311.00,0.0040
3310.00,0.0040
3309.00,0.0040
3308.00,0.0040
3307.00,0.0040
3306.00,0.0040
3305.00,0.0041
3304.00,0.0041
3303.00,0.0041
3302.00,0.0041
3301.00,0.0041
3300.00,0.0041
3299.00,0.0041
3298.00,0.0041
3297.00,0.0041
3296.00,0.0040
3295.00,0.0040
3294.00,0.0040
3293.00,0.0040
3292.00,0.0040
3291.00,0.0040
3290.00,0.0041
3289.00,0.0041
3288.00,0.0041
3287.00,0.0042
3286.00,0.0042
3285.00,0.0041
3284.00,0.0041
3283.00,0.0041
3282.00,0.0041
3281.00,0.0040
3280.00,0.0040
3279.00,0.0040
3278.00,0.0040
3277.00,0.0039
3276.00,0.0039
3275.00,0.0039
3274.00,0.0039
3273.00,0.0039
3272.00,0.0039
3271.00,0.0039
3270.00,0.0039
3269.00,0.0039
3268.00,0.0039
3267.00,0.0039
3266.00,0.0039
3265.00,0.0039
3264.00,0.0039
3263.00,0.0039
3262.00,0.0039
3261.00,0.0038
3260.00,0.0038
3259.00,0.0038
3258.00,0.0037
3257.00,0.0037
3256.00,0.0037
3255.00,0.0037
3254.00,0.0037
3253.00,0.0036
3252.00,0.0036
3251.00,0.0036
3250.00,0.0036
3249.00,0.0036
3248.00,0.0036
3247.00,0.0035
3246.00,0.0035
3245.00,0.0035
3244.00,0.0035
3243.00,0.0035
3242.00,0.0035
3241.00,0.0035
3240.00,0.0034
3239.00,0.0034
3238.00,0.0034
3237.00,0.0033
3236.00,0.0033
3235.00,0.0033
3234.00,0.0033
3233.00,0.0033
3232.00,0.0033
3231.00,0.0033
3230.00,0.0033
3229.00,0.0032
3228.00,0.0032
3227.00,0.0032
3226.00,0.0032
3225.00,0.0032
3224.00,0.0032
3223.00,0.0032
3222.00,0.0032
3221.00,0.0032
3220.00,0.0031
3219.00,0.0031
3218.00,0.0031
3217.00,0.0031
3216.00,0.0030
3215.00,0.0030
3214.00,0.0030
3213.00,0.0030
3212.00,0.0030
3211.00,0.0030
3210.00,0.0030
3209.00,0.0030
3208.00,0.0029
3207.00,0.0029
3206.00,0.0029
3205.00,0.0029
3204.00,0.0029
3203.00,0.0030
3202.00,0.0030
3201.00,0.0030
3200.00,0.0030
3199.00,0.0030
3198.00,0.0030
3197.00,0.0029
3196.00,0.0029
3195.00,0.0029
3194.00,0.0029
3193.00,0.0029
3192.00,0.0029
3191.00,0.0029
3190.00,0.0029
3189.00,0.0028
3188.00,0.0028
3187.00,0.0028
3186.00,0.0028
3185.00,0.0028
3184.00,0.0029
3183.00,0.0029
3182.00,0.0029
3181.00,0.0029
3180.00,0.0028
3179.00,0.0028
3178.00,0.0028
3177.00,0.0028
3176.00,0.0028
3175.00,0.0028
3174.00,0.0029
3173.00,0.0029
3172.00,0.0029
3171.00,0.0028
3170.00,0.0028
3169.00,0.0028
3168.00,0.0028
3167.00,0.0029
3166.00,0.0029
3165.00,0.0029
3164.00,0.0028
3163.00,0.0028
3162.00,0.0028
3161.00,0.0027
3160.00,0.0027
3159.00,0.0027
3158.00,0.0027
3157.00,0.0026
3156.00,0.0026
3155.00,0.0026
3154.00,0.0026
3153.00,0.0025
3152.00,0.0025
3151.00,0.0026
3150.00,0.0026
3149.00,0.0026
3148.00,0.0026
3147.00,0.0026
3146.00,0.0026
3145.00,0.0026
3144.00,0.0026
3143.00,0.0026
3142.00,0.0025
3141.00,0.0025
3140.00,0.0024
3139.00,0.0024
3138.00,0.0024
3137.00,0.0025
3136.00,0.0025
3135.00,0.0025
3134.00,0.0025
3133.00,0.0025
3132.00,0.0025
3131.00,0.0025
3130.00,0.0025
3129.00,0.0025
3128.00,0.0025
3127.00,0.0025
3126.00,0.0025
3125.00,0.0025
3124.00,0.0024
3123.00,0.0024
3122.00,0.0023
3121.00,0.0023
3120.00,0.0024
3119.00,0.0024
3118.00,0.0024
3117.00,0.0025
3116.00,0.0025
3115.00,0.0025
3114.00,0.0026
3113.00,0.0027
3112.00,0.0028
3111.00,0.0029
3110.00,0.0030
3109.00,0.0032
3108.00,0.0033
3107.00,0.0034
3106.00,0.0034
3105.00,0.0035
3104.00,0.0035
3103.00,0.0035
3102.00,0.0035
3101.00,0.0034
3100.00,0.0034
3099.00,0.0034
3098.00,0.0034
3097.00,0.0034
3096.00,0.0035
3095.00,0.0035
3094.00,0.0036
3093.00,0.0037
3092.00,0.0038
3091.00,0.0040
3090.00,0.0042
3089.00,0.0045
3088.00,0.0048
3087.00,0.0052
3086.00,0.0055
3085.00,0.0058
3084.00,0.0061
3083.00,0.0063
3082.00,0.0063
3081.00,0.0062
3080.00,0.0061
3079.00,0.0059
3078.00,0.0056
3077.00,0.0054
3076.00,0.0053
3075.00,0.0052
3074.00,0.0052
3073.00,0.0052
3072.00,0.0052
3071.00,0.0052
3070.00,0.0054
3069.00,0.0055
3068.00,0.0058
3067.00,0.0061
3066.00,0.0064
3065.00,0.0068
3064.00,0.0072
3063.00,0.0076
3062.00,0.0079
3061.00,0.0081
3060.00,0.0082
3059.00,0.0082
3058.00,0.0080
3057.00,0.0077
3056.00,0.0074
3055.00,0.0070
3054.00,0.0066
3053.00,0.0063
3052.00,0.0059
3051.00,0.0057
3050.00,0.0055
3049.00,0.0053
3048.00,0.0052
3047.00,0.0051
3046.00,0.0050
3045.00,0.0049
3044.00,0.0049
3043.00,0.0049
3042.00,0.0050
3041.00,0.0052
3040.00,0.0054
3039.00,0.0057
3038.00,0.0061
3037.00,0.0064
3036.00,0.0069
3035.00,0.0074
3034.00,0.0080
3033.00,0.0087
3032.00,0.0096
3031.00,0.0105
3030.00,0.0115
3029.00,0.0125
3028.00,0.0133
3027.00,0.0140
3026.00,0.0144
3025.00,0.0145
3024.00,0.0143
3023.00,0.0136
3022.00,0.0127
3021.00,0.0116
3020.00,0.0105
3019.00,0.0094
3018.00,0.0083
3017.00,0.0074
3016.00,0.0067
3015.00,0.0061
3014.00,0.0055
3013.00,0.0051
3012.00,0.0048
3011.00,0.0045
3010.00,0.0044
3009.00,0.0043
3008.00,0.0042
3007.00,0.0042
3006.00,0.0043
3005.00,0.0044
3004.00,0.0044
3003.00,0.0045
3002.00,0.0045
3001.00,0.0044
3000.00,0.0043
2999.00,0.0040
2998.00,0.0038
2997.00,0.0035
2996.00,0.0032
2995.00,0.0030
2994.00,0.0028
2993.00,0.0026
2992.00,0.0025
2991.00,0.0024
2990.00,0.0023
2989.00,0.0022
2988.00,0.0022
2987.00,0.0021
2986.00,0.0021
2985.00,0.0019
2984.00,0.0017
2983.00,0.0016
2982.00,0.0014
2981.00,0.0014
2980.00,0.0014
2979.00,0.0016
2978.00,0.0018
2977.00,0.0019
2976.00,0.0021
2975.00,0.0021
2974.00,0.0022
2973.00,0.0022
2972.00,0.0023
2971.00,0.0024
2970.00,0.0026
2969.00,0.0028
2968.00,0.0030
2967.00,0.0032
2966.00,0.0033
2965.00,0.0035
2964.00,0.0037
2963.00,0.0038
2962.00,0.0040
2961.00,0.0042
2960.00,0.0044
2959.00,0.0046
2958.00,0.0048
2957.00,0.0050
2956.00,0.0052
2955.00,0.0054
2954.00,0.0056
2953.00,0.0058
2952.00,0.0061
2951.00,0.0063
2950.00,0.0065
2949.00,0.0068
2948.00,0.0071
2947.00,0.0075
2946.00,0.0078
2945.00,0.0082
2944.00,0.0087
2943.00,0.0091
2942.00,0.0096
2941.00,0.0101
2940.00,0.0106
2939.00,0.0112
2938.00,0.0118
2937.00,0.0124
2936.00,0.0130
2935.00,0.0137
2934.00,0.0143
2933.00,0.0150
2932.00,0.0156
2931.00,0.0163
2930.00,0.0169
2929.00,0.0175
2928.00,0.0181
2927.00,0.0186
2926.00,0.0191
2925.00,0.0194
2924.00,0.0196
2923.00,0.0197
2922.00,0.0197
2921.00,0.0197
2920.00,0.0196
2919.00,0.0194
2918.00,0.0192
2917.00,0.0189
2916.00,0.0185
2915.00,0.0181
2914.00,0.0177
2913.00,0.0172
2912.00,0.0167
2911.00,0.0162
2910.00,0.0157
2909.00,0.0153
2908.00,0.0148
2907.00,0.0143
2906.00,0.0139
2905.00,0.0134
2904.00,0.0129
2903.00,0.0124
2902.00,0.0120
2901.00,0.0116
2900.00,0.0112
2899.00,0.0108
2898.00,0.0104
2897.00,0.0100
2896.00,0.0096
2895.00,0.0093
2894.00,0.0090
2893.00,0.0087
2892.00,0.0084
2891.00,0.0082
2890.00,0.0080
2889.00,0.0079
2888.00,0.0077
2887.00,0.0075
2886.00,0.0074
2885.00,0.0072
2884.00,0.0070
2883.00,0.0069
2882.00,0.0068
2881.00,0.0067
2880.00,0.0067
2879.00,0.0066
2878.00,0.0065
2877.00,0.0064
2876.00,0.0063
2875.00,0.0063
2874.00,0.0062
2873.00,0.0062
2872.00,0.0062
2871.00,0.0061
2870.00,0.0061
2869.00,0.0061
2868.00,0.0062
2867.00,0.0063
2866.00,0.0064
2865.00,0.0066
2864.00,0.0067
2863.00,0.0070
2862.00,0.0072
2861.00,0.0075
2860.00,0.0078
2859.00,0.0081
2858.00,0.0085
2857.00,0.0088
2856.00,0.0091
2855.00,0.0094
2854.00,0.0097
2853.00,0.0099
2852.00,0.0101
2851.00,0.0101
2850.00,0.0101
2849.00,0.0100
2848.00,0.0098
2847.00,0.0095
2846.00,0.0092
2845.00,0.0088
2844.00,0.0084
2843.00,0.0079
2842.00,0.0075
2841.00,0.0070
2840.00,0.0065
2839.00,0.0060
2838.00,0.0056
2837.00,0.0052
2836.00,0.0048
2835.00,0.0045
2834.00,0.0043
2833.00,0.0041
2832.00,0.0040
2831.00,0.0038
2830.00,0.0037
2829.00,0.0037
2828.00,0.0036
2827.00,0.0035
2826.00,0.0034
2825.00,0.0034
2824.00,0.0033
2823.00,0.0032
2822.00,0.0032
2821.00,0.0032
2820.00,0.0032
2819.00,0.0032
2818.00,0.0032
2817.00,0.0032
2816.00,0.0031
2815.00,0.0031
2814.00,0.0030
2813.00,0.0030
2812.00,0.0030
2811.00,0.0030
2810.00,0.0030
2809.00,0.0030
2808.00,0.0030
2807.00,0.0030
2806.00,0.0029
2805.00,0.0029
2804.00,0.0029
2803.00,0.0029
2802.00,0.0029
2801.00,0.0029
2800.00,0.0028
2799.00,0.0028
2798.00,0.0028
2797.00,0.0027
2796.00,0.0027
2795.00,0.0027
2794.00,0.0027
2793.00,0.0027
2792.00,0.0027
2791.00,0.0027
2790.00,0.0027
2789.00,0.0027
2788.00,0.0027
2787.00,0.0027
2786.00,0.0027
2785.00,0.0027
2784.00,0.0027
2783.00,0.0026
2782.00,0.0026
2781.00,0.0026
2780.00,0.0026
2779.00,0.0026
2778.00,0.0026
2777.00,0.0026
2776.00,0.0026
2775.00,0.0026
2774.00,0.0025
2773.00,0.0025
2772.00,0.0025
2771.00,0.0025
2770.00,0.0026
2769.00,0.0026
2768.00,0.0025
2767.00,0.0025
2766.00,0.0025
2765.00,0.0025
2764.00,0.0025
2763.00,0.0025
2762.00,0.0025
2761.00,0.0025
2760.00,0.0025
2759.00,0.0025
2758.00,0.0025
2757.00,0.0025
2756.00,0.0025
2755.00,0.0025
2754.00,0.0025
2753.00,0.0025
2752.00,0.0025
2751.00,0.0024
2750.00,0.0024
2749.00,0.0024
2748.00,0.0024
2747.00,0.0024
2746.00,0.0024
2745.00,0.0024
2744.00,0.0025
2743.00,0.0025
2742.00,0.0025
2741.00,0.0025
2740.00,0.0025
2739.00,0.0025
2738.00,0.0025
2737.00,0.0025
2736.00,0.0025
2735.00,0.0025
2734.00,0.0025
2733.00,0.0025
2732.00,0.0024
2731.00,0.0024
2730.00,0.0024
2729.00,0.0024
2728.00,0.0024
2727.00,0.0024
2726.00,0.0024
2725.00,0.0024
2724.00,0.0024
2723.00,0.0024
2722.00,0.0024
2721.00,0.0024
2720.00,0.0024
2719.00,0.0025
2718.00,0.0025
2717.00,0.0025
2716.00,0.0025
2715.00,0.0025
2714.00,0.0025
2713.00,0.0025
2712.00,0.0025
2711.00,0.0025
2710.00,0.0025
2709.00,0.0025
2708.00,0.0025
2707.00,0.0025
2706.00,0.0025
2705.00,0.0025
2704.00,0.0024
2703.00,0.0024
2702.00,0.0025
2701.00,0.0025
2700.00,0.0025
2699.00,0.0025
2698.00,0.0025
2697.00,0.0024
2696.00,0.0024
2695.00,0.0024
2694.00,0.0024
2693.00,0.0024
2692.00,0.0024
2691.00,0.0024
2690.00,0.0024
2689.00,0.0024
2688.00,0.0024
2687.00,0.0024
2686.00,0.0024
2685.00,0.0024
2684.00,0.0024
2683.00,0.0024
2682.00,0.0024
2681.00,0.0024
2680.00,0.0024
2679.00,0.0024
2678.00,0.0024
2677.00,0.0024
2676.00,0.0024
2675.00,0.0024
2674.00,0.0024
2673.00,0.0024
2672.00,0.0024
2671.00,0.0024
2670.00,0.0024
2669.00,0.0024
2668.00,0.0024
2667.00,0.0024
2666.00,0.0025
2665.00,0.0025
2664.00,0.0026
2663.00,0.0026
2662.00,0.0026
2661.00,0.0027
2660.00,0.0027
2659.00,0.0027
2658.00,0.0027
2657.00,0.0027
2656.00,0.0027
2655.00,0.0027
2654.00,0.0027
2653.00,0.0027
2652.00,0.0027
2651.00,0.0027
2650.00,0.0027
2649.00,0.0027
2648.00,0.0027
2647.00,0.0027
2646.00,0.0027
2645.00,0.0027
2644.00,0.0027
2643.00,0.0027
2642.00,0.0027
2641.00,0.0027
2640.00,0.0027
2639.00,0.0027
2638.00,0.0027
2637.00,0.0027
2636.00,0.0026
2635.00,0.0027
2634.00,0.0027
2633.00,0.0027
2632.00,0.0027
2631.00,0.0026
2630.00,0.0026
2629.00,0.0026
2628.00,0.0026
2627.00,0.0026
2626.00,0.0026
2625.00,0.0026
2624.00,0.0026
2623.00,0.0026
2622.00,0.0026
2621.00,0.0025
2620.00,0.0025
2619.00,0.0025
2618.00,0.0025
2617.00,0.0025
2616.00,0.0025
2615.00,0.0025
2614.00,0.0024
2613.00,0.0024
2612.00,0.0024
2611.00,0.0024
2610.00,0.0024
2609.00,0.0024
2608.00,0.0024
2607.00,0.0024
2606.00,0.0024
2605.00,0.0024
2604.00,0.0025
2603.00,0.0025
2602.00,0.0025
2601.00,0.0025
2600.00,0.0024
2599.00,0.0024
2598.00,0.0024
2597.00,0.0024
2596.00,0.0023
2595.00,0.0023
2594.00,0.0023
2593.00,0.0023
2592.00,0.0023
2591.00,0.0023
2590.00,0.0023
2589.00,0.0023
2588.00,0.0023
2587.00,0.0023
2586.00,0.0023
2585.00,0.0023
2584.00,0.0023
2583.00,0.0023
2582.00,0.0023
2581.00,0.0023
2580.00,0.0022
2579.00,0.0022
2578.00,0.0022
2577.00,0.0022
2576.00,0.0022
2575.00,0.0023
2574.00,0.0023
2573.00,0.0022
2572.00,0.0022
2571.00,0.0022
2570.00,0.0022
2569.00,0.0022
2568.00,0.0022
2567.00,0.0022
2566.00,0.0021
2565.00,0.0021
2564.00,0.0021
2563.00,0.0021
2562.00,0.0021
2561.00,0.0021
2560.00,0.0021
2559.00,0.0021
2558.00,0.0021
2557.00,0.0021
2556.00,0.0021
2555.00,0.0021
2554.00,0.0020
2553.00,0.0020
2552.00,0.0020
2551.00,0.0020
2550.00,0.0020
2549.00,0.0021
2548.00,0.0021
2547.00,0.0021
2546.00,0.0021
2545.00,0.0020
2544.00,0.0020
2543.00,0.0020
2542.00,0.0020
2541.00,0.0020
2540.00,0.0020
2539.00,0.0020
2538.00,0.0020
2537.00,0.0020
2536.00,0.0020
2535.00,0.0020
2534.00,0.0020
2533.00,0.0019
2532.00,0.0019
2531.00,0.0019
2530.00,0.0019
2529.00,0.0019
2528.00,0.0019
2527.00,0.0020
2526.00,0.0020
2525.00,0.0020
2524.00,0.0020
2523.00,0.0020
2522.00,0.0020
2521.00,0.0020
2520.00,0.0020
2519.00,0.0020
2518.00,0.0019
2517.00,0.0019
2516.00,0.0019
2515.00,0.0020
2514.00,0.0020
2513.00,0.0020
2512.00,0.0019
2511.00,0.0019
2510.00,0.0019
2509.00,0.0019
2508.00,0.0019
2507.00,0.0018
2506.00,0.0018
2505.00,0.0018
2504.00,0.0019
2503.00,0.0019
2502.00,0.0019
2501.00,0.0019
2500.00,0.0019
2499.00,0.0019
2498.00,0.0019
2497.00,0.0019
2496.00,0.0019
2495.00,0.0019
2494.00,0.0019
2493.00,0.0019
2492.00,0.0018
2491.00,0.0018
2490.00,0.0017
2489.00,0.0018
2488.00,0.0018
2487.00,0.0018
2486.00,0.0018
2485.00,0.0017
2484.00,0.0017
2483.00,0.0017
2482.00,0.0017
2481.00,0.0018
2480.00,0.0018
2479.00,0.0019
2478.00,0.0019
2477.00,0.0019
2476.00,0.0018
2475.00,0.0017
2474.00,0.0017
2473.00,0.0016
2472.00,0.0017
2471.00,0.0017
2470.00,0.0017
2469.00,0.0017
2468.00,0.0017
2467.00,0.0017
2466.00,0.0017
2465.00,0.0017
2464.00,0.0017
2463.00,0.0017
2462.00,0.0018
2461.00,0.0018
2460.00,0.0018
2459.00,0.0018
2458.00,0.0018
2457.00,0.0018
2456.00,0.0018
2455.00,0.0018
2454.00,0.0018
2453.00,0.0019
2452.00,0.0019
2451.00,0.0018
2450.00,0.0018
2449.00,0.0017
2448.00,0.0017
2447.00,0.0016
2446.00,0.0016
2445.00,0.0016
2444.00,0.0016
2443.00,0.0017
2442.00,0.0017
2441.00,0.0017
2440.00,0.0018
2439.00,0.0018
2438.00,0.0017
2437.00,0.0017
2436.00,0.0016
2435.00,0.0016
2434.00,0.0016
2433.00,0.0016
2432.00,0.0017
2431.00,0.0017
2430.00,0.0017
2429.00,0.0016
2428.00,0.0016
2427.00,0.0016
2426.00,0.0016
2425.00,0.0016
2424.00,0.0016
2423.00,0.0015
2422.00,0.0016
2421.00,0.0016
2420.00,0.0016
2419.00,0.0016
2418.00,0.0016
2417.00,0.0016
2416.00,0.0015
2415.00,0.0015
2414.00,0.0015
2413.00,0.0015
2412.00,0.0015
2411.00,0.0015
2410.00,0.0016
2409.00,0.0016
2408.00,0.0015
2407.00,0.0015
2406.00,0.0014
2405.00,0.0014
2404.00,0.0014
2403.00,0.0014
2402.00,0.0014
2401.00,0.0015
2400.00,0.0015
2399.00,0.0015
2398.00,0.0015
2397.00,0.0014
2396.00,0.0014
2395.00,0.0014
2394.00,0.0014
2393.00,0.0014
2392.00,0.0014
2391.00,0.0014
2390.00,0.0014
2389.00,0.0014
2388.00,0.0014
2387.00,0.0015
2386.00,0.0015
2385.00,0.0015
2384.00,0.0015
2383.00,0.0015
2382.00,0.0015
2381.00,0.0015
2380.00,0.0015
2379.00,0.0015
2378.00,0.0014
2377.00,0.0014
2376.00,0.0015
2375.00,0.0015
2374.00,0.0016
2373.00,0.0016
2372.00,0.0016
2371.00,0.0016
2370.00,0.0015
2369.00,0.0015
2368.00,0.0016
2367.00,0.0016
2366.00,0.0016
2365.00,0.0017
2364.00,0.0017
2363.00,0.0017
2362.00,0.0017
2361.00,0.0017
2360.00,0.0017
2359.00,0.0018
2358.00,0.0018
2357.00,0.0019
2356.00,0.0019
2355.00,0.0019
2354.00,0.0018
2353.00,0.0018
2352.00,0.0017
2351.00,0.0018
2350.00,0.0018
2349.00,0.0019
2348.00,0.0019
2347.00,0.0020
2346.00,0.0020
2345.00,0.0020
2344.00,0.0020
2343.00,0.0021
2342.00,0.0021
2341.00,0.0022
2340.00,0.0022
2339.00,0.0022
2338.00,0.0021
2337.00,0.0021
2336.00,0.0021
2335.00,0.0021
2334.00,0.0021
2333.00,0.0021
2332.00,0.0021
2331.00,0.0020
2330.00,0.0020
2329.00,0.0021
2328.00,0.0023
2327.00,0.0026
2326.00,0.0029
2325.00,0.0030
2324.00,0.0029
2323.00,0.0028
2322.00,0.0026
2321.00,0.0025
2320.00,0.0024
2319.00,0.0024
2318.00,0.0023
2317.00,0.0023
2316.00,0.0023
2315.00,0.0023
2314.00,0.0022
2313.00,0.0022
2312.00,0.0021
2311.00,0.0021
2310.00,0.0021
2309.00,0.0020
2308.00,0.0020
2307.00,0.0020
2306.00,0.0020
2305.00,0.0020
2304.00,0.0020
2303.00,0.0021
2302.00,0.0021
2301.00,0.0020
2300.00,0.0020
2299.00,0.0020
2298.00,0.0021
2297.00,0.0021
2296.00,0.0021
2295.00,0.0022
2294.00,0.0022
2293.00,0.0022
2292.00,0.0023
2291.00,0.0023
2290.00,0.0023
2289.00,0.0023
2288.00,0.0023
2287.00,0.0023
2286.00,0.0023
2285.00,0.0022
2284.00,0.0022
2283.00,0.0022
2282.00,0.0022
2281.00,0.0022
2280.00,0.0022
2279.00,0.0021
2278.00,0.0020
2277.00,0.0019
2276.00,0.0019
2275.00,0.0019
2274.00,0.0019
2273.00,0.0019
2272.00,0.0019
2271.00,0.0018
2270.00,0.0018
2269.00,0.0018
2268.00,0.0018
2267.00,0.0018
2266.00,0.0018
2265.00,0.0017
2264.00,0.0016
2263.00,0.0015
2262.00,0.0014
2261.00,0.0015
2260.00,0.0016
2259.00,0.0017
2258.00,0.0018
2257.00,0.0017
2256.00,0.0017
2255.00,0.0016
2254.00,0.0015
2253.00,0.0015
2252.00,0.0015
2251.00,0.0015
2250.00,0.0016
2249.00,0.0016
2248.00,0.0016
2247.00,0.0016
2246.00,0.0016
2245.00,0.0016
2244.00,0.0017
2243.00,0.0018
2242.00,0.0018
2241.00,0.0018
2240.00,0.0017
2239.00,0.0016
2238.00,0.0015
2237.00,0.0014
2236.00,0.0014
2235.00,0.0014
2234.00,0.0015
2233.00,0.0016
2232.00,0.0017
2231.00,0.0017
2230.00,0.0018
2229.00,0.0018
2228.00,0.0018
2227.00,0.0017
2226.00,0.0017
2225.00,0.0017
2224.00,0.0017
2223.00,0.0016
2222.00,0.0015
2221.00,0.0015
2220.00,0.0014
2219.00,0.0014
2218.00,0.0014
2217.00,0.0014
2216.00,0.0015
2215.00,0.0015
2214.00,0.0015
2213.00,0.0016
2212.00,0.0017
2211.00,0.0017
2210.00,0.0017
2209.00,0.0016
2208.00,0.0015
2207.00,0.0014
2206.00,0.0014
2205.00,0.0014
2204.00,0.0015
2203.00,0.0016
2202.00,0.0016
2201.00,0.0015
2200.00,0.0014
2199.00,0.0012
2198.00,0.0011
2197.00,0.0011
2196.00,0.0013
2195.00,0.0014
2194.00,0.0014
2193.00,0.0014
2192.00,0.0014
2191.00,0.0015
2190.00,0.0015
2189.00,0.0017
2188.00,0.0018
2187.00,0.0020
2186.00,0.0020
2185.00,0.0020
2184.00,0.0019
2183.00,0.0016
2182.00,0.0014
2181.00,0.0012
2180.00,0.0011
2179.00,0.0012
2178.00,0.0012
2177.00,0.0012
2176.00,0.0012
2175.00,0.0011
2174.00,0.0011
2173.00,0.0012
2172.00,0.0013
2171.00,0.0014
2170.00,0.0015
2169.00,0.0016
2168.00,0.0017
2167.00,0.0019
2166.00,0.0019
2165.00,0.0020
2164.00,0.0021
2163.00,0.0022
2162.00,0.0020
2161.00,0.0015
2160.00,0.0008
2159.00,0.0001
2158.00,-0.0005
2157.00,-0.0008
2156.00,-0.0008
2155.00,-0.0007
2154.00,-0.0006
2153.00,-0.0005
2152.00,-0.0003
2151.00,-0.0001
2150.00,0.0001
2149.00,0.0003
2148.00,0.0005
2147.00,0.0005
2146.00,0.0004
2145.00,0.0003
2144.00,0.0002
2143.00,0.0000
2142.00,-0.0000
2141.00,-0.0001
2140.00,-0.0001
2139.00,-0.0002
2138.00,-0.0004
2137.00,-0.0006
2136.00,-0.0007
2135.00,-0.0007
2134.00,-0.0005
2133.00,-0.0004
2132.00,-0.0002
2131.00,-0.0001
2130.00,0.0000
2129.00,0.0001
2128.00,0.0003
2127.00,0.0004
2126.00,0.0005
2125.00,0.0005
2124.00,0.0006
2123.00,0.0006
2122.00,0.0006
2121.00,0.0006
2120.00,0.0007
2119.00,0.0008
2118.00,0.0009
2117.00,0.0010
2116.00,0.0011
2115.00,0.0010
2114.00,0.0010
2113.00,0.0011
2112.00,0.0012
2111.00,0.0012
2110.00,0.0013
2109.00,0.0013
2108.00,0.0012
2107.00,0.0012
2106.00,0.0012
2105.00,0.0012
2104.00,0.0012
2103.00,0.0012
2102.00,0.0012
2101.00,0.0013
2100.00,0.0013
2099.00,0.0013
2098.00,0.0012
2097.00,0.0011
2096.00,0.0009
2095.00,0.0008
2094.00,0.0008
2093.00,0.0009
2092.00,0.0010
2091.00,0.0012
2090.00,0.0013
2089.00,0.0013
2088.00,0.0013
2087.00,0.0013
2086.00,0.0013
2085.00,0.0013
2084.00,0.0013
2083.00,0.0013
2082.00,0.0013
2081.00,0.0013
2080.00,0.0014
2079.00,0.0014
2078.00,0.0014
2077.00,0.0013
2076.00,0.0011
2075.00,0.0009
2074.00,0.0007
2073.00,0.0007
2072.00,0.0008
2071.00,0.0009
2070.00,0.0010
2069.00,0.0010
2068.00,0.0009
2067.00,0.0008
2066.00,0.0008
2065.00,0.0008
2064.00,0.0010
2063.00,0.0011
2062.00,0.0013
2061.00,0.0013
2060.00,0.0013
2059.00,0.0012
2058.00,0.0011
2057.00,0.0010
2056.00,0.0009
2055.00,0.0010
2054.00,0.0011
2053.00,0.0014
2052.00,0.0016
2051.00,0.0016
2050.00,0.0014
2049.00,0.0012
2048.00,0.0011
2047.00,0.0012
2046.00,0.0013
2045.00,0.0013
2044.00,0.0013
2043.00,0.0012
2042.00,0.0011
2041.00,0.0011
2040.00,0.0010
2039.00,0.0009
2038.00,0.0008
2037.00,0.0007
2036.00,0.0006
2035.00,0.0003
2034.00,0.0001
2033.00,-0.0001
2032.00,-0.0002
2031.00,-0.0002
2030.00,-0.0001
2029.00,0.0000
2028.00,0.0002
2027.00,0.0003
2026.00,0.0003
2025.00,0.0002
2024.00,0.0001
2023.00,0.0001
2022.00,0.0003
2021.00,0.0005
2020.00,0.0007
2019.00,0.0007
2018.00,0.0005
2017.00,0.0003
2016.00,0.0003
2015.00,0.0003
2014.00,0.0005
2013.00,0.0007
2012.00,0.0008
2011.00,0.0008
2010.00,0.0005
2009.00,0.0001
2008.00,-0.0002
2007.00,-0.0003
2006.00,-0.0002
2005.00,0.0001
2004.00,0.0004
2003.00,0.0006
2002.00,0.0006
2001.00,0.0005
2000.00,0.0005
1999.00,0.0006
1998.00,0.0006
1997.00,0.0006
1996.00,0.0006
1995.00,0.0006
1994.00,0.0006
1993.00,0.0007
1992.00,0.0008
1991.00,0.0010
1990.00,0.0011
1989.00,0.0011
1988.00,0.0012
1987.00,0.0012
1986.00,0.0012
1985.00,0.0012
1984.00,0.0014
1983.00,0.0015
1982.00,0.0017
1981.00,0.0016
1980.00,0.0012
1979.00,0.0006
1978.00,0.0001
1977.00,-0.0001
1976.00,-0.0001
1975.00,0.0001
1974.00,0.0002
1973.00,0.0003
1972.00,0.0005
1971.00,0.0006
1970.00,0.0005
1969.00,0.0005
1968.00,0.0005
1967.00,0.0007
1966.00,0.0009
1965.00,0.0011
1964.00,0.0012
1963.00,0.0012
1962.00,0.0010
1961.00,0.0008
1960.00,0.0007
1959.00,0.0007
1958.00,0.0009
1957.00,0.0011
1956.00,0.0013
1955.00,0.0014
1954.00,0.0014
1953.00,0.0014
1952.00,0.0013
1951.00,0.0013
1950.00,0.0013
1949.00,0.0013
1948.00,0.0014
1947.00,0.0016
1946.00,0.0018
1945.00,0.0020
1944.00,0.0022
1943.00,0.0023
1942.00,0.0023
1941.00,0.0022
1940.00,0.0021
1939.00,0.0019
1938.00,0.0018
1937.00,0.0017
1936.00,0.0016
1935.00,0.0016
1934.00,0.0016
1933.00,0.0017
1932.00,0.0017
1931.00,0.0016
1930.00,0.0014
1929.00,0.0013
1928.00,0.0011
1927.00,0.0010
1926.00,0.0010
1925.00,0.0010
1924.00,0.0011
1923.00,0.0011
1922.00,0.0010
1921.00,0.0009
1920.00,0.0009
1919.00,0.0008
1918.00,0.0008
1917.00,0.0008
1916.00,0.0008
1915.00,0.0008
1914.00,0.0008
1913.00,0.0008
1912.00,0.0009
1911.00,0.0010
1910.00,0.0010
1909.00,0.0011
1908.00,0.0012
1907.00,0.0012
1906.00,0.0011
1905.00,0.0010
1904.00,0.0010
1903.00,0.0010
1902.00,0.0010
1901.00,0.0010
1900.00,0.0011
1899.00,0.0012
1898.00,0.0012
1897.00,0.0013
1896.00,0.0014
1895.00,0.0014
1894.00,0.0014
1893.00,0.0014
1892.00,0.0015
1891.00,0.0016
1890.00,0.0017
1889.00,0.0018
1888.00,0.0019
1887.00,0.0019
1886.00,0.0019
1885.00,0.0020
1884.00,0.0020
1883.00,0.0020
1882.00,0.0020
1881.00,0.0020
1880.00,0.0021
1879.00,0.0022
1878.00,0.0022
1877.00,0.0023
1876.00,0.0023
1875.00,0.0023
1874.00,0.0023
1873.00,0.0023
1872.00,0.0023
1871.00,0.0024
1870.00,0.0024
1869.00,0.0025
1868.00,0.0025
1867.00,0.0024
1866.00,0.0023
1865.00,0.0022
1864.00,0.0022
1863.00,0.0021
1862.00,0.0020
1861.00,0.0020
1860.00,0.0019
1859.00,0.0018
1858.00,0.0017
1857.00,0.0016
1856.00,0.0015
1855.00,0.0015
1854.00,0.0014
1853.00,0.0013
1852.00,0.0013
1851.00,0.0013
1850.00,0.0012
1849.00,0.0012
1848.00,0.0013
1847.00,0.0013
1846.00,0.0012
1845.00,0.0012
1844.00,0.0012
1843.00,0.0011
1842.00,0.0011
1841.00,0.0011
1840.00,0.0011
1839.00,0.0011
1838.00,0.0012
1837.00,0.0012
1836.00,0.0012
1835.00,0.0013
1834.00,0.0013
1833.00,0.0013
1832.00,0.0015
1831.00,0.0016
1830.00,0.0017
1829.00,0.0016
1828.00,0.0016
1827.00,0.0016
1826.00,0.0016
1825.00,0.0017
1824.00,0.0019
1823.00,0.0019
1822.00,0.0020
1821.00,0.0020
1820.00,0.0020
1819.00,0.0020
1818.00,0.0020
1817.00,0.0020
1816.00,0.0022
1815.00,0.0023
1814.00,0.0024
1813.00,0.0024
1812.00,0.0025
1811.00,0.0026
1810.00,0.0027
1809.00,0.0027
1808.00,0.0028
1807.00,0.0029
1806.00,0.0029
1805.00,0.0030
1804.00,0.0031
1803.00,0.0032
1802.00,0.0032
1801.00,0.0031
1800.00,0.0031
1799.00,0.0030
1798.00,0.0029
1797.00,0.0028
1796.00,0.0028
1795.00,0.0027
1794.00,0.0026
1793.00,0.0024
1792.00,0.0024
1791.00,0.0023
1790.00,0.0021
1789.00,0.0020
1788.00,0.0021
1787.00,0.0021
1786.00,0.0021
1785.00,0.0021
1784.00,0.0022
1783.00,0.0022
1782.00,0.0021
1781.00,0.0021
1780.00,0.0021
1779.00,0.0021
1778.00,0.0021
1777.00,0.0021
1776.00,0.0022
1775.00,0.0023
1774.00,0.0024
1773.00,0.0024
1772.00,0.0024
1771.00,0.0025
1770.00,0.0025
1769.00,0.0025
1768.00,0.0025
1767.00,0.0026
1766.00,0.0027
1765.00,0.0028
1764.00,0.0030
1763.00,0.0033
1762.00,0.0035
1761.00,0.0036
1760.00,0.0036
1759.00,0.0038
1758.00,0.0039
1757.00,0.0040
1756.00,0.0041
1755.00,0.0043
1754.00,0.0044
1753.00,0.0044
1752.00,0.0045
1751.00,0.0047
1750.00,0.0050
1749.00,0.0053
1748.00,0.0055
1747.00,0.0057
1746.00,0.0060
1745.00,0.0062
1744.00,0.0064
1743.00,0.0066
1742.00,0.0067
1741.00,0.0066
1740.00,0.0066
1739.00,0.0065
1738.00,0.0065
1737.00,0.0064
1736.00,0.0062
1735.00,0.0060
1734.00,0.0058
1733.00,0.0057
1732.00,0.0056
1731.00,0.0056
1730.00,0.0057
1729.00,0.0057
1728.00,0.0057
1727.00,0.0056
1726.00,0.0055
1725.00,0.0054
1724.00,0.0053
1723.00,0.0053
1722.00,0.0052
1721.00,0.0051
1720.00,0.0051
1719.00,0.0049
1718.00,0.0048
1717.00,0.0047
1716.00,0.0047
1715.00,0.0046
1714.00,0.0044
1713.00,0.0044
1712.00,0.0044
1711.00,0.0043
1710.00,0.0043
1709.00,0.0042
1708.00,0.0041
1707.00,0.0041
1706.00,0.0041
1705.00,0.0041
1704.00,0.0041
1703.00,0.0039
1702.00,0.0035
1701.00,0.0031
1700.00,0.0031
1699.00,0.0032
1698.00,0.0031
1697.00,0.0029
1696.00,0.0029
1695.00,0.0030
1694.00,0.0029
1693.00,0.0029
1692.00,0.0030
1691.00,0.0030
1690.00,0.0030
1689.00,0.0030
1688.00,0.0031
1687.00,0.0030
1686.00,0.0029
1685.00,0.0029
1684.00,0.0031
1683.00,0.0033
1682.00,0.0034
1681.00,0.0034
1680.00,0.0034
1679.00,0.0034
1678.00,0.0035
1677.00,0.0035
1676.00,0.0035
1675.00,0.0036
1674.00,0.0037
1673.00,0.0037
1672.00,0.0037
1671.00,0.0037
1670.00,0.0039
1669.00,0.0040
1668.00,0.0040
1667.00,0.0040
1666.00,0.0040
1665.00,0.0040
1664.00,0.0040
1663.00,0.0041
1662.00,0.0041
1661.00,0.0040
1660.00,0.0039
1659.00,0.0039
1658.00,0.0039
1657.00,0.0041
1656.00,0.0041
1655.00,0.0041
1654.00,0.0041
1653.00,0.0041
1652.00,0.0039
1651.00,0.0039
1650.00,0.0038
1649.00,0.0038
1648.00,0.0037
1647.00,0.0037
1646.00,0.0036
1645.00,0.0036
1644.00,0.0036
1643.00,0.0037
1642.00,0.0037
1641.00,0.0037
1640.00,0.0037
1639.00,0.0037
1638.00,0.0036
1637.00,0.0036
1636.00,0.0036
1635.00,0.0036
1634.00,0.0037
1633.00,0.0038
1632.00,0.0039
1631.00,0.0038
1630.00,0.0038
1629.00,0.0038
1628.00,0.0039
1627.00,0.0039
1626.00,0.0040
1625.00,0.0040
1624.00,0.0040
1623.00,0.0039
1622.00,0.0039
1621.00,0.0040
1620.00,0.0040
1619.00,0.0039
1618.00,0.0039
1617.00,0.0040
1616.00,0.0041
1615.00,0.0042
1614.00,0.0044
1613.00,0.0046
1612.00,0.0048
1611.00,0.0051
1610.00,0.0056
1609.00,0.0063
1608.00,0.0073
1607.00,0.0084
1606.00,0.0097
1605.00,0.0113
1604.00,0.0128
1603.00,0.0142
1602.00,0.0152
1601.00,0.0156
1600.00,0.0153
1599.00,0.0143
1598.00,0.0130
1597.00,0.0116
1596.00,0.0102
1595.00,0.0091
1594.00,0.0081
1593.00,0.0074
1592.00,0.0069
1591.00,0.0064
1590.00,0.0061
1589.00,0.0060
1588.00,0.0061
1587.00,0.0062
1586.00,0.0066
1585.00,0.0071
1584.00,0.0075
1583.00,0.0075
1582.00,0.0072
1581.00,0.0068
1580.00,0.0062
1579.00,0.0055
1578.00,0.0050
1577.00,0.0045
1576.00,0.0041
1575.00,0.0038
1574.00,0.0038
1573.00,0.0038
1572.00,0.0037
1571.00,0.0036
1570.00,0.0035
1569.00,0.0034
1568.00,0.0032
1567.00,0.0031
1566.00,0.0031
1565.00,0.0032
1564.00,0.0033
1563.00,0.0034
1562.00,0.0035
1561.00,0.0035
1560.00,0.0033
1559.00,0.0032
1558.00,0.0031
1557.00,0.0033
1556.00,0.0034
1555.00,0.0034
1554.00,0.0034
1553.00,0.0034
1552.00,0.0034
1551.00,0.0035
1550.00,0.0035
1549.00,0.0035
1548.00,0.0035
1547.00,0.0035
1546.00,0.0036
1545.00,0.0037
1544.00,0.0039
1543.00,0.0040
1542.00,0.0039
1541.00,0.0038
1540.00,0.0036
1539.00,0.0032
1538.00,0.0030
1537.00,0.0031
1536.00,0.0031
1535.00,0.0031
1534.00,0.0030
1533.00,0.0029
1532.00,0.0029
1531.00,0.0028
1530.00,0.0027
1529.00,0.0027
1528.00,0.0028
1527.00,0.0029
1526.00,0.0030
1525.00,0.0030
1524.00,0.0031
1523.00,0.0032
1522.00,0.0033
1521.00,0.0033
1520.00,0.0033
1519.00,0.0033
1518.00,0.0032
1517.00,0.0031
1516.00,0.0031
1515.00,0.0032
1514.00,0.0032
1513.00,0.0032
1512.00,0.0033
1511.00,0.0035
1510.00,0.0036
1509.00,0.0036
1508.00,0.0037
1507.00,0.0039
1506.00,0.0039
1505.00,0.0040
1504.00,0.0044
1503.00,0.0049
1502.00,0.0054
1501.00,0.0062
1500.00,0.0073
1499.00,0.0091
1498.00,0.0117
1497.00,0.0157
1496.00,0.0209
1495.00,0.0266
1494.00,0.0314
1493.00,0.0341
1492.00,0.0343
1491.00,0.0316
1490.00,0.0269
1489.00,0.0217
1488.00,0.0175
1487.00,0.0144
1486.00,0.0120
1485.00,0.0103
1484.00,0.0091
1483.00,0.0080
1482.00,0.0072
1481.00,0.0065
1480.00,0.0061
1479.00,0.0058
1478.00,0.0055
1477.00,0.0054
1476.00,0.0054
1475.00,0.0054
1474.00,0.0053
1473.00,0.0052
1472.00,0.0052
1471.00,0.0053
1470.00,0.0054
1469.00,0.0057
1468.00,0.0059
1467.00,0.0062
1466.00,0.0064
1465.00,0.0065
1464.00,0.0066
1463.00,0.0069
1462.00,0.0072
1461.00,0.0077
1460.00,0.0086
1459.00,0.0100
1458.00,0.0124
1457.00,0.0162
1456.00,0.0212
1455.00,0.0264
1454.00,0.0311
1453.00,0.0346
1452.00,0.0365
1451.00,0.0363
1450.00,0.0345
1449.00,0.0318
1448.00,0.0291
1447.00,0.0267
1446.00,0.0247
1445.00,0.0230
1444.00,0.0214
1443.00,0.0199
1442.00,0.0185
1441.00,0.0172
1440.00,0.0161
1439.00,0.0151
1438.00,0.0141
1437.00,0.0129
1436.00,0.0116
1435.00,0.0106
1434.00,0.0098
1433.00,0.0091
1432.00,0.0085
1431.00,0.0081
1430.00,0.0077
1429.00,0.0073
1428.00,0.0070
1427.00,0.0068
1426.00,0.0067
1425.00,0.0064
1424.00,0.0062
1423.00,0.0061
1422.00,0.0061
1421.00,0.0061
1420.00,0.0060
1419.00,0.0060
1418.00,0.0059
1417.00,0.0056
1416.00,0.0055
1415.00,0.0055
1414.00,0.0055
1413.00,0.0056
1412.00,0.0055
1411.00,0.0055
1410.00,0.0055
1409.00,0.0054
1408.00,0.0053
1407.00,0.0053
1406.00,0.0053
1405.00,0.0052
1404.00,0.0051
1403.00,0.0050
1402.00,0.0050
1401.00,0.0049
1400.00,0.0049
1399.00,0.0049
1398.00,0.0050
1397.00,0.0051
1396.00,0.0052
1395.00,0.0053
1394.00,0.0055
1393.00,0.0055
1392.00,0.0056
1391.00,0.0058
1390.00,0.0061
1389.00,0.0064
1388.00,0.0068
1387.00,0.0070
1386.00,0.0073
1385.00,0.0075
1384.00,0.0077
1383.00,0.0080
1382.00,0.0083
1381.00,0.0085
1380.00,0.0088
1379.00,0.0090
1378.00,0.0093
1377.00,0.0096
1376.00,0.0098
1375.00,0.0101
1374.00,0.0103
1373.00,0.0105
1372.00,0.0105
1371.00,0.0105
1370.00,0.0105
1369.00,0.0104
1368.00,0.0104
1367.00,0.0103
1366.00,0.0102
1365.00,0.0102
1364.00,0.0102
1363.00,0.0101
1362.00,0.0100
1361.00,0.0098
1360.00,0.0096
1359.00,0.0094
1358.00,0.0093
1357.00,0.0092
1356.00,0.0091
1355.00,0.0091
1354.00,0.0090
1353.00,0.0090
1352.00,0.0090
1351.00,0.0090
1350.00,0.0090
1349.00,0.0090
1348.00,0.0090
1347.00,0.0089
1346.00,0.0089
1345.00,0.0088
1344.00,0.0088
1343.00,0.0088
1342.00,0.0088
1341.00,0.0088
1340.00,0.0089
1339.00,0.0089
1338.00,0.0089
1337.00,0.0089
1336.00,0.0089
1335.00,0.0090
1334.00,0.0091
1333.00,0.0093
1332.00,0.0094
1331.00,0.0095
1330.00,0.0097
1329.00,0.0097
1328.00,0.0097
1327.00,0.0097
1326.00,0.0097
1325.00,0.0096
1324.00,0.0095
1323.00,0.0094
1322.00,0.0094
1321.00,0.0093
1320.00,0.0093
1319.00,0.0094
1318.00,0.0095
1317.00,0.0097
1316.00,0.0098
1315.00,0.0099
1314.00,0.0099
1313.00,0.0099
1312.00,0.0098
1311.00,0.0098
1310.00,0.0097
1309.00,0.0096
1308.00,0.0094
1307.00,0.0093
1306.00,0.0092
1305.00,0.0091
1304.00,0.0089
1303.00,0.0088
1302.00,0.0086
1301.00,0.0085
1300.00,0.0084
1299.00,0.0083
1298.00,0.0083
1297.00,0.0083
1296.00,0.0083
1295.00,0.0082
1294.00,0.0082
1293.00,0.0082
1292.00,0.0082
1291.00,0.0082
1290.00,0.0081
1289.00,0.0081
1288.00,0.0080
1287.00,0.0080
1286.00,0.0079
1285.00,0.0079
1284.00,0.0079
1283.00,0.0079
1282.00,0.0080
1281.00,0.0080
1280.00,0.0080
1279.00,0.0079
1278.00,0.0079
1277.00,0.0078
1276.00,0.0077
1275.00,0.0076
1274.00,0.0076
1273.00,0.0075
1272.00,0.0074
1271.00,0.0074
1270.00,0.0074
1269.00,0.0073
1268.00,0.0073
1267.00,0.0073
1266.00,0.0073
1265.00,0.0073
1264.00,0.0073
1263.00,0.0073
1262.00,0.0073
1261.00,0.0073
1260.00,0.0073
1259.00,0.0072
1258.00,0.0072
1257.00,0.0071
1256.00,0.0071
1255.00,0.0072
1254.00,0.0072
1253.00,0.0073
1252.00,0.0074
1251.00,0.0074
1250.00,0.0075
1249.00,0.0076
1248.00,0.0076
1247.00,0.0077
1246.00,0.0077
1245.00,0.0077
1244.00,0.0077
1243.00,0.0078
1242.00,0.0078
1241.00,0.0078
1240.00,0.0078
1239.00,0.0078
1238.00,0.0078
1237.00,0.0078
1236.00,0.0078
1235.00,0.0078
1234.00,0.0078
1233.00,0.0078
1232.00,0.0078
1231.00,0.0077
1230.00,0.0077
1229.00,0.0077
1228.00,0.0077
1227.00,0.0076
1226.00,0.0075
1225.00,0.0075
1224.00,0.0073
1223.00,0.0072
1222.00,0.0071
1221.00,0.0070
1220.00,0.0069
1219.00,0.0068
1218.00,0.0067
1217.00,0.0066
1216.00,0.0066
1215.00,0.0066
1214.00,0.0065
1213.00,0.0066
1212.00,0.0066
1211.00,0.0067
1210.00,0.0068
1209.00,0.0070
1208.00,0.0072
1207.00,0.0073
1206.00,0.0075
1205.00,0.0076
1204.00,0.0078
1203.00,0.0080
1202.00,0.0081
1201.00,0.0083
1200.00,0.0084
1199.00,0.0085
1198.00,0.0086
1197.00,0.0087
1196.00,0.0086
1195.00,0.0086
1194.00,0.0086
1193.00,0.0085
1192.00,0.0085
1191.00,0.0085
1190.00,0.0086
1189.00,0.0087
1188.00,0.0088
1187.00,0.0090
1186.00,0.0093
1185.00,0.0097
1184.00,0.0101
1183.00,0.0105
1182.00,0.0108
1181.00,0.0109
1180.00,0.0107
1179.00,0.0103
1178.00,0.0099
1177.00,0.0094
1176.00,0.0089
1175.00,0.0086
1174.00,0.0083
1173.00,0.0082
1172.00,0.0082
1171.00,0.0082
1170.00,0.0082
1169.00,0.0083
1168.00,0.0084
1167.00,0.0085
1166.00,0.0086
1165.00,0.0088
1164.00,0.0089
1163.00,0.0092
1162.00,0.0095
1161.00,0.0098
1160.00,0.0102
1159.00,0.0106
1158.00,0.0111
1157.00,0.0117
1156.00,0.0121
1155.00,0.0123
1154.00,0.0122
1153.00,0.0119
1152.00,0.0113
1151.00,0.0105
1150.00,0.0098
1149.00,0.0091
1148.00,0.0086
1147.00,0.0082
1146.00,0.0080
1145.00,0.0077
1144.00,0.0076
1143.00,0.0074
1142.00,0.0072
1141.00,0.0071
1140.00,0.0070
1139.00,0.0069
1138.00,0.0069
1137.00,0.0068
1136.00,0.0068
1135.00,0.0068
1134.00,0.0068
1133.00,0.0068
1132.00,0.0068
1131.00,0.0069
1130.00,0.0070
1129.00,0.0073
1128.00,0.0074
1127.00,0.0076
1126.00,0.0077
1125.00,0.0079
1124.00,0.0080
1123.00,0.0082
1122.00,0.0084
1121.00,0.0086
1120.00,0.0088
1119.00,0.0090
1118.00,0.0093
1117.00,0.0096
1116.00,0.0100
1115.00,0.0104
1114.00,0.0107
1113.00,0.0110
1112.00,0.0112
1111.00,0.0113
1110.00,0.0113
1109.00,0.0113
1108.00,0.0113
1107.00,0.0112
1106.00,0.0112
1105.00,0.0112
1104.00,0.0113
1103.00,0.0113
1102.00,0.0113
1101.00,0.0113
1100.00,0.0113
1099.00,0.0113
1098.00,0.0113
1097.00,0.0113
1096.00,0.0113
1095.00,0.0113
1094.00,0.0113
1093.00,0.0113
1092.00,0.0113
1091.00,0.0114
1090.00,0.0115
1089.00,0.0116
1088.00,0.0117
1087.00,0.0118
1086.00,0.0119
1085.00,0.0121
1084.00,0.0123
1083.00,0.0126
1082.00,0.0129
1081.00,0.0132
1080.00,0.0134
1079.00,0.0137
1078.00,0.0140
1077.00,0.0144
1076.00,0.0148
1075.00,0.0153
1074.00,0.0157
1073.00,0.0163
1072.00,0.0168
1071.00,0.0173
1070.00,0.0176
1069.00,0.0179
1068.00,0.0179
1067.00,0.0178
1066.00,0.0176
1065.00,0.0174
1064.00,0.0172
1063.00,0.0170
1062.00,0.0167
1061.00,0.0164
1060.00,0.0162
1059.00,0.0160
1058.00,0.0159
1057.00,0.0157
1056.00,0.0156
1055.00,0.0154
1054.00,0.0152
1053.00,0.0150
1052.00,0.0148
1051.00,0.0146
1050.00,0.0144
1049.00,0.0143
1048.00,0.0142
1047.00,0.0141
1046.00,0.0140
1045.00,0.0139
1044.00,0.0138
1043.00,0.0138
1042.00,0.0139
1041.00,0.0140
1040.00,0.0142
1039.00,0.0146
1038.00,0.0151
1037.00,0.0159
1036.00,0.0170
1035.00,0.0184
1034.00,0.0201
1033.00,0.0220
1032.00,0.0240
1031.00,0.0257
1030.00,0.0271
1029.00,0.0280
1028.00,0.0283
1027.00,0.0280
1026.00,0.0271
1025.00,0.0258
1024.00,0.0245
1023.00,0.0231
1022.00,0.0220
1021.00,0.0211
1020.00,0.0203
1019.00,0.0197
1018.00,0.0191
1017.00,0.0186
1016.00,0.0181
1015.00,0.0177
1014.00,0.0172
1013.00,0.0168
1012.00,0.0164
1011.00,0.0160
1010.00,0.0158
1009.00,0.0157
1008.00,0.0158
1007.00,0.0159
1006.00,0.0161
1005.00,0.0164
1004.00,0.0165
1003.00,0.0166
1002.00,0.0164
1001.00,0.0160
1000.00,0.0155
999.00,0.0150
998.00,0.0145
997.00,0.0141
996.00,0.0138
995.00,0.0136
994.00,0.0135
993.00,0.0134
992.00,0.0135
991.00,0.0135
990.00,0.0136
989.00,0.0136
988.00,0.0138
987.00,0.0140
986.00,0.0142
985.00,0.0144
984.00,0.0145
983.00,0.0146
982.00,0.0147
981.00,0.0146
980.00,0.0145
979.00,0.0143
978.00,0.0140
977.00,0.0137
976.00,0.0134
975.00,0.0130
974.00,0.0128
973.00,0.0126
972.00,0.0125
971.00,0.0125
970.00,0.0126
969.00,0.0127
968.00,0.0129
967.00,0.0131
966.00,0.0132
965.00,0.0133
964.00,0.0133
963.00,0.0131
962.00,0.0128
961.00,0.0123
960.00,0.0118
959.00,0.0113
958.00,0.0109
957.00,0.0105
956.00,0.0102
955.00,0.0100
954.00,0.0099
953.00,0.0098
952.00,0.0097
951.00,0.0097
950.00,0.0097
949.00,0.0098
948.00,0.0099
947.00,0.0099
946.00,0.0100
945.00,0.0100
944.00,0.0100
943.00,0.0100
942.00,0.0100
941.00,0.0099
940.00,0.0098
939.00,0.0096
938.00,0.0093
937.00,0.0091
936.00,0.0088
935.00,0.0086
934.00,0.0084
933.00,0.0082
932.00,0.0081
931.00,0.0080
930.00,0.0079
929.00,0.0079
928.00,0.0080
927.00,0.0080
926.00,0.0080
925.00,0.0081
924.00,0.0081
923.00,0.0082
922.00,0.0083
921.00,0.0085
920.00,0.0087
919.00,0.0089
918.00,0.0093
917.00,0.0096
916.00,0.0101
915.00,0.0107
914.00,0.0114
913.00,0.0123
912.00,0.0132
911.00,0.0142
910.00,0.0151
909.00,0.0159
908.00,0.0165
907.00,0.0168
906.00,0.0169
905.00,0.0166
904.00,0.0161
903.00,0.0153
902.00,0.0144
901.00,0.0134
900.00,0.0124
899.00,0.0114
898.00,0.0106
897.00,0.0099
896.00,0.0094
895.00,0.0090
894.00,0.0087
893.00,0.0084
892.00,0.0081
891.00,0.0079
890.00,0.0077
889.00,0.0075
888.00,0.0073
887.00,0.0072
886.00,0.0070
885.00,0.0069
884.00,0.0068
883.00,0.0068
882.00,0.0068
881.00,0.0068
880.00,0.0068
879.00,0.0068
878.00,0.0067
877.00,0.0066
876.00,0.0065
875.00,0.0065
874.00,0.0065
873.00,0.0064
872.00,0.0064
871.00,0.0063
870.00,0.0063
869.00,0.0062
868.00,0.0061
867.00,0.0061
866.00,0.0060
865.00,0.0060
864.00,0.0060
863.00,0.0060
862.00,0.0060
861.00,0.0060
860.00,0.0059
859.00,0.0060
858.00,0.0060
857.00,0.0060
856.00,0.0061
855.00,0.0061
854.00,0.0062
853.00,0.0064
852.00,0.0066
851.00,0.0068
850.00,0.0071
849.00,0.0075
848.00,0.0078
847.00,0.0082
846.00,0.0086
845.00,0.0090
844.00,0.0093
843.00,0.0095
842.00,0.0095
841.00,0.0095
840.00,0.0093
839.00,0.0091
838.00,0.0087
837.00,0.0083
836.00,0.0079
835.00,0.0074
834.00,0.0070
833.00,0.0066
832.00,0.0062
831.00,0.0059
830.00,0.0057
829.00,0.0057
828.00,0.0056
827.00,0.0056
826.00,0.0056
825.00,0.0055
824.00,0.0055
823.00,0.0054
822.00,0.0055
821.00,0.0055
820.00,0.0055
819.00,0.0056
818.00,0.0056
817.00,0.0057
816.00,0.0057
815.00,0.0057
814.00,0.0058
813.00,0.0058
812.00,0.0059
811.00,0.0060
810.00,0.0060
809.00,0.0060
808.00,0.0060
807.00,0.0061
806.00,0.0061
805.00,0.0061
804.00,0.0062
803.00,0.0063
802.00,0.0064
801.00,0.0064
800.00,0.0065
799.00,0.0067
798.00,0.0068
797.00,0.0070
796.00,0.0073
795.00,0.0076
794.00,0.0079
793.00,0.0081
792.00,0.0084
791.00,0.0087
790.00,0.0091
789.00,0.0094
788.00,0.0098
787.00,0.0102
786.00,0.0106
785.00,0.0111
784.00,0.0117
783.00,0.0123
782.00,0.0130
781.00,0.0137
780.00,0.0146
779.00,0.0156
778.00,0.0168
777.00,0.0181
776.00,0.0195
775.00,0.0210
774.00,0.0227
773.00,0.0245
772.00,0.0265
771.00,0.0286
770.00,0.0308
769.00,0.0332
768.00,0.0355
767.00,0.0378
766.00,0.0399
765.00,0.0420
764.00,0.0441
763.00,0.0461
762.00,0.0482
761.00,0.0504
760.00,0.0525
759.00,0.0546
758.00,0.0563
757.00,0.0577
756.00,0.0587
755.00,0.0591
754.00,0.0592
753.00,0.0591
752.00,0.0588
751.00,0.0586
750.00,0.0585
749.00,0.0585
748.00,0.0582
747.00,0.0575
746.00,0.0561
745.00,0.0539
744.00,0.0509
743.00,0.0473
742.00,0.0435
741.00,0.0397
740.00,0.0362
739.00,0.0329
738.00,0.0299
737.00,0.0272
736.00,0.0246
735.00,0.0220
734.00,0.0196
733.00,0.0175
732.00,0.0157
731.00,0.0142
730.00,0.0131
729.00,0.0123
728.00,0.0117
727.00,0.0114
726.00,0.0111
725.00,0.0110
724.00,0.0110
723.00,0.0109
722.00,0.0109
721.00,0.0109
720.00,0.0109
719.00,0.0110
718.00,0.0112
717.00,0.0114
716.00,0.0119
715.00,0.0126
714.00,0.0135
713.00,0.0149
712.00,0.0168
711.00,0.0193
710.00,0.0226
709.00,0.0270
708.00,0.0327
707.00,0.0396
706.00,0.0479
705.00,0.0576
704.00,0.0685
703.00,0.0805
702.00,0.0934
701.00,0.1070
700.00,0.1208
699.00,0.1346
698.00,0.1479
697.00,0.1598
696.00,0.1688
695.00,0.1728
694.00,0.1704
693.00,0.1612
692.00,0.1467
691.00,0.1299
690.00,0.1132
689.00,0.0984
688.00,0.0859
687.00,0.0759
686.00,0.0678
685.00,0.0614
684.00,0.0561
683.00,0.0518
682.00,0.0481
681.00,0.0450
680.00,0.0422
679.00,0.0398
678.00,0.0377
677.00,0.0359
676.00,0.0344
675.00,0.0331
674.00,0.0320
673.00,0.0310
672.00,0.0302
671.00,0.0295
670.00,0.0288
669.00,0.0281
668.00,0.0273
667.00,0.0265
666.00,0.0257
665.00,0.0249
664.00,0.0241
663.00,0.0234
662.00,0.0226
661.00,0.0219
660.00,0.0212
659.00,0.0204
658.00,0.0197
657.00,0.0191
656.00,0.0184
655.00,0.0178
654.00,0.0172
653.00,0.0167
652.00,0.0163
651.00,0.0159
650.00,0.0156
649.00,0.0153
648.00,0.0150
647.00,0.0147
646.00,0.0146
645.00,0.0144
644.00,0.0143
643.00,0.0141
642.00,0.0139
641.00,0.0138
640.00,0.0139
639.00,0.0140
638.00,0.0142
637.00,0.0144
636.00,0.0146
635.00,0.0149
634.00,0.0151
633.00,0.0155
632.00,0.0158
631.00,0.0161
630.00,0.0163
629.00,0.0165
628.00,0.0166
627.00,0.0168
626.00,0.0169
625.00,0.0171
624.00,0.0173
623.00,0.0176
622.00,0.0179
621.00,0.0181
620.00,0.0182
619.00,0.0180
618.00,0.0177
617.00,0.0174
616.00,0.0170
615.00,0.0166
614.00,0.0163
613.00,0.0162
612.00,0.0161
611.00,0.0160
610.00,0.0160
609.00,0.0159
608.00,0.0158
607.00,0.0157
606.00,0.0156
605.00,0.0156
604.00,0.0157
603.00,0.0157
602.00,0.0157
601.00,0.0157
600.00,0.0157
599.00,0.0158
598.00,0.0159
597.00,0.0160
596.00,0.0162
595.00,0.0163
594.00,0.0165
593.00,0.0167
592.00,0.0170
591.00,0.0172
590.00,0.0174
589.00,0.0176
588.00,0.0178
587.00,0.0180
586.00,0.0182
585.00,0.0184
584.00,0.0186
583.00,0.0189
582.00,0.0193
581.00,0.0197
580.00,0.0202
579.00,0.0207
578.00,0.0213
577.00,0.0219
576.00,0.0226
575.00,0.0235
574.00,0.0245
573.00,0.0255
572.00,0.0264
571.00,0.0273
570.00,0.0282
569.00,0.0290
568.00,0.0297
567.00,0.0306
566.00,0.0315
565.00,0.0324
564.00,0.0333
563.00,0.0341
562.00,0.0349
561.00,0.0357
560.00,0.0365
559.00,0.0374
558.00,0.0383
557.00,0.0391
556.00,0.0399
555.00,0.0407
554.00,0.0414
553.00,0.0423
552.00,0.0432
551.00,0.0442
550.00,0.0454
549.00,0.0468
548.00,0.0484
547.00,0.0501
546.00,0.0520
545.00,0.0539
544.00,0.0560
543.00,0.0582
542.00,0.0602
541.00,0.0620
540.00,0.0634
539.00,0.0643
538.00,0.0646
537.00,0.0641
536.00,0.0630
535.00,0.0614
534.00,0.0593
533.00,0.0569
532.00,0.0543
531.00,0.0514
530.00,0.0485
529.00,0.0455
528.00,0.0428
527.00,0.0402
526.00,0.0379
525.00,0.0360
524.00,0.0345
523.00,0.0330
522.00,0.0316
521.00,0.0303
520.00,0.0291
519.00,0.0282
518.00,0.0274
517.00,0.0266
516.00,0.0259
515.00,0.0253
514.00,0.0248
513.00,0.0243
512.00,0.0237
511.00,0.0231
510.00,0.0223
509.00,0.0215
508.00,0.0210
507.00,0.0205
506.00,0.0199
505.00,0.0192
504.00,0.0185
503.00,0.0179
502.00,0.0176
501.00,0.0176
500.00,0.0176
499.00,0.0175
498.00,0.0173
497.00,0.0173
496.00,0.0174
495.00,0.0175
494.00,0.0173
493.00,0.0169
492.00,0.0164
491.00,0.0160
490.00,0.0157
489.00,0.0154
488.00,0.0152
487.00,0.0150
486.00,0.0148
485.00,0.0147
484.00,0.0147
483.00,0.0146
482.00,0.0145
481.00,0.0145
480.00,0.0146
479.00,0.0146
478.00,0.0146
477.00,0.0145
476.00,0.0144
475.00,0.0142
474.00,0.0139
473.00,0.0137
472.00,0.0136
471.00,0.0137
470.00,0.0138
469.00,0.0140
468.00,0.0141
467.00,0.0140
466.00,0.0137
465.00,0.0134
464.00,0.0134
463.00,0.0135
462.00,0.0137
461.00,0.0137
460.00,0.0134
459.00,0.0130
458.00,0.0125
457.00,0.0121
456.00,0.0121
455.00,0.0123
454.00,0.0126
453.00,0.0129
452.00,0.0130
451.00,0.0130
450.00,0.0130
449.00,0.0130
448.00,0.0130
447.00,0.0131
446.00,0.0130
445.00,0.0129
444.00,0.0127
443.00,0.0125
442.00,0.0122
441.00,0.0118
440.00,0.0116
439.00,0.0118
438.00,0.0123
437.00,0.0127
436.00,0.0129
435.00,0.0128
434.00,0.0125
433.00,0.0121
432.00,0.0117
431.00,0.0115
430.00,0.0114
429.00,0.0113
428.00,0.0113
427.00,0.0113
426.00,0.0115
425.00,0.0119
424.00,0.0120
423.00,0.0117
422.00,0.0111
421.00,0.0107
420.00,0.0104
419.00,0.0100
418.00,0.0094
417.00,0.0093
416.00,0.0099
415.00,0.0109
414.00,0.0119
413.00,0.0126
412.00,0.0128
411.00,0.0124
410.00,0.0119
409.00,0.0116
408.00,0.0116
407.00,0.0117
406.00,0.0118
405.00,0.0116
404.00,0.0116
403.00,0.0108
402.00,0.0086
401.00,0.0052
400.00,0.0010
