Created as New Dataset,Sample 179 By YargerLab Date Friday, October 03 2025
cm-1,A
4000.00,0.0043
3999.00,0.0043
3998.00,0.0043
3997.00,0.0043
3996.00,0.0042
3995.00,0.0042
3994.00,0.0043
3993.00,0.0043
3992.00,0.0043
3991.00,0.0043
3990.00,0.0043
3989.00,0.0043
3988.00,0.0042
3987.00,0.0042
3986.00,0.0042
3985.00,0.0042
3984.00,0.0042
3983.00,0.0042
3982.00,0.0042
3981.00,0.0042
3980.00,0.0043
3979.00,0.0043
3978.00,0.0043
3977.00,0.0043
3976.00,0.0043
3975.00,0.0043
3974.00,0.0042
3973.00,0.0042
3972.00,0.0042
3971.00,0.0043
3970.00,0.0043
3969.00,0.0043
3968.00,0.0043
3967.00,0.0042
3966.00,0.0042
3965.00,0.0042
3964.00,0.0042
3963.00,0.0042
3962.00,0.0042
3961.00,0.0042
3960.00,0.0042
3959.00,0.0042
3958.00,0.0042
3957.00,0.0042
3956.00,0.0042
3955.00,0.0042
3954.00,0.0042
3953.00,0.0042
3952.00,0.0042
3951.00,0.0042
3950.00,0.0042
3949.00,0.0042
3948.00,0.0042
3947.00,0.0042
3946.00,0.0042
3945.00,0.0042
3944.00,0.0042
3943.00,0.0042
3942.00,0.0042
3941.00,0.0042
3940.00,0.0043
3939.00,0.0043
3938.00,0.0042
3937.00,0.0042
3936.00,0.0042
3935.00,0.0042
3934.00,0.0042
3933.00,0.0042
3932.00,0.0042
3931.00,0.0042
3930.00,0.0042
3929.00,0.0042
3928.00,0.0042
3927.00,0.0042
3926.00,0.0042
3925.00,0.0042
3924.00,0.0042
3923.00,0.0042
3922.00,0.0042
3921.00,0.0042
3920.00,0.0042
3919.00,0.0041
3918.00,0.0041
3917.00,0.0041
3916.00,0.0042
3915.00,0.0042
3914.00,0.0042
3913.00,0.0042
3912.00,0.0042
3911.00,0.0043
3910.00,0.0043
3909.00,0.0043
3908.00,0.0043
3907.00,0.0043
3906.00,0.0043
3905.00,0.0042
3904.00,0.0042
3903.00,0.0042
3902.00,0.0041
3901.00,0.0041
3900.00,0.0041
3899.00,0.0041
3898.00,0.0041
3897.00,0.0041
3896.00,0.0041
3895.00,0.0041
3894.00,0.0041
3893.00,0.0041
3892.00,0.0041
3891.00,0.0042
3890.00,0.0042
3889.00,0.0042
3888.00,0.0041
3887.00,0.0041
3886.00,0.0041
3885.00,0.0041
3884.00,0.0041
3883.00,0.0041
3882.00,0.0041
3881.00,0.0041
3880.00,0.0041
3879.00,0.0042
3878.00,0.0042
3877.00,0.0041
3876.00,0.0041
3875.00,0.0041
3874.00,0.0041
3873.00,0.0042
3872.00,0.0042
3871.00,0.0041
3870.00,0.0041
3869.00,0.0042
3868.00,0.0042
3867.00,0.0042
3866.00,0.0041
3865.00,0.0041
3864.00,0.0041
3863.00,0.0041
3862.00,0.0041
3861.00,0.0040
3860.00,0.0040
3859.00,0.0041
3858.00,0.0041
3857.00,0.0042
3856.00,0.0043
3855.00,0.0042
3854.00,0.0041
3853.00,0.0041
3852.00,0.0041
3851.00,0.0041
3850.00,0.0040
3849.00,0.0040
3848.00,0.0040
3847.00,0.0040
3846.00,0.0040
3845.00,0.0041
3844.00,0.0041
3843.00,0.0041
3842.00,0.0041
3841.00,0.0041
3840.00,0.0041
3839.00,0.0041
3838.00,0.0041
3837.00,0.0041
3836.00,0.0041
3835.00,0.0040
3834.00,0.0040
3833.00,0.0040
3832.00,0.0041
3831.00,0.0041
3830.00,0.0041
3829.00,0.0041
3828.00,0.0041
3827.00,0.0041
3826.00,0.0041
3825.00,0.0041
3824.00,0.0041
3823.00,0.0041
3822.00,0.0040
3821.00,0.0041
3820.00,0.0041
3819.00,0.0041
3818.00,0.0041
3817.00,0.0040
3816.00,0.0040
3815.00,0.0041
3814.00,0.0041
3813.00,0.0041
3812.00,0.0041
3811.00,0.0041
3810.00,0.0041
3809.00,0.0041
3808.00,0.0041
3807.00,0.0041
3806.00,0.0041
3805.00,0.0041
3804.00,0.0041
3803.00,0.0041
3802.00,0.0040
3801.00,0.0041
3800.00,0.0041
3799.00,0.0041
3798.00,0.0041
3797.00,0.0041
3796.00,0.0041
3795.00,0.0041
3794.00,0.0041
3793.00,0.0041
3792.00,0.0041
3791.00,0.0041
3790.00,0.0041
3789.00,0.0041
3788.00,0.0041
3787.00,0.0040
3786.00,0.0041
3785.00,0.0041
3784.00,0.0041
3783.00,0.0042
3782.00,0.0042
3781.00,0.0041
3780.00,0.0041
3779.00,0.0042
3778.00,0.0042
3777.00,0.0042
3776.00,0.0042
3775.00,0.0042
3774.00,0.0041
3773.00,0.0041
3772.00,0.0041
3771.00,0.0040
3770.00,0.0040
3769.00,0.0040
3768.00,0.0040
3767.00,0.0040
3766.00,0.0040
3765.00,0.0040
3764.00,0.0041
3763.00,0.0040
3762.00,0.0040
3761.00,0.0040
3760.00,0.0040
3759.00,0.0040
3758.00,0.0040
3757.00,0.0040
3756.00,0.0040
3755.00,0.0040
3754.00,0.0040
3753.00,0.0040
3752.00,0.0039
3751.00,0.0039
3750.00,0.0039
3749.00,0.0039
3748.00,0.0039
3747.00,0.0039
3746.00,0.0039
3745.00,0.0039
3744.00,0.0039
3743.00,0.0039
3742.00,0.0039
3741.00,0.0039
3740.00,0.0039
3739.00,0.0038
3738.00,0.0038
3737.00,0.0038
3736.00,0.0038
3735.00,0.0039
3734.00,0.0039
3733.00,0.0039
3732.00,0.0039
3731.00,0.0039
3730.00,0.0039
3729.00,0.0039
3728.00,0.0039
3727.00,0.0039
3726.00,0.0039
3725.00,0.0039
3724.00,0.0039
3723.00,0.0039
3722.00,0.0039
3721.00,0.0039
3720.00,0.0039
3719.00,0.0039
3718.00,0.0039
3717.00,0.0039
3716.00,0.0039
3715.00,0.0039
3714.00,0.0039
3713.00,0.0039
3712.00,0.0039
3711.00,0.0039
3710.00,0.0039
3709.00,0.0039
3708.00,0.0039
3707.00,0.0039
3706.00,0.0039
3705.00,0.0039
3704.00,0.0039
3703.00,0.0039
3702.00,0.0039
3701.00,0.0039
3700.00,0.0039
3699.00,0.0039
3698.00,0.0039
3697.00,0.0039
3696.00,0.0040
3695.00,0.0040
3694.00,0.0040
3693.00,0.0040
3692.00,0.0040
3691.00,0.0040
3690.00,0.0040
3689.00,0.0039
3688.00,0.0039
3687.00,0.0039
3686.00,0.0039
3685.00,0.0039
3684.00,0.0039
3683.00,0.0039
3682.00,0.0039
3681.00,0.0039
3680.00,0.0039
3679.00,0.0040
3678.00,0.0040
3677.00,0.0039
3676.00,0.0039
3675.00,0.0039
3674.00,0.0039
3673.00,0.0039
3672.00,0.0038
3671.00,0.0038
3670.00,0.0039
3669.00,0.0040
3668.00,0.0040
3667.00,0.0040
3666.00,0.0040
3665.00,0.0041
3664.00,0.0041
3663.00,0.0041
3662.00,0.0041
3661.00,0.0041
3660.00,0.0041
3659.00,0.0041
3658.00,0.0041
3657.00,0.0041
3656.00,0.0042
3655.00,0.0042
3654.00,0.0043
3653.00,0.0043
3652.00,0.0042
3651.00,0.0041
3650.00,0.0041
3649.00,0.0040
3648.00,0.0040
3647.00,0.0041
3646.00,0.0041
3645.00,0.0042
3644.00,0.0042
3643.00,0.0042
3642.00,0.0043
3641.00,0.0044
3640.00,0.0044
3639.00,0.0044
3638.00,0.0044
3637.00,0.0044
3636.00,0.0045
3635.00,0.0045
3634.00,0.0045
3633.00,0.0046
3632.00,0.0046
3631.00,0.0046
3630.00,0.0046
3629.00,0.0045
3628.00,0.0045
3627.00,0.0045
3626.00,0.0045
3625.00,0.0045
3624.00,0.0046
3623.00,0.0046
3622.00,0.0047
3621.00,0.0047
3620.00,0.0047
3619.00,0.0047
3618.00,0.0047
3617.00,0.0047
3616.00,0.0047
3615.00,0.0047
3614.00,0.0048
3613.00,0.0048
3612.00,0.0049
3611.00,0.0049
3610.00,0.0049
3609.00,0.0049
3608.00,0.0049
3607.00,0.0050
3606.00,0.0050
3605.00,0.0050
3604.00,0.0050
3603.00,0.0050
3602.00,0.0051
3601.00,0.0051
3600.00,0.0051
3599.00,0.0052
3598.00,0.0052
3597.00,0.0052
3596.00,0.0052
3595.00,0.0053
3594.00,0.0053
3593.00,0.0053
3592.00,0.0054
3591.00,0.0054
3590.00,0.0055
3589.00,0.0055
3588.00,0.0055
3587.00,0.0055
3586.00,0.0055
3585.00,0.0055
3584.00,0.0055
3583.00,0.0056
3582.00,0.0056
3581.00,0.0057
3580.00,0.0057
3579.00,0.0057
3578.00,0.0057
3577.00,0.0058
3576.00,0.0058
3575.00,0.0059
3574.00,0.0059
3573.00,0.0060
3572.00,0.0060
3571.00,0.0061
3570.00,0.0061
3569.00,0.0061
3568.00,0.0061
3567.00,0.0061
3566.00,0.0061
3565.00,0.0061
3564.00,0.0061
3563.00,0.0062
3562.00,0.0062
3561.00,0.0063
3560.00,0.0063
3559.00,0.0063
3558.00,0.0064
3557.00,0.0064
3556.00,0.0065
3555.00,0.0066
3554.00,0.0066
3553.00,0.0066
3552.00,0.0067
3551.00,0.0067
3550.00,0.0067
3549.00,0.0068
3548.00,0.0068
3547.00,0.0069
3546.00,0.0069
3545.00,0.0069
3544.00,0.0069
3543.00,0.0069
3542.00,0.0069
3541.00,0.0070
3540.00,0.0070
3539.00,0.0071
3538.00,0.0071
3537.00,0.0072
3536.00,0.0072
3535.00,0.0072
3534.00,0.0073
3533.00,0.0073
3532.00,0.0073
3531.00,0.0073
3530.00,0.0074
3529.00,0.0074
3528.00,0.0074
3527.00,0.0075
3526.00,0.0075
3525.00,0.0075
3524.00,0.0075
3523.00,0.0076
3522.00,0.0076
3521.00,0.0076
3520.00,0.0076
3519.00,0.0077
3518.00,0.0078
3517.00,0.0078
3516.00,0.0079
3515.00,0.0079
3514.00,0.0080
3513.00,0.0080
3512.00,0.0080
3511.00,0.0081
3510.00,0.0081
3509.00,0.0081
3508.00,0.0081
3507.00,0.0081
3506.00,0.0082
3505.00,0.0082
3504.00,0.0083
3503.00,0.0083
3502.00,0.0083
3501.00,0.0083
3500.00,0.0083
3499.00,0.0083
3498.00,0.0084
3497.00,0.0084
3496.00,0.0085
3495.00,0.0086
3494.00,0.0086
3493.00,0.0086
3492.00,0.0087
3491.00,0.0087
3490.00,0.0087
3489.00,0.0087
3488.00,0.0088
3487.00,0.0088
3486.00,0.0088
3485.00,0.0089
3484.00,0.0089
3483.00,0.0090
3482.00,0.0090
3481.00,0.0091
3480.00,0.0091
3479.00,0.0092
3478.00,0.0092
3477.00,0.0092
3476.00,0.0092
3475.00,0.0092
3474.00,0.0092
3473.00,0.0093
3472.00,0.0094
3471.00,0.0094
3470.00,0.0095
3469.00,0.0095
3468.00,0.0095
3467.00,0.0095
3466.00,0.0095
3465.00,0.0096
3464.00,0.0096
3463.00,0.0097
3462.00,0.0097
3461.00,0.0097
3460.00,0.0098
3459.00,0.0098
3458.00,0.0098
3457.00,0.0099
3456.00,0.0099
3455.00,0.0099
3454.00,0.0099
3453.00,0.0100
3452.00,0.0100
3451.00,0.0101
3450.00,0.0101
3449.00,0.0102
3448.00,0.0102
3447.00,0.0102
3446.00,0.0102
3445.00,0.0102
3444.00,0.0103
3443.00,0.0103
3442.00,0.0104
3441.00,0.0104
3440.00,0.0104
3439.00,0.0105
3438.00,0.0105
3437.00,0.0106
3436.00,0.0106
3435.00,0.0107
3434.00,0.0107
3433.00,0.0107
3432.00,0.0108
3431.00,0.0108
3430.00,0.0108
3429.00,0.0108
3428.00,0.0109
3427.00,0.0109
3426.00,0.0110
3425.00,0.0110
3424.00,0.0110
3423.00,0.0111
3422.00,0.0111
3421.00,0.0112
3420.00,0.0112
3419.00,0.0112
3418.00,0.0113
3417.00,0.0113
3416.00,0.0113
3415.00,0.0114
3414.00,0.0114
3413.00,0.0115
3412.00,0.0115
3411.00,0.0116
3410.00,0.0116
3409.00,0.0117
3408.00,0.0117
3407.00,0.0117
3406.00,0.0118
3405.00,0.0118
3404.00,0.0119
3403.00,0.0120
3402.00,0.0120
3401.00,0.0120
3400.00,0.0120
3399.00,0.0121
3398.00,0.0121
3397.00,0.0121
3396.00,0.0122
3395.00,0.0122
3394.00,0.0123
3393.00,0.0123
3392.00,0.0123
3391.00,0.0123
3390.00,0.0124
3389.00,0.0124
3388.00,0.0125
3387.00,0.0125
3386.00,0.0126
3385.00,0.0126
3384.00,0.0127
3383.00,0.0128
3382.00,0.0128
3381.00,0.0129
3380.00,0.0130
3379.00,0.0130
3378.00,0.0131
3377.00,0.0131
3376.00,0.0131
3375.00,0.0132
3374.00,0.0132
3373.00,0.0133
3372.00,0.0133
3371.00,0.0134
3370.00,0.0135
3369.00,0.0136
3368.00,0.0136
3367.00,0.0137
3366.00,0.0137
3365.00,0.0138
3364.00,0.0138
3363.00,0.0139
3362.00,0.0140
3361.00,0.0141
3360.00,0.0141
3359.00,0.0142
3358.00,0.0142
3357.00,0.0143
3356.00,0.0144
3355.00,0.0145
3354.00,0.0145
3353.00,0.0146
3352.00,0.0147
3351.00,0.0147
3350.00,0.0148
3349.00,0.0148
3348.00,0.0149
3347.00,0.0150
3346.00,0.0151
3345.00,0.0151
3344.00,0.0152
3343.00,0.0153
3342.00,0.0153
3341.00,0.0154
3340.00,0.0155
3339.00,0.0155
3338.00,0.0156
3337.00,0.0157
3336.00,0.0157
3335.00,0.0158
3334.00,0.0159
3333.00,0.0159
3332.00,0.0160
3331.00,0.0161
3330.00,0.0162
3329.00,0.0163
3328.00,0.0164
3327.00,0.0164
3326.00,0.0165
3325.00,0.0165
3324.00,0.0166
3323.00,0.0167
3322.00,0.0168
3321.00,0.0168
3320.00,0.0169
3319.00,0.0170
3318.00,0.0171
3317.00,0.0172
3316.00,0.0173
3315.00,0.0173
3314.00,0.0174
3313.00,0.0175
3312.00,0.0176
3311.00,0.0177
3310.00,0.0178
3309.00,0.0178
3308.00,0.0179
3307.00,0.0179
3306.00,0.0180
3305.00,0.0181
3304.00,0.0181
3303.00,0.0182
3302.00,0.0183
3301.00,0.0184
3300.00,0.0185
3299.00,0.0185
3298.00,0.0186
3297.00,0.0186
3296.00,0.0187
3295.00,0.0187
3294.00,0.0188
3293.00,0.0189
3292.00,0.0189
3291.00,0.0189
3290.00,0.0190
3289.00,0.0190
3288.00,0.0190
3287.00,0.0191
3286.00,0.0191
3285.00,0.0191
3284.00,0.0192
3283.00,0.0192
3282.00,0.0192
3281.00,0.0192
3280.00,0.0192
3279.00,0.0192
3278.00,0.0192
3277.00,0.0192
3276.00,0.0191
3275.00,0.0191
3274.00,0.0191
3273.00,0.0190
3272.00,0.0190
3271.00,0.0190
3270.00,0.0190
3269.00,0.0189
3268.00,0.0189
3267.00,0.0188
3266.00,0.0187
3265.00,0.0187
3264.00,0.0187
3263.00,0.0186
3262.00,0.0185
3261.00,0.0184
3260.00,0.0184
3259.00,0.0183
3258.00,0.0182
3257.00,0.0181
3256.00,0.0180
3255.00,0.0179
3254.00,0.0178
3253.00,0.0178
3252.00,0.0177
3251.00,0.0176
3250.00,0.0175
3249.00,0.0174
3248.00,0.0173
3247.00,0.0173
3246.00,0.0172
3245.00,0.0171
3244.00,0.0170
3243.00,0.0169
3242.00,0.0168
3241.00,0.0168
3240.00,0.0167
3239.00,0.0167
3238.00,0.0167
3237.00,0.0166
3236.00,0.0165
3235.00,0.0165
3234.00,0.0164
3233.00,0.0163
3232.00,0.0162
3231.00,0.0162
3230.00,0.0161
3229.00,0.0161
3228.00,0.0161
3227.00,0.0161
3226.00,0.0160
3225.00,0.0160
3224.00,0.0160
3223.00,0.0159
3222.00,0.0159
3221.00,0.0159
3220.00,0.0158
3219.00,0.0158
3218.00,0.0157
3217.00,0.0157
3216.00,0.0156
3215.00,0.0156
3214.00,0.0156
3213.00,0.0155
3212.00,0.0155
3211.00,0.0155
3210.00,0.0155
3209.00,0.0154
3208.00,0.0154
3207.00,0.0154
3206.00,0.0154
3205.00,0.0153
3204.00,0.0153
3203.00,0.0153
3202.00,0.0152
3201.00,0.0152
3200.00,0.0152
3199.00,0.0152
3198.00,0.0151
3197.00,0.0151
3196.00,0.0150
3195.00,0.0150
3194.00,0.0149
3193.00,0.0149
3192.00,0.0149
3191.00,0.0149
3190.00,0.0149
3189.00,0.0148
3188.00,0.0148
3187.00,0.0147
3186.00,0.0146
3185.00,0.0146
3184.00,0.0145
3183.00,0.0145
3182.00,0.0145
3181.00,0.0145
3180.00,0.0144
3179.00,0.0144
3178.00,0.0143
3177.00,0.0143
3176.00,0.0142
3175.00,0.0142
3174.00,0.0141
3173.00,0.0141
3172.00,0.0140
3171.00,0.0140
3170.00,0.0139
3169.00,0.0139
3168.00,0.0139
3167.00,0.0139
3166.00,0.0138
3165.00,0.0138
3164.00,0.0138
3163.00,0.0137
3162.00,0.0137
3161.00,0.0136
3160.00,0.0136
3159.00,0.0135
3158.00,0.0135
3157.00,0.0135
3156.00,0.0134
3155.00,0.0134
3154.00,0.0134
3153.00,0.0133
3152.00,0.0133
3151.00,0.0132
3150.00,0.0132
3149.00,0.0132
3148.00,0.0131
3147.00,0.0131
3146.00,0.0130
3145.00,0.0130
3144.00,0.0129
3143.00,0.0129
3142.00,0.0128
3141.00,0.0128
3140.00,0.0128
3139.00,0.0127
3138.00,0.0127
3137.00,0.0127
3136.00,0.0127
3135.00,0.0126
3134.00,0.0126
3133.00,0.0126
3132.00,0.0126
3131.00,0.0125
3130.00,0.0125
3129.00,0.0125
3128.00,0.0125
3127.00,0.0124
3126.00,0.0124
3125.00,0.0124
3124.00,0.0123
3123.00,0.0123
3122.00,0.0123
3121.00,0.0123
3120.00,0.0123
3119.00,0.0122
3118.00,0.0122
3117.00,0.0122
3116.00,0.0122
3115.00,0.0122
3114.00,0.0121
3113.00,0.0121
3112.00,0.0122
3111.00,0.0122
3110.00,0.0122
3109.00,0.0122
3108.00,0.0121
3107.00,0.0121
3106.00,0.0121
3105.00,0.0121
3104.00,0.0121
3103.00,0.0121
3102.00,0.0121
3101.00,0.0121
3100.00,0.0121
3099.00,0.0121
3098.00,0.0121
3097.00,0.0121
3096.00,0.0121
3095.00,0.0121
3094.00,0.0121
3093.00,0.0121
3092.00,0.0122
3091.00,0.0122
3090.00,0.0122
3089.00,0.0122
3088.00,0.0122
3087.00,0.0122
3086.00,0.0122
3085.00,0.0122
3084.00,0.0122
3083.00,0.0122
3082.00,0.0122
3081.00,0.0122
3080.00,0.0122
3079.00,0.0122
3078.00,0.0122
3077.00,0.0122
3076.00,0.0122
3075.00,0.0122
3074.00,0.0122
3073.00,0.0122
3072.00,0.0123
3071.00,0.0123
3070.00,0.0123
3069.00,0.0123
3068.00,0.0123
3067.00,0.0122
3066.00,0.0122
3065.00,0.0122
3064.00,0.0122
3063.00,0.0122
3062.00,0.0122
3061.00,0.0122
3060.00,0.0122
3059.00,0.0122
3058.00,0.0122
3057.00,0.0121
3056.00,0.0121
3055.00,0.0121
3054.00,0.0120
3053.00,0.0120
3052.00,0.0120
3051.00,0.0120
3050.00,0.0120
3049.00,0.0119
3048.00,0.0119
3047.00,0.0119
3046.00,0.0119
3045.00,0.0118
3044.00,0.0118
3043.00,0.0118
3042.00,0.0117
3041.00,0.0117
3040.00,0.0117
3039.00,0.0117
3038.00,0.0117
3037.00,0.0117
3036.00,0.0116
3035.00,0.0116
3034.00,0.0115
3033.00,0.0115
3032.00,0.0114
3031.00,0.0114
3030.00,0.0114
3029.00,0.0114
3028.00,0.0114
3027.00,0.0113
3026.00,0.0113
3025.00,0.0113
3024.00,0.0112
3023.00,0.0112
3022.00,0.0112
3021.00,0.0112
3020.00,0.0112
3019.00,0.0111
3018.00,0.0110
3017.00,0.0110
3016.00,0.0110
3015.00,0.0109
3014.00,0.0109
3013.00,0.0108
3012.00,0.0108
3011.00,0.0108
3010.00,0.0107
3009.00,0.0108
3008.00,0.0108
3007.00,0.0108
3006.00,0.0108
3005.00,0.0107
3004.00,0.0107
3003.00,0.0107
3002.00,0.0107
3001.00,0.0107
3000.00,0.0107
2999.00,0.0107
2998.00,0.0107
2997.00,0.0107
2996.00,0.0107
2995.00,0.0107
2994.00,0.0107
2993.00,0.0107
2992.00,0.0108
2991.00,0.0108
2990.00,0.0109
2989.00,0.0109
2988.00,0.0110
2987.00,0.0110
2986.00,0.0111
2985.00,0.0111
2984.00,0.0112
2983.00,0.0113
2982.00,0.0114
2981.00,0.0115
2980.00,0.0115
2979.00,0.0116
2978.00,0.0117
2977.00,0.0118
2976.00,0.0119
2975.00,0.0120
2974.00,0.0121
2973.00,0.0122
2972.00,0.0124
2971.00,0.0125
2970.00,0.0126
2969.00,0.0127
2968.00,0.0128
2967.00,0.0129
2966.00,0.0131
2965.00,0.0132
2964.00,0.0133
2963.00,0.0133
2962.00,0.0134
2961.00,0.0134
2960.00,0.0135
2959.00,0.0135
2958.00,0.0135
2957.00,0.0135
2956.00,0.0135
2955.00,0.0134
2954.00,0.0134
2953.00,0.0133
2952.00,0.0132
2951.00,0.0132
2950.00,0.0132
2949.00,0.0131
2948.00,0.0131
2947.00,0.0131
2946.00,0.0131
2945.00,0.0132
2944.00,0.0132
2943.00,0.0132
2942.00,0.0133
2941.00,0.0134
2940.00,0.0135
2939.00,0.0136
2938.00,0.0137
2937.00,0.0139
2936.00,0.0140
2935.00,0.0141
2934.00,0.0142
2933.00,0.0143
2932.00,0.0144
2931.00,0.0144
2930.00,0.0145
2929.00,0.0145
2928.00,0.0146
2927.00,0.0146
2926.00,0.0147
2925.00,0.0147
2924.00,0.0147
2923.00,0.0147
2922.00,0.0147
2921.00,0.0146
2920.00,0.0146
2919.00,0.0145
2918.00,0.0144
2917.00,0.0143
2916.00,0.0141
2915.00,0.0139
2914.00,0.0137
2913.00,0.0136
2912.00,0.0134
2911.00,0.0132
2910.00,0.0130
2909.00,0.0129
2908.00,0.0128
2907.00,0.0127
2906.00,0.0126
2905.00,0.0124
2904.00,0.0123
2903.00,0.0122
2902.00,0.0121
2901.00,0.0120
2900.00,0.0119
2899.00,0.0118
2898.00,0.0117
2897.00,0.0117
2896.00,0.0116
2895.00,0.0115
2894.00,0.0114
2893.00,0.0114
2892.00,0.0113
2891.00,0.0113
2890.00,0.0112
2889.00,0.0112
2888.00,0.0111
2887.00,0.0111
2886.00,0.0111
2885.00,0.0111
2884.00,0.0111
2883.00,0.0111
2882.00,0.0111
2881.00,0.0112
2880.00,0.0112
2879.00,0.0112
2878.00,0.0113
2877.00,0.0113
2876.00,0.0113
2875.00,0.0114
2874.00,0.0114
2873.00,0.0114
2872.00,0.0114
2871.00,0.0114
2870.00,0.0114
2869.00,0.0114
2868.00,0.0113
2867.00,0.0113
2866.00,0.0113
2865.00,0.0112
2864.00,0.0112
2863.00,0.0112
2862.00,0.0111
2861.00,0.0111
2860.00,0.0111
2859.00,0.0111
2858.00,0.0112
2857.00,0.0112
2856.00,0.0112
2855.00,0.0113
2854.00,0.0113
2853.00,0.0114
2852.00,0.0114
2851.00,0.0114
2850.00,0.0113
2849.00,0.0112
2848.00,0.0111
2847.00,0.0109
2846.00,0.0108
2845.00,0.0106
2844.00,0.0105
2843.00,0.0104
2842.00,0.0103
2841.00,0.0102
2840.00,0.0101
2839.00,0.0101
2838.00,0.0100
2837.00,0.0099
2836.00,0.0099
2835.00,0.0098
2834.00,0.0098
2833.00,0.0097
2832.00,0.0097
2831.00,0.0097
2830.00,0.0096
2829.00,0.0096
2828.00,0.0096
2827.00,0.0096
2826.00,0.0096
2825.00,0.0095
2824.00,0.0095
2823.00,0.0095
2822.00,0.0095
2821.00,0.0095
2820.00,0.0094
2819.00,0.0094
2818.00,0.0094
2817.00,0.0094
2816.00,0.0094
2815.00,0.0094
2814.00,0.0093
2813.00,0.0093
2812.00,0.0093
2811.00,0.0093
2810.00,0.0092
2809.00,0.0092
2808.00,0.0092
2807.00,0.0092
2806.00,0.0092
2805.00,0.0092
2804.00,0.0092
2803.00,0.0092
2802.00,0.0092
2801.00,0.0091
2800.00,0.0091
2799.00,0.0091
2798.00,0.0091
2797.00,0.0091
2796.00,0.0091
2795.00,0.0091
2794.00,0.0091
2793.00,0.0091
2792.00,0.0091
2791.00,0.0091
2790.00,0.0091
2789.00,0.0090
2788.00,0.0090
2787.00,0.0090
2786.00,0.0089
2785.00,0.0089
2784.00,0.0089
2783.00,0.0089
2782.00,0.0089
2781.00,0.0089
2780.00,0.0089
2779.00,0.0089
2778.00,0.0089
2777.00,0.0088
2776.00,0.0088
2775.00,0.0088
2774.00,0.0088
2773.00,0.0088
2772.00,0.0088
2771.00,0.0087
2770.00,0.0087
2769.00,0.0087
2768.00,0.0087
2767.00,0.0087
2766.00,0.0087
2765.00,0.0087
2764.00,0.0086
2763.00,0.0086
2762.00,0.0086
2761.00,0.0086
2760.00,0.0086
2759.00,0.0085
2758.00,0.0085
2757.00,0.0085
2756.00,0.0085
2755.00,0.0085
2754.00,0.0085
2753.00,0.0084
2752.00,0.0084
2751.00,0.0084
2750.00,0.0084
2749.00,0.0084
2748.00,0.0084
2747.00,0.0084
2746.00,0.0084
2745.00,0.0084
2744.00,0.0084
2743.00,0.0084
2742.00,0.0083
2741.00,0.0083
2740.00,0.0083
2739.00,0.0082
2738.00,0.0082
2737.00,0.0082
2736.00,0.0083
2735.00,0.0083
2734.00,0.0083
2733.00,0.0082
2732.00,0.0082
2731.00,0.0082
2730.00,0.0082
2729.00,0.0082
2728.00,0.0081
2727.00,0.0081
2726.00,0.0081
2725.00,0.0081
2724.00,0.0081
2723.00,0.0081
2722.00,0.0081
2721.00,0.0081
2720.00,0.0080
2719.00,0.0080
2718.00,0.0080
2717.00,0.0080
2716.00,0.0080
2715.00,0.0080
2714.00,0.0080
2713.00,0.0080
2712.00,0.0080
2711.00,0.0079
2710.00,0.0079
2709.00,0.0079
2708.00,0.0079
2707.00,0.0079
2706.00,0.0079
2705.00,0.0079
2704.00,0.0079
2703.00,0.0079
2702.00,0.0078
2701.00,0.0078
2700.00,0.0078
2699.00,0.0078
2698.00,0.0078
2697.00,0.0078
2696.00,0.0078
2695.00,0.0077
2694.00,0.0077
2693.00,0.0077
2692.00,0.0078
2691.00,0.0077
2690.00,0.0077
2689.00,0.0077
2688.00,0.0077
2687.00,0.0077
2686.00,0.0077
2685.00,0.0077
2684.00,0.0077
2683.00,0.0077
2682.00,0.0077
2681.00,0.0077
2680.00,0.0076
2679.00,0.0076
2678.00,0.0076
2677.00,0.0077
2676.00,0.0077
2675.00,0.0077
2674.00,0.0077
2673.00,0.0077
2672.00,0.0077
2671.00,0.0077
2670.00,0.0076
2669.00,0.0076
2668.00,0.0076
2667.00,0.0076
2666.00,0.0077
2665.00,0.0077
2664.00,0.0078
2663.00,0.0078
2662.00,0.0078
2661.00,0.0079
2660.00,0.0079
2659.00,0.0079
2658.00,0.0079
2657.00,0.0079
2656.00,0.0079
2655.00,0.0079
2654.00,0.0079
2653.00,0.0079
2652.00,0.0079
2651.00,0.0079
2650.00,0.0079
2649.00,0.0079
2648.00,0.0079
2647.00,0.0079
2646.00,0.0079
2645.00,0.0079
2644.00,0.0079
2643.00,0.0079
2642.00,0.0079
2641.00,0.0079
2640.00,0.0078
2639.00,0.0078
2638.00,0.0078
2637.00,0.0078
2636.00,0.0077
2635.00,0.0077
2634.00,0.0077
2633.00,0.0077
2632.00,0.0077
2631.00,0.0077
2630.00,0.0077
2629.00,0.0077
2628.00,0.0077
2627.00,0.0077
2626.00,0.0077
2625.00,0.0076
2624.00,0.0076
2623.00,0.0076
2622.00,0.0076
2621.00,0.0076
2620.00,0.0076
2619.00,0.0075
2618.00,0.0075
2617.00,0.0075
2616.00,0.0075
2615.00,0.0075
2614.00,0.0075
2613.00,0.0075
2612.00,0.0075
2611.00,0.0075
2610.00,0.0075
2609.00,0.0075
2608.00,0.0075
2607.00,0.0074
2606.00,0.0074
2605.00,0.0074
2604.00,0.0074
2603.00,0.0074
2602.00,0.0073
2601.00,0.0073
2600.00,0.0073
2599.00,0.0073
2598.00,0.0073
2597.00,0.0073
2596.00,0.0073
2595.00,0.0073
2594.00,0.0073
2593.00,0.0073
2592.00,0.0073
2591.00,0.0072
2590.00,0.0072
2589.00,0.0072
2588.00,0.0072
2587.00,0.0072
2586.00,0.0072
2585.00,0.0071
2584.00,0.0071
2583.00,0.0071
2582.00,0.0071
2581.00,0.0071
2580.00,0.0071
2579.00,0.0071
2578.00,0.0071
2577.00,0.0070
2576.00,0.0070
2575.00,0.0070
2574.00,0.0070
2573.00,0.0071
2572.00,0.0071
2571.00,0.0071
2570.00,0.0071
2569.00,0.0070
2568.00,0.0070
2567.00,0.0070
2566.00,0.0070
2565.00,0.0070
2564.00,0.0070
2563.00,0.0070
2562.00,0.0070
2561.00,0.0069
2560.00,0.0069
2559.00,0.0069
2558.00,0.0068
2557.00,0.0068
2556.00,0.0068
2555.00,0.0068
2554.00,0.0068
2553.00,0.0069
2552.00,0.0069
2551.00,0.0069
2550.00,0.0069
2549.00,0.0068
2548.00,0.0068
2547.00,0.0068
2546.00,0.0068
2545.00,0.0068
2544.00,0.0068
2543.00,0.0068
2542.00,0.0068
2541.00,0.0068
2540.00,0.0067
2539.00,0.0067
2538.00,0.0067
2537.00,0.0067
2536.00,0.0067
2535.00,0.0067
2534.00,0.0067
2533.00,0.0066
2532.00,0.0067
2531.00,0.0067
2530.00,0.0067
2529.00,0.0067
2528.00,0.0067
2527.00,0.0066
2526.00,0.0066
2525.00,0.0066
2524.00,0.0066
2523.00,0.0065
2522.00,0.0065
2521.00,0.0065
2520.00,0.0065
2519.00,0.0065
2518.00,0.0065
2517.00,0.0065
2516.00,0.0065
2515.00,0.0065
2514.00,0.0065
2513.00,0.0065
2512.00,0.0065
2511.00,0.0066
2510.00,0.0066
2509.00,0.0065
2508.00,0.0065
2507.00,0.0064
2506.00,0.0064
2505.00,0.0064
2504.00,0.0064
2503.00,0.0064
2502.00,0.0064
2501.00,0.0064
2500.00,0.0065
2499.00,0.0065
2498.00,0.0065
2497.00,0.0065
2496.00,0.0064
2495.00,0.0064
2494.00,0.0064
2493.00,0.0064
2492.00,0.0064
2491.00,0.0065
2490.00,0.0065
2489.00,0.0065
2488.00,0.0064
2487.00,0.0064
2486.00,0.0064
2485.00,0.0064
2484.00,0.0064
2483.00,0.0064
2482.00,0.0063
2481.00,0.0063
2480.00,0.0063
2479.00,0.0063
2478.00,0.0063
2477.00,0.0064
2476.00,0.0064
2475.00,0.0064
2474.00,0.0063
2473.00,0.0062
2472.00,0.0062
2471.00,0.0062
2470.00,0.0062
2469.00,0.0063
2468.00,0.0063
2467.00,0.0063
2466.00,0.0063
2465.00,0.0062
2464.00,0.0062
2463.00,0.0062
2462.00,0.0062
2461.00,0.0062
2460.00,0.0062
2459.00,0.0062
2458.00,0.0063
2457.00,0.0063
2456.00,0.0063
2455.00,0.0063
2454.00,0.0063
2453.00,0.0062
2452.00,0.0062
2451.00,0.0062
2450.00,0.0062
2449.00,0.0062
2448.00,0.0062
2447.00,0.0062
2446.00,0.0062
2445.00,0.0061
2444.00,0.0061
2443.00,0.0061
2442.00,0.0061
2441.00,0.0061
2440.00,0.0061
2439.00,0.0061
2438.00,0.0061
2437.00,0.0060
2436.00,0.0060
2435.00,0.0060
2434.00,0.0060
2433.00,0.0060
2432.00,0.0060
2431.00,0.0060
2430.00,0.0059
2429.00,0.0059
2428.00,0.0059
2427.00,0.0059
2426.00,0.0059
2425.00,0.0059
2424.00,0.0059
2423.00,0.0058
2422.00,0.0058
2421.00,0.0058
2420.00,0.0058
2419.00,0.0058
2418.00,0.0058
2417.00,0.0058
2416.00,0.0058
2415.00,0.0058
2414.00,0.0058
2413.00,0.0058
2412.00,0.0058
2411.00,0.0058
2410.00,0.0057
2409.00,0.0057
2408.00,0.0056
2407.00,0.0056
2406.00,0.0055
2405.00,0.0055
2404.00,0.0055
2403.00,0.0056
2402.00,0.0056
2401.00,0.0056
2400.00,0.0056
2399.00,0.0056
2398.00,0.0056
2397.00,0.0056
2396.00,0.0055
2395.00,0.0055
2394.00,0.0055
2393.00,0.0055
2392.00,0.0056
2391.00,0.0056
2390.00,0.0056
2389.00,0.0055
2388.00,0.0055
2387.00,0.0055
2386.00,0.0054
2385.00,0.0054
2384.00,0.0054
2383.00,0.0053
2382.00,0.0053
2381.00,0.0053
2380.00,0.0053
2379.00,0.0053
2378.00,0.0053
2377.00,0.0053
2376.00,0.0053
2375.00,0.0053
2374.00,0.0052
2373.00,0.0052
2372.00,0.0052
2371.00,0.0052
2370.00,0.0051
2369.00,0.0051
2368.00,0.0052
2367.00,0.0052
2366.00,0.0052
2365.00,0.0052
2364.00,0.0052
2363.00,0.0051
2362.00,0.0052
2361.00,0.0052
2360.00,0.0052
2359.00,0.0052
2358.00,0.0051
2357.00,0.0051
2356.00,0.0050
2355.00,0.0049
2354.00,0.0048
2353.00,0.0047
2352.00,0.0047
2351.00,0.0047
2350.00,0.0049
2349.00,0.0051
2348.00,0.0053
2347.00,0.0055
2346.00,0.0056
2345.00,0.0055
2344.00,0.0055
2343.00,0.0054
2342.00,0.0054
2341.00,0.0054
2340.00,0.0053
2339.00,0.0053
2338.00,0.0053
2337.00,0.0053
2336.00,0.0053
2335.00,0.0053
2334.00,0.0053
2333.00,0.0052
2332.00,0.0052
2331.00,0.0052
2330.00,0.0052
2329.00,0.0054
2328.00,0.0056
2327.00,0.0060
2326.00,0.0063
2325.00,0.0064
2324.00,0.0064
2323.00,0.0062
2322.00,0.0061
2321.00,0.0059
2320.00,0.0058
2319.00,0.0058
2318.00,0.0057
2317.00,0.0057
2316.00,0.0057
2315.00,0.0057
2314.00,0.0057
2313.00,0.0057
2312.00,0.0056
2311.00,0.0056
2310.00,0.0056
2309.00,0.0056
2308.00,0.0056
2307.00,0.0056
2306.00,0.0056
2305.00,0.0057
2304.00,0.0057
2303.00,0.0057
2302.00,0.0058
2301.00,0.0058
2300.00,0.0058
2299.00,0.0058
2298.00,0.0059
2297.00,0.0059
2296.00,0.0059
2295.00,0.0060
2294.00,0.0061
2293.00,0.0061
2292.00,0.0062
2291.00,0.0063
2290.00,0.0063
2289.00,0.0064
2288.00,0.0064
2287.00,0.0064
2286.00,0.0064
2285.00,0.0063
2284.00,0.0063
2283.00,0.0062
2282.00,0.0061
2281.00,0.0061
2280.00,0.0061
2279.00,0.0060
2278.00,0.0060
2277.00,0.0060
2276.00,0.0060
2275.00,0.0060
2274.00,0.0060
2273.00,0.0060
2272.00,0.0060
2271.00,0.0059
2270.00,0.0059
2269.00,0.0059
2268.00,0.0058
2267.00,0.0057
2266.00,0.0057
2265.00,0.0056
2264.00,0.0056
2263.00,0.0056
2262.00,0.0057
2261.00,0.0057
2260.00,0.0058
2259.00,0.0058
2258.00,0.0058
2257.00,0.0057
2256.00,0.0056
2255.00,0.0055
2254.00,0.0054
2253.00,0.0054
2252.00,0.0054
2251.00,0.0055
2250.00,0.0055
2249.00,0.0055
2248.00,0.0055
2247.00,0.0055
2246.00,0.0055
2245.00,0.0055
2244.00,0.0056
2243.00,0.0057
2242.00,0.0057
2241.00,0.0056
2240.00,0.0056
2239.00,0.0056
2238.00,0.0056
2237.00,0.0055
2236.00,0.0055
2235.00,0.0055
2234.00,0.0054
2233.00,0.0054
2232.00,0.0054
2231.00,0.0054
2230.00,0.0055
2229.00,0.0055
2228.00,0.0054
2227.00,0.0054
2226.00,0.0054
2225.00,0.0054
2224.00,0.0053
2223.00,0.0053
2222.00,0.0052
2221.00,0.0052
2220.00,0.0053
2219.00,0.0055
2218.00,0.0056
2217.00,0.0056
2216.00,0.0056
2215.00,0.0055
2214.00,0.0053
2213.00,0.0051
2212.00,0.0051
2211.00,0.0051
2210.00,0.0052
2209.00,0.0053
2208.00,0.0053
2207.00,0.0053
2206.00,0.0054
2205.00,0.0054
2204.00,0.0055
2203.00,0.0055
2202.00,0.0055
2201.00,0.0055
2200.00,0.0054
2199.00,0.0054
2198.00,0.0054
2197.00,0.0053
2196.00,0.0054
2195.00,0.0054
2194.00,0.0055
2193.00,0.0055
2192.00,0.0056
2191.00,0.0057
2190.00,0.0058
2189.00,0.0058
2188.00,0.0058
2187.00,0.0059
2186.00,0.0058
2185.00,0.0057
2184.00,0.0055
2183.00,0.0053
2182.00,0.0052
2181.00,0.0051
2180.00,0.0052
2179.00,0.0052
2178.00,0.0051
2177.00,0.0050
2176.00,0.0048
2175.00,0.0048
2174.00,0.0048
2173.00,0.0048
2172.00,0.0050
2171.00,0.0053
2170.00,0.0056
2169.00,0.0059
2168.00,0.0062
2167.00,0.0063
2166.00,0.0064
2165.00,0.0065
2164.00,0.0066
2163.00,0.0066
2162.00,0.0062
2161.00,0.0054
2160.00,0.0042
2159.00,0.0032
2158.00,0.0026
2157.00,0.0024
2156.00,0.0026
2155.00,0.0029
2154.00,0.0032
2153.00,0.0034
2152.00,0.0035
2151.00,0.0035
2150.00,0.0035
2149.00,0.0034
2148.00,0.0034
2147.00,0.0035
2146.00,0.0036
2145.00,0.0037
2144.00,0.0038
2143.00,0.0038
2142.00,0.0037
2141.00,0.0036
2140.00,0.0036
2139.00,0.0036
2138.00,0.0036
2137.00,0.0035
2136.00,0.0034
2135.00,0.0033
2134.00,0.0032
2133.00,0.0033
2132.00,0.0034
2131.00,0.0036
2130.00,0.0037
2129.00,0.0038
2128.00,0.0039
2127.00,0.0040
2126.00,0.0041
2125.00,0.0043
2124.00,0.0044
2123.00,0.0044
2122.00,0.0045
2121.00,0.0046
2120.00,0.0046
2119.00,0.0047
2118.00,0.0048
2117.00,0.0049
2116.00,0.0050
2115.00,0.0050
2114.00,0.0051
2113.00,0.0050
2112.00,0.0050
2111.00,0.0050
2110.00,0.0050
2109.00,0.0050
2108.00,0.0049
2107.00,0.0049
2106.00,0.0049
2105.00,0.0049
2104.00,0.0049
2103.00,0.0049
2102.00,0.0050
2101.00,0.0050
2100.00,0.0050
2099.00,0.0049
2098.00,0.0048
2097.00,0.0047
2096.00,0.0046
2095.00,0.0045
2094.00,0.0045
2093.00,0.0046
2092.00,0.0047
2091.00,0.0048
2090.00,0.0049
2089.00,0.0049
2088.00,0.0050
2087.00,0.0049
2086.00,0.0049
2085.00,0.0049
2084.00,0.0049
2083.00,0.0049
2082.00,0.0050
2081.00,0.0050
2080.00,0.0051
2079.00,0.0051
2078.00,0.0051
2077.00,0.0050
2076.00,0.0049
2075.00,0.0048
2074.00,0.0048
2073.00,0.0049
2072.00,0.0050
2071.00,0.0050
2070.00,0.0050
2069.00,0.0050
2068.00,0.0049
2067.00,0.0048
2066.00,0.0047
2065.00,0.0048
2064.00,0.0048
2063.00,0.0049
2062.00,0.0049
2061.00,0.0049
2060.00,0.0049
2059.00,0.0050
2058.00,0.0050
2057.00,0.0050
2056.00,0.0050
2055.00,0.0050
2054.00,0.0052
2053.00,0.0054
2052.00,0.0057
2051.00,0.0058
2050.00,0.0057
2049.00,0.0054
2048.00,0.0052
2047.00,0.0052
2046.00,0.0052
2045.00,0.0051
2044.00,0.0051
2043.00,0.0051
2042.00,0.0051
2041.00,0.0050
2040.00,0.0050
2039.00,0.0051
2038.00,0.0051
2037.00,0.0050
2036.00,0.0048
2035.00,0.0045
2034.00,0.0043
2033.00,0.0042
2032.00,0.0042
2031.00,0.0043
2030.00,0.0043
2029.00,0.0042
2028.00,0.0042
2027.00,0.0041
2026.00,0.0041
2025.00,0.0041
2024.00,0.0042
2023.00,0.0042
2022.00,0.0042
2021.00,0.0041
2020.00,0.0040
2019.00,0.0040
2018.00,0.0039
2017.00,0.0040
2016.00,0.0041
2015.00,0.0043
2014.00,0.0044
2013.00,0.0045
2012.00,0.0045
2011.00,0.0045
2010.00,0.0044
2009.00,0.0042
2008.00,0.0039
2007.00,0.0038
2006.00,0.0036
2005.00,0.0036
2004.00,0.0036
2003.00,0.0037
2002.00,0.0037
2001.00,0.0038
2000.00,0.0039
1999.00,0.0040
1998.00,0.0039
1997.00,0.0039
1996.00,0.0040
1995.00,0.0041
1994.00,0.0042
1993.00,0.0044
1992.00,0.0045
1991.00,0.0045
1990.00,0.0045
1989.00,0.0044
1988.00,0.0045
1987.00,0.0046
1986.00,0.0048
1985.00,0.0050
1984.00,0.0052
1983.00,0.0054
1982.00,0.0056
1981.00,0.0055
1980.00,0.0052
1979.00,0.0047
1978.00,0.0043
1977.00,0.0040
1976.00,0.0038
1975.00,0.0037
1974.00,0.0036
1973.00,0.0034
1972.00,0.0034
1971.00,0.0035
1970.00,0.0035
1969.00,0.0036
1968.00,0.0036
1967.00,0.0037
1966.00,0.0038
1965.00,0.0038
1964.00,0.0038
1963.00,0.0038
1962.00,0.0037
1961.00,0.0036
1960.00,0.0035
1959.00,0.0034
1958.00,0.0033
1957.00,0.0034
1956.00,0.0034
1955.00,0.0035
1954.00,0.0035
1953.00,0.0035
1952.00,0.0035
1951.00,0.0036
1950.00,0.0037
1949.00,0.0037
1948.00,0.0037
1947.00,0.0037
1946.00,0.0036
1945.00,0.0035
1944.00,0.0035
1943.00,0.0035
1942.00,0.0036
1941.00,0.0037
1940.00,0.0037
1939.00,0.0037
1938.00,0.0037
1937.00,0.0036
1936.00,0.0037
1935.00,0.0037
1934.00,0.0036
1933.00,0.0036
1932.00,0.0036
1931.00,0.0035
1930.00,0.0035
1929.00,0.0036
1928.00,0.0036
1927.00,0.0036
1926.00,0.0035
1925.00,0.0035
1924.00,0.0035
1923.00,0.0036
1922.00,0.0037
1921.00,0.0037
1920.00,0.0036
1919.00,0.0036
1918.00,0.0037
1917.00,0.0038
1916.00,0.0040
1915.00,0.0040
1914.00,0.0039
1913.00,0.0038
1912.00,0.0038
1911.00,0.0037
1910.00,0.0037
1909.00,0.0037
1908.00,0.0038
1907.00,0.0039
1906.00,0.0039
1905.00,0.0039
1904.00,0.0039
1903.00,0.0039
1902.00,0.0038
1901.00,0.0038
1900.00,0.0038
1899.00,0.0038
1898.00,0.0037
1897.00,0.0036
1896.00,0.0036
1895.00,0.0037
1894.00,0.0037
1893.00,0.0036
1892.00,0.0035
1891.00,0.0034
1890.00,0.0034
1889.00,0.0035
1888.00,0.0036
1887.00,0.0037
1886.00,0.0037
1885.00,0.0036
1884.00,0.0036
1883.00,0.0037
1882.00,0.0037
1881.00,0.0036
1880.00,0.0036
1879.00,0.0036
1878.00,0.0036
1877.00,0.0037
1876.00,0.0037
1875.00,0.0037
1874.00,0.0037
1873.00,0.0037
1872.00,0.0035
1871.00,0.0033
1870.00,0.0032
1869.00,0.0032
1868.00,0.0034
1867.00,0.0037
1866.00,0.0038
1865.00,0.0037
1864.00,0.0037
1863.00,0.0036
1862.00,0.0036
1861.00,0.0036
1860.00,0.0036
1859.00,0.0037
1858.00,0.0037
1857.00,0.0036
1856.00,0.0036
1855.00,0.0036
1854.00,0.0036
1853.00,0.0036
1852.00,0.0036
1851.00,0.0036
1850.00,0.0036
1849.00,0.0035
1848.00,0.0033
1847.00,0.0031
1846.00,0.0030
1845.00,0.0031
1844.00,0.0035
1843.00,0.0039
1842.00,0.0040
1841.00,0.0038
1840.00,0.0036
1839.00,0.0035
1838.00,0.0034
1837.00,0.0034
1836.00,0.0035
1835.00,0.0035
1834.00,0.0034
1833.00,0.0033
1832.00,0.0031
1831.00,0.0030
1830.00,0.0031
1829.00,0.0033
1828.00,0.0034
1827.00,0.0033
1826.00,0.0032
1825.00,0.0033
1824.00,0.0035
1823.00,0.0036
1822.00,0.0036
1821.00,0.0036
1820.00,0.0035
1819.00,0.0034
1818.00,0.0033
1817.00,0.0033
1816.00,0.0033
1815.00,0.0034
1814.00,0.0033
1813.00,0.0032
1812.00,0.0032
1811.00,0.0033
1810.00,0.0034
1809.00,0.0035
1808.00,0.0035
1807.00,0.0035
1806.00,0.0035
1805.00,0.0034
1804.00,0.0033
1803.00,0.0032
1802.00,0.0031
1801.00,0.0032
1800.00,0.0032
1799.00,0.0033
1798.00,0.0034
1797.00,0.0033
1796.00,0.0032
1795.00,0.0030
1794.00,0.0029
1793.00,0.0030
1792.00,0.0032
1791.00,0.0036
1790.00,0.0038
1789.00,0.0037
1788.00,0.0036
1787.00,0.0035
1786.00,0.0034
1785.00,0.0035
1784.00,0.0035
1783.00,0.0034
1782.00,0.0033
1781.00,0.0033
1780.00,0.0033
1779.00,0.0034
1778.00,0.0034
1777.00,0.0033
1776.00,0.0031
1775.00,0.0029
1774.00,0.0028
1773.00,0.0029
1772.00,0.0032
1771.00,0.0036
1770.00,0.0037
1769.00,0.0037
1768.00,0.0037
1767.00,0.0039
1766.00,0.0039
1765.00,0.0036
1764.00,0.0034
1763.00,0.0033
1762.00,0.0035
1761.00,0.0037
1760.00,0.0039
1759.00,0.0038
1758.00,0.0037
1757.00,0.0038
1756.00,0.0040
1755.00,0.0041
1754.00,0.0040
1753.00,0.0039
1752.00,0.0039
1751.00,0.0040
1750.00,0.0041
1749.00,0.0042
1748.00,0.0042
1747.00,0.0044
1746.00,0.0045
1745.00,0.0046
1744.00,0.0047
1743.00,0.0048
1742.00,0.0050
1741.00,0.0052
1740.00,0.0055
1739.00,0.0058
1738.00,0.0060
1737.00,0.0058
1736.00,0.0057
1735.00,0.0060
1734.00,0.0066
1733.00,0.0073
1732.00,0.0075
1731.00,0.0072
1730.00,0.0070
1729.00,0.0071
1728.00,0.0073
1727.00,0.0074
1726.00,0.0074
1725.00,0.0074
1724.00,0.0074
1723.00,0.0075
1722.00,0.0074
1721.00,0.0073
1720.00,0.0071
1719.00,0.0071
1718.00,0.0072
1717.00,0.0076
1716.00,0.0079
1715.00,0.0081
1714.00,0.0082
1713.00,0.0082
1712.00,0.0082
1711.00,0.0083
1710.00,0.0084
1709.00,0.0084
1708.00,0.0084
1707.00,0.0084
1706.00,0.0086
1705.00,0.0090
1704.00,0.0093
1703.00,0.0096
1702.00,0.0100
1701.00,0.0106
1700.00,0.0114
1699.00,0.0121
1698.00,0.0123
1697.00,0.0126
1696.00,0.0134
1695.00,0.0143
1694.00,0.0150
1693.00,0.0152
1692.00,0.0153
1691.00,0.0156
1690.00,0.0161
1689.00,0.0166
1688.00,0.0171
1687.00,0.0178
1686.00,0.0185
1685.00,0.0191
1684.00,0.0195
1683.00,0.0200
1682.00,0.0205
1681.00,0.0209
1680.00,0.0214
1679.00,0.0221
1678.00,0.0228
1677.00,0.0236
1676.00,0.0242
1675.00,0.0247
1674.00,0.0252
1673.00,0.0257
1672.00,0.0262
1671.00,0.0268
1670.00,0.0273
1669.00,0.0279
1668.00,0.0286
1667.00,0.0295
1666.00,0.0304
1665.00,0.0314
1664.00,0.0323
1663.00,0.0330
1662.00,0.0335
1661.00,0.0343
1660.00,0.0353
1659.00,0.0364
1658.00,0.0376
1657.00,0.0389
1656.00,0.0406
1655.00,0.0423
1654.00,0.0428
1653.00,0.0416
1652.00,0.0409
1651.00,0.0412
1650.00,0.0419
1649.00,0.0427
1648.00,0.0431
1647.00,0.0426
1646.00,0.0418
1645.00,0.0415
1644.00,0.0417
1643.00,0.0420
1642.00,0.0423
1641.00,0.0424
1640.00,0.0425
1639.00,0.0426
1638.00,0.0429
1637.00,0.0426
1636.00,0.0415
1635.00,0.0401
1634.00,0.0395
1633.00,0.0394
1632.00,0.0397
1631.00,0.0400
1630.00,0.0401
1629.00,0.0398
1628.00,0.0393
1627.00,0.0388
1626.00,0.0385
1625.00,0.0383
1624.00,0.0377
1623.00,0.0368
1622.00,0.0359
1621.00,0.0355
1620.00,0.0354
1619.00,0.0354
1618.00,0.0351
1617.00,0.0340
1616.00,0.0327
1615.00,0.0316
1614.00,0.0309
1613.00,0.0304
1612.00,0.0300
1611.00,0.0293
1610.00,0.0286
1609.00,0.0278
1608.00,0.0271
1607.00,0.0266
1606.00,0.0260
1605.00,0.0256
1604.00,0.0252
1603.00,0.0247
1602.00,0.0243
1601.00,0.0240
1600.00,0.0237
1599.00,0.0234
1598.00,0.0231
1597.00,0.0229
1596.00,0.0226
1595.00,0.0223
1594.00,0.0221
1593.00,0.0219
1592.00,0.0217
1591.00,0.0215
1590.00,0.0213
1589.00,0.0211
1588.00,0.0210
1587.00,0.0208
1586.00,0.0207
1585.00,0.0206
1584.00,0.0206
1583.00,0.0205
1582.00,0.0205
1581.00,0.0205
1580.00,0.0205
1579.00,0.0205
1578.00,0.0206
1577.00,0.0207
1576.00,0.0208
1575.00,0.0209
1574.00,0.0209
1573.00,0.0208
1572.00,0.0209
1571.00,0.0210
1570.00,0.0210
1569.00,0.0211
1568.00,0.0213
1567.00,0.0215
1566.00,0.0218
1565.00,0.0221
1564.00,0.0225
1563.00,0.0231
1562.00,0.0239
1561.00,0.0249
1560.00,0.0253
1559.00,0.0249
1558.00,0.0250
1557.00,0.0258
1556.00,0.0266
1555.00,0.0273
1554.00,0.0281
1553.00,0.0289
1552.00,0.0296
1551.00,0.0303
1550.00,0.0309
1549.00,0.0316
1548.00,0.0324
1547.00,0.0333
1546.00,0.0340
1545.00,0.0345
1544.00,0.0348
1543.00,0.0352
1542.00,0.0356
1541.00,0.0356
1540.00,0.0351
1539.00,0.0349
1538.00,0.0352
1537.00,0.0357
1536.00,0.0363
1535.00,0.0367
1534.00,0.0366
1533.00,0.0361
1532.00,0.0358
1531.00,0.0360
1530.00,0.0363
1529.00,0.0365
1528.00,0.0366
1527.00,0.0364
1526.00,0.0361
1525.00,0.0359
1524.00,0.0359
1523.00,0.0360
1522.00,0.0357
1521.00,0.0352
1520.00,0.0348
1519.00,0.0348
1518.00,0.0348
1517.00,0.0345
1516.00,0.0342
1515.00,0.0341
1514.00,0.0342
1513.00,0.0342
1512.00,0.0340
1511.00,0.0336
1510.00,0.0333
1509.00,0.0331
1508.00,0.0323
1507.00,0.0308
1506.00,0.0296
1505.00,0.0292
1504.00,0.0290
1503.00,0.0288
1502.00,0.0286
1501.00,0.0283
1500.00,0.0279
1499.00,0.0274
1498.00,0.0268
1497.00,0.0262
1496.00,0.0256
1495.00,0.0250
1494.00,0.0245
1493.00,0.0240
1492.00,0.0234
1491.00,0.0227
1490.00,0.0219
1489.00,0.0211
1488.00,0.0207
1487.00,0.0205
1486.00,0.0203
1485.00,0.0201
1484.00,0.0199
1483.00,0.0197
1482.00,0.0194
1481.00,0.0192
1480.00,0.0190
1479.00,0.0189
1478.00,0.0188
1477.00,0.0187
1476.00,0.0186
1475.00,0.0186
1474.00,0.0187
1473.00,0.0188
1472.00,0.0191
1471.00,0.0194
1470.00,0.0197
1469.00,0.0198
1468.00,0.0199
1467.00,0.0200
1466.00,0.0201
1465.00,0.0201
1464.00,0.0201
1463.00,0.0202
1462.00,0.0203
1461.00,0.0204
1460.00,0.0205
1459.00,0.0206
1458.00,0.0208
1457.00,0.0209
1456.00,0.0212
1455.00,0.0213
1454.00,0.0213
1453.00,0.0213
1452.00,0.0213
1451.00,0.0213
1450.00,0.0213
1449.00,0.0212
1448.00,0.0211
1447.00,0.0210
1446.00,0.0210
1445.00,0.0210
1444.00,0.0210
1443.00,0.0209
1442.00,0.0208
1441.00,0.0207
1440.00,0.0207
1439.00,0.0206
1438.00,0.0206
1437.00,0.0204
1436.00,0.0200
1435.00,0.0197
1434.00,0.0194
1433.00,0.0191
1432.00,0.0189
1431.00,0.0186
1430.00,0.0185
1429.00,0.0184
1428.00,0.0183
1427.00,0.0183
1426.00,0.0182
1425.00,0.0181
1424.00,0.0181
1423.00,0.0181
1422.00,0.0183
1421.00,0.0185
1420.00,0.0187
1419.00,0.0187
1418.00,0.0187
1417.00,0.0188
1416.00,0.0189
1415.00,0.0190
1414.00,0.0191
1413.00,0.0192
1412.00,0.0193
1411.00,0.0193
1410.00,0.0194
1409.00,0.0195
1408.00,0.0195
1407.00,0.0195
1406.00,0.0195
1405.00,0.0196
1404.00,0.0196
1403.00,0.0197
1402.00,0.0198
1401.00,0.0199
1400.00,0.0199
1399.00,0.0199
1398.00,0.0199
1397.00,0.0199
1396.00,0.0200
1395.00,0.0202
1394.00,0.0204
1393.00,0.0206
1392.00,0.0207
1391.00,0.0208
1390.00,0.0209
1389.00,0.0210
1388.00,0.0210
1387.00,0.0210
1386.00,0.0210
1385.00,0.0209
1384.00,0.0208
1383.00,0.0207
1382.00,0.0206
1381.00,0.0205
1380.00,0.0203
1379.00,0.0201
1378.00,0.0200
1377.00,0.0198
1376.00,0.0195
1375.00,0.0193
1374.00,0.0192
1373.00,0.0192
1372.00,0.0192
1371.00,0.0192
1370.00,0.0191
1369.00,0.0191
1368.00,0.0189
1367.00,0.0188
1366.00,0.0187
1365.00,0.0184
1364.00,0.0182
1363.00,0.0179
1362.00,0.0177
1361.00,0.0176
1360.00,0.0176
1359.00,0.0176
1358.00,0.0176
1357.00,0.0176
1356.00,0.0176
1355.00,0.0176
1354.00,0.0176
1353.00,0.0176
1352.00,0.0177
1351.00,0.0177
1350.00,0.0177
1349.00,0.0177
1348.00,0.0177
1347.00,0.0177
1346.00,0.0177
1345.00,0.0177
1344.00,0.0177
1343.00,0.0178
1342.00,0.0177
1341.00,0.0177
1340.00,0.0176
1339.00,0.0176
1338.00,0.0177
1337.00,0.0177
1336.00,0.0178
1335.00,0.0178
1334.00,0.0178
1333.00,0.0178
1332.00,0.0178
1331.00,0.0178
1330.00,0.0179
1329.00,0.0179
1328.00,0.0179
1327.00,0.0179
1326.00,0.0179
1325.00,0.0180
1324.00,0.0180
1323.00,0.0180
1322.00,0.0181
1321.00,0.0181
1320.00,0.0181
1319.00,0.0181
1318.00,0.0182
1317.00,0.0183
1316.00,0.0184
1315.00,0.0184
1314.00,0.0185
1313.00,0.0185
1312.00,0.0186
1311.00,0.0187
1310.00,0.0188
1309.00,0.0188
1308.00,0.0189
1307.00,0.0189
1306.00,0.0190
1305.00,0.0190
1304.00,0.0191
1303.00,0.0192
1302.00,0.0192
1301.00,0.0193
1300.00,0.0193
1299.00,0.0194
1298.00,0.0194
1297.00,0.0194
1296.00,0.0195
1295.00,0.0195
1294.00,0.0195
1293.00,0.0196
1292.00,0.0196
1291.00,0.0196
1290.00,0.0196
1289.00,0.0196
1288.00,0.0196
1287.00,0.0196
1286.00,0.0196
1285.00,0.0196
1284.00,0.0195
1283.00,0.0195
1282.00,0.0195
1281.00,0.0195
1280.00,0.0195
1279.00,0.0195
1278.00,0.0196
1277.00,0.0197
1276.00,0.0197
1275.00,0.0198
1274.00,0.0198
1273.00,0.0199
1272.00,0.0199
1271.00,0.0199
1270.00,0.0200
1269.00,0.0201
1268.00,0.0201
1267.00,0.0202
1266.00,0.0203
1265.00,0.0204
1264.00,0.0205
1263.00,0.0206
1262.00,0.0207
1261.00,0.0208
1260.00,0.0209
1259.00,0.0209
1258.00,0.0210
1257.00,0.0211
1256.00,0.0212
1255.00,0.0212
1254.00,0.0213
1253.00,0.0214
1252.00,0.0215
1251.00,0.0216
1250.00,0.0217
1249.00,0.0219
1248.00,0.0220
1247.00,0.0221
1246.00,0.0222
1245.00,0.0222
1244.00,0.0223
1243.00,0.0224
1242.00,0.0225
1241.00,0.0226
1240.00,0.0226
1239.00,0.0227
1238.00,0.0228
1237.00,0.0228
1236.00,0.0229
1235.00,0.0229
1234.00,0.0229
1233.00,0.0229
1232.00,0.0229
1231.00,0.0229
1230.00,0.0229
1229.00,0.0229
1228.00,0.0228
1227.00,0.0228
1226.00,0.0228
1225.00,0.0227
1224.00,0.0227
1223.00,0.0226
1222.00,0.0226
1221.00,0.0225
1220.00,0.0224
1219.00,0.0222
1218.00,0.0221
1217.00,0.0220
1216.00,0.0219
1215.00,0.0217
1214.00,0.0216
1213.00,0.0215
1212.00,0.0214
1211.00,0.0213
1210.00,0.0212
1209.00,0.0210
1208.00,0.0209
1207.00,0.0208
1206.00,0.0207
1205.00,0.0206
1204.00,0.0205
1203.00,0.0204
1202.00,0.0203
1201.00,0.0202
1200.00,0.0201
1199.00,0.0199
1198.00,0.0199
1197.00,0.0198
1196.00,0.0197
1195.00,0.0196
1194.00,0.0195
1193.00,0.0194
1192.00,0.0193
1191.00,0.0193
1190.00,0.0192
1189.00,0.0193
1188.00,0.0192
1187.00,0.0192
1186.00,0.0192
1185.00,0.0192
1184.00,0.0192
1183.00,0.0192
1182.00,0.0192
1181.00,0.0192
1180.00,0.0192
1179.00,0.0193
1178.00,0.0194
1177.00,0.0195
1176.00,0.0195
1175.00,0.0196
1174.00,0.0197
1173.00,0.0198
1172.00,0.0198
1171.00,0.0198
1170.00,0.0199
1169.00,0.0199
1168.00,0.0199
1167.00,0.0199
1166.00,0.0200
1165.00,0.0200
1164.00,0.0200
1163.00,0.0201
1162.00,0.0201
1161.00,0.0202
1160.00,0.0202
1159.00,0.0203
1158.00,0.0203
1157.00,0.0203
1156.00,0.0203
1155.00,0.0203
1154.00,0.0204
1153.00,0.0203
1152.00,0.0203
1151.00,0.0202
1150.00,0.0201
1149.00,0.0201
1148.00,0.0200
1147.00,0.0199
1146.00,0.0198
1145.00,0.0197
1144.00,0.0197
1143.00,0.0196
1142.00,0.0195
1141.00,0.0195
1140.00,0.0195
1139.00,0.0195
1138.00,0.0195
1137.00,0.0195
1136.00,0.0195
1135.00,0.0195
1134.00,0.0196
1133.00,0.0197
1132.00,0.0197
1131.00,0.0198
1130.00,0.0199
1129.00,0.0200
1128.00,0.0200
1127.00,0.0201
1126.00,0.0201
1125.00,0.0201
1124.00,0.0201
1123.00,0.0200
1122.00,0.0200
1121.00,0.0200
1120.00,0.0200
1119.00,0.0201
1118.00,0.0202
1117.00,0.0204
1116.00,0.0205
1115.00,0.0207
1114.00,0.0208
1113.00,0.0209
1112.00,0.0211
1111.00,0.0212
1110.00,0.0213
1109.00,0.0214
1108.00,0.0216
1107.00,0.0218
1106.00,0.0220
1105.00,0.0223
1104.00,0.0225
1103.00,0.0226
1102.00,0.0228
1101.00,0.0229
1100.00,0.0230
1099.00,0.0231
1098.00,0.0233
1097.00,0.0234
1096.00,0.0235
1095.00,0.0236
1094.00,0.0238
1093.00,0.0241
1092.00,0.0243
1091.00,0.0245
1090.00,0.0247
1089.00,0.0250
1088.00,0.0253
1087.00,0.0256
1086.00,0.0259
1085.00,0.0262
1084.00,0.0264
1083.00,0.0266
1082.00,0.0269
1081.00,0.0272
1080.00,0.0273
1079.00,0.0275
1078.00,0.0277
1077.00,0.0278
1076.00,0.0278
1075.00,0.0277
1074.00,0.0276
1073.00,0.0275
1072.00,0.0274
1071.00,0.0273
1070.00,0.0272
1069.00,0.0272
1068.00,0.0272
1067.00,0.0271
1066.00,0.0272
1065.00,0.0273
1064.00,0.0273
1063.00,0.0273
1062.00,0.0274
1061.00,0.0275
1060.00,0.0275
1059.00,0.0276
1058.00,0.0277
1057.00,0.0278
1056.00,0.0279
1055.00,0.0280
1054.00,0.0281
1053.00,0.0282
1052.00,0.0282
1051.00,0.0281
1050.00,0.0281
1049.00,0.0280
1048.00,0.0279
1047.00,0.0279
1046.00,0.0278
1045.00,0.0278
1044.00,0.0277
1043.00,0.0276
1042.00,0.0275
1041.00,0.0275
1040.00,0.0274
1039.00,0.0273
1038.00,0.0272
1037.00,0.0272
1036.00,0.0271
1035.00,0.0271
1034.00,0.0271
1033.00,0.0271
1032.00,0.0270
1031.00,0.0270
1030.00,0.0270
1029.00,0.0271
1028.00,0.0270
1027.00,0.0270
1026.00,0.0269
1025.00,0.0268
1024.00,0.0267
1023.00,0.0265
1022.00,0.0264
1021.00,0.0263
1020.00,0.0261
1019.00,0.0259
1018.00,0.0257
1017.00,0.0255
1016.00,0.0252
1015.00,0.0249
1014.00,0.0247
1013.00,0.0244
1012.00,0.0241
1011.00,0.0238
1010.00,0.0235
1009.00,0.0233
1008.00,0.0230
1007.00,0.0228
1006.00,0.0226
1005.00,0.0223
1004.00,0.0220
1003.00,0.0217
1002.00,0.0215
1001.00,0.0212
1000.00,0.0210
999.00,0.0207
998.00,0.0205
997.00,0.0203
996.00,0.0200
995.00,0.0198
994.00,0.0195
993.00,0.0192
992.00,0.0189
991.00,0.0186
990.00,0.0184
989.00,0.0181
988.00,0.0179
987.00,0.0177
986.00,0.0175
985.00,0.0173
984.00,0.0170
983.00,0.0168
982.00,0.0166
981.00,0.0165
980.00,0.0163
979.00,0.0163
978.00,0.0162
977.00,0.0162
976.00,0.0161
975.00,0.0161
974.00,0.0162
973.00,0.0162
972.00,0.0162
971.00,0.0161
970.00,0.0161
969.00,0.0161
968.00,0.0161
967.00,0.0161
966.00,0.0161
965.00,0.0161
964.00,0.0161
963.00,0.0161
962.00,0.0161
961.00,0.0161
960.00,0.0160
959.00,0.0160
958.00,0.0160
957.00,0.0159
956.00,0.0158
955.00,0.0158
954.00,0.0158
953.00,0.0157
952.00,0.0157
951.00,0.0156
950.00,0.0156
949.00,0.0156
948.00,0.0156
947.00,0.0156
946.00,0.0156
945.00,0.0157
944.00,0.0157
943.00,0.0157
942.00,0.0157
941.00,0.0157
940.00,0.0157
939.00,0.0157
938.00,0.0158
937.00,0.0158
936.00,0.0158
935.00,0.0158
934.00,0.0158
933.00,0.0158
932.00,0.0157
931.00,0.0156
930.00,0.0156
929.00,0.0156
928.00,0.0156
927.00,0.0156
926.00,0.0156
925.00,0.0155
924.00,0.0154
923.00,0.0153
922.00,0.0153
921.00,0.0152
920.00,0.0151
919.00,0.0151
918.00,0.0151
917.00,0.0150
916.00,0.0149
915.00,0.0148
914.00,0.0148
913.00,0.0147
912.00,0.0146
911.00,0.0145
910.00,0.0145
909.00,0.0144
908.00,0.0144
907.00,0.0143
906.00,0.0143
905.00,0.0143
904.00,0.0142
903.00,0.0142
902.00,0.0142
901.00,0.0141
900.00,0.0141
899.00,0.0141
898.00,0.0141
897.00,0.0141
896.00,0.0141
895.00,0.0141
894.00,0.0142
893.00,0.0142
892.00,0.0141
891.00,0.0141
890.00,0.0141
889.00,0.0141
888.00,0.0140
887.00,0.0140
886.00,0.0140
885.00,0.0140
884.00,0.0140
883.00,0.0140
882.00,0.0140
881.00,0.0140
880.00,0.0139
879.00,0.0139
878.00,0.0138
877.00,0.0138
876.00,0.0138
875.00,0.0137
874.00,0.0137
873.00,0.0137
872.00,0.0136
871.00,0.0136
870.00,0.0137
869.00,0.0137
868.00,0.0138
867.00,0.0138
866.00,0.0138
865.00,0.0139
864.00,0.0138
863.00,0.0139
862.00,0.0140
861.00,0.0140
860.00,0.0140
859.00,0.0140
858.00,0.0141
857.00,0.0141
856.00,0.0141
855.00,0.0142
854.00,0.0143
853.00,0.0144
852.00,0.0144
851.00,0.0144
850.00,0.0145
849.00,0.0146
848.00,0.0145
847.00,0.0144
846.00,0.0144
845.00,0.0144
844.00,0.0143
843.00,0.0143
842.00,0.0144
841.00,0.0145
840.00,0.0146
839.00,0.0147
838.00,0.0149
837.00,0.0150
836.00,0.0151
835.00,0.0152
834.00,0.0154
833.00,0.0156
832.00,0.0156
831.00,0.0157
830.00,0.0158
829.00,0.0158
828.00,0.0157
827.00,0.0157
826.00,0.0158
825.00,0.0159
824.00,0.0159
823.00,0.0159
822.00,0.0159
821.00,0.0160
820.00,0.0159
819.00,0.0159
818.00,0.0160
817.00,0.0161
816.00,0.0161
815.00,0.0162
814.00,0.0163
813.00,0.0163
812.00,0.0164
811.00,0.0165
810.00,0.0166
809.00,0.0166
808.00,0.0166
807.00,0.0167
806.00,0.0167
805.00,0.0168
804.00,0.0169
803.00,0.0169
802.00,0.0171
801.00,0.0171
800.00,0.0171
799.00,0.0171
798.00,0.0172
797.00,0.0172
796.00,0.0172
795.00,0.0173
794.00,0.0173
793.00,0.0174
792.00,0.0174
791.00,0.0175
790.00,0.0176
789.00,0.0176
788.00,0.0177
787.00,0.0177
786.00,0.0179
785.00,0.0180
784.00,0.0180
783.00,0.0181
782.00,0.0181
781.00,0.0181
780.00,0.0181
779.00,0.0181
778.00,0.0182
777.00,0.0182
776.00,0.0182
775.00,0.0182
774.00,0.0183
773.00,0.0184
772.00,0.0184
771.00,0.0184
770.00,0.0186
769.00,0.0187
768.00,0.0188
767.00,0.0188
766.00,0.0189
765.00,0.0189
764.00,0.0189
763.00,0.0189
762.00,0.0190
761.00,0.0191
760.00,0.0192
759.00,0.0192
758.00,0.0194
757.00,0.0195
756.00,0.0196
755.00,0.0197
754.00,0.0197
753.00,0.0198
752.00,0.0197
751.00,0.0198
750.00,0.0199
749.00,0.0200
748.00,0.0201
747.00,0.0201
746.00,0.0202
745.00,0.0202
744.00,0.0202
743.00,0.0203
742.00,0.0204
741.00,0.0204
740.00,0.0203
739.00,0.0203
738.00,0.0203
737.00,0.0204
736.00,0.0205
735.00,0.0206
734.00,0.0207
733.00,0.0207
732.00,0.0206
731.00,0.0206
730.00,0.0207
729.00,0.0208
728.00,0.0209
727.00,0.0210
726.00,0.0211
725.00,0.0213
724.00,0.0214
723.00,0.0216
722.00,0.0218
721.00,0.0220
720.00,0.0221
719.00,0.0222
718.00,0.0223
717.00,0.0225
716.00,0.0225
715.00,0.0226
714.00,0.0228
713.00,0.0230
712.00,0.0231
711.00,0.0233
710.00,0.0235
709.00,0.0237
708.00,0.0239
707.00,0.0241
706.00,0.0244
705.00,0.0247
704.00,0.0248
703.00,0.0250
702.00,0.0252
701.00,0.0253
700.00,0.0253
699.00,0.0253
698.00,0.0254
697.00,0.0254
696.00,0.0253
695.00,0.0253
694.00,0.0253
693.00,0.0253
692.00,0.0253
691.00,0.0252
690.00,0.0253
689.00,0.0254
688.00,0.0253
687.00,0.0254
686.00,0.0256
685.00,0.0257
684.00,0.0257
683.00,0.0258
682.00,0.0259
681.00,0.0260
680.00,0.0261
679.00,0.0261
678.00,0.0262
677.00,0.0263
676.00,0.0264
675.00,0.0265
674.00,0.0267
673.00,0.0269
672.00,0.0270
671.00,0.0273
670.00,0.0276
669.00,0.0275
668.00,0.0270
667.00,0.0267
666.00,0.0269
665.00,0.0273
664.00,0.0276
663.00,0.0278
662.00,0.0279
661.00,0.0280
660.00,0.0281
659.00,0.0281
658.00,0.0282
657.00,0.0282
656.00,0.0282
655.00,0.0283
654.00,0.0284
653.00,0.0285
652.00,0.0285
651.00,0.0285
650.00,0.0286
649.00,0.0287
648.00,0.0287
647.00,0.0288
646.00,0.0289
645.00,0.0290
644.00,0.0289
643.00,0.0289
642.00,0.0290
641.00,0.0291
640.00,0.0291
639.00,0.0291
638.00,0.0292
637.00,0.0294
636.00,0.0294
635.00,0.0294
634.00,0.0296
633.00,0.0297
632.00,0.0297
631.00,0.0298
630.00,0.0299
629.00,0.0300
628.00,0.0301
627.00,0.0302
626.00,0.0304
625.00,0.0305
624.00,0.0305
623.00,0.0305
622.00,0.0306
621.00,0.0306
620.00,0.0306
619.00,0.0307
618.00,0.0309
617.00,0.0310
616.00,0.0310
615.00,0.0310
614.00,0.0312
613.00,0.0314
612.00,0.0315
611.00,0.0317
610.00,0.0319
609.00,0.0320
608.00,0.0317
607.00,0.0315
606.00,0.0314
605.00,0.0315
604.00,0.0314
603.00,0.0314
602.00,0.0315
601.00,0.0316
600.00,0.0315
599.00,0.0315
598.00,0.0316
597.00,0.0316
596.00,0.0315
595.00,0.0315
594.00,0.0317
593.00,0.0318
592.00,0.0318
591.00,0.0318
590.00,0.0318
589.00,0.0319
588.00,0.0319
587.00,0.0319
586.00,0.0320
585.00,0.0321
584.00,0.0321
583.00,0.0321
582.00,0.0322
581.00,0.0323
580.00,0.0323
579.00,0.0324
578.00,0.0327
577.00,0.0330
576.00,0.0329
575.00,0.0329
574.00,0.0330
573.00,0.0331
572.00,0.0330
571.00,0.0330
570.00,0.0331
569.00,0.0332
568.00,0.0330
567.00,0.0330
566.00,0.0332
565.00,0.0334
564.00,0.0334
563.00,0.0335
562.00,0.0338
561.00,0.0339
560.00,0.0338
559.00,0.0336
558.00,0.0337
557.00,0.0338
556.00,0.0337
555.00,0.0337
554.00,0.0340
553.00,0.0342
552.00,0.0341
551.00,0.0341
550.00,0.0343
549.00,0.0345
548.00,0.0345
547.00,0.0345
546.00,0.0346
545.00,0.0348
544.00,0.0348
543.00,0.0348
542.00,0.0350
541.00,0.0352
540.00,0.0351
539.00,0.0351
538.00,0.0353
537.00,0.0354
536.00,0.0354
535.00,0.0354
534.00,0.0357
533.00,0.0359
532.00,0.0358
531.00,0.0357
530.00,0.0359
529.00,0.0361
528.00,0.0361
527.00,0.0361
526.00,0.0363
525.00,0.0363
524.00,0.0361
523.00,0.0360
522.00,0.0361
521.00,0.0362
520.00,0.0361
519.00,0.0359
518.00,0.0360
517.00,0.0360
516.00,0.0358
515.00,0.0356
514.00,0.0358
513.00,0.0359
512.00,0.0359
511.00,0.0358
510.00,0.0359
509.00,0.0358
508.00,0.0355
507.00,0.0352
506.00,0.0354
505.00,0.0356
504.00,0.0354
503.00,0.0352
502.00,0.0353
501.00,0.0353
500.00,0.0351
499.00,0.0350
498.00,0.0352
497.00,0.0352
496.00,0.0351
495.00,0.0350
494.00,0.0352
493.00,0.0353
492.00,0.0350
491.00,0.0348
490.00,0.0350
489.00,0.0352
488.00,0.0351
487.00,0.0351
486.00,0.0353
485.00,0.0353
484.00,0.0350
483.00,0.0347
482.00,0.0349
481.00,0.0351
480.00,0.0347
479.00,0.0344
478.00,0.0344
477.00,0.0345
476.00,0.0343
475.00,0.0342
474.00,0.0344
473.00,0.0346
472.00,0.0345
471.00,0.0346
470.00,0.0352
469.00,0.0357
468.00,0.0356
467.00,0.0354
466.00,0.0355
465.00,0.0355
464.00,0.0350
463.00,0.0346
462.00,0.0347
461.00,0.0347
460.00,0.0342
459.00,0.0336
458.00,0.0335
457.00,0.0335
456.00,0.0331
455.00,0.0329
454.00,0.0330
453.00,0.0330
452.00,0.0325
451.00,0.0324
450.00,0.0329
449.00,0.0333
448.00,0.0331
447.00,0.0326
446.00,0.0326
445.00,0.0323
444.00,0.0315
443.00,0.0309
442.00,0.0311
441.00,0.0313
440.00,0.0311
439.00,0.0311
438.00,0.0316
437.00,0.0319
436.00,0.0312
435.00,0.0304
434.00,0.0302
433.00,0.0302
432.00,0.0298
431.00,0.0295
430.00,0.0299
429.00,0.0303
428.00,0.0300
427.00,0.0297
426.00,0.0300
425.00,0.0302
424.00,0.0298
423.00,0.0297
422.00,0.0307
421.00,0.0313
420.00,0.0302
419.00,0.0286
418.00,0.0286
417.00,0.0294
416.00,0.0298
415.00,0.0306
414.00,0.0319
413.00,0.0325
412.00,0.0316
411.00,0.0308
410.00,0.0313
409.00,0.0318
408.00,0.0308
407.00,0.0295
406.00,0.0293
405.00,0.0292
404.00,0.0281
403.00,0.0273
402.00,0.0284
401.00,0.0298
400.00,0.0295
