Created as New Dataset,Sample 475 By YargerLab Date Saturday, March 01 2025
cm-1,A
4000.00,-0.0074
3999.00,-0.0074
3998.00,-0.0073
3997.00,-0.0073
3996.00,-0.0074
3995.00,-0.0074
3994.00,-0.0074
3993.00,-0.0075
3992.00,-0.0075
3991.00,-0.0075
3990.00,-0.0075
3989.00,-0.0074
3988.00,-0.0074
3987.00,-0.0075
3986.00,-0.0075
3985.00,-0.0075
3984.00,-0.0075
3983.00,-0.0074
3982.00,-0.0074
3981.00,-0.0074
3980.00,-0.0074
3979.00,-0.0074
3978.00,-0.0074
3977.00,-0.0074
3976.00,-0.0074
3975.00,-0.0074
3974.00,-0.0074
3973.00,-0.0075
3972.00,-0.0075
3971.00,-0.0075
3970.00,-0.0075
3969.00,-0.0075
3968.00,-0.0075
3967.00,-0.0075
3966.00,-0.0075
3965.00,-0.0075
3964.00,-0.0075
3963.00,-0.0075
3962.00,-0.0076
3961.00,-0.0076
3960.00,-0.0076
3959.00,-0.0076
3958.00,-0.0075
3957.00,-0.0075
3956.00,-0.0075
3955.00,-0.0075
3954.00,-0.0075
3953.00,-0.0075
3952.00,-0.0075
3951.00,-0.0075
3950.00,-0.0075
3949.00,-0.0075
3948.00,-0.0075
3947.00,-0.0075
3946.00,-0.0075
3945.00,-0.0075
3944.00,-0.0076
3943.00,-0.0076
3942.00,-0.0076
3941.00,-0.0076
3940.00,-0.0076
3939.00,-0.0076
3938.00,-0.0076
3937.00,-0.0076
3936.00,-0.0076
3935.00,-0.0077
3934.00,-0.0076
3933.00,-0.0076
3932.00,-0.0076
3931.00,-0.0076
3930.00,-0.0076
3929.00,-0.0076
3928.00,-0.0076
3927.00,-0.0076
3926.00,-0.0076
3925.00,-0.0076
3924.00,-0.0076
3923.00,-0.0076
3922.00,-0.0076
3921.00,-0.0076
3920.00,-0.0076
3919.00,-0.0077
3918.00,-0.0077
3917.00,-0.0077
3916.00,-0.0077
3915.00,-0.0077
3914.00,-0.0077
3913.00,-0.0077
3912.00,-0.0077
3911.00,-0.0078
3910.00,-0.0078
3909.00,-0.0078
3908.00,-0.0078
3907.00,-0.0078
3906.00,-0.0079
3905.00,-0.0079
3904.00,-0.0079
3903.00,-0.0079
3902.00,-0.0079
3901.00,-0.0079
3900.00,-0.0079
3899.00,-0.0079
3898.00,-0.0078
3897.00,-0.0079
3896.00,-0.0079
3895.00,-0.0079
3894.00,-0.0079
3893.00,-0.0079
3892.00,-0.0079
3891.00,-0.0080
3890.00,-0.0079
3889.00,-0.0079
3888.00,-0.0079
3887.00,-0.0079
3886.00,-0.0079
3885.00,-0.0079
3884.00,-0.0080
3883.00,-0.0080
3882.00,-0.0080
3881.00,-0.0080
3880.00,-0.0079
3879.00,-0.0079
3878.00,-0.0079
3877.00,-0.0079
3876.00,-0.0079
3875.00,-0.0079
3874.00,-0.0080
3873.00,-0.0080
3872.00,-0.0080
3871.00,-0.0080
3870.00,-0.0080
3869.00,-0.0080
3868.00,-0.0080
3867.00,-0.0080
3866.00,-0.0080
3865.00,-0.0080
3864.00,-0.0080
3863.00,-0.0080
3862.00,-0.0080
3861.00,-0.0081
3860.00,-0.0081
3859.00,-0.0082
3858.00,-0.0082
3857.00,-0.0082
3856.00,-0.0081
3855.00,-0.0081
3854.00,-0.0081
3853.00,-0.0081
3852.00,-0.0081
3851.00,-0.0081
3850.00,-0.0082
3849.00,-0.0082
3848.00,-0.0082
3847.00,-0.0082
3846.00,-0.0082
3845.00,-0.0082
3844.00,-0.0082
3843.00,-0.0082
3842.00,-0.0082
3841.00,-0.0082
3840.00,-0.0082
3839.00,-0.0082
3838.00,-0.0082
3837.00,-0.0082
3836.00,-0.0082
3835.00,-0.0082
3834.00,-0.0082
3833.00,-0.0082
3832.00,-0.0082
3831.00,-0.0082
3830.00,-0.0082
3829.00,-0.0082
3828.00,-0.0082
3827.00,-0.0082
3826.00,-0.0082
3825.00,-0.0082
3824.00,-0.0082
3823.00,-0.0083
3822.00,-0.0083
3821.00,-0.0083
3820.00,-0.0083
3819.00,-0.0083
3818.00,-0.0083
3817.00,-0.0083
3816.00,-0.0083
3815.00,-0.0083
3814.00,-0.0083
3813.00,-0.0083
3812.00,-0.0083
3811.00,-0.0084
3810.00,-0.0084
3809.00,-0.0084
3808.00,-0.0084
3807.00,-0.0084
3806.00,-0.0084
3805.00,-0.0084
3804.00,-0.0084
3803.00,-0.0085
3802.00,-0.0085
3801.00,-0.0085
3800.00,-0.0084
3799.00,-0.0084
3798.00,-0.0084
3797.00,-0.0084
3796.00,-0.0084
3795.00,-0.0084
3794.00,-0.0084
3793.00,-0.0085
3792.00,-0.0085
3791.00,-0.0085
3790.00,-0.0085
3789.00,-0.0085
3788.00,-0.0084
3787.00,-0.0084
3786.00,-0.0084
3785.00,-0.0084
3784.00,-0.0084
3783.00,-0.0084
3782.00,-0.0084
3781.00,-0.0084
3780.00,-0.0085
3779.00,-0.0085
3778.00,-0.0085
3777.00,-0.0085
3776.00,-0.0085
3775.00,-0.0085
3774.00,-0.0085
3773.00,-0.0085
3772.00,-0.0085
3771.00,-0.0085
3770.00,-0.0085
3769.00,-0.0085
3768.00,-0.0085
3767.00,-0.0085
3766.00,-0.0085
3765.00,-0.0085
3764.00,-0.0085
3763.00,-0.0085
3762.00,-0.0085
3761.00,-0.0085
3760.00,-0.0086
3759.00,-0.0086
3758.00,-0.0086
3757.00,-0.0086
3756.00,-0.0086
3755.00,-0.0086
3754.00,-0.0086
3753.00,-0.0086
3752.00,-0.0086
3751.00,-0.0086
3750.00,-0.0086
3749.00,-0.0087
3748.00,-0.0087
3747.00,-0.0087
3746.00,-0.0087
3745.00,-0.0087
3744.00,-0.0086
3743.00,-0.0086
3742.00,-0.0086
3741.00,-0.0086
3740.00,-0.0086
3739.00,-0.0087
3738.00,-0.0087
3737.00,-0.0087
3736.00,-0.0087
3735.00,-0.0087
3734.00,-0.0087
3733.00,-0.0087
3732.00,-0.0087
3731.00,-0.0087
3730.00,-0.0087
3729.00,-0.0087
3728.00,-0.0087
3727.00,-0.0087
3726.00,-0.0087
3725.00,-0.0088
3724.00,-0.0088
3723.00,-0.0088
3722.00,-0.0088
3721.00,-0.0088
3720.00,-0.0088
3719.00,-0.0088
3718.00,-0.0088
3717.00,-0.0088
3716.00,-0.0088
3715.00,-0.0089
3714.00,-0.0089
3713.00,-0.0089
3712.00,-0.0089
3711.00,-0.0088
3710.00,-0.0088
3709.00,-0.0087
3708.00,-0.0087
3707.00,-0.0087
3706.00,-0.0087
3705.00,-0.0087
3704.00,-0.0088
3703.00,-0.0088
3702.00,-0.0088
3701.00,-0.0088
3700.00,-0.0088
3699.00,-0.0089
3698.00,-0.0089
3697.00,-0.0089
3696.00,-0.0089
3695.00,-0.0089
3694.00,-0.0089
3693.00,-0.0089
3692.00,-0.0089
3691.00,-0.0089
3690.00,-0.0089
3689.00,-0.0090
3688.00,-0.0090
3687.00,-0.0090
3686.00,-0.0091
3685.00,-0.0091
3684.00,-0.0092
3683.00,-0.0092
3682.00,-0.0092
3681.00,-0.0093
3680.00,-0.0093
3679.00,-0.0094
3678.00,-0.0094
3677.00,-0.0095
3676.00,-0.0095
3675.00,-0.0096
3674.00,-0.0096
3673.00,-0.0096
3672.00,-0.0097
3671.00,-0.0097
3670.00,-0.0097
3669.00,-0.0096
3668.00,-0.0096
3667.00,-0.0096
3666.00,-0.0096
3665.00,-0.0096
3664.00,-0.0096
3663.00,-0.0096
3662.00,-0.0096
3661.00,-0.0096
3660.00,-0.0096
3659.00,-0.0096
3658.00,-0.0096
3657.00,-0.0097
3656.00,-0.0096
3655.00,-0.0096
3654.00,-0.0096
3653.00,-0.0095
3652.00,-0.0095
3651.00,-0.0095
3650.00,-0.0095
3649.00,-0.0095
3648.00,-0.0094
3647.00,-0.0094
3646.00,-0.0093
3645.00,-0.0093
3644.00,-0.0092
3643.00,-0.0092
3642.00,-0.0091
3641.00,-0.0090
3640.00,-0.0089
3639.00,-0.0089
3638.00,-0.0089
3637.00,-0.0089
3636.00,-0.0089
3635.00,-0.0088
3634.00,-0.0087
3633.00,-0.0086
3632.00,-0.0085
3631.00,-0.0084
3630.00,-0.0084
3629.00,-0.0083
3628.00,-0.0083
3627.00,-0.0082
3626.00,-0.0082
3625.00,-0.0082
3624.00,-0.0082
3623.00,-0.0082
3622.00,-0.0081
3621.00,-0.0081
3620.00,-0.0080
3619.00,-0.0080
3618.00,-0.0080
3617.00,-0.0080
3616.00,-0.0080
3615.00,-0.0079
3614.00,-0.0079
3613.00,-0.0079
3612.00,-0.0078
3611.00,-0.0078
3610.00,-0.0078
3609.00,-0.0078
3608.00,-0.0077
3607.00,-0.0077
3606.00,-0.0076
3605.00,-0.0076
3604.00,-0.0076
3603.00,-0.0076
3602.00,-0.0075
3601.00,-0.0075
3600.00,-0.0074
3599.00,-0.0074
3598.00,-0.0074
3597.00,-0.0073
3596.00,-0.0073
3595.00,-0.0072
3594.00,-0.0072
3593.00,-0.0072
3592.00,-0.0072
3591.00,-0.0072
3590.00,-0.0071
3589.00,-0.0071
3588.00,-0.0070
3587.00,-0.0070
3586.00,-0.0069
3585.00,-0.0069
3584.00,-0.0070
3583.00,-0.0070
3582.00,-0.0069
3581.00,-0.0069
3580.00,-0.0069
3579.00,-0.0069
3578.00,-0.0069
3577.00,-0.0068
3576.00,-0.0068
3575.00,-0.0067
3574.00,-0.0067
3573.00,-0.0066
3572.00,-0.0066
3571.00,-0.0066
3570.00,-0.0066
3569.00,-0.0066
3568.00,-0.0065
3567.00,-0.0065
3566.00,-0.0064
3565.00,-0.0064
3564.00,-0.0063
3563.00,-0.0063
3562.00,-0.0063
3561.00,-0.0062
3560.00,-0.0062
3559.00,-0.0062
3558.00,-0.0062
3557.00,-0.0062
3556.00,-0.0061
3555.00,-0.0061
3554.00,-0.0061
3553.00,-0.0060
3552.00,-0.0060
3551.00,-0.0059
3550.00,-0.0059
3549.00,-0.0058
3548.00,-0.0058
3547.00,-0.0057
3546.00,-0.0057
3545.00,-0.0057
3544.00,-0.0056
3543.00,-0.0056
3542.00,-0.0056
3541.00,-0.0056
3540.00,-0.0056
3539.00,-0.0056
3538.00,-0.0055
3537.00,-0.0055
3536.00,-0.0054
3535.00,-0.0054
3534.00,-0.0054
3533.00,-0.0054
3532.00,-0.0054
3531.00,-0.0053
3530.00,-0.0053
3529.00,-0.0053
3528.00,-0.0052
3527.00,-0.0052
3526.00,-0.0051
3525.00,-0.0051
3524.00,-0.0050
3523.00,-0.0050
3522.00,-0.0050
3521.00,-0.0049
3520.00,-0.0049
3519.00,-0.0049
3518.00,-0.0048
3517.00,-0.0048
3516.00,-0.0047
3515.00,-0.0047
3514.00,-0.0046
3513.00,-0.0046
3512.00,-0.0045
3511.00,-0.0045
3510.00,-0.0045
3509.00,-0.0044
3508.00,-0.0044
3507.00,-0.0043
3506.00,-0.0043
3505.00,-0.0043
3504.00,-0.0043
3503.00,-0.0042
3502.00,-0.0042
3501.00,-0.0041
3500.00,-0.0041
3499.00,-0.0040
3498.00,-0.0040
3497.00,-0.0040
3496.00,-0.0039
3495.00,-0.0039
3494.00,-0.0038
3493.00,-0.0037
3492.00,-0.0037
3491.00,-0.0036
3490.00,-0.0036
3489.00,-0.0035
3488.00,-0.0034
3487.00,-0.0034
3486.00,-0.0033
3485.00,-0.0033
3484.00,-0.0032
3483.00,-0.0032
3482.00,-0.0031
3481.00,-0.0031
3480.00,-0.0030
3479.00,-0.0029
3478.00,-0.0029
3477.00,-0.0029
3476.00,-0.0028
3475.00,-0.0028
3474.00,-0.0027
3473.00,-0.0027
3472.00,-0.0026
3471.00,-0.0026
3470.00,-0.0025
3469.00,-0.0025
3468.00,-0.0024
3467.00,-0.0024
3466.00,-0.0023
3465.00,-0.0023
3464.00,-0.0022
3463.00,-0.0021
3462.00,-0.0021
3461.00,-0.0021
3460.00,-0.0020
3459.00,-0.0020
3458.00,-0.0020
3457.00,-0.0019
3456.00,-0.0019
3455.00,-0.0018
3454.00,-0.0017
3453.00,-0.0017
3452.00,-0.0016
3451.00,-0.0016
3450.00,-0.0015
3449.00,-0.0014
3448.00,-0.0014
3447.00,-0.0013
3446.00,-0.0012
3445.00,-0.0012
3444.00,-0.0012
3443.00,-0.0011
3442.00,-0.0011
3441.00,-0.0011
3440.00,-0.0010
3439.00,-0.0008
3438.00,-0.0007
3437.00,-0.0006
3436.00,-0.0005
3435.00,-0.0004
3434.00,-0.0004
3433.00,-0.0003
3432.00,-0.0003
3431.00,-0.0002
3430.00,-0.0002
3429.00,-0.0001
3428.00,-0.0001
3427.00,0.0000
3426.00,0.0001
3425.00,0.0002
3424.00,0.0003
3423.00,0.0004
3422.00,0.0004
3421.00,0.0005
3420.00,0.0006
3419.00,0.0007
3418.00,0.0008
3417.00,0.0008
3416.00,0.0009
3415.00,0.0010
3414.00,0.0010
3413.00,0.0011
3412.00,0.0011
3411.00,0.0012
3410.00,0.0013
3409.00,0.0014
3408.00,0.0015
3407.00,0.0016
3406.00,0.0016
3405.00,0.0017
3404.00,0.0018
3403.00,0.0018
3402.00,0.0019
3401.00,0.0020
3400.00,0.0021
3399.00,0.0021
3398.00,0.0022
3397.00,0.0023
3396.00,0.0024
3395.00,0.0024
3394.00,0.0025
3393.00,0.0026
3392.00,0.0027
3391.00,0.0028
3390.00,0.0029
3389.00,0.0030
3388.00,0.0031
3387.00,0.0031
3386.00,0.0032
3385.00,0.0032
3384.00,0.0033
3383.00,0.0034
3382.00,0.0035
3381.00,0.0036
3380.00,0.0037
3379.00,0.0038
3378.00,0.0039
3377.00,0.0041
3376.00,0.0042
3375.00,0.0043
3374.00,0.0044
3373.00,0.0045
3372.00,0.0046
3371.00,0.0047
3370.00,0.0048
3369.00,0.0050
3368.00,0.0051
3367.00,0.0052
3366.00,0.0054
3365.00,0.0055
3364.00,0.0057
3363.00,0.0058
3362.00,0.0060
3361.00,0.0061
3360.00,0.0062
3359.00,0.0063
3358.00,0.0064
3357.00,0.0066
3356.00,0.0068
3355.00,0.0069
3354.00,0.0071
3353.00,0.0072
3352.00,0.0074
3351.00,0.0076
3350.00,0.0077
3349.00,0.0079
3348.00,0.0081
3347.00,0.0083
3346.00,0.0085
3345.00,0.0087
3344.00,0.0089
3343.00,0.0091
3342.00,0.0093
3341.00,0.0094
3340.00,0.0096
3339.00,0.0098
3338.00,0.0100
3337.00,0.0103
3336.00,0.0105
3335.00,0.0107
3334.00,0.0109
3333.00,0.0111
3332.00,0.0113
3331.00,0.0116
3330.00,0.0118
3329.00,0.0121
3328.00,0.0123
3327.00,0.0126
3326.00,0.0128
3325.00,0.0131
3324.00,0.0133
3323.00,0.0136
3322.00,0.0139
3321.00,0.0142
3320.00,0.0144
3319.00,0.0147
3318.00,0.0149
3317.00,0.0152
3316.00,0.0155
3315.00,0.0158
3314.00,0.0161
3313.00,0.0165
3312.00,0.0168
3311.00,0.0171
3310.00,0.0174
3309.00,0.0177
3308.00,0.0180
3307.00,0.0183
3306.00,0.0186
3305.00,0.0190
3304.00,0.0193
3303.00,0.0197
3302.00,0.0200
3301.00,0.0204
3300.00,0.0207
3299.00,0.0210
3298.00,0.0214
3297.00,0.0217
3296.00,0.0220
3295.00,0.0223
3294.00,0.0227
3293.00,0.0230
3292.00,0.0232
3291.00,0.0235
3290.00,0.0238
3289.00,0.0240
3288.00,0.0242
3287.00,0.0245
3286.00,0.0248
3285.00,0.0250
3284.00,0.0253
3283.00,0.0255
3282.00,0.0257
3281.00,0.0259
3280.00,0.0260
3279.00,0.0261
3278.00,0.0262
3277.00,0.0263
3276.00,0.0264
3275.00,0.0264
3274.00,0.0265
3273.00,0.0264
3272.00,0.0264
3271.00,0.0264
3270.00,0.0263
3269.00,0.0262
3268.00,0.0261
3267.00,0.0259
3266.00,0.0257
3265.00,0.0255
3264.00,0.0253
3263.00,0.0251
3262.00,0.0248
3261.00,0.0246
3260.00,0.0244
3259.00,0.0242
3258.00,0.0240
3257.00,0.0237
3256.00,0.0234
3255.00,0.0232
3254.00,0.0228
3253.00,0.0225
3252.00,0.0222
3251.00,0.0220
3250.00,0.0217
3249.00,0.0215
3248.00,0.0212
3247.00,0.0210
3246.00,0.0208
3245.00,0.0205
3244.00,0.0203
3243.00,0.0200
3242.00,0.0197
3241.00,0.0195
3240.00,0.0193
3239.00,0.0191
3238.00,0.0190
3237.00,0.0188
3236.00,0.0186
3235.00,0.0184
3234.00,0.0182
3233.00,0.0180
3232.00,0.0178
3231.00,0.0176
3230.00,0.0174
3229.00,0.0172
3228.00,0.0170
3227.00,0.0168
3226.00,0.0166
3225.00,0.0165
3224.00,0.0164
3223.00,0.0162
3222.00,0.0161
3221.00,0.0159
3220.00,0.0158
3219.00,0.0156
3218.00,0.0154
3217.00,0.0152
3216.00,0.0151
3215.00,0.0150
3214.00,0.0149
3213.00,0.0148
3212.00,0.0148
3211.00,0.0147
3210.00,0.0145
3209.00,0.0144
3208.00,0.0142
3207.00,0.0140
3206.00,0.0138
3205.00,0.0137
3204.00,0.0136
3203.00,0.0135
3202.00,0.0134
3201.00,0.0133
3200.00,0.0131
3199.00,0.0130
3198.00,0.0129
3197.00,0.0128
3196.00,0.0127
3195.00,0.0126
3194.00,0.0125
3193.00,0.0123
3192.00,0.0122
3191.00,0.0120
3190.00,0.0119
3189.00,0.0118
3188.00,0.0117
3187.00,0.0115
3186.00,0.0114
3185.00,0.0113
3184.00,0.0111
3183.00,0.0109
3182.00,0.0107
3181.00,0.0106
3180.00,0.0104
3179.00,0.0103
3178.00,0.0102
3177.00,0.0100
3176.00,0.0099
3175.00,0.0097
3174.00,0.0096
3173.00,0.0094
3172.00,0.0093
3171.00,0.0092
3170.00,0.0090
3169.00,0.0089
3168.00,0.0088
3167.00,0.0086
3166.00,0.0085
3165.00,0.0083
3164.00,0.0082
3163.00,0.0081
3162.00,0.0079
3161.00,0.0078
3160.00,0.0076
3159.00,0.0075
3158.00,0.0074
3157.00,0.0072
3156.00,0.0071
3155.00,0.0070
3154.00,0.0068
3153.00,0.0067
3152.00,0.0066
3151.00,0.0065
3150.00,0.0064
3149.00,0.0062
3148.00,0.0061
3147.00,0.0060
3146.00,0.0059
3145.00,0.0058
3144.00,0.0057
3143.00,0.0056
3142.00,0.0055
3141.00,0.0054
3140.00,0.0053
3139.00,0.0053
3138.00,0.0052
3137.00,0.0051
3136.00,0.0050
3135.00,0.0049
3134.00,0.0048
3133.00,0.0047
3132.00,0.0046
3131.00,0.0046
3130.00,0.0046
3129.00,0.0045
3128.00,0.0044
3127.00,0.0043
3126.00,0.0042
3125.00,0.0042
3124.00,0.0041
3123.00,0.0041
3122.00,0.0040
3121.00,0.0039
3120.00,0.0039
3119.00,0.0038
3118.00,0.0037
3117.00,0.0037
3116.00,0.0037
3115.00,0.0037
3114.00,0.0037
3113.00,0.0037
3112.00,0.0036
3111.00,0.0036
3110.00,0.0036
3109.00,0.0036
3108.00,0.0036
3107.00,0.0037
3106.00,0.0037
3105.00,0.0037
3104.00,0.0037
3103.00,0.0037
3102.00,0.0037
3101.00,0.0037
3100.00,0.0037
3099.00,0.0036
3098.00,0.0037
3097.00,0.0037
3096.00,0.0037
3095.00,0.0037
3094.00,0.0037
3093.00,0.0037
3092.00,0.0038
3091.00,0.0038
3090.00,0.0039
3089.00,0.0039
3088.00,0.0040
3087.00,0.0040
3086.00,0.0040
3085.00,0.0040
3084.00,0.0040
3083.00,0.0040
3082.00,0.0040
3081.00,0.0040
3080.00,0.0040
3079.00,0.0041
3078.00,0.0041
3077.00,0.0042
3076.00,0.0042
3075.00,0.0043
3074.00,0.0043
3073.00,0.0043
3072.00,0.0042
3071.00,0.0042
3070.00,0.0042
3069.00,0.0042
3068.00,0.0042
3067.00,0.0042
3066.00,0.0042
3065.00,0.0042
3064.00,0.0043
3063.00,0.0043
3062.00,0.0042
3061.00,0.0042
3060.00,0.0042
3059.00,0.0041
3058.00,0.0040
3057.00,0.0040
3056.00,0.0039
3055.00,0.0038
3054.00,0.0037
3053.00,0.0036
3052.00,0.0036
3051.00,0.0035
3050.00,0.0034
3049.00,0.0032
3048.00,0.0030
3047.00,0.0029
3046.00,0.0027
3045.00,0.0026
3044.00,0.0025
3043.00,0.0024
3042.00,0.0023
3041.00,0.0022
3040.00,0.0021
3039.00,0.0020
3038.00,0.0019
3037.00,0.0017
3036.00,0.0016
3035.00,0.0015
3034.00,0.0014
3033.00,0.0013
3032.00,0.0012
3031.00,0.0011
3030.00,0.0010
3029.00,0.0009
3028.00,0.0008
3027.00,0.0006
3026.00,0.0005
3025.00,0.0004
3024.00,0.0003
3023.00,0.0001
3022.00,0.0000
3021.00,-0.0002
3020.00,-0.0003
3019.00,-0.0005
3018.00,-0.0007
3017.00,-0.0008
3016.00,-0.0009
3015.00,-0.0010
3014.00,-0.0012
3013.00,-0.0013
3012.00,-0.0014
3011.00,-0.0016
3010.00,-0.0017
3009.00,-0.0019
3008.00,-0.0022
3007.00,-0.0025
3006.00,-0.0028
3005.00,-0.0031
3004.00,-0.0034
3003.00,-0.0037
3002.00,-0.0040
3001.00,-0.0043
3000.00,-0.0046
2999.00,-0.0048
2998.00,-0.0050
2997.00,-0.0052
2996.00,-0.0054
2995.00,-0.0055
2994.00,-0.0056
2993.00,-0.0057
2992.00,-0.0057
2991.00,-0.0058
2990.00,-0.0058
2989.00,-0.0058
2988.00,-0.0058
2987.00,-0.0059
2986.00,-0.0062
2985.00,-0.0067
2984.00,-0.0073
2983.00,-0.0080
2982.00,-0.0084
2981.00,-0.0084
2980.00,-0.0081
2979.00,-0.0075
2978.00,-0.0068
2977.00,-0.0062
2976.00,-0.0057
2975.00,-0.0053
2974.00,-0.0051
2973.00,-0.0049
2972.00,-0.0047
2971.00,-0.0043
2970.00,-0.0037
2969.00,-0.0031
2968.00,-0.0024
2967.00,-0.0019
2966.00,-0.0014
2965.00,-0.0009
2964.00,-0.0005
2963.00,-0.0001
2962.00,0.0003
2961.00,0.0006
2960.00,0.0009
2959.00,0.0011
2958.00,0.0013
2957.00,0.0014
2956.00,0.0016
2955.00,0.0016
2954.00,0.0017
2953.00,0.0017
2952.00,0.0017
2951.00,0.0017
2950.00,0.0017
2949.00,0.0017
2948.00,0.0018
2947.00,0.0019
2946.00,0.0021
2945.00,0.0024
2944.00,0.0027
2943.00,0.0030
2942.00,0.0034
2941.00,0.0039
2940.00,0.0044
2939.00,0.0049
2938.00,0.0054
2937.00,0.0059
2936.00,0.0065
2935.00,0.0070
2934.00,0.0075
2933.00,0.0081
2932.00,0.0086
2931.00,0.0091
2930.00,0.0096
2929.00,0.0101
2928.00,0.0106
2927.00,0.0110
2926.00,0.0114
2925.00,0.0117
2924.00,0.0119
2923.00,0.0120
2922.00,0.0119
2921.00,0.0118
2920.00,0.0115
2919.00,0.0111
2918.00,0.0106
2917.00,0.0100
2916.00,0.0094
2915.00,0.0087
2914.00,0.0080
2913.00,0.0073
2912.00,0.0067
2911.00,0.0061
2910.00,0.0055
2909.00,0.0050
2908.00,0.0046
2907.00,0.0042
2906.00,0.0039
2905.00,0.0035
2904.00,0.0032
2903.00,0.0029
2902.00,0.0027
2901.00,0.0024
2900.00,0.0022
2899.00,0.0020
2898.00,0.0017
2897.00,0.0015
2896.00,0.0013
2895.00,0.0010
2894.00,0.0007
2893.00,0.0005
2892.00,0.0002
2891.00,0.0000
2890.00,-0.0001
2889.00,-0.0003
2888.00,-0.0003
2887.00,-0.0004
2886.00,-0.0005
2885.00,-0.0005
2884.00,-0.0005
2883.00,-0.0005
2882.00,-0.0004
2881.00,-0.0002
2880.00,-0.0000
2879.00,0.0002
2878.00,0.0004
2877.00,0.0005
2876.00,0.0007
2875.00,0.0008
2874.00,0.0009
2873.00,0.0010
2872.00,0.0010
2871.00,0.0010
2870.00,0.0010
2869.00,0.0010
2868.00,0.0010
2867.00,0.0009
2866.00,0.0009
2865.00,0.0010
2864.00,0.0011
2863.00,0.0013
2862.00,0.0016
2861.00,0.0019
2860.00,0.0022
2859.00,0.0026
2858.00,0.0030
2857.00,0.0034
2856.00,0.0038
2855.00,0.0041
2854.00,0.0044
2853.00,0.0045
2852.00,0.0045
2851.00,0.0043
2850.00,0.0040
2849.00,0.0035
2848.00,0.0029
2847.00,0.0023
2846.00,0.0016
2845.00,0.0010
2844.00,0.0004
2843.00,-0.0001
2842.00,-0.0005
2841.00,-0.0009
2840.00,-0.0012
2839.00,-0.0015
2838.00,-0.0018
2837.00,-0.0021
2836.00,-0.0023
2835.00,-0.0025
2834.00,-0.0026
2833.00,-0.0027
2832.00,-0.0028
2831.00,-0.0029
2830.00,-0.0030
2829.00,-0.0031
2828.00,-0.0032
2827.00,-0.0033
2826.00,-0.0034
2825.00,-0.0034
2824.00,-0.0034
2823.00,-0.0035
2822.00,-0.0035
2821.00,-0.0036
2820.00,-0.0037
2819.00,-0.0038
2818.00,-0.0039
2817.00,-0.0039
2816.00,-0.0040
2815.00,-0.0041
2814.00,-0.0041
2813.00,-0.0042
2812.00,-0.0042
2811.00,-0.0042
2810.00,-0.0042
2809.00,-0.0043
2808.00,-0.0043
2807.00,-0.0044
2806.00,-0.0044
2805.00,-0.0044
2804.00,-0.0045
2803.00,-0.0045
2802.00,-0.0046
2801.00,-0.0047
2800.00,-0.0047
2799.00,-0.0048
2798.00,-0.0048
2797.00,-0.0049
2796.00,-0.0049
2795.00,-0.0049
2794.00,-0.0050
2793.00,-0.0050
2792.00,-0.0050
2791.00,-0.0050
2790.00,-0.0050
2789.00,-0.0051
2788.00,-0.0051
2787.00,-0.0052
2786.00,-0.0052
2785.00,-0.0053
2784.00,-0.0053
2783.00,-0.0053
2782.00,-0.0053
2781.00,-0.0053
2780.00,-0.0054
2779.00,-0.0054
2778.00,-0.0055
2777.00,-0.0055
2776.00,-0.0055
2775.00,-0.0056
2774.00,-0.0056
2773.00,-0.0057
2772.00,-0.0057
2771.00,-0.0058
2770.00,-0.0058
2769.00,-0.0058
2768.00,-0.0058
2767.00,-0.0059
2766.00,-0.0059
2765.00,-0.0060
2764.00,-0.0061
2763.00,-0.0061
2762.00,-0.0061
2761.00,-0.0061
2760.00,-0.0061
2759.00,-0.0062
2758.00,-0.0062
2757.00,-0.0062
2756.00,-0.0063
2755.00,-0.0063
2754.00,-0.0064
2753.00,-0.0064
2752.00,-0.0064
2751.00,-0.0064
2750.00,-0.0064
2749.00,-0.0065
2748.00,-0.0065
2747.00,-0.0066
2746.00,-0.0066
2745.00,-0.0067
2744.00,-0.0067
2743.00,-0.0068
2742.00,-0.0068
2741.00,-0.0068
2740.00,-0.0069
2739.00,-0.0069
2738.00,-0.0069
2737.00,-0.0070
2736.00,-0.0070
2735.00,-0.0070
2734.00,-0.0070
2733.00,-0.0071
2732.00,-0.0071
2731.00,-0.0072
2730.00,-0.0072
2729.00,-0.0072
2728.00,-0.0073
2727.00,-0.0073
2726.00,-0.0074
2725.00,-0.0074
2724.00,-0.0075
2723.00,-0.0075
2722.00,-0.0075
2721.00,-0.0076
2720.00,-0.0076
2719.00,-0.0076
2718.00,-0.0076
2717.00,-0.0076
2716.00,-0.0076
2715.00,-0.0077
2714.00,-0.0077
2713.00,-0.0077
2712.00,-0.0078
2711.00,-0.0078
2710.00,-0.0078
2709.00,-0.0078
2708.00,-0.0078
2707.00,-0.0079
2706.00,-0.0079
2705.00,-0.0080
2704.00,-0.0080
2703.00,-0.0081
2702.00,-0.0081
2701.00,-0.0081
2700.00,-0.0082
2699.00,-0.0082
2698.00,-0.0082
2697.00,-0.0082
2696.00,-0.0082
2695.00,-0.0082
2694.00,-0.0082
2693.00,-0.0083
2692.00,-0.0083
2691.00,-0.0084
2690.00,-0.0084
2689.00,-0.0085
2688.00,-0.0085
2687.00,-0.0085
2686.00,-0.0085
2685.00,-0.0085
2684.00,-0.0086
2683.00,-0.0086
2682.00,-0.0086
2681.00,-0.0087
2680.00,-0.0087
2679.00,-0.0087
2678.00,-0.0087
2677.00,-0.0087
2676.00,-0.0088
2675.00,-0.0088
2674.00,-0.0088
2673.00,-0.0089
2672.00,-0.0089
2671.00,-0.0089
2670.00,-0.0090
2669.00,-0.0090
2668.00,-0.0090
2667.00,-0.0091
2666.00,-0.0091
2665.00,-0.0091
2664.00,-0.0092
2663.00,-0.0092
2662.00,-0.0092
2661.00,-0.0092
2660.00,-0.0092
2659.00,-0.0092
2658.00,-0.0093
2657.00,-0.0093
2656.00,-0.0093
2655.00,-0.0093
2654.00,-0.0093
2653.00,-0.0094
2652.00,-0.0094
2651.00,-0.0094
2650.00,-0.0095
2649.00,-0.0095
2648.00,-0.0095
2647.00,-0.0095
2646.00,-0.0095
2645.00,-0.0095
2644.00,-0.0095
2643.00,-0.0095
2642.00,-0.0095
2641.00,-0.0095
2640.00,-0.0095
2639.00,-0.0095
2638.00,-0.0095
2637.00,-0.0095
2636.00,-0.0095
2635.00,-0.0096
2634.00,-0.0096
2633.00,-0.0096
2632.00,-0.0096
2631.00,-0.0097
2630.00,-0.0097
2629.00,-0.0097
2628.00,-0.0097
2627.00,-0.0097
2626.00,-0.0097
2625.00,-0.0097
2624.00,-0.0097
2623.00,-0.0097
2622.00,-0.0097
2621.00,-0.0097
2620.00,-0.0097
2619.00,-0.0097
2618.00,-0.0097
2617.00,-0.0096
2616.00,-0.0097
2615.00,-0.0097
2614.00,-0.0097
2613.00,-0.0097
2612.00,-0.0097
2611.00,-0.0098
2610.00,-0.0098
2609.00,-0.0098
2608.00,-0.0098
2607.00,-0.0098
2606.00,-0.0098
2605.00,-0.0098
2604.00,-0.0099
2603.00,-0.0099
2602.00,-0.0099
2601.00,-0.0100
2600.00,-0.0100
2599.00,-0.0100
2598.00,-0.0100
2597.00,-0.0101
2596.00,-0.0101
2595.00,-0.0101
2594.00,-0.0101
2593.00,-0.0100
2592.00,-0.0100
2591.00,-0.0100
2590.00,-0.0100
2589.00,-0.0100
2588.00,-0.0101
2587.00,-0.0101
2586.00,-0.0101
2585.00,-0.0101
2584.00,-0.0101
2583.00,-0.0101
2582.00,-0.0102
2581.00,-0.0102
2580.00,-0.0103
2579.00,-0.0103
2578.00,-0.0103
2577.00,-0.0103
2576.00,-0.0103
2575.00,-0.0103
2574.00,-0.0103
2573.00,-0.0104
2572.00,-0.0104
2571.00,-0.0104
2570.00,-0.0105
2569.00,-0.0105
2568.00,-0.0105
2567.00,-0.0105
2566.00,-0.0105
2565.00,-0.0104
2564.00,-0.0104
2563.00,-0.0105
2562.00,-0.0105
2561.00,-0.0106
2560.00,-0.0106
2559.00,-0.0107
2558.00,-0.0107
2557.00,-0.0107
2556.00,-0.0108
2555.00,-0.0108
2554.00,-0.0109
2553.00,-0.0109
2552.00,-0.0109
2551.00,-0.0109
2550.00,-0.0109
2549.00,-0.0110
2548.00,-0.0110
2547.00,-0.0110
2546.00,-0.0110
2545.00,-0.0110
2544.00,-0.0110
2543.00,-0.0110
2542.00,-0.0111
2541.00,-0.0111
2540.00,-0.0111
2539.00,-0.0110
2538.00,-0.0110
2537.00,-0.0110
2536.00,-0.0111
2535.00,-0.0111
2534.00,-0.0112
2533.00,-0.0112
2532.00,-0.0112
2531.00,-0.0112
2530.00,-0.0112
2529.00,-0.0112
2528.00,-0.0112
2527.00,-0.0113
2526.00,-0.0113
2525.00,-0.0114
2524.00,-0.0114
2523.00,-0.0114
2522.00,-0.0114
2521.00,-0.0113
2520.00,-0.0113
2519.00,-0.0113
2518.00,-0.0113
2517.00,-0.0113
2516.00,-0.0113
2515.00,-0.0113
2514.00,-0.0113
2513.00,-0.0113
2512.00,-0.0114
2511.00,-0.0114
2510.00,-0.0115
2509.00,-0.0116
2508.00,-0.0116
2507.00,-0.0116
2506.00,-0.0116
2505.00,-0.0116
2504.00,-0.0116
2503.00,-0.0116
2502.00,-0.0116
2501.00,-0.0116
2500.00,-0.0116
2499.00,-0.0115
2498.00,-0.0115
2497.00,-0.0116
2496.00,-0.0116
2495.00,-0.0116
2494.00,-0.0117
2493.00,-0.0117
2492.00,-0.0117
2491.00,-0.0117
2490.00,-0.0118
2489.00,-0.0118
2488.00,-0.0119
2487.00,-0.0118
2486.00,-0.0118
2485.00,-0.0117
2484.00,-0.0117
2483.00,-0.0117
2482.00,-0.0118
2481.00,-0.0119
2480.00,-0.0119
2479.00,-0.0120
2478.00,-0.0120
2477.00,-0.0120
2476.00,-0.0120
2475.00,-0.0121
2474.00,-0.0121
2473.00,-0.0122
2472.00,-0.0122
2471.00,-0.0122
2470.00,-0.0121
2469.00,-0.0121
2468.00,-0.0121
2467.00,-0.0121
2466.00,-0.0121
2465.00,-0.0122
2464.00,-0.0122
2463.00,-0.0122
2462.00,-0.0122
2461.00,-0.0123
2460.00,-0.0123
2459.00,-0.0124
2458.00,-0.0124
2457.00,-0.0125
2456.00,-0.0125
2455.00,-0.0125
2454.00,-0.0125
2453.00,-0.0124
2452.00,-0.0124
2451.00,-0.0124
2450.00,-0.0124
2449.00,-0.0125
2448.00,-0.0125
2447.00,-0.0126
2446.00,-0.0126
2445.00,-0.0126
2444.00,-0.0126
2443.00,-0.0126
2442.00,-0.0126
2441.00,-0.0126
2440.00,-0.0126
2439.00,-0.0126
2438.00,-0.0126
2437.00,-0.0127
2436.00,-0.0127
2435.00,-0.0127
2434.00,-0.0127
2433.00,-0.0127
2432.00,-0.0127
2431.00,-0.0127
2430.00,-0.0128
2429.00,-0.0128
2428.00,-0.0128
2427.00,-0.0129
2426.00,-0.0129
2425.00,-0.0129
2424.00,-0.0129
2423.00,-0.0129
2422.00,-0.0129
2421.00,-0.0130
2420.00,-0.0130
2419.00,-0.0131
2418.00,-0.0131
2417.00,-0.0131
2416.00,-0.0131
2415.00,-0.0131
2414.00,-0.0131
2413.00,-0.0131
2412.00,-0.0132
2411.00,-0.0132
2410.00,-0.0131
2409.00,-0.0131
2408.00,-0.0131
2407.00,-0.0131
2406.00,-0.0132
2405.00,-0.0133
2404.00,-0.0133
2403.00,-0.0133
2402.00,-0.0133
2401.00,-0.0133
2400.00,-0.0133
2399.00,-0.0133
2398.00,-0.0133
2397.00,-0.0134
2396.00,-0.0134
2395.00,-0.0135
2394.00,-0.0135
2393.00,-0.0136
2392.00,-0.0136
2391.00,-0.0136
2390.00,-0.0136
2389.00,-0.0137
2388.00,-0.0137
2387.00,-0.0136
2386.00,-0.0136
2385.00,-0.0137
2384.00,-0.0137
2383.00,-0.0137
2382.00,-0.0138
2381.00,-0.0138
2380.00,-0.0138
2379.00,-0.0138
2378.00,-0.0138
2377.00,-0.0138
2376.00,-0.0138
2375.00,-0.0138
2374.00,-0.0139
2373.00,-0.0139
2372.00,-0.0140
2371.00,-0.0140
2370.00,-0.0140
2369.00,-0.0140
2368.00,-0.0140
2367.00,-0.0140
2366.00,-0.0140
2365.00,-0.0140
2364.00,-0.0141
2363.00,-0.0141
2362.00,-0.0142
2361.00,-0.0142
2360.00,-0.0142
2359.00,-0.0141
2358.00,-0.0141
2357.00,-0.0141
2356.00,-0.0141
2355.00,-0.0142
2354.00,-0.0143
2353.00,-0.0143
2352.00,-0.0144
2351.00,-0.0144
2350.00,-0.0144
2349.00,-0.0144
2348.00,-0.0144
2347.00,-0.0144
2346.00,-0.0144
2345.00,-0.0144
2344.00,-0.0144
2343.00,-0.0143
2342.00,-0.0143
2341.00,-0.0143
2340.00,-0.0143
2339.00,-0.0144
2338.00,-0.0144
2337.00,-0.0144
2336.00,-0.0145
2335.00,-0.0145
2334.00,-0.0146
2333.00,-0.0146
2332.00,-0.0146
2331.00,-0.0146
2330.00,-0.0146
2329.00,-0.0146
2328.00,-0.0146
2327.00,-0.0147
2326.00,-0.0148
2325.00,-0.0148
2324.00,-0.0148
2323.00,-0.0147
2322.00,-0.0147
2321.00,-0.0147
2320.00,-0.0146
2319.00,-0.0146
2318.00,-0.0147
2317.00,-0.0147
2316.00,-0.0147
2315.00,-0.0147
2314.00,-0.0148
2313.00,-0.0148
2312.00,-0.0148
2311.00,-0.0148
2310.00,-0.0148
2309.00,-0.0149
2308.00,-0.0149
2307.00,-0.0149
2306.00,-0.0150
2305.00,-0.0150
2304.00,-0.0150
2303.00,-0.0150
2302.00,-0.0149
2301.00,-0.0149
2300.00,-0.0149
2299.00,-0.0149
2298.00,-0.0150
2297.00,-0.0150
2296.00,-0.0151
2295.00,-0.0151
2294.00,-0.0151
2293.00,-0.0152
2292.00,-0.0152
2291.00,-0.0152
2290.00,-0.0152
2289.00,-0.0153
2288.00,-0.0152
2287.00,-0.0152
2286.00,-0.0152
2285.00,-0.0152
2284.00,-0.0152
2283.00,-0.0152
2282.00,-0.0153
2281.00,-0.0153
2280.00,-0.0154
2279.00,-0.0154
2278.00,-0.0153
2277.00,-0.0153
2276.00,-0.0152
2275.00,-0.0151
2274.00,-0.0151
2273.00,-0.0152
2272.00,-0.0152
2271.00,-0.0153
2270.00,-0.0153
2269.00,-0.0153
2268.00,-0.0153
2267.00,-0.0153
2266.00,-0.0153
2265.00,-0.0154
2264.00,-0.0154
2263.00,-0.0154
2262.00,-0.0154
2261.00,-0.0155
2260.00,-0.0155
2259.00,-0.0156
2258.00,-0.0156
2257.00,-0.0156
2256.00,-0.0156
2255.00,-0.0156
2254.00,-0.0156
2253.00,-0.0156
2252.00,-0.0156
2251.00,-0.0156
2250.00,-0.0155
2249.00,-0.0155
2248.00,-0.0155
2247.00,-0.0155
2246.00,-0.0157
2245.00,-0.0158
2244.00,-0.0159
2243.00,-0.0159
2242.00,-0.0158
2241.00,-0.0158
2240.00,-0.0158
2239.00,-0.0159
2238.00,-0.0159
2237.00,-0.0159
2236.00,-0.0159
2235.00,-0.0158
2234.00,-0.0157
2233.00,-0.0157
2232.00,-0.0157
2231.00,-0.0157
2230.00,-0.0157
2229.00,-0.0157
2228.00,-0.0158
2227.00,-0.0158
2226.00,-0.0158
2225.00,-0.0158
2224.00,-0.0158
2223.00,-0.0159
2222.00,-0.0159
2221.00,-0.0160
2220.00,-0.0161
2219.00,-0.0162
2218.00,-0.0164
2217.00,-0.0164
2216.00,-0.0164
2215.00,-0.0165
2214.00,-0.0164
2213.00,-0.0164
2212.00,-0.0162
2211.00,-0.0161
2210.00,-0.0160
2209.00,-0.0160
2208.00,-0.0160
2207.00,-0.0161
2206.00,-0.0163
2205.00,-0.0164
2204.00,-0.0164
2203.00,-0.0164
2202.00,-0.0163
2201.00,-0.0163
2200.00,-0.0164
2199.00,-0.0165
2198.00,-0.0166
2197.00,-0.0166
2196.00,-0.0167
2195.00,-0.0167
2194.00,-0.0166
2193.00,-0.0166
2192.00,-0.0164
2191.00,-0.0164
2190.00,-0.0165
2189.00,-0.0166
2188.00,-0.0168
2187.00,-0.0169
2186.00,-0.0169
2185.00,-0.0168
2184.00,-0.0167
2183.00,-0.0168
2182.00,-0.0169
2181.00,-0.0171
2180.00,-0.0172
2179.00,-0.0172
2178.00,-0.0170
2177.00,-0.0168
2176.00,-0.0166
2175.00,-0.0167
2174.00,-0.0168
2173.00,-0.0169
2172.00,-0.0170
2171.00,-0.0170
2170.00,-0.0170
2169.00,-0.0170
2168.00,-0.0171
2167.00,-0.0173
2166.00,-0.0173
2165.00,-0.0172
2164.00,-0.0170
2163.00,-0.0169
2162.00,-0.0168
2161.00,-0.0169
2160.00,-0.0170
2159.00,-0.0171
2158.00,-0.0171
2157.00,-0.0171
2156.00,-0.0170
2155.00,-0.0171
2154.00,-0.0172
2153.00,-0.0173
2152.00,-0.0174
2151.00,-0.0174
2150.00,-0.0172
2149.00,-0.0170
2148.00,-0.0168
2147.00,-0.0167
2146.00,-0.0168
2145.00,-0.0170
2144.00,-0.0173
2143.00,-0.0174
2142.00,-0.0174
2141.00,-0.0173
2140.00,-0.0172
2139.00,-0.0171
2138.00,-0.0170
2137.00,-0.0170
2136.00,-0.0170
2135.00,-0.0171
2134.00,-0.0172
2133.00,-0.0173
2132.00,-0.0174
2131.00,-0.0176
2130.00,-0.0176
2129.00,-0.0175
2128.00,-0.0174
2127.00,-0.0173
2126.00,-0.0173
2125.00,-0.0174
2124.00,-0.0174
2123.00,-0.0174
2122.00,-0.0173
2121.00,-0.0173
2120.00,-0.0174
2119.00,-0.0175
2118.00,-0.0175
2117.00,-0.0176
2116.00,-0.0176
2115.00,-0.0176
2114.00,-0.0176
2113.00,-0.0176
2112.00,-0.0177
2111.00,-0.0177
2110.00,-0.0177
2109.00,-0.0177
2108.00,-0.0177
2107.00,-0.0178
2106.00,-0.0178
2105.00,-0.0179
2104.00,-0.0178
2103.00,-0.0177
2102.00,-0.0177
2101.00,-0.0177
2100.00,-0.0178
2099.00,-0.0180
2098.00,-0.0181
2097.00,-0.0181
2096.00,-0.0180
2095.00,-0.0180
2094.00,-0.0180
2093.00,-0.0180
2092.00,-0.0181
2091.00,-0.0181
2090.00,-0.0182
2089.00,-0.0182
2088.00,-0.0183
2087.00,-0.0183
2086.00,-0.0183
2085.00,-0.0182
2084.00,-0.0181
2083.00,-0.0181
2082.00,-0.0181
2081.00,-0.0181
2080.00,-0.0181
2079.00,-0.0182
2078.00,-0.0182
2077.00,-0.0182
2076.00,-0.0182
2075.00,-0.0183
2074.00,-0.0183
2073.00,-0.0184
2072.00,-0.0184
2071.00,-0.0184
2070.00,-0.0184
2069.00,-0.0184
2068.00,-0.0184
2067.00,-0.0185
2066.00,-0.0185
2065.00,-0.0186
2064.00,-0.0187
2063.00,-0.0188
2062.00,-0.0189
2061.00,-0.0188
2060.00,-0.0187
2059.00,-0.0186
2058.00,-0.0185
2057.00,-0.0185
2056.00,-0.0186
2055.00,-0.0187
2054.00,-0.0189
2053.00,-0.0191
2052.00,-0.0191
2051.00,-0.0192
2050.00,-0.0192
2049.00,-0.0191
2048.00,-0.0191
2047.00,-0.0190
2046.00,-0.0189
2045.00,-0.0188
2044.00,-0.0186
2043.00,-0.0185
2042.00,-0.0184
2041.00,-0.0185
2040.00,-0.0187
2039.00,-0.0188
2038.00,-0.0189
2037.00,-0.0190
2036.00,-0.0191
2035.00,-0.0192
2034.00,-0.0192
2033.00,-0.0191
2032.00,-0.0191
2031.00,-0.0193
2030.00,-0.0196
2029.00,-0.0198
2028.00,-0.0197
2027.00,-0.0195
2026.00,-0.0193
2025.00,-0.0192
2024.00,-0.0192
2023.00,-0.0191
2022.00,-0.0191
2021.00,-0.0191
2020.00,-0.0192
2019.00,-0.0193
2018.00,-0.0193
2017.00,-0.0193
2016.00,-0.0193
2015.00,-0.0195
2014.00,-0.0195
2013.00,-0.0195
2012.00,-0.0194
2011.00,-0.0193
2010.00,-0.0194
2009.00,-0.0194
2008.00,-0.0194
2007.00,-0.0195
2006.00,-0.0195
2005.00,-0.0195
2004.00,-0.0195
2003.00,-0.0196
2002.00,-0.0197
2001.00,-0.0198
2000.00,-0.0200
1999.00,-0.0201
1998.00,-0.0201
1997.00,-0.0200
1996.00,-0.0199
1995.00,-0.0198
1994.00,-0.0199
1993.00,-0.0200
1992.00,-0.0201
1991.00,-0.0202
1990.00,-0.0203
1989.00,-0.0203
1988.00,-0.0204
1987.00,-0.0206
1986.00,-0.0207
1985.00,-0.0206
1984.00,-0.0205
1983.00,-0.0206
1982.00,-0.0206
1981.00,-0.0205
1980.00,-0.0203
1979.00,-0.0202
1978.00,-0.0202
1977.00,-0.0202
1976.00,-0.0202
1975.00,-0.0202
1974.00,-0.0204
1973.00,-0.0206
1972.00,-0.0208
1971.00,-0.0210
1970.00,-0.0212
1969.00,-0.0211
1968.00,-0.0210
1967.00,-0.0210
1966.00,-0.0210
1965.00,-0.0211
1964.00,-0.0211
1963.00,-0.0209
1962.00,-0.0208
1961.00,-0.0206
1960.00,-0.0206
1959.00,-0.0206
1958.00,-0.0206
1957.00,-0.0206
1956.00,-0.0205
1955.00,-0.0204
1954.00,-0.0204
1953.00,-0.0205
1952.00,-0.0206
1951.00,-0.0207
1950.00,-0.0207
1949.00,-0.0208
1948.00,-0.0208
1947.00,-0.0209
1946.00,-0.0210
1945.00,-0.0210
1944.00,-0.0209
1943.00,-0.0209
1942.00,-0.0209
1941.00,-0.0209
1940.00,-0.0210
1939.00,-0.0211
1938.00,-0.0212
1937.00,-0.0213
1936.00,-0.0214
1935.00,-0.0215
1934.00,-0.0216
1933.00,-0.0217
1932.00,-0.0217
1931.00,-0.0217
1930.00,-0.0218
1929.00,-0.0218
1928.00,-0.0218
1927.00,-0.0218
1926.00,-0.0217
1925.00,-0.0218
1924.00,-0.0219
1923.00,-0.0221
1922.00,-0.0221
1921.00,-0.0221
1920.00,-0.0221
1919.00,-0.0220
1918.00,-0.0220
1917.00,-0.0221
1916.00,-0.0222
1915.00,-0.0223
1914.00,-0.0223
1913.00,-0.0223
1912.00,-0.0223
1911.00,-0.0224
1910.00,-0.0224
1909.00,-0.0224
1908.00,-0.0224
1907.00,-0.0224
1906.00,-0.0225
1905.00,-0.0225
1904.00,-0.0225
1903.00,-0.0225
1902.00,-0.0225
1901.00,-0.0225
1900.00,-0.0225
1899.00,-0.0225
1898.00,-0.0226
1897.00,-0.0227
1896.00,-0.0228
1895.00,-0.0228
1894.00,-0.0229
1893.00,-0.0228
1892.00,-0.0228
1891.00,-0.0228
1890.00,-0.0229
1889.00,-0.0230
1888.00,-0.0231
1887.00,-0.0231
1886.00,-0.0231
1885.00,-0.0232
1884.00,-0.0232
1883.00,-0.0232
1882.00,-0.0232
1881.00,-0.0233
1880.00,-0.0233
1879.00,-0.0234
1878.00,-0.0235
1877.00,-0.0235
1876.00,-0.0236
1875.00,-0.0237
1874.00,-0.0238
1873.00,-0.0238
1872.00,-0.0238
1871.00,-0.0238
1870.00,-0.0237
1869.00,-0.0238
1868.00,-0.0238
1867.00,-0.0240
1866.00,-0.0240
1865.00,-0.0241
1864.00,-0.0241
1863.00,-0.0242
1862.00,-0.0242
1861.00,-0.0243
1860.00,-0.0244
1859.00,-0.0244
1858.00,-0.0245
1857.00,-0.0245
1856.00,-0.0245
1855.00,-0.0245
1854.00,-0.0246
1853.00,-0.0246
1852.00,-0.0247
1851.00,-0.0247
1850.00,-0.0247
1849.00,-0.0248
1848.00,-0.0248
1847.00,-0.0249
1846.00,-0.0250
1845.00,-0.0251
1844.00,-0.0252
1843.00,-0.0253
1842.00,-0.0253
1841.00,-0.0253
1840.00,-0.0252
1839.00,-0.0252
1838.00,-0.0253
1837.00,-0.0253
1836.00,-0.0253
1835.00,-0.0253
1834.00,-0.0254
1833.00,-0.0254
1832.00,-0.0254
1831.00,-0.0254
1830.00,-0.0255
1829.00,-0.0255
1828.00,-0.0256
1827.00,-0.0257
1826.00,-0.0257
1825.00,-0.0258
1824.00,-0.0259
1823.00,-0.0260
1822.00,-0.0260
1821.00,-0.0261
1820.00,-0.0261
1819.00,-0.0261
1818.00,-0.0261
1817.00,-0.0262
1816.00,-0.0263
1815.00,-0.0263
1814.00,-0.0264
1813.00,-0.0264
1812.00,-0.0264
1811.00,-0.0264
1810.00,-0.0265
1809.00,-0.0266
1808.00,-0.0266
1807.00,-0.0266
1806.00,-0.0267
1805.00,-0.0267
1804.00,-0.0268
1803.00,-0.0269
1802.00,-0.0269
1801.00,-0.0269
1800.00,-0.0269
1799.00,-0.0270
1798.00,-0.0271
1797.00,-0.0271
1796.00,-0.0271
1795.00,-0.0271
1794.00,-0.0272
1793.00,-0.0273
1792.00,-0.0273
1791.00,-0.0274
1790.00,-0.0275
1789.00,-0.0275
1788.00,-0.0275
1787.00,-0.0276
1786.00,-0.0277
1785.00,-0.0277
1784.00,-0.0278
1783.00,-0.0278
1782.00,-0.0278
1781.00,-0.0279
1780.00,-0.0279
1779.00,-0.0280
1778.00,-0.0281
1777.00,-0.0281
1776.00,-0.0281
1775.00,-0.0281
1774.00,-0.0282
1773.00,-0.0283
1772.00,-0.0284
1771.00,-0.0285
1770.00,-0.0286
1769.00,-0.0287
1768.00,-0.0287
1767.00,-0.0287
1766.00,-0.0287
1765.00,-0.0286
1764.00,-0.0286
1763.00,-0.0286
1762.00,-0.0287
1761.00,-0.0287
1760.00,-0.0287
1759.00,-0.0286
1758.00,-0.0285
1757.00,-0.0284
1756.00,-0.0282
1755.00,-0.0281
1754.00,-0.0279
1753.00,-0.0278
1752.00,-0.0275
1751.00,-0.0273
1750.00,-0.0270
1749.00,-0.0267
1748.00,-0.0266
1747.00,-0.0265
1746.00,-0.0264
1745.00,-0.0264
1744.00,-0.0264
1743.00,-0.0264
1742.00,-0.0265
1741.00,-0.0266
1740.00,-0.0268
1739.00,-0.0270
1738.00,-0.0273
1737.00,-0.0276
1736.00,-0.0279
1735.00,-0.0283
1734.00,-0.0288
1733.00,-0.0292
1732.00,-0.0293
1731.00,-0.0294
1730.00,-0.0295
1729.00,-0.0297
1728.00,-0.0299
1727.00,-0.0301
1726.00,-0.0303
1725.00,-0.0305
1724.00,-0.0306
1723.00,-0.0307
1722.00,-0.0308
1721.00,-0.0308
1720.00,-0.0308
1719.00,-0.0308
1718.00,-0.0309
1717.00,-0.0309
1716.00,-0.0308
1715.00,-0.0305
1714.00,-0.0302
1713.00,-0.0299
1712.00,-0.0294
1711.00,-0.0289
1710.00,-0.0283
1709.00,-0.0275
1708.00,-0.0266
1707.00,-0.0255
1706.00,-0.0242
1705.00,-0.0227
1704.00,-0.0212
1703.00,-0.0197
1702.00,-0.0179
1701.00,-0.0157
1700.00,-0.0133
1699.00,-0.0114
1698.00,-0.0101
1697.00,-0.0091
1696.00,-0.0082
1695.00,-0.0073
1694.00,-0.0065
1693.00,-0.0057
1692.00,-0.0050
1691.00,-0.0043
1690.00,-0.0035
1689.00,-0.0026
1688.00,-0.0018
1687.00,-0.0011
1686.00,-0.0003
1685.00,0.0010
1684.00,0.0024
1683.00,0.0037
1682.00,0.0049
1681.00,0.0059
1680.00,0.0070
1679.00,0.0081
1678.00,0.0091
1677.00,0.0102
1676.00,0.0114
1675.00,0.0126
1674.00,0.0138
1673.00,0.0147
1672.00,0.0157
1671.00,0.0166
1670.00,0.0177
1669.00,0.0187
1668.00,0.0196
1667.00,0.0204
1666.00,0.0210
1665.00,0.0217
1664.00,0.0224
1663.00,0.0233
1662.00,0.0241
1661.00,0.0247
1660.00,0.0253
1659.00,0.0257
1658.00,0.0260
1657.00,0.0261
1656.00,0.0260
1655.00,0.0259
1654.00,0.0261
1653.00,0.0265
1652.00,0.0268
1651.00,0.0269
1650.00,0.0266
1649.00,0.0262
1648.00,0.0257
1647.00,0.0252
1646.00,0.0246
1645.00,0.0240
1644.00,0.0234
1643.00,0.0227
1642.00,0.0220
1641.00,0.0214
1640.00,0.0209
1639.00,0.0203
1638.00,0.0197
1637.00,0.0194
1636.00,0.0193
1635.00,0.0194
1634.00,0.0194
1633.00,0.0193
1632.00,0.0193
1631.00,0.0194
1630.00,0.0198
1629.00,0.0205
1628.00,0.0214
1627.00,0.0225
1626.00,0.0235
1625.00,0.0247
1624.00,0.0261
1623.00,0.0277
1622.00,0.0292
1621.00,0.0303
1620.00,0.0310
1619.00,0.0314
1618.00,0.0319
1617.00,0.0325
1616.00,0.0330
1615.00,0.0332
1614.00,0.0328
1613.00,0.0321
1612.00,0.0311
1611.00,0.0301
1610.00,0.0290
1609.00,0.0278
1608.00,0.0266
1607.00,0.0254
1606.00,0.0242
1605.00,0.0230
1604.00,0.0218
1603.00,0.0208
1602.00,0.0198
1601.00,0.0189
1600.00,0.0180
1599.00,0.0172
1598.00,0.0164
1597.00,0.0156
1596.00,0.0147
1595.00,0.0139
1594.00,0.0130
1593.00,0.0121
1592.00,0.0112
1591.00,0.0104
1590.00,0.0095
1589.00,0.0087
1588.00,0.0079
1587.00,0.0072
1586.00,0.0066
1585.00,0.0061
1584.00,0.0057
1583.00,0.0053
1582.00,0.0050
1581.00,0.0047
1580.00,0.0045
1579.00,0.0043
1578.00,0.0042
1577.00,0.0043
1576.00,0.0046
1575.00,0.0050
1574.00,0.0054
1573.00,0.0058
1572.00,0.0061
1571.00,0.0066
1570.00,0.0073
1569.00,0.0081
1568.00,0.0088
1567.00,0.0096
1566.00,0.0105
1565.00,0.0116
1564.00,0.0126
1563.00,0.0135
1562.00,0.0142
1561.00,0.0152
1560.00,0.0169
1559.00,0.0192
1558.00,0.0212
1557.00,0.0227
1556.00,0.0239
1555.00,0.0252
1554.00,0.0266
1553.00,0.0281
1552.00,0.0295
1551.00,0.0308
1550.00,0.0322
1549.00,0.0336
1548.00,0.0349
1547.00,0.0360
1546.00,0.0372
1545.00,0.0384
1544.00,0.0396
1543.00,0.0407
1542.00,0.0417
1541.00,0.0429
1540.00,0.0442
1539.00,0.0455
1538.00,0.0465
1537.00,0.0473
1536.00,0.0478
1535.00,0.0485
1534.00,0.0494
1533.00,0.0504
1532.00,0.0512
1531.00,0.0518
1530.00,0.0523
1529.00,0.0528
1528.00,0.0534
1527.00,0.0541
1526.00,0.0549
1525.00,0.0557
1524.00,0.0564
1523.00,0.0573
1522.00,0.0585
1521.00,0.0600
1520.00,0.0613
1519.00,0.0625
1518.00,0.0635
1517.00,0.0645
1516.00,0.0653
1515.00,0.0657
1514.00,0.0658
1513.00,0.0657
1512.00,0.0654
1511.00,0.0649
1510.00,0.0642
1509.00,0.0633
1508.00,0.0624
1507.00,0.0616
1506.00,0.0607
1505.00,0.0596
1504.00,0.0584
1503.00,0.0571
1502.00,0.0555
1501.00,0.0540
1500.00,0.0524
1499.00,0.0507
1498.00,0.0490
1497.00,0.0472
1496.00,0.0454
1495.00,0.0437
1494.00,0.0419
1493.00,0.0399
1492.00,0.0379
1491.00,0.0359
1490.00,0.0339
1489.00,0.0319
1488.00,0.0299
1487.00,0.0280
1486.00,0.0261
1485.00,0.0244
1484.00,0.0228
1483.00,0.0212
1482.00,0.0198
1481.00,0.0184
1480.00,0.0172
1479.00,0.0161
1478.00,0.0151
1477.00,0.0142
1476.00,0.0134
1475.00,0.0127
1474.00,0.0122
1473.00,0.0120
1472.00,0.0120
1471.00,0.0122
1470.00,0.0122
1469.00,0.0122
1468.00,0.0121
1467.00,0.0119
1466.00,0.0115
1465.00,0.0112
1464.00,0.0109
1463.00,0.0107
1462.00,0.0107
1461.00,0.0107
1460.00,0.0107
1459.00,0.0109
1458.00,0.0113
1457.00,0.0121
1456.00,0.0128
1455.00,0.0135
1454.00,0.0138
1453.00,0.0140
1452.00,0.0141
1451.00,0.0141
1450.00,0.0141
1449.00,0.0140
1448.00,0.0140
1447.00,0.0139
1446.00,0.0137
1445.00,0.0133
1444.00,0.0128
1443.00,0.0122
1442.00,0.0116
1441.00,0.0108
1440.00,0.0100
1439.00,0.0091
1438.00,0.0082
1437.00,0.0074
1436.00,0.0066
1435.00,0.0059
1434.00,0.0052
1433.00,0.0045
1432.00,0.0038
1431.00,0.0032
1430.00,0.0027
1429.00,0.0023
1428.00,0.0019
1427.00,0.0017
1426.00,0.0015
1425.00,0.0015
1424.00,0.0015
1423.00,0.0016
1422.00,0.0017
1421.00,0.0018
1420.00,0.0021
1419.00,0.0027
1418.00,0.0033
1417.00,0.0039
1416.00,0.0044
1415.00,0.0049
1414.00,0.0053
1413.00,0.0058
1412.00,0.0062
1411.00,0.0066
1410.00,0.0070
1409.00,0.0074
1408.00,0.0078
1407.00,0.0081
1406.00,0.0084
1405.00,0.0086
1404.00,0.0088
1403.00,0.0089
1402.00,0.0089
1401.00,0.0089
1400.00,0.0089
1399.00,0.0089
1398.00,0.0088
1397.00,0.0087
1396.00,0.0086
1395.00,0.0085
1394.00,0.0084
1393.00,0.0083
1392.00,0.0082
1391.00,0.0082
1390.00,0.0081
1389.00,0.0079
1388.00,0.0077
1387.00,0.0075
1386.00,0.0073
1385.00,0.0070
1384.00,0.0066
1383.00,0.0062
1382.00,0.0059
1381.00,0.0056
1380.00,0.0053
1379.00,0.0051
1378.00,0.0048
1377.00,0.0046
1376.00,0.0042
1375.00,0.0039
1374.00,0.0035
1373.00,0.0031
1372.00,0.0028
1371.00,0.0025
1370.00,0.0023
1369.00,0.0021
1368.00,0.0018
1367.00,0.0015
1366.00,0.0011
1365.00,0.0007
1364.00,0.0002
1363.00,-0.0002
1362.00,-0.0005
1361.00,-0.0007
1360.00,-0.0008
1359.00,-0.0009
1358.00,-0.0009
1357.00,-0.0009
1356.00,-0.0007
1355.00,-0.0005
1354.00,-0.0003
1353.00,0.0000
1352.00,0.0003
1351.00,0.0005
1350.00,0.0008
1349.00,0.0010
1348.00,0.0012
1347.00,0.0014
1346.00,0.0015
1345.00,0.0017
1344.00,0.0018
1343.00,0.0019
1342.00,0.0019
1341.00,0.0020
1340.00,0.0020
1339.00,0.0020
1338.00,0.0020
1337.00,0.0019
1336.00,0.0019
1335.00,0.0018
1334.00,0.0018
1333.00,0.0017
1332.00,0.0016
1331.00,0.0015
1330.00,0.0014
1329.00,0.0013
1328.00,0.0012
1327.00,0.0011
1326.00,0.0010
1325.00,0.0009
1324.00,0.0008
1323.00,0.0008
1322.00,0.0008
1321.00,0.0007
1320.00,0.0007
1319.00,0.0007
1318.00,0.0007
1317.00,0.0006
1316.00,0.0006
1315.00,0.0006
1314.00,0.0006
1313.00,0.0006
1312.00,0.0006
1311.00,0.0006
1310.00,0.0006
1309.00,0.0005
1308.00,0.0004
1307.00,0.0004
1306.00,0.0003
1305.00,0.0002
1304.00,0.0001
1303.00,-0.0000
1302.00,-0.0001
1301.00,-0.0002
1300.00,-0.0004
1299.00,-0.0005
1298.00,-0.0007
1297.00,-0.0008
1296.00,-0.0010
1295.00,-0.0011
1294.00,-0.0012
1293.00,-0.0013
1292.00,-0.0014
1291.00,-0.0015
1290.00,-0.0015
1289.00,-0.0016
1288.00,-0.0016
1287.00,-0.0017
1286.00,-0.0018
1285.00,-0.0019
1284.00,-0.0020
1283.00,-0.0022
1282.00,-0.0023
1281.00,-0.0025
1280.00,-0.0027
1279.00,-0.0029
1278.00,-0.0032
1277.00,-0.0034
1276.00,-0.0036
1275.00,-0.0038
1274.00,-0.0039
1273.00,-0.0041
1272.00,-0.0042
1271.00,-0.0043
1270.00,-0.0044
1269.00,-0.0046
1268.00,-0.0047
1267.00,-0.0048
1266.00,-0.0049
1265.00,-0.0050
1264.00,-0.0051
1263.00,-0.0052
1262.00,-0.0053
1261.00,-0.0054
1260.00,-0.0055
1259.00,-0.0056
1258.00,-0.0057
1257.00,-0.0058
1256.00,-0.0058
1255.00,-0.0057
1254.00,-0.0055
1253.00,-0.0052
1252.00,-0.0049
1251.00,-0.0044
1250.00,-0.0039
1249.00,-0.0034
1248.00,-0.0029
1247.00,-0.0024
1246.00,-0.0019
1245.00,-0.0014
1244.00,-0.0009
1243.00,-0.0003
1242.00,0.0002
1241.00,0.0008
1240.00,0.0013
1239.00,0.0019
1238.00,0.0025
1237.00,0.0031
1236.00,0.0038
1235.00,0.0044
1234.00,0.0049
1233.00,0.0055
1232.00,0.0059
1231.00,0.0064
1230.00,0.0068
1229.00,0.0072
1228.00,0.0075
1227.00,0.0078
1226.00,0.0079
1225.00,0.0080
1224.00,0.0081
1223.00,0.0082
1222.00,0.0082
1221.00,0.0081
1220.00,0.0080
1219.00,0.0079
1218.00,0.0077
1217.00,0.0075
1216.00,0.0072
1215.00,0.0069
1214.00,0.0065
1213.00,0.0061
1212.00,0.0058
1211.00,0.0054
1210.00,0.0049
1209.00,0.0045
1208.00,0.0040
1207.00,0.0035
1206.00,0.0030
1205.00,0.0025
1204.00,0.0019
1203.00,0.0014
1202.00,0.0009
1201.00,0.0003
1200.00,-0.0003
1199.00,-0.0009
1198.00,-0.0014
1197.00,-0.0019
1196.00,-0.0023
1195.00,-0.0028
1194.00,-0.0032
1193.00,-0.0036
1192.00,-0.0040
1191.00,-0.0045
1190.00,-0.0049
1189.00,-0.0052
1188.00,-0.0055
1187.00,-0.0058
1186.00,-0.0061
1185.00,-0.0064
1184.00,-0.0067
1183.00,-0.0070
1182.00,-0.0073
1181.00,-0.0077
1180.00,-0.0080
1179.00,-0.0082
1178.00,-0.0083
1177.00,-0.0083
1176.00,-0.0082
1175.00,-0.0081
1174.00,-0.0080
1173.00,-0.0079
1172.00,-0.0079
1171.00,-0.0078
1170.00,-0.0078
1169.00,-0.0078
1168.00,-0.0078
1167.00,-0.0078
1166.00,-0.0078
1165.00,-0.0078
1164.00,-0.0078
1163.00,-0.0078
1162.00,-0.0077
1161.00,-0.0077
1160.00,-0.0076
1159.00,-0.0077
1158.00,-0.0078
1157.00,-0.0079
1156.00,-0.0082
1155.00,-0.0084
1154.00,-0.0087
1153.00,-0.0090
1152.00,-0.0092
1151.00,-0.0096
1150.00,-0.0099
1149.00,-0.0102
1148.00,-0.0104
1147.00,-0.0107
1146.00,-0.0110
1145.00,-0.0113
1144.00,-0.0115
1143.00,-0.0117
1142.00,-0.0119
1141.00,-0.0120
1140.00,-0.0122
1139.00,-0.0124
1138.00,-0.0126
1137.00,-0.0129
1136.00,-0.0131
1135.00,-0.0134
1134.00,-0.0136
1133.00,-0.0139
1132.00,-0.0140
1131.00,-0.0141
1130.00,-0.0142
1129.00,-0.0142
1128.00,-0.0142
1127.00,-0.0142
1126.00,-0.0142
1125.00,-0.0141
1124.00,-0.0141
1123.00,-0.0141
1122.00,-0.0141
1121.00,-0.0142
1120.00,-0.0142
1119.00,-0.0142
1118.00,-0.0142
1117.00,-0.0141
1116.00,-0.0140
1115.00,-0.0139
1114.00,-0.0139
1113.00,-0.0139
1112.00,-0.0139
1111.00,-0.0140
1110.00,-0.0141
1109.00,-0.0141
1108.00,-0.0141
1107.00,-0.0140
1106.00,-0.0140
1105.00,-0.0140
1104.00,-0.0141
1103.00,-0.0140
1102.00,-0.0140
1101.00,-0.0140
1100.00,-0.0139
1099.00,-0.0140
1098.00,-0.0140
1097.00,-0.0140
1096.00,-0.0140
1095.00,-0.0139
1094.00,-0.0138
1093.00,-0.0136
1092.00,-0.0134
1091.00,-0.0132
1090.00,-0.0129
1089.00,-0.0127
1088.00,-0.0124
1087.00,-0.0120
1086.00,-0.0115
1085.00,-0.0109
1084.00,-0.0104
1083.00,-0.0099
1082.00,-0.0095
1081.00,-0.0090
1080.00,-0.0085
1079.00,-0.0080
1078.00,-0.0076
1077.00,-0.0072
1076.00,-0.0069
1075.00,-0.0065
1074.00,-0.0061
1073.00,-0.0058
1072.00,-0.0054
1071.00,-0.0051
1070.00,-0.0047
1069.00,-0.0044
1068.00,-0.0041
1067.00,-0.0039
1066.00,-0.0037
1065.00,-0.0036
1064.00,-0.0035
1063.00,-0.0036
1062.00,-0.0037
1061.00,-0.0039
1060.00,-0.0041
1059.00,-0.0043
1058.00,-0.0045
1057.00,-0.0049
1056.00,-0.0052
1055.00,-0.0055
1054.00,-0.0058
1053.00,-0.0062
1052.00,-0.0065
1051.00,-0.0067
1050.00,-0.0068
1049.00,-0.0070
1048.00,-0.0072
1047.00,-0.0074
1046.00,-0.0078
1045.00,-0.0081
1044.00,-0.0084
1043.00,-0.0087
1042.00,-0.0090
1041.00,-0.0094
1040.00,-0.0098
1039.00,-0.0102
1038.00,-0.0106
1037.00,-0.0109
1036.00,-0.0113
1035.00,-0.0116
1034.00,-0.0119
1033.00,-0.0123
1032.00,-0.0126
1031.00,-0.0130
1030.00,-0.0134
1029.00,-0.0139
1028.00,-0.0144
1027.00,-0.0149
1026.00,-0.0155
1025.00,-0.0161
1024.00,-0.0166
1023.00,-0.0171
1022.00,-0.0177
1021.00,-0.0182
1020.00,-0.0186
1019.00,-0.0190
1018.00,-0.0194
1017.00,-0.0198
1016.00,-0.0202
1015.00,-0.0207
1014.00,-0.0211
1013.00,-0.0215
1012.00,-0.0219
1011.00,-0.0223
1010.00,-0.0227
1009.00,-0.0230
1008.00,-0.0234
1007.00,-0.0238
1006.00,-0.0241
1005.00,-0.0244
1004.00,-0.0246
1003.00,-0.0249
1002.00,-0.0252
1001.00,-0.0255
1000.00,-0.0258
999.00,-0.0261
998.00,-0.0263
997.00,-0.0265
996.00,-0.0266
995.00,-0.0267
994.00,-0.0268
993.00,-0.0270
992.00,-0.0272
991.00,-0.0274
990.00,-0.0276
989.00,-0.0277
988.00,-0.0278
987.00,-0.0279
986.00,-0.0280
985.00,-0.0281
984.00,-0.0282
983.00,-0.0282
982.00,-0.0283
981.00,-0.0283
980.00,-0.0284
979.00,-0.0285
978.00,-0.0287
977.00,-0.0289
976.00,-0.0291
975.00,-0.0294
974.00,-0.0297
973.00,-0.0299
972.00,-0.0302
971.00,-0.0305
970.00,-0.0308
969.00,-0.0310
968.00,-0.0312
967.00,-0.0313
966.00,-0.0314
965.00,-0.0315
964.00,-0.0316
963.00,-0.0317
962.00,-0.0318
961.00,-0.0320
960.00,-0.0322
959.00,-0.0325
958.00,-0.0328
957.00,-0.0331
956.00,-0.0333
955.00,-0.0335
954.00,-0.0337
953.00,-0.0339
952.00,-0.0341
951.00,-0.0342
950.00,-0.0342
949.00,-0.0342
948.00,-0.0342
947.00,-0.0342
946.00,-0.0341
945.00,-0.0341
944.00,-0.0340
943.00,-0.0339
942.00,-0.0337
941.00,-0.0335
940.00,-0.0334
939.00,-0.0332
938.00,-0.0330
937.00,-0.0328
936.00,-0.0326
935.00,-0.0324
934.00,-0.0322
933.00,-0.0320
932.00,-0.0318
931.00,-0.0317
930.00,-0.0316
929.00,-0.0315
928.00,-0.0315
927.00,-0.0317
926.00,-0.0319
925.00,-0.0322
924.00,-0.0325
923.00,-0.0328
922.00,-0.0331
921.00,-0.0334
920.00,-0.0337
919.00,-0.0340
918.00,-0.0342
917.00,-0.0345
916.00,-0.0347
915.00,-0.0349
914.00,-0.0351
913.00,-0.0352
912.00,-0.0353
911.00,-0.0354
910.00,-0.0354
909.00,-0.0353
908.00,-0.0352
907.00,-0.0351
906.00,-0.0350
905.00,-0.0348
904.00,-0.0345
903.00,-0.0343
902.00,-0.0341
901.00,-0.0340
900.00,-0.0338
899.00,-0.0337
898.00,-0.0336
897.00,-0.0336
896.00,-0.0336
895.00,-0.0336
894.00,-0.0336
893.00,-0.0337
892.00,-0.0337
891.00,-0.0337
890.00,-0.0337
889.00,-0.0337
888.00,-0.0338
887.00,-0.0338
886.00,-0.0338
885.00,-0.0338
884.00,-0.0337
883.00,-0.0336
882.00,-0.0336
881.00,-0.0336
880.00,-0.0336
879.00,-0.0335
878.00,-0.0334
877.00,-0.0334
876.00,-0.0334
875.00,-0.0333
874.00,-0.0333
873.00,-0.0334
872.00,-0.0335
871.00,-0.0336
870.00,-0.0337
869.00,-0.0339
868.00,-0.0340
867.00,-0.0341
866.00,-0.0342
865.00,-0.0344
864.00,-0.0345
863.00,-0.0347
862.00,-0.0348
861.00,-0.0349
860.00,-0.0350
859.00,-0.0350
858.00,-0.0350
857.00,-0.0350
856.00,-0.0350
855.00,-0.0350
854.00,-0.0350
853.00,-0.0350
852.00,-0.0350
851.00,-0.0350
850.00,-0.0350
849.00,-0.0351
848.00,-0.0351
847.00,-0.0351
846.00,-0.0350
845.00,-0.0350
844.00,-0.0351
843.00,-0.0351
842.00,-0.0351
841.00,-0.0351
840.00,-0.0350
839.00,-0.0349
838.00,-0.0348
837.00,-0.0347
836.00,-0.0347
835.00,-0.0347
834.00,-0.0347
833.00,-0.0347
832.00,-0.0346
831.00,-0.0345
830.00,-0.0344
829.00,-0.0344
828.00,-0.0343
827.00,-0.0342
826.00,-0.0340
825.00,-0.0339
824.00,-0.0338
823.00,-0.0337
822.00,-0.0337
821.00,-0.0337
820.00,-0.0336
819.00,-0.0334
818.00,-0.0333
817.00,-0.0332
816.00,-0.0331
815.00,-0.0330
814.00,-0.0329
813.00,-0.0328
812.00,-0.0327
811.00,-0.0325
810.00,-0.0323
809.00,-0.0321
808.00,-0.0319
807.00,-0.0318
806.00,-0.0317
805.00,-0.0317
804.00,-0.0316
803.00,-0.0315
802.00,-0.0315
801.00,-0.0314
800.00,-0.0313
799.00,-0.0313
798.00,-0.0312
797.00,-0.0312
796.00,-0.0311
795.00,-0.0310
794.00,-0.0309
793.00,-0.0308
792.00,-0.0309
791.00,-0.0309
790.00,-0.0308
789.00,-0.0308
788.00,-0.0307
787.00,-0.0307
786.00,-0.0308
785.00,-0.0308
784.00,-0.0308
783.00,-0.0309
782.00,-0.0310
781.00,-0.0311
780.00,-0.0312
779.00,-0.0312
778.00,-0.0311
777.00,-0.0310
776.00,-0.0308
775.00,-0.0306
774.00,-0.0305
773.00,-0.0305
772.00,-0.0307
771.00,-0.0311
770.00,-0.0318
769.00,-0.0323
768.00,-0.0324
767.00,-0.0318
766.00,-0.0309
765.00,-0.0299
764.00,-0.0291
763.00,-0.0285
762.00,-0.0281
761.00,-0.0279
760.00,-0.0276
759.00,-0.0273
758.00,-0.0271
757.00,-0.0268
756.00,-0.0265
755.00,-0.0262
754.00,-0.0259
753.00,-0.0255
752.00,-0.0251
751.00,-0.0246
750.00,-0.0242
749.00,-0.0237
748.00,-0.0233
747.00,-0.0230
746.00,-0.0227
745.00,-0.0225
744.00,-0.0223
743.00,-0.0221
742.00,-0.0218
741.00,-0.0216
740.00,-0.0214
739.00,-0.0212
738.00,-0.0210
737.00,-0.0209
736.00,-0.0207
735.00,-0.0204
734.00,-0.0203
733.00,-0.0201
732.00,-0.0198
731.00,-0.0194
730.00,-0.0190
729.00,-0.0186
728.00,-0.0181
727.00,-0.0177
726.00,-0.0172
725.00,-0.0167
724.00,-0.0162
723.00,-0.0156
722.00,-0.0149
721.00,-0.0143
720.00,-0.0136
719.00,-0.0130
718.00,-0.0125
717.00,-0.0121
716.00,-0.0115
715.00,-0.0110
714.00,-0.0104
713.00,-0.0098
712.00,-0.0092
711.00,-0.0085
710.00,-0.0077
709.00,-0.0068
708.00,-0.0059
707.00,-0.0050
706.00,-0.0040
705.00,-0.0030
704.00,-0.0020
703.00,-0.0010
702.00,-0.0002
701.00,0.0003
700.00,0.0008
699.00,0.0011
698.00,0.0013
697.00,0.0015
696.00,0.0016
695.00,0.0017
694.00,0.0016
693.00,0.0015
692.00,0.0014
691.00,0.0014
690.00,0.0014
689.00,0.0015
688.00,0.0016
687.00,0.0016
686.00,0.0016
685.00,0.0016
684.00,0.0016
683.00,0.0017
682.00,0.0017
681.00,0.0017
680.00,0.0017
679.00,0.0018
678.00,0.0020
677.00,0.0022
676.00,0.0024
675.00,0.0025
674.00,0.0025
673.00,0.0024
672.00,0.0023
671.00,0.0022
670.00,0.0020
669.00,0.0020
668.00,0.0020
667.00,0.0022
666.00,0.0024
665.00,0.0024
664.00,0.0024
663.00,0.0024
662.00,0.0026
661.00,0.0028
660.00,0.0030
659.00,0.0031
658.00,0.0031
657.00,0.0031
656.00,0.0031
655.00,0.0032
654.00,0.0032
653.00,0.0033
652.00,0.0035
651.00,0.0036
650.00,0.0038
649.00,0.0040
648.00,0.0043
647.00,0.0045
646.00,0.0047
645.00,0.0048
644.00,0.0050
643.00,0.0051
642.00,0.0054
641.00,0.0056
640.00,0.0058
639.00,0.0060
638.00,0.0062
637.00,0.0064
636.00,0.0066
635.00,0.0069
634.00,0.0071
633.00,0.0072
632.00,0.0073
631.00,0.0074
630.00,0.0076
629.00,0.0078
628.00,0.0080
627.00,0.0081
626.00,0.0081
625.00,0.0082
624.00,0.0082
623.00,0.0083
622.00,0.0082
621.00,0.0081
620.00,0.0082
619.00,0.0082
618.00,0.0082
617.00,0.0081
616.00,0.0080
615.00,0.0079
614.00,0.0078
613.00,0.0077
612.00,0.0077
611.00,0.0075
610.00,0.0073
609.00,0.0071
608.00,0.0069
607.00,0.0068
606.00,0.0068
605.00,0.0067
604.00,0.0067
603.00,0.0066
602.00,0.0065
601.00,0.0065
600.00,0.0065
599.00,0.0065
598.00,0.0065
597.00,0.0065
596.00,0.0064
595.00,0.0063
594.00,0.0062
593.00,0.0061
592.00,0.0061
591.00,0.0061
590.00,0.0062
589.00,0.0063
588.00,0.0065
587.00,0.0066
586.00,0.0067
585.00,0.0067
584.00,0.0068
583.00,0.0068
582.00,0.0068
581.00,0.0068
580.00,0.0069
579.00,0.0070
578.00,0.0070
577.00,0.0072
576.00,0.0075
575.00,0.0078
574.00,0.0079
573.00,0.0078
572.00,0.0077
571.00,0.0076
570.00,0.0076
569.00,0.0076
568.00,0.0077
567.00,0.0080
566.00,0.0082
565.00,0.0085
564.00,0.0086
563.00,0.0085
562.00,0.0084
561.00,0.0083
560.00,0.0083
559.00,0.0084
558.00,0.0085
557.00,0.0085
556.00,0.0085
555.00,0.0086
554.00,0.0086
553.00,0.0086
552.00,0.0086
551.00,0.0086
550.00,0.0086
549.00,0.0086
548.00,0.0087
547.00,0.0086
546.00,0.0085
545.00,0.0084
544.00,0.0084
543.00,0.0085
542.00,0.0086
541.00,0.0088
540.00,0.0090
539.00,0.0091
538.00,0.0092
537.00,0.0091
536.00,0.0091
535.00,0.0090
534.00,0.0089
533.00,0.0091
532.00,0.0094
531.00,0.0097
530.00,0.0096
529.00,0.0094
528.00,0.0092
527.00,0.0091
526.00,0.0092
525.00,0.0093
524.00,0.0093
523.00,0.0091
522.00,0.0088
521.00,0.0085
520.00,0.0083
519.00,0.0083
518.00,0.0082
517.00,0.0080
516.00,0.0078
515.00,0.0076
514.00,0.0072
513.00,0.0068
512.00,0.0063
511.00,0.0059
510.00,0.0055
509.00,0.0053
508.00,0.0053
507.00,0.0055
506.00,0.0057
505.00,0.0058
504.00,0.0059
503.00,0.0058
502.00,0.0056
501.00,0.0052
500.00,0.0049
499.00,0.0048
498.00,0.0049
497.00,0.0049
496.00,0.0050
495.00,0.0050
494.00,0.0049
493.00,0.0047
492.00,0.0047
491.00,0.0048
490.00,0.0047
489.00,0.0046
488.00,0.0043
487.00,0.0041
486.00,0.0039
485.00,0.0039
484.00,0.0039
483.00,0.0038
482.00,0.0034
481.00,0.0031
480.00,0.0030
479.00,0.0031
478.00,0.0031
477.00,0.0030
476.00,0.0028
475.00,0.0026
474.00,0.0025
473.00,0.0025
472.00,0.0027
471.00,0.0029
470.00,0.0032
469.00,0.0035
468.00,0.0036
467.00,0.0035
466.00,0.0032
465.00,0.0030
464.00,0.0032
463.00,0.0036
462.00,0.0036
461.00,0.0033
460.00,0.0027
459.00,0.0022
458.00,0.0018
457.00,0.0017
456.00,0.0017
455.00,0.0018
454.00,0.0020
453.00,0.0023
452.00,0.0026
451.00,0.0028
450.00,0.0026
449.00,0.0023
448.00,0.0021
447.00,0.0022
446.00,0.0022
445.00,0.0021
444.00,0.0017
443.00,0.0013
442.00,0.0008
441.00,0.0001
440.00,-0.0006
439.00,-0.0013
438.00,-0.0018
437.00,-0.0020
436.00,-0.0022
435.00,-0.0025
434.00,-0.0030
433.00,-0.0036
432.00,-0.0044
431.00,-0.0049
430.00,-0.0053
429.00,-0.0052
428.00,-0.0048
427.00,-0.0044
426.00,-0.0044
425.00,-0.0048
424.00,-0.0054
423.00,-0.0060
422.00,-0.0064
421.00,-0.0068
420.00,-0.0071
419.00,-0.0071
418.00,-0.0065
417.00,-0.0058
416.00,-0.0053
415.00,-0.0051
414.00,-0.0053
413.00,-0.0058
412.00,-0.0069
411.00,-0.0086
410.00,-0.0101
409.00,-0.0109
408.00,-0.0109
407.00,-0.0108
406.00,-0.0108
405.00,-0.0109
404.00,-0.0111
403.00,-0.0113
402.00,-0.0111
401.00,-0.0105
400.00,-0.0102
