Created as New Dataset,Sample 372 By YargerLab Date Sunday, November 16 2025
cm-1,A
4000.00,0.0085
3999.00,0.0085
3998.00,0.0085
3997.00,0.0085
3996.00,0.0085
3995.00,0.0085
3994.00,0.0085
3993.00,0.0085
3992.00,0.0085
3991.00,0.0085
3990.00,0.0085
3989.00,0.0085
3988.00,0.0085
3987.00,0.0085
3986.00,0.0085
3985.00,0.0085
3984.00,0.0085
3983.00,0.0085
3982.00,0.0085
3981.00,0.0085
3980.00,0.0085
3979.00,0.0085
3978.00,0.0085
3977.00,0.0085
3976.00,0.0085
3975.00,0.0085
3974.00,0.0085
3973.00,0.0085
3972.00,0.0086
3971.00,0.0086
3970.00,0.0086
3969.00,0.0086
3968.00,0.0085
3967.00,0.0085
3966.00,0.0085
3965.00,0.0085
3964.00,0.0085
3963.00,0.0085
3962.00,0.0085
3961.00,0.0085
3960.00,0.0085
3959.00,0.0085
3958.00,0.0085
3957.00,0.0085
3956.00,0.0085
3955.00,0.0085
3954.00,0.0085
3953.00,0.0085
3952.00,0.0085
3951.00,0.0084
3950.00,0.0084
3949.00,0.0084
3948.00,0.0084
3947.00,0.0084
3946.00,0.0084
3945.00,0.0084
3944.00,0.0084
3943.00,0.0085
3942.00,0.0085
3941.00,0.0085
3940.00,0.0085
3939.00,0.0085
3938.00,0.0085
3937.00,0.0085
3936.00,0.0085
3935.00,0.0085
3934.00,0.0084
3933.00,0.0084
3932.00,0.0084
3931.00,0.0084
3930.00,0.0084
3929.00,0.0085
3928.00,0.0085
3927.00,0.0085
3926.00,0.0084
3925.00,0.0084
3924.00,0.0084
3923.00,0.0084
3922.00,0.0084
3921.00,0.0084
3920.00,0.0084
3919.00,0.0084
3918.00,0.0084
3917.00,0.0084
3916.00,0.0084
3915.00,0.0084
3914.00,0.0084
3913.00,0.0084
3912.00,0.0084
3911.00,0.0084
3910.00,0.0084
3909.00,0.0084
3908.00,0.0084
3907.00,0.0084
3906.00,0.0084
3905.00,0.0084
3904.00,0.0083
3903.00,0.0083
3902.00,0.0083
3901.00,0.0083
3900.00,0.0083
3899.00,0.0083
3898.00,0.0083
3897.00,0.0083
3896.00,0.0083
3895.00,0.0083
3894.00,0.0083
3893.00,0.0084
3892.00,0.0084
3891.00,0.0084
3890.00,0.0083
3889.00,0.0083
3888.00,0.0083
3887.00,0.0083
3886.00,0.0083
3885.00,0.0083
3884.00,0.0083
3883.00,0.0083
3882.00,0.0083
3881.00,0.0083
3880.00,0.0083
3879.00,0.0083
3878.00,0.0083
3877.00,0.0083
3876.00,0.0083
3875.00,0.0083
3874.00,0.0083
3873.00,0.0083
3872.00,0.0083
3871.00,0.0083
3870.00,0.0083
3869.00,0.0083
3868.00,0.0083
3867.00,0.0082
3866.00,0.0082
3865.00,0.0082
3864.00,0.0082
3863.00,0.0083
3862.00,0.0083
3861.00,0.0083
3860.00,0.0083
3859.00,0.0083
3858.00,0.0082
3857.00,0.0082
3856.00,0.0082
3855.00,0.0082
3854.00,0.0082
3853.00,0.0082
3852.00,0.0082
3851.00,0.0082
3850.00,0.0082
3849.00,0.0082
3848.00,0.0083
3847.00,0.0083
3846.00,0.0083
3845.00,0.0083
3844.00,0.0083
3843.00,0.0083
3842.00,0.0082
3841.00,0.0082
3840.00,0.0082
3839.00,0.0083
3838.00,0.0083
3837.00,0.0083
3836.00,0.0082
3835.00,0.0082
3834.00,0.0082
3833.00,0.0083
3832.00,0.0083
3831.00,0.0083
3830.00,0.0083
3829.00,0.0083
3828.00,0.0082
3827.00,0.0082
3826.00,0.0082
3825.00,0.0082
3824.00,0.0082
3823.00,0.0082
3822.00,0.0082
3821.00,0.0082
3820.00,0.0082
3819.00,0.0082
3818.00,0.0082
3817.00,0.0081
3816.00,0.0081
3815.00,0.0081
3814.00,0.0081
3813.00,0.0081
3812.00,0.0082
3811.00,0.0082
3810.00,0.0083
3809.00,0.0082
3808.00,0.0082
3807.00,0.0082
3806.00,0.0082
3805.00,0.0081
3804.00,0.0081
3803.00,0.0081
3802.00,0.0081
3801.00,0.0081
3800.00,0.0082
3799.00,0.0082
3798.00,0.0082
3797.00,0.0082
3796.00,0.0082
3795.00,0.0082
3794.00,0.0082
3793.00,0.0082
3792.00,0.0082
3791.00,0.0082
3790.00,0.0082
3789.00,0.0082
3788.00,0.0082
3787.00,0.0082
3786.00,0.0082
3785.00,0.0082
3784.00,0.0082
3783.00,0.0082
3782.00,0.0082
3781.00,0.0082
3780.00,0.0082
3779.00,0.0082
3778.00,0.0082
3777.00,0.0082
3776.00,0.0082
3775.00,0.0082
3774.00,0.0082
3773.00,0.0082
3772.00,0.0082
3771.00,0.0082
3770.00,0.0082
3769.00,0.0081
3768.00,0.0081
3767.00,0.0081
3766.00,0.0081
3765.00,0.0082
3764.00,0.0082
3763.00,0.0082
3762.00,0.0081
3761.00,0.0081
3760.00,0.0081
3759.00,0.0081
3758.00,0.0081
3757.00,0.0081
3756.00,0.0081
3755.00,0.0082
3754.00,0.0082
3753.00,0.0081
3752.00,0.0081
3751.00,0.0081
3750.00,0.0081
3749.00,0.0080
3748.00,0.0080
3747.00,0.0080
3746.00,0.0079
3745.00,0.0079
3744.00,0.0079
3743.00,0.0079
3742.00,0.0079
3741.00,0.0079
3740.00,0.0080
3739.00,0.0080
3738.00,0.0080
3737.00,0.0080
3736.00,0.0079
3735.00,0.0079
3734.00,0.0079
3733.00,0.0079
3732.00,0.0078
3731.00,0.0078
3730.00,0.0078
3729.00,0.0078
3728.00,0.0078
3727.00,0.0079
3726.00,0.0079
3725.00,0.0079
3724.00,0.0079
3723.00,0.0079
3722.00,0.0079
3721.00,0.0079
3720.00,0.0079
3719.00,0.0079
3718.00,0.0079
3717.00,0.0079
3716.00,0.0079
3715.00,0.0079
3714.00,0.0079
3713.00,0.0079
3712.00,0.0078
3711.00,0.0078
3710.00,0.0078
3709.00,0.0078
3708.00,0.0078
3707.00,0.0078
3706.00,0.0078
3705.00,0.0078
3704.00,0.0078
3703.00,0.0079
3702.00,0.0079
3701.00,0.0079
3700.00,0.0079
3699.00,0.0078
3698.00,0.0078
3697.00,0.0078
3696.00,0.0078
3695.00,0.0078
3694.00,0.0078
3693.00,0.0079
3692.00,0.0079
3691.00,0.0079
3690.00,0.0079
3689.00,0.0080
3688.00,0.0079
3687.00,0.0079
3686.00,0.0079
3685.00,0.0079
3684.00,0.0080
3683.00,0.0080
3682.00,0.0080
3681.00,0.0080
3680.00,0.0080
3679.00,0.0080
3678.00,0.0080
3677.00,0.0080
3676.00,0.0080
3675.00,0.0080
3674.00,0.0080
3673.00,0.0080
3672.00,0.0080
3671.00,0.0080
3670.00,0.0081
3669.00,0.0082
3668.00,0.0082
3667.00,0.0083
3666.00,0.0083
3665.00,0.0083
3664.00,0.0084
3663.00,0.0084
3662.00,0.0084
3661.00,0.0084
3660.00,0.0084
3659.00,0.0084
3658.00,0.0084
3657.00,0.0085
3656.00,0.0085
3655.00,0.0085
3654.00,0.0085
3653.00,0.0085
3652.00,0.0085
3651.00,0.0085
3650.00,0.0085
3649.00,0.0086
3648.00,0.0086
3647.00,0.0087
3646.00,0.0087
3645.00,0.0088
3644.00,0.0088
3643.00,0.0088
3642.00,0.0089
3641.00,0.0089
3640.00,0.0090
3639.00,0.0090
3638.00,0.0090
3637.00,0.0090
3636.00,0.0091
3635.00,0.0091
3634.00,0.0091
3633.00,0.0091
3632.00,0.0092
3631.00,0.0092
3630.00,0.0092
3629.00,0.0093
3628.00,0.0093
3627.00,0.0094
3626.00,0.0094
3625.00,0.0094
3624.00,0.0095
3623.00,0.0096
3622.00,0.0096
3621.00,0.0096
3620.00,0.0096
3619.00,0.0097
3618.00,0.0098
3617.00,0.0098
3616.00,0.0098
3615.00,0.0099
3614.00,0.0099
3613.00,0.0100
3612.00,0.0101
3611.00,0.0101
3610.00,0.0102
3609.00,0.0102
3608.00,0.0103
3607.00,0.0103
3606.00,0.0104
3605.00,0.0104
3604.00,0.0105
3603.00,0.0105
3602.00,0.0105
3601.00,0.0105
3600.00,0.0106
3599.00,0.0106
3598.00,0.0107
3597.00,0.0107
3596.00,0.0108
3595.00,0.0109
3594.00,0.0110
3593.00,0.0110
3592.00,0.0111
3591.00,0.0111
3590.00,0.0111
3589.00,0.0112
3588.00,0.0112
3587.00,0.0113
3586.00,0.0114
3585.00,0.0115
3584.00,0.0115
3583.00,0.0116
3582.00,0.0117
3581.00,0.0117
3580.00,0.0117
3579.00,0.0118
3578.00,0.0118
3577.00,0.0118
3576.00,0.0119
3575.00,0.0119
3574.00,0.0120
3573.00,0.0121
3572.00,0.0121
3571.00,0.0122
3570.00,0.0122
3569.00,0.0122
3568.00,0.0123
3567.00,0.0123
3566.00,0.0124
3565.00,0.0125
3564.00,0.0125
3563.00,0.0126
3562.00,0.0127
3561.00,0.0127
3560.00,0.0128
3559.00,0.0129
3558.00,0.0129
3557.00,0.0130
3556.00,0.0130
3555.00,0.0131
3554.00,0.0131
3553.00,0.0132
3552.00,0.0133
3551.00,0.0133
3550.00,0.0134
3549.00,0.0135
3548.00,0.0135
3547.00,0.0136
3546.00,0.0137
3545.00,0.0138
3544.00,0.0138
3543.00,0.0139
3542.00,0.0139
3541.00,0.0140
3540.00,0.0140
3539.00,0.0141
3538.00,0.0141
3537.00,0.0142
3536.00,0.0143
3535.00,0.0144
3534.00,0.0144
3533.00,0.0144
3532.00,0.0145
3531.00,0.0145
3530.00,0.0146
3529.00,0.0146
3528.00,0.0146
3527.00,0.0147
3526.00,0.0147
3525.00,0.0148
3524.00,0.0149
3523.00,0.0149
3522.00,0.0150
3521.00,0.0150
3520.00,0.0151
3519.00,0.0151
3518.00,0.0152
3517.00,0.0152
3516.00,0.0153
3515.00,0.0153
3514.00,0.0153
3513.00,0.0154
3512.00,0.0154
3511.00,0.0154
3510.00,0.0155
3509.00,0.0155
3508.00,0.0156
3507.00,0.0156
3506.00,0.0157
3505.00,0.0157
3504.00,0.0158
3503.00,0.0158
3502.00,0.0158
3501.00,0.0159
3500.00,0.0159
3499.00,0.0160
3498.00,0.0160
3497.00,0.0160
3496.00,0.0160
3495.00,0.0161
3494.00,0.0161
3493.00,0.0161
3492.00,0.0162
3491.00,0.0162
3490.00,0.0162
3489.00,0.0163
3488.00,0.0163
3487.00,0.0164
3486.00,0.0164
3485.00,0.0164
3484.00,0.0165
3483.00,0.0165
3482.00,0.0165
3481.00,0.0166
3480.00,0.0166
3479.00,0.0167
3478.00,0.0167
3477.00,0.0167
3476.00,0.0167
3475.00,0.0168
3474.00,0.0168
3473.00,0.0168
3472.00,0.0169
3471.00,0.0169
3470.00,0.0170
3469.00,0.0170
3468.00,0.0170
3467.00,0.0170
3466.00,0.0170
3465.00,0.0170
3464.00,0.0171
3463.00,0.0171
3462.00,0.0171
3461.00,0.0171
3460.00,0.0172
3459.00,0.0172
3458.00,0.0172
3457.00,0.0172
3456.00,0.0173
3455.00,0.0173
3454.00,0.0173
3453.00,0.0174
3452.00,0.0174
3451.00,0.0175
3450.00,0.0175
3449.00,0.0175
3448.00,0.0176
3447.00,0.0176
3446.00,0.0176
3445.00,0.0177
3444.00,0.0177
3443.00,0.0177
3442.00,0.0178
3441.00,0.0178
3440.00,0.0179
3439.00,0.0180
3438.00,0.0181
3437.00,0.0181
3436.00,0.0182
3435.00,0.0182
3434.00,0.0182
3433.00,0.0183
3432.00,0.0184
3431.00,0.0184
3430.00,0.0185
3429.00,0.0185
3428.00,0.0186
3427.00,0.0186
3426.00,0.0187
3425.00,0.0188
3424.00,0.0188
3423.00,0.0189
3422.00,0.0190
3421.00,0.0191
3420.00,0.0192
3419.00,0.0192
3418.00,0.0193
3417.00,0.0194
3416.00,0.0194
3415.00,0.0195
3414.00,0.0196
3413.00,0.0197
3412.00,0.0198
3411.00,0.0199
3410.00,0.0200
3409.00,0.0200
3408.00,0.0201
3407.00,0.0202
3406.00,0.0203
3405.00,0.0204
3404.00,0.0204
3403.00,0.0205
3402.00,0.0206
3401.00,0.0206
3400.00,0.0207
3399.00,0.0208
3398.00,0.0209
3397.00,0.0210
3396.00,0.0211
3395.00,0.0211
3394.00,0.0212
3393.00,0.0213
3392.00,0.0213
3391.00,0.0214
3390.00,0.0215
3389.00,0.0216
3388.00,0.0217
3387.00,0.0217
3386.00,0.0218
3385.00,0.0219
3384.00,0.0220
3383.00,0.0221
3382.00,0.0222
3381.00,0.0223
3380.00,0.0224
3379.00,0.0225
3378.00,0.0226
3377.00,0.0226
3376.00,0.0227
3375.00,0.0228
3374.00,0.0229
3373.00,0.0230
3372.00,0.0231
3371.00,0.0232
3370.00,0.0233
3369.00,0.0234
3368.00,0.0235
3367.00,0.0237
3366.00,0.0238
3365.00,0.0239
3364.00,0.0241
3363.00,0.0242
3362.00,0.0244
3361.00,0.0246
3360.00,0.0247
3359.00,0.0249
3358.00,0.0251
3357.00,0.0253
3356.00,0.0255
3355.00,0.0257
3354.00,0.0259
3353.00,0.0261
3352.00,0.0263
3351.00,0.0265
3350.00,0.0267
3349.00,0.0270
3348.00,0.0272
3347.00,0.0275
3346.00,0.0278
3345.00,0.0280
3344.00,0.0283
3343.00,0.0286
3342.00,0.0289
3341.00,0.0292
3340.00,0.0295
3339.00,0.0298
3338.00,0.0302
3337.00,0.0306
3336.00,0.0310
3335.00,0.0314
3334.00,0.0318
3333.00,0.0323
3332.00,0.0327
3331.00,0.0331
3330.00,0.0336
3329.00,0.0340
3328.00,0.0345
3327.00,0.0350
3326.00,0.0355
3325.00,0.0360
3324.00,0.0365
3323.00,0.0371
3322.00,0.0377
3321.00,0.0383
3320.00,0.0389
3319.00,0.0395
3318.00,0.0401
3317.00,0.0407
3316.00,0.0413
3315.00,0.0420
3314.00,0.0426
3313.00,0.0432
3312.00,0.0439
3311.00,0.0445
3310.00,0.0451
3309.00,0.0458
3308.00,0.0464
3307.00,0.0471
3306.00,0.0479
3305.00,0.0486
3304.00,0.0494
3303.00,0.0501
3302.00,0.0509
3301.00,0.0516
3300.00,0.0523
3299.00,0.0530
3298.00,0.0537
3297.00,0.0543
3296.00,0.0550
3295.00,0.0556
3294.00,0.0562
3293.00,0.0568
3292.00,0.0575
3291.00,0.0580
3290.00,0.0586
3289.00,0.0591
3288.00,0.0596
3287.00,0.0600
3286.00,0.0603
3285.00,0.0607
3284.00,0.0609
3283.00,0.0612
3282.00,0.0613
3281.00,0.0614
3280.00,0.0615
3279.00,0.0615
3278.00,0.0615
3277.00,0.0613
3276.00,0.0612
3275.00,0.0609
3274.00,0.0607
3273.00,0.0603
3272.00,0.0600
3271.00,0.0596
3270.00,0.0592
3269.00,0.0588
3268.00,0.0584
3267.00,0.0579
3266.00,0.0574
3265.00,0.0568
3264.00,0.0563
3263.00,0.0557
3262.00,0.0551
3261.00,0.0546
3260.00,0.0540
3259.00,0.0534
3258.00,0.0528
3257.00,0.0523
3256.00,0.0517
3255.00,0.0512
3254.00,0.0507
3253.00,0.0501
3252.00,0.0496
3251.00,0.0491
3250.00,0.0485
3249.00,0.0480
3248.00,0.0474
3247.00,0.0470
3246.00,0.0466
3245.00,0.0462
3244.00,0.0458
3243.00,0.0455
3242.00,0.0451
3241.00,0.0447
3240.00,0.0443
3239.00,0.0439
3238.00,0.0435
3237.00,0.0431
3236.00,0.0426
3235.00,0.0422
3234.00,0.0418
3233.00,0.0415
3232.00,0.0413
3231.00,0.0410
3230.00,0.0408
3229.00,0.0405
3228.00,0.0402
3227.00,0.0399
3226.00,0.0396
3225.00,0.0393
3224.00,0.0390
3223.00,0.0387
3222.00,0.0384
3221.00,0.0381
3220.00,0.0378
3219.00,0.0376
3218.00,0.0373
3217.00,0.0371
3216.00,0.0368
3215.00,0.0365
3214.00,0.0363
3213.00,0.0360
3212.00,0.0357
3211.00,0.0355
3210.00,0.0352
3209.00,0.0350
3208.00,0.0348
3207.00,0.0345
3206.00,0.0343
3205.00,0.0340
3204.00,0.0338
3203.00,0.0336
3202.00,0.0333
3201.00,0.0331
3200.00,0.0329
3199.00,0.0327
3198.00,0.0325
3197.00,0.0322
3196.00,0.0320
3195.00,0.0318
3194.00,0.0316
3193.00,0.0314
3192.00,0.0312
3191.00,0.0309
3190.00,0.0307
3189.00,0.0305
3188.00,0.0303
3187.00,0.0301
3186.00,0.0299
3185.00,0.0297
3184.00,0.0295
3183.00,0.0293
3182.00,0.0291
3181.00,0.0289
3180.00,0.0287
3179.00,0.0285
3178.00,0.0284
3177.00,0.0282
3176.00,0.0280
3175.00,0.0278
3174.00,0.0276
3173.00,0.0275
3172.00,0.0273
3171.00,0.0271
3170.00,0.0270
3169.00,0.0268
3168.00,0.0266
3167.00,0.0264
3166.00,0.0263
3165.00,0.0262
3164.00,0.0260
3163.00,0.0259
3162.00,0.0258
3161.00,0.0256
3160.00,0.0255
3159.00,0.0254
3158.00,0.0252
3157.00,0.0251
3156.00,0.0249
3155.00,0.0247
3154.00,0.0246
3153.00,0.0245
3152.00,0.0244
3151.00,0.0243
3150.00,0.0243
3149.00,0.0242
3148.00,0.0241
3147.00,0.0240
3146.00,0.0240
3145.00,0.0239
3144.00,0.0238
3143.00,0.0237
3142.00,0.0236
3141.00,0.0235
3140.00,0.0234
3139.00,0.0234
3138.00,0.0233
3137.00,0.0233
3136.00,0.0233
3135.00,0.0233
3134.00,0.0232
3133.00,0.0232
3132.00,0.0231
3131.00,0.0231
3130.00,0.0230
3129.00,0.0230
3128.00,0.0230
3127.00,0.0230
3126.00,0.0230
3125.00,0.0230
3124.00,0.0229
3123.00,0.0229
3122.00,0.0228
3121.00,0.0228
3120.00,0.0228
3119.00,0.0228
3118.00,0.0228
3117.00,0.0228
3116.00,0.0228
3115.00,0.0229
3114.00,0.0230
3113.00,0.0231
3112.00,0.0231
3111.00,0.0231
3110.00,0.0231
3109.00,0.0232
3108.00,0.0233
3107.00,0.0234
3106.00,0.0235
3105.00,0.0236
3104.00,0.0236
3103.00,0.0236
3102.00,0.0237
3101.00,0.0237
3100.00,0.0238
3099.00,0.0238
3098.00,0.0239
3097.00,0.0240
3096.00,0.0242
3095.00,0.0242
3094.00,0.0243
3093.00,0.0243
3092.00,0.0243
3091.00,0.0244
3090.00,0.0244
3089.00,0.0245
3088.00,0.0246
3087.00,0.0246
3086.00,0.0247
3085.00,0.0247
3084.00,0.0248
3083.00,0.0248
3082.00,0.0249
3081.00,0.0249
3080.00,0.0249
3079.00,0.0249
3078.00,0.0250
3077.00,0.0251
3076.00,0.0252
3075.00,0.0253
3074.00,0.0253
3073.00,0.0253
3072.00,0.0253
3071.00,0.0253
3070.00,0.0252
3069.00,0.0251
3068.00,0.0251
3067.00,0.0250
3066.00,0.0250
3065.00,0.0250
3064.00,0.0250
3063.00,0.0250
3062.00,0.0249
3061.00,0.0249
3060.00,0.0248
3059.00,0.0247
3058.00,0.0246
3057.00,0.0245
3056.00,0.0244
3055.00,0.0243
3054.00,0.0241
3053.00,0.0240
3052.00,0.0238
3051.00,0.0237
3050.00,0.0236
3049.00,0.0235
3048.00,0.0233
3047.00,0.0232
3046.00,0.0230
3045.00,0.0228
3044.00,0.0226
3043.00,0.0225
3042.00,0.0224
3041.00,0.0224
3040.00,0.0223
3039.00,0.0223
3038.00,0.0221
3037.00,0.0220
3036.00,0.0218
3035.00,0.0216
3034.00,0.0215
3033.00,0.0215
3032.00,0.0214
3031.00,0.0214
3030.00,0.0213
3029.00,0.0213
3028.00,0.0212
3027.00,0.0211
3026.00,0.0210
3025.00,0.0209
3024.00,0.0208
3023.00,0.0207
3022.00,0.0206
3021.00,0.0205
3020.00,0.0204
3019.00,0.0203
3018.00,0.0202
3017.00,0.0201
3016.00,0.0199
3015.00,0.0198
3014.00,0.0198
3013.00,0.0198
3012.00,0.0198
3011.00,0.0198
3010.00,0.0199
3009.00,0.0200
3008.00,0.0200
3007.00,0.0200
3006.00,0.0200
3005.00,0.0200
3004.00,0.0200
3003.00,0.0200
3002.00,0.0200
3001.00,0.0200
3000.00,0.0200
2999.00,0.0200
2998.00,0.0201
2997.00,0.0201
2996.00,0.0202
2995.00,0.0202
2994.00,0.0203
2993.00,0.0203
2992.00,0.0204
2991.00,0.0205
2990.00,0.0207
2989.00,0.0208
2988.00,0.0209
2987.00,0.0210
2986.00,0.0210
2985.00,0.0211
2984.00,0.0211
2983.00,0.0211
2982.00,0.0211
2981.00,0.0211
2980.00,0.0211
2979.00,0.0211
2978.00,0.0212
2977.00,0.0211
2976.00,0.0211
2975.00,0.0211
2974.00,0.0211
2973.00,0.0211
2972.00,0.0211
2971.00,0.0211
2970.00,0.0210
2969.00,0.0210
2968.00,0.0209
2967.00,0.0207
2966.00,0.0206
2965.00,0.0204
2964.00,0.0202
2963.00,0.0201
2962.00,0.0199
2961.00,0.0197
2960.00,0.0196
2959.00,0.0194
2958.00,0.0193
2957.00,0.0192
2956.00,0.0191
2955.00,0.0191
2954.00,0.0190
2953.00,0.0190
2952.00,0.0191
2951.00,0.0191
2950.00,0.0192
2949.00,0.0192
2948.00,0.0193
2947.00,0.0193
2946.00,0.0193
2945.00,0.0194
2944.00,0.0195
2943.00,0.0196
2942.00,0.0197
2941.00,0.0198
2940.00,0.0199
2939.00,0.0199
2938.00,0.0200
2937.00,0.0200
2936.00,0.0201
2935.00,0.0201
2934.00,0.0200
2933.00,0.0199
2932.00,0.0198
2931.00,0.0196
2930.00,0.0195
2929.00,0.0193
2928.00,0.0191
2927.00,0.0189
2926.00,0.0187
2925.00,0.0186
2924.00,0.0184
2923.00,0.0182
2922.00,0.0180
2921.00,0.0177
2920.00,0.0175
2919.00,0.0172
2918.00,0.0170
2917.00,0.0169
2916.00,0.0169
2915.00,0.0169
2914.00,0.0171
2913.00,0.0173
2912.00,0.0175
2911.00,0.0176
2910.00,0.0178
2909.00,0.0178
2908.00,0.0179
2907.00,0.0179
2906.00,0.0179
2905.00,0.0179
2904.00,0.0179
2903.00,0.0179
2902.00,0.0179
2901.00,0.0179
2900.00,0.0179
2899.00,0.0179
2898.00,0.0178
2897.00,0.0178
2896.00,0.0178
2895.00,0.0178
2894.00,0.0179
2893.00,0.0179
2892.00,0.0179
2891.00,0.0179
2890.00,0.0179
2889.00,0.0180
2888.00,0.0180
2887.00,0.0180
2886.00,0.0181
2885.00,0.0181
2884.00,0.0182
2883.00,0.0182
2882.00,0.0183
2881.00,0.0183
2880.00,0.0184
2879.00,0.0184
2878.00,0.0185
2877.00,0.0185
2876.00,0.0184
2875.00,0.0184
2874.00,0.0183
2873.00,0.0183
2872.00,0.0183
2871.00,0.0182
2870.00,0.0181
2869.00,0.0180
2868.00,0.0179
2867.00,0.0177
2866.00,0.0176
2865.00,0.0174
2864.00,0.0173
2863.00,0.0172
2862.00,0.0170
2861.00,0.0169
2860.00,0.0167
2859.00,0.0165
2858.00,0.0163
2857.00,0.0161
2856.00,0.0159
2855.00,0.0156
2854.00,0.0154
2853.00,0.0152
2852.00,0.0151
2851.00,0.0151
2850.00,0.0151
2849.00,0.0153
2848.00,0.0155
2847.00,0.0158
2846.00,0.0160
2845.00,0.0162
2844.00,0.0163
2843.00,0.0164
2842.00,0.0165
2841.00,0.0165
2840.00,0.0165
2839.00,0.0165
2838.00,0.0165
2837.00,0.0166
2836.00,0.0166
2835.00,0.0166
2834.00,0.0166
2833.00,0.0166
2832.00,0.0166
2831.00,0.0166
2830.00,0.0167
2829.00,0.0167
2828.00,0.0167
2827.00,0.0167
2826.00,0.0167
2825.00,0.0167
2824.00,0.0167
2823.00,0.0167
2822.00,0.0167
2821.00,0.0167
2820.00,0.0167
2819.00,0.0167
2818.00,0.0167
2817.00,0.0167
2816.00,0.0167
2815.00,0.0167
2814.00,0.0167
2813.00,0.0167
2812.00,0.0167
2811.00,0.0167
2810.00,0.0167
2809.00,0.0167
2808.00,0.0167
2807.00,0.0167
2806.00,0.0167
2805.00,0.0167
2804.00,0.0167
2803.00,0.0166
2802.00,0.0166
2801.00,0.0166
2800.00,0.0166
2799.00,0.0166
2798.00,0.0165
2797.00,0.0165
2796.00,0.0165
2795.00,0.0165
2794.00,0.0165
2793.00,0.0165
2792.00,0.0165
2791.00,0.0165
2790.00,0.0165
2789.00,0.0165
2788.00,0.0165
2787.00,0.0164
2786.00,0.0164
2785.00,0.0164
2784.00,0.0164
2783.00,0.0164
2782.00,0.0164
2781.00,0.0164
2780.00,0.0163
2779.00,0.0163
2778.00,0.0163
2777.00,0.0162
2776.00,0.0162
2775.00,0.0162
2774.00,0.0162
2773.00,0.0161
2772.00,0.0161
2771.00,0.0161
2770.00,0.0161
2769.00,0.0161
2768.00,0.0161
2767.00,0.0161
2766.00,0.0161
2765.00,0.0161
2764.00,0.0161
2763.00,0.0160
2762.00,0.0160
2761.00,0.0160
2760.00,0.0159
2759.00,0.0159
2758.00,0.0159
2757.00,0.0159
2756.00,0.0158
2755.00,0.0158
2754.00,0.0158
2753.00,0.0158
2752.00,0.0158
2751.00,0.0157
2750.00,0.0157
2749.00,0.0157
2748.00,0.0156
2747.00,0.0156
2746.00,0.0156
2745.00,0.0156
2744.00,0.0156
2743.00,0.0156
2742.00,0.0155
2741.00,0.0155
2740.00,0.0155
2739.00,0.0155
2738.00,0.0154
2737.00,0.0154
2736.00,0.0154
2735.00,0.0154
2734.00,0.0154
2733.00,0.0153
2732.00,0.0153
2731.00,0.0153
2730.00,0.0153
2729.00,0.0153
2728.00,0.0153
2727.00,0.0152
2726.00,0.0152
2725.00,0.0152
2724.00,0.0152
2723.00,0.0152
2722.00,0.0151
2721.00,0.0151
2720.00,0.0151
2719.00,0.0151
2718.00,0.0151
2717.00,0.0150
2716.00,0.0150
2715.00,0.0150
2714.00,0.0150
2713.00,0.0150
2712.00,0.0149
2711.00,0.0149
2710.00,0.0149
2709.00,0.0149
2708.00,0.0149
2707.00,0.0148
2706.00,0.0148
2705.00,0.0148
2704.00,0.0148
2703.00,0.0148
2702.00,0.0148
2701.00,0.0148
2700.00,0.0148
2699.00,0.0147
2698.00,0.0147
2697.00,0.0147
2696.00,0.0147
2695.00,0.0147
2694.00,0.0147
2693.00,0.0147
2692.00,0.0146
2691.00,0.0146
2690.00,0.0146
2689.00,0.0146
2688.00,0.0146
2687.00,0.0146
2686.00,0.0146
2685.00,0.0145
2684.00,0.0145
2683.00,0.0145
2682.00,0.0145
2681.00,0.0144
2680.00,0.0144
2679.00,0.0144
2678.00,0.0144
2677.00,0.0144
2676.00,0.0144
2675.00,0.0144
2674.00,0.0144
2673.00,0.0144
2672.00,0.0144
2671.00,0.0144
2670.00,0.0144
2669.00,0.0144
2668.00,0.0144
2667.00,0.0145
2666.00,0.0145
2665.00,0.0145
2664.00,0.0145
2663.00,0.0146
2662.00,0.0146
2661.00,0.0146
2660.00,0.0147
2659.00,0.0147
2658.00,0.0147
2657.00,0.0147
2656.00,0.0146
2655.00,0.0146
2654.00,0.0146
2653.00,0.0146
2652.00,0.0146
2651.00,0.0146
2650.00,0.0146
2649.00,0.0146
2648.00,0.0147
2647.00,0.0147
2646.00,0.0147
2645.00,0.0147
2644.00,0.0147
2643.00,0.0147
2642.00,0.0146
2641.00,0.0146
2640.00,0.0146
2639.00,0.0146
2638.00,0.0146
2637.00,0.0146
2636.00,0.0146
2635.00,0.0146
2634.00,0.0146
2633.00,0.0146
2632.00,0.0146
2631.00,0.0146
2630.00,0.0145
2629.00,0.0145
2628.00,0.0145
2627.00,0.0145
2626.00,0.0145
2625.00,0.0145
2624.00,0.0145
2623.00,0.0145
2622.00,0.0145
2621.00,0.0145
2620.00,0.0145
2619.00,0.0145
2618.00,0.0145
2617.00,0.0145
2616.00,0.0145
2615.00,0.0145
2614.00,0.0144
2613.00,0.0144
2612.00,0.0144
2611.00,0.0144
2610.00,0.0144
2609.00,0.0144
2608.00,0.0143
2607.00,0.0143
2606.00,0.0143
2605.00,0.0143
2604.00,0.0143
2603.00,0.0143
2602.00,0.0143
2601.00,0.0143
2600.00,0.0142
2599.00,0.0142
2598.00,0.0142
2597.00,0.0142
2596.00,0.0141
2595.00,0.0141
2594.00,0.0141
2593.00,0.0140
2592.00,0.0140
2591.00,0.0140
2590.00,0.0140
2589.00,0.0140
2588.00,0.0140
2587.00,0.0140
2586.00,0.0140
2585.00,0.0140
2584.00,0.0140
2583.00,0.0139
2582.00,0.0139
2581.00,0.0139
2580.00,0.0138
2579.00,0.0138
2578.00,0.0137
2577.00,0.0137
2576.00,0.0137
2575.00,0.0137
2574.00,0.0137
2573.00,0.0137
2572.00,0.0137
2571.00,0.0136
2570.00,0.0136
2569.00,0.0136
2568.00,0.0135
2567.00,0.0135
2566.00,0.0135
2565.00,0.0135
2564.00,0.0135
2563.00,0.0135
2562.00,0.0135
2561.00,0.0134
2560.00,0.0134
2559.00,0.0134
2558.00,0.0134
2557.00,0.0134
2556.00,0.0134
2555.00,0.0134
2554.00,0.0134
2553.00,0.0134
2552.00,0.0134
2551.00,0.0134
2550.00,0.0133
2549.00,0.0133
2548.00,0.0133
2547.00,0.0133
2546.00,0.0133
2545.00,0.0133
2544.00,0.0133
2543.00,0.0132
2542.00,0.0132
2541.00,0.0132
2540.00,0.0132
2539.00,0.0133
2538.00,0.0133
2537.00,0.0133
2536.00,0.0133
2535.00,0.0133
2534.00,0.0133
2533.00,0.0133
2532.00,0.0133
2531.00,0.0133
2530.00,0.0133
2529.00,0.0132
2528.00,0.0132
2527.00,0.0132
2526.00,0.0132
2525.00,0.0132
2524.00,0.0132
2523.00,0.0132
2522.00,0.0132
2521.00,0.0132
2520.00,0.0132
2519.00,0.0132
2518.00,0.0132
2517.00,0.0132
2516.00,0.0131
2515.00,0.0131
2514.00,0.0131
2513.00,0.0131
2512.00,0.0132
2511.00,0.0131
2510.00,0.0131
2509.00,0.0131
2508.00,0.0131
2507.00,0.0131
2506.00,0.0131
2505.00,0.0131
2504.00,0.0132
2503.00,0.0132
2502.00,0.0132
2501.00,0.0132
2500.00,0.0131
2499.00,0.0131
2498.00,0.0131
2497.00,0.0131
2496.00,0.0131
2495.00,0.0131
2494.00,0.0131
2493.00,0.0131
2492.00,0.0130
2491.00,0.0130
2490.00,0.0130
2489.00,0.0130
2488.00,0.0130
2487.00,0.0130
2486.00,0.0130
2485.00,0.0130
2484.00,0.0130
2483.00,0.0130
2482.00,0.0130
2481.00,0.0130
2480.00,0.0130
2479.00,0.0130
2478.00,0.0130
2477.00,0.0130
2476.00,0.0130
2475.00,0.0130
2474.00,0.0130
2473.00,0.0130
2472.00,0.0130
2471.00,0.0129
2470.00,0.0129
2469.00,0.0129
2468.00,0.0130
2467.00,0.0130
2466.00,0.0130
2465.00,0.0129
2464.00,0.0129
2463.00,0.0129
2462.00,0.0129
2461.00,0.0129
2460.00,0.0129
2459.00,0.0130
2458.00,0.0130
2457.00,0.0131
2456.00,0.0131
2455.00,0.0131
2454.00,0.0131
2453.00,0.0130
2452.00,0.0131
2451.00,0.0131
2450.00,0.0131
2449.00,0.0131
2448.00,0.0130
2447.00,0.0130
2446.00,0.0130
2445.00,0.0129
2444.00,0.0129
2443.00,0.0129
2442.00,0.0129
2441.00,0.0129
2440.00,0.0129
2439.00,0.0129
2438.00,0.0128
2437.00,0.0128
2436.00,0.0128
2435.00,0.0128
2434.00,0.0128
2433.00,0.0127
2432.00,0.0127
2431.00,0.0127
2430.00,0.0127
2429.00,0.0127
2428.00,0.0127
2427.00,0.0127
2426.00,0.0127
2425.00,0.0127
2424.00,0.0127
2423.00,0.0127
2422.00,0.0127
2421.00,0.0126
2420.00,0.0126
2419.00,0.0125
2418.00,0.0125
2417.00,0.0125
2416.00,0.0125
2415.00,0.0125
2414.00,0.0125
2413.00,0.0124
2412.00,0.0124
2411.00,0.0124
2410.00,0.0124
2409.00,0.0124
2408.00,0.0123
2407.00,0.0123
2406.00,0.0122
2405.00,0.0122
2404.00,0.0122
2403.00,0.0122
2402.00,0.0123
2401.00,0.0123
2400.00,0.0123
2399.00,0.0123
2398.00,0.0123
2397.00,0.0123
2396.00,0.0123
2395.00,0.0123
2394.00,0.0122
2393.00,0.0122
2392.00,0.0122
2391.00,0.0122
2390.00,0.0122
2389.00,0.0122
2388.00,0.0121
2387.00,0.0121
2386.00,0.0121
2385.00,0.0120
2384.00,0.0120
2383.00,0.0119
2382.00,0.0119
2381.00,0.0118
2380.00,0.0118
2379.00,0.0118
2378.00,0.0119
2377.00,0.0119
2376.00,0.0119
2375.00,0.0119
2374.00,0.0119
2373.00,0.0118
2372.00,0.0118
2371.00,0.0118
2370.00,0.0118
2369.00,0.0118
2368.00,0.0118
2367.00,0.0118
2366.00,0.0117
2365.00,0.0117
2364.00,0.0117
2363.00,0.0117
2362.00,0.0117
2361.00,0.0118
2360.00,0.0118
2359.00,0.0118
2358.00,0.0118
2357.00,0.0118
2356.00,0.0118
2355.00,0.0118
2354.00,0.0118
2353.00,0.0118
2352.00,0.0118
2351.00,0.0119
2350.00,0.0119
2349.00,0.0119
2348.00,0.0119
2347.00,0.0119
2346.00,0.0118
2345.00,0.0118
2344.00,0.0118
2343.00,0.0119
2342.00,0.0119
2341.00,0.0120
2340.00,0.0121
2339.00,0.0122
2338.00,0.0122
2337.00,0.0123
2336.00,0.0123
2335.00,0.0123
2334.00,0.0123
2333.00,0.0122
2332.00,0.0122
2331.00,0.0121
2330.00,0.0122
2329.00,0.0124
2328.00,0.0128
2327.00,0.0132
2326.00,0.0136
2325.00,0.0137
2324.00,0.0136
2323.00,0.0134
2322.00,0.0131
2321.00,0.0130
2320.00,0.0129
2319.00,0.0129
2318.00,0.0129
2317.00,0.0129
2316.00,0.0128
2315.00,0.0127
2314.00,0.0127
2313.00,0.0126
2312.00,0.0126
2311.00,0.0125
2310.00,0.0125
2309.00,0.0125
2308.00,0.0125
2307.00,0.0125
2306.00,0.0125
2305.00,0.0125
2304.00,0.0126
2303.00,0.0126
2302.00,0.0126
2301.00,0.0126
2300.00,0.0126
2299.00,0.0126
2298.00,0.0127
2297.00,0.0127
2296.00,0.0128
2295.00,0.0128
2294.00,0.0129
2293.00,0.0130
2292.00,0.0131
2291.00,0.0132
2290.00,0.0132
2289.00,0.0133
2288.00,0.0134
2287.00,0.0134
2286.00,0.0134
2285.00,0.0133
2284.00,0.0133
2283.00,0.0132
2282.00,0.0131
2281.00,0.0130
2280.00,0.0129
2279.00,0.0129
2278.00,0.0128
2277.00,0.0128
2276.00,0.0128
2275.00,0.0128
2274.00,0.0127
2273.00,0.0127
2272.00,0.0127
2271.00,0.0127
2270.00,0.0127
2269.00,0.0126
2268.00,0.0126
2267.00,0.0125
2266.00,0.0124
2265.00,0.0123
2264.00,0.0123
2263.00,0.0123
2262.00,0.0123
2261.00,0.0124
2260.00,0.0125
2259.00,0.0125
2258.00,0.0125
2257.00,0.0124
2256.00,0.0123
2255.00,0.0122
2254.00,0.0122
2253.00,0.0122
2252.00,0.0123
2251.00,0.0123
2250.00,0.0122
2249.00,0.0122
2248.00,0.0122
2247.00,0.0122
2246.00,0.0123
2245.00,0.0123
2244.00,0.0123
2243.00,0.0123
2242.00,0.0123
2241.00,0.0123
2240.00,0.0123
2239.00,0.0123
2238.00,0.0123
2237.00,0.0123
2236.00,0.0123
2235.00,0.0122
2234.00,0.0122
2233.00,0.0122
2232.00,0.0122
2231.00,0.0123
2230.00,0.0123
2229.00,0.0122
2228.00,0.0122
2227.00,0.0122
2226.00,0.0122
2225.00,0.0123
2224.00,0.0123
2223.00,0.0122
2222.00,0.0122
2221.00,0.0121
2220.00,0.0120
2219.00,0.0120
2218.00,0.0120
2217.00,0.0121
2216.00,0.0121
2215.00,0.0121
2214.00,0.0121
2213.00,0.0120
2212.00,0.0120
2211.00,0.0120
2210.00,0.0121
2209.00,0.0121
2208.00,0.0122
2207.00,0.0123
2206.00,0.0123
2205.00,0.0122
2204.00,0.0122
2203.00,0.0121
2202.00,0.0121
2201.00,0.0122
2200.00,0.0123
2199.00,0.0123
2198.00,0.0122
2197.00,0.0122
2196.00,0.0121
2195.00,0.0120
2194.00,0.0120
2193.00,0.0120
2192.00,0.0122
2191.00,0.0123
2190.00,0.0124
2189.00,0.0125
2188.00,0.0125
2187.00,0.0124
2186.00,0.0123
2185.00,0.0121
2184.00,0.0119
2183.00,0.0117
2182.00,0.0116
2181.00,0.0115
2180.00,0.0116
2179.00,0.0115
2178.00,0.0114
2177.00,0.0112
2176.00,0.0112
2175.00,0.0114
2174.00,0.0116
2173.00,0.0118
2172.00,0.0120
2171.00,0.0123
2170.00,0.0125
2169.00,0.0127
2168.00,0.0128
2167.00,0.0129
2166.00,0.0130
2165.00,0.0133
2164.00,0.0135
2163.00,0.0135
2162.00,0.0129
2161.00,0.0117
2160.00,0.0102
2159.00,0.0089
2158.00,0.0083
2157.00,0.0083
2156.00,0.0087
2155.00,0.0090
2154.00,0.0093
2153.00,0.0096
2152.00,0.0097
2151.00,0.0099
2150.00,0.0100
2149.00,0.0100
2148.00,0.0100
2147.00,0.0099
2146.00,0.0098
2145.00,0.0098
2144.00,0.0099
2143.00,0.0099
2142.00,0.0100
2141.00,0.0101
2140.00,0.0101
2139.00,0.0101
2138.00,0.0099
2137.00,0.0097
2136.00,0.0095
2135.00,0.0094
2134.00,0.0094
2133.00,0.0096
2132.00,0.0098
2131.00,0.0100
2130.00,0.0102
2129.00,0.0103
2128.00,0.0104
2127.00,0.0105
2126.00,0.0106
2125.00,0.0107
2124.00,0.0108
2123.00,0.0109
2122.00,0.0109
2121.00,0.0110
2120.00,0.0111
2119.00,0.0113
2118.00,0.0114
2117.00,0.0115
2116.00,0.0117
2115.00,0.0117
2114.00,0.0116
2113.00,0.0116
2112.00,0.0116
2111.00,0.0116
2110.00,0.0116
2109.00,0.0117
2108.00,0.0117
2107.00,0.0116
2106.00,0.0116
2105.00,0.0116
2104.00,0.0116
2103.00,0.0116
2102.00,0.0117
2101.00,0.0117
2100.00,0.0116
2099.00,0.0116
2098.00,0.0114
2097.00,0.0112
2096.00,0.0110
2095.00,0.0109
2094.00,0.0109
2093.00,0.0109
2092.00,0.0111
2091.00,0.0112
2090.00,0.0113
2089.00,0.0114
2088.00,0.0114
2087.00,0.0114
2086.00,0.0114
2085.00,0.0114
2084.00,0.0115
2083.00,0.0115
2082.00,0.0115
2081.00,0.0115
2080.00,0.0116
2079.00,0.0116
2078.00,0.0116
2077.00,0.0116
2076.00,0.0116
2075.00,0.0116
2074.00,0.0115
2073.00,0.0115
2072.00,0.0114
2071.00,0.0114
2070.00,0.0114
2069.00,0.0114
2068.00,0.0114
2067.00,0.0113
2066.00,0.0113
2065.00,0.0113
2064.00,0.0113
2063.00,0.0113
2062.00,0.0113
2061.00,0.0113
2060.00,0.0112
2059.00,0.0111
2058.00,0.0111
2057.00,0.0111
2056.00,0.0111
2055.00,0.0112
2054.00,0.0114
2053.00,0.0118
2052.00,0.0121
2051.00,0.0121
2050.00,0.0118
2049.00,0.0115
2048.00,0.0113
2047.00,0.0113
2046.00,0.0112
2045.00,0.0112
2044.00,0.0112
2043.00,0.0111
2042.00,0.0111
2041.00,0.0112
2040.00,0.0113
2039.00,0.0114
2038.00,0.0114
2037.00,0.0114
2036.00,0.0112
2035.00,0.0110
2034.00,0.0108
2033.00,0.0108
2032.00,0.0108
2031.00,0.0107
2030.00,0.0105
2029.00,0.0102
2028.00,0.0100
2027.00,0.0098
2026.00,0.0097
2025.00,0.0097
2024.00,0.0099
2023.00,0.0100
2022.00,0.0100
2021.00,0.0101
2020.00,0.0101
2019.00,0.0101
2018.00,0.0101
2017.00,0.0101
2016.00,0.0101
2015.00,0.0100
2014.00,0.0099
2013.00,0.0099
2012.00,0.0100
2011.00,0.0101
2010.00,0.0100
2009.00,0.0099
2008.00,0.0096
2007.00,0.0093
2006.00,0.0092
2005.00,0.0092
2004.00,0.0093
2003.00,0.0094
2002.00,0.0095
2001.00,0.0096
2000.00,0.0098
1999.00,0.0099
1998.00,0.0101
1997.00,0.0103
1996.00,0.0104
1995.00,0.0104
1994.00,0.0103
1993.00,0.0102
1992.00,0.0102
1991.00,0.0101
1990.00,0.0101
1989.00,0.0102
1988.00,0.0104
1987.00,0.0105
1986.00,0.0107
1985.00,0.0108
1984.00,0.0111
1983.00,0.0113
1982.00,0.0115
1981.00,0.0114
1980.00,0.0111
1979.00,0.0104
1978.00,0.0097
1977.00,0.0093
1976.00,0.0092
1975.00,0.0092
1974.00,0.0092
1973.00,0.0092
1972.00,0.0093
1971.00,0.0092
1970.00,0.0091
1969.00,0.0092
1968.00,0.0093
1967.00,0.0094
1966.00,0.0094
1965.00,0.0093
1964.00,0.0092
1963.00,0.0090
1962.00,0.0087
1961.00,0.0085
1960.00,0.0085
1959.00,0.0085
1958.00,0.0086
1957.00,0.0088
1956.00,0.0090
1955.00,0.0090
1954.00,0.0089
1953.00,0.0089
1952.00,0.0088
1951.00,0.0088
1950.00,0.0089
1949.00,0.0090
1948.00,0.0091
1947.00,0.0091
1946.00,0.0091
1945.00,0.0090
1944.00,0.0090
1943.00,0.0090
1942.00,0.0090
1941.00,0.0091
1940.00,0.0091
1939.00,0.0091
1938.00,0.0091
1937.00,0.0090
1936.00,0.0090
1935.00,0.0090
1934.00,0.0090
1933.00,0.0091
1932.00,0.0091
1931.00,0.0091
1930.00,0.0091
1929.00,0.0091
1928.00,0.0092
1927.00,0.0092
1926.00,0.0091
1925.00,0.0090
1924.00,0.0090
1923.00,0.0090
1922.00,0.0090
1921.00,0.0089
1920.00,0.0089
1919.00,0.0088
1918.00,0.0089
1917.00,0.0090
1916.00,0.0091
1915.00,0.0092
1914.00,0.0091
1913.00,0.0092
1912.00,0.0092
1911.00,0.0092
1910.00,0.0092
1909.00,0.0092
1908.00,0.0093
1907.00,0.0092
1906.00,0.0092
1905.00,0.0092
1904.00,0.0092
1903.00,0.0091
1902.00,0.0091
1901.00,0.0091
1900.00,0.0091
1899.00,0.0091
1898.00,0.0091
1897.00,0.0091
1896.00,0.0092
1895.00,0.0092
1894.00,0.0092
1893.00,0.0091
1892.00,0.0090
1891.00,0.0089
1890.00,0.0089
1889.00,0.0090
1888.00,0.0090
1887.00,0.0090
1886.00,0.0089
1885.00,0.0089
1884.00,0.0090
1883.00,0.0090
1882.00,0.0090
1881.00,0.0089
1880.00,0.0089
1879.00,0.0089
1878.00,0.0089
1877.00,0.0089
1876.00,0.0090
1875.00,0.0090
1874.00,0.0090
1873.00,0.0089
1872.00,0.0088
1871.00,0.0087
1870.00,0.0086
1869.00,0.0086
1868.00,0.0087
1867.00,0.0087
1866.00,0.0087
1865.00,0.0087
1864.00,0.0087
1863.00,0.0087
1862.00,0.0087
1861.00,0.0086
1860.00,0.0086
1859.00,0.0086
1858.00,0.0085
1857.00,0.0085
1856.00,0.0086
1855.00,0.0086
1854.00,0.0086
1853.00,0.0086
1852.00,0.0086
1851.00,0.0085
1850.00,0.0084
1849.00,0.0084
1848.00,0.0084
1847.00,0.0083
1846.00,0.0082
1845.00,0.0081
1844.00,0.0081
1843.00,0.0082
1842.00,0.0081
1841.00,0.0081
1840.00,0.0081
1839.00,0.0082
1838.00,0.0082
1837.00,0.0082
1836.00,0.0083
1835.00,0.0083
1834.00,0.0082
1833.00,0.0082
1832.00,0.0081
1831.00,0.0080
1830.00,0.0080
1829.00,0.0081
1828.00,0.0081
1827.00,0.0080
1826.00,0.0079
1825.00,0.0079
1824.00,0.0080
1823.00,0.0080
1822.00,0.0080
1821.00,0.0079
1820.00,0.0079
1819.00,0.0078
1818.00,0.0077
1817.00,0.0077
1816.00,0.0077
1815.00,0.0077
1814.00,0.0077
1813.00,0.0077
1812.00,0.0077
1811.00,0.0078
1810.00,0.0078
1809.00,0.0078
1808.00,0.0079
1807.00,0.0079
1806.00,0.0078
1805.00,0.0078
1804.00,0.0078
1803.00,0.0077
1802.00,0.0076
1801.00,0.0076
1800.00,0.0076
1799.00,0.0076
1798.00,0.0076
1797.00,0.0076
1796.00,0.0077
1795.00,0.0076
1794.00,0.0075
1793.00,0.0075
1792.00,0.0074
1791.00,0.0074
1790.00,0.0073
1789.00,0.0073
1788.00,0.0073
1787.00,0.0073
1786.00,0.0073
1785.00,0.0072
1784.00,0.0072
1783.00,0.0072
1782.00,0.0071
1781.00,0.0071
1780.00,0.0071
1779.00,0.0071
1778.00,0.0070
1777.00,0.0069
1776.00,0.0068
1775.00,0.0068
1774.00,0.0066
1773.00,0.0066
1772.00,0.0066
1771.00,0.0066
1770.00,0.0064
1769.00,0.0062
1768.00,0.0061
1767.00,0.0061
1766.00,0.0062
1765.00,0.0062
1764.00,0.0062
1763.00,0.0061
1762.00,0.0061
1761.00,0.0060
1760.00,0.0060
1759.00,0.0058
1758.00,0.0057
1757.00,0.0056
1756.00,0.0056
1755.00,0.0055
1754.00,0.0053
1753.00,0.0051
1752.00,0.0049
1751.00,0.0047
1750.00,0.0045
1749.00,0.0043
1748.00,0.0043
1747.00,0.0043
1746.00,0.0043
1745.00,0.0042
1744.00,0.0041
1743.00,0.0041
1742.00,0.0040
1741.00,0.0039
1740.00,0.0038
1739.00,0.0038
1738.00,0.0037
1737.00,0.0036
1736.00,0.0036
1735.00,0.0036
1734.00,0.0036
1733.00,0.0037
1732.00,0.0037
1731.00,0.0037
1730.00,0.0038
1729.00,0.0041
1728.00,0.0044
1727.00,0.0046
1726.00,0.0047
1725.00,0.0048
1724.00,0.0051
1723.00,0.0052
1722.00,0.0053
1721.00,0.0054
1720.00,0.0055
1719.00,0.0056
1718.00,0.0058
1717.00,0.0061
1716.00,0.0066
1715.00,0.0070
1714.00,0.0075
1713.00,0.0082
1712.00,0.0090
1711.00,0.0100
1710.00,0.0111
1709.00,0.0123
1708.00,0.0138
1707.00,0.0156
1706.00,0.0179
1705.00,0.0207
1704.00,0.0233
1703.00,0.0254
1702.00,0.0272
1701.00,0.0294
1700.00,0.0317
1699.00,0.0331
1698.00,0.0334
1697.00,0.0334
1696.00,0.0334
1695.00,0.0333
1694.00,0.0331
1693.00,0.0328
1692.00,0.0327
1691.00,0.0328
1690.00,0.0331
1689.00,0.0334
1688.00,0.0336
1687.00,0.0339
1686.00,0.0341
1685.00,0.0346
1684.00,0.0356
1683.00,0.0366
1682.00,0.0371
1681.00,0.0377
1680.00,0.0385
1679.00,0.0394
1678.00,0.0402
1677.00,0.0409
1676.00,0.0418
1675.00,0.0429
1674.00,0.0440
1673.00,0.0448
1672.00,0.0456
1671.00,0.0465
1670.00,0.0478
1669.00,0.0492
1668.00,0.0504
1667.00,0.0514
1666.00,0.0523
1665.00,0.0532
1664.00,0.0544
1663.00,0.0558
1662.00,0.0573
1661.00,0.0587
1660.00,0.0600
1659.00,0.0612
1658.00,0.0625
1657.00,0.0636
1656.00,0.0645
1655.00,0.0655
1654.00,0.0670
1653.00,0.0697
1652.00,0.0722
1651.00,0.0733
1650.00,0.0739
1649.00,0.0749
1648.00,0.0764
1647.00,0.0786
1646.00,0.0808
1645.00,0.0825
1644.00,0.0839
1643.00,0.0853
1642.00,0.0869
1641.00,0.0886
1640.00,0.0903
1639.00,0.0919
1638.00,0.0934
1637.00,0.0954
1636.00,0.0982
1635.00,0.1014
1634.00,0.1039
1633.00,0.1057
1632.00,0.1075
1631.00,0.1095
1630.00,0.1115
1629.00,0.1138
1628.00,0.1162
1627.00,0.1184
1626.00,0.1203
1625.00,0.1219
1624.00,0.1237
1623.00,0.1255
1622.00,0.1271
1621.00,0.1279
1620.00,0.1283
1619.00,0.1283
1618.00,0.1280
1617.00,0.1275
1616.00,0.1269
1615.00,0.1257
1614.00,0.1241
1613.00,0.1222
1612.00,0.1201
1611.00,0.1178
1610.00,0.1153
1609.00,0.1125
1608.00,0.1095
1607.00,0.1065
1606.00,0.1033
1605.00,0.1001
1604.00,0.0969
1603.00,0.0938
1602.00,0.0908
1601.00,0.0880
1600.00,0.0854
1599.00,0.0830
1598.00,0.0807
1597.00,0.0786
1596.00,0.0765
1595.00,0.0746
1594.00,0.0727
1593.00,0.0709
1592.00,0.0691
1591.00,0.0674
1590.00,0.0658
1589.00,0.0644
1588.00,0.0631
1587.00,0.0619
1586.00,0.0608
1585.00,0.0599
1584.00,0.0591
1583.00,0.0585
1582.00,0.0581
1581.00,0.0578
1580.00,0.0575
1579.00,0.0572
1578.00,0.0570
1577.00,0.0572
1576.00,0.0576
1575.00,0.0580
1574.00,0.0582
1573.00,0.0583
1572.00,0.0584
1571.00,0.0588
1570.00,0.0596
1569.00,0.0607
1568.00,0.0617
1567.00,0.0624
1566.00,0.0633
1565.00,0.0644
1564.00,0.0655
1563.00,0.0663
1562.00,0.0668
1561.00,0.0673
1560.00,0.0681
1559.00,0.0703
1558.00,0.0727
1557.00,0.0738
1556.00,0.0743
1555.00,0.0751
1554.00,0.0763
1553.00,0.0775
1552.00,0.0785
1551.00,0.0794
1550.00,0.0806
1549.00,0.0818
1548.00,0.0829
1547.00,0.0837
1546.00,0.0846
1545.00,0.0858
1544.00,0.0870
1543.00,0.0881
1542.00,0.0892
1541.00,0.0908
1540.00,0.0932
1539.00,0.0955
1538.00,0.0968
1537.00,0.0975
1536.00,0.0980
1535.00,0.0987
1534.00,0.1001
1533.00,0.1020
1532.00,0.1035
1531.00,0.1046
1530.00,0.1056
1529.00,0.1066
1528.00,0.1077
1527.00,0.1090
1526.00,0.1103
1525.00,0.1114
1524.00,0.1124
1523.00,0.1134
1522.00,0.1150
1521.00,0.1172
1520.00,0.1190
1519.00,0.1202
1518.00,0.1216
1517.00,0.1234
1516.00,0.1253
1515.00,0.1266
1514.00,0.1271
1513.00,0.1272
1512.00,0.1269
1511.00,0.1264
1510.00,0.1256
1509.00,0.1245
1508.00,0.1234
1507.00,0.1226
1506.00,0.1222
1505.00,0.1212
1504.00,0.1198
1503.00,0.1183
1502.00,0.1168
1501.00,0.1151
1500.00,0.1133
1499.00,0.1115
1498.00,0.1096
1497.00,0.1077
1496.00,0.1057
1495.00,0.1038
1494.00,0.1019
1493.00,0.0999
1492.00,0.0977
1491.00,0.0955
1490.00,0.0933
1489.00,0.0914
1488.00,0.0895
1487.00,0.0877
1486.00,0.0859
1485.00,0.0842
1484.00,0.0825
1483.00,0.0808
1482.00,0.0793
1481.00,0.0778
1480.00,0.0765
1479.00,0.0751
1478.00,0.0738
1477.00,0.0724
1476.00,0.0711
1475.00,0.0700
1474.00,0.0688
1473.00,0.0679
1472.00,0.0674
1471.00,0.0669
1470.00,0.0663
1469.00,0.0657
1468.00,0.0651
1467.00,0.0646
1466.00,0.0641
1465.00,0.0639
1464.00,0.0638
1463.00,0.0638
1462.00,0.0637
1461.00,0.0636
1460.00,0.0637
1459.00,0.0639
1458.00,0.0647
1457.00,0.0663
1456.00,0.0682
1455.00,0.0696
1454.00,0.0709
1453.00,0.0724
1452.00,0.0740
1451.00,0.0755
1450.00,0.0769
1449.00,0.0781
1448.00,0.0793
1447.00,0.0803
1446.00,0.0809
1445.00,0.0814
1444.00,0.0816
1443.00,0.0817
1442.00,0.0818
1441.00,0.0816
1440.00,0.0813
1439.00,0.0807
1438.00,0.0797
1437.00,0.0786
1436.00,0.0774
1435.00,0.0761
1434.00,0.0747
1433.00,0.0733
1432.00,0.0718
1431.00,0.0704
1430.00,0.0690
1429.00,0.0677
1428.00,0.0666
1427.00,0.0656
1426.00,0.0647
1425.00,0.0640
1424.00,0.0635
1423.00,0.0632
1422.00,0.0628
1421.00,0.0623
1420.00,0.0621
1419.00,0.0621
1418.00,0.0624
1417.00,0.0626
1416.00,0.0628
1415.00,0.0631
1414.00,0.0633
1413.00,0.0635
1412.00,0.0637
1411.00,0.0640
1410.00,0.0642
1409.00,0.0643
1408.00,0.0643
1407.00,0.0643
1406.00,0.0642
1405.00,0.0641
1404.00,0.0640
1403.00,0.0638
1402.00,0.0635
1401.00,0.0632
1400.00,0.0628
1399.00,0.0625
1398.00,0.0622
1397.00,0.0618
1396.00,0.0615
1395.00,0.0614
1394.00,0.0613
1393.00,0.0612
1392.00,0.0611
1391.00,0.0609
1390.00,0.0608
1389.00,0.0605
1388.00,0.0603
1387.00,0.0602
1386.00,0.0601
1385.00,0.0600
1384.00,0.0598
1383.00,0.0597
1382.00,0.0595
1381.00,0.0594
1380.00,0.0592
1379.00,0.0591
1378.00,0.0589
1377.00,0.0588
1376.00,0.0587
1375.00,0.0588
1374.00,0.0589
1373.00,0.0592
1372.00,0.0593
1371.00,0.0594
1370.00,0.0596
1369.00,0.0597
1368.00,0.0597
1367.00,0.0595
1366.00,0.0592
1365.00,0.0587
1364.00,0.0580
1363.00,0.0573
1362.00,0.0567
1361.00,0.0561
1360.00,0.0555
1359.00,0.0550
1358.00,0.0545
1357.00,0.0541
1356.00,0.0538
1355.00,0.0535
1354.00,0.0532
1353.00,0.0530
1352.00,0.0528
1351.00,0.0526
1350.00,0.0525
1349.00,0.0524
1348.00,0.0524
1347.00,0.0524
1346.00,0.0524
1345.00,0.0524
1344.00,0.0524
1343.00,0.0525
1342.00,0.0525
1341.00,0.0525
1340.00,0.0525
1339.00,0.0526
1338.00,0.0527
1337.00,0.0528
1336.00,0.0528
1335.00,0.0528
1334.00,0.0527
1333.00,0.0526
1332.00,0.0524
1331.00,0.0523
1330.00,0.0520
1329.00,0.0518
1328.00,0.0516
1327.00,0.0513
1326.00,0.0511
1325.00,0.0508
1324.00,0.0505
1323.00,0.0502
1322.00,0.0500
1321.00,0.0497
1320.00,0.0495
1319.00,0.0494
1318.00,0.0493
1317.00,0.0492
1316.00,0.0491
1315.00,0.0490
1314.00,0.0489
1313.00,0.0489
1312.00,0.0489
1311.00,0.0489
1310.00,0.0489
1309.00,0.0489
1308.00,0.0488
1307.00,0.0488
1306.00,0.0487
1305.00,0.0486
1304.00,0.0485
1303.00,0.0484
1302.00,0.0482
1301.00,0.0481
1300.00,0.0479
1299.00,0.0477
1298.00,0.0475
1297.00,0.0473
1296.00,0.0471
1295.00,0.0470
1294.00,0.0468
1293.00,0.0467
1292.00,0.0466
1291.00,0.0465
1290.00,0.0465
1289.00,0.0465
1288.00,0.0466
1287.00,0.0467
1286.00,0.0469
1285.00,0.0471
1284.00,0.0473
1283.00,0.0476
1282.00,0.0479
1281.00,0.0482
1280.00,0.0485
1279.00,0.0489
1278.00,0.0494
1277.00,0.0500
1276.00,0.0506
1275.00,0.0513
1274.00,0.0521
1273.00,0.0530
1272.00,0.0540
1271.00,0.0550
1270.00,0.0561
1269.00,0.0571
1268.00,0.0581
1267.00,0.0590
1266.00,0.0599
1265.00,0.0607
1264.00,0.0614
1263.00,0.0620
1262.00,0.0625
1261.00,0.0628
1260.00,0.0630
1259.00,0.0632
1258.00,0.0632
1257.00,0.0632
1256.00,0.0632
1255.00,0.0633
1254.00,0.0633
1253.00,0.0634
1252.00,0.0634
1251.00,0.0636
1250.00,0.0637
1249.00,0.0640
1248.00,0.0642
1247.00,0.0645
1246.00,0.0649
1245.00,0.0653
1244.00,0.0657
1243.00,0.0663
1242.00,0.0668
1241.00,0.0674
1240.00,0.0681
1239.00,0.0688
1238.00,0.0696
1237.00,0.0704
1236.00,0.0712
1235.00,0.0720
1234.00,0.0728
1233.00,0.0735
1232.00,0.0741
1231.00,0.0747
1230.00,0.0750
1229.00,0.0753
1228.00,0.0753
1227.00,0.0752
1226.00,0.0750
1225.00,0.0747
1224.00,0.0743
1223.00,0.0739
1222.00,0.0733
1221.00,0.0728
1220.00,0.0722
1219.00,0.0715
1218.00,0.0708
1217.00,0.0700
1216.00,0.0692
1215.00,0.0684
1214.00,0.0675
1213.00,0.0666
1212.00,0.0656
1211.00,0.0645
1210.00,0.0634
1209.00,0.0623
1208.00,0.0612
1207.00,0.0601
1206.00,0.0590
1205.00,0.0578
1204.00,0.0567
1203.00,0.0555
1202.00,0.0544
1201.00,0.0533
1200.00,0.0523
1199.00,0.0514
1198.00,0.0505
1197.00,0.0497
1196.00,0.0490
1195.00,0.0483
1194.00,0.0477
1193.00,0.0471
1192.00,0.0466
1191.00,0.0462
1190.00,0.0457
1189.00,0.0453
1188.00,0.0449
1187.00,0.0446
1186.00,0.0443
1185.00,0.0441
1184.00,0.0439
1183.00,0.0439
1182.00,0.0439
1181.00,0.0439
1180.00,0.0441
1179.00,0.0444
1178.00,0.0449
1177.00,0.0454
1176.00,0.0461
1175.00,0.0468
1174.00,0.0475
1173.00,0.0481
1172.00,0.0487
1171.00,0.0491
1170.00,0.0495
1169.00,0.0498
1168.00,0.0500
1167.00,0.0501
1166.00,0.0502
1165.00,0.0502
1164.00,0.0502
1163.00,0.0502
1162.00,0.0502
1161.00,0.0501
1160.00,0.0499
1159.00,0.0497
1158.00,0.0494
1157.00,0.0491
1156.00,0.0488
1155.00,0.0484
1154.00,0.0479
1153.00,0.0474
1152.00,0.0469
1151.00,0.0464
1150.00,0.0458
1149.00,0.0453
1148.00,0.0447
1147.00,0.0442
1146.00,0.0437
1145.00,0.0432
1144.00,0.0427
1143.00,0.0423
1142.00,0.0419
1141.00,0.0415
1140.00,0.0411
1139.00,0.0408
1138.00,0.0405
1137.00,0.0403
1136.00,0.0400
1135.00,0.0398
1134.00,0.0396
1133.00,0.0394
1132.00,0.0392
1131.00,0.0391
1130.00,0.0389
1129.00,0.0388
1128.00,0.0386
1127.00,0.0384
1126.00,0.0383
1125.00,0.0381
1124.00,0.0380
1123.00,0.0379
1122.00,0.0377
1121.00,0.0376
1120.00,0.0375
1119.00,0.0374
1118.00,0.0373
1117.00,0.0372
1116.00,0.0371
1115.00,0.0370
1114.00,0.0369
1113.00,0.0368
1112.00,0.0367
1111.00,0.0367
1110.00,0.0367
1109.00,0.0367
1108.00,0.0368
1107.00,0.0369
1106.00,0.0370
1105.00,0.0371
1104.00,0.0372
1103.00,0.0372
1102.00,0.0372
1101.00,0.0371
1100.00,0.0371
1099.00,0.0369
1098.00,0.0368
1097.00,0.0366
1096.00,0.0365
1095.00,0.0365
1094.00,0.0365
1093.00,0.0365
1092.00,0.0366
1091.00,0.0367
1090.00,0.0370
1089.00,0.0373
1088.00,0.0377
1087.00,0.0381
1086.00,0.0386
1085.00,0.0391
1084.00,0.0396
1083.00,0.0402
1082.00,0.0409
1081.00,0.0415
1080.00,0.0422
1079.00,0.0429
1078.00,0.0436
1077.00,0.0444
1076.00,0.0451
1075.00,0.0458
1074.00,0.0465
1073.00,0.0471
1072.00,0.0476
1071.00,0.0481
1070.00,0.0485
1069.00,0.0488
1068.00,0.0490
1067.00,0.0492
1066.00,0.0493
1065.00,0.0494
1064.00,0.0494
1063.00,0.0493
1062.00,0.0492
1061.00,0.0490
1060.00,0.0487
1059.00,0.0485
1058.00,0.0482
1057.00,0.0479
1056.00,0.0475
1055.00,0.0472
1054.00,0.0468
1053.00,0.0464
1052.00,0.0460
1051.00,0.0456
1050.00,0.0453
1049.00,0.0451
1048.00,0.0450
1047.00,0.0449
1046.00,0.0447
1045.00,0.0446
1044.00,0.0444
1043.00,0.0442
1042.00,0.0440
1041.00,0.0438
1040.00,0.0435
1039.00,0.0433
1038.00,0.0430
1037.00,0.0427
1036.00,0.0424
1035.00,0.0420
1034.00,0.0417
1033.00,0.0413
1032.00,0.0409
1031.00,0.0405
1030.00,0.0401
1029.00,0.0397
1028.00,0.0393
1027.00,0.0390
1026.00,0.0387
1025.00,0.0384
1024.00,0.0381
1023.00,0.0379
1022.00,0.0378
1021.00,0.0378
1020.00,0.0379
1019.00,0.0380
1018.00,0.0382
1017.00,0.0384
1016.00,0.0386
1015.00,0.0388
1014.00,0.0389
1013.00,0.0390
1012.00,0.0391
1011.00,0.0391
1010.00,0.0392
1009.00,0.0392
1008.00,0.0393
1007.00,0.0395
1006.00,0.0398
1005.00,0.0401
1004.00,0.0405
1003.00,0.0410
1002.00,0.0414
1001.00,0.0418
1000.00,0.0422
999.00,0.0426
998.00,0.0428
997.00,0.0430
996.00,0.0431
995.00,0.0431
994.00,0.0430
993.00,0.0427
992.00,0.0423
991.00,0.0418
990.00,0.0412
989.00,0.0407
988.00,0.0402
987.00,0.0398
986.00,0.0395
985.00,0.0394
984.00,0.0394
983.00,0.0396
982.00,0.0399
981.00,0.0403
980.00,0.0408
979.00,0.0412
978.00,0.0417
977.00,0.0421
976.00,0.0423
975.00,0.0425
974.00,0.0425
973.00,0.0423
972.00,0.0420
971.00,0.0417
970.00,0.0412
969.00,0.0407
968.00,0.0402
967.00,0.0396
966.00,0.0392
965.00,0.0387
964.00,0.0384
963.00,0.0380
962.00,0.0377
961.00,0.0374
960.00,0.0372
959.00,0.0370
958.00,0.0368
957.00,0.0366
956.00,0.0364
955.00,0.0362
954.00,0.0361
953.00,0.0360
952.00,0.0359
951.00,0.0357
950.00,0.0356
949.00,0.0355
948.00,0.0354
947.00,0.0353
946.00,0.0352
945.00,0.0351
944.00,0.0350
943.00,0.0349
942.00,0.0348
941.00,0.0347
940.00,0.0346
939.00,0.0345
938.00,0.0345
937.00,0.0344
936.00,0.0344
935.00,0.0344
934.00,0.0344
933.00,0.0344
932.00,0.0345
931.00,0.0346
930.00,0.0347
929.00,0.0347
928.00,0.0348
927.00,0.0348
926.00,0.0347
925.00,0.0346
924.00,0.0344
923.00,0.0342
922.00,0.0339
921.00,0.0336
920.00,0.0333
919.00,0.0329
918.00,0.0326
917.00,0.0324
916.00,0.0321
915.00,0.0319
914.00,0.0318
913.00,0.0316
912.00,0.0315
911.00,0.0314
910.00,0.0313
909.00,0.0311
908.00,0.0309
907.00,0.0308
906.00,0.0307
905.00,0.0307
904.00,0.0307
903.00,0.0307
902.00,0.0306
901.00,0.0305
900.00,0.0305
899.00,0.0304
898.00,0.0305
897.00,0.0305
896.00,0.0304
895.00,0.0304
894.00,0.0304
893.00,0.0303
892.00,0.0303
891.00,0.0303
890.00,0.0303
889.00,0.0303
888.00,0.0303
887.00,0.0304
886.00,0.0304
885.00,0.0304
884.00,0.0304
883.00,0.0304
882.00,0.0304
881.00,0.0304
880.00,0.0305
879.00,0.0305
878.00,0.0305
877.00,0.0304
876.00,0.0304
875.00,0.0304
874.00,0.0304
873.00,0.0303
872.00,0.0303
871.00,0.0302
870.00,0.0300
869.00,0.0299
868.00,0.0299
867.00,0.0299
866.00,0.0299
865.00,0.0299
864.00,0.0299
863.00,0.0299
862.00,0.0301
861.00,0.0302
860.00,0.0304
859.00,0.0306
858.00,0.0309
857.00,0.0312
856.00,0.0316
855.00,0.0319
854.00,0.0323
853.00,0.0325
852.00,0.0326
851.00,0.0326
850.00,0.0326
849.00,0.0325
848.00,0.0324
847.00,0.0324
846.00,0.0323
845.00,0.0322
844.00,0.0322
843.00,0.0321
842.00,0.0320
841.00,0.0320
840.00,0.0321
839.00,0.0323
838.00,0.0324
837.00,0.0327
836.00,0.0329
835.00,0.0332
834.00,0.0335
833.00,0.0338
832.00,0.0340
831.00,0.0343
830.00,0.0346
829.00,0.0348
828.00,0.0350
827.00,0.0351
826.00,0.0352
825.00,0.0351
824.00,0.0350
823.00,0.0349
822.00,0.0348
821.00,0.0348
820.00,0.0347
819.00,0.0347
818.00,0.0347
817.00,0.0348
816.00,0.0348
815.00,0.0348
814.00,0.0348
813.00,0.0348
812.00,0.0349
811.00,0.0350
810.00,0.0350
809.00,0.0350
808.00,0.0350
807.00,0.0350
806.00,0.0349
805.00,0.0349
804.00,0.0349
803.00,0.0349
802.00,0.0349
801.00,0.0349
800.00,0.0349
799.00,0.0350
798.00,0.0350
797.00,0.0351
796.00,0.0351
795.00,0.0352
794.00,0.0353
793.00,0.0354
792.00,0.0356
791.00,0.0358
790.00,0.0360
789.00,0.0363
788.00,0.0365
787.00,0.0367
786.00,0.0369
785.00,0.0371
784.00,0.0373
783.00,0.0375
782.00,0.0377
781.00,0.0379
780.00,0.0381
779.00,0.0384
778.00,0.0386
777.00,0.0389
776.00,0.0392
775.00,0.0396
774.00,0.0400
773.00,0.0404
772.00,0.0407
771.00,0.0412
770.00,0.0416
769.00,0.0420
768.00,0.0424
767.00,0.0427
766.00,0.0431
765.00,0.0433
764.00,0.0434
763.00,0.0435
762.00,0.0436
761.00,0.0438
760.00,0.0440
759.00,0.0441
758.00,0.0444
757.00,0.0446
756.00,0.0449
755.00,0.0451
754.00,0.0454
753.00,0.0457
752.00,0.0460
751.00,0.0463
750.00,0.0467
749.00,0.0471
748.00,0.0475
747.00,0.0481
746.00,0.0486
745.00,0.0491
744.00,0.0497
743.00,0.0504
742.00,0.0510
741.00,0.0517
740.00,0.0524
739.00,0.0532
738.00,0.0539
737.00,0.0547
736.00,0.0554
735.00,0.0562
734.00,0.0570
733.00,0.0579
732.00,0.0588
731.00,0.0597
730.00,0.0605
729.00,0.0613
728.00,0.0621
727.00,0.0628
726.00,0.0635
725.00,0.0642
724.00,0.0649
723.00,0.0656
722.00,0.0663
721.00,0.0669
720.00,0.0675
719.00,0.0682
718.00,0.0687
717.00,0.0692
716.00,0.0697
715.00,0.0702
714.00,0.0708
713.00,0.0713
712.00,0.0719
711.00,0.0724
710.00,0.0730
709.00,0.0736
708.00,0.0742
707.00,0.0748
706.00,0.0754
705.00,0.0760
704.00,0.0765
703.00,0.0771
702.00,0.0777
701.00,0.0783
700.00,0.0788
699.00,0.0794
698.00,0.0800
697.00,0.0805
696.00,0.0810
695.00,0.0814
694.00,0.0817
693.00,0.0820
692.00,0.0824
691.00,0.0827
690.00,0.0830
689.00,0.0832
688.00,0.0834
687.00,0.0835
686.00,0.0837
685.00,0.0839
684.00,0.0842
683.00,0.0843
682.00,0.0844
681.00,0.0844
680.00,0.0845
679.00,0.0845
678.00,0.0846
677.00,0.0847
676.00,0.0847
675.00,0.0848
674.00,0.0848
673.00,0.0848
672.00,0.0847
671.00,0.0847
670.00,0.0847
669.00,0.0850
668.00,0.0854
667.00,0.0857
666.00,0.0856
665.00,0.0854
664.00,0.0853
663.00,0.0854
662.00,0.0855
661.00,0.0857
660.00,0.0859
659.00,0.0861
658.00,0.0863
657.00,0.0866
656.00,0.0870
655.00,0.0874
654.00,0.0877
653.00,0.0881
652.00,0.0884
651.00,0.0889
650.00,0.0893
649.00,0.0898
648.00,0.0903
647.00,0.0907
646.00,0.0910
645.00,0.0913
644.00,0.0917
643.00,0.0921
642.00,0.0924
641.00,0.0928
640.00,0.0932
639.00,0.0936
638.00,0.0940
637.00,0.0944
636.00,0.0947
635.00,0.0950
634.00,0.0953
633.00,0.0956
632.00,0.0959
631.00,0.0962
630.00,0.0966
629.00,0.0969
628.00,0.0972
627.00,0.0974
626.00,0.0975
625.00,0.0975
624.00,0.0975
623.00,0.0974
622.00,0.0974
621.00,0.0975
620.00,0.0975
619.00,0.0976
618.00,0.0976
617.00,0.0977
616.00,0.0980
615.00,0.0983
614.00,0.0986
613.00,0.0989
612.00,0.0992
611.00,0.0994
610.00,0.0995
609.00,0.0993
608.00,0.0988
607.00,0.0982
606.00,0.0977
605.00,0.0971
604.00,0.0967
603.00,0.0962
602.00,0.0957
601.00,0.0951
600.00,0.0946
599.00,0.0940
598.00,0.0934
597.00,0.0928
596.00,0.0923
595.00,0.0919
594.00,0.0914
593.00,0.0910
592.00,0.0906
591.00,0.0904
590.00,0.0901
589.00,0.0899
588.00,0.0897
587.00,0.0895
586.00,0.0893
585.00,0.0892
584.00,0.0892
583.00,0.0890
582.00,0.0889
581.00,0.0887
580.00,0.0886
579.00,0.0886
578.00,0.0885
577.00,0.0884
576.00,0.0884
575.00,0.0884
574.00,0.0885
573.00,0.0886
572.00,0.0888
571.00,0.0891
570.00,0.0894
569.00,0.0898
568.00,0.0904
567.00,0.0912
566.00,0.0922
565.00,0.0933
564.00,0.0946
563.00,0.0959
562.00,0.0974
561.00,0.0988
560.00,0.1004
559.00,0.1021
558.00,0.1038
557.00,0.1055
556.00,0.1073
555.00,0.1089
554.00,0.1103
553.00,0.1114
552.00,0.1122
551.00,0.1127
550.00,0.1129
549.00,0.1130
548.00,0.1130
547.00,0.1128
546.00,0.1125
545.00,0.1121
544.00,0.1117
543.00,0.1112
542.00,0.1106
541.00,0.1100
540.00,0.1093
539.00,0.1085
538.00,0.1077
537.00,0.1070
536.00,0.1065
535.00,0.1060
534.00,0.1054
533.00,0.1048
532.00,0.1043
531.00,0.1038
530.00,0.1034
529.00,0.1029
528.00,0.1024
527.00,0.1019
526.00,0.1015
525.00,0.1013
524.00,0.1012
523.00,0.1009
522.00,0.1005
521.00,0.1000
520.00,0.0996
519.00,0.0993
518.00,0.0990
517.00,0.0988
516.00,0.0986
515.00,0.0986
514.00,0.0985
513.00,0.0984
512.00,0.0984
511.00,0.0984
510.00,0.0982
509.00,0.0979
508.00,0.0976
507.00,0.0972
506.00,0.0969
505.00,0.0965
504.00,0.0961
503.00,0.0957
502.00,0.0954
501.00,0.0951
500.00,0.0949
499.00,0.0946
498.00,0.0945
497.00,0.0946
496.00,0.0948
495.00,0.0949
494.00,0.0949
493.00,0.0949
492.00,0.0948
491.00,0.0948
490.00,0.0947
489.00,0.0946
488.00,0.0943
487.00,0.0940
486.00,0.0938
485.00,0.0937
484.00,0.0938
483.00,0.0939
482.00,0.0936
481.00,0.0931
480.00,0.0926
479.00,0.0921
478.00,0.0919
477.00,0.0917
476.00,0.0914
475.00,0.0909
474.00,0.0902
473.00,0.0897
472.00,0.0895
471.00,0.0893
470.00,0.0890
469.00,0.0886
468.00,0.0883
467.00,0.0881
466.00,0.0879
465.00,0.0878
464.00,0.0876
463.00,0.0871
462.00,0.0866
461.00,0.0862
460.00,0.0859
459.00,0.0858
458.00,0.0857
457.00,0.0858
456.00,0.0860
455.00,0.0861
454.00,0.0858
453.00,0.0853
452.00,0.0851
451.00,0.0852
450.00,0.0853
449.00,0.0854
448.00,0.0853
447.00,0.0852
446.00,0.0854
445.00,0.0856
444.00,0.0856
443.00,0.0854
442.00,0.0850
441.00,0.0849
440.00,0.0851
439.00,0.0855
438.00,0.0857
437.00,0.0858
436.00,0.0859
435.00,0.0863
434.00,0.0871
433.00,0.0881
432.00,0.0890
431.00,0.0898
430.00,0.0907
429.00,0.0918
428.00,0.0929
427.00,0.0938
426.00,0.0942
425.00,0.0941
424.00,0.0938
423.00,0.0935
422.00,0.0934
421.00,0.0934
420.00,0.0933
419.00,0.0928
418.00,0.0919
417.00,0.0913
416.00,0.0910
415.00,0.0907
414.00,0.0899
413.00,0.0887
412.00,0.0876
411.00,0.0869
410.00,0.0866
409.00,0.0865
408.00,0.0861
407.00,0.0853
406.00,0.0843
405.00,0.0836
404.00,0.0835
403.00,0.0833
402.00,0.0827
401.00,0.0818
400.00,0.0810
