Created as New Dataset,Sample 670 By YargerLab Date Wednesday, June 11 2025
cm-1,A
4000.00,0.0017
3999.00,0.0017
3998.00,0.0017
3997.00,0.0017
3996.00,0.0017
3995.00,0.0017
3994.00,0.0017
3993.00,0.0016
3992.00,0.0017
3991.00,0.0017
3990.00,0.0018
3989.00,0.0019
3988.00,0.0019
3987.00,0.0019
3986.00,0.0019
3985.00,0.0018
3984.00,0.0018
3983.00,0.0017
3982.00,0.0017
3981.00,0.0018
3980.00,0.0018
3979.00,0.0019
3978.00,0.0019
3977.00,0.0018
3976.00,0.0018
3975.00,0.0017
3974.00,0.0017
3973.00,0.0017
3972.00,0.0017
3971.00,0.0017
3970.00,0.0018
3969.00,0.0018
3968.00,0.0018
3967.00,0.0018
3966.00,0.0018
3965.00,0.0017
3964.00,0.0017
3963.00,0.0017
3962.00,0.0017
3961.00,0.0016
3960.00,0.0016
3959.00,0.0016
3958.00,0.0017
3957.00,0.0017
3956.00,0.0017
3955.00,0.0017
3954.00,0.0017
3953.00,0.0016
3952.00,0.0016
3951.00,0.0016
3950.00,0.0016
3949.00,0.0016
3948.00,0.0016
3947.00,0.0016
3946.00,0.0015
3945.00,0.0015
3944.00,0.0014
3943.00,0.0015
3942.00,0.0015
3941.00,0.0016
3940.00,0.0017
3939.00,0.0017
3938.00,0.0017
3937.00,0.0017
3936.00,0.0016
3935.00,0.0016
3934.00,0.0016
3933.00,0.0017
3932.00,0.0017
3931.00,0.0018
3930.00,0.0018
3929.00,0.0018
3928.00,0.0017
3927.00,0.0016
3926.00,0.0016
3925.00,0.0016
3924.00,0.0016
3923.00,0.0016
3922.00,0.0016
3921.00,0.0016
3920.00,0.0016
3919.00,0.0016
3918.00,0.0016
3917.00,0.0016
3916.00,0.0017
3915.00,0.0017
3914.00,0.0017
3913.00,0.0017
3912.00,0.0018
3911.00,0.0018
3910.00,0.0018
3909.00,0.0018
3908.00,0.0018
3907.00,0.0017
3906.00,0.0017
3905.00,0.0016
3904.00,0.0015
3903.00,0.0014
3902.00,0.0013
3901.00,0.0012
3900.00,0.0013
3899.00,0.0014
3898.00,0.0015
3897.00,0.0016
3896.00,0.0016
3895.00,0.0015
3894.00,0.0015
3893.00,0.0015
3892.00,0.0015
3891.00,0.0015
3890.00,0.0015
3889.00,0.0015
3888.00,0.0014
3887.00,0.0013
3886.00,0.0013
3885.00,0.0013
3884.00,0.0013
3883.00,0.0013
3882.00,0.0013
3881.00,0.0014
3880.00,0.0015
3879.00,0.0016
3878.00,0.0016
3877.00,0.0016
3876.00,0.0016
3875.00,0.0016
3874.00,0.0016
3873.00,0.0016
3872.00,0.0016
3871.00,0.0016
3870.00,0.0016
3869.00,0.0016
3868.00,0.0016
3867.00,0.0015
3866.00,0.0014
3865.00,0.0015
3864.00,0.0015
3863.00,0.0016
3862.00,0.0016
3861.00,0.0016
3860.00,0.0016
3859.00,0.0016
3858.00,0.0016
3857.00,0.0016
3856.00,0.0015
3855.00,0.0013
3854.00,0.0012
3853.00,0.0012
3852.00,0.0013
3851.00,0.0014
3850.00,0.0015
3849.00,0.0016
3848.00,0.0016
3847.00,0.0016
3846.00,0.0016
3845.00,0.0016
3844.00,0.0016
3843.00,0.0016
3842.00,0.0016
3841.00,0.0016
3840.00,0.0016
3839.00,0.0016
3838.00,0.0016
3837.00,0.0016
3836.00,0.0015
3835.00,0.0016
3834.00,0.0017
3833.00,0.0018
3832.00,0.0019
3831.00,0.0019
3830.00,0.0017
3829.00,0.0016
3828.00,0.0016
3827.00,0.0016
3826.00,0.0017
3825.00,0.0017
3824.00,0.0017
3823.00,0.0016
3822.00,0.0016
3821.00,0.0015
3820.00,0.0015
3819.00,0.0015
3818.00,0.0014
3817.00,0.0014
3816.00,0.0014
3815.00,0.0014
3814.00,0.0015
3813.00,0.0015
3812.00,0.0016
3811.00,0.0016
3810.00,0.0016
3809.00,0.0016
3808.00,0.0015
3807.00,0.0015
3806.00,0.0015
3805.00,0.0015
3804.00,0.0015
3803.00,0.0015
3802.00,0.0016
3801.00,0.0018
3800.00,0.0018
3799.00,0.0018
3798.00,0.0017
3797.00,0.0016
3796.00,0.0016
3795.00,0.0015
3794.00,0.0015
3793.00,0.0015
3792.00,0.0016
3791.00,0.0017
3790.00,0.0018
3789.00,0.0018
3788.00,0.0018
3787.00,0.0018
3786.00,0.0017
3785.00,0.0016
3784.00,0.0016
3783.00,0.0016
3782.00,0.0015
3781.00,0.0016
3780.00,0.0016
3779.00,0.0017
3778.00,0.0018
3777.00,0.0018
3776.00,0.0018
3775.00,0.0017
3774.00,0.0017
3773.00,0.0017
3772.00,0.0017
3771.00,0.0017
3770.00,0.0018
3769.00,0.0018
3768.00,0.0018
3767.00,0.0017
3766.00,0.0017
3765.00,0.0016
3764.00,0.0016
3763.00,0.0016
3762.00,0.0015
3761.00,0.0015
3760.00,0.0015
3759.00,0.0015
3758.00,0.0016
3757.00,0.0016
3756.00,0.0016
3755.00,0.0016
3754.00,0.0016
3753.00,0.0017
3752.00,0.0017
3751.00,0.0017
3750.00,0.0017
3749.00,0.0015
3748.00,0.0014
3747.00,0.0013
3746.00,0.0012
3745.00,0.0012
3744.00,0.0014
3743.00,0.0015
3742.00,0.0015
3741.00,0.0015
3740.00,0.0015
3739.00,0.0016
3738.00,0.0016
3737.00,0.0016
3736.00,0.0015
3735.00,0.0013
3734.00,0.0012
3733.00,0.0011
3732.00,0.0012
3731.00,0.0013
3730.00,0.0014
3729.00,0.0016
3728.00,0.0017
3727.00,0.0018
3726.00,0.0017
3725.00,0.0016
3724.00,0.0015
3723.00,0.0013
3722.00,0.0013
3721.00,0.0013
3720.00,0.0013
3719.00,0.0014
3718.00,0.0014
3717.00,0.0015
3716.00,0.0015
3715.00,0.0016
3714.00,0.0016
3713.00,0.0016
3712.00,0.0016
3711.00,0.0016
3710.00,0.0016
3709.00,0.0016
3708.00,0.0016
3707.00,0.0016
3706.00,0.0016
3705.00,0.0015
3704.00,0.0015
3703.00,0.0015
3702.00,0.0015
3701.00,0.0016
3700.00,0.0017
3699.00,0.0017
3698.00,0.0018
3697.00,0.0018
3696.00,0.0018
3695.00,0.0017
3694.00,0.0016
3693.00,0.0016
3692.00,0.0015
3691.00,0.0015
3690.00,0.0015
3689.00,0.0015
3688.00,0.0014
3687.00,0.0014
3686.00,0.0014
3685.00,0.0014
3684.00,0.0014
3683.00,0.0014
3682.00,0.0013
3681.00,0.0014
3680.00,0.0015
3679.00,0.0016
3678.00,0.0017
3677.00,0.0018
3676.00,0.0017
3675.00,0.0016
3674.00,0.0014
3673.00,0.0012
3672.00,0.0011
3671.00,0.0011
3670.00,0.0012
3669.00,0.0014
3668.00,0.0015
3667.00,0.0016
3666.00,0.0016
3665.00,0.0016
3664.00,0.0015
3663.00,0.0015
3662.00,0.0015
3661.00,0.0016
3660.00,0.0016
3659.00,0.0017
3658.00,0.0017
3657.00,0.0017
3656.00,0.0017
3655.00,0.0017
3654.00,0.0017
3653.00,0.0015
3652.00,0.0013
3651.00,0.0012
3650.00,0.0012
3649.00,0.0012
3648.00,0.0014
3647.00,0.0015
3646.00,0.0016
3645.00,0.0017
3644.00,0.0017
3643.00,0.0016
3642.00,0.0016
3641.00,0.0015
3640.00,0.0015
3639.00,0.0015
3638.00,0.0015
3637.00,0.0015
3636.00,0.0015
3635.00,0.0015
3634.00,0.0016
3633.00,0.0016
3632.00,0.0017
3631.00,0.0017
3630.00,0.0017
3629.00,0.0017
3628.00,0.0017
3627.00,0.0016
3626.00,0.0016
3625.00,0.0016
3624.00,0.0017
3623.00,0.0018
3622.00,0.0019
3621.00,0.0019
3620.00,0.0018
3619.00,0.0016
3618.00,0.0014
3617.00,0.0014
3616.00,0.0014
3615.00,0.0014
3614.00,0.0013
3613.00,0.0012
3612.00,0.0012
3611.00,0.0011
3610.00,0.0011
3609.00,0.0012
3608.00,0.0013
3607.00,0.0014
3606.00,0.0015
3605.00,0.0015
3604.00,0.0016
3603.00,0.0016
3602.00,0.0017
3601.00,0.0017
3600.00,0.0017
3599.00,0.0016
3598.00,0.0015
3597.00,0.0015
3596.00,0.0014
3595.00,0.0013
3594.00,0.0013
3593.00,0.0013
3592.00,0.0013
3591.00,0.0013
3590.00,0.0013
3589.00,0.0013
3588.00,0.0013
3587.00,0.0014
3586.00,0.0014
3585.00,0.0014
3584.00,0.0014
3583.00,0.0014
3582.00,0.0015
3581.00,0.0015
3580.00,0.0016
3579.00,0.0016
3578.00,0.0016
3577.00,0.0017
3576.00,0.0017
3575.00,0.0018
3574.00,0.0018
3573.00,0.0017
3572.00,0.0016
3571.00,0.0016
3570.00,0.0016
3569.00,0.0016
3568.00,0.0015
3567.00,0.0014
3566.00,0.0013
3565.00,0.0013
3564.00,0.0014
3563.00,0.0015
3562.00,0.0016
3561.00,0.0017
3560.00,0.0017
3559.00,0.0017
3558.00,0.0017
3557.00,0.0018
3556.00,0.0018
3555.00,0.0019
3554.00,0.0019
3553.00,0.0019
3552.00,0.0018
3551.00,0.0017
3550.00,0.0017
3549.00,0.0018
3548.00,0.0018
3547.00,0.0018
3546.00,0.0018
3545.00,0.0017
3544.00,0.0017
3543.00,0.0017
3542.00,0.0018
3541.00,0.0018
3540.00,0.0019
3539.00,0.0020
3538.00,0.0020
3537.00,0.0020
3536.00,0.0020
3535.00,0.0021
3534.00,0.0021
3533.00,0.0020
3532.00,0.0020
3531.00,0.0019
3530.00,0.0019
3529.00,0.0019
3528.00,0.0019
3527.00,0.0018
3526.00,0.0018
3525.00,0.0017
3524.00,0.0018
3523.00,0.0019
3522.00,0.0021
3521.00,0.0023
3520.00,0.0024
3519.00,0.0024
3518.00,0.0023
3517.00,0.0021
3516.00,0.0020
3515.00,0.0020
3514.00,0.0019
3513.00,0.0019
3512.00,0.0019
3511.00,0.0019
3510.00,0.0019
3509.00,0.0018
3508.00,0.0018
3507.00,0.0017
3506.00,0.0018
3505.00,0.0018
3504.00,0.0018
3503.00,0.0018
3502.00,0.0018
3501.00,0.0018
3500.00,0.0018
3499.00,0.0017
3498.00,0.0017
3497.00,0.0017
3496.00,0.0017
3495.00,0.0018
3494.00,0.0018
3493.00,0.0018
3492.00,0.0019
3491.00,0.0019
3490.00,0.0019
3489.00,0.0019
3488.00,0.0020
3487.00,0.0020
3486.00,0.0021
3485.00,0.0020
3484.00,0.0020
3483.00,0.0019
3482.00,0.0019
3481.00,0.0019
3480.00,0.0020
3479.00,0.0021
3478.00,0.0021
3477.00,0.0021
3476.00,0.0020
3475.00,0.0020
3474.00,0.0020
3473.00,0.0020
3472.00,0.0021
3471.00,0.0021
3470.00,0.0021
3469.00,0.0020
3468.00,0.0020
3467.00,0.0019
3466.00,0.0019
3465.00,0.0020
3464.00,0.0020
3463.00,0.0021
3462.00,0.0021
3461.00,0.0021
3460.00,0.0021
3459.00,0.0021
3458.00,0.0022
3457.00,0.0022
3456.00,0.0022
3455.00,0.0022
3454.00,0.0022
3453.00,0.0022
3452.00,0.0023
3451.00,0.0023
3450.00,0.0023
3449.00,0.0023
3448.00,0.0023
3447.00,0.0023
3446.00,0.0023
3445.00,0.0023
3444.00,0.0024
3443.00,0.0024
3442.00,0.0024
3441.00,0.0023
3440.00,0.0023
3439.00,0.0022
3438.00,0.0022
3437.00,0.0021
3436.00,0.0021
3435.00,0.0021
3434.00,0.0022
3433.00,0.0022
3432.00,0.0022
3431.00,0.0022
3430.00,0.0022
3429.00,0.0022
3428.00,0.0023
3427.00,0.0023
3426.00,0.0024
3425.00,0.0025
3424.00,0.0025
3423.00,0.0024
3422.00,0.0023
3421.00,0.0023
3420.00,0.0023
3419.00,0.0022
3418.00,0.0022
3417.00,0.0022
3416.00,0.0023
3415.00,0.0023
3414.00,0.0023
3413.00,0.0023
3412.00,0.0024
3411.00,0.0024
3410.00,0.0024
3409.00,0.0025
3408.00,0.0025
3407.00,0.0024
3406.00,0.0025
3405.00,0.0025
3404.00,0.0025
3403.00,0.0025
3402.00,0.0025
3401.00,0.0024
3400.00,0.0025
3399.00,0.0025
3398.00,0.0026
3397.00,0.0026
3396.00,0.0026
3395.00,0.0026
3394.00,0.0026
3393.00,0.0026
3392.00,0.0027
3391.00,0.0027
3390.00,0.0027
3389.00,0.0026
3388.00,0.0026
3387.00,0.0026
3386.00,0.0026
3385.00,0.0025
3384.00,0.0025
3383.00,0.0024
3382.00,0.0024
3381.00,0.0023
3380.00,0.0023
3379.00,0.0024
3378.00,0.0025
3377.00,0.0026
3376.00,0.0028
3375.00,0.0028
3374.00,0.0028
3373.00,0.0027
3372.00,0.0025
3371.00,0.0024
3370.00,0.0024
3369.00,0.0024
3368.00,0.0025
3367.00,0.0025
3366.00,0.0026
3365.00,0.0026
3364.00,0.0027
3363.00,0.0027
3362.00,0.0026
3361.00,0.0026
3360.00,0.0026
3359.00,0.0025
3358.00,0.0025
3357.00,0.0024
3356.00,0.0023
3355.00,0.0023
3354.00,0.0024
3353.00,0.0025
3352.00,0.0027
3351.00,0.0028
3350.00,0.0028
3349.00,0.0028
3348.00,0.0026
3347.00,0.0024
3346.00,0.0023
3345.00,0.0022
3344.00,0.0022
3343.00,0.0022
3342.00,0.0022
3341.00,0.0022
3340.00,0.0022
3339.00,0.0022
3338.00,0.0022
3337.00,0.0023
3336.00,0.0023
3335.00,0.0023
3334.00,0.0024
3333.00,0.0024
3332.00,0.0024
3331.00,0.0023
3330.00,0.0023
3329.00,0.0022
3328.00,0.0023
3327.00,0.0023
3326.00,0.0023
3325.00,0.0023
3324.00,0.0023
3323.00,0.0023
3322.00,0.0022
3321.00,0.0021
3320.00,0.0021
3319.00,0.0022
3318.00,0.0023
3317.00,0.0025
3316.00,0.0025
3315.00,0.0025
3314.00,0.0025
3313.00,0.0025
3312.00,0.0025
3311.00,0.0025
3310.00,0.0024
3309.00,0.0023
3308.00,0.0021
3307.00,0.0021
3306.00,0.0021
3305.00,0.0021
3304.00,0.0021
3303.00,0.0022
3302.00,0.0022
3301.00,0.0022
3300.00,0.0022
3299.00,0.0021
3298.00,0.0021
3297.00,0.0020
3296.00,0.0020
3295.00,0.0020
3294.00,0.0021
3293.00,0.0021
3292.00,0.0021
3291.00,0.0021
3290.00,0.0021
3289.00,0.0020
3288.00,0.0020
3287.00,0.0021
3286.00,0.0021
3285.00,0.0021
3284.00,0.0021
3283.00,0.0020
3282.00,0.0020
3281.00,0.0019
3280.00,0.0019
3279.00,0.0020
3278.00,0.0020
3277.00,0.0021
3276.00,0.0022
3275.00,0.0022
3274.00,0.0022
3273.00,0.0022
3272.00,0.0023
3271.00,0.0024
3270.00,0.0026
3269.00,0.0028
3268.00,0.0030
3267.00,0.0030
3266.00,0.0029
3265.00,0.0027
3264.00,0.0026
3263.00,0.0024
3262.00,0.0023
3261.00,0.0022
3260.00,0.0021
3259.00,0.0021
3258.00,0.0021
3257.00,0.0022
3256.00,0.0022
3255.00,0.0022
3254.00,0.0023
3253.00,0.0023
3252.00,0.0024
3251.00,0.0025
3250.00,0.0026
3249.00,0.0026
3248.00,0.0026
3247.00,0.0025
3246.00,0.0024
3245.00,0.0023
3244.00,0.0023
3243.00,0.0023
3242.00,0.0023
3241.00,0.0024
3240.00,0.0024
3239.00,0.0024
3238.00,0.0025
3237.00,0.0025
3236.00,0.0025
3235.00,0.0025
3234.00,0.0025
3233.00,0.0025
3232.00,0.0025
3231.00,0.0024
3230.00,0.0024
3229.00,0.0024
3228.00,0.0025
3227.00,0.0025
3226.00,0.0025
3225.00,0.0024
3224.00,0.0024
3223.00,0.0024
3222.00,0.0024
3221.00,0.0024
3220.00,0.0024
3219.00,0.0025
3218.00,0.0025
3217.00,0.0026
3216.00,0.0026
3215.00,0.0025
3214.00,0.0025
3213.00,0.0025
3212.00,0.0026
3211.00,0.0026
3210.00,0.0027
3209.00,0.0026
3208.00,0.0026
3207.00,0.0025
3206.00,0.0025
3205.00,0.0026
3204.00,0.0026
3203.00,0.0026
3202.00,0.0026
3201.00,0.0025
3200.00,0.0025
3199.00,0.0025
3198.00,0.0026
3197.00,0.0026
3196.00,0.0027
3195.00,0.0027
3194.00,0.0027
3193.00,0.0027
3192.00,0.0027
3191.00,0.0028
3190.00,0.0028
3189.00,0.0028
3188.00,0.0028
3187.00,0.0028
3186.00,0.0027
3185.00,0.0025
3184.00,0.0024
3183.00,0.0024
3182.00,0.0025
3181.00,0.0026
3180.00,0.0027
3179.00,0.0027
3178.00,0.0026
3177.00,0.0026
3176.00,0.0026
3175.00,0.0026
3174.00,0.0027
3173.00,0.0028
3172.00,0.0028
3171.00,0.0028
3170.00,0.0028
3169.00,0.0027
3168.00,0.0027
3167.00,0.0027
3166.00,0.0027
3165.00,0.0027
3164.00,0.0027
3163.00,0.0027
3162.00,0.0027
3161.00,0.0027
3160.00,0.0027
3159.00,0.0026
3158.00,0.0026
3157.00,0.0027
3156.00,0.0027
3155.00,0.0027
3154.00,0.0027
3153.00,0.0027
3152.00,0.0027
3151.00,0.0027
3150.00,0.0027
3149.00,0.0027
3148.00,0.0026
3147.00,0.0026
3146.00,0.0026
3145.00,0.0026
3144.00,0.0026
3143.00,0.0025
3142.00,0.0025
3141.00,0.0024
3140.00,0.0025
3139.00,0.0025
3138.00,0.0026
3137.00,0.0026
3136.00,0.0025
3135.00,0.0025
3134.00,0.0024
3133.00,0.0024
3132.00,0.0024
3131.00,0.0025
3130.00,0.0025
3129.00,0.0026
3128.00,0.0025
3127.00,0.0025
3126.00,0.0025
3125.00,0.0025
3124.00,0.0025
3123.00,0.0025
3122.00,0.0024
3121.00,0.0024
3120.00,0.0024
3119.00,0.0024
3118.00,0.0025
3117.00,0.0025
3116.00,0.0027
3115.00,0.0028
3114.00,0.0030
3113.00,0.0031
3112.00,0.0031
3111.00,0.0031
3110.00,0.0032
3109.00,0.0033
3108.00,0.0034
3107.00,0.0036
3106.00,0.0037
3105.00,0.0038
3104.00,0.0038
3103.00,0.0038
3102.00,0.0037
3101.00,0.0037
3100.00,0.0038
3099.00,0.0038
3098.00,0.0038
3097.00,0.0039
3096.00,0.0038
3095.00,0.0038
3094.00,0.0038
3093.00,0.0039
3092.00,0.0041
3091.00,0.0044
3090.00,0.0047
3089.00,0.0051
3088.00,0.0054
3087.00,0.0057
3086.00,0.0060
3085.00,0.0064
3084.00,0.0067
3083.00,0.0069
3082.00,0.0069
3081.00,0.0069
3080.00,0.0067
3079.00,0.0064
3078.00,0.0060
3077.00,0.0057
3076.00,0.0055
3075.00,0.0054
3074.00,0.0053
3073.00,0.0054
3072.00,0.0054
3071.00,0.0056
3070.00,0.0057
3069.00,0.0059
3068.00,0.0062
3067.00,0.0065
3066.00,0.0068
3065.00,0.0072
3064.00,0.0076
3063.00,0.0080
3062.00,0.0083
3061.00,0.0085
3060.00,0.0086
3059.00,0.0086
3058.00,0.0085
3057.00,0.0082
3056.00,0.0079
3055.00,0.0076
3054.00,0.0072
3053.00,0.0068
3052.00,0.0065
3051.00,0.0061
3050.00,0.0059
3049.00,0.0056
3048.00,0.0055
3047.00,0.0053
3046.00,0.0052
3045.00,0.0052
3044.00,0.0053
3043.00,0.0054
3042.00,0.0056
3041.00,0.0058
3040.00,0.0060
3039.00,0.0062
3038.00,0.0065
3037.00,0.0068
3036.00,0.0073
3035.00,0.0079
3034.00,0.0086
3033.00,0.0095
3032.00,0.0104
3031.00,0.0113
3030.00,0.0123
3029.00,0.0132
3028.00,0.0140
3027.00,0.0147
3026.00,0.0152
3025.00,0.0153
3024.00,0.0151
3023.00,0.0145
3022.00,0.0136
3021.00,0.0125
3020.00,0.0112
3019.00,0.0098
3018.00,0.0085
3017.00,0.0075
3016.00,0.0067
3015.00,0.0063
3014.00,0.0061
3013.00,0.0059
3012.00,0.0056
3011.00,0.0053
3010.00,0.0051
3009.00,0.0050
3008.00,0.0050
3007.00,0.0051
3006.00,0.0052
3005.00,0.0054
3004.00,0.0055
3003.00,0.0056
3002.00,0.0056
3001.00,0.0055
3000.00,0.0054
2999.00,0.0053
2998.00,0.0050
2997.00,0.0047
2996.00,0.0044
2995.00,0.0042
2994.00,0.0040
2993.00,0.0039
2992.00,0.0038
2991.00,0.0037
2990.00,0.0036
2989.00,0.0036
2988.00,0.0035
2987.00,0.0035
2986.00,0.0035
2985.00,0.0034
2984.00,0.0035
2983.00,0.0035
2982.00,0.0035
2981.00,0.0035
2980.00,0.0035
2979.00,0.0035
2978.00,0.0034
2977.00,0.0034
2976.00,0.0034
2975.00,0.0035
2974.00,0.0035
2973.00,0.0036
2972.00,0.0036
2971.00,0.0037
2970.00,0.0037
2969.00,0.0038
2968.00,0.0039
2967.00,0.0040
2966.00,0.0041
2965.00,0.0041
2964.00,0.0042
2963.00,0.0042
2962.00,0.0043
2961.00,0.0043
2960.00,0.0045
2959.00,0.0046
2958.00,0.0048
2957.00,0.0049
2956.00,0.0050
2955.00,0.0052
2954.00,0.0053
2953.00,0.0055
2952.00,0.0057
2951.00,0.0059
2950.00,0.0060
2949.00,0.0062
2948.00,0.0065
2947.00,0.0068
2946.00,0.0072
2945.00,0.0075
2944.00,0.0079
2943.00,0.0083
2942.00,0.0088
2941.00,0.0093
2940.00,0.0099
2939.00,0.0103
2938.00,0.0108
2937.00,0.0113
2936.00,0.0119
2935.00,0.0124
2934.00,0.0130
2933.00,0.0135
2932.00,0.0139
2931.00,0.0145
2930.00,0.0151
2929.00,0.0156
2928.00,0.0161
2927.00,0.0165
2926.00,0.0168
2925.00,0.0170
2924.00,0.0171
2923.00,0.0172
2922.00,0.0173
2921.00,0.0173
2920.00,0.0172
2919.00,0.0170
2918.00,0.0168
2917.00,0.0165
2916.00,0.0162
2915.00,0.0160
2914.00,0.0157
2913.00,0.0155
2912.00,0.0151
2911.00,0.0147
2910.00,0.0143
2909.00,0.0138
2908.00,0.0134
2907.00,0.0131
2906.00,0.0127
2905.00,0.0124
2904.00,0.0121
2903.00,0.0117
2902.00,0.0113
2901.00,0.0109
2900.00,0.0104
2899.00,0.0099
2898.00,0.0096
2897.00,0.0092
2896.00,0.0090
2895.00,0.0087
2894.00,0.0084
2893.00,0.0082
2892.00,0.0081
2891.00,0.0080
2890.00,0.0078
2889.00,0.0076
2888.00,0.0074
2887.00,0.0072
2886.00,0.0071
2885.00,0.0069
2884.00,0.0068
2883.00,0.0067
2882.00,0.0066
2881.00,0.0065
2880.00,0.0065
2879.00,0.0063
2878.00,0.0062
2877.00,0.0060
2876.00,0.0058
2875.00,0.0057
2874.00,0.0056
2873.00,0.0055
2872.00,0.0054
2871.00,0.0054
2870.00,0.0054
2869.00,0.0054
2868.00,0.0054
2867.00,0.0054
2866.00,0.0054
2865.00,0.0055
2864.00,0.0058
2863.00,0.0060
2862.00,0.0063
2861.00,0.0064
2860.00,0.0066
2859.00,0.0067
2858.00,0.0069
2857.00,0.0071
2856.00,0.0074
2855.00,0.0076
2854.00,0.0077
2853.00,0.0078
2852.00,0.0080
2851.00,0.0081
2850.00,0.0082
2849.00,0.0083
2848.00,0.0083
2847.00,0.0083
2846.00,0.0082
2845.00,0.0080
2844.00,0.0077
2843.00,0.0073
2842.00,0.0069
2841.00,0.0065
2840.00,0.0061
2839.00,0.0057
2838.00,0.0054
2837.00,0.0050
2836.00,0.0048
2835.00,0.0045
2834.00,0.0043
2833.00,0.0042
2832.00,0.0040
2831.00,0.0038
2830.00,0.0037
2829.00,0.0036
2828.00,0.0035
2827.00,0.0034
2826.00,0.0034
2825.00,0.0033
2824.00,0.0032
2823.00,0.0032
2822.00,0.0031
2821.00,0.0031
2820.00,0.0031
2819.00,0.0030
2818.00,0.0030
2817.00,0.0030
2816.00,0.0030
2815.00,0.0030
2814.00,0.0031
2813.00,0.0031
2812.00,0.0031
2811.00,0.0032
2810.00,0.0032
2809.00,0.0031
2808.00,0.0030
2807.00,0.0029
2806.00,0.0029
2805.00,0.0029
2804.00,0.0029
2803.00,0.0029
2802.00,0.0029
2801.00,0.0029
2800.00,0.0029
2799.00,0.0029
2798.00,0.0029
2797.00,0.0029
2796.00,0.0029
2795.00,0.0029
2794.00,0.0029
2793.00,0.0029
2792.00,0.0029
2791.00,0.0028
2790.00,0.0027
2789.00,0.0026
2788.00,0.0026
2787.00,0.0027
2786.00,0.0027
2785.00,0.0028
2784.00,0.0028
2783.00,0.0028
2782.00,0.0027
2781.00,0.0026
2780.00,0.0025
2779.00,0.0026
2778.00,0.0026
2777.00,0.0026
2776.00,0.0026
2775.00,0.0026
2774.00,0.0026
2773.00,0.0026
2772.00,0.0026
2771.00,0.0026
2770.00,0.0025
2769.00,0.0025
2768.00,0.0026
2767.00,0.0026
2766.00,0.0027
2765.00,0.0027
2764.00,0.0027
2763.00,0.0027
2762.00,0.0026
2761.00,0.0026
2760.00,0.0025
2759.00,0.0024
2758.00,0.0023
2757.00,0.0023
2756.00,0.0023
2755.00,0.0023
2754.00,0.0024
2753.00,0.0024
2752.00,0.0025
2751.00,0.0025
2750.00,0.0024
2749.00,0.0024
2748.00,0.0024
2747.00,0.0024
2746.00,0.0023
2745.00,0.0023
2744.00,0.0022
2743.00,0.0023
2742.00,0.0023
2741.00,0.0024
2740.00,0.0025
2739.00,0.0025
2738.00,0.0025
2737.00,0.0025
2736.00,0.0025
2735.00,0.0025
2734.00,0.0024
2733.00,0.0024
2732.00,0.0024
2731.00,0.0024
2730.00,0.0024
2729.00,0.0024
2728.00,0.0024
2727.00,0.0024
2726.00,0.0024
2725.00,0.0024
2724.00,0.0023
2723.00,0.0023
2722.00,0.0023
2721.00,0.0023
2720.00,0.0024
2719.00,0.0025
2718.00,0.0025
2717.00,0.0025
2716.00,0.0024
2715.00,0.0024
2714.00,0.0024
2713.00,0.0024
2712.00,0.0025
2711.00,0.0025
2710.00,0.0025
2709.00,0.0024
2708.00,0.0024
2707.00,0.0024
2706.00,0.0024
2705.00,0.0024
2704.00,0.0025
2703.00,0.0025
2702.00,0.0025
2701.00,0.0025
2700.00,0.0024
2699.00,0.0023
2698.00,0.0023
2697.00,0.0022
2696.00,0.0023
2695.00,0.0023
2694.00,0.0023
2693.00,0.0024
2692.00,0.0024
2691.00,0.0024
2690.00,0.0024
2689.00,0.0024
2688.00,0.0024
2687.00,0.0024
2686.00,0.0023
2685.00,0.0023
2684.00,0.0023
2683.00,0.0023
2682.00,0.0023
2681.00,0.0023
2680.00,0.0024
2679.00,0.0024
2678.00,0.0023
2677.00,0.0023
2676.00,0.0023
2675.00,0.0023
2674.00,0.0024
2673.00,0.0024
2672.00,0.0024
2671.00,0.0024
2670.00,0.0024
2669.00,0.0023
2668.00,0.0023
2667.00,0.0024
2666.00,0.0025
2665.00,0.0026
2664.00,0.0026
2663.00,0.0026
2662.00,0.0026
2661.00,0.0026
2660.00,0.0026
2659.00,0.0026
2658.00,0.0026
2657.00,0.0025
2656.00,0.0025
2655.00,0.0025
2654.00,0.0025
2653.00,0.0025
2652.00,0.0025
2651.00,0.0025
2650.00,0.0026
2649.00,0.0026
2648.00,0.0027
2647.00,0.0027
2646.00,0.0026
2645.00,0.0025
2644.00,0.0025
2643.00,0.0025
2642.00,0.0025
2641.00,0.0025
2640.00,0.0025
2639.00,0.0025
2638.00,0.0024
2637.00,0.0024
2636.00,0.0025
2635.00,0.0025
2634.00,0.0026
2633.00,0.0026
2632.00,0.0027
2631.00,0.0027
2630.00,0.0027
2629.00,0.0026
2628.00,0.0026
2627.00,0.0026
2626.00,0.0026
2625.00,0.0026
2624.00,0.0025
2623.00,0.0025
2622.00,0.0024
2621.00,0.0025
2620.00,0.0026
2619.00,0.0026
2618.00,0.0026
2617.00,0.0026
2616.00,0.0025
2615.00,0.0024
2614.00,0.0024
2613.00,0.0025
2612.00,0.0025
2611.00,0.0025
2610.00,0.0024
2609.00,0.0024
2608.00,0.0023
2607.00,0.0023
2606.00,0.0023
2605.00,0.0023
2604.00,0.0023
2603.00,0.0022
2602.00,0.0021
2601.00,0.0021
2600.00,0.0022
2599.00,0.0023
2598.00,0.0023
2597.00,0.0023
2596.00,0.0023
2595.00,0.0023
2594.00,0.0024
2593.00,0.0025
2592.00,0.0025
2591.00,0.0025
2590.00,0.0024
2589.00,0.0023
2588.00,0.0022
2587.00,0.0022
2586.00,0.0022
2585.00,0.0022
2584.00,0.0023
2583.00,0.0024
2582.00,0.0025
2581.00,0.0025
2580.00,0.0025
2579.00,0.0024
2578.00,0.0024
2577.00,0.0023
2576.00,0.0023
2575.00,0.0022
2574.00,0.0021
2573.00,0.0021
2572.00,0.0021
2571.00,0.0021
2570.00,0.0021
2569.00,0.0021
2568.00,0.0021
2567.00,0.0020
2566.00,0.0020
2565.00,0.0020
2564.00,0.0020
2563.00,0.0020
2562.00,0.0020
2561.00,0.0020
2560.00,0.0019
2559.00,0.0019
2558.00,0.0019
2557.00,0.0020
2556.00,0.0021
2555.00,0.0022
2554.00,0.0022
2553.00,0.0022
2552.00,0.0023
2551.00,0.0024
2550.00,0.0024
2549.00,0.0023
2548.00,0.0022
2547.00,0.0020
2546.00,0.0019
2545.00,0.0018
2544.00,0.0019
2543.00,0.0020
2542.00,0.0020
2541.00,0.0021
2540.00,0.0021
2539.00,0.0021
2538.00,0.0020
2537.00,0.0019
2536.00,0.0019
2535.00,0.0019
2534.00,0.0019
2533.00,0.0019
2532.00,0.0019
2531.00,0.0019
2530.00,0.0019
2529.00,0.0019
2528.00,0.0019
2527.00,0.0018
2526.00,0.0017
2525.00,0.0017
2524.00,0.0017
2523.00,0.0018
2522.00,0.0019
2521.00,0.0020
2520.00,0.0021
2519.00,0.0021
2518.00,0.0021
2517.00,0.0021
2516.00,0.0020
2515.00,0.0019
2514.00,0.0017
2513.00,0.0015
2512.00,0.0014
2511.00,0.0015
2510.00,0.0016
2509.00,0.0017
2508.00,0.0017
2507.00,0.0017
2506.00,0.0016
2505.00,0.0016
2504.00,0.0017
2503.00,0.0018
2502.00,0.0019
2501.00,0.0019
2500.00,0.0019
2499.00,0.0019
2498.00,0.0019
2497.00,0.0019
2496.00,0.0019
2495.00,0.0019
2494.00,0.0020
2493.00,0.0020
2492.00,0.0020
2491.00,0.0019
2490.00,0.0018
2489.00,0.0018
2488.00,0.0018
2487.00,0.0018
2486.00,0.0019
2485.00,0.0020
2484.00,0.0021
2483.00,0.0020
2482.00,0.0020
2481.00,0.0020
2480.00,0.0019
2479.00,0.0019
2478.00,0.0019
2477.00,0.0018
2476.00,0.0018
2475.00,0.0018
2474.00,0.0018
2473.00,0.0020
2472.00,0.0021
2471.00,0.0021
2470.00,0.0021
2469.00,0.0020
2468.00,0.0019
2467.00,0.0019
2466.00,0.0018
2465.00,0.0018
2464.00,0.0017
2463.00,0.0017
2462.00,0.0017
2461.00,0.0017
2460.00,0.0017
2459.00,0.0018
2458.00,0.0019
2457.00,0.0021
2456.00,0.0022
2455.00,0.0021
2454.00,0.0021
2453.00,0.0019
2452.00,0.0019
2451.00,0.0018
2450.00,0.0018
2449.00,0.0018
2448.00,0.0018
2447.00,0.0017
2446.00,0.0017
2445.00,0.0017
2444.00,0.0018
2443.00,0.0018
2442.00,0.0018
2441.00,0.0019
2440.00,0.0018
2439.00,0.0017
2438.00,0.0016
2437.00,0.0015
2436.00,0.0014
2435.00,0.0015
2434.00,0.0017
2433.00,0.0019
2432.00,0.0020
2431.00,0.0019
2430.00,0.0019
2429.00,0.0018
2428.00,0.0018
2427.00,0.0018
2426.00,0.0017
2425.00,0.0016
2424.00,0.0016
2423.00,0.0016
2422.00,0.0017
2421.00,0.0018
2420.00,0.0019
2419.00,0.0020
2418.00,0.0019
2417.00,0.0017
2416.00,0.0015
2415.00,0.0014
2414.00,0.0015
2413.00,0.0016
2412.00,0.0017
2411.00,0.0018
2410.00,0.0018
2409.00,0.0018
2408.00,0.0017
2407.00,0.0016
2406.00,0.0014
2405.00,0.0014
2404.00,0.0014
2403.00,0.0014
2402.00,0.0014
2401.00,0.0014
2400.00,0.0014
2399.00,0.0014
2398.00,0.0014
2397.00,0.0014
2396.00,0.0015
2395.00,0.0015
2394.00,0.0015
2393.00,0.0015
2392.00,0.0015
2391.00,0.0014
2390.00,0.0014
2389.00,0.0014
2388.00,0.0014
2387.00,0.0015
2386.00,0.0015
2385.00,0.0015
2384.00,0.0015
2383.00,0.0015
2382.00,0.0014
2381.00,0.0013
2380.00,0.0012
2379.00,0.0012
2378.00,0.0013
2377.00,0.0014
2376.00,0.0014
2375.00,0.0014
2374.00,0.0015
2373.00,0.0016
2372.00,0.0016
2371.00,0.0016
2370.00,0.0015
2369.00,0.0014
2368.00,0.0013
2367.00,0.0012
2366.00,0.0011
2365.00,0.0011
2364.00,0.0011
2363.00,0.0012
2362.00,0.0013
2361.00,0.0015
2360.00,0.0016
2359.00,0.0017
2358.00,0.0018
2357.00,0.0018
2356.00,0.0017
2355.00,0.0016
2354.00,0.0013
2353.00,0.0012
2352.00,0.0011
2351.00,0.0011
2350.00,0.0012
2349.00,0.0014
2348.00,0.0015
2347.00,0.0016
2346.00,0.0015
2345.00,0.0015
2344.00,0.0016
2343.00,0.0017
2342.00,0.0017
2341.00,0.0017
2340.00,0.0017
2339.00,0.0017
2338.00,0.0018
2337.00,0.0018
2336.00,0.0017
2335.00,0.0017
2334.00,0.0016
2333.00,0.0015
2332.00,0.0014
2331.00,0.0013
2330.00,0.0013
2329.00,0.0014
2328.00,0.0016
2327.00,0.0018
2326.00,0.0021
2325.00,0.0023
2324.00,0.0023
2323.00,0.0023
2322.00,0.0022
2321.00,0.0022
2320.00,0.0021
2319.00,0.0020
2318.00,0.0019
2317.00,0.0018
2316.00,0.0018
2315.00,0.0018
2314.00,0.0019
2313.00,0.0019
2312.00,0.0019
2311.00,0.0019
2310.00,0.0020
2309.00,0.0021
2308.00,0.0022
2307.00,0.0021
2306.00,0.0019
2305.00,0.0017
2304.00,0.0016
2303.00,0.0016
2302.00,0.0017
2301.00,0.0018
2300.00,0.0020
2299.00,0.0021
2298.00,0.0022
2297.00,0.0022
2296.00,0.0022
2295.00,0.0021
2294.00,0.0020
2293.00,0.0019
2292.00,0.0019
2291.00,0.0019
2290.00,0.0021
2289.00,0.0023
2288.00,0.0024
2287.00,0.0025
2286.00,0.0025
2285.00,0.0024
2284.00,0.0023
2283.00,0.0023
2282.00,0.0022
2281.00,0.0022
2280.00,0.0022
2279.00,0.0023
2278.00,0.0023
2277.00,0.0022
2276.00,0.0022
2275.00,0.0021
2274.00,0.0021
2273.00,0.0020
2272.00,0.0020
2271.00,0.0020
2270.00,0.0019
2269.00,0.0019
2268.00,0.0019
2267.00,0.0018
2266.00,0.0016
2265.00,0.0012
2264.00,0.0009
2263.00,0.0008
2262.00,0.0008
2261.00,0.0010
2260.00,0.0013
2259.00,0.0015
2258.00,0.0015
2257.00,0.0014
2256.00,0.0013
2255.00,0.0014
2254.00,0.0014
2253.00,0.0015
2252.00,0.0015
2251.00,0.0015
2250.00,0.0014
2249.00,0.0013
2248.00,0.0013
2247.00,0.0014
2246.00,0.0014
2245.00,0.0014
2244.00,0.0015
2243.00,0.0016
2242.00,0.0017
2241.00,0.0018
2240.00,0.0017
2239.00,0.0016
2238.00,0.0013
2237.00,0.0011
2236.00,0.0011
2235.00,0.0012
2234.00,0.0014
2233.00,0.0015
2232.00,0.0015
2231.00,0.0014
2230.00,0.0013
2229.00,0.0013
2228.00,0.0012
2227.00,0.0012
2226.00,0.0013
2225.00,0.0014
2224.00,0.0014
2223.00,0.0013
2222.00,0.0012
2221.00,0.0011
2220.00,0.0010
2219.00,0.0011
2218.00,0.0012
2217.00,0.0013
2216.00,0.0013
2215.00,0.0013
2214.00,0.0014
2213.00,0.0016
2212.00,0.0017
2211.00,0.0018
2210.00,0.0018
2209.00,0.0018
2208.00,0.0018
2207.00,0.0016
2206.00,0.0013
2205.00,0.0010
2204.00,0.0009
2203.00,0.0011
2202.00,0.0014
2201.00,0.0016
2200.00,0.0017
2199.00,0.0016
2198.00,0.0014
2197.00,0.0013
2196.00,0.0015
2195.00,0.0016
2194.00,0.0016
2193.00,0.0014
2192.00,0.0013
2191.00,0.0012
2190.00,0.0013
2189.00,0.0013
2188.00,0.0014
2187.00,0.0015
2186.00,0.0014
2185.00,0.0010
2184.00,0.0004
2183.00,-0.0000
2182.00,-0.0002
2181.00,-0.0002
2180.00,0.0000
2179.00,0.0002
2178.00,0.0002
2177.00,0.0002
2176.00,0.0002
2175.00,0.0005
2174.00,0.0009
2173.00,0.0015
2172.00,0.0019
2171.00,0.0021
2170.00,0.0023
2169.00,0.0026
2168.00,0.0029
2167.00,0.0030
2166.00,0.0027
2165.00,0.0023
2164.00,0.0019
2163.00,0.0017
2162.00,0.0014
2161.00,0.0009
2160.00,-0.0001
2159.00,-0.0010
2158.00,-0.0014
2157.00,-0.0014
2156.00,-0.0012
2155.00,-0.0011
2154.00,-0.0009
2153.00,-0.0006
2152.00,-0.0002
2151.00,0.0002
2150.00,0.0005
2149.00,0.0006
2148.00,0.0005
2147.00,0.0005
2146.00,0.0005
2145.00,0.0008
2144.00,0.0010
2143.00,0.0012
2142.00,0.0011
2141.00,0.0009
2140.00,0.0007
2139.00,0.0004
2138.00,0.0003
2137.00,0.0002
2136.00,0.0002
2135.00,0.0001
2134.00,0.0000
2133.00,0.0000
2132.00,0.0001
2131.00,0.0003
2130.00,0.0004
2129.00,0.0004
2128.00,0.0003
2127.00,0.0002
2126.00,0.0001
2125.00,0.0002
2124.00,0.0004
2123.00,0.0006
2122.00,0.0008
2121.00,0.0010
2120.00,0.0012
2119.00,0.0012
2118.00,0.0011
2117.00,0.0010
2116.00,0.0010
2115.00,0.0011
2114.00,0.0011
2113.00,0.0012
2112.00,0.0014
2111.00,0.0015
2110.00,0.0016
2109.00,0.0015
2108.00,0.0015
2107.00,0.0015
2106.00,0.0015
2105.00,0.0013
2104.00,0.0012
2103.00,0.0012
2102.00,0.0013
2101.00,0.0015
2100.00,0.0016
2099.00,0.0017
2098.00,0.0015
2097.00,0.0012
2096.00,0.0009
2095.00,0.0007
2094.00,0.0008
2093.00,0.0010
2092.00,0.0012
2091.00,0.0012
2090.00,0.0011
2089.00,0.0010
2088.00,0.0009
2087.00,0.0009
2086.00,0.0012
2085.00,0.0014
2084.00,0.0014
2083.00,0.0013
2082.00,0.0012
2081.00,0.0012
2080.00,0.0012
2079.00,0.0013
2078.00,0.0013
2077.00,0.0013
2076.00,0.0013
2075.00,0.0013
2074.00,0.0014
2073.00,0.0014
2072.00,0.0014
2071.00,0.0013
2070.00,0.0013
2069.00,0.0013
2068.00,0.0013
2067.00,0.0014
2066.00,0.0014
2065.00,0.0015
2064.00,0.0016
2063.00,0.0016
2062.00,0.0016
2061.00,0.0015
2060.00,0.0012
2059.00,0.0010
2058.00,0.0008
2057.00,0.0007
2056.00,0.0008
2055.00,0.0009
2054.00,0.0011
2053.00,0.0016
2052.00,0.0021
2051.00,0.0023
2050.00,0.0022
2049.00,0.0019
2048.00,0.0017
2047.00,0.0017
2046.00,0.0018
2045.00,0.0018
2044.00,0.0017
2043.00,0.0012
2042.00,0.0008
2041.00,0.0005
2040.00,0.0004
2039.00,0.0007
2038.00,0.0010
2037.00,0.0012
2036.00,0.0009
2035.00,0.0004
2034.00,-0.0001
2033.00,-0.0003
2032.00,-0.0002
2031.00,0.0002
2030.00,0.0005
2029.00,0.0006
2028.00,0.0004
2027.00,0.0002
2026.00,0.0001
2025.00,0.0002
2024.00,0.0004
2023.00,0.0004
2022.00,0.0002
2021.00,-0.0001
2020.00,-0.0003
2019.00,-0.0003
2018.00,-0.0002
2017.00,0.0001
2016.00,0.0002
2015.00,0.0002
2014.00,0.0002
2013.00,0.0003
2012.00,0.0005
2011.00,0.0009
2010.00,0.0014
2009.00,0.0018
2008.00,0.0019
2007.00,0.0014
2006.00,0.0008
2005.00,0.0004
2004.00,0.0003
2003.00,0.0002
2002.00,0.0003
2001.00,0.0004
2000.00,0.0007
1999.00,0.0010
1998.00,0.0012
1997.00,0.0014
1996.00,0.0016
1995.00,0.0016
1994.00,0.0015
1993.00,0.0016
1992.00,0.0019
1991.00,0.0023
1990.00,0.0026
1989.00,0.0025
1988.00,0.0021
1987.00,0.0017
1986.00,0.0015
1985.00,0.0015
1984.00,0.0018
1983.00,0.0021
1982.00,0.0022
1981.00,0.0021
1980.00,0.0018
1979.00,0.0014
1978.00,0.0009
1977.00,0.0003
1976.00,0.0000
1975.00,-0.0000
1974.00,0.0002
1973.00,0.0005
1972.00,0.0009
1971.00,0.0012
1970.00,0.0013
1969.00,0.0014
1968.00,0.0016
1967.00,0.0017
1966.00,0.0017
1965.00,0.0016
1964.00,0.0016
1963.00,0.0016
1962.00,0.0015
1961.00,0.0013
1960.00,0.0012
1959.00,0.0010
1958.00,0.0010
1957.00,0.0011
1956.00,0.0014
1955.00,0.0016
1954.00,0.0017
1953.00,0.0016
1952.00,0.0017
1951.00,0.0019
1950.00,0.0023
1949.00,0.0025
1948.00,0.0026
1947.00,0.0025
1946.00,0.0024
1945.00,0.0022
1944.00,0.0021
1943.00,0.0021
1942.00,0.0021
1941.00,0.0021
1940.00,0.0022
1939.00,0.0022
1938.00,0.0021
1937.00,0.0020
1936.00,0.0019
1935.00,0.0019
1934.00,0.0019
1933.00,0.0018
1932.00,0.0017
1931.00,0.0016
1930.00,0.0015
1929.00,0.0014
1928.00,0.0014
1927.00,0.0014
1926.00,0.0014
1925.00,0.0013
1924.00,0.0013
1923.00,0.0013
1922.00,0.0014
1921.00,0.0015
1920.00,0.0016
1919.00,0.0016
1918.00,0.0015
1917.00,0.0014
1916.00,0.0013
1915.00,0.0013
1914.00,0.0011
1913.00,0.0009
1912.00,0.0007
1911.00,0.0006
1910.00,0.0008
1909.00,0.0010
1908.00,0.0011
1907.00,0.0010
1906.00,0.0010
1905.00,0.0010
1904.00,0.0010
1903.00,0.0011
1902.00,0.0012
1901.00,0.0014
1900.00,0.0015
1899.00,0.0015
1898.00,0.0015
1897.00,0.0015
1896.00,0.0015
1895.00,0.0015
1894.00,0.0016
1893.00,0.0016
1892.00,0.0017
1891.00,0.0018
1890.00,0.0018
1889.00,0.0019
1888.00,0.0021
1887.00,0.0021
1886.00,0.0021
1885.00,0.0021
1884.00,0.0022
1883.00,0.0022
1882.00,0.0023
1881.00,0.0023
1880.00,0.0023
1879.00,0.0022
1878.00,0.0022
1877.00,0.0021
1876.00,0.0021
1875.00,0.0022
1874.00,0.0023
1873.00,0.0023
1872.00,0.0024
1871.00,0.0025
1870.00,0.0025
1869.00,0.0026
1868.00,0.0026
1867.00,0.0026
1866.00,0.0026
1865.00,0.0025
1864.00,0.0024
1863.00,0.0022
1862.00,0.0021
1861.00,0.0021
1860.00,0.0022
1859.00,0.0022
1858.00,0.0022
1857.00,0.0021
1856.00,0.0019
1855.00,0.0018
1854.00,0.0016
1853.00,0.0015
1852.00,0.0015
1851.00,0.0015
1850.00,0.0015
1849.00,0.0015
1848.00,0.0015
1847.00,0.0014
1846.00,0.0013
1845.00,0.0013
1844.00,0.0013
1843.00,0.0014
1842.00,0.0014
1841.00,0.0014
1840.00,0.0014
1839.00,0.0013
1838.00,0.0013
1837.00,0.0014
1836.00,0.0015
1835.00,0.0015
1834.00,0.0015
1833.00,0.0015
1832.00,0.0016
1831.00,0.0016
1830.00,0.0017
1829.00,0.0018
1828.00,0.0019
1827.00,0.0019
1826.00,0.0019
1825.00,0.0019
1824.00,0.0018
1823.00,0.0018
1822.00,0.0018
1821.00,0.0019
1820.00,0.0020
1819.00,0.0020
1818.00,0.0020
1817.00,0.0020
1816.00,0.0021
1815.00,0.0022
1814.00,0.0023
1813.00,0.0023
1812.00,0.0024
1811.00,0.0025
1810.00,0.0027
1809.00,0.0029
1808.00,0.0029
1807.00,0.0029
1806.00,0.0029
1805.00,0.0029
1804.00,0.0029
1803.00,0.0029
1802.00,0.0029
1801.00,0.0028
1800.00,0.0028
1799.00,0.0028
1798.00,0.0028
1797.00,0.0028
1796.00,0.0028
1795.00,0.0027
1794.00,0.0026
1793.00,0.0025
1792.00,0.0024
1791.00,0.0023
1790.00,0.0022
1789.00,0.0021
1788.00,0.0019
1787.00,0.0019
1786.00,0.0019
1785.00,0.0019
1784.00,0.0019
1783.00,0.0020
1782.00,0.0020
1781.00,0.0020
1780.00,0.0019
1779.00,0.0019
1778.00,0.0019
1777.00,0.0019
1776.00,0.0019
1775.00,0.0019
1774.00,0.0019
1773.00,0.0019
1772.00,0.0019
1771.00,0.0019
1770.00,0.0019
1769.00,0.0020
1768.00,0.0020
1767.00,0.0019
1766.00,0.0019
1765.00,0.0019
1764.00,0.0019
1763.00,0.0019
1762.00,0.0020
1761.00,0.0021
1760.00,0.0022
1759.00,0.0022
1758.00,0.0024
1757.00,0.0025
1756.00,0.0026
1755.00,0.0026
1754.00,0.0026
1753.00,0.0026
1752.00,0.0027
1751.00,0.0027
1750.00,0.0028
1749.00,0.0030
1748.00,0.0031
1747.00,0.0031
1746.00,0.0032
1745.00,0.0032
1744.00,0.0033
1743.00,0.0032
1742.00,0.0031
1741.00,0.0031
1740.00,0.0031
1739.00,0.0031
1738.00,0.0032
1737.00,0.0033
1736.00,0.0033
1735.00,0.0032
1734.00,0.0032
1733.00,0.0031
1732.00,0.0032
1731.00,0.0031
1730.00,0.0031
1729.00,0.0030
1728.00,0.0030
1727.00,0.0029
1726.00,0.0029
1725.00,0.0028
1724.00,0.0028
1723.00,0.0028
1722.00,0.0028
1721.00,0.0028
1720.00,0.0027
1719.00,0.0027
1718.00,0.0026
1717.00,0.0026
1716.00,0.0026
1715.00,0.0027
1714.00,0.0027
1713.00,0.0027
1712.00,0.0026
1711.00,0.0026
1710.00,0.0026
1709.00,0.0026
1708.00,0.0026
1707.00,0.0026
1706.00,0.0026
1705.00,0.0026
1704.00,0.0026
1703.00,0.0025
1702.00,0.0025
1701.00,0.0025
1700.00,0.0026
1699.00,0.0026
1698.00,0.0026
1697.00,0.0027
1696.00,0.0027
1695.00,0.0028
1694.00,0.0028
1693.00,0.0028
1692.00,0.0029
1691.00,0.0030
1690.00,0.0032
1689.00,0.0033
1688.00,0.0034
1687.00,0.0034
1686.00,0.0035
1685.00,0.0035
1684.00,0.0036
1683.00,0.0037
1682.00,0.0037
1681.00,0.0038
1680.00,0.0039
1679.00,0.0040
1678.00,0.0041
1677.00,0.0041
1676.00,0.0041
1675.00,0.0042
1674.00,0.0042
1673.00,0.0042
1672.00,0.0043
1671.00,0.0043
1670.00,0.0043
1669.00,0.0043
1668.00,0.0043
1667.00,0.0043
1666.00,0.0044
1665.00,0.0045
1664.00,0.0046
1663.00,0.0047
1662.00,0.0047
1661.00,0.0046
1660.00,0.0046
1659.00,0.0046
1658.00,0.0046
1657.00,0.0046
1656.00,0.0047
1655.00,0.0047
1654.00,0.0047
1653.00,0.0047
1652.00,0.0046
1651.00,0.0046
1650.00,0.0046
1649.00,0.0046
1648.00,0.0046
1647.00,0.0046
1646.00,0.0045
1645.00,0.0044
1644.00,0.0044
1643.00,0.0045
1642.00,0.0045
1641.00,0.0045
1640.00,0.0045
1639.00,0.0044
1638.00,0.0044
1637.00,0.0044
1636.00,0.0044
1635.00,0.0045
1634.00,0.0045
1633.00,0.0044
1632.00,0.0044
1631.00,0.0044
1630.00,0.0044
1629.00,0.0044
1628.00,0.0044
1627.00,0.0044
1626.00,0.0045
1625.00,0.0046
1624.00,0.0047
1623.00,0.0048
1622.00,0.0050
1621.00,0.0051
1620.00,0.0052
1619.00,0.0053
1618.00,0.0054
1617.00,0.0056
1616.00,0.0057
1615.00,0.0059
1614.00,0.0061
1613.00,0.0063
1612.00,0.0066
1611.00,0.0069
1610.00,0.0074
1609.00,0.0081
1608.00,0.0090
1607.00,0.0101
1606.00,0.0115
1605.00,0.0129
1604.00,0.0143
1603.00,0.0155
1602.00,0.0164
1601.00,0.0167
1600.00,0.0163
1599.00,0.0154
1598.00,0.0141
1597.00,0.0126
1596.00,0.0113
1595.00,0.0101
1594.00,0.0092
1593.00,0.0085
1592.00,0.0079
1591.00,0.0075
1590.00,0.0071
1589.00,0.0070
1588.00,0.0070
1587.00,0.0073
1586.00,0.0077
1585.00,0.0082
1584.00,0.0086
1583.00,0.0087
1582.00,0.0085
1581.00,0.0079
1580.00,0.0073
1579.00,0.0066
1578.00,0.0061
1577.00,0.0056
1576.00,0.0053
1575.00,0.0051
1574.00,0.0049
1573.00,0.0048
1572.00,0.0047
1571.00,0.0045
1570.00,0.0044
1569.00,0.0044
1568.00,0.0043
1567.00,0.0043
1566.00,0.0043
1565.00,0.0042
1564.00,0.0042
1563.00,0.0042
1562.00,0.0043
1561.00,0.0043
1560.00,0.0044
1559.00,0.0045
1558.00,0.0045
1557.00,0.0044
1556.00,0.0045
1555.00,0.0046
1554.00,0.0047
1553.00,0.0048
1552.00,0.0049
1551.00,0.0050
1550.00,0.0051
1549.00,0.0052
1548.00,0.0053
1547.00,0.0053
1546.00,0.0054
1545.00,0.0055
1544.00,0.0056
1543.00,0.0055
1542.00,0.0054
1541.00,0.0052
1540.00,0.0052
1539.00,0.0053
1538.00,0.0053
1537.00,0.0053
1536.00,0.0053
1535.00,0.0053
1534.00,0.0052
1533.00,0.0050
1532.00,0.0049
1531.00,0.0048
1530.00,0.0048
1529.00,0.0047
1528.00,0.0047
1527.00,0.0046
1526.00,0.0045
1525.00,0.0043
1524.00,0.0042
1523.00,0.0041
1522.00,0.0041
1521.00,0.0041
1520.00,0.0041
1519.00,0.0041
1518.00,0.0041
1517.00,0.0041
1516.00,0.0042
1515.00,0.0042
1514.00,0.0042
1513.00,0.0043
1512.00,0.0044
1511.00,0.0046
1510.00,0.0047
1509.00,0.0047
1508.00,0.0047
1507.00,0.0047
1506.00,0.0048
1505.00,0.0050
1504.00,0.0053
1503.00,0.0057
1502.00,0.0063
1501.00,0.0071
1500.00,0.0082
1499.00,0.0099
1498.00,0.0126
1497.00,0.0166
1496.00,0.0220
1495.00,0.0277
1494.00,0.0324
1493.00,0.0352
1492.00,0.0354
1491.00,0.0327
1490.00,0.0280
1489.00,0.0228
1488.00,0.0186
1487.00,0.0154
1486.00,0.0130
1485.00,0.0112
1484.00,0.0099
1483.00,0.0089
1482.00,0.0081
1481.00,0.0075
1480.00,0.0070
1479.00,0.0066
1478.00,0.0064
1477.00,0.0063
1476.00,0.0062
1475.00,0.0062
1474.00,0.0061
1473.00,0.0060
1472.00,0.0060
1471.00,0.0061
1470.00,0.0062
1469.00,0.0063
1468.00,0.0065
1467.00,0.0066
1466.00,0.0068
1465.00,0.0070
1464.00,0.0072
1463.00,0.0074
1462.00,0.0077
1461.00,0.0083
1460.00,0.0090
1459.00,0.0103
1458.00,0.0126
1457.00,0.0166
1456.00,0.0218
1455.00,0.0269
1454.00,0.0313
1453.00,0.0346
1452.00,0.0364
1451.00,0.0361
1450.00,0.0344
1449.00,0.0318
1448.00,0.0292
1447.00,0.0268
1446.00,0.0248
1445.00,0.0232
1444.00,0.0216
1443.00,0.0200
1442.00,0.0186
1441.00,0.0173
1440.00,0.0161
1439.00,0.0150
1438.00,0.0140
1437.00,0.0129
1436.00,0.0118
1435.00,0.0108
1434.00,0.0100
1433.00,0.0094
1432.00,0.0087
1431.00,0.0081
1430.00,0.0076
1429.00,0.0072
1428.00,0.0069
1427.00,0.0066
1426.00,0.0064
1425.00,0.0062
1424.00,0.0061
1423.00,0.0060
1422.00,0.0060
1421.00,0.0060
1420.00,0.0060
1419.00,0.0059
1418.00,0.0059
1417.00,0.0058
1416.00,0.0057
1415.00,0.0057
1414.00,0.0056
1413.00,0.0056
1412.00,0.0055
1411.00,0.0055
1410.00,0.0054
1409.00,0.0055
1408.00,0.0056
1407.00,0.0057
1406.00,0.0057
1405.00,0.0057
1404.00,0.0057
1403.00,0.0057
1402.00,0.0057
1401.00,0.0057
1400.00,0.0058
1399.00,0.0058
1398.00,0.0059
1397.00,0.0059
1396.00,0.0060
1395.00,0.0061
1394.00,0.0062
1393.00,0.0064
1392.00,0.0066
1391.00,0.0068
1390.00,0.0070
1389.00,0.0072
1388.00,0.0074
1387.00,0.0076
1386.00,0.0078
1385.00,0.0081
1384.00,0.0083
1383.00,0.0085
1382.00,0.0087
1381.00,0.0089
1380.00,0.0091
1379.00,0.0093
1378.00,0.0094
1377.00,0.0096
1376.00,0.0097
1375.00,0.0099
1374.00,0.0099
1373.00,0.0099
1372.00,0.0100
1371.00,0.0100
1370.00,0.0100
1369.00,0.0100
1368.00,0.0100
1367.00,0.0099
1366.00,0.0098
1365.00,0.0098
1364.00,0.0097
1363.00,0.0096
1362.00,0.0096
1361.00,0.0095
1360.00,0.0094
1359.00,0.0093
1358.00,0.0092
1357.00,0.0091
1356.00,0.0090
1355.00,0.0089
1354.00,0.0088
1353.00,0.0087
1352.00,0.0087
1351.00,0.0087
1350.00,0.0086
1349.00,0.0086
1348.00,0.0086
1347.00,0.0086
1346.00,0.0086
1345.00,0.0085
1344.00,0.0084
1343.00,0.0082
1342.00,0.0081
1341.00,0.0080
1340.00,0.0079
1339.00,0.0079
1338.00,0.0079
1337.00,0.0079
1336.00,0.0080
1335.00,0.0081
1334.00,0.0082
1333.00,0.0083
1332.00,0.0085
1331.00,0.0086
1330.00,0.0087
1329.00,0.0088
1328.00,0.0088
1327.00,0.0088
1326.00,0.0087
1325.00,0.0087
1324.00,0.0086
1323.00,0.0085
1322.00,0.0085
1321.00,0.0084
1320.00,0.0085
1319.00,0.0085
1318.00,0.0086
1317.00,0.0086
1316.00,0.0087
1315.00,0.0088
1314.00,0.0089
1313.00,0.0089
1312.00,0.0089
1311.00,0.0089
1310.00,0.0088
1309.00,0.0086
1308.00,0.0086
1307.00,0.0085
1306.00,0.0083
1305.00,0.0082
1304.00,0.0080
1303.00,0.0079
1302.00,0.0077
1301.00,0.0076
1300.00,0.0076
1299.00,0.0075
1298.00,0.0073
1297.00,0.0072
1296.00,0.0071
1295.00,0.0071
1294.00,0.0071
1293.00,0.0071
1292.00,0.0072
1291.00,0.0071
1290.00,0.0071
1289.00,0.0070
1288.00,0.0069
1287.00,0.0068
1286.00,0.0068
1285.00,0.0068
1284.00,0.0068
1283.00,0.0068
1282.00,0.0069
1281.00,0.0068
1280.00,0.0068
1279.00,0.0067
1278.00,0.0067
1277.00,0.0067
1276.00,0.0066
1275.00,0.0065
1274.00,0.0063
1273.00,0.0062
1272.00,0.0060
1271.00,0.0060
1270.00,0.0059
1269.00,0.0059
1268.00,0.0058
1267.00,0.0058
1266.00,0.0058
1265.00,0.0057
1264.00,0.0055
1263.00,0.0054
1262.00,0.0053
1261.00,0.0052
1260.00,0.0052
1259.00,0.0052
1258.00,0.0051
1257.00,0.0051
1256.00,0.0051
1255.00,0.0052
1254.00,0.0054
1253.00,0.0055
1252.00,0.0056
1251.00,0.0057
1250.00,0.0058
1249.00,0.0059
1248.00,0.0059
1247.00,0.0058
1246.00,0.0057
1245.00,0.0057
1244.00,0.0058
1243.00,0.0059
1242.00,0.0059
1241.00,0.0058
1240.00,0.0058
1239.00,0.0058
1238.00,0.0058
1237.00,0.0058
1236.00,0.0058
1235.00,0.0058
1234.00,0.0057
1233.00,0.0056
1232.00,0.0056
1231.00,0.0056
1230.00,0.0056
1229.00,0.0057
1228.00,0.0057
1227.00,0.0058
1226.00,0.0058
1225.00,0.0058
1224.00,0.0057
1223.00,0.0057
1222.00,0.0056
1221.00,0.0056
1220.00,0.0056
1219.00,0.0056
1218.00,0.0057
1217.00,0.0057
1216.00,0.0058
1215.00,0.0058
1214.00,0.0058
1213.00,0.0059
1212.00,0.0059
1211.00,0.0060
1210.00,0.0061
1209.00,0.0062
1208.00,0.0063
1207.00,0.0065
1206.00,0.0066
1205.00,0.0067
1204.00,0.0069
1203.00,0.0071
1202.00,0.0073
1201.00,0.0074
1200.00,0.0075
1199.00,0.0075
1198.00,0.0076
1197.00,0.0077
1196.00,0.0077
1195.00,0.0078
1194.00,0.0079
1193.00,0.0079
1192.00,0.0080
1191.00,0.0080
1190.00,0.0081
1189.00,0.0081
1188.00,0.0083
1187.00,0.0084
1186.00,0.0087
1185.00,0.0091
1184.00,0.0095
1183.00,0.0098
1182.00,0.0101
1181.00,0.0101
1180.00,0.0100
1179.00,0.0097
1178.00,0.0092
1177.00,0.0086
1176.00,0.0081
1175.00,0.0077
1174.00,0.0073
1173.00,0.0070
1172.00,0.0068
1171.00,0.0067
1170.00,0.0067
1169.00,0.0066
1168.00,0.0066
1167.00,0.0065
1166.00,0.0065
1165.00,0.0065
1164.00,0.0067
1163.00,0.0068
1162.00,0.0071
1161.00,0.0073
1160.00,0.0076
1159.00,0.0081
1158.00,0.0086
1157.00,0.0092
1156.00,0.0098
1155.00,0.0101
1154.00,0.0101
1153.00,0.0099
1152.00,0.0094
1151.00,0.0088
1150.00,0.0082
1149.00,0.0077
1148.00,0.0072
1147.00,0.0068
1146.00,0.0065
1145.00,0.0063
1144.00,0.0061
1143.00,0.0060
1142.00,0.0059
1141.00,0.0058
1140.00,0.0057
1139.00,0.0056
1138.00,0.0056
1137.00,0.0056
1136.00,0.0056
1135.00,0.0056
1134.00,0.0056
1133.00,0.0056
1132.00,0.0056
1131.00,0.0056
1130.00,0.0055
1129.00,0.0055
1128.00,0.0055
1127.00,0.0055
1126.00,0.0055
1125.00,0.0055
1124.00,0.0056
1123.00,0.0057
1122.00,0.0058
1121.00,0.0058
1120.00,0.0059
1119.00,0.0060
1118.00,0.0061
1117.00,0.0063
1116.00,0.0065
1115.00,0.0068
1114.00,0.0070
1113.00,0.0071
1112.00,0.0071
1111.00,0.0071
1110.00,0.0071
1109.00,0.0071
1108.00,0.0070
1107.00,0.0069
1106.00,0.0068
1105.00,0.0067
1104.00,0.0068
1103.00,0.0069
1102.00,0.0071
1101.00,0.0073
1100.00,0.0074
1099.00,0.0075
1098.00,0.0076
1097.00,0.0077
1096.00,0.0079
1095.00,0.0080
1094.00,0.0080
1093.00,0.0081
1092.00,0.0081
1091.00,0.0082
1090.00,0.0083
1089.00,0.0085
1088.00,0.0087
1087.00,0.0088
1086.00,0.0090
1085.00,0.0091
1084.00,0.0093
1083.00,0.0096
1082.00,0.0099
1081.00,0.0102
1080.00,0.0104
1079.00,0.0106
1078.00,0.0108
1077.00,0.0112
1076.00,0.0117
1075.00,0.0123
1074.00,0.0128
1073.00,0.0132
1072.00,0.0135
1071.00,0.0139
1070.00,0.0141
1069.00,0.0143
1068.00,0.0143
1067.00,0.0141
1066.00,0.0137
1065.00,0.0133
1064.00,0.0128
1063.00,0.0123
1062.00,0.0118
1061.00,0.0114
1060.00,0.0110
1059.00,0.0107
1058.00,0.0102
1057.00,0.0099
1056.00,0.0096
1055.00,0.0095
1054.00,0.0094
1053.00,0.0093
1052.00,0.0092
1051.00,0.0092
1050.00,0.0091
1049.00,0.0090
1048.00,0.0089
1047.00,0.0088
1046.00,0.0086
1045.00,0.0086
1044.00,0.0086
1043.00,0.0087
1042.00,0.0088
1041.00,0.0088
1040.00,0.0090
1039.00,0.0092
1038.00,0.0096
1037.00,0.0102
1036.00,0.0112
1035.00,0.0124
1034.00,0.0140
1033.00,0.0158
1032.00,0.0177
1031.00,0.0194
1030.00,0.0208
1029.00,0.0216
1028.00,0.0219
1027.00,0.0215
1026.00,0.0207
1025.00,0.0195
1024.00,0.0182
1023.00,0.0170
1022.00,0.0160
1021.00,0.0151
1020.00,0.0144
1019.00,0.0137
1018.00,0.0131
1017.00,0.0125
1016.00,0.0120
1015.00,0.0116
1014.00,0.0113
1013.00,0.0110
1012.00,0.0107
1011.00,0.0104
1010.00,0.0101
1009.00,0.0098
1008.00,0.0097
1007.00,0.0098
1006.00,0.0102
1005.00,0.0106
1004.00,0.0109
1003.00,0.0109
1002.00,0.0106
1001.00,0.0101
1000.00,0.0095
999.00,0.0090
998.00,0.0087
997.00,0.0086
996.00,0.0084
995.00,0.0083
994.00,0.0082
993.00,0.0082
992.00,0.0082
991.00,0.0083
990.00,0.0084
989.00,0.0086
988.00,0.0088
987.00,0.0089
986.00,0.0090
985.00,0.0092
984.00,0.0093
983.00,0.0095
982.00,0.0097
981.00,0.0097
980.00,0.0097
979.00,0.0097
978.00,0.0096
977.00,0.0096
976.00,0.0094
975.00,0.0093
974.00,0.0093
973.00,0.0093
972.00,0.0095
971.00,0.0097
970.00,0.0099
969.00,0.0101
968.00,0.0103
967.00,0.0106
966.00,0.0108
965.00,0.0109
964.00,0.0110
963.00,0.0109
962.00,0.0107
961.00,0.0104
960.00,0.0101
959.00,0.0097
958.00,0.0092
957.00,0.0089
956.00,0.0086
955.00,0.0085
954.00,0.0084
953.00,0.0084
952.00,0.0085
951.00,0.0086
950.00,0.0087
949.00,0.0087
948.00,0.0087
947.00,0.0087
946.00,0.0089
945.00,0.0091
944.00,0.0093
943.00,0.0094
942.00,0.0094
941.00,0.0092
940.00,0.0090
939.00,0.0087
938.00,0.0084
937.00,0.0081
936.00,0.0078
935.00,0.0075
934.00,0.0073
933.00,0.0072
932.00,0.0071
931.00,0.0070
930.00,0.0069
929.00,0.0069
928.00,0.0069
927.00,0.0070
926.00,0.0071
925.00,0.0073
924.00,0.0074
923.00,0.0075
922.00,0.0075
921.00,0.0076
920.00,0.0078
919.00,0.0082
918.00,0.0086
917.00,0.0090
916.00,0.0095
915.00,0.0101
914.00,0.0108
913.00,0.0116
912.00,0.0126
911.00,0.0136
910.00,0.0145
909.00,0.0152
908.00,0.0158
907.00,0.0162
906.00,0.0162
905.00,0.0159
904.00,0.0154
903.00,0.0146
902.00,0.0137
901.00,0.0126
900.00,0.0116
899.00,0.0106
898.00,0.0097
897.00,0.0090
896.00,0.0083
895.00,0.0079
894.00,0.0076
893.00,0.0074
892.00,0.0072
891.00,0.0071
890.00,0.0070
889.00,0.0068
888.00,0.0066
887.00,0.0064
886.00,0.0062
885.00,0.0059
884.00,0.0058
883.00,0.0058
882.00,0.0059
881.00,0.0060
880.00,0.0060
879.00,0.0060
878.00,0.0059
877.00,0.0057
876.00,0.0056
875.00,0.0056
874.00,0.0057
873.00,0.0058
872.00,0.0059
871.00,0.0058
870.00,0.0056
869.00,0.0055
868.00,0.0053
867.00,0.0052
866.00,0.0052
865.00,0.0053
864.00,0.0054
863.00,0.0055
862.00,0.0055
861.00,0.0054
860.00,0.0054
859.00,0.0053
858.00,0.0052
857.00,0.0052
856.00,0.0052
855.00,0.0053
854.00,0.0054
853.00,0.0057
852.00,0.0059
851.00,0.0062
850.00,0.0064
849.00,0.0066
848.00,0.0068
847.00,0.0071
846.00,0.0075
845.00,0.0078
844.00,0.0082
843.00,0.0085
842.00,0.0087
841.00,0.0088
840.00,0.0086
839.00,0.0082
838.00,0.0078
837.00,0.0074
836.00,0.0070
835.00,0.0067
834.00,0.0064
833.00,0.0060
832.00,0.0056
831.00,0.0053
830.00,0.0050
829.00,0.0048
828.00,0.0048
827.00,0.0049
826.00,0.0049
825.00,0.0049
824.00,0.0049
823.00,0.0048
822.00,0.0047
821.00,0.0048
820.00,0.0049
819.00,0.0051
818.00,0.0053
817.00,0.0054
816.00,0.0055
815.00,0.0054
814.00,0.0053
813.00,0.0051
812.00,0.0050
811.00,0.0050
810.00,0.0049
809.00,0.0048
808.00,0.0049
807.00,0.0049
806.00,0.0051
805.00,0.0052
804.00,0.0054
803.00,0.0056
802.00,0.0058
801.00,0.0060
800.00,0.0062
799.00,0.0063
798.00,0.0065
797.00,0.0066
796.00,0.0068
795.00,0.0070
794.00,0.0072
793.00,0.0075
792.00,0.0078
791.00,0.0082
790.00,0.0086
789.00,0.0091
788.00,0.0095
787.00,0.0100
786.00,0.0104
785.00,0.0109
784.00,0.0114
783.00,0.0119
782.00,0.0125
781.00,0.0132
780.00,0.0141
779.00,0.0151
778.00,0.0161
777.00,0.0173
776.00,0.0187
775.00,0.0200
774.00,0.0216
773.00,0.0233
772.00,0.0251
771.00,0.0271
770.00,0.0291
769.00,0.0313
768.00,0.0336
767.00,0.0358
766.00,0.0378
765.00,0.0399
764.00,0.0420
763.00,0.0442
762.00,0.0463
761.00,0.0485
760.00,0.0507
759.00,0.0527
758.00,0.0546
757.00,0.0566
756.00,0.0586
755.00,0.0602
754.00,0.0608
753.00,0.0600
752.00,0.0586
751.00,0.0574
750.00,0.0567
749.00,0.0563
748.00,0.0560
747.00,0.0552
746.00,0.0538
745.00,0.0516
744.00,0.0487
743.00,0.0454
742.00,0.0418
741.00,0.0382
740.00,0.0348
739.00,0.0315
738.00,0.0286
737.00,0.0259
736.00,0.0234
735.00,0.0210
734.00,0.0186
733.00,0.0164
732.00,0.0145
731.00,0.0129
730.00,0.0118
729.00,0.0110
728.00,0.0105
727.00,0.0101
726.00,0.0098
725.00,0.0095
724.00,0.0092
723.00,0.0091
722.00,0.0090
721.00,0.0089
720.00,0.0090
719.00,0.0092
718.00,0.0095
717.00,0.0099
716.00,0.0103
715.00,0.0110
714.00,0.0118
713.00,0.0130
712.00,0.0147
711.00,0.0170
710.00,0.0203
709.00,0.0246
708.00,0.0299
707.00,0.0364
706.00,0.0440
705.00,0.0530
704.00,0.0633
703.00,0.0747
702.00,0.0868
701.00,0.0995
700.00,0.1122
699.00,0.1248
698.00,0.1371
697.00,0.1485
696.00,0.1574
695.00,0.1621
694.00,0.1609
693.00,0.1533
692.00,0.1405
691.00,0.1250
690.00,0.1092
689.00,0.0949
688.00,0.0829
687.00,0.0731
686.00,0.0653
685.00,0.0590
684.00,0.0538
683.00,0.0495
682.00,0.0459
681.00,0.0430
680.00,0.0405
679.00,0.0382
678.00,0.0361
677.00,0.0342
676.00,0.0327
675.00,0.0313
674.00,0.0302
673.00,0.0293
672.00,0.0285
671.00,0.0277
670.00,0.0270
669.00,0.0262
668.00,0.0253
667.00,0.0246
666.00,0.0239
665.00,0.0231
664.00,0.0224
663.00,0.0216
662.00,0.0208
661.00,0.0200
660.00,0.0192
659.00,0.0185
658.00,0.0178
657.00,0.0172
656.00,0.0166
655.00,0.0161
654.00,0.0155
653.00,0.0150
652.00,0.0145
651.00,0.0141
650.00,0.0137
649.00,0.0134
648.00,0.0132
647.00,0.0130
646.00,0.0128
645.00,0.0126
644.00,0.0125
643.00,0.0124
642.00,0.0123
641.00,0.0123
640.00,0.0125
639.00,0.0126
638.00,0.0128
637.00,0.0129
636.00,0.0131
635.00,0.0131
634.00,0.0132
633.00,0.0133
632.00,0.0136
631.00,0.0141
630.00,0.0146
629.00,0.0148
628.00,0.0150
627.00,0.0150
626.00,0.0151
625.00,0.0151
624.00,0.0151
623.00,0.0153
622.00,0.0154
621.00,0.0155
620.00,0.0155
619.00,0.0154
618.00,0.0151
617.00,0.0148
616.00,0.0144
615.00,0.0141
614.00,0.0138
613.00,0.0137
612.00,0.0135
611.00,0.0134
610.00,0.0133
609.00,0.0132
608.00,0.0130
607.00,0.0128
606.00,0.0128
605.00,0.0129
604.00,0.0132
603.00,0.0134
602.00,0.0136
601.00,0.0137
600.00,0.0137
599.00,0.0137
598.00,0.0137
597.00,0.0138
596.00,0.0140
595.00,0.0142
594.00,0.0143
593.00,0.0143
592.00,0.0143
591.00,0.0145
590.00,0.0147
589.00,0.0150
588.00,0.0152
587.00,0.0156
586.00,0.0159
585.00,0.0162
584.00,0.0163
583.00,0.0165
582.00,0.0168
581.00,0.0173
580.00,0.0180
579.00,0.0186
578.00,0.0192
577.00,0.0196
576.00,0.0200
575.00,0.0206
574.00,0.0214
573.00,0.0224
572.00,0.0235
571.00,0.0246
570.00,0.0256
569.00,0.0263
568.00,0.0268
567.00,0.0274
566.00,0.0282
565.00,0.0292
564.00,0.0301
563.00,0.0309
562.00,0.0317
561.00,0.0325
560.00,0.0332
559.00,0.0338
558.00,0.0342
557.00,0.0349
556.00,0.0359
555.00,0.0370
554.00,0.0381
553.00,0.0392
552.00,0.0403
551.00,0.0415
550.00,0.0428
549.00,0.0442
548.00,0.0456
547.00,0.0473
546.00,0.0491
545.00,0.0511
544.00,0.0530
543.00,0.0550
542.00,0.0570
541.00,0.0589
540.00,0.0606
539.00,0.0617
538.00,0.0621
537.00,0.0618
536.00,0.0610
535.00,0.0595
534.00,0.0574
533.00,0.0548
532.00,0.0520
531.00,0.0491
530.00,0.0463
529.00,0.0437
528.00,0.0412
527.00,0.0389
526.00,0.0367
525.00,0.0349
524.00,0.0334
523.00,0.0318
522.00,0.0301
521.00,0.0284
520.00,0.0270
519.00,0.0259
518.00,0.0250
517.00,0.0242
516.00,0.0235
515.00,0.0228
514.00,0.0223
513.00,0.0219
512.00,0.0215
511.00,0.0212
510.00,0.0210
509.00,0.0208
508.00,0.0204
507.00,0.0197
506.00,0.0184
505.00,0.0167
504.00,0.0148
503.00,0.0136
502.00,0.0136
501.00,0.0147
500.00,0.0156
499.00,0.0157
498.00,0.0152
497.00,0.0147
496.00,0.0145
495.00,0.0145
494.00,0.0145
493.00,0.0147
492.00,0.0150
491.00,0.0151
490.00,0.0149
489.00,0.0148
488.00,0.0150
487.00,0.0153
486.00,0.0153
485.00,0.0150
484.00,0.0144
483.00,0.0137
482.00,0.0133
481.00,0.0132
480.00,0.0133
479.00,0.0134
478.00,0.0135
477.00,0.0137
476.00,0.0139
475.00,0.0138
474.00,0.0136
473.00,0.0133
472.00,0.0133
471.00,0.0134
470.00,0.0135
469.00,0.0136
468.00,0.0137
467.00,0.0136
466.00,0.0133
465.00,0.0131
464.00,0.0128
463.00,0.0125
462.00,0.0121
461.00,0.0117
460.00,0.0112
459.00,0.0109
458.00,0.0110
457.00,0.0114
456.00,0.0120
455.00,0.0126
454.00,0.0132
453.00,0.0135
452.00,0.0134
451.00,0.0126
450.00,0.0116
449.00,0.0111
448.00,0.0111
447.00,0.0113
446.00,0.0115
445.00,0.0120
444.00,0.0126
443.00,0.0127
442.00,0.0122
441.00,0.0117
440.00,0.0116
439.00,0.0118
438.00,0.0118
437.00,0.0116
436.00,0.0114
435.00,0.0112
434.00,0.0109
433.00,0.0107
432.00,0.0107
431.00,0.0109
430.00,0.0110
429.00,0.0111
428.00,0.0112
427.00,0.0111
426.00,0.0110
425.00,0.0109
424.00,0.0110
423.00,0.0110
422.00,0.0109
421.00,0.0111
420.00,0.0115
419.00,0.0116
418.00,0.0110
417.00,0.0102
416.00,0.0101
415.00,0.0104
414.00,0.0107
413.00,0.0108
412.00,0.0108
411.00,0.0104
410.00,0.0102
409.00,0.0107
408.00,0.0120
407.00,0.0132
406.00,0.0136
405.00,0.0132
404.00,0.0125
403.00,0.0115
402.00,0.0100
401.00,0.0084
400.00,0.0071
