Created as New Dataset,Sample 516 By YargerLab Date Monday, May 19 2025
cm-1,A
4000.00,-0.0032
3999.00,-0.0032
3998.00,-0.0033
3997.00,-0.0033
3996.00,-0.0033
3995.00,-0.0033
3994.00,-0.0033
3993.00,-0.0034
3992.00,-0.0034
3991.00,-0.0034
3990.00,-0.0033
3989.00,-0.0033
3988.00,-0.0033
3987.00,-0.0033
3986.00,-0.0034
3985.00,-0.0034
3984.00,-0.0034
3983.00,-0.0034
3982.00,-0.0034
3981.00,-0.0034
3980.00,-0.0034
3979.00,-0.0034
3978.00,-0.0034
3977.00,-0.0035
3976.00,-0.0035
3975.00,-0.0035
3974.00,-0.0035
3973.00,-0.0035
3972.00,-0.0035
3971.00,-0.0035
3970.00,-0.0035
3969.00,-0.0035
3968.00,-0.0035
3967.00,-0.0035
3966.00,-0.0036
3965.00,-0.0036
3964.00,-0.0035
3963.00,-0.0035
3962.00,-0.0035
3961.00,-0.0035
3960.00,-0.0035
3959.00,-0.0035
3958.00,-0.0035
3957.00,-0.0035
3956.00,-0.0035
3955.00,-0.0035
3954.00,-0.0035
3953.00,-0.0035
3952.00,-0.0035
3951.00,-0.0035
3950.00,-0.0035
3949.00,-0.0035
3948.00,-0.0035
3947.00,-0.0035
3946.00,-0.0035
3945.00,-0.0035
3944.00,-0.0036
3943.00,-0.0036
3942.00,-0.0036
3941.00,-0.0036
3940.00,-0.0036
3939.00,-0.0036
3938.00,-0.0037
3937.00,-0.0037
3936.00,-0.0037
3935.00,-0.0037
3934.00,-0.0037
3933.00,-0.0036
3932.00,-0.0036
3931.00,-0.0036
3930.00,-0.0036
3929.00,-0.0036
3928.00,-0.0036
3927.00,-0.0036
3926.00,-0.0036
3925.00,-0.0037
3924.00,-0.0037
3923.00,-0.0036
3922.00,-0.0036
3921.00,-0.0036
3920.00,-0.0036
3919.00,-0.0036
3918.00,-0.0036
3917.00,-0.0036
3916.00,-0.0037
3915.00,-0.0037
3914.00,-0.0037
3913.00,-0.0037
3912.00,-0.0037
3911.00,-0.0037
3910.00,-0.0037
3909.00,-0.0037
3908.00,-0.0036
3907.00,-0.0036
3906.00,-0.0036
3905.00,-0.0036
3904.00,-0.0035
3903.00,-0.0035
3902.00,-0.0035
3901.00,-0.0036
3900.00,-0.0036
3899.00,-0.0036
3898.00,-0.0036
3897.00,-0.0036
3896.00,-0.0036
3895.00,-0.0036
3894.00,-0.0036
3893.00,-0.0036
3892.00,-0.0036
3891.00,-0.0037
3890.00,-0.0036
3889.00,-0.0036
3888.00,-0.0037
3887.00,-0.0037
3886.00,-0.0038
3885.00,-0.0037
3884.00,-0.0037
3883.00,-0.0037
3882.00,-0.0037
3881.00,-0.0038
3880.00,-0.0038
3879.00,-0.0037
3878.00,-0.0037
3877.00,-0.0038
3876.00,-0.0038
3875.00,-0.0038
3874.00,-0.0038
3873.00,-0.0037
3872.00,-0.0037
3871.00,-0.0037
3870.00,-0.0038
3869.00,-0.0038
3868.00,-0.0037
3867.00,-0.0038
3866.00,-0.0039
3865.00,-0.0039
3864.00,-0.0039
3863.00,-0.0039
3862.00,-0.0039
3861.00,-0.0039
3860.00,-0.0039
3859.00,-0.0039
3858.00,-0.0038
3857.00,-0.0038
3856.00,-0.0037
3855.00,-0.0037
3854.00,-0.0038
3853.00,-0.0039
3852.00,-0.0039
3851.00,-0.0039
3850.00,-0.0040
3849.00,-0.0040
3848.00,-0.0041
3847.00,-0.0041
3846.00,-0.0040
3845.00,-0.0040
3844.00,-0.0040
3843.00,-0.0040
3842.00,-0.0039
3841.00,-0.0039
3840.00,-0.0039
3839.00,-0.0039
3838.00,-0.0039
3837.00,-0.0039
3836.00,-0.0039
3835.00,-0.0040
3834.00,-0.0040
3833.00,-0.0041
3832.00,-0.0041
3831.00,-0.0041
3830.00,-0.0041
3829.00,-0.0041
3828.00,-0.0041
3827.00,-0.0041
3826.00,-0.0041
3825.00,-0.0040
3824.00,-0.0040
3823.00,-0.0040
3822.00,-0.0041
3821.00,-0.0041
3820.00,-0.0040
3819.00,-0.0040
3818.00,-0.0041
3817.00,-0.0042
3816.00,-0.0042
3815.00,-0.0042
3814.00,-0.0042
3813.00,-0.0042
3812.00,-0.0043
3811.00,-0.0042
3810.00,-0.0042
3809.00,-0.0042
3808.00,-0.0042
3807.00,-0.0043
3806.00,-0.0042
3805.00,-0.0042
3804.00,-0.0042
3803.00,-0.0042
3802.00,-0.0043
3801.00,-0.0043
3800.00,-0.0042
3799.00,-0.0043
3798.00,-0.0044
3797.00,-0.0045
3796.00,-0.0045
3795.00,-0.0045
3794.00,-0.0046
3793.00,-0.0046
3792.00,-0.0046
3791.00,-0.0046
3790.00,-0.0046
3789.00,-0.0046
3788.00,-0.0046
3787.00,-0.0046
3786.00,-0.0046
3785.00,-0.0047
3784.00,-0.0047
3783.00,-0.0047
3782.00,-0.0048
3781.00,-0.0048
3780.00,-0.0048
3779.00,-0.0048
3778.00,-0.0048
3777.00,-0.0049
3776.00,-0.0049
3775.00,-0.0049
3774.00,-0.0049
3773.00,-0.0049
3772.00,-0.0049
3771.00,-0.0050
3770.00,-0.0050
3769.00,-0.0050
3768.00,-0.0050
3767.00,-0.0051
3766.00,-0.0051
3765.00,-0.0051
3764.00,-0.0051
3763.00,-0.0051
3762.00,-0.0051
3761.00,-0.0052
3760.00,-0.0052
3759.00,-0.0052
3758.00,-0.0052
3757.00,-0.0052
3756.00,-0.0051
3755.00,-0.0051
3754.00,-0.0050
3753.00,-0.0049
3752.00,-0.0049
3751.00,-0.0050
3750.00,-0.0050
3749.00,-0.0050
3748.00,-0.0051
3747.00,-0.0051
3746.00,-0.0052
3745.00,-0.0053
3744.00,-0.0052
3743.00,-0.0051
3742.00,-0.0051
3741.00,-0.0051
3740.00,-0.0051
3739.00,-0.0051
3738.00,-0.0051
3737.00,-0.0051
3736.00,-0.0051
3735.00,-0.0051
3734.00,-0.0051
3733.00,-0.0051
3732.00,-0.0051
3731.00,-0.0051
3730.00,-0.0051
3729.00,-0.0051
3728.00,-0.0052
3727.00,-0.0052
3726.00,-0.0052
3725.00,-0.0052
3724.00,-0.0052
3723.00,-0.0052
3722.00,-0.0052
3721.00,-0.0052
3720.00,-0.0052
3719.00,-0.0053
3718.00,-0.0053
3717.00,-0.0052
3716.00,-0.0052
3715.00,-0.0052
3714.00,-0.0051
3713.00,-0.0051
3712.00,-0.0051
3711.00,-0.0052
3710.00,-0.0052
3709.00,-0.0052
3708.00,-0.0052
3707.00,-0.0052
3706.00,-0.0052
3705.00,-0.0052
3704.00,-0.0052
3703.00,-0.0052
3702.00,-0.0052
3701.00,-0.0052
3700.00,-0.0051
3699.00,-0.0051
3698.00,-0.0051
3697.00,-0.0050
3696.00,-0.0049
3695.00,-0.0048
3694.00,-0.0046
3693.00,-0.0045
3692.00,-0.0043
3691.00,-0.0042
3690.00,-0.0040
3689.00,-0.0037
3688.00,-0.0034
3687.00,-0.0030
3686.00,-0.0026
3685.00,-0.0022
3684.00,-0.0018
3683.00,-0.0012
3682.00,-0.0006
3681.00,0.0001
3680.00,0.0007
3679.00,0.0014
3678.00,0.0021
3677.00,0.0028
3676.00,0.0035
3675.00,0.0043
3674.00,0.0050
3673.00,0.0055
3672.00,0.0059
3671.00,0.0061
3670.00,0.0064
3669.00,0.0067
3668.00,0.0069
3667.00,0.0070
3666.00,0.0072
3665.00,0.0075
3664.00,0.0078
3663.00,0.0082
3662.00,0.0085
3661.00,0.0087
3660.00,0.0089
3659.00,0.0090
3658.00,0.0090
3657.00,0.0090
3656.00,0.0089
3655.00,0.0087
3654.00,0.0086
3653.00,0.0085
3652.00,0.0083
3651.00,0.0082
3650.00,0.0081
3649.00,0.0079
3648.00,0.0077
3647.00,0.0075
3646.00,0.0071
3645.00,0.0067
3644.00,0.0063
3643.00,0.0058
3642.00,0.0054
3641.00,0.0050
3640.00,0.0048
3639.00,0.0049
3638.00,0.0049
3637.00,0.0047
3636.00,0.0040
3635.00,0.0030
3634.00,0.0018
3633.00,0.0009
3632.00,0.0002
3631.00,-0.0002
3630.00,-0.0006
3629.00,-0.0010
3628.00,-0.0012
3627.00,-0.0015
3626.00,-0.0017
3625.00,-0.0019
3624.00,-0.0020
3623.00,-0.0020
3622.00,-0.0021
3621.00,-0.0021
3620.00,-0.0022
3619.00,-0.0023
3618.00,-0.0025
3617.00,-0.0026
3616.00,-0.0027
3615.00,-0.0028
3614.00,-0.0028
3613.00,-0.0029
3612.00,-0.0029
3611.00,-0.0029
3610.00,-0.0030
3609.00,-0.0030
3608.00,-0.0031
3607.00,-0.0031
3606.00,-0.0032
3605.00,-0.0032
3604.00,-0.0033
3603.00,-0.0033
3602.00,-0.0032
3601.00,-0.0032
3600.00,-0.0031
3599.00,-0.0031
3598.00,-0.0030
3597.00,-0.0030
3596.00,-0.0030
3595.00,-0.0030
3594.00,-0.0030
3593.00,-0.0030
3592.00,-0.0029
3591.00,-0.0029
3590.00,-0.0028
3589.00,-0.0028
3588.00,-0.0028
3587.00,-0.0028
3586.00,-0.0027
3585.00,-0.0027
3584.00,-0.0027
3583.00,-0.0027
3582.00,-0.0026
3581.00,-0.0026
3580.00,-0.0025
3579.00,-0.0025
3578.00,-0.0024
3577.00,-0.0024
3576.00,-0.0023
3575.00,-0.0023
3574.00,-0.0023
3573.00,-0.0022
3572.00,-0.0021
3571.00,-0.0020
3570.00,-0.0019
3569.00,-0.0019
3568.00,-0.0019
3567.00,-0.0018
3566.00,-0.0018
3565.00,-0.0017
3564.00,-0.0017
3563.00,-0.0017
3562.00,-0.0016
3561.00,-0.0016
3560.00,-0.0015
3559.00,-0.0014
3558.00,-0.0014
3557.00,-0.0013
3556.00,-0.0013
3555.00,-0.0012
3554.00,-0.0012
3553.00,-0.0011
3552.00,-0.0011
3551.00,-0.0010
3550.00,-0.0010
3549.00,-0.0009
3548.00,-0.0009
3547.00,-0.0008
3546.00,-0.0007
3545.00,-0.0007
3544.00,-0.0006
3543.00,-0.0006
3542.00,-0.0005
3541.00,-0.0005
3540.00,-0.0004
3539.00,-0.0004
3538.00,-0.0004
3537.00,-0.0003
3536.00,-0.0003
3535.00,-0.0002
3534.00,-0.0002
3533.00,-0.0001
3532.00,-0.0001
3531.00,-0.0000
3530.00,-0.0000
3529.00,0.0000
3528.00,0.0001
3527.00,0.0001
3526.00,0.0002
3525.00,0.0002
3524.00,0.0003
3523.00,0.0004
3522.00,0.0004
3521.00,0.0004
3520.00,0.0005
3519.00,0.0005
3518.00,0.0005
3517.00,0.0006
3516.00,0.0007
3515.00,0.0008
3514.00,0.0009
3513.00,0.0009
3512.00,0.0009
3511.00,0.0010
3510.00,0.0010
3509.00,0.0011
3508.00,0.0011
3507.00,0.0012
3506.00,0.0013
3505.00,0.0013
3504.00,0.0014
3503.00,0.0014
3502.00,0.0015
3501.00,0.0015
3500.00,0.0016
3499.00,0.0016
3498.00,0.0017
3497.00,0.0018
3496.00,0.0018
3495.00,0.0018
3494.00,0.0019
3493.00,0.0019
3492.00,0.0020
3491.00,0.0020
3490.00,0.0021
3489.00,0.0022
3488.00,0.0022
3487.00,0.0023
3486.00,0.0023
3485.00,0.0023
3484.00,0.0024
3483.00,0.0025
3482.00,0.0025
3481.00,0.0026
3480.00,0.0027
3479.00,0.0028
3478.00,0.0028
3477.00,0.0029
3476.00,0.0029
3475.00,0.0029
3474.00,0.0030
3473.00,0.0030
3472.00,0.0031
3471.00,0.0032
3470.00,0.0032
3469.00,0.0033
3468.00,0.0034
3467.00,0.0034
3466.00,0.0035
3465.00,0.0035
3464.00,0.0036
3463.00,0.0036
3462.00,0.0036
3461.00,0.0036
3460.00,0.0037
3459.00,0.0037
3458.00,0.0037
3457.00,0.0038
3456.00,0.0038
3455.00,0.0039
3454.00,0.0039
3453.00,0.0040
3452.00,0.0041
3451.00,0.0042
3450.00,0.0042
3449.00,0.0043
3448.00,0.0043
3447.00,0.0043
3446.00,0.0043
3445.00,0.0043
3444.00,0.0043
3443.00,0.0044
3442.00,0.0044
3441.00,0.0045
3440.00,0.0045
3439.00,0.0046
3438.00,0.0046
3437.00,0.0046
3436.00,0.0047
3435.00,0.0048
3434.00,0.0048
3433.00,0.0049
3432.00,0.0050
3431.00,0.0050
3430.00,0.0051
3429.00,0.0051
3428.00,0.0052
3427.00,0.0052
3426.00,0.0053
3425.00,0.0053
3424.00,0.0054
3423.00,0.0054
3422.00,0.0055
3421.00,0.0055
3420.00,0.0056
3419.00,0.0056
3418.00,0.0057
3417.00,0.0057
3416.00,0.0058
3415.00,0.0058
3414.00,0.0059
3413.00,0.0060
3412.00,0.0060
3411.00,0.0061
3410.00,0.0062
3409.00,0.0062
3408.00,0.0063
3407.00,0.0064
3406.00,0.0064
3405.00,0.0065
3404.00,0.0065
3403.00,0.0066
3402.00,0.0066
3401.00,0.0067
3400.00,0.0068
3399.00,0.0068
3398.00,0.0069
3397.00,0.0070
3396.00,0.0071
3395.00,0.0071
3394.00,0.0072
3393.00,0.0072
3392.00,0.0073
3391.00,0.0073
3390.00,0.0074
3389.00,0.0075
3388.00,0.0076
3387.00,0.0077
3386.00,0.0078
3385.00,0.0078
3384.00,0.0079
3383.00,0.0080
3382.00,0.0080
3381.00,0.0081
3380.00,0.0082
3379.00,0.0083
3378.00,0.0084
3377.00,0.0085
3376.00,0.0086
3375.00,0.0087
3374.00,0.0089
3373.00,0.0090
3372.00,0.0091
3371.00,0.0092
3370.00,0.0093
3369.00,0.0094
3368.00,0.0095
3367.00,0.0097
3366.00,0.0098
3365.00,0.0100
3364.00,0.0102
3363.00,0.0103
3362.00,0.0105
3361.00,0.0106
3360.00,0.0108
3359.00,0.0110
3358.00,0.0112
3357.00,0.0113
3356.00,0.0115
3355.00,0.0117
3354.00,0.0119
3353.00,0.0120
3352.00,0.0122
3351.00,0.0124
3350.00,0.0126
3349.00,0.0128
3348.00,0.0130
3347.00,0.0132
3346.00,0.0134
3345.00,0.0136
3344.00,0.0139
3343.00,0.0141
3342.00,0.0143
3341.00,0.0146
3340.00,0.0148
3339.00,0.0151
3338.00,0.0154
3337.00,0.0157
3336.00,0.0160
3335.00,0.0163
3334.00,0.0166
3333.00,0.0169
3332.00,0.0172
3331.00,0.0175
3330.00,0.0178
3329.00,0.0181
3328.00,0.0184
3327.00,0.0187
3326.00,0.0191
3325.00,0.0195
3324.00,0.0198
3323.00,0.0202
3322.00,0.0206
3321.00,0.0210
3320.00,0.0214
3319.00,0.0218
3318.00,0.0223
3317.00,0.0227
3316.00,0.0231
3315.00,0.0236
3314.00,0.0240
3313.00,0.0244
3312.00,0.0248
3311.00,0.0252
3310.00,0.0256
3309.00,0.0259
3308.00,0.0263
3307.00,0.0268
3306.00,0.0272
3305.00,0.0277
3304.00,0.0283
3303.00,0.0288
3302.00,0.0293
3301.00,0.0298
3300.00,0.0302
3299.00,0.0306
3298.00,0.0310
3297.00,0.0314
3296.00,0.0317
3295.00,0.0321
3294.00,0.0324
3293.00,0.0328
3292.00,0.0331
3291.00,0.0335
3290.00,0.0338
3289.00,0.0341
3288.00,0.0344
3287.00,0.0346
3286.00,0.0348
3285.00,0.0349
3284.00,0.0350
3283.00,0.0350
3282.00,0.0350
3281.00,0.0350
3280.00,0.0350
3279.00,0.0349
3278.00,0.0347
3277.00,0.0345
3276.00,0.0343
3275.00,0.0341
3274.00,0.0338
3273.00,0.0335
3272.00,0.0331
3271.00,0.0328
3270.00,0.0326
3269.00,0.0323
3268.00,0.0320
3267.00,0.0317
3266.00,0.0313
3265.00,0.0309
3264.00,0.0305
3263.00,0.0301
3262.00,0.0297
3261.00,0.0294
3260.00,0.0290
3259.00,0.0286
3258.00,0.0281
3257.00,0.0277
3256.00,0.0273
3255.00,0.0270
3254.00,0.0266
3253.00,0.0264
3252.00,0.0260
3251.00,0.0257
3250.00,0.0253
3249.00,0.0250
3248.00,0.0246
3247.00,0.0242
3246.00,0.0240
3245.00,0.0238
3244.00,0.0235
3243.00,0.0233
3242.00,0.0230
3241.00,0.0227
3240.00,0.0225
3239.00,0.0222
3238.00,0.0219
3237.00,0.0216
3236.00,0.0213
3235.00,0.0210
3234.00,0.0207
3233.00,0.0205
3232.00,0.0203
3231.00,0.0202
3230.00,0.0200
3229.00,0.0199
3228.00,0.0197
3227.00,0.0195
3226.00,0.0193
3225.00,0.0191
3224.00,0.0189
3223.00,0.0187
3222.00,0.0185
3221.00,0.0183
3220.00,0.0181
3219.00,0.0180
3218.00,0.0178
3217.00,0.0176
3216.00,0.0175
3215.00,0.0173
3214.00,0.0171
3213.00,0.0170
3212.00,0.0168
3211.00,0.0166
3210.00,0.0164
3209.00,0.0163
3208.00,0.0161
3207.00,0.0159
3206.00,0.0157
3205.00,0.0156
3204.00,0.0154
3203.00,0.0153
3202.00,0.0152
3201.00,0.0150
3200.00,0.0149
3199.00,0.0147
3198.00,0.0145
3197.00,0.0143
3196.00,0.0141
3195.00,0.0139
3194.00,0.0137
3193.00,0.0135
3192.00,0.0134
3191.00,0.0132
3190.00,0.0130
3189.00,0.0129
3188.00,0.0127
3187.00,0.0125
3186.00,0.0123
3185.00,0.0121
3184.00,0.0119
3183.00,0.0117
3182.00,0.0115
3181.00,0.0113
3180.00,0.0111
3179.00,0.0109
3178.00,0.0108
3177.00,0.0106
3176.00,0.0104
3175.00,0.0102
3174.00,0.0100
3173.00,0.0098
3172.00,0.0096
3171.00,0.0094
3170.00,0.0093
3169.00,0.0091
3168.00,0.0089
3167.00,0.0087
3166.00,0.0085
3165.00,0.0083
3164.00,0.0081
3163.00,0.0080
3162.00,0.0078
3161.00,0.0076
3160.00,0.0074
3159.00,0.0073
3158.00,0.0071
3157.00,0.0070
3156.00,0.0068
3155.00,0.0066
3154.00,0.0065
3153.00,0.0063
3152.00,0.0062
3151.00,0.0061
3150.00,0.0060
3149.00,0.0059
3148.00,0.0057
3147.00,0.0056
3146.00,0.0055
3145.00,0.0054
3144.00,0.0053
3143.00,0.0051
3142.00,0.0050
3141.00,0.0049
3140.00,0.0048
3139.00,0.0047
3138.00,0.0047
3137.00,0.0046
3136.00,0.0046
3135.00,0.0045
3134.00,0.0044
3133.00,0.0043
3132.00,0.0042
3131.00,0.0042
3130.00,0.0041
3129.00,0.0040
3128.00,0.0040
3127.00,0.0039
3126.00,0.0039
3125.00,0.0038
3124.00,0.0038
3123.00,0.0037
3122.00,0.0036
3121.00,0.0035
3120.00,0.0035
3119.00,0.0035
3118.00,0.0034
3117.00,0.0034
3116.00,0.0034
3115.00,0.0035
3114.00,0.0035
3113.00,0.0036
3112.00,0.0036
3111.00,0.0036
3110.00,0.0036
3109.00,0.0036
3108.00,0.0036
3107.00,0.0037
3106.00,0.0037
3105.00,0.0038
3104.00,0.0038
3103.00,0.0038
3102.00,0.0038
3101.00,0.0038
3100.00,0.0038
3099.00,0.0039
3098.00,0.0039
3097.00,0.0040
3096.00,0.0041
3095.00,0.0041
3094.00,0.0042
3093.00,0.0042
3092.00,0.0041
3091.00,0.0041
3090.00,0.0042
3089.00,0.0042
3088.00,0.0043
3087.00,0.0043
3086.00,0.0043
3085.00,0.0043
3084.00,0.0044
3083.00,0.0044
3082.00,0.0044
3081.00,0.0044
3080.00,0.0045
3079.00,0.0045
3078.00,0.0045
3077.00,0.0046
3076.00,0.0047
3075.00,0.0048
3074.00,0.0048
3073.00,0.0049
3072.00,0.0049
3071.00,0.0048
3070.00,0.0048
3069.00,0.0047
3068.00,0.0046
3067.00,0.0046
3066.00,0.0046
3065.00,0.0046
3064.00,0.0046
3063.00,0.0046
3062.00,0.0046
3061.00,0.0046
3060.00,0.0045
3059.00,0.0044
3058.00,0.0043
3057.00,0.0042
3056.00,0.0041
3055.00,0.0040
3054.00,0.0039
3053.00,0.0038
3052.00,0.0037
3051.00,0.0036
3050.00,0.0035
3049.00,0.0034
3048.00,0.0034
3047.00,0.0032
3046.00,0.0031
3045.00,0.0029
3044.00,0.0028
3043.00,0.0027
3042.00,0.0026
3041.00,0.0026
3040.00,0.0026
3039.00,0.0026
3038.00,0.0025
3037.00,0.0024
3036.00,0.0023
3035.00,0.0022
3034.00,0.0021
3033.00,0.0021
3032.00,0.0021
3031.00,0.0021
3030.00,0.0022
3029.00,0.0022
3028.00,0.0023
3027.00,0.0024
3026.00,0.0024
3025.00,0.0025
3024.00,0.0027
3023.00,0.0030
3022.00,0.0032
3021.00,0.0036
3020.00,0.0041
3019.00,0.0047
3018.00,0.0054
3017.00,0.0063
3016.00,0.0073
3015.00,0.0086
3014.00,0.0101
3013.00,0.0119
3012.00,0.0141
3011.00,0.0165
3010.00,0.0193
3009.00,0.0224
3008.00,0.0257
3007.00,0.0292
3006.00,0.0329
3005.00,0.0368
3004.00,0.0408
3003.00,0.0449
3002.00,0.0489
3001.00,0.0528
3000.00,0.0565
2999.00,0.0598
2998.00,0.0629
2997.00,0.0657
2996.00,0.0682
2995.00,0.0705
2994.00,0.0727
2993.00,0.0749
2992.00,0.0769
2991.00,0.0789
2990.00,0.0808
2989.00,0.0829
2988.00,0.0855
2987.00,0.0891
2986.00,0.0949
2985.00,0.1037
2984.00,0.1153
2983.00,0.1273
2982.00,0.1363
2981.00,0.1398
2980.00,0.1377
2979.00,0.1321
2978.00,0.1255
2977.00,0.1195
2976.00,0.1152
2975.00,0.1131
2974.00,0.1131
2973.00,0.1145
2972.00,0.1154
2971.00,0.1144
2970.00,0.1109
2969.00,0.1057
2968.00,0.1004
2967.00,0.0959
2966.00,0.0921
2965.00,0.0888
2964.00,0.0856
2963.00,0.0827
2962.00,0.0801
2961.00,0.0776
2960.00,0.0754
2959.00,0.0732
2958.00,0.0711
2957.00,0.0690
2956.00,0.0668
2955.00,0.0646
2954.00,0.0623
2953.00,0.0599
2952.00,0.0576
2951.00,0.0554
2950.00,0.0534
2949.00,0.0515
2948.00,0.0496
2947.00,0.0477
2946.00,0.0457
2945.00,0.0438
2944.00,0.0422
2943.00,0.0410
2942.00,0.0402
2941.00,0.0399
2940.00,0.0398
2939.00,0.0398
2938.00,0.0397
2937.00,0.0397
2936.00,0.0398
2935.00,0.0402
2934.00,0.0408
2933.00,0.0415
2932.00,0.0421
2931.00,0.0425
2930.00,0.0425
2929.00,0.0424
2928.00,0.0421
2927.00,0.0418
2926.00,0.0415
2925.00,0.0413
2924.00,0.0410
2923.00,0.0408
2922.00,0.0406
2921.00,0.0405
2920.00,0.0405
2919.00,0.0404
2918.00,0.0403
2917.00,0.0402
2916.00,0.0399
2915.00,0.0395
2914.00,0.0392
2913.00,0.0388
2912.00,0.0386
2911.00,0.0385
2910.00,0.0385
2909.00,0.0386
2908.00,0.0387
2907.00,0.0388
2906.00,0.0389
2905.00,0.0390
2904.00,0.0391
2903.00,0.0391
2902.00,0.0391
2901.00,0.0392
2900.00,0.0392
2899.00,0.0392
2898.00,0.0393
2897.00,0.0396
2896.00,0.0400
2895.00,0.0406
2894.00,0.0414
2893.00,0.0422
2892.00,0.0431
2891.00,0.0437
2890.00,0.0441
2889.00,0.0441
2888.00,0.0439
2887.00,0.0435
2886.00,0.0433
2885.00,0.0431
2884.00,0.0427
2883.00,0.0418
2882.00,0.0401
2881.00,0.0380
2880.00,0.0357
2879.00,0.0336
2878.00,0.0319
2877.00,0.0305
2876.00,0.0294
2875.00,0.0285
2874.00,0.0278
2873.00,0.0271
2872.00,0.0264
2871.00,0.0257
2870.00,0.0249
2869.00,0.0240
2868.00,0.0231
2867.00,0.0222
2866.00,0.0213
2865.00,0.0204
2864.00,0.0195
2863.00,0.0186
2862.00,0.0178
2861.00,0.0171
2860.00,0.0165
2859.00,0.0160
2858.00,0.0156
2857.00,0.0153
2856.00,0.0150
2855.00,0.0148
2854.00,0.0145
2853.00,0.0142
2852.00,0.0137
2851.00,0.0131
2850.00,0.0123
2849.00,0.0113
2848.00,0.0102
2847.00,0.0091
2846.00,0.0080
2845.00,0.0070
2844.00,0.0061
2843.00,0.0054
2842.00,0.0047
2841.00,0.0042
2840.00,0.0037
2839.00,0.0034
2838.00,0.0031
2837.00,0.0028
2836.00,0.0026
2835.00,0.0024
2834.00,0.0022
2833.00,0.0021
2832.00,0.0019
2831.00,0.0017
2830.00,0.0016
2829.00,0.0014
2828.00,0.0012
2827.00,0.0011
2826.00,0.0009
2825.00,0.0008
2824.00,0.0007
2823.00,0.0006
2822.00,0.0005
2821.00,0.0004
2820.00,0.0002
2819.00,0.0001
2818.00,-0.0000
2817.00,-0.0001
2816.00,-0.0002
2815.00,-0.0003
2814.00,-0.0005
2813.00,-0.0006
2812.00,-0.0008
2811.00,-0.0009
2810.00,-0.0010
2809.00,-0.0011
2808.00,-0.0012
2807.00,-0.0013
2806.00,-0.0013
2805.00,-0.0014
2804.00,-0.0015
2803.00,-0.0015
2802.00,-0.0016
2801.00,-0.0017
2800.00,-0.0018
2799.00,-0.0019
2798.00,-0.0019
2797.00,-0.0020
2796.00,-0.0020
2795.00,-0.0020
2794.00,-0.0021
2793.00,-0.0023
2792.00,-0.0024
2791.00,-0.0025
2790.00,-0.0025
2789.00,-0.0026
2788.00,-0.0026
2787.00,-0.0026
2786.00,-0.0027
2785.00,-0.0028
2784.00,-0.0029
2783.00,-0.0030
2782.00,-0.0031
2781.00,-0.0031
2780.00,-0.0032
2779.00,-0.0033
2778.00,-0.0033
2777.00,-0.0034
2776.00,-0.0035
2775.00,-0.0036
2774.00,-0.0036
2773.00,-0.0037
2772.00,-0.0037
2771.00,-0.0037
2770.00,-0.0037
2769.00,-0.0038
2768.00,-0.0038
2767.00,-0.0039
2766.00,-0.0040
2765.00,-0.0041
2764.00,-0.0041
2763.00,-0.0042
2762.00,-0.0043
2761.00,-0.0044
2760.00,-0.0044
2759.00,-0.0045
2758.00,-0.0046
2757.00,-0.0046
2756.00,-0.0047
2755.00,-0.0048
2754.00,-0.0048
2753.00,-0.0049
2752.00,-0.0049
2751.00,-0.0050
2750.00,-0.0050
2749.00,-0.0051
2748.00,-0.0051
2747.00,-0.0051
2746.00,-0.0051
2745.00,-0.0051
2744.00,-0.0051
2743.00,-0.0052
2742.00,-0.0052
2741.00,-0.0053
2740.00,-0.0053
2739.00,-0.0054
2738.00,-0.0054
2737.00,-0.0054
2736.00,-0.0054
2735.00,-0.0054
2734.00,-0.0055
2733.00,-0.0055
2732.00,-0.0056
2731.00,-0.0057
2730.00,-0.0057
2729.00,-0.0058
2728.00,-0.0059
2727.00,-0.0060
2726.00,-0.0061
2725.00,-0.0061
2724.00,-0.0062
2723.00,-0.0062
2722.00,-0.0062
2721.00,-0.0063
2720.00,-0.0063
2719.00,-0.0064
2718.00,-0.0064
2717.00,-0.0065
2716.00,-0.0065
2715.00,-0.0066
2714.00,-0.0067
2713.00,-0.0067
2712.00,-0.0068
2711.00,-0.0069
2710.00,-0.0069
2709.00,-0.0070
2708.00,-0.0070
2707.00,-0.0071
2706.00,-0.0071
2705.00,-0.0071
2704.00,-0.0072
2703.00,-0.0072
2702.00,-0.0072
2701.00,-0.0072
2700.00,-0.0073
2699.00,-0.0073
2698.00,-0.0073
2697.00,-0.0073
2696.00,-0.0073
2695.00,-0.0073
2694.00,-0.0073
2693.00,-0.0073
2692.00,-0.0073
2691.00,-0.0073
2690.00,-0.0073
2689.00,-0.0073
2688.00,-0.0072
2687.00,-0.0072
2686.00,-0.0072
2685.00,-0.0071
2684.00,-0.0071
2683.00,-0.0071
2682.00,-0.0071
2681.00,-0.0072
2680.00,-0.0072
2679.00,-0.0072
2678.00,-0.0072
2677.00,-0.0072
2676.00,-0.0072
2675.00,-0.0071
2674.00,-0.0071
2673.00,-0.0070
2672.00,-0.0069
2671.00,-0.0069
2670.00,-0.0068
2669.00,-0.0068
2668.00,-0.0067
2667.00,-0.0067
2666.00,-0.0067
2665.00,-0.0067
2664.00,-0.0068
2663.00,-0.0069
2662.00,-0.0069
2661.00,-0.0070
2660.00,-0.0070
2659.00,-0.0071
2658.00,-0.0071
2657.00,-0.0072
2656.00,-0.0072
2655.00,-0.0072
2654.00,-0.0073
2653.00,-0.0073
2652.00,-0.0073
2651.00,-0.0074
2650.00,-0.0074
2649.00,-0.0074
2648.00,-0.0075
2647.00,-0.0075
2646.00,-0.0076
2645.00,-0.0076
2644.00,-0.0076
2643.00,-0.0076
2642.00,-0.0076
2641.00,-0.0076
2640.00,-0.0077
2639.00,-0.0078
2638.00,-0.0079
2637.00,-0.0080
2636.00,-0.0081
2635.00,-0.0082
2634.00,-0.0083
2633.00,-0.0083
2632.00,-0.0083
2631.00,-0.0083
2630.00,-0.0084
2629.00,-0.0084
2628.00,-0.0084
2627.00,-0.0085
2626.00,-0.0085
2625.00,-0.0086
2624.00,-0.0087
2623.00,-0.0088
2622.00,-0.0089
2621.00,-0.0089
2620.00,-0.0090
2619.00,-0.0090
2618.00,-0.0090
2617.00,-0.0090
2616.00,-0.0090
2615.00,-0.0091
2614.00,-0.0092
2613.00,-0.0092
2612.00,-0.0093
2611.00,-0.0093
2610.00,-0.0093
2609.00,-0.0093
2608.00,-0.0093
2607.00,-0.0092
2606.00,-0.0093
2605.00,-0.0094
2604.00,-0.0095
2603.00,-0.0095
2602.00,-0.0096
2601.00,-0.0097
2600.00,-0.0097
2599.00,-0.0097
2598.00,-0.0098
2597.00,-0.0098
2596.00,-0.0099
2595.00,-0.0099
2594.00,-0.0100
2593.00,-0.0100
2592.00,-0.0100
2591.00,-0.0100
2590.00,-0.0101
2589.00,-0.0101
2588.00,-0.0102
2587.00,-0.0102
2586.00,-0.0103
2585.00,-0.0103
2584.00,-0.0103
2583.00,-0.0103
2582.00,-0.0103
2581.00,-0.0104
2580.00,-0.0104
2579.00,-0.0104
2578.00,-0.0105
2577.00,-0.0105
2576.00,-0.0105
2575.00,-0.0105
2574.00,-0.0106
2573.00,-0.0106
2572.00,-0.0107
2571.00,-0.0107
2570.00,-0.0108
2569.00,-0.0108
2568.00,-0.0108
2567.00,-0.0108
2566.00,-0.0108
2565.00,-0.0108
2564.00,-0.0108
2563.00,-0.0108
2562.00,-0.0108
2561.00,-0.0109
2560.00,-0.0109
2559.00,-0.0109
2558.00,-0.0109
2557.00,-0.0109
2556.00,-0.0109
2555.00,-0.0109
2554.00,-0.0109
2553.00,-0.0109
2552.00,-0.0110
2551.00,-0.0110
2550.00,-0.0110
2549.00,-0.0110
2548.00,-0.0110
2547.00,-0.0110
2546.00,-0.0111
2545.00,-0.0111
2544.00,-0.0111
2543.00,-0.0111
2542.00,-0.0111
2541.00,-0.0111
2540.00,-0.0111
2539.00,-0.0111
2538.00,-0.0110
2537.00,-0.0110
2536.00,-0.0110
2535.00,-0.0111
2534.00,-0.0111
2533.00,-0.0112
2532.00,-0.0112
2531.00,-0.0112
2530.00,-0.0112
2529.00,-0.0112
2528.00,-0.0112
2527.00,-0.0112
2526.00,-0.0112
2525.00,-0.0112
2524.00,-0.0112
2523.00,-0.0112
2522.00,-0.0112
2521.00,-0.0112
2520.00,-0.0112
2519.00,-0.0113
2518.00,-0.0113
2517.00,-0.0113
2516.00,-0.0113
2515.00,-0.0113
2514.00,-0.0113
2513.00,-0.0113
2512.00,-0.0113
2511.00,-0.0113
2510.00,-0.0113
2509.00,-0.0113
2508.00,-0.0113
2507.00,-0.0113
2506.00,-0.0113
2505.00,-0.0113
2504.00,-0.0113
2503.00,-0.0114
2502.00,-0.0114
2501.00,-0.0114
2500.00,-0.0114
2499.00,-0.0115
2498.00,-0.0115
2497.00,-0.0115
2496.00,-0.0116
2495.00,-0.0116
2494.00,-0.0116
2493.00,-0.0116
2492.00,-0.0116
2491.00,-0.0116
2490.00,-0.0117
2489.00,-0.0118
2488.00,-0.0118
2487.00,-0.0118
2486.00,-0.0118
2485.00,-0.0118
2484.00,-0.0118
2483.00,-0.0119
2482.00,-0.0119
2481.00,-0.0119
2480.00,-0.0120
2479.00,-0.0120
2478.00,-0.0120
2477.00,-0.0120
2476.00,-0.0120
2475.00,-0.0120
2474.00,-0.0120
2473.00,-0.0120
2472.00,-0.0121
2471.00,-0.0121
2470.00,-0.0121
2469.00,-0.0122
2468.00,-0.0122
2467.00,-0.0122
2466.00,-0.0123
2465.00,-0.0123
2464.00,-0.0123
2463.00,-0.0123
2462.00,-0.0123
2461.00,-0.0124
2460.00,-0.0124
2459.00,-0.0124
2458.00,-0.0124
2457.00,-0.0124
2456.00,-0.0124
2455.00,-0.0124
2454.00,-0.0124
2453.00,-0.0124
2452.00,-0.0124
2451.00,-0.0125
2450.00,-0.0125
2449.00,-0.0126
2448.00,-0.0126
2447.00,-0.0126
2446.00,-0.0126
2445.00,-0.0125
2444.00,-0.0125
2443.00,-0.0125
2442.00,-0.0125
2441.00,-0.0126
2440.00,-0.0126
2439.00,-0.0127
2438.00,-0.0127
2437.00,-0.0128
2436.00,-0.0128
2435.00,-0.0128
2434.00,-0.0128
2433.00,-0.0128
2432.00,-0.0128
2431.00,-0.0128
2430.00,-0.0129
2429.00,-0.0129
2428.00,-0.0129
2427.00,-0.0129
2426.00,-0.0129
2425.00,-0.0129
2424.00,-0.0129
2423.00,-0.0129
2422.00,-0.0130
2421.00,-0.0130
2420.00,-0.0130
2419.00,-0.0130
2418.00,-0.0130
2417.00,-0.0130
2416.00,-0.0130
2415.00,-0.0131
2414.00,-0.0131
2413.00,-0.0132
2412.00,-0.0132
2411.00,-0.0132
2410.00,-0.0132
2409.00,-0.0132
2408.00,-0.0132
2407.00,-0.0132
2406.00,-0.0132
2405.00,-0.0133
2404.00,-0.0133
2403.00,-0.0133
2402.00,-0.0133
2401.00,-0.0133
2400.00,-0.0133
2399.00,-0.0133
2398.00,-0.0133
2397.00,-0.0133
2396.00,-0.0133
2395.00,-0.0134
2394.00,-0.0134
2393.00,-0.0134
2392.00,-0.0135
2391.00,-0.0135
2390.00,-0.0135
2389.00,-0.0135
2388.00,-0.0135
2387.00,-0.0135
2386.00,-0.0135
2385.00,-0.0135
2384.00,-0.0135
2383.00,-0.0134
2382.00,-0.0134
2381.00,-0.0133
2380.00,-0.0133
2379.00,-0.0133
2378.00,-0.0133
2377.00,-0.0134
2376.00,-0.0134
2375.00,-0.0134
2374.00,-0.0134
2373.00,-0.0134
2372.00,-0.0134
2371.00,-0.0134
2370.00,-0.0134
2369.00,-0.0134
2368.00,-0.0134
2367.00,-0.0134
2366.00,-0.0134
2365.00,-0.0134
2364.00,-0.0133
2363.00,-0.0134
2362.00,-0.0134
2361.00,-0.0135
2360.00,-0.0135
2359.00,-0.0135
2358.00,-0.0135
2357.00,-0.0136
2356.00,-0.0137
2355.00,-0.0138
2354.00,-0.0138
2353.00,-0.0138
2352.00,-0.0138
2351.00,-0.0137
2350.00,-0.0136
2349.00,-0.0135
2348.00,-0.0134
2347.00,-0.0134
2346.00,-0.0133
2345.00,-0.0134
2344.00,-0.0135
2343.00,-0.0136
2342.00,-0.0136
2341.00,-0.0137
2340.00,-0.0137
2339.00,-0.0138
2338.00,-0.0138
2337.00,-0.0139
2336.00,-0.0139
2335.00,-0.0139
2334.00,-0.0139
2333.00,-0.0139
2332.00,-0.0138
2331.00,-0.0138
2330.00,-0.0139
2329.00,-0.0140
2328.00,-0.0142
2327.00,-0.0144
2326.00,-0.0144
2325.00,-0.0144
2324.00,-0.0142
2323.00,-0.0142
2322.00,-0.0142
2321.00,-0.0142
2320.00,-0.0143
2319.00,-0.0143
2318.00,-0.0143
2317.00,-0.0143
2316.00,-0.0143
2315.00,-0.0143
2314.00,-0.0143
2313.00,-0.0143
2312.00,-0.0143
2311.00,-0.0143
2310.00,-0.0143
2309.00,-0.0143
2308.00,-0.0144
2307.00,-0.0145
2306.00,-0.0145
2305.00,-0.0146
2304.00,-0.0146
2303.00,-0.0146
2302.00,-0.0146
2301.00,-0.0146
2300.00,-0.0147
2299.00,-0.0147
2298.00,-0.0147
2297.00,-0.0148
2296.00,-0.0148
2295.00,-0.0148
2294.00,-0.0149
2293.00,-0.0150
2292.00,-0.0150
2291.00,-0.0151
2290.00,-0.0151
2289.00,-0.0152
2288.00,-0.0153
2287.00,-0.0153
2286.00,-0.0153
2285.00,-0.0153
2284.00,-0.0152
2283.00,-0.0152
2282.00,-0.0152
2281.00,-0.0153
2280.00,-0.0153
2279.00,-0.0153
2278.00,-0.0153
2277.00,-0.0153
2276.00,-0.0153
2275.00,-0.0153
2274.00,-0.0153
2273.00,-0.0153
2272.00,-0.0154
2271.00,-0.0154
2270.00,-0.0155
2269.00,-0.0155
2268.00,-0.0155
2267.00,-0.0155
2266.00,-0.0155
2265.00,-0.0155
2264.00,-0.0155
2263.00,-0.0156
2262.00,-0.0157
2261.00,-0.0158
2260.00,-0.0158
2259.00,-0.0158
2258.00,-0.0157
2257.00,-0.0157
2256.00,-0.0157
2255.00,-0.0158
2254.00,-0.0159
2253.00,-0.0159
2252.00,-0.0158
2251.00,-0.0158
2250.00,-0.0158
2249.00,-0.0158
2248.00,-0.0158
2247.00,-0.0158
2246.00,-0.0158
2245.00,-0.0158
2244.00,-0.0159
2243.00,-0.0159
2242.00,-0.0160
2241.00,-0.0160
2240.00,-0.0160
2239.00,-0.0160
2238.00,-0.0160
2237.00,-0.0160
2236.00,-0.0160
2235.00,-0.0161
2234.00,-0.0161
2233.00,-0.0161
2232.00,-0.0161
2231.00,-0.0161
2230.00,-0.0162
2229.00,-0.0162
2228.00,-0.0162
2227.00,-0.0162
2226.00,-0.0162
2225.00,-0.0162
2224.00,-0.0162
2223.00,-0.0162
2222.00,-0.0162
2221.00,-0.0162
2220.00,-0.0162
2219.00,-0.0162
2218.00,-0.0162
2217.00,-0.0163
2216.00,-0.0163
2215.00,-0.0163
2214.00,-0.0163
2213.00,-0.0163
2212.00,-0.0162
2211.00,-0.0161
2210.00,-0.0160
2209.00,-0.0159
2208.00,-0.0159
2207.00,-0.0160
2206.00,-0.0162
2205.00,-0.0165
2204.00,-0.0166
2203.00,-0.0166
2202.00,-0.0164
2201.00,-0.0162
2200.00,-0.0161
2199.00,-0.0161
2198.00,-0.0162
2197.00,-0.0163
2196.00,-0.0164
2195.00,-0.0165
2194.00,-0.0165
2193.00,-0.0165
2192.00,-0.0164
2191.00,-0.0164
2190.00,-0.0164
2189.00,-0.0164
2188.00,-0.0164
2187.00,-0.0165
2186.00,-0.0167
2185.00,-0.0167
2184.00,-0.0167
2183.00,-0.0167
2182.00,-0.0168
2181.00,-0.0169
2180.00,-0.0169
2179.00,-0.0168
2178.00,-0.0167
2177.00,-0.0165
2176.00,-0.0164
2175.00,-0.0165
2174.00,-0.0166
2173.00,-0.0167
2172.00,-0.0168
2171.00,-0.0170
2170.00,-0.0172
2169.00,-0.0174
2168.00,-0.0176
2167.00,-0.0177
2166.00,-0.0177
2165.00,-0.0177
2164.00,-0.0176
2163.00,-0.0175
2162.00,-0.0173
2161.00,-0.0170
2160.00,-0.0166
2159.00,-0.0164
2158.00,-0.0164
2157.00,-0.0165
2156.00,-0.0167
2155.00,-0.0168
2154.00,-0.0170
2153.00,-0.0172
2152.00,-0.0172
2151.00,-0.0171
2150.00,-0.0170
2149.00,-0.0170
2148.00,-0.0170
2147.00,-0.0171
2146.00,-0.0172
2145.00,-0.0172
2144.00,-0.0171
2143.00,-0.0169
2142.00,-0.0168
2141.00,-0.0167
2140.00,-0.0167
2139.00,-0.0167
2138.00,-0.0167
2137.00,-0.0167
2136.00,-0.0167
2135.00,-0.0167
2134.00,-0.0167
2133.00,-0.0168
2132.00,-0.0169
2131.00,-0.0169
2130.00,-0.0170
2129.00,-0.0171
2128.00,-0.0172
2127.00,-0.0173
2126.00,-0.0173
2125.00,-0.0173
2124.00,-0.0173
2123.00,-0.0173
2122.00,-0.0173
2121.00,-0.0173
2120.00,-0.0173
2119.00,-0.0174
2118.00,-0.0174
2117.00,-0.0175
2116.00,-0.0175
2115.00,-0.0175
2114.00,-0.0176
2113.00,-0.0176
2112.00,-0.0176
2111.00,-0.0176
2110.00,-0.0176
2109.00,-0.0176
2108.00,-0.0176
2107.00,-0.0176
2106.00,-0.0177
2105.00,-0.0177
2104.00,-0.0177
2103.00,-0.0177
2102.00,-0.0177
2101.00,-0.0177
2100.00,-0.0176
2099.00,-0.0175
2098.00,-0.0175
2097.00,-0.0174
2096.00,-0.0173
2095.00,-0.0173
2094.00,-0.0174
2093.00,-0.0175
2092.00,-0.0176
2091.00,-0.0177
2090.00,-0.0177
2089.00,-0.0177
2088.00,-0.0176
2087.00,-0.0176
2086.00,-0.0176
2085.00,-0.0176
2084.00,-0.0177
2083.00,-0.0177
2082.00,-0.0178
2081.00,-0.0178
2080.00,-0.0178
2079.00,-0.0178
2078.00,-0.0177
2077.00,-0.0178
2076.00,-0.0178
2075.00,-0.0179
2074.00,-0.0180
2073.00,-0.0180
2072.00,-0.0180
2071.00,-0.0179
2070.00,-0.0178
2069.00,-0.0178
2068.00,-0.0178
2067.00,-0.0179
2066.00,-0.0179
2065.00,-0.0180
2064.00,-0.0180
2063.00,-0.0180
2062.00,-0.0180
2061.00,-0.0180
2060.00,-0.0181
2059.00,-0.0183
2058.00,-0.0184
2057.00,-0.0185
2056.00,-0.0185
2055.00,-0.0184
2054.00,-0.0184
2053.00,-0.0185
2052.00,-0.0186
2051.00,-0.0187
2050.00,-0.0187
2049.00,-0.0187
2048.00,-0.0186
2047.00,-0.0185
2046.00,-0.0185
2045.00,-0.0185
2044.00,-0.0185
2043.00,-0.0186
2042.00,-0.0187
2041.00,-0.0187
2040.00,-0.0186
2039.00,-0.0185
2038.00,-0.0186
2037.00,-0.0186
2036.00,-0.0186
2035.00,-0.0187
2034.00,-0.0188
2033.00,-0.0189
2032.00,-0.0189
2031.00,-0.0189
2030.00,-0.0189
2029.00,-0.0189
2028.00,-0.0190
2027.00,-0.0190
2026.00,-0.0191
2025.00,-0.0191
2024.00,-0.0191
2023.00,-0.0190
2022.00,-0.0191
2021.00,-0.0193
2020.00,-0.0193
2019.00,-0.0194
2018.00,-0.0194
2017.00,-0.0193
2016.00,-0.0192
2015.00,-0.0192
2014.00,-0.0191
2013.00,-0.0191
2012.00,-0.0191
2011.00,-0.0191
2010.00,-0.0192
2009.00,-0.0192
2008.00,-0.0192
2007.00,-0.0192
2006.00,-0.0192
2005.00,-0.0193
2004.00,-0.0193
2003.00,-0.0194
2002.00,-0.0195
2001.00,-0.0195
2000.00,-0.0195
1999.00,-0.0195
1998.00,-0.0195
1997.00,-0.0195
1996.00,-0.0196
1995.00,-0.0197
1994.00,-0.0200
1993.00,-0.0201
1992.00,-0.0202
1991.00,-0.0201
1990.00,-0.0201
1989.00,-0.0201
1988.00,-0.0201
1987.00,-0.0201
1986.00,-0.0201
1985.00,-0.0202
1984.00,-0.0203
1983.00,-0.0203
1982.00,-0.0204
1981.00,-0.0202
1980.00,-0.0199
1979.00,-0.0196
1978.00,-0.0195
1977.00,-0.0195
1976.00,-0.0196
1975.00,-0.0197
1974.00,-0.0198
1973.00,-0.0198
1972.00,-0.0198
1971.00,-0.0199
1970.00,-0.0201
1969.00,-0.0202
1968.00,-0.0202
1967.00,-0.0202
1966.00,-0.0203
1965.00,-0.0203
1964.00,-0.0203
1963.00,-0.0201
1962.00,-0.0200
1961.00,-0.0200
1960.00,-0.0201
1959.00,-0.0202
1958.00,-0.0204
1957.00,-0.0206
1956.00,-0.0207
1955.00,-0.0208
1954.00,-0.0207
1953.00,-0.0206
1952.00,-0.0205
1951.00,-0.0205
1950.00,-0.0206
1949.00,-0.0207
1948.00,-0.0207
1947.00,-0.0208
1946.00,-0.0209
1945.00,-0.0210
1944.00,-0.0210
1943.00,-0.0210
1942.00,-0.0210
1941.00,-0.0210
1940.00,-0.0210
1939.00,-0.0210
1938.00,-0.0211
1937.00,-0.0212
1936.00,-0.0213
1935.00,-0.0213
1934.00,-0.0213
1933.00,-0.0213
1932.00,-0.0212
1931.00,-0.0212
1930.00,-0.0211
1929.00,-0.0211
1928.00,-0.0211
1927.00,-0.0211
1926.00,-0.0212
1925.00,-0.0212
1924.00,-0.0212
1923.00,-0.0212
1922.00,-0.0212
1921.00,-0.0212
1920.00,-0.0212
1919.00,-0.0212
1918.00,-0.0212
1917.00,-0.0211
1916.00,-0.0211
1915.00,-0.0210
1914.00,-0.0211
1913.00,-0.0211
1912.00,-0.0211
1911.00,-0.0211
1910.00,-0.0211
1909.00,-0.0211
1908.00,-0.0211
1907.00,-0.0211
1906.00,-0.0211
1905.00,-0.0211
1904.00,-0.0212
1903.00,-0.0212
1902.00,-0.0212
1901.00,-0.0211
1900.00,-0.0211
1899.00,-0.0212
1898.00,-0.0212
1897.00,-0.0213
1896.00,-0.0213
1895.00,-0.0213
1894.00,-0.0213
1893.00,-0.0213
1892.00,-0.0213
1891.00,-0.0213
1890.00,-0.0214
1889.00,-0.0215
1888.00,-0.0215
1887.00,-0.0215
1886.00,-0.0215
1885.00,-0.0216
1884.00,-0.0216
1883.00,-0.0216
1882.00,-0.0217
1881.00,-0.0217
1880.00,-0.0217
1879.00,-0.0218
1878.00,-0.0218
1877.00,-0.0219
1876.00,-0.0219
1875.00,-0.0220
1874.00,-0.0220
1873.00,-0.0220
1872.00,-0.0221
1871.00,-0.0222
1870.00,-0.0223
1869.00,-0.0223
1868.00,-0.0222
1867.00,-0.0222
1866.00,-0.0222
1865.00,-0.0222
1864.00,-0.0222
1863.00,-0.0222
1862.00,-0.0222
1861.00,-0.0222
1860.00,-0.0223
1859.00,-0.0223
1858.00,-0.0223
1857.00,-0.0223
1856.00,-0.0223
1855.00,-0.0223
1854.00,-0.0224
1853.00,-0.0224
1852.00,-0.0224
1851.00,-0.0225
1850.00,-0.0225
1849.00,-0.0225
1848.00,-0.0225
1847.00,-0.0225
1846.00,-0.0226
1845.00,-0.0227
1844.00,-0.0228
1843.00,-0.0228
1842.00,-0.0228
1841.00,-0.0228
1840.00,-0.0227
1839.00,-0.0226
1838.00,-0.0226
1837.00,-0.0226
1836.00,-0.0226
1835.00,-0.0227
1834.00,-0.0227
1833.00,-0.0227
1832.00,-0.0227
1831.00,-0.0228
1830.00,-0.0229
1829.00,-0.0229
1828.00,-0.0229
1827.00,-0.0230
1826.00,-0.0231
1825.00,-0.0231
1824.00,-0.0230
1823.00,-0.0230
1822.00,-0.0230
1821.00,-0.0230
1820.00,-0.0229
1819.00,-0.0229
1818.00,-0.0229
1817.00,-0.0230
1816.00,-0.0230
1815.00,-0.0231
1814.00,-0.0231
1813.00,-0.0231
1812.00,-0.0231
1811.00,-0.0231
1810.00,-0.0232
1809.00,-0.0232
1808.00,-0.0232
1807.00,-0.0231
1806.00,-0.0232
1805.00,-0.0232
1804.00,-0.0233
1803.00,-0.0233
1802.00,-0.0234
1801.00,-0.0235
1800.00,-0.0235
1799.00,-0.0235
1798.00,-0.0234
1797.00,-0.0234
1796.00,-0.0233
1795.00,-0.0233
1794.00,-0.0233
1793.00,-0.0234
1792.00,-0.0234
1791.00,-0.0234
1790.00,-0.0234
1789.00,-0.0233
1788.00,-0.0231
1787.00,-0.0230
1786.00,-0.0230
1785.00,-0.0230
1784.00,-0.0229
1783.00,-0.0229
1782.00,-0.0228
1781.00,-0.0228
1780.00,-0.0227
1779.00,-0.0227
1778.00,-0.0228
1777.00,-0.0228
1776.00,-0.0228
1775.00,-0.0227
1774.00,-0.0227
1773.00,-0.0226
1772.00,-0.0225
1771.00,-0.0226
1770.00,-0.0228
1769.00,-0.0229
1768.00,-0.0229
1767.00,-0.0228
1766.00,-0.0227
1765.00,-0.0227
1764.00,-0.0226
1763.00,-0.0226
1762.00,-0.0226
1761.00,-0.0226
1760.00,-0.0225
1759.00,-0.0225
1758.00,-0.0225
1757.00,-0.0224
1756.00,-0.0223
1755.00,-0.0222
1754.00,-0.0221
1753.00,-0.0219
1752.00,-0.0218
1751.00,-0.0216
1750.00,-0.0216
1749.00,-0.0215
1748.00,-0.0215
1747.00,-0.0214
1746.00,-0.0214
1745.00,-0.0214
1744.00,-0.0214
1743.00,-0.0214
1742.00,-0.0215
1741.00,-0.0216
1740.00,-0.0217
1739.00,-0.0218
1738.00,-0.0218
1737.00,-0.0218
1736.00,-0.0218
1735.00,-0.0219
1734.00,-0.0219
1733.00,-0.0219
1732.00,-0.0219
1731.00,-0.0221
1730.00,-0.0222
1729.00,-0.0223
1728.00,-0.0222
1727.00,-0.0221
1726.00,-0.0220
1725.00,-0.0219
1724.00,-0.0218
1723.00,-0.0217
1722.00,-0.0216
1721.00,-0.0216
1720.00,-0.0214
1719.00,-0.0212
1718.00,-0.0208
1717.00,-0.0203
1716.00,-0.0199
1715.00,-0.0197
1714.00,-0.0196
1713.00,-0.0192
1712.00,-0.0186
1711.00,-0.0178
1710.00,-0.0169
1709.00,-0.0160
1708.00,-0.0148
1707.00,-0.0133
1706.00,-0.0114
1705.00,-0.0091
1704.00,-0.0070
1703.00,-0.0051
1702.00,-0.0032
1701.00,-0.0008
1700.00,0.0019
1699.00,0.0040
1698.00,0.0054
1697.00,0.0064
1696.00,0.0075
1695.00,0.0084
1694.00,0.0088
1693.00,0.0091
1692.00,0.0095
1691.00,0.0103
1690.00,0.0113
1689.00,0.0125
1688.00,0.0136
1687.00,0.0147
1686.00,0.0161
1685.00,0.0180
1684.00,0.0203
1683.00,0.0222
1682.00,0.0235
1681.00,0.0247
1680.00,0.0262
1679.00,0.0278
1678.00,0.0292
1677.00,0.0306
1676.00,0.0325
1675.00,0.0347
1674.00,0.0368
1673.00,0.0386
1672.00,0.0402
1671.00,0.0421
1670.00,0.0445
1669.00,0.0471
1668.00,0.0496
1667.00,0.0517
1666.00,0.0535
1665.00,0.0554
1664.00,0.0576
1663.00,0.0602
1662.00,0.0630
1661.00,0.0655
1660.00,0.0678
1659.00,0.0699
1658.00,0.0717
1657.00,0.0732
1656.00,0.0743
1655.00,0.0757
1654.00,0.0779
1653.00,0.0812
1652.00,0.0839
1651.00,0.0849
1650.00,0.0845
1649.00,0.0841
1648.00,0.0844
1647.00,0.0856
1646.00,0.0869
1645.00,0.0878
1644.00,0.0884
1643.00,0.0888
1642.00,0.0892
1641.00,0.0897
1640.00,0.0904
1639.00,0.0910
1638.00,0.0916
1637.00,0.0927
1636.00,0.0946
1635.00,0.0967
1634.00,0.0983
1633.00,0.0992
1632.00,0.0999
1631.00,0.1006
1630.00,0.1015
1629.00,0.1024
1628.00,0.1033
1627.00,0.1040
1626.00,0.1042
1625.00,0.1040
1624.00,0.1035
1623.00,0.1027
1622.00,0.1013
1621.00,0.0991
1620.00,0.0965
1619.00,0.0935
1618.00,0.0901
1617.00,0.0864
1616.00,0.0824
1615.00,0.0783
1614.00,0.0742
1613.00,0.0700
1612.00,0.0658
1611.00,0.0617
1610.00,0.0576
1609.00,0.0536
1608.00,0.0496
1607.00,0.0459
1606.00,0.0424
1605.00,0.0391
1604.00,0.0360
1603.00,0.0331
1602.00,0.0306
1601.00,0.0284
1600.00,0.0263
1599.00,0.0245
1598.00,0.0229
1597.00,0.0215
1596.00,0.0201
1595.00,0.0187
1594.00,0.0175
1593.00,0.0163
1592.00,0.0151
1591.00,0.0139
1590.00,0.0130
1589.00,0.0121
1588.00,0.0114
1587.00,0.0107
1586.00,0.0103
1585.00,0.0100
1584.00,0.0097
1583.00,0.0096
1582.00,0.0096
1581.00,0.0098
1580.00,0.0099
1579.00,0.0101
1578.00,0.0107
1577.00,0.0116
1576.00,0.0127
1575.00,0.0137
1574.00,0.0142
1573.00,0.0145
1572.00,0.0150
1571.00,0.0158
1570.00,0.0172
1569.00,0.0188
1568.00,0.0202
1567.00,0.0215
1566.00,0.0229
1565.00,0.0245
1564.00,0.0261
1563.00,0.0275
1562.00,0.0287
1561.00,0.0301
1560.00,0.0321
1559.00,0.0354
1558.00,0.0387
1557.00,0.0406
1556.00,0.0421
1555.00,0.0437
1554.00,0.0458
1553.00,0.0479
1552.00,0.0497
1551.00,0.0515
1550.00,0.0535
1549.00,0.0555
1548.00,0.0571
1547.00,0.0585
1546.00,0.0598
1545.00,0.0613
1544.00,0.0627
1543.00,0.0640
1542.00,0.0654
1541.00,0.0673
1540.00,0.0697
1539.00,0.0720
1538.00,0.0732
1537.00,0.0736
1536.00,0.0737
1535.00,0.0740
1534.00,0.0751
1533.00,0.0766
1532.00,0.0778
1531.00,0.0787
1530.00,0.0794
1529.00,0.0800
1528.00,0.0808
1527.00,0.0817
1526.00,0.0827
1525.00,0.0835
1524.00,0.0842
1523.00,0.0850
1522.00,0.0864
1521.00,0.0882
1520.00,0.0896
1519.00,0.0904
1518.00,0.0912
1517.00,0.0923
1516.00,0.0931
1515.00,0.0933
1514.00,0.0927
1513.00,0.0916
1512.00,0.0900
1511.00,0.0882
1510.00,0.0862
1509.00,0.0841
1508.00,0.0820
1507.00,0.0798
1506.00,0.0774
1505.00,0.0749
1504.00,0.0724
1503.00,0.0699
1502.00,0.0674
1501.00,0.0647
1500.00,0.0621
1499.00,0.0595
1498.00,0.0570
1497.00,0.0545
1496.00,0.0520
1495.00,0.0496
1494.00,0.0473
1493.00,0.0449
1492.00,0.0426
1491.00,0.0403
1490.00,0.0381
1489.00,0.0360
1488.00,0.0341
1487.00,0.0324
1486.00,0.0309
1485.00,0.0294
1484.00,0.0281
1483.00,0.0268
1482.00,0.0257
1481.00,0.0247
1480.00,0.0239
1479.00,0.0234
1478.00,0.0232
1477.00,0.0236
1476.00,0.0246
1475.00,0.0263
1474.00,0.0279
1473.00,0.0288
1472.00,0.0286
1471.00,0.0274
1470.00,0.0260
1469.00,0.0250
1468.00,0.0245
1467.00,0.0248
1466.00,0.0261
1465.00,0.0282
1464.00,0.0304
1463.00,0.0318
1462.00,0.0321
1461.00,0.0319
1460.00,0.0314
1459.00,0.0312
1458.00,0.0313
1457.00,0.0319
1456.00,0.0325
1455.00,0.0329
1454.00,0.0331
1453.00,0.0333
1452.00,0.0335
1451.00,0.0338
1450.00,0.0340
1449.00,0.0339
1448.00,0.0338
1447.00,0.0336
1446.00,0.0332
1445.00,0.0327
1444.00,0.0321
1443.00,0.0314
1442.00,0.0305
1441.00,0.0296
1440.00,0.0285
1439.00,0.0273
1438.00,0.0259
1437.00,0.0243
1436.00,0.0228
1435.00,0.0216
1434.00,0.0205
1433.00,0.0195
1432.00,0.0184
1431.00,0.0174
1430.00,0.0166
1429.00,0.0159
1428.00,0.0155
1427.00,0.0152
1426.00,0.0151
1425.00,0.0152
1424.00,0.0154
1423.00,0.0157
1422.00,0.0160
1421.00,0.0164
1420.00,0.0170
1419.00,0.0179
1418.00,0.0189
1417.00,0.0199
1416.00,0.0208
1415.00,0.0218
1414.00,0.0229
1413.00,0.0241
1412.00,0.0252
1411.00,0.0265
1410.00,0.0278
1409.00,0.0291
1408.00,0.0303
1407.00,0.0316
1406.00,0.0331
1405.00,0.0347
1404.00,0.0366
1403.00,0.0386
1402.00,0.0405
1401.00,0.0426
1400.00,0.0448
1399.00,0.0472
1398.00,0.0495
1397.00,0.0516
1396.00,0.0537
1395.00,0.0556
1394.00,0.0571
1393.00,0.0581
1392.00,0.0584
1391.00,0.0584
1390.00,0.0584
1389.00,0.0585
1388.00,0.0589
1387.00,0.0594
1386.00,0.0599
1385.00,0.0604
1384.00,0.0609
1383.00,0.0613
1382.00,0.0612
1381.00,0.0605
1380.00,0.0592
1379.00,0.0574
1378.00,0.0553
1377.00,0.0533
1376.00,0.0513
1375.00,0.0493
1374.00,0.0474
1373.00,0.0455
1372.00,0.0435
1371.00,0.0414
1370.00,0.0392
1369.00,0.0370
1368.00,0.0349
1367.00,0.0328
1366.00,0.0309
1365.00,0.0290
1364.00,0.0272
1363.00,0.0255
1362.00,0.0239
1361.00,0.0225
1360.00,0.0214
1359.00,0.0204
1358.00,0.0196
1357.00,0.0187
1356.00,0.0179
1355.00,0.0171
1354.00,0.0162
1353.00,0.0155
1352.00,0.0149
1351.00,0.0144
1350.00,0.0140
1349.00,0.0138
1348.00,0.0135
1347.00,0.0133
1346.00,0.0131
1345.00,0.0129
1344.00,0.0128
1343.00,0.0128
1342.00,0.0127
1341.00,0.0125
1340.00,0.0122
1339.00,0.0120
1338.00,0.0117
1337.00,0.0114
1336.00,0.0110
1335.00,0.0107
1334.00,0.0103
1333.00,0.0099
1332.00,0.0095
1331.00,0.0090
1330.00,0.0084
1329.00,0.0079
1328.00,0.0073
1327.00,0.0067
1326.00,0.0062
1325.00,0.0057
1324.00,0.0053
1323.00,0.0049
1322.00,0.0046
1321.00,0.0043
1320.00,0.0041
1319.00,0.0039
1318.00,0.0038
1317.00,0.0036
1316.00,0.0035
1315.00,0.0034
1314.00,0.0034
1313.00,0.0034
1312.00,0.0034
1311.00,0.0034
1310.00,0.0034
1309.00,0.0034
1308.00,0.0034
1307.00,0.0034
1306.00,0.0035
1305.00,0.0035
1304.00,0.0036
1303.00,0.0037
1302.00,0.0038
1301.00,0.0038
1300.00,0.0039
1299.00,0.0039
1298.00,0.0040
1297.00,0.0041
1296.00,0.0042
1295.00,0.0044
1294.00,0.0046
1293.00,0.0049
1292.00,0.0051
1291.00,0.0055
1290.00,0.0059
1289.00,0.0063
1288.00,0.0068
1287.00,0.0072
1286.00,0.0077
1285.00,0.0083
1284.00,0.0088
1283.00,0.0094
1282.00,0.0102
1281.00,0.0109
1280.00,0.0118
1279.00,0.0129
1278.00,0.0141
1277.00,0.0154
1276.00,0.0169
1275.00,0.0185
1274.00,0.0202
1273.00,0.0220
1272.00,0.0239
1271.00,0.0259
1270.00,0.0278
1269.00,0.0297
1268.00,0.0315
1267.00,0.0332
1266.00,0.0348
1265.00,0.0362
1264.00,0.0373
1263.00,0.0382
1262.00,0.0388
1261.00,0.0393
1260.00,0.0397
1259.00,0.0402
1258.00,0.0408
1257.00,0.0415
1256.00,0.0425
1255.00,0.0436
1254.00,0.0448
1253.00,0.0458
1252.00,0.0465
1251.00,0.0468
1250.00,0.0465
1249.00,0.0458
1248.00,0.0450
1247.00,0.0442
1246.00,0.0437
1245.00,0.0434
1244.00,0.0435
1243.00,0.0437
1242.00,0.0440
1241.00,0.0442
1240.00,0.0444
1239.00,0.0444
1238.00,0.0443
1237.00,0.0441
1236.00,0.0438
1235.00,0.0433
1234.00,0.0426
1233.00,0.0418
1232.00,0.0409
1231.00,0.0399
1230.00,0.0387
1229.00,0.0373
1228.00,0.0358
1227.00,0.0343
1226.00,0.0327
1225.00,0.0311
1224.00,0.0294
1223.00,0.0277
1222.00,0.0261
1221.00,0.0245
1220.00,0.0229
1219.00,0.0214
1218.00,0.0200
1217.00,0.0186
1216.00,0.0171
1215.00,0.0157
1214.00,0.0142
1213.00,0.0128
1212.00,0.0114
1211.00,0.0101
1210.00,0.0089
1209.00,0.0077
1208.00,0.0065
1207.00,0.0054
1206.00,0.0044
1205.00,0.0034
1204.00,0.0025
1203.00,0.0017
1202.00,0.0010
1201.00,0.0003
1200.00,-0.0003
1199.00,-0.0008
1198.00,-0.0011
1197.00,-0.0013
1196.00,-0.0015
1195.00,-0.0014
1194.00,-0.0013
1193.00,-0.0011
1192.00,-0.0007
1191.00,-0.0002
1190.00,0.0004
1189.00,0.0012
1188.00,0.0021
1187.00,0.0031
1186.00,0.0043
1185.00,0.0055
1184.00,0.0067
1183.00,0.0081
1182.00,0.0096
1181.00,0.0112
1180.00,0.0128
1179.00,0.0145
1178.00,0.0163
1177.00,0.0181
1176.00,0.0199
1175.00,0.0217
1174.00,0.0235
1173.00,0.0254
1172.00,0.0271
1171.00,0.0289
1170.00,0.0305
1169.00,0.0320
1168.00,0.0333
1167.00,0.0345
1166.00,0.0356
1165.00,0.0367
1164.00,0.0376
1163.00,0.0383
1162.00,0.0388
1161.00,0.0392
1160.00,0.0395
1159.00,0.0399
1158.00,0.0402
1157.00,0.0403
1156.00,0.0404
1155.00,0.0403
1154.00,0.0400
1153.00,0.0396
1152.00,0.0391
1151.00,0.0384
1150.00,0.0375
1149.00,0.0363
1148.00,0.0350
1147.00,0.0335
1146.00,0.0320
1145.00,0.0306
1144.00,0.0291
1143.00,0.0278
1142.00,0.0266
1141.00,0.0255
1140.00,0.0245
1139.00,0.0236
1138.00,0.0227
1137.00,0.0217
1136.00,0.0205
1135.00,0.0193
1134.00,0.0183
1133.00,0.0174
1132.00,0.0168
1131.00,0.0162
1130.00,0.0155
1129.00,0.0147
1128.00,0.0138
1127.00,0.0129
1126.00,0.0121
1125.00,0.0112
1124.00,0.0103
1123.00,0.0094
1122.00,0.0085
1121.00,0.0076
1120.00,0.0067
1119.00,0.0060
1118.00,0.0052
1117.00,0.0045
1116.00,0.0038
1115.00,0.0030
1114.00,0.0024
1113.00,0.0017
1112.00,0.0012
1111.00,0.0007
1110.00,0.0003
1109.00,0.0000
1108.00,-0.0002
1107.00,-0.0003
1106.00,-0.0002
1105.00,-0.0001
1104.00,0.0001
1103.00,0.0004
1102.00,0.0008
1101.00,0.0014
1100.00,0.0020
1099.00,0.0027
1098.00,0.0035
1097.00,0.0045
1096.00,0.0054
1095.00,0.0066
1094.00,0.0078
1093.00,0.0091
1092.00,0.0104
1091.00,0.0116
1090.00,0.0128
1089.00,0.0136
1088.00,0.0143
1087.00,0.0149
1086.00,0.0155
1085.00,0.0161
1084.00,0.0167
1083.00,0.0174
1082.00,0.0181
1081.00,0.0186
1080.00,0.0191
1079.00,0.0195
1078.00,0.0198
1077.00,0.0201
1076.00,0.0205
1075.00,0.0210
1074.00,0.0216
1073.00,0.0220
1072.00,0.0220
1071.00,0.0215
1070.00,0.0207
1069.00,0.0197
1068.00,0.0184
1067.00,0.0170
1066.00,0.0156
1065.00,0.0144
1064.00,0.0133
1063.00,0.0123
1062.00,0.0115
1061.00,0.0107
1060.00,0.0097
1059.00,0.0086
1058.00,0.0074
1057.00,0.0060
1056.00,0.0046
1055.00,0.0031
1054.00,0.0018
1053.00,0.0003
1052.00,-0.0011
1051.00,-0.0026
1050.00,-0.0039
1049.00,-0.0053
1048.00,-0.0067
1047.00,-0.0080
1046.00,-0.0092
1045.00,-0.0104
1044.00,-0.0116
1043.00,-0.0127
1042.00,-0.0137
1041.00,-0.0146
1040.00,-0.0155
1039.00,-0.0162
1038.00,-0.0168
1037.00,-0.0174
1036.00,-0.0180
1035.00,-0.0185
1034.00,-0.0189
1033.00,-0.0192
1032.00,-0.0196
1031.00,-0.0199
1030.00,-0.0201
1029.00,-0.0203
1028.00,-0.0206
1027.00,-0.0209
1026.00,-0.0210
1025.00,-0.0212
1024.00,-0.0213
1023.00,-0.0214
1022.00,-0.0214
1021.00,-0.0213
1020.00,-0.0212
1019.00,-0.0210
1018.00,-0.0208
1017.00,-0.0207
1016.00,-0.0207
1015.00,-0.0207
1014.00,-0.0207
1013.00,-0.0208
1012.00,-0.0210
1011.00,-0.0211
1010.00,-0.0213
1009.00,-0.0215
1008.00,-0.0216
1007.00,-0.0217
1006.00,-0.0217
1005.00,-0.0216
1004.00,-0.0216
1003.00,-0.0215
1002.00,-0.0213
1001.00,-0.0213
1000.00,-0.0213
999.00,-0.0214
998.00,-0.0215
997.00,-0.0218
996.00,-0.0221
995.00,-0.0225
994.00,-0.0228
993.00,-0.0232
992.00,-0.0235
991.00,-0.0238
990.00,-0.0240
989.00,-0.0240
988.00,-0.0240
987.00,-0.0238
986.00,-0.0233
985.00,-0.0228
984.00,-0.0221
983.00,-0.0211
982.00,-0.0199
981.00,-0.0184
980.00,-0.0168
979.00,-0.0149
978.00,-0.0127
977.00,-0.0104
976.00,-0.0079
975.00,-0.0053
974.00,-0.0025
973.00,0.0003
972.00,0.0030
971.00,0.0055
970.00,0.0078
969.00,0.0096
968.00,0.0109
967.00,0.0117
966.00,0.0121
965.00,0.0119
964.00,0.0115
963.00,0.0110
962.00,0.0107
961.00,0.0110
960.00,0.0121
959.00,0.0138
958.00,0.0155
957.00,0.0167
956.00,0.0171
955.00,0.0172
954.00,0.0172
953.00,0.0170
952.00,0.0164
951.00,0.0153
950.00,0.0140
949.00,0.0126
948.00,0.0113
947.00,0.0104
946.00,0.0097
945.00,0.0091
944.00,0.0084
943.00,0.0077
942.00,0.0069
941.00,0.0059
940.00,0.0047
939.00,0.0032
938.00,0.0016
937.00,-0.0003
936.00,-0.0024
935.00,-0.0045
934.00,-0.0066
933.00,-0.0086
932.00,-0.0106
931.00,-0.0125
930.00,-0.0143
929.00,-0.0160
928.00,-0.0176
927.00,-0.0192
926.00,-0.0205
925.00,-0.0218
924.00,-0.0229
923.00,-0.0240
922.00,-0.0249
921.00,-0.0258
920.00,-0.0267
919.00,-0.0276
918.00,-0.0282
917.00,-0.0288
916.00,-0.0294
915.00,-0.0299
914.00,-0.0303
913.00,-0.0307
912.00,-0.0310
911.00,-0.0313
910.00,-0.0316
909.00,-0.0318
908.00,-0.0320
907.00,-0.0322
906.00,-0.0324
905.00,-0.0325
904.00,-0.0327
903.00,-0.0329
902.00,-0.0330
901.00,-0.0331
900.00,-0.0332
899.00,-0.0333
898.00,-0.0333
897.00,-0.0334
896.00,-0.0335
895.00,-0.0336
894.00,-0.0337
893.00,-0.0337
892.00,-0.0339
891.00,-0.0341
890.00,-0.0341
889.00,-0.0342
888.00,-0.0343
887.00,-0.0345
886.00,-0.0345
885.00,-0.0345
884.00,-0.0346
883.00,-0.0346
882.00,-0.0346
881.00,-0.0347
880.00,-0.0347
879.00,-0.0348
878.00,-0.0348
877.00,-0.0348
876.00,-0.0349
875.00,-0.0349
874.00,-0.0349
873.00,-0.0349
872.00,-0.0349
871.00,-0.0349
870.00,-0.0349
869.00,-0.0348
868.00,-0.0348
867.00,-0.0347
866.00,-0.0346
865.00,-0.0344
864.00,-0.0343
863.00,-0.0342
862.00,-0.0340
861.00,-0.0338
860.00,-0.0337
859.00,-0.0335
858.00,-0.0332
857.00,-0.0329
856.00,-0.0326
855.00,-0.0323
854.00,-0.0320
853.00,-0.0317
852.00,-0.0316
851.00,-0.0315
850.00,-0.0314
849.00,-0.0314
848.00,-0.0314
847.00,-0.0313
846.00,-0.0311
845.00,-0.0309
844.00,-0.0307
843.00,-0.0305
842.00,-0.0301
841.00,-0.0297
840.00,-0.0293
839.00,-0.0287
838.00,-0.0280
837.00,-0.0273
836.00,-0.0266
835.00,-0.0260
834.00,-0.0254
833.00,-0.0248
832.00,-0.0243
831.00,-0.0239
830.00,-0.0235
829.00,-0.0232
828.00,-0.0231
827.00,-0.0231
826.00,-0.0232
825.00,-0.0233
824.00,-0.0234
823.00,-0.0234
822.00,-0.0232
821.00,-0.0230
820.00,-0.0230
819.00,-0.0229
818.00,-0.0228
817.00,-0.0226
816.00,-0.0225
815.00,-0.0224
814.00,-0.0225
813.00,-0.0225
812.00,-0.0226
811.00,-0.0227
810.00,-0.0226
809.00,-0.0226
808.00,-0.0226
807.00,-0.0226
806.00,-0.0224
805.00,-0.0223
804.00,-0.0224
803.00,-0.0225
802.00,-0.0226
801.00,-0.0228
800.00,-0.0231
799.00,-0.0233
798.00,-0.0235
797.00,-0.0238
796.00,-0.0240
795.00,-0.0242
794.00,-0.0244
793.00,-0.0246
792.00,-0.0248
791.00,-0.0249
790.00,-0.0248
789.00,-0.0247
788.00,-0.0247
787.00,-0.0247
786.00,-0.0246
785.00,-0.0245
784.00,-0.0244
783.00,-0.0243
782.00,-0.0242
781.00,-0.0240
780.00,-0.0239
779.00,-0.0238
778.00,-0.0235
777.00,-0.0232
776.00,-0.0230
775.00,-0.0226
774.00,-0.0223
773.00,-0.0220
772.00,-0.0218
771.00,-0.0216
770.00,-0.0213
769.00,-0.0210
768.00,-0.0208
767.00,-0.0206
766.00,-0.0203
765.00,-0.0200
764.00,-0.0199
763.00,-0.0197
762.00,-0.0195
761.00,-0.0193
760.00,-0.0191
759.00,-0.0188
758.00,-0.0184
757.00,-0.0181
756.00,-0.0179
755.00,-0.0177
754.00,-0.0174
753.00,-0.0172
752.00,-0.0169
751.00,-0.0166
750.00,-0.0161
749.00,-0.0156
748.00,-0.0151
747.00,-0.0147
746.00,-0.0142
745.00,-0.0138
744.00,-0.0134
743.00,-0.0129
742.00,-0.0124
741.00,-0.0118
740.00,-0.0113
739.00,-0.0108
738.00,-0.0101
737.00,-0.0095
736.00,-0.0089
735.00,-0.0083
734.00,-0.0076
733.00,-0.0069
732.00,-0.0062
731.00,-0.0055
730.00,-0.0047
729.00,-0.0041
728.00,-0.0034
727.00,-0.0028
726.00,-0.0020
725.00,-0.0012
724.00,-0.0006
723.00,0.0001
722.00,0.0008
721.00,0.0014
720.00,0.0019
719.00,0.0024
718.00,0.0029
717.00,0.0033
716.00,0.0037
715.00,0.0042
714.00,0.0047
713.00,0.0053
712.00,0.0058
711.00,0.0063
710.00,0.0068
709.00,0.0073
708.00,0.0078
707.00,0.0082
706.00,0.0087
705.00,0.0092
704.00,0.0097
703.00,0.0101
702.00,0.0106
701.00,0.0110
700.00,0.0113
699.00,0.0117
698.00,0.0120
697.00,0.0122
696.00,0.0124
695.00,0.0125
694.00,0.0127
693.00,0.0129
692.00,0.0130
691.00,0.0132
690.00,0.0134
689.00,0.0136
688.00,0.0138
687.00,0.0139
686.00,0.0141
685.00,0.0143
684.00,0.0143
683.00,0.0144
682.00,0.0146
681.00,0.0148
680.00,0.0148
679.00,0.0149
678.00,0.0150
677.00,0.0152
676.00,0.0153
675.00,0.0154
674.00,0.0156
673.00,0.0158
672.00,0.0159
671.00,0.0158
670.00,0.0157
669.00,0.0155
668.00,0.0152
667.00,0.0153
666.00,0.0159
665.00,0.0166
664.00,0.0170
663.00,0.0173
662.00,0.0175
661.00,0.0177
660.00,0.0178
659.00,0.0179
658.00,0.0182
657.00,0.0184
656.00,0.0186
655.00,0.0188
654.00,0.0190
653.00,0.0193
652.00,0.0195
651.00,0.0197
650.00,0.0199
649.00,0.0201
648.00,0.0201
647.00,0.0202
646.00,0.0205
645.00,0.0207
644.00,0.0209
643.00,0.0209
642.00,0.0210
641.00,0.0212
640.00,0.0212
639.00,0.0213
638.00,0.0215
637.00,0.0215
636.00,0.0213
635.00,0.0211
634.00,0.0210
633.00,0.0210
632.00,0.0209
631.00,0.0209
630.00,0.0209
629.00,0.0209
628.00,0.0207
627.00,0.0206
626.00,0.0207
625.00,0.0208
624.00,0.0209
623.00,0.0210
622.00,0.0212
621.00,0.0215
620.00,0.0217
619.00,0.0220
618.00,0.0223
617.00,0.0227
616.00,0.0229
615.00,0.0231
614.00,0.0232
613.00,0.0233
612.00,0.0232
611.00,0.0231
610.00,0.0232
609.00,0.0231
608.00,0.0228
607.00,0.0223
606.00,0.0219
605.00,0.0215
604.00,0.0209
603.00,0.0204
602.00,0.0200
601.00,0.0198
600.00,0.0194
599.00,0.0192
598.00,0.0190
597.00,0.0188
596.00,0.0185
595.00,0.0183
594.00,0.0183
593.00,0.0183
592.00,0.0180
591.00,0.0177
590.00,0.0176
589.00,0.0175
588.00,0.0173
587.00,0.0173
586.00,0.0175
585.00,0.0177
584.00,0.0178
583.00,0.0179
582.00,0.0181
581.00,0.0182
580.00,0.0182
579.00,0.0183
578.00,0.0185
577.00,0.0186
576.00,0.0187
575.00,0.0189
574.00,0.0193
573.00,0.0197
572.00,0.0199
571.00,0.0201
570.00,0.0205
569.00,0.0208
568.00,0.0210
567.00,0.0214
566.00,0.0220
565.00,0.0226
564.00,0.0232
563.00,0.0239
562.00,0.0247
561.00,0.0255
560.00,0.0260
559.00,0.0266
558.00,0.0273
557.00,0.0280
556.00,0.0285
555.00,0.0290
554.00,0.0295
553.00,0.0298
552.00,0.0299
551.00,0.0300
550.00,0.0301
549.00,0.0301
548.00,0.0299
547.00,0.0295
546.00,0.0292
545.00,0.0288
544.00,0.0283
543.00,0.0277
542.00,0.0273
541.00,0.0268
540.00,0.0263
539.00,0.0258
538.00,0.0255
537.00,0.0252
536.00,0.0247
535.00,0.0242
534.00,0.0239
533.00,0.0236
532.00,0.0230
531.00,0.0225
530.00,0.0223
529.00,0.0222
528.00,0.0218
527.00,0.0214
526.00,0.0212
525.00,0.0211
524.00,0.0210
523.00,0.0209
522.00,0.0209
521.00,0.0209
520.00,0.0205
519.00,0.0202
518.00,0.0201
517.00,0.0199
516.00,0.0196
515.00,0.0192
514.00,0.0191
513.00,0.0189
512.00,0.0185
511.00,0.0182
510.00,0.0183
509.00,0.0183
508.00,0.0179
507.00,0.0175
506.00,0.0175
505.00,0.0175
504.00,0.0170
503.00,0.0166
502.00,0.0164
501.00,0.0164
500.00,0.0163
499.00,0.0162
498.00,0.0164
497.00,0.0164
496.00,0.0161
495.00,0.0159
494.00,0.0159
493.00,0.0159
492.00,0.0157
491.00,0.0155
490.00,0.0157
489.00,0.0157
488.00,0.0155
487.00,0.0153
486.00,0.0155
485.00,0.0155
484.00,0.0151
483.00,0.0146
482.00,0.0144
481.00,0.0143
480.00,0.0139
479.00,0.0136
478.00,0.0137
477.00,0.0135
476.00,0.0128
475.00,0.0121
474.00,0.0117
473.00,0.0115
472.00,0.0111
471.00,0.0107
470.00,0.0107
469.00,0.0105
468.00,0.0100
467.00,0.0096
466.00,0.0096
465.00,0.0097
464.00,0.0094
463.00,0.0092
462.00,0.0093
461.00,0.0092
460.00,0.0086
459.00,0.0079
458.00,0.0078
457.00,0.0077
456.00,0.0075
455.00,0.0076
454.00,0.0079
453.00,0.0079
452.00,0.0072
451.00,0.0067
450.00,0.0070
449.00,0.0072
448.00,0.0070
447.00,0.0070
446.00,0.0074
445.00,0.0076
444.00,0.0074
443.00,0.0076
442.00,0.0086
441.00,0.0096
440.00,0.0097
439.00,0.0097
438.00,0.0100
437.00,0.0100
436.00,0.0094
435.00,0.0092
434.00,0.0103
433.00,0.0117
432.00,0.0127
431.00,0.0134
430.00,0.0143
429.00,0.0149
428.00,0.0150
427.00,0.0154
426.00,0.0166
425.00,0.0173
424.00,0.0165
423.00,0.0154
422.00,0.0149
421.00,0.0143
420.00,0.0128
419.00,0.0119
418.00,0.0127
417.00,0.0136
416.00,0.0133
415.00,0.0127
414.00,0.0128
413.00,0.0124
412.00,0.0111
411.00,0.0104
410.00,0.0110
409.00,0.0112
408.00,0.0095
407.00,0.0074
406.00,0.0070
405.00,0.0072
404.00,0.0067
403.00,0.0064
402.00,0.0071
401.00,0.0068
400.00,0.0038
