Created as New Dataset,Sample 454 By YargerLab Date Saturday, March 01 2025
cm-1,A
4000.00,0.0510
3999.00,0.0510
3998.00,0.0510
3997.00,0.0510
3996.00,0.0510
3995.00,0.0510
3994.00,0.0510
3993.00,0.0510
3992.00,0.0510
3991.00,0.0510
3990.00,0.0510
3989.00,0.0510
3988.00,0.0510
3987.00,0.0510
3986.00,0.0510
3985.00,0.0510
3984.00,0.0510
3983.00,0.0510
3982.00,0.0510
3981.00,0.0510
3980.00,0.0510
3979.00,0.0510
3978.00,0.0510
3977.00,0.0510
3976.00,0.0510
3975.00,0.0510
3974.00,0.0510
3973.00,0.0510
3972.00,0.0510
3971.00,0.0510
3970.00,0.0511
3969.00,0.0511
3968.00,0.0511
3967.00,0.0511
3966.00,0.0512
3965.00,0.0512
3964.00,0.0512
3963.00,0.0512
3962.00,0.0512
3961.00,0.0512
3960.00,0.0512
3959.00,0.0513
3958.00,0.0513
3957.00,0.0513
3956.00,0.0513
3955.00,0.0513
3954.00,0.0514
3953.00,0.0513
3952.00,0.0513
3951.00,0.0513
3950.00,0.0513
3949.00,0.0513
3948.00,0.0513
3947.00,0.0513
3946.00,0.0514
3945.00,0.0514
3944.00,0.0514
3943.00,0.0514
3942.00,0.0515
3941.00,0.0515
3940.00,0.0515
3939.00,0.0515
3938.00,0.0515
3937.00,0.0515
3936.00,0.0515
3935.00,0.0515
3934.00,0.0515
3933.00,0.0515
3932.00,0.0515
3931.00,0.0515
3930.00,0.0514
3929.00,0.0514
3928.00,0.0514
3927.00,0.0514
3926.00,0.0514
3925.00,0.0514
3924.00,0.0514
3923.00,0.0514
3922.00,0.0514
3921.00,0.0514
3920.00,0.0514
3919.00,0.0514
3918.00,0.0514
3917.00,0.0513
3916.00,0.0513
3915.00,0.0513
3914.00,0.0513
3913.00,0.0513
3912.00,0.0513
3911.00,0.0514
3910.00,0.0514
3909.00,0.0514
3908.00,0.0514
3907.00,0.0514
3906.00,0.0514
3905.00,0.0514
3904.00,0.0514
3903.00,0.0514
3902.00,0.0514
3901.00,0.0513
3900.00,0.0514
3899.00,0.0514
3898.00,0.0514
3897.00,0.0514
3896.00,0.0514
3895.00,0.0514
3894.00,0.0514
3893.00,0.0514
3892.00,0.0514
3891.00,0.0514
3890.00,0.0515
3889.00,0.0515
3888.00,0.0515
3887.00,0.0515
3886.00,0.0515
3885.00,0.0516
3884.00,0.0516
3883.00,0.0516
3882.00,0.0516
3881.00,0.0516
3880.00,0.0516
3879.00,0.0516
3878.00,0.0516
3877.00,0.0516
3876.00,0.0516
3875.00,0.0516
3874.00,0.0516
3873.00,0.0516
3872.00,0.0516
3871.00,0.0516
3870.00,0.0516
3869.00,0.0516
3868.00,0.0516
3867.00,0.0517
3866.00,0.0517
3865.00,0.0518
3864.00,0.0518
3863.00,0.0517
3862.00,0.0517
3861.00,0.0517
3860.00,0.0517
3859.00,0.0517
3858.00,0.0516
3857.00,0.0515
3856.00,0.0515
3855.00,0.0514
3854.00,0.0514
3853.00,0.0514
3852.00,0.0515
3851.00,0.0515
3850.00,0.0516
3849.00,0.0516
3848.00,0.0517
3847.00,0.0517
3846.00,0.0518
3845.00,0.0518
3844.00,0.0519
3843.00,0.0519
3842.00,0.0519
3841.00,0.0519
3840.00,0.0518
3839.00,0.0518
3838.00,0.0517
3837.00,0.0517
3836.00,0.0517
3835.00,0.0517
3834.00,0.0517
3833.00,0.0518
3832.00,0.0518
3831.00,0.0518
3830.00,0.0518
3829.00,0.0518
3828.00,0.0518
3827.00,0.0518
3826.00,0.0518
3825.00,0.0518
3824.00,0.0518
3823.00,0.0519
3822.00,0.0519
3821.00,0.0519
3820.00,0.0518
3819.00,0.0518
3818.00,0.0517
3817.00,0.0517
3816.00,0.0517
3815.00,0.0517
3814.00,0.0517
3813.00,0.0517
3812.00,0.0518
3811.00,0.0519
3810.00,0.0519
3809.00,0.0519
3808.00,0.0518
3807.00,0.0518
3806.00,0.0518
3805.00,0.0517
3804.00,0.0517
3803.00,0.0517
3802.00,0.0517
3801.00,0.0518
3800.00,0.0518
3799.00,0.0518
3798.00,0.0518
3797.00,0.0518
3796.00,0.0518
3795.00,0.0518
3794.00,0.0518
3793.00,0.0518
3792.00,0.0519
3791.00,0.0519
3790.00,0.0519
3789.00,0.0519
3788.00,0.0519
3787.00,0.0519
3786.00,0.0519
3785.00,0.0519
3784.00,0.0519
3783.00,0.0519
3782.00,0.0519
3781.00,0.0519
3780.00,0.0519
3779.00,0.0519
3778.00,0.0519
3777.00,0.0519
3776.00,0.0519
3775.00,0.0519
3774.00,0.0519
3773.00,0.0519
3772.00,0.0519
3771.00,0.0519
3770.00,0.0519
3769.00,0.0519
3768.00,0.0519
3767.00,0.0519
3766.00,0.0519
3765.00,0.0520
3764.00,0.0520
3763.00,0.0520
3762.00,0.0520
3761.00,0.0520
3760.00,0.0520
3759.00,0.0520
3758.00,0.0520
3757.00,0.0520
3756.00,0.0520
3755.00,0.0520
3754.00,0.0520
3753.00,0.0520
3752.00,0.0520
3751.00,0.0520
3750.00,0.0519
3749.00,0.0518
3748.00,0.0518
3747.00,0.0517
3746.00,0.0517
3745.00,0.0518
3744.00,0.0518
3743.00,0.0518
3742.00,0.0518
3741.00,0.0519
3740.00,0.0519
3739.00,0.0519
3738.00,0.0519
3737.00,0.0519
3736.00,0.0519
3735.00,0.0519
3734.00,0.0519
3733.00,0.0518
3732.00,0.0518
3731.00,0.0518
3730.00,0.0518
3729.00,0.0518
3728.00,0.0518
3727.00,0.0518
3726.00,0.0519
3725.00,0.0519
3724.00,0.0519
3723.00,0.0519
3722.00,0.0519
3721.00,0.0519
3720.00,0.0519
3719.00,0.0519
3718.00,0.0519
3717.00,0.0519
3716.00,0.0519
3715.00,0.0519
3714.00,0.0519
3713.00,0.0520
3712.00,0.0520
3711.00,0.0520
3710.00,0.0519
3709.00,0.0519
3708.00,0.0519
3707.00,0.0519
3706.00,0.0519
3705.00,0.0519
3704.00,0.0519
3703.00,0.0519
3702.00,0.0519
3701.00,0.0519
3700.00,0.0519
3699.00,0.0519
3698.00,0.0519
3697.00,0.0519
3696.00,0.0520
3695.00,0.0519
3694.00,0.0519
3693.00,0.0519
3692.00,0.0520
3691.00,0.0520
3690.00,0.0520
3689.00,0.0520
3688.00,0.0520
3687.00,0.0521
3686.00,0.0521
3685.00,0.0522
3684.00,0.0523
3683.00,0.0524
3682.00,0.0524
3681.00,0.0525
3680.00,0.0525
3679.00,0.0526
3678.00,0.0526
3677.00,0.0526
3676.00,0.0526
3675.00,0.0526
3674.00,0.0526
3673.00,0.0526
3672.00,0.0526
3671.00,0.0527
3670.00,0.0528
3669.00,0.0528
3668.00,0.0528
3667.00,0.0528
3666.00,0.0529
3665.00,0.0530
3664.00,0.0531
3663.00,0.0531
3662.00,0.0532
3661.00,0.0532
3660.00,0.0532
3659.00,0.0532
3658.00,0.0532
3657.00,0.0532
3656.00,0.0532
3655.00,0.0532
3654.00,0.0531
3653.00,0.0531
3652.00,0.0531
3651.00,0.0532
3650.00,0.0533
3649.00,0.0533
3648.00,0.0533
3647.00,0.0533
3646.00,0.0533
3645.00,0.0532
3644.00,0.0532
3643.00,0.0532
3642.00,0.0532
3641.00,0.0532
3640.00,0.0531
3639.00,0.0531
3638.00,0.0532
3637.00,0.0532
3636.00,0.0531
3635.00,0.0530
3634.00,0.0530
3633.00,0.0529
3632.00,0.0528
3631.00,0.0528
3630.00,0.0528
3629.00,0.0528
3628.00,0.0528
3627.00,0.0528
3626.00,0.0529
3625.00,0.0529
3624.00,0.0530
3623.00,0.0530
3622.00,0.0530
3621.00,0.0530
3620.00,0.0530
3619.00,0.0530
3618.00,0.0530
3617.00,0.0530
3616.00,0.0530
3615.00,0.0530
3614.00,0.0530
3613.00,0.0531
3612.00,0.0531
3611.00,0.0531
3610.00,0.0531
3609.00,0.0531
3608.00,0.0531
3607.00,0.0531
3606.00,0.0531
3605.00,0.0531
3604.00,0.0532
3603.00,0.0533
3602.00,0.0533
3601.00,0.0533
3600.00,0.0534
3599.00,0.0534
3598.00,0.0534
3597.00,0.0534
3596.00,0.0534
3595.00,0.0534
3594.00,0.0534
3593.00,0.0535
3592.00,0.0535
3591.00,0.0536
3590.00,0.0536
3589.00,0.0536
3588.00,0.0537
3587.00,0.0537
3586.00,0.0536
3585.00,0.0537
3584.00,0.0537
3583.00,0.0537
3582.00,0.0538
3581.00,0.0538
3580.00,0.0539
3579.00,0.0539
3578.00,0.0539
3577.00,0.0539
3576.00,0.0539
3575.00,0.0539
3574.00,0.0539
3573.00,0.0539
3572.00,0.0539
3571.00,0.0540
3570.00,0.0540
3569.00,0.0541
3568.00,0.0541
3567.00,0.0542
3566.00,0.0542
3565.00,0.0542
3564.00,0.0542
3563.00,0.0542
3562.00,0.0542
3561.00,0.0543
3560.00,0.0543
3559.00,0.0544
3558.00,0.0544
3557.00,0.0545
3556.00,0.0545
3555.00,0.0545
3554.00,0.0545
3553.00,0.0545
3552.00,0.0545
3551.00,0.0546
3550.00,0.0546
3549.00,0.0546
3548.00,0.0547
3547.00,0.0547
3546.00,0.0548
3545.00,0.0548
3544.00,0.0548
3543.00,0.0549
3542.00,0.0549
3541.00,0.0550
3540.00,0.0550
3539.00,0.0551
3538.00,0.0551
3537.00,0.0552
3536.00,0.0552
3535.00,0.0553
3534.00,0.0553
3533.00,0.0553
3532.00,0.0553
3531.00,0.0553
3530.00,0.0554
3529.00,0.0554
3528.00,0.0555
3527.00,0.0555
3526.00,0.0555
3525.00,0.0556
3524.00,0.0556
3523.00,0.0556
3522.00,0.0557
3521.00,0.0557
3520.00,0.0558
3519.00,0.0558
3518.00,0.0558
3517.00,0.0558
3516.00,0.0558
3515.00,0.0558
3514.00,0.0559
3513.00,0.0559
3512.00,0.0560
3511.00,0.0560
3510.00,0.0560
3509.00,0.0561
3508.00,0.0561
3507.00,0.0561
3506.00,0.0562
3505.00,0.0562
3504.00,0.0562
3503.00,0.0563
3502.00,0.0563
3501.00,0.0563
3500.00,0.0563
3499.00,0.0564
3498.00,0.0564
3497.00,0.0564
3496.00,0.0565
3495.00,0.0565
3494.00,0.0565
3493.00,0.0566
3492.00,0.0566
3491.00,0.0566
3490.00,0.0567
3489.00,0.0567
3488.00,0.0568
3487.00,0.0568
3486.00,0.0569
3485.00,0.0569
3484.00,0.0569
3483.00,0.0570
3482.00,0.0570
3481.00,0.0570
3480.00,0.0570
3479.00,0.0570
3478.00,0.0571
3477.00,0.0571
3476.00,0.0572
3475.00,0.0573
3474.00,0.0574
3473.00,0.0575
3472.00,0.0575
3471.00,0.0576
3470.00,0.0576
3469.00,0.0576
3468.00,0.0576
3467.00,0.0576
3466.00,0.0577
3465.00,0.0578
3464.00,0.0578
3463.00,0.0579
3462.00,0.0579
3461.00,0.0580
3460.00,0.0581
3459.00,0.0582
3458.00,0.0582
3457.00,0.0583
3456.00,0.0583
3455.00,0.0584
3454.00,0.0584
3453.00,0.0585
3452.00,0.0585
3451.00,0.0586
3450.00,0.0586
3449.00,0.0586
3448.00,0.0586
3447.00,0.0586
3446.00,0.0587
3445.00,0.0587
3444.00,0.0587
3443.00,0.0588
3442.00,0.0588
3441.00,0.0588
3440.00,0.0588
3439.00,0.0588
3438.00,0.0588
3437.00,0.0589
3436.00,0.0589
3435.00,0.0590
3434.00,0.0591
3433.00,0.0592
3432.00,0.0593
3431.00,0.0593
3430.00,0.0594
3429.00,0.0595
3428.00,0.0597
3427.00,0.0598
3426.00,0.0599
3425.00,0.0600
3424.00,0.0600
3423.00,0.0601
3422.00,0.0601
3421.00,0.0602
3420.00,0.0603
3419.00,0.0604
3418.00,0.0605
3417.00,0.0605
3416.00,0.0606
3415.00,0.0606
3414.00,0.0606
3413.00,0.0606
3412.00,0.0607
3411.00,0.0607
3410.00,0.0608
3409.00,0.0609
3408.00,0.0609
3407.00,0.0610
3406.00,0.0610
3405.00,0.0610
3404.00,0.0609
3403.00,0.0609
3402.00,0.0608
3401.00,0.0607
3400.00,0.0607
3399.00,0.0608
3398.00,0.0608
3397.00,0.0608
3396.00,0.0608
3395.00,0.0608
3394.00,0.0607
3393.00,0.0607
3392.00,0.0607
3391.00,0.0607
3390.00,0.0607
3389.00,0.0608
3388.00,0.0608
3387.00,0.0609
3386.00,0.0609
3385.00,0.0609
3384.00,0.0609
3383.00,0.0609
3382.00,0.0609
3381.00,0.0609
3380.00,0.0609
3379.00,0.0609
3378.00,0.0610
3377.00,0.0610
3376.00,0.0610
3375.00,0.0611
3374.00,0.0611
3373.00,0.0612
3372.00,0.0611
3371.00,0.0611
3370.00,0.0610
3369.00,0.0610
3368.00,0.0610
3367.00,0.0611
3366.00,0.0612
3365.00,0.0613
3364.00,0.0614
3363.00,0.0614
3362.00,0.0615
3361.00,0.0615
3360.00,0.0616
3359.00,0.0616
3358.00,0.0617
3357.00,0.0618
3356.00,0.0618
3355.00,0.0619
3354.00,0.0619
3353.00,0.0619
3352.00,0.0619
3351.00,0.0619
3350.00,0.0620
3349.00,0.0621
3348.00,0.0622
3347.00,0.0622
3346.00,0.0622
3345.00,0.0622
3344.00,0.0622
3343.00,0.0622
3342.00,0.0623
3341.00,0.0623
3340.00,0.0623
3339.00,0.0624
3338.00,0.0625
3337.00,0.0626
3336.00,0.0627
3335.00,0.0628
3334.00,0.0629
3333.00,0.0629
3332.00,0.0630
3331.00,0.0630
3330.00,0.0630
3329.00,0.0631
3328.00,0.0631
3327.00,0.0631
3326.00,0.0631
3325.00,0.0632
3324.00,0.0633
3323.00,0.0633
3322.00,0.0634
3321.00,0.0635
3320.00,0.0635
3319.00,0.0636
3318.00,0.0637
3317.00,0.0637
3316.00,0.0638
3315.00,0.0638
3314.00,0.0639
3313.00,0.0639
3312.00,0.0639
3311.00,0.0638
3310.00,0.0638
3309.00,0.0637
3308.00,0.0636
3307.00,0.0636
3306.00,0.0636
3305.00,0.0638
3304.00,0.0641
3303.00,0.0643
3302.00,0.0645
3301.00,0.0646
3300.00,0.0646
3299.00,0.0646
3298.00,0.0646
3297.00,0.0646
3296.00,0.0646
3295.00,0.0646
3294.00,0.0647
3293.00,0.0647
3292.00,0.0648
3291.00,0.0650
3290.00,0.0652
3289.00,0.0653
3288.00,0.0655
3287.00,0.0656
3286.00,0.0656
3285.00,0.0657
3284.00,0.0657
3283.00,0.0658
3282.00,0.0658
3281.00,0.0659
3280.00,0.0660
3279.00,0.0660
3278.00,0.0661
3277.00,0.0661
3276.00,0.0661
3275.00,0.0661
3274.00,0.0660
3273.00,0.0660
3272.00,0.0659
3271.00,0.0659
3270.00,0.0661
3269.00,0.0663
3268.00,0.0665
3267.00,0.0667
3266.00,0.0668
3265.00,0.0669
3264.00,0.0670
3263.00,0.0671
3262.00,0.0671
3261.00,0.0672
3260.00,0.0672
3259.00,0.0672
3258.00,0.0672
3257.00,0.0672
3256.00,0.0672
3255.00,0.0673
3254.00,0.0674
3253.00,0.0675
3252.00,0.0676
3251.00,0.0676
3250.00,0.0675
3249.00,0.0674
3248.00,0.0674
3247.00,0.0674
3246.00,0.0676
3245.00,0.0677
3244.00,0.0678
3243.00,0.0679
3242.00,0.0680
3241.00,0.0680
3240.00,0.0681
3239.00,0.0681
3238.00,0.0681
3237.00,0.0681
3236.00,0.0680
3235.00,0.0678
3234.00,0.0678
3233.00,0.0679
3232.00,0.0681
3231.00,0.0683
3230.00,0.0684
3229.00,0.0686
3228.00,0.0687
3227.00,0.0688
3226.00,0.0688
3225.00,0.0689
3224.00,0.0689
3223.00,0.0689
3222.00,0.0689
3221.00,0.0689
3220.00,0.0689
3219.00,0.0689
3218.00,0.0690
3217.00,0.0690
3216.00,0.0691
3215.00,0.0691
3214.00,0.0691
3213.00,0.0692
3212.00,0.0693
3211.00,0.0693
3210.00,0.0694
3209.00,0.0695
3208.00,0.0695
3207.00,0.0695
3206.00,0.0696
3205.00,0.0696
3204.00,0.0696
3203.00,0.0696
3202.00,0.0697
3201.00,0.0697
3200.00,0.0698
3199.00,0.0698
3198.00,0.0698
3197.00,0.0699
3196.00,0.0700
3195.00,0.0700
3194.00,0.0700
3193.00,0.0700
3192.00,0.0700
3191.00,0.0700
3190.00,0.0701
3189.00,0.0701
3188.00,0.0702
3187.00,0.0703
3186.00,0.0704
3185.00,0.0704
3184.00,0.0705
3183.00,0.0705
3182.00,0.0705
3181.00,0.0706
3180.00,0.0706
3179.00,0.0707
3178.00,0.0707
3177.00,0.0708
3176.00,0.0708
3175.00,0.0708
3174.00,0.0709
3173.00,0.0710
3172.00,0.0710
3171.00,0.0710
3170.00,0.0711
3169.00,0.0711
3168.00,0.0711
3167.00,0.0711
3166.00,0.0711
3165.00,0.0711
3164.00,0.0712
3163.00,0.0712
3162.00,0.0712
3161.00,0.0712
3160.00,0.0713
3159.00,0.0713
3158.00,0.0713
3157.00,0.0713
3156.00,0.0713
3155.00,0.0712
3154.00,0.0712
3153.00,0.0712
3152.00,0.0712
3151.00,0.0714
3150.00,0.0715
3149.00,0.0716
3148.00,0.0717
3147.00,0.0718
3146.00,0.0719
3145.00,0.0719
3144.00,0.0720
3143.00,0.0720
3142.00,0.0719
3141.00,0.0719
3140.00,0.0718
3139.00,0.0719
3138.00,0.0720
3137.00,0.0722
3136.00,0.0723
3135.00,0.0725
3134.00,0.0726
3133.00,0.0726
3132.00,0.0727
3131.00,0.0728
3130.00,0.0729
3129.00,0.0729
3128.00,0.0730
3127.00,0.0731
3126.00,0.0732
3125.00,0.0732
3124.00,0.0733
3123.00,0.0733
3122.00,0.0732
3121.00,0.0731
3120.00,0.0731
3119.00,0.0732
3118.00,0.0733
3117.00,0.0735
3116.00,0.0737
3115.00,0.0740
3114.00,0.0742
3113.00,0.0745
3112.00,0.0746
3111.00,0.0747
3110.00,0.0747
3109.00,0.0748
3108.00,0.0749
3107.00,0.0751
3106.00,0.0753
3105.00,0.0754
3104.00,0.0756
3103.00,0.0756
3102.00,0.0756
3101.00,0.0757
3100.00,0.0758
3099.00,0.0759
3098.00,0.0761
3097.00,0.0763
3096.00,0.0764
3095.00,0.0765
3094.00,0.0766
3093.00,0.0766
3092.00,0.0767
3091.00,0.0767
3090.00,0.0768
3089.00,0.0770
3088.00,0.0771
3087.00,0.0772
3086.00,0.0772
3085.00,0.0773
3084.00,0.0774
3083.00,0.0774
3082.00,0.0775
3081.00,0.0775
3080.00,0.0776
3079.00,0.0776
3078.00,0.0778
3077.00,0.0780
3076.00,0.0781
3075.00,0.0783
3074.00,0.0783
3073.00,0.0784
3072.00,0.0783
3071.00,0.0783
3070.00,0.0782
3069.00,0.0782
3068.00,0.0782
3067.00,0.0783
3066.00,0.0784
3065.00,0.0785
3064.00,0.0786
3063.00,0.0786
3062.00,0.0786
3061.00,0.0787
3060.00,0.0787
3059.00,0.0788
3058.00,0.0788
3057.00,0.0789
3056.00,0.0789
3055.00,0.0789
3054.00,0.0790
3053.00,0.0790
3052.00,0.0791
3051.00,0.0792
3050.00,0.0793
3049.00,0.0795
3048.00,0.0796
3047.00,0.0797
3046.00,0.0798
3045.00,0.0799
3044.00,0.0800
3043.00,0.0802
3042.00,0.0804
3041.00,0.0806
3040.00,0.0809
3039.00,0.0812
3038.00,0.0814
3037.00,0.0816
3036.00,0.0818
3035.00,0.0820
3034.00,0.0822
3033.00,0.0825
3032.00,0.0828
3031.00,0.0831
3030.00,0.0833
3029.00,0.0836
3028.00,0.0838
3027.00,0.0840
3026.00,0.0843
3025.00,0.0845
3024.00,0.0848
3023.00,0.0851
3022.00,0.0853
3021.00,0.0856
3020.00,0.0859
3019.00,0.0862
3018.00,0.0864
3017.00,0.0866
3016.00,0.0868
3015.00,0.0870
3014.00,0.0873
3013.00,0.0876
3012.00,0.0879
3011.00,0.0882
3010.00,0.0886
3009.00,0.0890
3008.00,0.0893
3007.00,0.0896
3006.00,0.0898
3005.00,0.0899
3004.00,0.0901
3003.00,0.0902
3002.00,0.0903
3001.00,0.0903
3000.00,0.0903
2999.00,0.0903
2998.00,0.0902
2997.00,0.0902
2996.00,0.0902
2995.00,0.0902
2994.00,0.0901
2993.00,0.0901
2992.00,0.0902
2991.00,0.0902
2990.00,0.0903
2989.00,0.0904
2988.00,0.0905
2987.00,0.0907
2986.00,0.0909
2985.00,0.0914
2984.00,0.0920
2983.00,0.0926
2982.00,0.0931
2981.00,0.0934
2980.00,0.0935
2979.00,0.0934
2978.00,0.0932
2977.00,0.0930
2976.00,0.0929
2975.00,0.0929
2974.00,0.0931
2973.00,0.0933
2972.00,0.0935
2971.00,0.0935
2970.00,0.0934
2969.00,0.0932
2968.00,0.0929
2967.00,0.0926
2966.00,0.0924
2965.00,0.0922
2964.00,0.0919
2963.00,0.0917
2962.00,0.0914
2961.00,0.0912
2960.00,0.0910
2959.00,0.0908
2958.00,0.0906
2957.00,0.0905
2956.00,0.0903
2955.00,0.0902
2954.00,0.0901
2953.00,0.0900
2952.00,0.0900
2951.00,0.0900
2950.00,0.0901
2949.00,0.0902
2948.00,0.0903
2947.00,0.0904
2946.00,0.0905
2945.00,0.0907
2944.00,0.0908
2943.00,0.0910
2942.00,0.0911
2941.00,0.0912
2940.00,0.0912
2939.00,0.0912
2938.00,0.0913
2937.00,0.0913
2936.00,0.0914
2935.00,0.0914
2934.00,0.0915
2933.00,0.0915
2932.00,0.0915
2931.00,0.0915
2930.00,0.0914
2929.00,0.0913
2928.00,0.0912
2927.00,0.0911
2926.00,0.0908
2925.00,0.0906
2924.00,0.0903
2923.00,0.0900
2922.00,0.0897
2921.00,0.0894
2920.00,0.0890
2919.00,0.0886
2918.00,0.0883
2917.00,0.0879
2916.00,0.0876
2915.00,0.0872
2914.00,0.0870
2913.00,0.0868
2912.00,0.0866
2911.00,0.0864
2910.00,0.0863
2909.00,0.0861
2908.00,0.0860
2907.00,0.0858
2906.00,0.0857
2905.00,0.0856
2904.00,0.0854
2903.00,0.0853
2902.00,0.0852
2901.00,0.0851
2900.00,0.0850
2899.00,0.0848
2898.00,0.0847
2897.00,0.0846
2896.00,0.0846
2895.00,0.0846
2894.00,0.0846
2893.00,0.0845
2892.00,0.0845
2891.00,0.0845
2890.00,0.0845
2889.00,0.0845
2888.00,0.0844
2887.00,0.0844
2886.00,0.0844
2885.00,0.0844
2884.00,0.0844
2883.00,0.0844
2882.00,0.0843
2881.00,0.0842
2880.00,0.0841
2879.00,0.0840
2878.00,0.0839
2877.00,0.0838
2876.00,0.0837
2875.00,0.0836
2874.00,0.0836
2873.00,0.0836
2872.00,0.0836
2871.00,0.0837
2870.00,0.0837
2869.00,0.0837
2868.00,0.0837
2867.00,0.0838
2866.00,0.0838
2865.00,0.0838
2864.00,0.0838
2863.00,0.0838
2862.00,0.0838
2861.00,0.0838
2860.00,0.0838
2859.00,0.0838
2858.00,0.0838
2857.00,0.0839
2856.00,0.0839
2855.00,0.0839
2854.00,0.0839
2853.00,0.0839
2852.00,0.0839
2851.00,0.0839
2850.00,0.0840
2849.00,0.0840
2848.00,0.0841
2847.00,0.0841
2846.00,0.0842
2845.00,0.0843
2844.00,0.0843
2843.00,0.0843
2842.00,0.0842
2841.00,0.0842
2840.00,0.0841
2839.00,0.0841
2838.00,0.0841
2837.00,0.0841
2836.00,0.0841
2835.00,0.0841
2834.00,0.0841
2833.00,0.0841
2832.00,0.0841
2831.00,0.0841
2830.00,0.0841
2829.00,0.0841
2828.00,0.0841
2827.00,0.0840
2826.00,0.0840
2825.00,0.0839
2824.00,0.0839
2823.00,0.0838
2822.00,0.0838
2821.00,0.0838
2820.00,0.0838
2819.00,0.0838
2818.00,0.0838
2817.00,0.0838
2816.00,0.0837
2815.00,0.0837
2814.00,0.0837
2813.00,0.0836
2812.00,0.0836
2811.00,0.0836
2810.00,0.0836
2809.00,0.0836
2808.00,0.0836
2807.00,0.0836
2806.00,0.0835
2805.00,0.0835
2804.00,0.0835
2803.00,0.0835
2802.00,0.0835
2801.00,0.0835
2800.00,0.0835
2799.00,0.0834
2798.00,0.0834
2797.00,0.0834
2796.00,0.0834
2795.00,0.0834
2794.00,0.0834
2793.00,0.0834
2792.00,0.0833
2791.00,0.0833
2790.00,0.0833
2789.00,0.0833
2788.00,0.0833
2787.00,0.0832
2786.00,0.0832
2785.00,0.0832
2784.00,0.0832
2783.00,0.0832
2782.00,0.0831
2781.00,0.0831
2780.00,0.0831
2779.00,0.0831
2778.00,0.0831
2777.00,0.0831
2776.00,0.0831
2775.00,0.0830
2774.00,0.0830
2773.00,0.0830
2772.00,0.0830
2771.00,0.0830
2770.00,0.0830
2769.00,0.0830
2768.00,0.0830
2767.00,0.0830
2766.00,0.0830
2765.00,0.0830
2764.00,0.0830
2763.00,0.0830
2762.00,0.0830
2761.00,0.0830
2760.00,0.0830
2759.00,0.0830
2758.00,0.0830
2757.00,0.0830
2756.00,0.0831
2755.00,0.0831
2754.00,0.0831
2753.00,0.0831
2752.00,0.0832
2751.00,0.0832
2750.00,0.0832
2749.00,0.0833
2748.00,0.0833
2747.00,0.0833
2746.00,0.0833
2745.00,0.0834
2744.00,0.0834
2743.00,0.0835
2742.00,0.0835
2741.00,0.0835
2740.00,0.0836
2739.00,0.0836
2738.00,0.0836
2737.00,0.0837
2736.00,0.0837
2735.00,0.0838
2734.00,0.0838
2733.00,0.0838
2732.00,0.0839
2731.00,0.0839
2730.00,0.0839
2729.00,0.0840
2728.00,0.0840
2727.00,0.0840
2726.00,0.0840
2725.00,0.0841
2724.00,0.0841
2723.00,0.0842
2722.00,0.0842
2721.00,0.0842
2720.00,0.0843
2719.00,0.0844
2718.00,0.0844
2717.00,0.0844
2716.00,0.0844
2715.00,0.0844
2714.00,0.0844
2713.00,0.0843
2712.00,0.0843
2711.00,0.0843
2710.00,0.0843
2709.00,0.0843
2708.00,0.0843
2707.00,0.0843
2706.00,0.0843
2705.00,0.0843
2704.00,0.0843
2703.00,0.0843
2702.00,0.0843
2701.00,0.0843
2700.00,0.0843
2699.00,0.0843
2698.00,0.0843
2697.00,0.0843
2696.00,0.0843
2695.00,0.0843
2694.00,0.0843
2693.00,0.0843
2692.00,0.0843
2691.00,0.0843
2690.00,0.0843
2689.00,0.0843
2688.00,0.0843
2687.00,0.0843
2686.00,0.0843
2685.00,0.0844
2684.00,0.0844
2683.00,0.0844
2682.00,0.0845
2681.00,0.0845
2680.00,0.0845
2679.00,0.0845
2678.00,0.0845
2677.00,0.0846
2676.00,0.0846
2675.00,0.0846
2674.00,0.0846
2673.00,0.0847
2672.00,0.0847
2671.00,0.0847
2670.00,0.0847
2669.00,0.0848
2668.00,0.0849
2667.00,0.0849
2666.00,0.0850
2665.00,0.0851
2664.00,0.0852
2663.00,0.0852
2662.00,0.0853
2661.00,0.0854
2660.00,0.0854
2659.00,0.0854
2658.00,0.0854
2657.00,0.0854
2656.00,0.0855
2655.00,0.0855
2654.00,0.0855
2653.00,0.0855
2652.00,0.0854
2651.00,0.0854
2650.00,0.0854
2649.00,0.0854
2648.00,0.0854
2647.00,0.0854
2646.00,0.0854
2645.00,0.0854
2644.00,0.0853
2643.00,0.0853
2642.00,0.0853
2641.00,0.0853
2640.00,0.0853
2639.00,0.0853
2638.00,0.0853
2637.00,0.0853
2636.00,0.0852
2635.00,0.0852
2634.00,0.0852
2633.00,0.0851
2632.00,0.0851
2631.00,0.0850
2630.00,0.0850
2629.00,0.0849
2628.00,0.0849
2627.00,0.0849
2626.00,0.0849
2625.00,0.0849
2624.00,0.0848
2623.00,0.0848
2622.00,0.0848
2621.00,0.0848
2620.00,0.0847
2619.00,0.0847
2618.00,0.0846
2617.00,0.0845
2616.00,0.0845
2615.00,0.0844
2614.00,0.0844
2613.00,0.0843
2612.00,0.0843
2611.00,0.0842
2610.00,0.0842
2609.00,0.0841
2608.00,0.0841
2607.00,0.0840
2606.00,0.0839
2605.00,0.0838
2604.00,0.0838
2603.00,0.0837
2602.00,0.0836
2601.00,0.0835
2600.00,0.0835
2599.00,0.0834
2598.00,0.0834
2597.00,0.0833
2596.00,0.0832
2595.00,0.0831
2594.00,0.0830
2593.00,0.0829
2592.00,0.0828
2591.00,0.0827
2590.00,0.0827
2589.00,0.0827
2588.00,0.0826
2587.00,0.0826
2586.00,0.0825
2585.00,0.0825
2584.00,0.0824
2583.00,0.0823
2582.00,0.0823
2581.00,0.0822
2580.00,0.0822
2579.00,0.0822
2578.00,0.0821
2577.00,0.0821
2576.00,0.0820
2575.00,0.0820
2574.00,0.0820
2573.00,0.0820
2572.00,0.0820
2571.00,0.0821
2570.00,0.0821
2569.00,0.0821
2568.00,0.0821
2567.00,0.0820
2566.00,0.0820
2565.00,0.0819
2564.00,0.0819
2563.00,0.0819
2562.00,0.0820
2561.00,0.0820
2560.00,0.0821
2559.00,0.0821
2558.00,0.0822
2557.00,0.0822
2556.00,0.0822
2555.00,0.0823
2554.00,0.0823
2553.00,0.0823
2552.00,0.0824
2551.00,0.0824
2550.00,0.0824
2549.00,0.0824
2548.00,0.0823
2547.00,0.0824
2546.00,0.0824
2545.00,0.0824
2544.00,0.0824
2543.00,0.0824
2542.00,0.0825
2541.00,0.0825
2540.00,0.0825
2539.00,0.0825
2538.00,0.0825
2537.00,0.0824
2536.00,0.0824
2535.00,0.0824
2534.00,0.0823
2533.00,0.0823
2532.00,0.0823
2531.00,0.0823
2530.00,0.0822
2529.00,0.0822
2528.00,0.0821
2527.00,0.0820
2526.00,0.0819
2525.00,0.0818
2524.00,0.0818
2523.00,0.0818
2522.00,0.0818
2521.00,0.0817
2520.00,0.0817
2519.00,0.0817
2518.00,0.0817
2517.00,0.0816
2516.00,0.0816
2515.00,0.0815
2514.00,0.0814
2513.00,0.0814
2512.00,0.0814
2511.00,0.0814
2510.00,0.0814
2509.00,0.0814
2508.00,0.0815
2507.00,0.0815
2506.00,0.0815
2505.00,0.0815
2504.00,0.0815
2503.00,0.0814
2502.00,0.0814
2501.00,0.0814
2500.00,0.0814
2499.00,0.0813
2498.00,0.0814
2497.00,0.0814
2496.00,0.0814
2495.00,0.0814
2494.00,0.0814
2493.00,0.0814
2492.00,0.0814
2491.00,0.0814
2490.00,0.0814
2489.00,0.0814
2488.00,0.0814
2487.00,0.0815
2486.00,0.0815
2485.00,0.0815
2484.00,0.0815
2483.00,0.0815
2482.00,0.0815
2481.00,0.0815
2480.00,0.0815
2479.00,0.0815
2478.00,0.0816
2477.00,0.0816
2476.00,0.0817
2475.00,0.0817
2474.00,0.0817
2473.00,0.0817
2472.00,0.0817
2471.00,0.0817
2470.00,0.0817
2469.00,0.0817
2468.00,0.0817
2467.00,0.0817
2466.00,0.0818
2465.00,0.0818
2464.00,0.0818
2463.00,0.0818
2462.00,0.0818
2461.00,0.0818
2460.00,0.0819
2459.00,0.0820
2458.00,0.0820
2457.00,0.0820
2456.00,0.0820
2455.00,0.0820
2454.00,0.0819
2453.00,0.0819
2452.00,0.0820
2451.00,0.0820
2450.00,0.0819
2449.00,0.0819
2448.00,0.0818
2447.00,0.0818
2446.00,0.0817
2445.00,0.0817
2444.00,0.0817
2443.00,0.0817
2442.00,0.0817
2441.00,0.0817
2440.00,0.0817
2439.00,0.0818
2438.00,0.0818
2437.00,0.0818
2436.00,0.0818
2435.00,0.0817
2434.00,0.0817
2433.00,0.0817
2432.00,0.0817
2431.00,0.0817
2430.00,0.0817
2429.00,0.0817
2428.00,0.0817
2427.00,0.0818
2426.00,0.0818
2425.00,0.0818
2424.00,0.0818
2423.00,0.0818
2422.00,0.0818
2421.00,0.0819
2420.00,0.0819
2419.00,0.0819
2418.00,0.0820
2417.00,0.0820
2416.00,0.0821
2415.00,0.0821
2414.00,0.0821
2413.00,0.0821
2412.00,0.0822
2411.00,0.0823
2410.00,0.0823
2409.00,0.0823
2408.00,0.0823
2407.00,0.0823
2406.00,0.0823
2405.00,0.0823
2404.00,0.0824
2403.00,0.0825
2402.00,0.0825
2401.00,0.0825
2400.00,0.0826
2399.00,0.0826
2398.00,0.0826
2397.00,0.0827
2396.00,0.0827
2395.00,0.0827
2394.00,0.0827
2393.00,0.0828
2392.00,0.0828
2391.00,0.0829
2390.00,0.0829
2389.00,0.0829
2388.00,0.0829
2387.00,0.0829
2386.00,0.0828
2385.00,0.0828
2384.00,0.0827
2383.00,0.0827
2382.00,0.0827
2381.00,0.0827
2380.00,0.0827
2379.00,0.0828
2378.00,0.0828
2377.00,0.0828
2376.00,0.0828
2375.00,0.0828
2374.00,0.0829
2373.00,0.0829
2372.00,0.0829
2371.00,0.0829
2370.00,0.0829
2369.00,0.0828
2368.00,0.0828
2367.00,0.0827
2366.00,0.0827
2365.00,0.0827
2364.00,0.0828
2363.00,0.0829
2362.00,0.0829
2361.00,0.0830
2360.00,0.0830
2359.00,0.0830
2358.00,0.0830
2357.00,0.0831
2356.00,0.0832
2355.00,0.0832
2354.00,0.0832
2353.00,0.0831
2352.00,0.0831
2351.00,0.0831
2350.00,0.0831
2349.00,0.0832
2348.00,0.0833
2347.00,0.0832
2346.00,0.0832
2345.00,0.0832
2344.00,0.0833
2343.00,0.0833
2342.00,0.0833
2341.00,0.0833
2340.00,0.0834
2339.00,0.0833
2338.00,0.0833
2337.00,0.0833
2336.00,0.0833
2335.00,0.0833
2334.00,0.0833
2333.00,0.0833
2332.00,0.0833
2331.00,0.0832
2330.00,0.0833
2329.00,0.0835
2328.00,0.0838
2327.00,0.0843
2326.00,0.0846
2325.00,0.0846
2324.00,0.0844
2323.00,0.0841
2322.00,0.0839
2321.00,0.0837
2320.00,0.0835
2319.00,0.0833
2318.00,0.0832
2317.00,0.0831
2316.00,0.0830
2315.00,0.0829
2314.00,0.0828
2313.00,0.0828
2312.00,0.0827
2311.00,0.0827
2310.00,0.0827
2309.00,0.0827
2308.00,0.0827
2307.00,0.0827
2306.00,0.0828
2305.00,0.0829
2304.00,0.0829
2303.00,0.0829
2302.00,0.0829
2301.00,0.0829
2300.00,0.0829
2299.00,0.0830
2298.00,0.0831
2297.00,0.0832
2296.00,0.0834
2295.00,0.0835
2294.00,0.0837
2293.00,0.0838
2292.00,0.0839
2291.00,0.0840
2290.00,0.0840
2289.00,0.0841
2288.00,0.0842
2287.00,0.0843
2286.00,0.0843
2285.00,0.0842
2284.00,0.0841
2283.00,0.0839
2282.00,0.0838
2281.00,0.0837
2280.00,0.0837
2279.00,0.0836
2278.00,0.0835
2277.00,0.0834
2276.00,0.0833
2275.00,0.0832
2274.00,0.0830
2273.00,0.0830
2272.00,0.0829
2271.00,0.0829
2270.00,0.0828
2269.00,0.0827
2268.00,0.0826
2267.00,0.0824
2266.00,0.0822
2265.00,0.0822
2264.00,0.0823
2263.00,0.0824
2262.00,0.0825
2261.00,0.0826
2260.00,0.0826
2259.00,0.0825
2258.00,0.0823
2257.00,0.0822
2256.00,0.0821
2255.00,0.0820
2254.00,0.0819
2253.00,0.0818
2252.00,0.0818
2251.00,0.0818
2250.00,0.0818
2249.00,0.0818
2248.00,0.0819
2247.00,0.0819
2246.00,0.0819
2245.00,0.0819
2244.00,0.0819
2243.00,0.0818
2242.00,0.0818
2241.00,0.0818
2240.00,0.0818
2239.00,0.0820
2238.00,0.0820
2237.00,0.0820
2236.00,0.0819
2235.00,0.0817
2234.00,0.0815
2233.00,0.0813
2232.00,0.0813
2231.00,0.0812
2230.00,0.0811
2229.00,0.0812
2228.00,0.0812
2227.00,0.0812
2226.00,0.0812
2225.00,0.0813
2224.00,0.0812
2223.00,0.0812
2222.00,0.0812
2221.00,0.0812
2220.00,0.0813
2219.00,0.0813
2218.00,0.0813
2217.00,0.0812
2216.00,0.0813
2215.00,0.0813
2214.00,0.0813
2213.00,0.0813
2212.00,0.0813
2211.00,0.0812
2210.00,0.0811
2209.00,0.0811
2208.00,0.0811
2207.00,0.0811
2206.00,0.0811
2205.00,0.0812
2204.00,0.0813
2203.00,0.0813
2202.00,0.0813
2201.00,0.0812
2200.00,0.0812
2199.00,0.0812
2198.00,0.0812
2197.00,0.0812
2196.00,0.0813
2195.00,0.0814
2194.00,0.0813
2193.00,0.0814
2192.00,0.0814
2191.00,0.0814
2190.00,0.0812
2189.00,0.0812
2188.00,0.0811
2187.00,0.0811
2186.00,0.0810
2185.00,0.0808
2184.00,0.0807
2183.00,0.0807
2182.00,0.0808
2181.00,0.0810
2180.00,0.0813
2179.00,0.0813
2178.00,0.0811
2177.00,0.0809
2176.00,0.0808
2175.00,0.0807
2174.00,0.0808
2173.00,0.0811
2172.00,0.0814
2171.00,0.0816
2170.00,0.0817
2169.00,0.0819
2168.00,0.0822
2167.00,0.0823
2166.00,0.0824
2165.00,0.0824
2164.00,0.0825
2163.00,0.0822
2162.00,0.0814
2161.00,0.0802
2160.00,0.0787
2159.00,0.0776
2158.00,0.0773
2157.00,0.0776
2156.00,0.0782
2155.00,0.0786
2154.00,0.0787
2153.00,0.0789
2152.00,0.0790
2151.00,0.0791
2150.00,0.0790
2149.00,0.0790
2148.00,0.0790
2147.00,0.0789
2146.00,0.0788
2145.00,0.0788
2144.00,0.0788
2143.00,0.0789
2142.00,0.0790
2141.00,0.0791
2140.00,0.0792
2139.00,0.0793
2138.00,0.0792
2137.00,0.0791
2136.00,0.0789
2135.00,0.0787
2134.00,0.0786
2133.00,0.0788
2132.00,0.0790
2131.00,0.0792
2130.00,0.0794
2129.00,0.0795
2128.00,0.0796
2127.00,0.0797
2126.00,0.0798
2125.00,0.0799
2124.00,0.0801
2123.00,0.0802
2122.00,0.0804
2121.00,0.0805
2120.00,0.0808
2119.00,0.0810
2118.00,0.0811
2117.00,0.0812
2116.00,0.0813
2115.00,0.0813
2114.00,0.0813
2113.00,0.0812
2112.00,0.0812
2111.00,0.0812
2110.00,0.0812
2109.00,0.0812
2108.00,0.0812
2107.00,0.0813
2106.00,0.0813
2105.00,0.0813
2104.00,0.0814
2103.00,0.0813
2102.00,0.0813
2101.00,0.0814
2100.00,0.0815
2099.00,0.0816
2098.00,0.0816
2097.00,0.0815
2096.00,0.0814
2095.00,0.0814
2094.00,0.0815
2093.00,0.0817
2092.00,0.0820
2091.00,0.0822
2090.00,0.0823
2089.00,0.0823
2088.00,0.0823
2087.00,0.0823
2086.00,0.0822
2085.00,0.0823
2084.00,0.0824
2083.00,0.0825
2082.00,0.0825
2081.00,0.0825
2080.00,0.0825
2079.00,0.0824
2078.00,0.0823
2077.00,0.0822
2076.00,0.0822
2075.00,0.0821
2074.00,0.0820
2073.00,0.0819
2072.00,0.0819
2071.00,0.0819
2070.00,0.0818
2069.00,0.0817
2068.00,0.0816
2067.00,0.0815
2066.00,0.0813
2065.00,0.0812
2064.00,0.0813
2063.00,0.0813
2062.00,0.0813
2061.00,0.0814
2060.00,0.0814
2059.00,0.0814
2058.00,0.0814
2057.00,0.0813
2056.00,0.0813
2055.00,0.0813
2054.00,0.0815
2053.00,0.0819
2052.00,0.0822
2051.00,0.0821
2050.00,0.0817
2049.00,0.0814
2048.00,0.0813
2047.00,0.0812
2046.00,0.0810
2045.00,0.0809
2044.00,0.0810
2043.00,0.0811
2042.00,0.0811
2041.00,0.0810
2040.00,0.0810
2039.00,0.0809
2038.00,0.0807
2037.00,0.0805
2036.00,0.0802
2035.00,0.0799
2034.00,0.0796
2033.00,0.0797
2032.00,0.0799
2031.00,0.0801
2030.00,0.0801
2029.00,0.0801
2028.00,0.0801
2027.00,0.0799
2026.00,0.0797
2025.00,0.0796
2024.00,0.0796
2023.00,0.0795
2022.00,0.0794
2021.00,0.0794
2020.00,0.0797
2019.00,0.0801
2018.00,0.0805
2017.00,0.0808
2016.00,0.0810
2015.00,0.0808
2014.00,0.0805
2013.00,0.0804
2012.00,0.0805
2011.00,0.0807
2010.00,0.0808
2009.00,0.0808
2008.00,0.0806
2007.00,0.0803
2006.00,0.0800
2005.00,0.0800
2004.00,0.0803
2003.00,0.0805
2002.00,0.0808
2001.00,0.0811
2000.00,0.0815
1999.00,0.0817
1998.00,0.0818
1997.00,0.0820
1996.00,0.0822
1995.00,0.0823
1994.00,0.0824
1993.00,0.0824
1992.00,0.0824
1991.00,0.0823
1990.00,0.0822
1989.00,0.0823
1988.00,0.0824
1987.00,0.0825
1986.00,0.0826
1985.00,0.0828
1984.00,0.0831
1983.00,0.0833
1982.00,0.0834
1981.00,0.0834
1980.00,0.0831
1979.00,0.0824
1978.00,0.0815
1977.00,0.0809
1976.00,0.0806
1975.00,0.0805
1974.00,0.0805
1973.00,0.0806
1972.00,0.0808
1971.00,0.0810
1970.00,0.0810
1969.00,0.0809
1968.00,0.0809
1967.00,0.0808
1966.00,0.0807
1965.00,0.0810
1964.00,0.0813
1963.00,0.0813
1962.00,0.0811
1961.00,0.0809
1960.00,0.0809
1959.00,0.0810
1958.00,0.0811
1957.00,0.0812
1956.00,0.0814
1955.00,0.0815
1954.00,0.0815
1953.00,0.0815
1952.00,0.0816
1951.00,0.0817
1950.00,0.0817
1949.00,0.0819
1948.00,0.0821
1947.00,0.0822
1946.00,0.0822
1945.00,0.0823
1944.00,0.0824
1943.00,0.0825
1942.00,0.0825
1941.00,0.0826
1940.00,0.0828
1939.00,0.0829
1938.00,0.0829
1937.00,0.0830
1936.00,0.0832
1935.00,0.0832
1934.00,0.0832
1933.00,0.0833
1932.00,0.0833
1931.00,0.0833
1930.00,0.0833
1929.00,0.0834
1928.00,0.0836
1927.00,0.0838
1926.00,0.0840
1925.00,0.0841
1924.00,0.0841
1923.00,0.0841
1922.00,0.0841
1921.00,0.0844
1920.00,0.0846
1919.00,0.0847
1918.00,0.0847
1917.00,0.0846
1916.00,0.0846
1915.00,0.0847
1914.00,0.0847
1913.00,0.0848
1912.00,0.0848
1911.00,0.0848
1910.00,0.0847
1909.00,0.0846
1908.00,0.0846
1907.00,0.0845
1906.00,0.0845
1905.00,0.0844
1904.00,0.0845
1903.00,0.0844
1902.00,0.0844
1901.00,0.0844
1900.00,0.0845
1899.00,0.0846
1898.00,0.0845
1897.00,0.0845
1896.00,0.0845
1895.00,0.0844
1894.00,0.0844
1893.00,0.0845
1892.00,0.0847
1891.00,0.0847
1890.00,0.0846
1889.00,0.0846
1888.00,0.0846
1887.00,0.0847
1886.00,0.0847
1885.00,0.0847
1884.00,0.0848
1883.00,0.0850
1882.00,0.0851
1881.00,0.0853
1880.00,0.0855
1879.00,0.0855
1878.00,0.0856
1877.00,0.0856
1876.00,0.0858
1875.00,0.0859
1874.00,0.0860
1873.00,0.0862
1872.00,0.0865
1871.00,0.0867
1870.00,0.0868
1869.00,0.0867
1868.00,0.0866
1867.00,0.0866
1866.00,0.0868
1865.00,0.0870
1864.00,0.0873
1863.00,0.0874
1862.00,0.0875
1861.00,0.0876
1860.00,0.0878
1859.00,0.0880
1858.00,0.0881
1857.00,0.0882
1856.00,0.0883
1855.00,0.0884
1854.00,0.0884
1853.00,0.0884
1852.00,0.0886
1851.00,0.0887
1850.00,0.0888
1849.00,0.0888
1848.00,0.0889
1847.00,0.0890
1846.00,0.0891
1845.00,0.0891
1844.00,0.0889
1843.00,0.0888
1842.00,0.0888
1841.00,0.0889
1840.00,0.0891
1839.00,0.0891
1838.00,0.0891
1837.00,0.0891
1836.00,0.0892
1835.00,0.0894
1834.00,0.0895
1833.00,0.0898
1832.00,0.0900
1831.00,0.0900
1830.00,0.0898
1829.00,0.0897
1828.00,0.0899
1827.00,0.0901
1826.00,0.0902
1825.00,0.0903
1824.00,0.0903
1823.00,0.0904
1822.00,0.0905
1821.00,0.0906
1820.00,0.0907
1819.00,0.0908
1818.00,0.0908
1817.00,0.0909
1816.00,0.0911
1815.00,0.0913
1814.00,0.0914
1813.00,0.0916
1812.00,0.0917
1811.00,0.0918
1810.00,0.0918
1809.00,0.0919
1808.00,0.0921
1807.00,0.0923
1806.00,0.0924
1805.00,0.0926
1804.00,0.0928
1803.00,0.0930
1802.00,0.0930
1801.00,0.0930
1800.00,0.0929
1799.00,0.0928
1798.00,0.0928
1797.00,0.0929
1796.00,0.0931
1795.00,0.0933
1794.00,0.0933
1793.00,0.0933
1792.00,0.0932
1791.00,0.0932
1790.00,0.0933
1789.00,0.0935
1788.00,0.0937
1787.00,0.0939
1786.00,0.0941
1785.00,0.0942
1784.00,0.0944
1783.00,0.0945
1782.00,0.0946
1781.00,0.0946
1780.00,0.0947
1779.00,0.0949
1778.00,0.0951
1777.00,0.0954
1776.00,0.0957
1775.00,0.0960
1774.00,0.0960
1773.00,0.0960
1772.00,0.0961
1771.00,0.0966
1770.00,0.0973
1769.00,0.0979
1768.00,0.0983
1767.00,0.0986
1766.00,0.0990
1765.00,0.0995
1764.00,0.1002
1763.00,0.1007
1762.00,0.1011
1761.00,0.1016
1760.00,0.1024
1759.00,0.1031
1758.00,0.1039
1757.00,0.1045
1756.00,0.1051
1755.00,0.1058
1754.00,0.1064
1753.00,0.1069
1752.00,0.1074
1751.00,0.1078
1750.00,0.1083
1749.00,0.1089
1748.00,0.1097
1747.00,0.1106
1746.00,0.1117
1745.00,0.1130
1744.00,0.1145
1743.00,0.1162
1742.00,0.1181
1741.00,0.1204
1740.00,0.1232
1739.00,0.1264
1738.00,0.1301
1737.00,0.1343
1736.00,0.1390
1735.00,0.1449
1734.00,0.1519
1733.00,0.1594
1732.00,0.1665
1731.00,0.1726
1730.00,0.1773
1729.00,0.1805
1728.00,0.1818
1727.00,0.1815
1726.00,0.1796
1725.00,0.1768
1724.00,0.1735
1723.00,0.1702
1722.00,0.1676
1721.00,0.1658
1720.00,0.1650
1719.00,0.1648
1718.00,0.1656
1717.00,0.1683
1716.00,0.1730
1715.00,0.1788
1714.00,0.1848
1713.00,0.1904
1712.00,0.1950
1711.00,0.1985
1710.00,0.2010
1709.00,0.2025
1708.00,0.2030
1707.00,0.2025
1706.00,0.2009
1705.00,0.1985
1704.00,0.1958
1703.00,0.1928
1702.00,0.1891
1701.00,0.1839
1700.00,0.1778
1699.00,0.1724
1698.00,0.1684
1697.00,0.1649
1696.00,0.1618
1695.00,0.1596
1694.00,0.1586
1693.00,0.1585
1692.00,0.1584
1691.00,0.1583
1690.00,0.1582
1689.00,0.1584
1688.00,0.1587
1687.00,0.1590
1686.00,0.1591
1685.00,0.1595
1684.00,0.1605
1683.00,0.1622
1682.00,0.1641
1681.00,0.1657
1680.00,0.1672
1679.00,0.1687
1678.00,0.1704
1677.00,0.1723
1676.00,0.1744
1675.00,0.1765
1674.00,0.1785
1673.00,0.1807
1672.00,0.1830
1671.00,0.1855
1670.00,0.1882
1669.00,0.1912
1668.00,0.1946
1667.00,0.1980
1666.00,0.2015
1665.00,0.2053
1664.00,0.2095
1663.00,0.2141
1662.00,0.2188
1661.00,0.2239
1660.00,0.2292
1659.00,0.2348
1658.00,0.2405
1657.00,0.2462
1656.00,0.2518
1655.00,0.2576
1654.00,0.2642
1653.00,0.2726
1652.00,0.2820
1651.00,0.2908
1650.00,0.2987
1649.00,0.3065
1648.00,0.3149
1647.00,0.3244
1646.00,0.3346
1645.00,0.3450
1644.00,0.3551
1643.00,0.3648
1642.00,0.3745
1641.00,0.3846
1640.00,0.3949
1639.00,0.4050
1638.00,0.4147
1637.00,0.4249
1636.00,0.4365
1635.00,0.4485
1634.00,0.4595
1633.00,0.4690
1632.00,0.4778
1631.00,0.4861
1630.00,0.4939
1629.00,0.5015
1628.00,0.5087
1627.00,0.5150
1626.00,0.5202
1625.00,0.5245
1624.00,0.5284
1623.00,0.5316
1622.00,0.5337
1621.00,0.5350
1620.00,0.5357
1619.00,0.5354
1618.00,0.5338
1617.00,0.5315
1616.00,0.5294
1615.00,0.5275
1614.00,0.5252
1613.00,0.5223
1612.00,0.5187
1611.00,0.5146
1610.00,0.5100
1609.00,0.5052
1608.00,0.5003
1607.00,0.4955
1606.00,0.4904
1605.00,0.4851
1604.00,0.4799
1603.00,0.4746
1602.00,0.4690
1601.00,0.4635
1600.00,0.4580
1599.00,0.4525
1598.00,0.4469
1597.00,0.4411
1596.00,0.4354
1595.00,0.4297
1594.00,0.4240
1593.00,0.4183
1592.00,0.4127
1591.00,0.4073
1590.00,0.4017
1589.00,0.3962
1588.00,0.3908
1587.00,0.3856
1586.00,0.3804
1585.00,0.3752
1584.00,0.3701
1583.00,0.3652
1582.00,0.3602
1581.00,0.3553
1580.00,0.3507
1579.00,0.3462
1578.00,0.3418
1577.00,0.3372
1576.00,0.3326
1575.00,0.3282
1574.00,0.3239
1573.00,0.3197
1572.00,0.3157
1571.00,0.3120
1570.00,0.3077
1569.00,0.3034
1568.00,0.3000
1567.00,0.2968
1566.00,0.2937
1565.00,0.2906
1564.00,0.2876
1563.00,0.2850
1562.00,0.2826
1561.00,0.2801
1560.00,0.2772
1559.00,0.2737
1558.00,0.2712
1557.00,0.2698
1556.00,0.2682
1555.00,0.2665
1554.00,0.2646
1553.00,0.2630
1552.00,0.2615
1551.00,0.2600
1550.00,0.2584
1549.00,0.2567
1548.00,0.2553
1547.00,0.2540
1546.00,0.2528
1545.00,0.2513
1544.00,0.2498
1543.00,0.2482
1542.00,0.2464
1541.00,0.2442
1540.00,0.2419
1539.00,0.2406
1538.00,0.2402
1537.00,0.2402
1536.00,0.2401
1535.00,0.2394
1534.00,0.2383
1533.00,0.2370
1532.00,0.2360
1531.00,0.2352
1530.00,0.2346
1529.00,0.2340
1528.00,0.2335
1527.00,0.2328
1526.00,0.2319
1525.00,0.2310
1524.00,0.2299
1523.00,0.2285
1522.00,0.2267
1521.00,0.2251
1520.00,0.2242
1519.00,0.2236
1518.00,0.2228
1517.00,0.2217
1516.00,0.2206
1515.00,0.2198
1514.00,0.2190
1513.00,0.2183
1512.00,0.2177
1511.00,0.2171
1510.00,0.2165
1509.00,0.2156
1508.00,0.2143
1507.00,0.2127
1506.00,0.2119
1505.00,0.2118
1504.00,0.2120
1503.00,0.2122
1502.00,0.2124
1501.00,0.2124
1500.00,0.2124
1499.00,0.2122
1498.00,0.2118
1497.00,0.2114
1496.00,0.2113
1495.00,0.2116
1494.00,0.2122
1493.00,0.2129
1492.00,0.2136
1491.00,0.2141
1490.00,0.2143
1489.00,0.2146
1488.00,0.2151
1487.00,0.2156
1486.00,0.2162
1485.00,0.2168
1484.00,0.2176
1483.00,0.2184
1482.00,0.2193
1481.00,0.2204
1480.00,0.2216
1479.00,0.2231
1478.00,0.2247
1477.00,0.2264
1476.00,0.2281
1475.00,0.2297
1474.00,0.2314
1473.00,0.2333
1472.00,0.2354
1471.00,0.2374
1470.00,0.2394
1469.00,0.2411
1468.00,0.2429
1467.00,0.2447
1466.00,0.2466
1465.00,0.2483
1464.00,0.2500
1463.00,0.2515
1462.00,0.2528
1461.00,0.2539
1460.00,0.2548
1459.00,0.2553
1458.00,0.2554
1457.00,0.2554
1456.00,0.2557
1455.00,0.2561
1454.00,0.2564
1453.00,0.2567
1452.00,0.2570
1451.00,0.2574
1450.00,0.2578
1449.00,0.2584
1448.00,0.2590
1447.00,0.2598
1446.00,0.2608
1445.00,0.2621
1444.00,0.2636
1443.00,0.2653
1442.00,0.2673
1441.00,0.2695
1440.00,0.2720
1439.00,0.2746
1438.00,0.2775
1437.00,0.2807
1436.00,0.2839
1435.00,0.2868
1434.00,0.2895
1433.00,0.2922
1432.00,0.2951
1431.00,0.2980
1430.00,0.3010
1429.00,0.3040
1428.00,0.3069
1427.00,0.3096
1426.00,0.3120
1425.00,0.3144
1424.00,0.3167
1423.00,0.3187
1422.00,0.3203
1421.00,0.3218
1420.00,0.3229
1419.00,0.3236
1418.00,0.3239
1417.00,0.3238
1416.00,0.3233
1415.00,0.3222
1414.00,0.3207
1413.00,0.3191
1412.00,0.3171
1411.00,0.3149
1410.00,0.3125
1409.00,0.3100
1408.00,0.3074
1407.00,0.3047
1406.00,0.3019
1405.00,0.2990
1404.00,0.2961
1403.00,0.2933
1402.00,0.2905
1401.00,0.2877
1400.00,0.2847
1399.00,0.2814
1398.00,0.2782
1397.00,0.2751
1396.00,0.2719
1395.00,0.2688
1394.00,0.2656
1393.00,0.2627
1392.00,0.2600
1391.00,0.2575
1390.00,0.2552
1389.00,0.2531
1388.00,0.2512
1387.00,0.2493
1386.00,0.2478
1385.00,0.2465
1384.00,0.2456
1383.00,0.2448
1382.00,0.2444
1381.00,0.2443
1380.00,0.2446
1379.00,0.2454
1378.00,0.2467
1377.00,0.2486
1376.00,0.2512
1375.00,0.2545
1374.00,0.2585
1373.00,0.2629
1372.00,0.2676
1371.00,0.2723
1370.00,0.2771
1369.00,0.2823
1368.00,0.2882
1367.00,0.2948
1366.00,0.3023
1365.00,0.3108
1364.00,0.3198
1363.00,0.3288
1362.00,0.3366
1361.00,0.3423
1360.00,0.3452
1359.00,0.3452
1358.00,0.3422
1357.00,0.3368
1356.00,0.3295
1355.00,0.3210
1354.00,0.3120
1353.00,0.3031
1352.00,0.2947
1351.00,0.2869
1350.00,0.2799
1349.00,0.2736
1348.00,0.2680
1347.00,0.2631
1346.00,0.2588
1345.00,0.2550
1344.00,0.2517
1343.00,0.2488
1342.00,0.2463
1341.00,0.2441
1340.00,0.2420
1339.00,0.2403
1338.00,0.2388
1337.00,0.2375
1336.00,0.2364
1335.00,0.2354
1334.00,0.2345
1333.00,0.2338
1332.00,0.2331
1331.00,0.2325
1330.00,0.2320
1329.00,0.2316
1328.00,0.2313
1327.00,0.2311
1326.00,0.2311
1325.00,0.2312
1324.00,0.2315
1323.00,0.2319
1322.00,0.2324
1321.00,0.2331
1320.00,0.2338
1319.00,0.2347
1318.00,0.2357
1317.00,0.2368
1316.00,0.2381
1315.00,0.2394
1314.00,0.2408
1313.00,0.2423
1312.00,0.2438
1311.00,0.2453
1310.00,0.2467
1309.00,0.2481
1308.00,0.2495
1307.00,0.2507
1306.00,0.2518
1305.00,0.2527
1304.00,0.2533
1303.00,0.2537
1302.00,0.2539
1301.00,0.2540
1300.00,0.2539
1299.00,0.2537
1298.00,0.2534
1297.00,0.2530
1296.00,0.2525
1295.00,0.2520
1294.00,0.2514
1293.00,0.2508
1292.00,0.2502
1291.00,0.2496
1290.00,0.2490
1289.00,0.2485
1288.00,0.2480
1287.00,0.2475
1286.00,0.2472
1285.00,0.2471
1284.00,0.2470
1283.00,0.2471
1282.00,0.2472
1281.00,0.2474
1280.00,0.2476
1279.00,0.2479
1278.00,0.2482
1277.00,0.2486
1276.00,0.2489
1275.00,0.2493
1274.00,0.2498
1273.00,0.2505
1272.00,0.2512
1271.00,0.2522
1270.00,0.2533
1269.00,0.2548
1268.00,0.2566
1267.00,0.2587
1266.00,0.2611
1265.00,0.2639
1264.00,0.2671
1263.00,0.2707
1262.00,0.2748
1261.00,0.2793
1260.00,0.2842
1259.00,0.2895
1258.00,0.2951
1257.00,0.3007
1256.00,0.3064
1255.00,0.3119
1254.00,0.3171
1253.00,0.3220
1252.00,0.3263
1251.00,0.3301
1250.00,0.3330
1249.00,0.3352
1248.00,0.3367
1247.00,0.3373
1246.00,0.3371
1245.00,0.3363
1244.00,0.3348
1243.00,0.3327
1242.00,0.3301
1241.00,0.3270
1240.00,0.3234
1239.00,0.3193
1238.00,0.3148
1237.00,0.3099
1236.00,0.3047
1235.00,0.2993
1234.00,0.2936
1233.00,0.2879
1232.00,0.2821
1231.00,0.2763
1230.00,0.2707
1229.00,0.2652
1228.00,0.2598
1227.00,0.2546
1226.00,0.2496
1225.00,0.2447
1224.00,0.2401
1223.00,0.2358
1222.00,0.2317
1221.00,0.2278
1220.00,0.2241
1219.00,0.2206
1218.00,0.2173
1217.00,0.2141
1216.00,0.2111
1215.00,0.2083
1214.00,0.2056
1213.00,0.2031
1212.00,0.2007
1211.00,0.1985
1210.00,0.1964
1209.00,0.1945
1208.00,0.1926
1207.00,0.1909
1206.00,0.1893
1205.00,0.1878
1204.00,0.1864
1203.00,0.1851
1202.00,0.1839
1201.00,0.1828
1200.00,0.1818
1199.00,0.1808
1198.00,0.1800
1197.00,0.1794
1196.00,0.1788
1195.00,0.1785
1194.00,0.1782
1193.00,0.1781
1192.00,0.1781
1191.00,0.1782
1190.00,0.1786
1189.00,0.1791
1188.00,0.1798
1187.00,0.1809
1186.00,0.1821
1185.00,0.1837
1184.00,0.1854
1183.00,0.1873
1182.00,0.1895
1181.00,0.1918
1180.00,0.1942
1179.00,0.1967
1178.00,0.1993
1177.00,0.2018
1176.00,0.2043
1175.00,0.2066
1174.00,0.2087
1173.00,0.2105
1172.00,0.2119
1171.00,0.2126
1170.00,0.2128
1169.00,0.2123
1168.00,0.2114
1167.00,0.2103
1166.00,0.2092
1165.00,0.2083
1164.00,0.2077
1163.00,0.2074
1162.00,0.2076
1161.00,0.2083
1160.00,0.2094
1159.00,0.2107
1158.00,0.2119
1157.00,0.2127
1156.00,0.2127
1155.00,0.2118
1154.00,0.2100
1153.00,0.2074
1152.00,0.2043
1151.00,0.2009
1150.00,0.1975
1149.00,0.1940
1148.00,0.1905
1147.00,0.1871
1146.00,0.1837
1145.00,0.1805
1144.00,0.1776
1143.00,0.1749
1142.00,0.1725
1141.00,0.1705
1140.00,0.1686
1139.00,0.1670
1138.00,0.1654
1137.00,0.1640
1136.00,0.1626
1135.00,0.1614
1134.00,0.1603
1133.00,0.1593
1132.00,0.1584
1131.00,0.1576
1130.00,0.1569
1129.00,0.1561
1128.00,0.1554
1127.00,0.1546
1126.00,0.1540
1125.00,0.1534
1124.00,0.1528
1123.00,0.1523
1122.00,0.1518
1121.00,0.1514
1120.00,0.1509
1119.00,0.1505
1118.00,0.1502
1117.00,0.1498
1116.00,0.1495
1115.00,0.1493
1114.00,0.1490
1113.00,0.1488
1112.00,0.1485
1111.00,0.1483
1110.00,0.1481
1109.00,0.1480
1108.00,0.1478
1107.00,0.1477
1106.00,0.1475
1105.00,0.1473
1104.00,0.1471
1103.00,0.1469
1102.00,0.1468
1101.00,0.1466
1100.00,0.1464
1099.00,0.1463
1098.00,0.1462
1097.00,0.1461
1096.00,0.1460
1095.00,0.1459
1094.00,0.1459
1093.00,0.1459
1092.00,0.1459
1091.00,0.1460
1090.00,0.1460
1089.00,0.1461
1088.00,0.1461
1087.00,0.1462
1086.00,0.1462
1085.00,0.1462
1084.00,0.1462
1083.00,0.1463
1082.00,0.1463
1081.00,0.1464
1080.00,0.1465
1079.00,0.1466
1078.00,0.1467
1077.00,0.1469
1076.00,0.1470
1075.00,0.1472
1074.00,0.1473
1073.00,0.1474
1072.00,0.1475
1071.00,0.1476
1070.00,0.1477
1069.00,0.1478
1068.00,0.1479
1067.00,0.1479
1066.00,0.1481
1065.00,0.1483
1064.00,0.1485
1063.00,0.1487
1062.00,0.1489
1061.00,0.1492
1060.00,0.1494
1059.00,0.1498
1058.00,0.1503
1057.00,0.1508
1056.00,0.1513
1055.00,0.1519
1054.00,0.1525
1053.00,0.1529
1052.00,0.1533
1051.00,0.1535
1050.00,0.1537
1049.00,0.1540
1048.00,0.1543
1047.00,0.1546
1046.00,0.1550
1045.00,0.1554
1044.00,0.1559
1043.00,0.1565
1042.00,0.1573
1041.00,0.1582
1040.00,0.1592
1039.00,0.1604
1038.00,0.1618
1037.00,0.1634
1036.00,0.1652
1035.00,0.1671
1034.00,0.1693
1033.00,0.1717
1032.00,0.1743
1031.00,0.1772
1030.00,0.1804
1029.00,0.1836
1028.00,0.1869
1027.00,0.1901
1026.00,0.1929
1025.00,0.1954
1024.00,0.1974
1023.00,0.1989
1022.00,0.2001
1021.00,0.2009
1020.00,0.2016
1019.00,0.2024
1018.00,0.2033
1017.00,0.2045
1016.00,0.2057
1015.00,0.2072
1014.00,0.2087
1013.00,0.2103
1012.00,0.2118
1011.00,0.2133
1010.00,0.2146
1009.00,0.2157
1008.00,0.2168
1007.00,0.2178
1006.00,0.2188
1005.00,0.2199
1004.00,0.2211
1003.00,0.2223
1002.00,0.2233
1001.00,0.2242
1000.00,0.2246
999.00,0.2246
998.00,0.2241
997.00,0.2231
996.00,0.2217
995.00,0.2200
994.00,0.2182
993.00,0.2164
992.00,0.2146
991.00,0.2129
990.00,0.2114
989.00,0.2101
988.00,0.2090
987.00,0.2082
986.00,0.2076
985.00,0.2074
984.00,0.2073
983.00,0.2074
982.00,0.2077
981.00,0.2082
980.00,0.2088
979.00,0.2097
978.00,0.2107
977.00,0.2118
976.00,0.2131
975.00,0.2145
974.00,0.2160
973.00,0.2177
972.00,0.2193
971.00,0.2210
970.00,0.2227
969.00,0.2243
968.00,0.2260
967.00,0.2276
966.00,0.2292
965.00,0.2307
964.00,0.2322
963.00,0.2335
962.00,0.2348
961.00,0.2360
960.00,0.2371
959.00,0.2380
958.00,0.2389
957.00,0.2397
956.00,0.2403
955.00,0.2407
954.00,0.2409
953.00,0.2410
952.00,0.2409
951.00,0.2406
950.00,0.2402
949.00,0.2396
948.00,0.2389
947.00,0.2379
946.00,0.2368
945.00,0.2356
944.00,0.2342
943.00,0.2327
942.00,0.2311
941.00,0.2295
940.00,0.2278
939.00,0.2260
938.00,0.2243
937.00,0.2224
936.00,0.2206
935.00,0.2187
934.00,0.2169
933.00,0.2153
932.00,0.2138
931.00,0.2124
930.00,0.2114
929.00,0.2108
928.00,0.2106
927.00,0.2110
926.00,0.2122
925.00,0.2143
924.00,0.2175
923.00,0.2219
922.00,0.2275
921.00,0.2345
920.00,0.2427
919.00,0.2518
918.00,0.2613
917.00,0.2705
916.00,0.2783
915.00,0.2840
914.00,0.2869
913.00,0.2872
912.00,0.2850
911.00,0.2809
910.00,0.2756
909.00,0.2695
908.00,0.2630
907.00,0.2563
906.00,0.2495
905.00,0.2430
904.00,0.2368
903.00,0.2310
902.00,0.2256
901.00,0.2207
900.00,0.2161
899.00,0.2120
898.00,0.2082
897.00,0.2047
896.00,0.2015
895.00,0.1985
894.00,0.1957
893.00,0.1932
892.00,0.1909
891.00,0.1887
890.00,0.1867
889.00,0.1847
888.00,0.1829
887.00,0.1812
886.00,0.1797
885.00,0.1783
884.00,0.1769
883.00,0.1756
882.00,0.1742
881.00,0.1729
880.00,0.1717
879.00,0.1705
878.00,0.1694
877.00,0.1684
876.00,0.1675
875.00,0.1666
874.00,0.1657
873.00,0.1649
872.00,0.1641
871.00,0.1633
870.00,0.1625
869.00,0.1617
868.00,0.1609
867.00,0.1602
866.00,0.1595
865.00,0.1589
864.00,0.1582
863.00,0.1576
862.00,0.1570
861.00,0.1564
860.00,0.1558
859.00,0.1553
858.00,0.1548
857.00,0.1544
856.00,0.1540
855.00,0.1537
854.00,0.1534
853.00,0.1531
852.00,0.1529
851.00,0.1526
850.00,0.1524
849.00,0.1522
848.00,0.1519
847.00,0.1517
846.00,0.1514
845.00,0.1512
844.00,0.1510
843.00,0.1508
842.00,0.1507
841.00,0.1505
840.00,0.1504
839.00,0.1503
838.00,0.1502
837.00,0.1502
836.00,0.1502
835.00,0.1503
834.00,0.1503
833.00,0.1504
832.00,0.1505
831.00,0.1505
830.00,0.1506
829.00,0.1508
828.00,0.1510
827.00,0.1513
826.00,0.1517
825.00,0.1521
824.00,0.1526
823.00,0.1532
822.00,0.1539
821.00,0.1547
820.00,0.1555
819.00,0.1564
818.00,0.1574
817.00,0.1585
816.00,0.1598
815.00,0.1612
814.00,0.1628
813.00,0.1645
812.00,0.1663
811.00,0.1682
810.00,0.1703
809.00,0.1723
808.00,0.1744
807.00,0.1766
806.00,0.1788
805.00,0.1812
804.00,0.1836
803.00,0.1861
802.00,0.1887
801.00,0.1915
800.00,0.1945
799.00,0.1975
798.00,0.2008
797.00,0.2042
796.00,0.2077
795.00,0.2114
794.00,0.2153
793.00,0.2194
792.00,0.2236
791.00,0.2281
790.00,0.2327
789.00,0.2374
788.00,0.2422
787.00,0.2471
786.00,0.2520
785.00,0.2567
784.00,0.2612
783.00,0.2654
782.00,0.2694
781.00,0.2729
780.00,0.2757
779.00,0.2778
778.00,0.2791
777.00,0.2795
776.00,0.2790
775.00,0.2775
774.00,0.2750
773.00,0.2719
772.00,0.2686
771.00,0.2656
770.00,0.2629
769.00,0.2593
768.00,0.2537
767.00,0.2455
766.00,0.2358
765.00,0.2262
764.00,0.2178
763.00,0.2109
762.00,0.2051
761.00,0.2001
760.00,0.1957
759.00,0.1917
758.00,0.1881
757.00,0.1846
756.00,0.1815
755.00,0.1786
754.00,0.1759
753.00,0.1734
752.00,0.1711
751.00,0.1689
750.00,0.1670
749.00,0.1652
748.00,0.1635
747.00,0.1620
746.00,0.1606
745.00,0.1593
744.00,0.1583
743.00,0.1573
742.00,0.1565
741.00,0.1557
740.00,0.1550
739.00,0.1545
738.00,0.1540
737.00,0.1535
736.00,0.1530
735.00,0.1526
734.00,0.1522
733.00,0.1519
732.00,0.1517
731.00,0.1514
730.00,0.1512
729.00,0.1510
728.00,0.1508
727.00,0.1506
726.00,0.1504
725.00,0.1501
724.00,0.1499
723.00,0.1497
722.00,0.1494
721.00,0.1492
720.00,0.1490
719.00,0.1488
718.00,0.1486
717.00,0.1485
716.00,0.1483
715.00,0.1482
714.00,0.1481
713.00,0.1480
712.00,0.1479
711.00,0.1477
710.00,0.1475
709.00,0.1473
708.00,0.1471
707.00,0.1469
706.00,0.1468
705.00,0.1466
704.00,0.1465
703.00,0.1464
702.00,0.1464
701.00,0.1464
700.00,0.1464
699.00,0.1463
698.00,0.1461
697.00,0.1459
696.00,0.1457
695.00,0.1456
694.00,0.1456
693.00,0.1457
692.00,0.1457
691.00,0.1456
690.00,0.1456
689.00,0.1456
688.00,0.1457
687.00,0.1457
686.00,0.1457
685.00,0.1457
684.00,0.1457
683.00,0.1458
682.00,0.1459
681.00,0.1459
680.00,0.1460
679.00,0.1460
678.00,0.1460
677.00,0.1462
676.00,0.1464
675.00,0.1464
674.00,0.1465
673.00,0.1465
672.00,0.1466
671.00,0.1468
670.00,0.1473
669.00,0.1479
668.00,0.1485
667.00,0.1487
666.00,0.1485
665.00,0.1483
664.00,0.1482
663.00,0.1483
662.00,0.1485
661.00,0.1489
660.00,0.1493
659.00,0.1499
658.00,0.1504
657.00,0.1510
656.00,0.1516
655.00,0.1522
654.00,0.1528
653.00,0.1534
652.00,0.1541
651.00,0.1547
650.00,0.1555
649.00,0.1562
648.00,0.1571
647.00,0.1581
646.00,0.1591
645.00,0.1601
644.00,0.1612
643.00,0.1622
642.00,0.1632
641.00,0.1643
640.00,0.1652
639.00,0.1661
638.00,0.1666
637.00,0.1668
636.00,0.1666
635.00,0.1661
634.00,0.1655
633.00,0.1647
632.00,0.1641
631.00,0.1634
630.00,0.1629
629.00,0.1624
628.00,0.1620
627.00,0.1619
626.00,0.1619
625.00,0.1621
624.00,0.1623
623.00,0.1628
622.00,0.1633
621.00,0.1637
620.00,0.1638
619.00,0.1635
618.00,0.1629
617.00,0.1619
616.00,0.1609
615.00,0.1598
614.00,0.1588
613.00,0.1580
612.00,0.1573
611.00,0.1567
610.00,0.1563
609.00,0.1560
608.00,0.1557
607.00,0.1555
606.00,0.1553
605.00,0.1551
604.00,0.1548
603.00,0.1544
602.00,0.1538
601.00,0.1530
600.00,0.1523
599.00,0.1518
598.00,0.1514
597.00,0.1511
596.00,0.1509
595.00,0.1507
594.00,0.1505
593.00,0.1502
592.00,0.1499
591.00,0.1497
590.00,0.1496
589.00,0.1495
588.00,0.1493
587.00,0.1491
586.00,0.1488
585.00,0.1485
584.00,0.1484
583.00,0.1484
582.00,0.1485
581.00,0.1485
580.00,0.1484
579.00,0.1483
578.00,0.1483
577.00,0.1483
576.00,0.1483
575.00,0.1483
574.00,0.1484
573.00,0.1484
572.00,0.1484
571.00,0.1484
570.00,0.1486
569.00,0.1488
568.00,0.1489
567.00,0.1487
566.00,0.1485
565.00,0.1485
564.00,0.1485
563.00,0.1488
562.00,0.1491
561.00,0.1494
560.00,0.1496
559.00,0.1498
558.00,0.1501
557.00,0.1505
556.00,0.1509
555.00,0.1514
554.00,0.1519
553.00,0.1526
552.00,0.1534
551.00,0.1544
550.00,0.1554
549.00,0.1563
548.00,0.1571
547.00,0.1578
546.00,0.1586
545.00,0.1595
544.00,0.1605
543.00,0.1616
542.00,0.1626
541.00,0.1636
540.00,0.1649
539.00,0.1665
538.00,0.1686
537.00,0.1713
536.00,0.1748
535.00,0.1791
534.00,0.1841
533.00,0.1897
532.00,0.1954
531.00,0.2005
530.00,0.2036
529.00,0.2041
528.00,0.2020
527.00,0.1980
526.00,0.1936
525.00,0.1896
524.00,0.1868
523.00,0.1852
522.00,0.1846
521.00,0.1850
520.00,0.1860
519.00,0.1877
518.00,0.1901
517.00,0.1931
516.00,0.1968
515.00,0.2007
514.00,0.2046
513.00,0.2082
512.00,0.2113
511.00,0.2134
510.00,0.2142
509.00,0.2135
508.00,0.2113
507.00,0.2077
506.00,0.2029
505.00,0.1973
504.00,0.1914
503.00,0.1857
502.00,0.1805
501.00,0.1760
500.00,0.1720
499.00,0.1686
498.00,0.1656
497.00,0.1630
496.00,0.1608
495.00,0.1588
494.00,0.1572
493.00,0.1557
492.00,0.1545
491.00,0.1533
490.00,0.1520
489.00,0.1507
488.00,0.1494
487.00,0.1482
486.00,0.1471
485.00,0.1460
484.00,0.1451
483.00,0.1446
482.00,0.1446
481.00,0.1447
480.00,0.1449
479.00,0.1453
478.00,0.1455
477.00,0.1453
476.00,0.1446
475.00,0.1436
474.00,0.1429
473.00,0.1425
472.00,0.1425
471.00,0.1426
470.00,0.1425
469.00,0.1421
468.00,0.1413
467.00,0.1405
466.00,0.1397
465.00,0.1388
464.00,0.1379
463.00,0.1373
462.00,0.1372
461.00,0.1375
460.00,0.1377
459.00,0.1379
458.00,0.1378
457.00,0.1374
456.00,0.1368
455.00,0.1364
454.00,0.1361
453.00,0.1356
452.00,0.1350
451.00,0.1344
450.00,0.1340
449.00,0.1336
448.00,0.1332
447.00,0.1328
446.00,0.1327
445.00,0.1328
444.00,0.1328
443.00,0.1326
442.00,0.1323
441.00,0.1317
440.00,0.1309
439.00,0.1304
438.00,0.1304
437.00,0.1306
436.00,0.1308
435.00,0.1310
434.00,0.1313
433.00,0.1314
432.00,0.1314
431.00,0.1312
430.00,0.1310
429.00,0.1306
428.00,0.1300
427.00,0.1293
426.00,0.1288
425.00,0.1285
424.00,0.1287
423.00,0.1295
422.00,0.1307
421.00,0.1318
420.00,0.1324
419.00,0.1329
418.00,0.1336
417.00,0.1340
416.00,0.1338
415.00,0.1335
414.00,0.1338
413.00,0.1347
412.00,0.1361
411.00,0.1380
410.00,0.1403
409.00,0.1427
408.00,0.1455
407.00,0.1490
406.00,0.1535
405.00,0.1579
404.00,0.1612
403.00,0.1629
402.00,0.1630
401.00,0.1615
400.00,0.1584
