Created as New Dataset,Sample 597 By YargerLab Date Thursday, June 05 2025
cm-1,A
4000.00,0.0086
3999.00,0.0086
3998.00,0.0086
3997.00,0.0086
3996.00,0.0085
3995.00,0.0085
3994.00,0.0086
3993.00,0.0086
3992.00,0.0086
3991.00,0.0086
3990.00,0.0085
3989.00,0.0085
3988.00,0.0085
3987.00,0.0086
3986.00,0.0086
3985.00,0.0086
3984.00,0.0086
3983.00,0.0086
3982.00,0.0085
3981.00,0.0085
3980.00,0.0085
3979.00,0.0085
3978.00,0.0085
3977.00,0.0085
3976.00,0.0085
3975.00,0.0085
3974.00,0.0086
3973.00,0.0086
3972.00,0.0086
3971.00,0.0086
3970.00,0.0086
3969.00,0.0086
3968.00,0.0085
3967.00,0.0085
3966.00,0.0085
3965.00,0.0085
3964.00,0.0085
3963.00,0.0085
3962.00,0.0085
3961.00,0.0085
3960.00,0.0085
3959.00,0.0085
3958.00,0.0085
3957.00,0.0085
3956.00,0.0085
3955.00,0.0085
3954.00,0.0085
3953.00,0.0085
3952.00,0.0085
3951.00,0.0085
3950.00,0.0085
3949.00,0.0085
3948.00,0.0085
3947.00,0.0084
3946.00,0.0084
3945.00,0.0084
3944.00,0.0084
3943.00,0.0085
3942.00,0.0085
3941.00,0.0085
3940.00,0.0085
3939.00,0.0085
3938.00,0.0085
3937.00,0.0085
3936.00,0.0085
3935.00,0.0085
3934.00,0.0085
3933.00,0.0085
3932.00,0.0085
3931.00,0.0084
3930.00,0.0084
3929.00,0.0084
3928.00,0.0084
3927.00,0.0084
3926.00,0.0084
3925.00,0.0084
3924.00,0.0084
3923.00,0.0084
3922.00,0.0084
3921.00,0.0084
3920.00,0.0084
3919.00,0.0084
3918.00,0.0084
3917.00,0.0084
3916.00,0.0084
3915.00,0.0083
3914.00,0.0084
3913.00,0.0084
3912.00,0.0084
3911.00,0.0084
3910.00,0.0084
3909.00,0.0084
3908.00,0.0084
3907.00,0.0084
3906.00,0.0084
3905.00,0.0084
3904.00,0.0084
3903.00,0.0083
3902.00,0.0083
3901.00,0.0083
3900.00,0.0084
3899.00,0.0084
3898.00,0.0083
3897.00,0.0083
3896.00,0.0083
3895.00,0.0083
3894.00,0.0084
3893.00,0.0083
3892.00,0.0083
3891.00,0.0083
3890.00,0.0083
3889.00,0.0083
3888.00,0.0083
3887.00,0.0082
3886.00,0.0082
3885.00,0.0082
3884.00,0.0082
3883.00,0.0082
3882.00,0.0082
3881.00,0.0082
3880.00,0.0083
3879.00,0.0083
3878.00,0.0083
3877.00,0.0083
3876.00,0.0082
3875.00,0.0082
3874.00,0.0082
3873.00,0.0082
3872.00,0.0082
3871.00,0.0081
3870.00,0.0081
3869.00,0.0082
3868.00,0.0082
3867.00,0.0082
3866.00,0.0082
3865.00,0.0082
3864.00,0.0081
3863.00,0.0081
3862.00,0.0081
3861.00,0.0081
3860.00,0.0082
3859.00,0.0082
3858.00,0.0082
3857.00,0.0082
3856.00,0.0082
3855.00,0.0082
3854.00,0.0081
3853.00,0.0080
3852.00,0.0080
3851.00,0.0080
3850.00,0.0080
3849.00,0.0080
3848.00,0.0080
3847.00,0.0081
3846.00,0.0081
3845.00,0.0081
3844.00,0.0081
3843.00,0.0081
3842.00,0.0081
3841.00,0.0081
3840.00,0.0081
3839.00,0.0080
3838.00,0.0080
3837.00,0.0080
3836.00,0.0080
3835.00,0.0080
3834.00,0.0080
3833.00,0.0080
3832.00,0.0080
3831.00,0.0081
3830.00,0.0081
3829.00,0.0081
3828.00,0.0081
3827.00,0.0081
3826.00,0.0080
3825.00,0.0080
3824.00,0.0080
3823.00,0.0080
3822.00,0.0079
3821.00,0.0079
3820.00,0.0080
3819.00,0.0079
3818.00,0.0079
3817.00,0.0079
3816.00,0.0079
3815.00,0.0080
3814.00,0.0080
3813.00,0.0080
3812.00,0.0081
3811.00,0.0081
3810.00,0.0081
3809.00,0.0080
3808.00,0.0080
3807.00,0.0080
3806.00,0.0080
3805.00,0.0080
3804.00,0.0079
3803.00,0.0079
3802.00,0.0079
3801.00,0.0079
3800.00,0.0080
3799.00,0.0080
3798.00,0.0080
3797.00,0.0080
3796.00,0.0080
3795.00,0.0080
3794.00,0.0080
3793.00,0.0080
3792.00,0.0080
3791.00,0.0080
3790.00,0.0080
3789.00,0.0080
3788.00,0.0080
3787.00,0.0080
3786.00,0.0080
3785.00,0.0080
3784.00,0.0080
3783.00,0.0080
3782.00,0.0080
3781.00,0.0080
3780.00,0.0080
3779.00,0.0080
3778.00,0.0080
3777.00,0.0080
3776.00,0.0080
3775.00,0.0080
3774.00,0.0080
3773.00,0.0080
3772.00,0.0080
3771.00,0.0080
3770.00,0.0080
3769.00,0.0080
3768.00,0.0079
3767.00,0.0079
3766.00,0.0079
3765.00,0.0079
3764.00,0.0079
3763.00,0.0079
3762.00,0.0079
3761.00,0.0079
3760.00,0.0079
3759.00,0.0079
3758.00,0.0079
3757.00,0.0079
3756.00,0.0079
3755.00,0.0079
3754.00,0.0079
3753.00,0.0079
3752.00,0.0078
3751.00,0.0078
3750.00,0.0078
3749.00,0.0077
3748.00,0.0077
3747.00,0.0077
3746.00,0.0077
3745.00,0.0077
3744.00,0.0078
3743.00,0.0077
3742.00,0.0077
3741.00,0.0077
3740.00,0.0076
3739.00,0.0076
3738.00,0.0076
3737.00,0.0076
3736.00,0.0076
3735.00,0.0077
3734.00,0.0077
3733.00,0.0077
3732.00,0.0077
3731.00,0.0077
3730.00,0.0077
3729.00,0.0077
3728.00,0.0077
3727.00,0.0077
3726.00,0.0077
3725.00,0.0077
3724.00,0.0077
3723.00,0.0077
3722.00,0.0077
3721.00,0.0077
3720.00,0.0077
3719.00,0.0077
3718.00,0.0077
3717.00,0.0077
3716.00,0.0077
3715.00,0.0077
3714.00,0.0077
3713.00,0.0077
3712.00,0.0076
3711.00,0.0076
3710.00,0.0076
3709.00,0.0076
3708.00,0.0076
3707.00,0.0076
3706.00,0.0076
3705.00,0.0077
3704.00,0.0077
3703.00,0.0077
3702.00,0.0077
3701.00,0.0077
3700.00,0.0077
3699.00,0.0077
3698.00,0.0077
3697.00,0.0077
3696.00,0.0077
3695.00,0.0077
3694.00,0.0077
3693.00,0.0077
3692.00,0.0077
3691.00,0.0076
3690.00,0.0076
3689.00,0.0076
3688.00,0.0076
3687.00,0.0076
3686.00,0.0076
3685.00,0.0076
3684.00,0.0076
3683.00,0.0077
3682.00,0.0077
3681.00,0.0077
3680.00,0.0078
3679.00,0.0078
3678.00,0.0078
3677.00,0.0077
3676.00,0.0077
3675.00,0.0077
3674.00,0.0077
3673.00,0.0077
3672.00,0.0077
3671.00,0.0077
3670.00,0.0078
3669.00,0.0079
3668.00,0.0080
3667.00,0.0080
3666.00,0.0080
3665.00,0.0080
3664.00,0.0081
3663.00,0.0081
3662.00,0.0081
3661.00,0.0082
3660.00,0.0082
3659.00,0.0082
3658.00,0.0082
3657.00,0.0082
3656.00,0.0083
3655.00,0.0083
3654.00,0.0083
3653.00,0.0083
3652.00,0.0083
3651.00,0.0084
3650.00,0.0084
3649.00,0.0084
3648.00,0.0085
3647.00,0.0085
3646.00,0.0086
3645.00,0.0086
3644.00,0.0087
3643.00,0.0087
3642.00,0.0088
3641.00,0.0089
3640.00,0.0089
3639.00,0.0090
3638.00,0.0090
3637.00,0.0090
3636.00,0.0091
3635.00,0.0091
3634.00,0.0092
3633.00,0.0092
3632.00,0.0093
3631.00,0.0093
3630.00,0.0093
3629.00,0.0094
3628.00,0.0095
3627.00,0.0096
3626.00,0.0096
3625.00,0.0097
3624.00,0.0098
3623.00,0.0098
3622.00,0.0099
3621.00,0.0099
3620.00,0.0100
3619.00,0.0101
3618.00,0.0101
3617.00,0.0102
3616.00,0.0102
3615.00,0.0102
3614.00,0.0103
3613.00,0.0104
3612.00,0.0104
3611.00,0.0105
3610.00,0.0105
3609.00,0.0106
3608.00,0.0107
3607.00,0.0107
3606.00,0.0108
3605.00,0.0109
3604.00,0.0109
3603.00,0.0110
3602.00,0.0110
3601.00,0.0111
3600.00,0.0112
3599.00,0.0112
3598.00,0.0113
3597.00,0.0113
3596.00,0.0114
3595.00,0.0115
3594.00,0.0116
3593.00,0.0116
3592.00,0.0117
3591.00,0.0117
3590.00,0.0118
3589.00,0.0118
3588.00,0.0119
3587.00,0.0121
3586.00,0.0122
3585.00,0.0123
3584.00,0.0123
3583.00,0.0124
3582.00,0.0124
3581.00,0.0125
3580.00,0.0126
3579.00,0.0126
3578.00,0.0127
3577.00,0.0128
3576.00,0.0129
3575.00,0.0129
3574.00,0.0130
3573.00,0.0131
3572.00,0.0132
3571.00,0.0132
3570.00,0.0132
3569.00,0.0133
3568.00,0.0134
3567.00,0.0135
3566.00,0.0137
3565.00,0.0138
3564.00,0.0138
3563.00,0.0139
3562.00,0.0140
3561.00,0.0141
3560.00,0.0142
3559.00,0.0143
3558.00,0.0144
3557.00,0.0145
3556.00,0.0146
3555.00,0.0146
3554.00,0.0147
3553.00,0.0148
3552.00,0.0148
3551.00,0.0149
3550.00,0.0150
3549.00,0.0150
3548.00,0.0151
3547.00,0.0152
3546.00,0.0154
3545.00,0.0155
3544.00,0.0156
3543.00,0.0157
3542.00,0.0157
3541.00,0.0158
3540.00,0.0158
3539.00,0.0159
3538.00,0.0160
3537.00,0.0161
3536.00,0.0162
3535.00,0.0163
3534.00,0.0164
3533.00,0.0164
3532.00,0.0165
3531.00,0.0165
3530.00,0.0166
3529.00,0.0167
3528.00,0.0168
3527.00,0.0169
3526.00,0.0170
3525.00,0.0171
3524.00,0.0172
3523.00,0.0173
3522.00,0.0174
3521.00,0.0175
3520.00,0.0176
3519.00,0.0176
3518.00,0.0177
3517.00,0.0178
3516.00,0.0179
3515.00,0.0180
3514.00,0.0181
3513.00,0.0182
3512.00,0.0182
3511.00,0.0183
3510.00,0.0184
3509.00,0.0185
3508.00,0.0186
3507.00,0.0187
3506.00,0.0187
3505.00,0.0188
3504.00,0.0189
3503.00,0.0190
3502.00,0.0191
3501.00,0.0193
3500.00,0.0194
3499.00,0.0195
3498.00,0.0196
3497.00,0.0197
3496.00,0.0198
3495.00,0.0199
3494.00,0.0200
3493.00,0.0201
3492.00,0.0202
3491.00,0.0203
3490.00,0.0204
3489.00,0.0205
3488.00,0.0206
3487.00,0.0208
3486.00,0.0209
3485.00,0.0210
3484.00,0.0211
3483.00,0.0212
3482.00,0.0213
3481.00,0.0214
3480.00,0.0216
3479.00,0.0217
3478.00,0.0217
3477.00,0.0218
3476.00,0.0220
3475.00,0.0221
3474.00,0.0222
3473.00,0.0223
3472.00,0.0225
3471.00,0.0226
3470.00,0.0228
3469.00,0.0229
3468.00,0.0231
3467.00,0.0232
3466.00,0.0234
3465.00,0.0235
3464.00,0.0237
3463.00,0.0239
3462.00,0.0241
3461.00,0.0244
3460.00,0.0246
3459.00,0.0249
3458.00,0.0252
3457.00,0.0255
3456.00,0.0258
3455.00,0.0261
3454.00,0.0264
3453.00,0.0267
3452.00,0.0269
3451.00,0.0271
3450.00,0.0273
3449.00,0.0274
3448.00,0.0275
3447.00,0.0276
3446.00,0.0277
3445.00,0.0277
3444.00,0.0276
3443.00,0.0276
3442.00,0.0276
3441.00,0.0275
3440.00,0.0275
3439.00,0.0275
3438.00,0.0274
3437.00,0.0274
3436.00,0.0274
3435.00,0.0274
3434.00,0.0274
3433.00,0.0275
3432.00,0.0276
3431.00,0.0276
3430.00,0.0277
3429.00,0.0278
3428.00,0.0279
3427.00,0.0280
3426.00,0.0281
3425.00,0.0282
3424.00,0.0283
3423.00,0.0284
3422.00,0.0285
3421.00,0.0287
3420.00,0.0288
3419.00,0.0290
3418.00,0.0291
3417.00,0.0292
3416.00,0.0294
3415.00,0.0295
3414.00,0.0296
3413.00,0.0298
3412.00,0.0299
3411.00,0.0300
3410.00,0.0301
3409.00,0.0303
3408.00,0.0304
3407.00,0.0305
3406.00,0.0306
3405.00,0.0308
3404.00,0.0309
3403.00,0.0310
3402.00,0.0312
3401.00,0.0313
3400.00,0.0315
3399.00,0.0316
3398.00,0.0317
3397.00,0.0319
3396.00,0.0320
3395.00,0.0321
3394.00,0.0322
3393.00,0.0323
3392.00,0.0324
3391.00,0.0326
3390.00,0.0327
3389.00,0.0329
3388.00,0.0330
3387.00,0.0331
3386.00,0.0333
3385.00,0.0334
3384.00,0.0335
3383.00,0.0337
3382.00,0.0338
3381.00,0.0340
3380.00,0.0341
3379.00,0.0343
3378.00,0.0344
3377.00,0.0346
3376.00,0.0347
3375.00,0.0349
3374.00,0.0350
3373.00,0.0352
3372.00,0.0354
3371.00,0.0355
3370.00,0.0357
3369.00,0.0358
3368.00,0.0360
3367.00,0.0362
3366.00,0.0364
3365.00,0.0366
3364.00,0.0368
3363.00,0.0370
3362.00,0.0373
3361.00,0.0375
3360.00,0.0377
3359.00,0.0379
3358.00,0.0381
3357.00,0.0383
3356.00,0.0385
3355.00,0.0387
3354.00,0.0389
3353.00,0.0391
3352.00,0.0393
3351.00,0.0395
3350.00,0.0397
3349.00,0.0400
3348.00,0.0402
3347.00,0.0404
3346.00,0.0407
3345.00,0.0409
3344.00,0.0411
3343.00,0.0413
3342.00,0.0415
3341.00,0.0417
3340.00,0.0419
3339.00,0.0421
3338.00,0.0424
3337.00,0.0426
3336.00,0.0429
3335.00,0.0431
3334.00,0.0434
3333.00,0.0436
3332.00,0.0438
3331.00,0.0441
3330.00,0.0443
3329.00,0.0445
3328.00,0.0447
3327.00,0.0449
3326.00,0.0452
3325.00,0.0455
3324.00,0.0458
3323.00,0.0461
3322.00,0.0463
3321.00,0.0466
3320.00,0.0468
3319.00,0.0470
3318.00,0.0472
3317.00,0.0474
3316.00,0.0477
3315.00,0.0479
3314.00,0.0481
3313.00,0.0483
3312.00,0.0485
3311.00,0.0487
3310.00,0.0488
3309.00,0.0490
3308.00,0.0492
3307.00,0.0494
3306.00,0.0496
3305.00,0.0499
3304.00,0.0501
3303.00,0.0504
3302.00,0.0506
3301.00,0.0508
3300.00,0.0510
3299.00,0.0511
3298.00,0.0512
3297.00,0.0513
3296.00,0.0514
3295.00,0.0516
3294.00,0.0517
3293.00,0.0518
3292.00,0.0520
3291.00,0.0522
3290.00,0.0523
3289.00,0.0524
3288.00,0.0525
3287.00,0.0526
3286.00,0.0526
3285.00,0.0527
3284.00,0.0527
3283.00,0.0527
3282.00,0.0528
3281.00,0.0528
3280.00,0.0527
3279.00,0.0527
3278.00,0.0526
3277.00,0.0525
3276.00,0.0523
3275.00,0.0522
3274.00,0.0521
3273.00,0.0519
3272.00,0.0518
3271.00,0.0517
3270.00,0.0516
3269.00,0.0515
3268.00,0.0514
3267.00,0.0513
3266.00,0.0511
3265.00,0.0509
3264.00,0.0507
3263.00,0.0505
3262.00,0.0503
3261.00,0.0501
3260.00,0.0499
3259.00,0.0496
3258.00,0.0493
3257.00,0.0491
3256.00,0.0488
3255.00,0.0486
3254.00,0.0485
3253.00,0.0483
3252.00,0.0481
3251.00,0.0479
3250.00,0.0476
3249.00,0.0474
3248.00,0.0471
3247.00,0.0469
3246.00,0.0467
3245.00,0.0465
3244.00,0.0464
3243.00,0.0462
3242.00,0.0460
3241.00,0.0458
3240.00,0.0456
3239.00,0.0454
3238.00,0.0453
3237.00,0.0451
3236.00,0.0448
3235.00,0.0446
3234.00,0.0445
3233.00,0.0444
3232.00,0.0443
3231.00,0.0443
3230.00,0.0441
3229.00,0.0440
3228.00,0.0439
3227.00,0.0437
3226.00,0.0436
3225.00,0.0434
3224.00,0.0433
3223.00,0.0432
3222.00,0.0431
3221.00,0.0430
3220.00,0.0429
3219.00,0.0428
3218.00,0.0427
3217.00,0.0426
3216.00,0.0425
3215.00,0.0424
3214.00,0.0423
3213.00,0.0422
3212.00,0.0421
3211.00,0.0419
3210.00,0.0418
3209.00,0.0417
3208.00,0.0417
3207.00,0.0415
3206.00,0.0414
3205.00,0.0413
3204.00,0.0412
3203.00,0.0411
3202.00,0.0409
3201.00,0.0408
3200.00,0.0406
3199.00,0.0405
3198.00,0.0404
3197.00,0.0403
3196.00,0.0401
3195.00,0.0400
3194.00,0.0398
3193.00,0.0396
3192.00,0.0395
3191.00,0.0393
3190.00,0.0392
3189.00,0.0391
3188.00,0.0389
3187.00,0.0388
3186.00,0.0387
3185.00,0.0385
3184.00,0.0384
3183.00,0.0382
3182.00,0.0380
3181.00,0.0378
3180.00,0.0377
3179.00,0.0375
3178.00,0.0373
3177.00,0.0372
3176.00,0.0370
3175.00,0.0368
3174.00,0.0367
3173.00,0.0365
3172.00,0.0364
3171.00,0.0362
3170.00,0.0360
3169.00,0.0359
3168.00,0.0357
3167.00,0.0355
3166.00,0.0354
3165.00,0.0352
3164.00,0.0350
3163.00,0.0349
3162.00,0.0347
3161.00,0.0345
3160.00,0.0344
3159.00,0.0342
3158.00,0.0341
3157.00,0.0339
3156.00,0.0337
3155.00,0.0336
3154.00,0.0334
3153.00,0.0333
3152.00,0.0332
3151.00,0.0331
3150.00,0.0330
3149.00,0.0329
3148.00,0.0328
3147.00,0.0327
3146.00,0.0326
3145.00,0.0325
3144.00,0.0323
3143.00,0.0322
3142.00,0.0320
3141.00,0.0319
3140.00,0.0318
3139.00,0.0317
3138.00,0.0317
3137.00,0.0316
3136.00,0.0316
3135.00,0.0315
3134.00,0.0314
3133.00,0.0313
3132.00,0.0312
3131.00,0.0311
3130.00,0.0310
3129.00,0.0309
3128.00,0.0309
3127.00,0.0308
3126.00,0.0308
3125.00,0.0307
3124.00,0.0306
3123.00,0.0306
3122.00,0.0305
3121.00,0.0304
3120.00,0.0303
3119.00,0.0303
3118.00,0.0303
3117.00,0.0303
3116.00,0.0303
3115.00,0.0304
3114.00,0.0304
3113.00,0.0304
3112.00,0.0305
3111.00,0.0304
3110.00,0.0304
3109.00,0.0304
3108.00,0.0304
3107.00,0.0305
3106.00,0.0305
3105.00,0.0306
3104.00,0.0306
3103.00,0.0306
3102.00,0.0306
3101.00,0.0306
3100.00,0.0306
3099.00,0.0307
3098.00,0.0308
3097.00,0.0309
3096.00,0.0309
3095.00,0.0310
3094.00,0.0310
3093.00,0.0310
3092.00,0.0310
3091.00,0.0310
3090.00,0.0311
3089.00,0.0311
3088.00,0.0312
3087.00,0.0312
3086.00,0.0312
3085.00,0.0312
3084.00,0.0313
3083.00,0.0313
3082.00,0.0313
3081.00,0.0313
3080.00,0.0314
3079.00,0.0314
3078.00,0.0315
3077.00,0.0316
3076.00,0.0317
3075.00,0.0318
3074.00,0.0319
3073.00,0.0319
3072.00,0.0319
3071.00,0.0319
3070.00,0.0319
3069.00,0.0318
3068.00,0.0318
3067.00,0.0318
3066.00,0.0318
3065.00,0.0318
3064.00,0.0318
3063.00,0.0317
3062.00,0.0317
3061.00,0.0316
3060.00,0.0315
3059.00,0.0314
3058.00,0.0312
3057.00,0.0311
3056.00,0.0310
3055.00,0.0309
3054.00,0.0308
3053.00,0.0306
3052.00,0.0305
3051.00,0.0304
3050.00,0.0303
3049.00,0.0302
3048.00,0.0301
3047.00,0.0300
3046.00,0.0298
3045.00,0.0297
3044.00,0.0295
3043.00,0.0294
3042.00,0.0294
3041.00,0.0293
3040.00,0.0292
3039.00,0.0291
3038.00,0.0290
3037.00,0.0289
3036.00,0.0287
3035.00,0.0286
3034.00,0.0285
3033.00,0.0284
3032.00,0.0283
3031.00,0.0283
3030.00,0.0282
3029.00,0.0281
3028.00,0.0280
3027.00,0.0278
3026.00,0.0277
3025.00,0.0276
3024.00,0.0274
3023.00,0.0273
3022.00,0.0272
3021.00,0.0271
3020.00,0.0269
3019.00,0.0268
3018.00,0.0266
3017.00,0.0265
3016.00,0.0263
3015.00,0.0262
3014.00,0.0261
3013.00,0.0260
3012.00,0.0259
3011.00,0.0259
3010.00,0.0259
3009.00,0.0259
3008.00,0.0258
3007.00,0.0257
3006.00,0.0256
3005.00,0.0255
3004.00,0.0255
3003.00,0.0254
3002.00,0.0254
3001.00,0.0253
3000.00,0.0253
2999.00,0.0253
2998.00,0.0253
2997.00,0.0254
2996.00,0.0255
2995.00,0.0256
2994.00,0.0257
2993.00,0.0259
2992.00,0.0261
2991.00,0.0263
2990.00,0.0265
2989.00,0.0267
2988.00,0.0270
2987.00,0.0272
2986.00,0.0274
2985.00,0.0276
2984.00,0.0277
2983.00,0.0278
2982.00,0.0280
2981.00,0.0283
2980.00,0.0287
2979.00,0.0292
2978.00,0.0297
2977.00,0.0302
2976.00,0.0306
2975.00,0.0310
2974.00,0.0313
2973.00,0.0317
2972.00,0.0320
2971.00,0.0323
2970.00,0.0326
2969.00,0.0330
2968.00,0.0333
2967.00,0.0336
2966.00,0.0338
2965.00,0.0341
2964.00,0.0343
2963.00,0.0345
2962.00,0.0346
2961.00,0.0348
2960.00,0.0348
2959.00,0.0348
2958.00,0.0348
2957.00,0.0347
2956.00,0.0345
2955.00,0.0344
2954.00,0.0342
2953.00,0.0340
2952.00,0.0339
2951.00,0.0337
2950.00,0.0335
2949.00,0.0334
2948.00,0.0333
2947.00,0.0332
2946.00,0.0332
2945.00,0.0333
2944.00,0.0335
2943.00,0.0336
2942.00,0.0338
2941.00,0.0341
2940.00,0.0343
2939.00,0.0346
2938.00,0.0348
2937.00,0.0351
2936.00,0.0353
2935.00,0.0355
2934.00,0.0357
2933.00,0.0359
2932.00,0.0360
2931.00,0.0362
2930.00,0.0363
2929.00,0.0363
2928.00,0.0364
2927.00,0.0364
2926.00,0.0364
2925.00,0.0363
2924.00,0.0362
2923.00,0.0360
2922.00,0.0358
2921.00,0.0356
2920.00,0.0354
2919.00,0.0351
2918.00,0.0348
2917.00,0.0344
2916.00,0.0339
2915.00,0.0334
2914.00,0.0329
2913.00,0.0324
2912.00,0.0320
2911.00,0.0315
2910.00,0.0311
2909.00,0.0306
2908.00,0.0303
2907.00,0.0299
2906.00,0.0296
2905.00,0.0293
2904.00,0.0290
2903.00,0.0287
2902.00,0.0285
2901.00,0.0283
2900.00,0.0281
2899.00,0.0279
2898.00,0.0277
2897.00,0.0275
2896.00,0.0274
2895.00,0.0272
2894.00,0.0271
2893.00,0.0270
2892.00,0.0269
2891.00,0.0268
2890.00,0.0267
2889.00,0.0266
2888.00,0.0266
2887.00,0.0266
2886.00,0.0267
2885.00,0.0267
2884.00,0.0268
2883.00,0.0269
2882.00,0.0270
2881.00,0.0272
2880.00,0.0273
2879.00,0.0275
2878.00,0.0276
2877.00,0.0277
2876.00,0.0278
2875.00,0.0278
2874.00,0.0278
2873.00,0.0278
2872.00,0.0277
2871.00,0.0276
2870.00,0.0274
2869.00,0.0272
2868.00,0.0269
2867.00,0.0266
2866.00,0.0263
2865.00,0.0261
2864.00,0.0259
2863.00,0.0257
2862.00,0.0255
2861.00,0.0254
2860.00,0.0253
2859.00,0.0252
2858.00,0.0251
2857.00,0.0250
2856.00,0.0249
2855.00,0.0248
2854.00,0.0247
2853.00,0.0245
2852.00,0.0244
2851.00,0.0243
2850.00,0.0240
2849.00,0.0238
2848.00,0.0235
2847.00,0.0233
2846.00,0.0230
2845.00,0.0227
2844.00,0.0225
2843.00,0.0223
2842.00,0.0221
2841.00,0.0219
2840.00,0.0218
2839.00,0.0216
2838.00,0.0215
2837.00,0.0214
2836.00,0.0213
2835.00,0.0212
2834.00,0.0212
2833.00,0.0211
2832.00,0.0210
2831.00,0.0210
2830.00,0.0208
2829.00,0.0207
2828.00,0.0206
2827.00,0.0205
2826.00,0.0203
2825.00,0.0202
2824.00,0.0202
2823.00,0.0201
2822.00,0.0200
2821.00,0.0200
2820.00,0.0199
2819.00,0.0198
2818.00,0.0198
2817.00,0.0197
2816.00,0.0197
2815.00,0.0196
2814.00,0.0196
2813.00,0.0195
2812.00,0.0194
2811.00,0.0193
2810.00,0.0193
2809.00,0.0192
2808.00,0.0192
2807.00,0.0192
2806.00,0.0191
2805.00,0.0190
2804.00,0.0190
2803.00,0.0190
2802.00,0.0189
2801.00,0.0189
2800.00,0.0188
2799.00,0.0188
2798.00,0.0187
2797.00,0.0186
2796.00,0.0186
2795.00,0.0185
2794.00,0.0185
2793.00,0.0185
2792.00,0.0184
2791.00,0.0184
2790.00,0.0183
2789.00,0.0183
2788.00,0.0182
2787.00,0.0182
2786.00,0.0182
2785.00,0.0181
2784.00,0.0181
2783.00,0.0180
2782.00,0.0180
2781.00,0.0180
2780.00,0.0179
2779.00,0.0179
2778.00,0.0179
2777.00,0.0178
2776.00,0.0178
2775.00,0.0177
2774.00,0.0177
2773.00,0.0177
2772.00,0.0176
2771.00,0.0176
2770.00,0.0176
2769.00,0.0175
2768.00,0.0175
2767.00,0.0174
2766.00,0.0174
2765.00,0.0174
2764.00,0.0173
2763.00,0.0173
2762.00,0.0173
2761.00,0.0172
2760.00,0.0172
2759.00,0.0172
2758.00,0.0171
2757.00,0.0171
2756.00,0.0171
2755.00,0.0170
2754.00,0.0170
2753.00,0.0169
2752.00,0.0169
2751.00,0.0168
2750.00,0.0168
2749.00,0.0168
2748.00,0.0167
2747.00,0.0167
2746.00,0.0167
2745.00,0.0166
2744.00,0.0166
2743.00,0.0166
2742.00,0.0166
2741.00,0.0165
2740.00,0.0165
2739.00,0.0165
2738.00,0.0164
2737.00,0.0164
2736.00,0.0164
2735.00,0.0163
2734.00,0.0163
2733.00,0.0163
2732.00,0.0163
2731.00,0.0162
2730.00,0.0162
2729.00,0.0161
2728.00,0.0160
2727.00,0.0160
2726.00,0.0160
2725.00,0.0159
2724.00,0.0159
2723.00,0.0158
2722.00,0.0158
2721.00,0.0158
2720.00,0.0157
2719.00,0.0157
2718.00,0.0157
2717.00,0.0156
2716.00,0.0156
2715.00,0.0156
2714.00,0.0155
2713.00,0.0155
2712.00,0.0154
2711.00,0.0154
2710.00,0.0154
2709.00,0.0154
2708.00,0.0153
2707.00,0.0153
2706.00,0.0153
2705.00,0.0153
2704.00,0.0152
2703.00,0.0152
2702.00,0.0151
2701.00,0.0151
2700.00,0.0151
2699.00,0.0151
2698.00,0.0150
2697.00,0.0150
2696.00,0.0150
2695.00,0.0150
2694.00,0.0150
2693.00,0.0150
2692.00,0.0149
2691.00,0.0149
2690.00,0.0149
2689.00,0.0149
2688.00,0.0148
2687.00,0.0148
2686.00,0.0148
2685.00,0.0148
2684.00,0.0147
2683.00,0.0147
2682.00,0.0147
2681.00,0.0147
2680.00,0.0147
2679.00,0.0146
2678.00,0.0146
2677.00,0.0146
2676.00,0.0145
2675.00,0.0145
2674.00,0.0145
2673.00,0.0145
2672.00,0.0145
2671.00,0.0145
2670.00,0.0144
2669.00,0.0144
2668.00,0.0145
2667.00,0.0145
2666.00,0.0145
2665.00,0.0145
2664.00,0.0146
2663.00,0.0146
2662.00,0.0146
2661.00,0.0146
2660.00,0.0146
2659.00,0.0146
2658.00,0.0146
2657.00,0.0146
2656.00,0.0146
2655.00,0.0146
2654.00,0.0146
2653.00,0.0146
2652.00,0.0146
2651.00,0.0145
2650.00,0.0145
2649.00,0.0145
2648.00,0.0145
2647.00,0.0145
2646.00,0.0144
2645.00,0.0144
2644.00,0.0144
2643.00,0.0144
2642.00,0.0143
2641.00,0.0143
2640.00,0.0143
2639.00,0.0143
2638.00,0.0142
2637.00,0.0142
2636.00,0.0142
2635.00,0.0142
2634.00,0.0141
2633.00,0.0141
2632.00,0.0141
2631.00,0.0141
2630.00,0.0141
2629.00,0.0141
2628.00,0.0141
2627.00,0.0140
2626.00,0.0140
2625.00,0.0139
2624.00,0.0139
2623.00,0.0139
2622.00,0.0138
2621.00,0.0138
2620.00,0.0138
2619.00,0.0138
2618.00,0.0138
2617.00,0.0137
2616.00,0.0137
2615.00,0.0137
2614.00,0.0136
2613.00,0.0136
2612.00,0.0136
2611.00,0.0136
2610.00,0.0135
2609.00,0.0135
2608.00,0.0135
2607.00,0.0135
2606.00,0.0134
2605.00,0.0134
2604.00,0.0134
2603.00,0.0133
2602.00,0.0133
2601.00,0.0133
2600.00,0.0133
2599.00,0.0133
2598.00,0.0132
2597.00,0.0132
2596.00,0.0131
2595.00,0.0131
2594.00,0.0131
2593.00,0.0131
2592.00,0.0130
2591.00,0.0130
2590.00,0.0130
2589.00,0.0129
2588.00,0.0129
2587.00,0.0129
2586.00,0.0128
2585.00,0.0128
2584.00,0.0128
2583.00,0.0128
2582.00,0.0128
2581.00,0.0128
2580.00,0.0127
2579.00,0.0127
2578.00,0.0127
2577.00,0.0127
2576.00,0.0127
2575.00,0.0127
2574.00,0.0127
2573.00,0.0126
2572.00,0.0125
2571.00,0.0125
2570.00,0.0125
2569.00,0.0125
2568.00,0.0125
2567.00,0.0124
2566.00,0.0124
2565.00,0.0124
2564.00,0.0124
2563.00,0.0123
2562.00,0.0123
2561.00,0.0123
2560.00,0.0123
2559.00,0.0123
2558.00,0.0123
2557.00,0.0123
2556.00,0.0123
2555.00,0.0123
2554.00,0.0123
2553.00,0.0122
2552.00,0.0122
2551.00,0.0122
2550.00,0.0122
2549.00,0.0122
2548.00,0.0122
2547.00,0.0121
2546.00,0.0121
2545.00,0.0121
2544.00,0.0120
2543.00,0.0120
2542.00,0.0120
2541.00,0.0120
2540.00,0.0119
2539.00,0.0119
2538.00,0.0119
2537.00,0.0118
2536.00,0.0118
2535.00,0.0118
2534.00,0.0118
2533.00,0.0118
2532.00,0.0117
2531.00,0.0117
2530.00,0.0117
2529.00,0.0117
2528.00,0.0116
2527.00,0.0116
2526.00,0.0115
2525.00,0.0115
2524.00,0.0115
2523.00,0.0115
2522.00,0.0115
2521.00,0.0115
2520.00,0.0115
2519.00,0.0115
2518.00,0.0115
2517.00,0.0115
2516.00,0.0115
2515.00,0.0115
2514.00,0.0115
2513.00,0.0114
2512.00,0.0114
2511.00,0.0113
2510.00,0.0113
2509.00,0.0113
2508.00,0.0113
2507.00,0.0113
2506.00,0.0112
2505.00,0.0112
2504.00,0.0112
2503.00,0.0112
2502.00,0.0112
2501.00,0.0112
2500.00,0.0112
2499.00,0.0112
2498.00,0.0112
2497.00,0.0111
2496.00,0.0111
2495.00,0.0111
2494.00,0.0110
2493.00,0.0110
2492.00,0.0110
2491.00,0.0110
2490.00,0.0110
2489.00,0.0110
2488.00,0.0110
2487.00,0.0110
2486.00,0.0110
2485.00,0.0109
2484.00,0.0109
2483.00,0.0109
2482.00,0.0109
2481.00,0.0108
2480.00,0.0108
2479.00,0.0108
2478.00,0.0108
2477.00,0.0108
2476.00,0.0108
2475.00,0.0107
2474.00,0.0107
2473.00,0.0107
2472.00,0.0107
2471.00,0.0107
2470.00,0.0107
2469.00,0.0107
2468.00,0.0107
2467.00,0.0107
2466.00,0.0107
2465.00,0.0107
2464.00,0.0107
2463.00,0.0107
2462.00,0.0107
2461.00,0.0107
2460.00,0.0107
2459.00,0.0107
2458.00,0.0107
2457.00,0.0107
2456.00,0.0107
2455.00,0.0107
2454.00,0.0107
2453.00,0.0107
2452.00,0.0106
2451.00,0.0106
2450.00,0.0106
2449.00,0.0105
2448.00,0.0105
2447.00,0.0104
2446.00,0.0104
2445.00,0.0104
2444.00,0.0104
2443.00,0.0104
2442.00,0.0104
2441.00,0.0104
2440.00,0.0103
2439.00,0.0103
2438.00,0.0102
2437.00,0.0102
2436.00,0.0102
2435.00,0.0102
2434.00,0.0102
2433.00,0.0102
2432.00,0.0102
2431.00,0.0102
2430.00,0.0102
2429.00,0.0101
2428.00,0.0101
2427.00,0.0100
2426.00,0.0100
2425.00,0.0099
2424.00,0.0099
2423.00,0.0099
2422.00,0.0098
2421.00,0.0098
2420.00,0.0098
2419.00,0.0098
2418.00,0.0098
2417.00,0.0098
2416.00,0.0098
2415.00,0.0098
2414.00,0.0098
2413.00,0.0098
2412.00,0.0098
2411.00,0.0098
2410.00,0.0098
2409.00,0.0097
2408.00,0.0096
2407.00,0.0095
2406.00,0.0094
2405.00,0.0094
2404.00,0.0094
2403.00,0.0094
2402.00,0.0094
2401.00,0.0094
2400.00,0.0095
2399.00,0.0094
2398.00,0.0094
2397.00,0.0094
2396.00,0.0094
2395.00,0.0093
2394.00,0.0093
2393.00,0.0093
2392.00,0.0093
2391.00,0.0093
2390.00,0.0092
2389.00,0.0092
2388.00,0.0091
2387.00,0.0091
2386.00,0.0090
2385.00,0.0090
2384.00,0.0089
2383.00,0.0089
2382.00,0.0088
2381.00,0.0088
2380.00,0.0087
2379.00,0.0086
2378.00,0.0086
2377.00,0.0086
2376.00,0.0086
2375.00,0.0087
2374.00,0.0087
2373.00,0.0087
2372.00,0.0087
2371.00,0.0086
2370.00,0.0086
2369.00,0.0085
2368.00,0.0085
2367.00,0.0085
2366.00,0.0086
2365.00,0.0086
2364.00,0.0087
2363.00,0.0087
2362.00,0.0087
2361.00,0.0087
2360.00,0.0087
2359.00,0.0086
2358.00,0.0086
2357.00,0.0086
2356.00,0.0087
2355.00,0.0087
2354.00,0.0086
2353.00,0.0086
2352.00,0.0086
2351.00,0.0086
2350.00,0.0086
2349.00,0.0087
2348.00,0.0087
2347.00,0.0087
2346.00,0.0087
2345.00,0.0088
2344.00,0.0088
2343.00,0.0088
2342.00,0.0088
2341.00,0.0088
2340.00,0.0089
2339.00,0.0089
2338.00,0.0089
2337.00,0.0088
2336.00,0.0088
2335.00,0.0088
2334.00,0.0088
2333.00,0.0087
2332.00,0.0087
2331.00,0.0087
2330.00,0.0088
2329.00,0.0091
2328.00,0.0095
2327.00,0.0099
2326.00,0.0102
2325.00,0.0103
2324.00,0.0101
2323.00,0.0098
2322.00,0.0096
2321.00,0.0094
2320.00,0.0093
2319.00,0.0092
2318.00,0.0092
2317.00,0.0091
2316.00,0.0091
2315.00,0.0090
2314.00,0.0090
2313.00,0.0090
2312.00,0.0089
2311.00,0.0089
2310.00,0.0089
2309.00,0.0089
2308.00,0.0089
2307.00,0.0089
2306.00,0.0090
2305.00,0.0090
2304.00,0.0091
2303.00,0.0091
2302.00,0.0091
2301.00,0.0092
2300.00,0.0092
2299.00,0.0092
2298.00,0.0092
2297.00,0.0092
2296.00,0.0093
2295.00,0.0093
2294.00,0.0094
2293.00,0.0095
2292.00,0.0096
2291.00,0.0096
2290.00,0.0097
2289.00,0.0097
2288.00,0.0098
2287.00,0.0098
2286.00,0.0098
2285.00,0.0097
2284.00,0.0096
2283.00,0.0095
2282.00,0.0095
2281.00,0.0094
2280.00,0.0094
2279.00,0.0093
2278.00,0.0093
2277.00,0.0092
2276.00,0.0092
2275.00,0.0092
2274.00,0.0091
2273.00,0.0091
2272.00,0.0091
2271.00,0.0091
2270.00,0.0091
2269.00,0.0090
2268.00,0.0089
2267.00,0.0088
2266.00,0.0087
2265.00,0.0087
2264.00,0.0087
2263.00,0.0087
2262.00,0.0087
2261.00,0.0087
2260.00,0.0088
2259.00,0.0088
2258.00,0.0088
2257.00,0.0087
2256.00,0.0086
2255.00,0.0085
2254.00,0.0084
2253.00,0.0084
2252.00,0.0084
2251.00,0.0084
2250.00,0.0085
2249.00,0.0086
2248.00,0.0087
2247.00,0.0087
2246.00,0.0088
2245.00,0.0088
2244.00,0.0088
2243.00,0.0088
2242.00,0.0087
2241.00,0.0086
2240.00,0.0085
2239.00,0.0085
2238.00,0.0085
2237.00,0.0085
2236.00,0.0085
2235.00,0.0085
2234.00,0.0085
2233.00,0.0084
2232.00,0.0084
2231.00,0.0083
2230.00,0.0083
2229.00,0.0084
2228.00,0.0085
2227.00,0.0085
2226.00,0.0086
2225.00,0.0086
2224.00,0.0084
2223.00,0.0083
2222.00,0.0081
2221.00,0.0081
2220.00,0.0081
2219.00,0.0081
2218.00,0.0081
2217.00,0.0081
2216.00,0.0081
2215.00,0.0080
2214.00,0.0081
2213.00,0.0081
2212.00,0.0082
2211.00,0.0083
2210.00,0.0083
2209.00,0.0083
2208.00,0.0083
2207.00,0.0083
2206.00,0.0083
2205.00,0.0084
2204.00,0.0084
2203.00,0.0084
2202.00,0.0083
2201.00,0.0083
2200.00,0.0083
2199.00,0.0083
2198.00,0.0082
2197.00,0.0083
2196.00,0.0084
2195.00,0.0086
2194.00,0.0087
2193.00,0.0088
2192.00,0.0088
2191.00,0.0087
2190.00,0.0086
2189.00,0.0085
2188.00,0.0086
2187.00,0.0086
2186.00,0.0086
2185.00,0.0085
2184.00,0.0083
2183.00,0.0080
2182.00,0.0077
2181.00,0.0077
2180.00,0.0078
2179.00,0.0079
2178.00,0.0078
2177.00,0.0077
2176.00,0.0076
2175.00,0.0076
2174.00,0.0078
2173.00,0.0081
2172.00,0.0084
2171.00,0.0087
2170.00,0.0088
2169.00,0.0089
2168.00,0.0090
2167.00,0.0090
2166.00,0.0091
2165.00,0.0093
2164.00,0.0096
2163.00,0.0096
2162.00,0.0089
2161.00,0.0076
2160.00,0.0060
2159.00,0.0046
2158.00,0.0041
2157.00,0.0042
2156.00,0.0047
2155.00,0.0051
2154.00,0.0054
2153.00,0.0056
2152.00,0.0058
2151.00,0.0058
2150.00,0.0058
2149.00,0.0057
2148.00,0.0057
2147.00,0.0056
2146.00,0.0056
2145.00,0.0057
2144.00,0.0059
2143.00,0.0060
2142.00,0.0061
2141.00,0.0062
2140.00,0.0062
2139.00,0.0061
2138.00,0.0060
2137.00,0.0058
2136.00,0.0057
2135.00,0.0055
2134.00,0.0054
2133.00,0.0056
2132.00,0.0058
2131.00,0.0060
2130.00,0.0061
2129.00,0.0063
2128.00,0.0064
2127.00,0.0065
2126.00,0.0067
2125.00,0.0068
2124.00,0.0069
2123.00,0.0070
2122.00,0.0071
2121.00,0.0072
2120.00,0.0073
2119.00,0.0074
2118.00,0.0075
2117.00,0.0076
2116.00,0.0077
2115.00,0.0077
2114.00,0.0077
2113.00,0.0078
2112.00,0.0078
2111.00,0.0077
2110.00,0.0077
2109.00,0.0076
2108.00,0.0076
2107.00,0.0076
2106.00,0.0076
2105.00,0.0077
2104.00,0.0078
2103.00,0.0078
2102.00,0.0077
2101.00,0.0076
2100.00,0.0076
2099.00,0.0075
2098.00,0.0073
2097.00,0.0072
2096.00,0.0070
2095.00,0.0069
2094.00,0.0070
2093.00,0.0071
2092.00,0.0073
2091.00,0.0074
2090.00,0.0075
2089.00,0.0075
2088.00,0.0075
2087.00,0.0075
2086.00,0.0075
2085.00,0.0076
2084.00,0.0077
2083.00,0.0077
2082.00,0.0078
2081.00,0.0078
2080.00,0.0078
2079.00,0.0078
2078.00,0.0078
2077.00,0.0078
2076.00,0.0078
2075.00,0.0078
2074.00,0.0078
2073.00,0.0078
2072.00,0.0077
2071.00,0.0076
2070.00,0.0075
2069.00,0.0075
2068.00,0.0075
2067.00,0.0075
2066.00,0.0074
2065.00,0.0074
2064.00,0.0074
2063.00,0.0074
2062.00,0.0074
2061.00,0.0074
2060.00,0.0074
2059.00,0.0074
2058.00,0.0073
2057.00,0.0073
2056.00,0.0073
2055.00,0.0075
2054.00,0.0078
2053.00,0.0082
2052.00,0.0085
2051.00,0.0083
2050.00,0.0079
2049.00,0.0074
2048.00,0.0072
2047.00,0.0071
2046.00,0.0072
2045.00,0.0073
2044.00,0.0074
2043.00,0.0075
2042.00,0.0076
2041.00,0.0077
2040.00,0.0078
2039.00,0.0078
2038.00,0.0076
2037.00,0.0074
2036.00,0.0072
2035.00,0.0069
2034.00,0.0067
2033.00,0.0067
2032.00,0.0067
2031.00,0.0067
2030.00,0.0066
2029.00,0.0065
2028.00,0.0066
2027.00,0.0066
2026.00,0.0065
2025.00,0.0065
2024.00,0.0065
2023.00,0.0065
2022.00,0.0064
2021.00,0.0064
2020.00,0.0064
2019.00,0.0065
2018.00,0.0065
2017.00,0.0066
2016.00,0.0066
2015.00,0.0066
2014.00,0.0065
2013.00,0.0065
2012.00,0.0065
2011.00,0.0064
2010.00,0.0063
2009.00,0.0061
2008.00,0.0058
2007.00,0.0056
2006.00,0.0056
2005.00,0.0058
2004.00,0.0060
2003.00,0.0060
2002.00,0.0060
2001.00,0.0061
2000.00,0.0062
1999.00,0.0064
1998.00,0.0065
1997.00,0.0067
1996.00,0.0069
1995.00,0.0069
1994.00,0.0069
1993.00,0.0069
1992.00,0.0069
1991.00,0.0069
1990.00,0.0069
1989.00,0.0070
1988.00,0.0071
1987.00,0.0072
1986.00,0.0073
1985.00,0.0073
1984.00,0.0075
1983.00,0.0077
1982.00,0.0079
1981.00,0.0080
1980.00,0.0078
1979.00,0.0071
1978.00,0.0064
1977.00,0.0058
1976.00,0.0056
1975.00,0.0055
1974.00,0.0054
1973.00,0.0054
1972.00,0.0055
1971.00,0.0056
1970.00,0.0056
1969.00,0.0057
1968.00,0.0058
1967.00,0.0057
1966.00,0.0055
1965.00,0.0054
1964.00,0.0055
1963.00,0.0055
1962.00,0.0054
1961.00,0.0054
1960.00,0.0055
1959.00,0.0054
1958.00,0.0053
1957.00,0.0052
1956.00,0.0053
1955.00,0.0053
1954.00,0.0055
1953.00,0.0056
1952.00,0.0057
1951.00,0.0057
1950.00,0.0056
1949.00,0.0055
1948.00,0.0055
1947.00,0.0055
1946.00,0.0056
1945.00,0.0056
1944.00,0.0057
1943.00,0.0056
1942.00,0.0056
1941.00,0.0055
1940.00,0.0055
1939.00,0.0056
1938.00,0.0056
1937.00,0.0057
1936.00,0.0057
1935.00,0.0057
1934.00,0.0057
1933.00,0.0057
1932.00,0.0057
1931.00,0.0058
1930.00,0.0058
1929.00,0.0058
1928.00,0.0058
1927.00,0.0058
1926.00,0.0057
1925.00,0.0058
1924.00,0.0058
1923.00,0.0059
1922.00,0.0059
1921.00,0.0059
1920.00,0.0060
1919.00,0.0060
1918.00,0.0060
1917.00,0.0059
1916.00,0.0059
1915.00,0.0059
1914.00,0.0059
1913.00,0.0059
1912.00,0.0060
1911.00,0.0060
1910.00,0.0060
1909.00,0.0060
1908.00,0.0061
1907.00,0.0061
1906.00,0.0061
1905.00,0.0060
1904.00,0.0060
1903.00,0.0060
1902.00,0.0060
1901.00,0.0060
1900.00,0.0060
1899.00,0.0060
1898.00,0.0060
1897.00,0.0060
1896.00,0.0061
1895.00,0.0061
1894.00,0.0060
1893.00,0.0060
1892.00,0.0060
1891.00,0.0061
1890.00,0.0061
1889.00,0.0061
1888.00,0.0061
1887.00,0.0060
1886.00,0.0060
1885.00,0.0060
1884.00,0.0061
1883.00,0.0061
1882.00,0.0060
1881.00,0.0060
1880.00,0.0060
1879.00,0.0060
1878.00,0.0060
1877.00,0.0059
1876.00,0.0059
1875.00,0.0059
1874.00,0.0059
1873.00,0.0059
1872.00,0.0061
1871.00,0.0062
1870.00,0.0062
1869.00,0.0062
1868.00,0.0061
1867.00,0.0059
1866.00,0.0059
1865.00,0.0059
1864.00,0.0059
1863.00,0.0060
1862.00,0.0060
1861.00,0.0059
1860.00,0.0059
1859.00,0.0059
1858.00,0.0059
1857.00,0.0059
1856.00,0.0059
1855.00,0.0059
1854.00,0.0059
1853.00,0.0059
1852.00,0.0059
1851.00,0.0059
1850.00,0.0059
1849.00,0.0059
1848.00,0.0061
1847.00,0.0062
1846.00,0.0062
1845.00,0.0062
1844.00,0.0061
1843.00,0.0059
1842.00,0.0058
1841.00,0.0059
1840.00,0.0059
1839.00,0.0060
1838.00,0.0060
1837.00,0.0060
1836.00,0.0060
1835.00,0.0059
1834.00,0.0060
1833.00,0.0060
1832.00,0.0062
1831.00,0.0063
1830.00,0.0062
1829.00,0.0061
1828.00,0.0061
1827.00,0.0062
1826.00,0.0062
1825.00,0.0062
1824.00,0.0062
1823.00,0.0061
1822.00,0.0060
1821.00,0.0059
1820.00,0.0059
1819.00,0.0058
1818.00,0.0057
1817.00,0.0057
1816.00,0.0058
1815.00,0.0059
1814.00,0.0059
1813.00,0.0060
1812.00,0.0062
1811.00,0.0062
1810.00,0.0062
1809.00,0.0062
1808.00,0.0062
1807.00,0.0062
1806.00,0.0062
1805.00,0.0063
1804.00,0.0064
1803.00,0.0065
1802.00,0.0065
1801.00,0.0065
1800.00,0.0064
1799.00,0.0064
1798.00,0.0063
1797.00,0.0064
1796.00,0.0065
1795.00,0.0066
1794.00,0.0066
1793.00,0.0066
1792.00,0.0066
1791.00,0.0065
1790.00,0.0064
1789.00,0.0064
1788.00,0.0065
1787.00,0.0065
1786.00,0.0066
1785.00,0.0066
1784.00,0.0066
1783.00,0.0066
1782.00,0.0067
1781.00,0.0067
1780.00,0.0067
1779.00,0.0066
1778.00,0.0066
1777.00,0.0067
1776.00,0.0068
1775.00,0.0069
1774.00,0.0069
1773.00,0.0069
1772.00,0.0068
1771.00,0.0068
1770.00,0.0068
1769.00,0.0068
1768.00,0.0069
1767.00,0.0068
1766.00,0.0068
1765.00,0.0070
1764.00,0.0071
1763.00,0.0072
1762.00,0.0072
1761.00,0.0071
1760.00,0.0071
1759.00,0.0072
1758.00,0.0072
1757.00,0.0073
1756.00,0.0073
1755.00,0.0073
1754.00,0.0074
1753.00,0.0075
1752.00,0.0076
1751.00,0.0077
1750.00,0.0078
1749.00,0.0078
1748.00,0.0079
1747.00,0.0080
1746.00,0.0080
1745.00,0.0082
1744.00,0.0083
1743.00,0.0084
1742.00,0.0085
1741.00,0.0085
1740.00,0.0086
1739.00,0.0086
1738.00,0.0086
1737.00,0.0088
1736.00,0.0089
1735.00,0.0089
1734.00,0.0088
1733.00,0.0088
1732.00,0.0091
1731.00,0.0094
1730.00,0.0096
1729.00,0.0097
1728.00,0.0098
1727.00,0.0100
1726.00,0.0101
1725.00,0.0103
1724.00,0.0106
1723.00,0.0108
1722.00,0.0110
1721.00,0.0113
1720.00,0.0117
1719.00,0.0121
1718.00,0.0124
1717.00,0.0128
1716.00,0.0133
1715.00,0.0138
1714.00,0.0144
1713.00,0.0150
1712.00,0.0157
1711.00,0.0165
1710.00,0.0174
1709.00,0.0184
1708.00,0.0196
1707.00,0.0210
1706.00,0.0225
1705.00,0.0241
1704.00,0.0256
1703.00,0.0268
1702.00,0.0281
1701.00,0.0304
1700.00,0.0333
1699.00,0.0358
1698.00,0.0374
1697.00,0.0391
1696.00,0.0414
1695.00,0.0438
1694.00,0.0457
1693.00,0.0472
1692.00,0.0486
1691.00,0.0501
1690.00,0.0518
1689.00,0.0535
1688.00,0.0549
1687.00,0.0558
1686.00,0.0569
1685.00,0.0590
1684.00,0.0623
1683.00,0.0651
1682.00,0.0669
1681.00,0.0681
1680.00,0.0694
1679.00,0.0707
1678.00,0.0719
1677.00,0.0732
1676.00,0.0752
1675.00,0.0777
1674.00,0.0800
1673.00,0.0815
1672.00,0.0828
1671.00,0.0844
1670.00,0.0867
1669.00,0.0895
1668.00,0.0919
1667.00,0.0936
1666.00,0.0947
1665.00,0.0959
1664.00,0.0976
1663.00,0.1001
1662.00,0.1029
1661.00,0.1053
1660.00,0.1071
1659.00,0.1087
1658.00,0.1101
1657.00,0.1110
1656.00,0.1114
1655.00,0.1121
1654.00,0.1148
1653.00,0.1206
1652.00,0.1254
1651.00,0.1272
1650.00,0.1272
1649.00,0.1270
1648.00,0.1279
1647.00,0.1305
1646.00,0.1335
1645.00,0.1358
1644.00,0.1370
1643.00,0.1376
1642.00,0.1382
1641.00,0.1388
1640.00,0.1393
1639.00,0.1396
1638.00,0.1396
1637.00,0.1401
1636.00,0.1418
1635.00,0.1440
1634.00,0.1451
1633.00,0.1447
1632.00,0.1436
1631.00,0.1422
1630.00,0.1409
1629.00,0.1396
1628.00,0.1384
1627.00,0.1369
1626.00,0.1351
1625.00,0.1330
1624.00,0.1310
1623.00,0.1291
1622.00,0.1272
1621.00,0.1247
1620.00,0.1217
1619.00,0.1185
1618.00,0.1154
1617.00,0.1128
1616.00,0.1106
1615.00,0.1083
1614.00,0.1056
1613.00,0.1025
1612.00,0.0993
1611.00,0.0963
1610.00,0.0935
1609.00,0.0908
1608.00,0.0882
1607.00,0.0857
1606.00,0.0834
1605.00,0.0813
1604.00,0.0793
1603.00,0.0775
1602.00,0.0760
1601.00,0.0746
1600.00,0.0733
1599.00,0.0721
1598.00,0.0712
1597.00,0.0704
1596.00,0.0697
1595.00,0.0691
1594.00,0.0687
1593.00,0.0684
1592.00,0.0682
1591.00,0.0680
1590.00,0.0680
1589.00,0.0682
1588.00,0.0682
1587.00,0.0684
1586.00,0.0686
1585.00,0.0689
1584.00,0.0692
1583.00,0.0695
1582.00,0.0700
1581.00,0.0705
1580.00,0.0708
1579.00,0.0709
1578.00,0.0712
1577.00,0.0719
1576.00,0.0731
1575.00,0.0743
1574.00,0.0751
1573.00,0.0754
1572.00,0.0756
1571.00,0.0760
1570.00,0.0772
1569.00,0.0785
1568.00,0.0795
1567.00,0.0802
1566.00,0.0809
1565.00,0.0817
1564.00,0.0825
1563.00,0.0829
1562.00,0.0829
1561.00,0.0830
1560.00,0.0843
1559.00,0.0879
1558.00,0.0915
1557.00,0.0931
1556.00,0.0937
1555.00,0.0944
1554.00,0.0956
1553.00,0.0969
1552.00,0.0980
1551.00,0.0992
1550.00,0.1007
1549.00,0.1022
1548.00,0.1033
1547.00,0.1041
1546.00,0.1050
1545.00,0.1062
1544.00,0.1075
1543.00,0.1085
1542.00,0.1095
1541.00,0.1112
1540.00,0.1138
1539.00,0.1163
1538.00,0.1176
1537.00,0.1176
1536.00,0.1171
1535.00,0.1169
1534.00,0.1179
1533.00,0.1195
1532.00,0.1207
1531.00,0.1211
1530.00,0.1210
1529.00,0.1211
1528.00,0.1215
1527.00,0.1222
1526.00,0.1231
1525.00,0.1236
1524.00,0.1237
1523.00,0.1238
1522.00,0.1248
1521.00,0.1266
1520.00,0.1279
1519.00,0.1284
1518.00,0.1287
1517.00,0.1293
1516.00,0.1300
1515.00,0.1300
1514.00,0.1293
1513.00,0.1282
1512.00,0.1270
1511.00,0.1258
1510.00,0.1242
1509.00,0.1224
1508.00,0.1210
1507.00,0.1208
1506.00,0.1208
1505.00,0.1199
1504.00,0.1181
1503.00,0.1157
1502.00,0.1133
1501.00,0.1109
1500.00,0.1087
1499.00,0.1067
1498.00,0.1047
1497.00,0.1028
1496.00,0.1009
1495.00,0.0988
1494.00,0.0964
1493.00,0.0938
1492.00,0.0912
1491.00,0.0887
1490.00,0.0864
1489.00,0.0843
1488.00,0.0821
1487.00,0.0799
1486.00,0.0777
1485.00,0.0756
1484.00,0.0736
1483.00,0.0718
1482.00,0.0703
1481.00,0.0690
1480.00,0.0679
1479.00,0.0670
1478.00,0.0662
1477.00,0.0658
1476.00,0.0655
1475.00,0.0654
1474.00,0.0655
1473.00,0.0661
1472.00,0.0670
1471.00,0.0676
1470.00,0.0679
1469.00,0.0678
1468.00,0.0675
1467.00,0.0673
1466.00,0.0672
1465.00,0.0672
1464.00,0.0674
1463.00,0.0675
1462.00,0.0675
1461.00,0.0674
1460.00,0.0674
1459.00,0.0678
1458.00,0.0688
1457.00,0.0705
1456.00,0.0721
1455.00,0.0730
1454.00,0.0733
1453.00,0.0735
1452.00,0.0738
1451.00,0.0741
1450.00,0.0745
1449.00,0.0749
1448.00,0.0754
1447.00,0.0757
1446.00,0.0757
1445.00,0.0755
1444.00,0.0751
1443.00,0.0746
1442.00,0.0740
1441.00,0.0733
1440.00,0.0724
1439.00,0.0714
1438.00,0.0705
1437.00,0.0697
1436.00,0.0690
1435.00,0.0682
1434.00,0.0672
1433.00,0.0661
1432.00,0.0650
1431.00,0.0641
1430.00,0.0633
1429.00,0.0626
1428.00,0.0620
1427.00,0.0615
1426.00,0.0611
1425.00,0.0610
1424.00,0.0610
1423.00,0.0611
1422.00,0.0611
1421.00,0.0610
1420.00,0.0614
1419.00,0.0622
1418.00,0.0631
1417.00,0.0635
1416.00,0.0637
1415.00,0.0639
1414.00,0.0641
1413.00,0.0644
1412.00,0.0648
1411.00,0.0652
1410.00,0.0657
1409.00,0.0660
1408.00,0.0663
1407.00,0.0667
1406.00,0.0672
1405.00,0.0678
1404.00,0.0684
1403.00,0.0689
1402.00,0.0692
1401.00,0.0694
1400.00,0.0698
1399.00,0.0704
1398.00,0.0709
1397.00,0.0712
1396.00,0.0714
1395.00,0.0718
1394.00,0.0722
1393.00,0.0724
1392.00,0.0724
1391.00,0.0722
1390.00,0.0720
1389.00,0.0718
1388.00,0.0717
1387.00,0.0715
1386.00,0.0713
1385.00,0.0708
1384.00,0.0701
1383.00,0.0695
1382.00,0.0689
1381.00,0.0684
1380.00,0.0679
1379.00,0.0675
1378.00,0.0670
1377.00,0.0664
1376.00,0.0658
1375.00,0.0652
1374.00,0.0647
1373.00,0.0641
1372.00,0.0635
1371.00,0.0629
1370.00,0.0623
1369.00,0.0618
1368.00,0.0612
1367.00,0.0605
1366.00,0.0597
1365.00,0.0589
1364.00,0.0581
1363.00,0.0575
1362.00,0.0569
1361.00,0.0564
1360.00,0.0559
1359.00,0.0555
1358.00,0.0552
1357.00,0.0550
1356.00,0.0549
1355.00,0.0549
1354.00,0.0549
1353.00,0.0550
1352.00,0.0550
1351.00,0.0551
1350.00,0.0552
1349.00,0.0552
1348.00,0.0552
1347.00,0.0552
1346.00,0.0551
1345.00,0.0550
1344.00,0.0549
1343.00,0.0548
1342.00,0.0548
1341.00,0.0549
1340.00,0.0550
1339.00,0.0552
1338.00,0.0553
1337.00,0.0553
1336.00,0.0553
1335.00,0.0552
1334.00,0.0550
1333.00,0.0548
1332.00,0.0545
1331.00,0.0544
1330.00,0.0542
1329.00,0.0542
1328.00,0.0542
1327.00,0.0543
1326.00,0.0545
1325.00,0.0548
1324.00,0.0551
1323.00,0.0556
1322.00,0.0560
1321.00,0.0565
1320.00,0.0569
1319.00,0.0572
1318.00,0.0574
1317.00,0.0574
1316.00,0.0574
1315.00,0.0572
1314.00,0.0571
1313.00,0.0569
1312.00,0.0567
1311.00,0.0566
1310.00,0.0565
1309.00,0.0565
1308.00,0.0564
1307.00,0.0564
1306.00,0.0564
1305.00,0.0564
1304.00,0.0563
1303.00,0.0562
1302.00,0.0560
1301.00,0.0559
1300.00,0.0557
1299.00,0.0557
1298.00,0.0557
1297.00,0.0557
1296.00,0.0558
1295.00,0.0559
1294.00,0.0560
1293.00,0.0562
1292.00,0.0564
1291.00,0.0567
1290.00,0.0570
1289.00,0.0573
1288.00,0.0577
1287.00,0.0580
1286.00,0.0583
1285.00,0.0586
1284.00,0.0589
1283.00,0.0592
1282.00,0.0595
1281.00,0.0597
1280.00,0.0598
1279.00,0.0599
1278.00,0.0598
1277.00,0.0597
1276.00,0.0595
1275.00,0.0593
1274.00,0.0592
1273.00,0.0591
1272.00,0.0591
1271.00,0.0592
1270.00,0.0594
1269.00,0.0596
1268.00,0.0599
1267.00,0.0603
1266.00,0.0607
1265.00,0.0612
1264.00,0.0616
1263.00,0.0619
1262.00,0.0623
1261.00,0.0625
1260.00,0.0628
1259.00,0.0630
1258.00,0.0632
1257.00,0.0634
1256.00,0.0637
1255.00,0.0640
1254.00,0.0644
1253.00,0.0647
1252.00,0.0651
1251.00,0.0654
1250.00,0.0658
1249.00,0.0662
1248.00,0.0667
1247.00,0.0673
1246.00,0.0680
1245.00,0.0686
1244.00,0.0690
1243.00,0.0694
1242.00,0.0696
1241.00,0.0697
1240.00,0.0697
1239.00,0.0696
1238.00,0.0695
1237.00,0.0693
1236.00,0.0692
1235.00,0.0691
1234.00,0.0690
1233.00,0.0689
1232.00,0.0688
1231.00,0.0688
1230.00,0.0688
1229.00,0.0686
1228.00,0.0684
1227.00,0.0681
1226.00,0.0677
1225.00,0.0672
1224.00,0.0666
1223.00,0.0661
1222.00,0.0656
1221.00,0.0650
1220.00,0.0645
1219.00,0.0639
1218.00,0.0633
1217.00,0.0626
1216.00,0.0619
1215.00,0.0611
1214.00,0.0604
1213.00,0.0596
1212.00,0.0590
1211.00,0.0584
1210.00,0.0579
1209.00,0.0575
1208.00,0.0572
1207.00,0.0569
1206.00,0.0565
1205.00,0.0559
1204.00,0.0550
1203.00,0.0541
1202.00,0.0531
1201.00,0.0521
1200.00,0.0511
1199.00,0.0503
1198.00,0.0495
1197.00,0.0489
1196.00,0.0483
1195.00,0.0478
1194.00,0.0474
1193.00,0.0470
1192.00,0.0466
1191.00,0.0463
1190.00,0.0461
1189.00,0.0458
1188.00,0.0455
1187.00,0.0453
1186.00,0.0451
1185.00,0.0450
1184.00,0.0449
1183.00,0.0448
1182.00,0.0449
1181.00,0.0450
1180.00,0.0451
1179.00,0.0454
1178.00,0.0458
1177.00,0.0462
1176.00,0.0468
1175.00,0.0473
1174.00,0.0479
1173.00,0.0483
1172.00,0.0486
1171.00,0.0487
1170.00,0.0486
1169.00,0.0483
1168.00,0.0479
1167.00,0.0476
1166.00,0.0473
1165.00,0.0469
1164.00,0.0467
1163.00,0.0465
1162.00,0.0465
1161.00,0.0464
1160.00,0.0464
1159.00,0.0464
1158.00,0.0464
1157.00,0.0463
1156.00,0.0462
1155.00,0.0461
1154.00,0.0459
1153.00,0.0459
1152.00,0.0458
1151.00,0.0458
1150.00,0.0458
1149.00,0.0457
1148.00,0.0453
1147.00,0.0448
1146.00,0.0442
1145.00,0.0436
1144.00,0.0430
1143.00,0.0425
1142.00,0.0421
1141.00,0.0419
1140.00,0.0417
1139.00,0.0416
1138.00,0.0415
1137.00,0.0415
1136.00,0.0415
1135.00,0.0416
1134.00,0.0418
1133.00,0.0420
1132.00,0.0421
1131.00,0.0423
1130.00,0.0425
1129.00,0.0426
1128.00,0.0428
1127.00,0.0430
1126.00,0.0432
1125.00,0.0433
1124.00,0.0433
1123.00,0.0434
1122.00,0.0436
1121.00,0.0437
1120.00,0.0438
1119.00,0.0439
1118.00,0.0441
1117.00,0.0443
1116.00,0.0444
1115.00,0.0446
1114.00,0.0448
1113.00,0.0450
1112.00,0.0451
1111.00,0.0453
1110.00,0.0455
1109.00,0.0457
1108.00,0.0459
1107.00,0.0461
1106.00,0.0463
1105.00,0.0465
1104.00,0.0466
1103.00,0.0467
1102.00,0.0469
1101.00,0.0470
1100.00,0.0471
1099.00,0.0471
1098.00,0.0471
1097.00,0.0470
1096.00,0.0470
1095.00,0.0470
1094.00,0.0470
1093.00,0.0471
1092.00,0.0471
1091.00,0.0472
1090.00,0.0473
1089.00,0.0474
1088.00,0.0476
1087.00,0.0478
1086.00,0.0481
1085.00,0.0484
1084.00,0.0486
1083.00,0.0488
1082.00,0.0491
1081.00,0.0492
1080.00,0.0493
1079.00,0.0494
1078.00,0.0495
1077.00,0.0496
1076.00,0.0496
1075.00,0.0495
1074.00,0.0495
1073.00,0.0494
1072.00,0.0492
1071.00,0.0491
1070.00,0.0490
1069.00,0.0489
1068.00,0.0487
1067.00,0.0486
1066.00,0.0485
1065.00,0.0484
1064.00,0.0483
1063.00,0.0482
1062.00,0.0482
1061.00,0.0482
1060.00,0.0482
1059.00,0.0484
1058.00,0.0486
1057.00,0.0488
1056.00,0.0490
1055.00,0.0491
1054.00,0.0492
1053.00,0.0491
1052.00,0.0488
1051.00,0.0483
1050.00,0.0479
1049.00,0.0475
1048.00,0.0472
1047.00,0.0469
1046.00,0.0467
1045.00,0.0465
1044.00,0.0462
1043.00,0.0460
1042.00,0.0458
1041.00,0.0457
1040.00,0.0455
1039.00,0.0454
1038.00,0.0454
1037.00,0.0454
1036.00,0.0454
1035.00,0.0455
1034.00,0.0455
1033.00,0.0455
1032.00,0.0453
1031.00,0.0451
1030.00,0.0447
1029.00,0.0443
1028.00,0.0438
1027.00,0.0432
1026.00,0.0427
1025.00,0.0422
1024.00,0.0417
1023.00,0.0412
1022.00,0.0409
1021.00,0.0406
1020.00,0.0402
1019.00,0.0398
1018.00,0.0395
1017.00,0.0391
1016.00,0.0387
1015.00,0.0383
1014.00,0.0380
1013.00,0.0376
1012.00,0.0371
1011.00,0.0366
1010.00,0.0362
1009.00,0.0357
1008.00,0.0351
1007.00,0.0346
1006.00,0.0342
1005.00,0.0338
1004.00,0.0335
1003.00,0.0331
1002.00,0.0329
1001.00,0.0327
1000.00,0.0325
999.00,0.0323
998.00,0.0321
997.00,0.0319
996.00,0.0316
995.00,0.0314
994.00,0.0313
993.00,0.0311
992.00,0.0309
991.00,0.0307
990.00,0.0306
989.00,0.0305
988.00,0.0303
987.00,0.0302
986.00,0.0302
985.00,0.0301
984.00,0.0299
983.00,0.0298
982.00,0.0297
981.00,0.0296
980.00,0.0294
979.00,0.0293
978.00,0.0293
977.00,0.0292
976.00,0.0291
975.00,0.0290
974.00,0.0289
973.00,0.0289
972.00,0.0288
971.00,0.0287
970.00,0.0287
969.00,0.0286
968.00,0.0285
967.00,0.0285
966.00,0.0285
965.00,0.0285
964.00,0.0285
963.00,0.0286
962.00,0.0287
961.00,0.0288
960.00,0.0287
959.00,0.0287
958.00,0.0287
957.00,0.0287
956.00,0.0286
955.00,0.0285
954.00,0.0285
953.00,0.0284
952.00,0.0284
951.00,0.0284
950.00,0.0284
949.00,0.0286
948.00,0.0287
947.00,0.0288
946.00,0.0289
945.00,0.0291
944.00,0.0292
943.00,0.0294
942.00,0.0296
941.00,0.0299
940.00,0.0300
939.00,0.0302
938.00,0.0304
937.00,0.0305
936.00,0.0307
935.00,0.0308
934.00,0.0309
933.00,0.0310
932.00,0.0310
931.00,0.0310
930.00,0.0310
929.00,0.0310
928.00,0.0310
927.00,0.0309
926.00,0.0308
925.00,0.0307
924.00,0.0306
923.00,0.0305
922.00,0.0304
921.00,0.0303
920.00,0.0302
919.00,0.0300
918.00,0.0299
917.00,0.0298
916.00,0.0296
915.00,0.0295
914.00,0.0295
913.00,0.0294
912.00,0.0292
911.00,0.0291
910.00,0.0291
909.00,0.0291
908.00,0.0291
907.00,0.0292
906.00,0.0294
905.00,0.0296
904.00,0.0297
903.00,0.0297
902.00,0.0298
901.00,0.0299
900.00,0.0298
899.00,0.0297
898.00,0.0296
897.00,0.0295
896.00,0.0293
895.00,0.0293
894.00,0.0294
893.00,0.0296
892.00,0.0298
891.00,0.0301
890.00,0.0304
889.00,0.0305
888.00,0.0303
887.00,0.0302
886.00,0.0302
885.00,0.0303
884.00,0.0302
883.00,0.0301
882.00,0.0299
881.00,0.0296
880.00,0.0293
879.00,0.0292
878.00,0.0291
877.00,0.0290
876.00,0.0289
875.00,0.0288
874.00,0.0288
873.00,0.0288
872.00,0.0288
871.00,0.0288
870.00,0.0288
869.00,0.0288
868.00,0.0288
867.00,0.0289
866.00,0.0292
865.00,0.0295
864.00,0.0298
863.00,0.0302
862.00,0.0306
861.00,0.0308
860.00,0.0310
859.00,0.0312
858.00,0.0315
857.00,0.0318
856.00,0.0321
855.00,0.0323
854.00,0.0324
853.00,0.0323
852.00,0.0323
851.00,0.0323
850.00,0.0324
849.00,0.0325
848.00,0.0326
847.00,0.0326
846.00,0.0327
845.00,0.0329
844.00,0.0330
843.00,0.0332
842.00,0.0334
841.00,0.0337
840.00,0.0339
839.00,0.0341
838.00,0.0344
837.00,0.0347
836.00,0.0349
835.00,0.0350
834.00,0.0352
833.00,0.0354
832.00,0.0355
831.00,0.0358
830.00,0.0361
829.00,0.0364
828.00,0.0367
827.00,0.0369
826.00,0.0371
825.00,0.0373
824.00,0.0374
823.00,0.0375
822.00,0.0376
821.00,0.0377
820.00,0.0378
819.00,0.0379
818.00,0.0381
817.00,0.0383
816.00,0.0384
815.00,0.0386
814.00,0.0389
813.00,0.0392
812.00,0.0395
811.00,0.0398
810.00,0.0401
809.00,0.0405
808.00,0.0408
807.00,0.0411
806.00,0.0416
805.00,0.0419
804.00,0.0422
803.00,0.0424
802.00,0.0425
801.00,0.0426
800.00,0.0427
799.00,0.0428
798.00,0.0431
797.00,0.0434
796.00,0.0436
795.00,0.0438
794.00,0.0440
793.00,0.0441
792.00,0.0441
791.00,0.0441
790.00,0.0442
789.00,0.0443
788.00,0.0443
787.00,0.0444
786.00,0.0445
785.00,0.0447
784.00,0.0448
783.00,0.0450
782.00,0.0452
781.00,0.0454
780.00,0.0455
779.00,0.0456
778.00,0.0458
777.00,0.0460
776.00,0.0462
775.00,0.0465
774.00,0.0467
773.00,0.0470
772.00,0.0472
771.00,0.0474
770.00,0.0477
769.00,0.0479
768.00,0.0481
767.00,0.0483
766.00,0.0485
765.00,0.0488
764.00,0.0489
763.00,0.0491
762.00,0.0494
761.00,0.0497
760.00,0.0499
759.00,0.0502
758.00,0.0505
757.00,0.0508
756.00,0.0511
755.00,0.0514
754.00,0.0517
753.00,0.0520
752.00,0.0522
751.00,0.0525
750.00,0.0528
749.00,0.0532
748.00,0.0534
747.00,0.0536
746.00,0.0539
745.00,0.0541
744.00,0.0543
743.00,0.0546
742.00,0.0548
741.00,0.0551
740.00,0.0553
739.00,0.0555
738.00,0.0558
737.00,0.0561
736.00,0.0564
735.00,0.0567
734.00,0.0571
733.00,0.0574
732.00,0.0576
731.00,0.0579
730.00,0.0583
729.00,0.0586
728.00,0.0589
727.00,0.0592
726.00,0.0596
725.00,0.0600
724.00,0.0603
723.00,0.0608
722.00,0.0612
721.00,0.0617
720.00,0.0622
719.00,0.0626
718.00,0.0632
717.00,0.0636
716.00,0.0641
715.00,0.0645
714.00,0.0651
713.00,0.0657
712.00,0.0663
711.00,0.0669
710.00,0.0676
709.00,0.0683
708.00,0.0689
707.00,0.0696
706.00,0.0703
705.00,0.0710
704.00,0.0716
703.00,0.0722
702.00,0.0728
701.00,0.0733
700.00,0.0736
699.00,0.0739
698.00,0.0742
697.00,0.0744
696.00,0.0744
695.00,0.0745
694.00,0.0746
693.00,0.0748
692.00,0.0750
691.00,0.0751
690.00,0.0753
689.00,0.0756
688.00,0.0759
687.00,0.0763
686.00,0.0768
685.00,0.0772
684.00,0.0775
683.00,0.0777
682.00,0.0781
681.00,0.0784
680.00,0.0787
679.00,0.0790
678.00,0.0794
677.00,0.0797
676.00,0.0800
675.00,0.0802
674.00,0.0805
673.00,0.0807
672.00,0.0808
671.00,0.0808
670.00,0.0810
669.00,0.0816
668.00,0.0827
667.00,0.0835
666.00,0.0837
665.00,0.0835
664.00,0.0833
663.00,0.0833
662.00,0.0836
661.00,0.0839
660.00,0.0840
659.00,0.0842
658.00,0.0844
657.00,0.0845
656.00,0.0846
655.00,0.0847
654.00,0.0849
653.00,0.0851
652.00,0.0852
651.00,0.0853
650.00,0.0855
649.00,0.0857
648.00,0.0857
647.00,0.0858
646.00,0.0860
645.00,0.0862
644.00,0.0863
643.00,0.0865
642.00,0.0867
641.00,0.0869
640.00,0.0870
639.00,0.0872
638.00,0.0875
637.00,0.0877
636.00,0.0879
635.00,0.0880
634.00,0.0883
633.00,0.0886
632.00,0.0888
631.00,0.0890
630.00,0.0893
629.00,0.0896
628.00,0.0897
627.00,0.0899
626.00,0.0902
625.00,0.0904
624.00,0.0905
623.00,0.0907
622.00,0.0910
621.00,0.0914
620.00,0.0916
619.00,0.0917
618.00,0.0919
617.00,0.0920
616.00,0.0921
615.00,0.0922
614.00,0.0926
613.00,0.0928
612.00,0.0929
611.00,0.0929
610.00,0.0930
609.00,0.0931
608.00,0.0931
607.00,0.0932
606.00,0.0934
605.00,0.0935
604.00,0.0936
603.00,0.0937
602.00,0.0939
601.00,0.0940
600.00,0.0939
599.00,0.0938
598.00,0.0940
597.00,0.0941
596.00,0.0942
595.00,0.0944
594.00,0.0946
593.00,0.0949
592.00,0.0950
591.00,0.0952
590.00,0.0956
589.00,0.0958
588.00,0.0958
587.00,0.0959
586.00,0.0961
585.00,0.0964
584.00,0.0966
583.00,0.0970
582.00,0.0976
581.00,0.0982
580.00,0.0988
579.00,0.0993
578.00,0.0997
577.00,0.0999
576.00,0.0996
575.00,0.0994
574.00,0.0994
573.00,0.0995
572.00,0.0994
571.00,0.0994
570.00,0.0996
569.00,0.0996
568.00,0.0995
567.00,0.0996
566.00,0.0999
565.00,0.1003
564.00,0.1005
563.00,0.1007
562.00,0.1011
561.00,0.1014
560.00,0.1015
559.00,0.1017
558.00,0.1021
557.00,0.1025
556.00,0.1030
555.00,0.1035
554.00,0.1043
553.00,0.1049
552.00,0.1052
551.00,0.1052
550.00,0.1052
549.00,0.1050
548.00,0.1046
547.00,0.1044
546.00,0.1044
545.00,0.1044
544.00,0.1043
543.00,0.1044
542.00,0.1047
541.00,0.1049
540.00,0.1050
539.00,0.1052
538.00,0.1055
537.00,0.1059
536.00,0.1060
535.00,0.1061
534.00,0.1062
533.00,0.1059
532.00,0.1054
531.00,0.1051
530.00,0.1052
529.00,0.1054
528.00,0.1055
527.00,0.1057
526.00,0.1061
525.00,0.1061
524.00,0.1059
523.00,0.1058
522.00,0.1060
521.00,0.1061
520.00,0.1057
519.00,0.1053
518.00,0.1052
517.00,0.1052
516.00,0.1050
515.00,0.1050
514.00,0.1052
513.00,0.1053
512.00,0.1052
511.00,0.1049
510.00,0.1048
509.00,0.1046
508.00,0.1044
507.00,0.1043
506.00,0.1044
505.00,0.1044
504.00,0.1042
503.00,0.1042
502.00,0.1045
501.00,0.1049
500.00,0.1048
499.00,0.1047
498.00,0.1049
497.00,0.1052
496.00,0.1055
495.00,0.1059
494.00,0.1066
493.00,0.1071
492.00,0.1071
491.00,0.1071
490.00,0.1074
489.00,0.1076
488.00,0.1075
487.00,0.1073
486.00,0.1073
485.00,0.1073
484.00,0.1069
483.00,0.1066
482.00,0.1066
481.00,0.1067
480.00,0.1067
479.00,0.1069
478.00,0.1073
477.00,0.1073
476.00,0.1068
475.00,0.1062
474.00,0.1063
473.00,0.1066
472.00,0.1066
471.00,0.1066
470.00,0.1070
469.00,0.1072
468.00,0.1069
467.00,0.1066
466.00,0.1067
465.00,0.1066
464.00,0.1062
463.00,0.1058
462.00,0.1057
461.00,0.1055
460.00,0.1047
459.00,0.1040
458.00,0.1041
457.00,0.1042
456.00,0.1038
455.00,0.1033
454.00,0.1030
453.00,0.1028
452.00,0.1022
451.00,0.1018
450.00,0.1016
449.00,0.1012
448.00,0.1003
447.00,0.0996
446.00,0.0995
445.00,0.0996
444.00,0.0992
443.00,0.0985
442.00,0.0981
441.00,0.0975
440.00,0.0968
439.00,0.0964
438.00,0.0966
437.00,0.0967
436.00,0.0961
435.00,0.0954
434.00,0.0951
433.00,0.0947
432.00,0.0938
431.00,0.0934
430.00,0.0938
429.00,0.0940
428.00,0.0936
427.00,0.0932
426.00,0.0936
425.00,0.0941
424.00,0.0938
423.00,0.0933
422.00,0.0933
421.00,0.0931
420.00,0.0924
419.00,0.0920
418.00,0.0925
417.00,0.0925
416.00,0.0914
415.00,0.0906
414.00,0.0906
413.00,0.0904
412.00,0.0895
411.00,0.0890
410.00,0.0896
409.00,0.0899
408.00,0.0887
407.00,0.0876
406.00,0.0878
405.00,0.0880
404.00,0.0869
403.00,0.0863
402.00,0.0872
401.00,0.0878
400.00,0.0864
