Created as New Dataset,Sample 394 By YargerLab Date Thursday, December 04 2025
cm-1,A
4000.00,0.0058
3999.00,0.0058
3998.00,0.0058
3997.00,0.0058
3996.00,0.0058
3995.00,0.0058
3994.00,0.0058
3993.00,0.0058
3992.00,0.0058
3991.00,0.0058
3990.00,0.0058
3989.00,0.0058
3988.00,0.0058
3987.00,0.0058
3986.00,0.0058
3985.00,0.0058
3984.00,0.0058
3983.00,0.0058
3982.00,0.0058
3981.00,0.0058
3980.00,0.0059
3979.00,0.0059
3978.00,0.0059
3977.00,0.0059
3976.00,0.0059
3975.00,0.0059
3974.00,0.0058
3973.00,0.0058
3972.00,0.0058
3971.00,0.0058
3970.00,0.0058
3969.00,0.0058
3968.00,0.0058
3967.00,0.0058
3966.00,0.0058
3965.00,0.0058
3964.00,0.0058
3963.00,0.0058
3962.00,0.0058
3961.00,0.0058
3960.00,0.0058
3959.00,0.0058
3958.00,0.0058
3957.00,0.0058
3956.00,0.0058
3955.00,0.0058
3954.00,0.0058
3953.00,0.0058
3952.00,0.0058
3951.00,0.0058
3950.00,0.0058
3949.00,0.0058
3948.00,0.0058
3947.00,0.0058
3946.00,0.0058
3945.00,0.0058
3944.00,0.0058
3943.00,0.0058
3942.00,0.0058
3941.00,0.0058
3940.00,0.0058
3939.00,0.0058
3938.00,0.0058
3937.00,0.0058
3936.00,0.0058
3935.00,0.0058
3934.00,0.0058
3933.00,0.0058
3932.00,0.0058
3931.00,0.0058
3930.00,0.0058
3929.00,0.0058
3928.00,0.0058
3927.00,0.0058
3926.00,0.0058
3925.00,0.0058
3924.00,0.0058
3923.00,0.0058
3922.00,0.0058
3921.00,0.0058
3920.00,0.0058
3919.00,0.0058
3918.00,0.0058
3917.00,0.0058
3916.00,0.0058
3915.00,0.0058
3914.00,0.0058
3913.00,0.0058
3912.00,0.0058
3911.00,0.0058
3910.00,0.0058
3909.00,0.0058
3908.00,0.0058
3907.00,0.0058
3906.00,0.0059
3905.00,0.0059
3904.00,0.0059
3903.00,0.0059
3902.00,0.0059
3901.00,0.0059
3900.00,0.0059
3899.00,0.0059
3898.00,0.0059
3897.00,0.0059
3896.00,0.0059
3895.00,0.0058
3894.00,0.0058
3893.00,0.0058
3892.00,0.0058
3891.00,0.0058
3890.00,0.0058
3889.00,0.0059
3888.00,0.0059
3887.00,0.0058
3886.00,0.0058
3885.00,0.0058
3884.00,0.0058
3883.00,0.0058
3882.00,0.0058
3881.00,0.0057
3880.00,0.0057
3879.00,0.0057
3878.00,0.0058
3877.00,0.0058
3876.00,0.0058
3875.00,0.0058
3874.00,0.0058
3873.00,0.0059
3872.00,0.0059
3871.00,0.0058
3870.00,0.0058
3869.00,0.0058
3868.00,0.0059
3867.00,0.0059
3866.00,0.0058
3865.00,0.0058
3864.00,0.0058
3863.00,0.0058
3862.00,0.0058
3861.00,0.0058
3860.00,0.0057
3859.00,0.0058
3858.00,0.0058
3857.00,0.0059
3856.00,0.0059
3855.00,0.0059
3854.00,0.0059
3853.00,0.0059
3852.00,0.0060
3851.00,0.0060
3850.00,0.0059
3849.00,0.0058
3848.00,0.0058
3847.00,0.0057
3846.00,0.0057
3845.00,0.0057
3844.00,0.0057
3843.00,0.0058
3842.00,0.0058
3841.00,0.0058
3840.00,0.0058
3839.00,0.0058
3838.00,0.0058
3837.00,0.0059
3836.00,0.0059
3835.00,0.0059
3834.00,0.0058
3833.00,0.0058
3832.00,0.0057
3831.00,0.0057
3830.00,0.0057
3829.00,0.0057
3828.00,0.0057
3827.00,0.0057
3826.00,0.0057
3825.00,0.0058
3824.00,0.0058
3823.00,0.0057
3822.00,0.0057
3821.00,0.0057
3820.00,0.0058
3819.00,0.0058
3818.00,0.0058
3817.00,0.0057
3816.00,0.0057
3815.00,0.0057
3814.00,0.0057
3813.00,0.0057
3812.00,0.0057
3811.00,0.0057
3810.00,0.0057
3809.00,0.0057
3808.00,0.0057
3807.00,0.0057
3806.00,0.0058
3805.00,0.0058
3804.00,0.0058
3803.00,0.0058
3802.00,0.0058
3801.00,0.0058
3800.00,0.0059
3799.00,0.0058
3798.00,0.0057
3797.00,0.0057
3796.00,0.0057
3795.00,0.0057
3794.00,0.0057
3793.00,0.0056
3792.00,0.0056
3791.00,0.0056
3790.00,0.0056
3789.00,0.0056
3788.00,0.0056
3787.00,0.0056
3786.00,0.0056
3785.00,0.0056
3784.00,0.0056
3783.00,0.0056
3782.00,0.0056
3781.00,0.0056
3780.00,0.0056
3779.00,0.0057
3778.00,0.0057
3777.00,0.0057
3776.00,0.0057
3775.00,0.0057
3774.00,0.0057
3773.00,0.0056
3772.00,0.0056
3771.00,0.0056
3770.00,0.0056
3769.00,0.0056
3768.00,0.0057
3767.00,0.0057
3766.00,0.0056
3765.00,0.0057
3764.00,0.0057
3763.00,0.0057
3762.00,0.0057
3761.00,0.0057
3760.00,0.0056
3759.00,0.0057
3758.00,0.0057
3757.00,0.0057
3756.00,0.0058
3755.00,0.0058
3754.00,0.0058
3753.00,0.0058
3752.00,0.0058
3751.00,0.0059
3750.00,0.0059
3749.00,0.0059
3748.00,0.0059
3747.00,0.0059
3746.00,0.0058
3745.00,0.0057
3744.00,0.0057
3743.00,0.0057
3742.00,0.0057
3741.00,0.0057
3740.00,0.0056
3739.00,0.0057
3738.00,0.0057
3737.00,0.0057
3736.00,0.0057
3735.00,0.0057
3734.00,0.0057
3733.00,0.0056
3732.00,0.0056
3731.00,0.0056
3730.00,0.0055
3729.00,0.0055
3728.00,0.0055
3727.00,0.0055
3726.00,0.0055
3725.00,0.0055
3724.00,0.0055
3723.00,0.0054
3722.00,0.0054
3721.00,0.0054
3720.00,0.0054
3719.00,0.0054
3718.00,0.0054
3717.00,0.0055
3716.00,0.0055
3715.00,0.0055
3714.00,0.0056
3713.00,0.0056
3712.00,0.0056
3711.00,0.0055
3710.00,0.0055
3709.00,0.0055
3708.00,0.0055
3707.00,0.0055
3706.00,0.0055
3705.00,0.0055
3704.00,0.0055
3703.00,0.0054
3702.00,0.0054
3701.00,0.0054
3700.00,0.0054
3699.00,0.0054
3698.00,0.0054
3697.00,0.0054
3696.00,0.0054
3695.00,0.0054
3694.00,0.0055
3693.00,0.0055
3692.00,0.0056
3691.00,0.0056
3690.00,0.0056
3689.00,0.0056
3688.00,0.0056
3687.00,0.0056
3686.00,0.0056
3685.00,0.0055
3684.00,0.0055
3683.00,0.0055
3682.00,0.0055
3681.00,0.0056
3680.00,0.0056
3679.00,0.0056
3678.00,0.0056
3677.00,0.0056
3676.00,0.0056
3675.00,0.0057
3674.00,0.0058
3673.00,0.0058
3672.00,0.0058
3671.00,0.0058
3670.00,0.0057
3669.00,0.0057
3668.00,0.0057
3667.00,0.0057
3666.00,0.0057
3665.00,0.0057
3664.00,0.0057
3663.00,0.0058
3662.00,0.0058
3661.00,0.0059
3660.00,0.0059
3659.00,0.0059
3658.00,0.0060
3657.00,0.0060
3656.00,0.0060
3655.00,0.0061
3654.00,0.0062
3653.00,0.0062
3652.00,0.0063
3651.00,0.0063
3650.00,0.0063
3649.00,0.0063
3648.00,0.0063
3647.00,0.0063
3646.00,0.0063
3645.00,0.0063
3644.00,0.0063
3643.00,0.0063
3642.00,0.0063
3641.00,0.0063
3640.00,0.0063
3639.00,0.0064
3638.00,0.0064
3637.00,0.0065
3636.00,0.0065
3635.00,0.0065
3634.00,0.0066
3633.00,0.0067
3632.00,0.0068
3631.00,0.0068
3630.00,0.0069
3629.00,0.0069
3628.00,0.0069
3627.00,0.0070
3626.00,0.0070
3625.00,0.0070
3624.00,0.0070
3623.00,0.0071
3622.00,0.0071
3621.00,0.0072
3620.00,0.0072
3619.00,0.0073
3618.00,0.0074
3617.00,0.0075
3616.00,0.0075
3615.00,0.0075
3614.00,0.0076
3613.00,0.0076
3612.00,0.0077
3611.00,0.0078
3610.00,0.0078
3609.00,0.0078
3608.00,0.0079
3607.00,0.0079
3606.00,0.0080
3605.00,0.0080
3604.00,0.0081
3603.00,0.0081
3602.00,0.0082
3601.00,0.0083
3600.00,0.0083
3599.00,0.0084
3598.00,0.0084
3597.00,0.0084
3596.00,0.0085
3595.00,0.0085
3594.00,0.0086
3593.00,0.0087
3592.00,0.0087
3591.00,0.0088
3590.00,0.0088
3589.00,0.0088
3588.00,0.0088
3587.00,0.0089
3586.00,0.0089
3585.00,0.0090
3584.00,0.0091
3583.00,0.0092
3582.00,0.0092
3581.00,0.0093
3580.00,0.0093
3579.00,0.0094
3578.00,0.0095
3577.00,0.0096
3576.00,0.0096
3575.00,0.0097
3574.00,0.0097
3573.00,0.0098
3572.00,0.0099
3571.00,0.0100
3570.00,0.0101
3569.00,0.0101
3568.00,0.0102
3567.00,0.0102
3566.00,0.0103
3565.00,0.0104
3564.00,0.0104
3563.00,0.0105
3562.00,0.0105
3561.00,0.0106
3560.00,0.0107
3559.00,0.0107
3558.00,0.0108
3557.00,0.0109
3556.00,0.0110
3555.00,0.0111
3554.00,0.0111
3553.00,0.0112
3552.00,0.0113
3551.00,0.0114
3550.00,0.0114
3549.00,0.0115
3548.00,0.0116
3547.00,0.0117
3546.00,0.0118
3545.00,0.0119
3544.00,0.0119
3543.00,0.0120
3542.00,0.0121
3541.00,0.0121
3540.00,0.0122
3539.00,0.0123
3538.00,0.0123
3537.00,0.0124
3536.00,0.0124
3535.00,0.0125
3534.00,0.0126
3533.00,0.0126
3532.00,0.0127
3531.00,0.0128
3530.00,0.0129
3529.00,0.0130
3528.00,0.0131
3527.00,0.0132
3526.00,0.0133
3525.00,0.0134
3524.00,0.0134
3523.00,0.0135
3522.00,0.0135
3521.00,0.0136
3520.00,0.0136
3519.00,0.0137
3518.00,0.0138
3517.00,0.0139
3516.00,0.0139
3515.00,0.0140
3514.00,0.0141
3513.00,0.0142
3512.00,0.0143
3511.00,0.0144
3510.00,0.0145
3509.00,0.0146
3508.00,0.0147
3507.00,0.0148
3506.00,0.0149
3505.00,0.0150
3504.00,0.0151
3503.00,0.0151
3502.00,0.0152
3501.00,0.0153
3500.00,0.0154
3499.00,0.0155
3498.00,0.0156
3497.00,0.0158
3496.00,0.0159
3495.00,0.0160
3494.00,0.0161
3493.00,0.0162
3492.00,0.0163
3491.00,0.0164
3490.00,0.0165
3489.00,0.0167
3488.00,0.0168
3487.00,0.0169
3486.00,0.0170
3485.00,0.0172
3484.00,0.0173
3483.00,0.0175
3482.00,0.0176
3481.00,0.0177
3480.00,0.0179
3479.00,0.0180
3478.00,0.0181
3477.00,0.0182
3476.00,0.0184
3475.00,0.0185
3474.00,0.0187
3473.00,0.0189
3472.00,0.0190
3471.00,0.0192
3470.00,0.0193
3469.00,0.0194
3468.00,0.0196
3467.00,0.0197
3466.00,0.0198
3465.00,0.0200
3464.00,0.0201
3463.00,0.0203
3462.00,0.0205
3461.00,0.0206
3460.00,0.0208
3459.00,0.0210
3458.00,0.0212
3457.00,0.0213
3456.00,0.0215
3455.00,0.0216
3454.00,0.0218
3453.00,0.0220
3452.00,0.0222
3451.00,0.0224
3450.00,0.0226
3449.00,0.0227
3448.00,0.0229
3447.00,0.0231
3446.00,0.0232
3445.00,0.0234
3444.00,0.0236
3443.00,0.0238
3442.00,0.0239
3441.00,0.0241
3440.00,0.0243
3439.00,0.0245
3438.00,0.0246
3437.00,0.0248
3436.00,0.0250
3435.00,0.0252
3434.00,0.0253
3433.00,0.0255
3432.00,0.0257
3431.00,0.0258
3430.00,0.0260
3429.00,0.0262
3428.00,0.0264
3427.00,0.0265
3426.00,0.0267
3425.00,0.0269
3424.00,0.0270
3423.00,0.0272
3422.00,0.0274
3421.00,0.0275
3420.00,0.0277
3419.00,0.0278
3418.00,0.0280
3417.00,0.0281
3416.00,0.0283
3415.00,0.0285
3414.00,0.0286
3413.00,0.0288
3412.00,0.0289
3411.00,0.0290
3410.00,0.0292
3409.00,0.0293
3408.00,0.0295
3407.00,0.0296
3406.00,0.0298
3405.00,0.0299
3404.00,0.0300
3403.00,0.0301
3402.00,0.0303
3401.00,0.0304
3400.00,0.0306
3399.00,0.0307
3398.00,0.0308
3397.00,0.0309
3396.00,0.0310
3395.00,0.0312
3394.00,0.0313
3393.00,0.0314
3392.00,0.0315
3391.00,0.0316
3390.00,0.0317
3389.00,0.0318
3388.00,0.0319
3387.00,0.0321
3386.00,0.0322
3385.00,0.0323
3384.00,0.0324
3383.00,0.0325
3382.00,0.0327
3381.00,0.0328
3380.00,0.0329
3379.00,0.0331
3378.00,0.0332
3377.00,0.0333
3376.00,0.0334
3375.00,0.0335
3374.00,0.0336
3373.00,0.0338
3372.00,0.0339
3371.00,0.0340
3370.00,0.0342
3369.00,0.0343
3368.00,0.0344
3367.00,0.0346
3366.00,0.0347
3365.00,0.0349
3364.00,0.0350
3363.00,0.0351
3362.00,0.0353
3361.00,0.0354
3360.00,0.0355
3359.00,0.0357
3358.00,0.0358
3357.00,0.0360
3356.00,0.0361
3355.00,0.0362
3354.00,0.0363
3353.00,0.0364
3352.00,0.0366
3351.00,0.0367
3350.00,0.0368
3349.00,0.0370
3348.00,0.0371
3347.00,0.0373
3346.00,0.0374
3345.00,0.0376
3344.00,0.0377
3343.00,0.0379
3342.00,0.0380
3341.00,0.0381
3340.00,0.0382
3339.00,0.0384
3338.00,0.0385
3337.00,0.0387
3336.00,0.0388
3335.00,0.0390
3334.00,0.0392
3333.00,0.0393
3332.00,0.0395
3331.00,0.0396
3330.00,0.0397
3329.00,0.0399
3328.00,0.0400
3327.00,0.0402
3326.00,0.0404
3325.00,0.0406
3324.00,0.0408
3323.00,0.0409
3322.00,0.0411
3321.00,0.0413
3320.00,0.0415
3319.00,0.0417
3318.00,0.0419
3317.00,0.0421
3316.00,0.0423
3315.00,0.0425
3314.00,0.0427
3313.00,0.0428
3312.00,0.0430
3311.00,0.0432
3310.00,0.0434
3309.00,0.0436
3308.00,0.0437
3307.00,0.0439
3306.00,0.0441
3305.00,0.0444
3304.00,0.0446
3303.00,0.0448
3302.00,0.0451
3301.00,0.0454
3300.00,0.0456
3299.00,0.0458
3298.00,0.0460
3297.00,0.0462
3296.00,0.0464
3295.00,0.0467
3294.00,0.0469
3293.00,0.0471
3292.00,0.0474
3291.00,0.0476
3290.00,0.0478
3289.00,0.0480
3288.00,0.0482
3287.00,0.0484
3286.00,0.0486
3285.00,0.0488
3284.00,0.0490
3283.00,0.0491
3282.00,0.0493
3281.00,0.0494
3280.00,0.0496
3279.00,0.0497
3278.00,0.0497
3277.00,0.0498
3276.00,0.0498
3275.00,0.0498
3274.00,0.0497
3273.00,0.0497
3272.00,0.0496
3271.00,0.0495
3270.00,0.0495
3269.00,0.0494
3268.00,0.0493
3267.00,0.0492
3266.00,0.0490
3265.00,0.0488
3264.00,0.0486
3263.00,0.0484
3262.00,0.0482
3261.00,0.0479
3260.00,0.0477
3259.00,0.0475
3258.00,0.0472
3257.00,0.0470
3256.00,0.0467
3255.00,0.0465
3254.00,0.0462
3253.00,0.0460
3252.00,0.0458
3251.00,0.0456
3250.00,0.0453
3249.00,0.0451
3248.00,0.0449
3247.00,0.0447
3246.00,0.0445
3245.00,0.0443
3244.00,0.0441
3243.00,0.0439
3242.00,0.0437
3241.00,0.0436
3240.00,0.0435
3239.00,0.0433
3238.00,0.0432
3237.00,0.0430
3236.00,0.0428
3235.00,0.0426
3234.00,0.0424
3233.00,0.0423
3232.00,0.0422
3231.00,0.0421
3230.00,0.0420
3229.00,0.0419
3228.00,0.0418
3227.00,0.0417
3226.00,0.0416
3225.00,0.0415
3224.00,0.0414
3223.00,0.0413
3222.00,0.0412
3221.00,0.0411
3220.00,0.0410
3219.00,0.0409
3218.00,0.0408
3217.00,0.0407
3216.00,0.0407
3215.00,0.0407
3214.00,0.0406
3213.00,0.0405
3212.00,0.0404
3211.00,0.0403
3210.00,0.0403
3209.00,0.0402
3208.00,0.0402
3207.00,0.0401
3206.00,0.0401
3205.00,0.0401
3204.00,0.0400
3203.00,0.0400
3202.00,0.0399
3201.00,0.0398
3200.00,0.0398
3199.00,0.0397
3198.00,0.0397
3197.00,0.0396
3196.00,0.0396
3195.00,0.0395
3194.00,0.0394
3193.00,0.0393
3192.00,0.0393
3191.00,0.0392
3190.00,0.0391
3189.00,0.0391
3188.00,0.0390
3187.00,0.0390
3186.00,0.0389
3185.00,0.0389
3184.00,0.0388
3183.00,0.0388
3182.00,0.0387
3181.00,0.0386
3180.00,0.0386
3179.00,0.0385
3178.00,0.0385
3177.00,0.0384
3176.00,0.0383
3175.00,0.0382
3174.00,0.0381
3173.00,0.0380
3172.00,0.0379
3171.00,0.0379
3170.00,0.0378
3169.00,0.0377
3168.00,0.0377
3167.00,0.0376
3166.00,0.0375
3165.00,0.0374
3164.00,0.0373
3163.00,0.0372
3162.00,0.0371
3161.00,0.0370
3160.00,0.0370
3159.00,0.0369
3158.00,0.0368
3157.00,0.0367
3156.00,0.0366
3155.00,0.0365
3154.00,0.0364
3153.00,0.0363
3152.00,0.0362
3151.00,0.0361
3150.00,0.0361
3149.00,0.0360
3148.00,0.0359
3147.00,0.0358
3146.00,0.0357
3145.00,0.0356
3144.00,0.0355
3143.00,0.0353
3142.00,0.0352
3141.00,0.0351
3140.00,0.0351
3139.00,0.0350
3138.00,0.0349
3137.00,0.0349
3136.00,0.0348
3135.00,0.0347
3134.00,0.0346
3133.00,0.0345
3132.00,0.0344
3131.00,0.0343
3130.00,0.0343
3129.00,0.0342
3128.00,0.0341
3127.00,0.0341
3126.00,0.0340
3125.00,0.0340
3124.00,0.0340
3123.00,0.0339
3122.00,0.0338
3121.00,0.0338
3120.00,0.0337
3119.00,0.0337
3118.00,0.0336
3117.00,0.0336
3116.00,0.0335
3115.00,0.0335
3114.00,0.0335
3113.00,0.0334
3112.00,0.0334
3111.00,0.0334
3110.00,0.0334
3109.00,0.0334
3108.00,0.0334
3107.00,0.0334
3106.00,0.0334
3105.00,0.0334
3104.00,0.0334
3103.00,0.0334
3102.00,0.0334
3101.00,0.0334
3100.00,0.0334
3099.00,0.0334
3098.00,0.0334
3097.00,0.0334
3096.00,0.0335
3095.00,0.0335
3094.00,0.0335
3093.00,0.0335
3092.00,0.0335
3091.00,0.0335
3090.00,0.0335
3089.00,0.0335
3088.00,0.0335
3087.00,0.0335
3086.00,0.0335
3085.00,0.0335
3084.00,0.0336
3083.00,0.0336
3082.00,0.0336
3081.00,0.0336
3080.00,0.0336
3079.00,0.0336
3078.00,0.0337
3077.00,0.0337
3076.00,0.0337
3075.00,0.0337
3074.00,0.0337
3073.00,0.0337
3072.00,0.0337
3071.00,0.0337
3070.00,0.0337
3069.00,0.0336
3068.00,0.0336
3067.00,0.0336
3066.00,0.0336
3065.00,0.0336
3064.00,0.0335
3063.00,0.0335
3062.00,0.0335
3061.00,0.0334
3060.00,0.0334
3059.00,0.0333
3058.00,0.0333
3057.00,0.0332
3056.00,0.0331
3055.00,0.0331
3054.00,0.0330
3053.00,0.0329
3052.00,0.0328
3051.00,0.0327
3050.00,0.0326
3049.00,0.0325
3048.00,0.0325
3047.00,0.0324
3046.00,0.0323
3045.00,0.0322
3044.00,0.0321
3043.00,0.0319
3042.00,0.0318
3041.00,0.0317
3040.00,0.0317
3039.00,0.0316
3038.00,0.0315
3037.00,0.0314
3036.00,0.0313
3035.00,0.0312
3034.00,0.0310
3033.00,0.0310
3032.00,0.0309
3031.00,0.0308
3030.00,0.0307
3029.00,0.0306
3028.00,0.0305
3027.00,0.0305
3026.00,0.0303
3025.00,0.0302
3024.00,0.0301
3023.00,0.0300
3022.00,0.0299
3021.00,0.0298
3020.00,0.0297
3019.00,0.0296
3018.00,0.0294
3017.00,0.0293
3016.00,0.0292
3015.00,0.0291
3014.00,0.0290
3013.00,0.0289
3012.00,0.0288
3011.00,0.0287
3010.00,0.0286
3009.00,0.0286
3008.00,0.0285
3007.00,0.0285
3006.00,0.0285
3005.00,0.0284
3004.00,0.0284
3003.00,0.0284
3002.00,0.0283
3001.00,0.0283
3000.00,0.0283
2999.00,0.0283
2998.00,0.0284
2997.00,0.0284
2996.00,0.0284
2995.00,0.0285
2994.00,0.0285
2993.00,0.0286
2992.00,0.0287
2991.00,0.0288
2990.00,0.0289
2989.00,0.0290
2988.00,0.0291
2987.00,0.0292
2986.00,0.0293
2985.00,0.0294
2984.00,0.0295
2983.00,0.0295
2982.00,0.0296
2981.00,0.0297
2980.00,0.0297
2979.00,0.0298
2978.00,0.0299
2977.00,0.0300
2976.00,0.0301
2975.00,0.0302
2974.00,0.0303
2973.00,0.0304
2972.00,0.0305
2971.00,0.0306
2970.00,0.0307
2969.00,0.0307
2968.00,0.0308
2967.00,0.0308
2966.00,0.0308
2965.00,0.0308
2964.00,0.0308
2963.00,0.0307
2962.00,0.0307
2961.00,0.0307
2960.00,0.0307
2959.00,0.0307
2958.00,0.0306
2957.00,0.0306
2956.00,0.0306
2955.00,0.0305
2954.00,0.0305
2953.00,0.0304
2952.00,0.0304
2951.00,0.0304
2950.00,0.0304
2949.00,0.0304
2948.00,0.0304
2947.00,0.0304
2946.00,0.0304
2945.00,0.0305
2944.00,0.0306
2943.00,0.0307
2942.00,0.0309
2941.00,0.0311
2940.00,0.0313
2939.00,0.0315
2938.00,0.0317
2937.00,0.0319
2936.00,0.0321
2935.00,0.0324
2934.00,0.0326
2933.00,0.0328
2932.00,0.0330
2931.00,0.0332
2930.00,0.0334
2929.00,0.0336
2928.00,0.0337
2927.00,0.0339
2926.00,0.0340
2925.00,0.0342
2924.00,0.0343
2923.00,0.0344
2922.00,0.0345
2921.00,0.0346
2920.00,0.0346
2919.00,0.0346
2918.00,0.0345
2917.00,0.0342
2916.00,0.0339
2915.00,0.0333
2914.00,0.0327
2913.00,0.0321
2912.00,0.0315
2911.00,0.0310
2910.00,0.0305
2909.00,0.0301
2908.00,0.0297
2907.00,0.0294
2906.00,0.0291
2905.00,0.0289
2904.00,0.0287
2903.00,0.0285
2902.00,0.0283
2901.00,0.0282
2900.00,0.0280
2899.00,0.0278
2898.00,0.0277
2897.00,0.0275
2896.00,0.0274
2895.00,0.0272
2894.00,0.0271
2893.00,0.0270
2892.00,0.0269
2891.00,0.0267
2890.00,0.0266
2889.00,0.0265
2888.00,0.0264
2887.00,0.0263
2886.00,0.0262
2885.00,0.0262
2884.00,0.0261
2883.00,0.0260
2882.00,0.0260
2881.00,0.0259
2880.00,0.0259
2879.00,0.0259
2878.00,0.0259
2877.00,0.0259
2876.00,0.0259
2875.00,0.0259
2874.00,0.0259
2873.00,0.0259
2872.00,0.0258
2871.00,0.0257
2870.00,0.0256
2869.00,0.0255
2868.00,0.0254
2867.00,0.0253
2866.00,0.0252
2865.00,0.0251
2864.00,0.0251
2863.00,0.0250
2862.00,0.0250
2861.00,0.0250
2860.00,0.0250
2859.00,0.0251
2858.00,0.0253
2857.00,0.0254
2856.00,0.0256
2855.00,0.0259
2854.00,0.0261
2853.00,0.0264
2852.00,0.0267
2851.00,0.0269
2850.00,0.0270
2849.00,0.0269
2848.00,0.0265
2847.00,0.0260
2846.00,0.0253
2845.00,0.0247
2844.00,0.0241
2843.00,0.0237
2842.00,0.0233
2841.00,0.0230
2840.00,0.0227
2839.00,0.0225
2838.00,0.0223
2837.00,0.0221
2836.00,0.0220
2835.00,0.0218
2834.00,0.0217
2833.00,0.0216
2832.00,0.0215
2831.00,0.0214
2830.00,0.0213
2829.00,0.0213
2828.00,0.0212
2827.00,0.0211
2826.00,0.0210
2825.00,0.0210
2824.00,0.0209
2823.00,0.0209
2822.00,0.0208
2821.00,0.0208
2820.00,0.0208
2819.00,0.0207
2818.00,0.0207
2817.00,0.0206
2816.00,0.0206
2815.00,0.0205
2814.00,0.0204
2813.00,0.0204
2812.00,0.0203
2811.00,0.0203
2810.00,0.0202
2809.00,0.0202
2808.00,0.0202
2807.00,0.0201
2806.00,0.0201
2805.00,0.0200
2804.00,0.0200
2803.00,0.0199
2802.00,0.0199
2801.00,0.0198
2800.00,0.0198
2799.00,0.0197
2798.00,0.0197
2797.00,0.0196
2796.00,0.0196
2795.00,0.0195
2794.00,0.0195
2793.00,0.0195
2792.00,0.0194
2791.00,0.0194
2790.00,0.0194
2789.00,0.0193
2788.00,0.0193
2787.00,0.0192
2786.00,0.0192
2785.00,0.0191
2784.00,0.0191
2783.00,0.0190
2782.00,0.0190
2781.00,0.0189
2780.00,0.0189
2779.00,0.0188
2778.00,0.0187
2777.00,0.0187
2776.00,0.0186
2775.00,0.0186
2774.00,0.0186
2773.00,0.0185
2772.00,0.0185
2771.00,0.0184
2770.00,0.0184
2769.00,0.0183
2768.00,0.0183
2767.00,0.0182
2766.00,0.0181
2765.00,0.0181
2764.00,0.0180
2763.00,0.0180
2762.00,0.0179
2761.00,0.0179
2760.00,0.0178
2759.00,0.0178
2758.00,0.0177
2757.00,0.0177
2756.00,0.0176
2755.00,0.0176
2754.00,0.0175
2753.00,0.0175
2752.00,0.0174
2751.00,0.0174
2750.00,0.0173
2749.00,0.0173
2748.00,0.0172
2747.00,0.0172
2746.00,0.0171
2745.00,0.0171
2744.00,0.0170
2743.00,0.0170
2742.00,0.0169
2741.00,0.0169
2740.00,0.0168
2739.00,0.0168
2738.00,0.0167
2737.00,0.0167
2736.00,0.0166
2735.00,0.0166
2734.00,0.0166
2733.00,0.0165
2732.00,0.0165
2731.00,0.0165
2730.00,0.0164
2729.00,0.0164
2728.00,0.0163
2727.00,0.0163
2726.00,0.0162
2725.00,0.0162
2724.00,0.0161
2723.00,0.0161
2722.00,0.0160
2721.00,0.0160
2720.00,0.0159
2719.00,0.0159
2718.00,0.0159
2717.00,0.0158
2716.00,0.0158
2715.00,0.0158
2714.00,0.0157
2713.00,0.0157
2712.00,0.0156
2711.00,0.0156
2710.00,0.0155
2709.00,0.0155
2708.00,0.0155
2707.00,0.0154
2706.00,0.0154
2705.00,0.0154
2704.00,0.0153
2703.00,0.0153
2702.00,0.0152
2701.00,0.0152
2700.00,0.0152
2699.00,0.0151
2698.00,0.0151
2697.00,0.0151
2696.00,0.0151
2695.00,0.0151
2694.00,0.0150
2693.00,0.0150
2692.00,0.0150
2691.00,0.0149
2690.00,0.0149
2689.00,0.0148
2688.00,0.0148
2687.00,0.0148
2686.00,0.0148
2685.00,0.0147
2684.00,0.0147
2683.00,0.0147
2682.00,0.0146
2681.00,0.0146
2680.00,0.0146
2679.00,0.0145
2678.00,0.0145
2677.00,0.0145
2676.00,0.0144
2675.00,0.0144
2674.00,0.0144
2673.00,0.0143
2672.00,0.0143
2671.00,0.0143
2670.00,0.0142
2669.00,0.0142
2668.00,0.0142
2667.00,0.0142
2666.00,0.0142
2665.00,0.0142
2664.00,0.0143
2663.00,0.0143
2662.00,0.0143
2661.00,0.0143
2660.00,0.0143
2659.00,0.0143
2658.00,0.0143
2657.00,0.0143
2656.00,0.0142
2655.00,0.0142
2654.00,0.0142
2653.00,0.0142
2652.00,0.0141
2651.00,0.0141
2650.00,0.0141
2649.00,0.0141
2648.00,0.0141
2647.00,0.0141
2646.00,0.0140
2645.00,0.0140
2644.00,0.0140
2643.00,0.0140
2642.00,0.0140
2641.00,0.0140
2640.00,0.0139
2639.00,0.0139
2638.00,0.0138
2637.00,0.0138
2636.00,0.0138
2635.00,0.0138
2634.00,0.0137
2633.00,0.0137
2632.00,0.0137
2631.00,0.0137
2630.00,0.0136
2629.00,0.0136
2628.00,0.0135
2627.00,0.0135
2626.00,0.0135
2625.00,0.0135
2624.00,0.0135
2623.00,0.0134
2622.00,0.0134
2621.00,0.0134
2620.00,0.0134
2619.00,0.0134
2618.00,0.0133
2617.00,0.0133
2616.00,0.0133
2615.00,0.0133
2614.00,0.0133
2613.00,0.0132
2612.00,0.0132
2611.00,0.0131
2610.00,0.0131
2609.00,0.0130
2608.00,0.0130
2607.00,0.0130
2606.00,0.0129
2605.00,0.0129
2604.00,0.0129
2603.00,0.0129
2602.00,0.0128
2601.00,0.0128
2600.00,0.0128
2599.00,0.0127
2598.00,0.0127
2597.00,0.0127
2596.00,0.0126
2595.00,0.0126
2594.00,0.0125
2593.00,0.0125
2592.00,0.0125
2591.00,0.0124
2590.00,0.0124
2589.00,0.0124
2588.00,0.0124
2587.00,0.0124
2586.00,0.0123
2585.00,0.0123
2584.00,0.0123
2583.00,0.0122
2582.00,0.0122
2581.00,0.0121
2580.00,0.0121
2579.00,0.0121
2578.00,0.0121
2577.00,0.0120
2576.00,0.0120
2575.00,0.0120
2574.00,0.0120
2573.00,0.0120
2572.00,0.0120
2571.00,0.0119
2570.00,0.0119
2569.00,0.0119
2568.00,0.0119
2567.00,0.0118
2566.00,0.0118
2565.00,0.0118
2564.00,0.0118
2563.00,0.0118
2562.00,0.0118
2561.00,0.0118
2560.00,0.0118
2559.00,0.0117
2558.00,0.0117
2557.00,0.0117
2556.00,0.0117
2555.00,0.0117
2554.00,0.0117
2553.00,0.0116
2552.00,0.0116
2551.00,0.0116
2550.00,0.0116
2549.00,0.0115
2548.00,0.0115
2547.00,0.0115
2546.00,0.0115
2545.00,0.0115
2544.00,0.0115
2543.00,0.0114
2542.00,0.0114
2541.00,0.0113
2540.00,0.0114
2539.00,0.0114
2538.00,0.0114
2537.00,0.0114
2536.00,0.0114
2535.00,0.0113
2534.00,0.0113
2533.00,0.0113
2532.00,0.0113
2531.00,0.0113
2530.00,0.0112
2529.00,0.0112
2528.00,0.0112
2527.00,0.0112
2526.00,0.0112
2525.00,0.0111
2524.00,0.0111
2523.00,0.0111
2522.00,0.0111
2521.00,0.0110
2520.00,0.0110
2519.00,0.0110
2518.00,0.0110
2517.00,0.0110
2516.00,0.0110
2515.00,0.0110
2514.00,0.0109
2513.00,0.0109
2512.00,0.0109
2511.00,0.0108
2510.00,0.0108
2509.00,0.0108
2508.00,0.0108
2507.00,0.0108
2506.00,0.0108
2505.00,0.0108
2504.00,0.0107
2503.00,0.0107
2502.00,0.0107
2501.00,0.0107
2500.00,0.0107
2499.00,0.0107
2498.00,0.0107
2497.00,0.0106
2496.00,0.0106
2495.00,0.0106
2494.00,0.0106
2493.00,0.0106
2492.00,0.0106
2491.00,0.0106
2490.00,0.0105
2489.00,0.0105
2488.00,0.0104
2487.00,0.0104
2486.00,0.0104
2485.00,0.0104
2484.00,0.0105
2483.00,0.0104
2482.00,0.0104
2481.00,0.0104
2480.00,0.0103
2479.00,0.0103
2478.00,0.0102
2477.00,0.0103
2476.00,0.0103
2475.00,0.0103
2474.00,0.0103
2473.00,0.0103
2472.00,0.0103
2471.00,0.0103
2470.00,0.0103
2469.00,0.0103
2468.00,0.0103
2467.00,0.0102
2466.00,0.0102
2465.00,0.0102
2464.00,0.0102
2463.00,0.0102
2462.00,0.0102
2461.00,0.0102
2460.00,0.0102
2459.00,0.0102
2458.00,0.0103
2457.00,0.0103
2456.00,0.0103
2455.00,0.0103
2454.00,0.0103
2453.00,0.0103
2452.00,0.0102
2451.00,0.0102
2450.00,0.0102
2449.00,0.0102
2448.00,0.0101
2447.00,0.0101
2446.00,0.0100
2445.00,0.0100
2444.00,0.0100
2443.00,0.0100
2442.00,0.0100
2441.00,0.0099
2440.00,0.0100
2439.00,0.0100
2438.00,0.0099
2437.00,0.0099
2436.00,0.0099
2435.00,0.0098
2434.00,0.0098
2433.00,0.0098
2432.00,0.0098
2431.00,0.0098
2430.00,0.0098
2429.00,0.0098
2428.00,0.0098
2427.00,0.0098
2426.00,0.0097
2425.00,0.0097
2424.00,0.0097
2423.00,0.0097
2422.00,0.0097
2421.00,0.0097
2420.00,0.0097
2419.00,0.0096
2418.00,0.0096
2417.00,0.0096
2416.00,0.0096
2415.00,0.0096
2414.00,0.0095
2413.00,0.0095
2412.00,0.0095
2411.00,0.0095
2410.00,0.0095
2409.00,0.0094
2408.00,0.0093
2407.00,0.0093
2406.00,0.0092
2405.00,0.0092
2404.00,0.0092
2403.00,0.0092
2402.00,0.0092
2401.00,0.0092
2400.00,0.0092
2399.00,0.0092
2398.00,0.0091
2397.00,0.0091
2396.00,0.0091
2395.00,0.0091
2394.00,0.0091
2393.00,0.0091
2392.00,0.0091
2391.00,0.0091
2390.00,0.0090
2389.00,0.0090
2388.00,0.0090
2387.00,0.0090
2386.00,0.0090
2385.00,0.0089
2384.00,0.0089
2383.00,0.0089
2382.00,0.0089
2381.00,0.0089
2380.00,0.0088
2379.00,0.0088
2378.00,0.0088
2377.00,0.0088
2376.00,0.0088
2375.00,0.0088
2374.00,0.0088
2373.00,0.0088
2372.00,0.0088
2371.00,0.0087
2370.00,0.0087
2369.00,0.0087
2368.00,0.0087
2367.00,0.0087
2366.00,0.0087
2365.00,0.0087
2364.00,0.0087
2363.00,0.0087
2362.00,0.0087
2361.00,0.0087
2360.00,0.0087
2359.00,0.0087
2358.00,0.0087
2357.00,0.0087
2356.00,0.0087
2355.00,0.0087
2354.00,0.0087
2353.00,0.0086
2352.00,0.0086
2351.00,0.0085
2350.00,0.0085
2349.00,0.0085
2348.00,0.0085
2347.00,0.0086
2346.00,0.0088
2345.00,0.0088
2344.00,0.0089
2343.00,0.0088
2342.00,0.0088
2341.00,0.0088
2340.00,0.0088
2339.00,0.0088
2338.00,0.0089
2337.00,0.0089
2336.00,0.0089
2335.00,0.0089
2334.00,0.0089
2333.00,0.0088
2332.00,0.0088
2331.00,0.0087
2330.00,0.0088
2329.00,0.0089
2328.00,0.0092
2327.00,0.0096
2326.00,0.0100
2325.00,0.0101
2324.00,0.0101
2323.00,0.0099
2322.00,0.0096
2321.00,0.0094
2320.00,0.0093
2319.00,0.0092
2318.00,0.0091
2317.00,0.0091
2316.00,0.0091
2315.00,0.0091
2314.00,0.0090
2313.00,0.0090
2312.00,0.0089
2311.00,0.0089
2310.00,0.0088
2309.00,0.0088
2308.00,0.0088
2307.00,0.0088
2306.00,0.0088
2305.00,0.0088
2304.00,0.0088
2303.00,0.0088
2302.00,0.0088
2301.00,0.0088
2300.00,0.0088
2299.00,0.0088
2298.00,0.0089
2297.00,0.0090
2296.00,0.0091
2295.00,0.0091
2294.00,0.0092
2293.00,0.0093
2292.00,0.0094
2291.00,0.0094
2290.00,0.0095
2289.00,0.0096
2288.00,0.0096
2287.00,0.0097
2286.00,0.0097
2285.00,0.0097
2284.00,0.0096
2283.00,0.0095
2282.00,0.0093
2281.00,0.0092
2280.00,0.0091
2279.00,0.0090
2278.00,0.0090
2277.00,0.0090
2276.00,0.0090
2275.00,0.0090
2274.00,0.0089
2273.00,0.0089
2272.00,0.0089
2271.00,0.0089
2270.00,0.0089
2269.00,0.0089
2268.00,0.0088
2267.00,0.0087
2266.00,0.0087
2265.00,0.0086
2264.00,0.0086
2263.00,0.0086
2262.00,0.0086
2261.00,0.0086
2260.00,0.0086
2259.00,0.0085
2258.00,0.0084
2257.00,0.0083
2256.00,0.0083
2255.00,0.0083
2254.00,0.0083
2253.00,0.0083
2252.00,0.0083
2251.00,0.0084
2250.00,0.0085
2249.00,0.0085
2248.00,0.0086
2247.00,0.0085
2246.00,0.0085
2245.00,0.0084
2244.00,0.0085
2243.00,0.0085
2242.00,0.0085
2241.00,0.0085
2240.00,0.0085
2239.00,0.0085
2238.00,0.0085
2237.00,0.0085
2236.00,0.0084
2235.00,0.0084
2234.00,0.0084
2233.00,0.0084
2232.00,0.0084
2231.00,0.0083
2230.00,0.0083
2229.00,0.0083
2228.00,0.0083
2227.00,0.0083
2226.00,0.0084
2225.00,0.0084
2224.00,0.0084
2223.00,0.0084
2222.00,0.0084
2221.00,0.0084
2220.00,0.0083
2219.00,0.0082
2218.00,0.0081
2217.00,0.0081
2216.00,0.0081
2215.00,0.0082
2214.00,0.0082
2213.00,0.0082
2212.00,0.0083
2211.00,0.0083
2210.00,0.0083
2209.00,0.0083
2208.00,0.0083
2207.00,0.0083
2206.00,0.0084
2205.00,0.0083
2204.00,0.0083
2203.00,0.0083
2202.00,0.0082
2201.00,0.0081
2200.00,0.0080
2199.00,0.0079
2198.00,0.0079
2197.00,0.0079
2196.00,0.0080
2195.00,0.0082
2194.00,0.0083
2193.00,0.0083
2192.00,0.0083
2191.00,0.0083
2190.00,0.0083
2189.00,0.0083
2188.00,0.0084
2187.00,0.0084
2186.00,0.0083
2185.00,0.0081
2184.00,0.0080
2183.00,0.0079
2182.00,0.0078
2181.00,0.0079
2180.00,0.0080
2179.00,0.0081
2178.00,0.0080
2177.00,0.0079
2176.00,0.0078
2175.00,0.0077
2174.00,0.0077
2173.00,0.0079
2172.00,0.0081
2171.00,0.0083
2170.00,0.0085
2169.00,0.0086
2168.00,0.0087
2167.00,0.0088
2166.00,0.0088
2165.00,0.0088
2164.00,0.0089
2163.00,0.0089
2162.00,0.0084
2161.00,0.0074
2160.00,0.0061
2159.00,0.0050
2158.00,0.0044
2157.00,0.0044
2156.00,0.0047
2155.00,0.0051
2154.00,0.0055
2153.00,0.0057
2152.00,0.0058
2151.00,0.0059
2150.00,0.0060
2149.00,0.0061
2148.00,0.0062
2147.00,0.0063
2146.00,0.0063
2145.00,0.0062
2144.00,0.0062
2143.00,0.0062
2142.00,0.0062
2141.00,0.0062
2140.00,0.0062
2139.00,0.0061
2138.00,0.0060
2137.00,0.0058
2136.00,0.0057
2135.00,0.0055
2134.00,0.0055
2133.00,0.0056
2132.00,0.0059
2131.00,0.0062
2130.00,0.0065
2129.00,0.0066
2128.00,0.0068
2127.00,0.0068
2126.00,0.0068
2125.00,0.0069
2124.00,0.0070
2123.00,0.0071
2122.00,0.0071
2121.00,0.0072
2120.00,0.0073
2119.00,0.0074
2118.00,0.0074
2117.00,0.0074
2116.00,0.0075
2115.00,0.0076
2114.00,0.0077
2113.00,0.0078
2112.00,0.0079
2111.00,0.0079
2110.00,0.0078
2109.00,0.0077
2108.00,0.0077
2107.00,0.0076
2106.00,0.0076
2105.00,0.0076
2104.00,0.0077
2103.00,0.0078
2102.00,0.0078
2101.00,0.0078
2100.00,0.0078
2099.00,0.0078
2098.00,0.0076
2097.00,0.0074
2096.00,0.0073
2095.00,0.0072
2094.00,0.0072
2093.00,0.0073
2092.00,0.0074
2091.00,0.0074
2090.00,0.0075
2089.00,0.0076
2088.00,0.0077
2087.00,0.0078
2086.00,0.0079
2085.00,0.0079
2084.00,0.0079
2083.00,0.0079
2082.00,0.0078
2081.00,0.0078
2080.00,0.0077
2079.00,0.0077
2078.00,0.0077
2077.00,0.0077
2076.00,0.0077
2075.00,0.0077
2074.00,0.0076
2073.00,0.0076
2072.00,0.0076
2071.00,0.0076
2070.00,0.0075
2069.00,0.0075
2068.00,0.0075
2067.00,0.0075
2066.00,0.0075
2065.00,0.0075
2064.00,0.0075
2063.00,0.0075
2062.00,0.0074
2061.00,0.0074
2060.00,0.0075
2059.00,0.0075
2058.00,0.0074
2057.00,0.0073
2056.00,0.0073
2055.00,0.0074
2054.00,0.0077
2053.00,0.0082
2052.00,0.0086
2051.00,0.0087
2050.00,0.0085
2049.00,0.0080
2048.00,0.0077
2047.00,0.0075
2046.00,0.0074
2045.00,0.0074
2044.00,0.0074
2043.00,0.0074
2042.00,0.0073
2041.00,0.0073
2040.00,0.0073
2039.00,0.0073
2038.00,0.0073
2037.00,0.0073
2036.00,0.0072
2035.00,0.0070
2034.00,0.0068
2033.00,0.0067
2032.00,0.0066
2031.00,0.0066
2030.00,0.0065
2029.00,0.0064
2028.00,0.0063
2027.00,0.0062
2026.00,0.0063
2025.00,0.0064
2024.00,0.0066
2023.00,0.0066
2022.00,0.0065
2021.00,0.0063
2020.00,0.0062
2019.00,0.0061
2018.00,0.0060
2017.00,0.0060
2016.00,0.0061
2015.00,0.0062
2014.00,0.0063
2013.00,0.0064
2012.00,0.0064
2011.00,0.0064
2010.00,0.0062
2009.00,0.0059
2008.00,0.0056
2007.00,0.0053
2006.00,0.0052
2005.00,0.0053
2004.00,0.0056
2003.00,0.0057
2002.00,0.0058
2001.00,0.0058
2000.00,0.0059
1999.00,0.0060
1998.00,0.0061
1997.00,0.0062
1996.00,0.0063
1995.00,0.0063
1994.00,0.0063
1993.00,0.0064
1992.00,0.0064
1991.00,0.0065
1990.00,0.0065
1989.00,0.0066
1988.00,0.0068
1987.00,0.0069
1986.00,0.0071
1985.00,0.0072
1984.00,0.0074
1983.00,0.0075
1982.00,0.0077
1981.00,0.0077
1980.00,0.0074
1979.00,0.0069
1978.00,0.0062
1977.00,0.0057
1976.00,0.0055
1975.00,0.0054
1974.00,0.0053
1973.00,0.0053
1972.00,0.0054
1971.00,0.0054
1970.00,0.0053
1969.00,0.0053
1968.00,0.0052
1967.00,0.0052
1966.00,0.0051
1965.00,0.0051
1964.00,0.0052
1963.00,0.0053
1962.00,0.0052
1961.00,0.0051
1960.00,0.0051
1959.00,0.0050
1958.00,0.0050
1957.00,0.0051
1956.00,0.0052
1955.00,0.0053
1954.00,0.0053
1953.00,0.0053
1952.00,0.0054
1951.00,0.0054
1950.00,0.0055
1949.00,0.0055
1948.00,0.0055
1947.00,0.0055
1946.00,0.0055
1945.00,0.0054
1944.00,0.0053
1943.00,0.0052
1942.00,0.0052
1941.00,0.0053
1940.00,0.0053
1939.00,0.0053
1938.00,0.0053
1937.00,0.0052
1936.00,0.0052
1935.00,0.0052
1934.00,0.0052
1933.00,0.0053
1932.00,0.0053
1931.00,0.0053
1930.00,0.0053
1929.00,0.0053
1928.00,0.0054
1927.00,0.0054
1926.00,0.0054
1925.00,0.0053
1924.00,0.0053
1923.00,0.0053
1922.00,0.0053
1921.00,0.0054
1920.00,0.0055
1919.00,0.0056
1918.00,0.0055
1917.00,0.0055
1916.00,0.0056
1915.00,0.0056
1914.00,0.0056
1913.00,0.0056
1912.00,0.0056
1911.00,0.0056
1910.00,0.0056
1909.00,0.0056
1908.00,0.0056
1907.00,0.0056
1906.00,0.0055
1905.00,0.0056
1904.00,0.0056
1903.00,0.0056
1902.00,0.0056
1901.00,0.0056
1900.00,0.0056
1899.00,0.0055
1898.00,0.0055
1897.00,0.0055
1896.00,0.0055
1895.00,0.0055
1894.00,0.0055
1893.00,0.0055
1892.00,0.0055
1891.00,0.0055
1890.00,0.0054
1889.00,0.0053
1888.00,0.0054
1887.00,0.0055
1886.00,0.0056
1885.00,0.0056
1884.00,0.0056
1883.00,0.0056
1882.00,0.0056
1881.00,0.0056
1880.00,0.0056
1879.00,0.0056
1878.00,0.0056
1877.00,0.0056
1876.00,0.0056
1875.00,0.0056
1874.00,0.0056
1873.00,0.0056
1872.00,0.0056
1871.00,0.0055
1870.00,0.0053
1869.00,0.0052
1868.00,0.0052
1867.00,0.0052
1866.00,0.0053
1865.00,0.0054
1864.00,0.0055
1863.00,0.0055
1862.00,0.0055
1861.00,0.0055
1860.00,0.0056
1859.00,0.0056
1858.00,0.0056
1857.00,0.0056
1856.00,0.0056
1855.00,0.0056
1854.00,0.0057
1853.00,0.0057
1852.00,0.0057
1851.00,0.0056
1850.00,0.0056
1849.00,0.0055
1848.00,0.0055
1847.00,0.0055
1846.00,0.0054
1845.00,0.0054
1844.00,0.0054
1843.00,0.0055
1842.00,0.0055
1841.00,0.0056
1840.00,0.0056
1839.00,0.0056
1838.00,0.0056
1837.00,0.0056
1836.00,0.0056
1835.00,0.0056
1834.00,0.0056
1833.00,0.0056
1832.00,0.0055
1831.00,0.0054
1830.00,0.0053
1829.00,0.0053
1828.00,0.0054
1827.00,0.0054
1826.00,0.0054
1825.00,0.0054
1824.00,0.0055
1823.00,0.0055
1822.00,0.0056
1821.00,0.0056
1820.00,0.0056
1819.00,0.0055
1818.00,0.0054
1817.00,0.0054
1816.00,0.0054
1815.00,0.0055
1814.00,0.0056
1813.00,0.0056
1812.00,0.0056
1811.00,0.0056
1810.00,0.0056
1809.00,0.0057
1808.00,0.0057
1807.00,0.0058
1806.00,0.0059
1805.00,0.0059
1804.00,0.0059
1803.00,0.0058
1802.00,0.0057
1801.00,0.0056
1800.00,0.0056
1799.00,0.0057
1798.00,0.0058
1797.00,0.0059
1796.00,0.0060
1795.00,0.0060
1794.00,0.0060
1793.00,0.0060
1792.00,0.0060
1791.00,0.0060
1790.00,0.0060
1789.00,0.0061
1788.00,0.0062
1787.00,0.0063
1786.00,0.0063
1785.00,0.0062
1784.00,0.0062
1783.00,0.0062
1782.00,0.0062
1781.00,0.0062
1780.00,0.0062
1779.00,0.0063
1778.00,0.0063
1777.00,0.0064
1776.00,0.0064
1775.00,0.0065
1774.00,0.0066
1773.00,0.0068
1772.00,0.0069
1771.00,0.0069
1770.00,0.0068
1769.00,0.0066
1768.00,0.0066
1767.00,0.0067
1766.00,0.0068
1765.00,0.0069
1764.00,0.0069
1763.00,0.0069
1762.00,0.0068
1761.00,0.0069
1760.00,0.0069
1759.00,0.0070
1758.00,0.0070
1757.00,0.0070
1756.00,0.0071
1755.00,0.0072
1754.00,0.0073
1753.00,0.0074
1752.00,0.0075
1751.00,0.0076
1750.00,0.0075
1749.00,0.0075
1748.00,0.0075
1747.00,0.0075
1746.00,0.0077
1745.00,0.0078
1744.00,0.0080
1743.00,0.0081
1742.00,0.0082
1741.00,0.0084
1740.00,0.0086
1739.00,0.0089
1738.00,0.0091
1737.00,0.0092
1736.00,0.0094
1735.00,0.0097
1734.00,0.0099
1733.00,0.0101
1732.00,0.0103
1731.00,0.0101
1730.00,0.0097
1729.00,0.0096
1728.00,0.0097
1727.00,0.0099
1726.00,0.0101
1725.00,0.0103
1724.00,0.0104
1723.00,0.0106
1722.00,0.0108
1721.00,0.0109
1720.00,0.0112
1719.00,0.0115
1718.00,0.0120
1717.00,0.0126
1716.00,0.0131
1715.00,0.0135
1714.00,0.0137
1713.00,0.0140
1712.00,0.0146
1711.00,0.0154
1710.00,0.0162
1709.00,0.0171
1708.00,0.0181
1707.00,0.0191
1706.00,0.0202
1705.00,0.0214
1704.00,0.0228
1703.00,0.0243
1702.00,0.0258
1701.00,0.0275
1700.00,0.0292
1699.00,0.0309
1698.00,0.0324
1697.00,0.0339
1696.00,0.0353
1695.00,0.0367
1694.00,0.0378
1693.00,0.0386
1692.00,0.0393
1691.00,0.0403
1690.00,0.0414
1689.00,0.0426
1688.00,0.0439
1687.00,0.0455
1686.00,0.0474
1685.00,0.0492
1684.00,0.0507
1683.00,0.0518
1682.00,0.0529
1681.00,0.0540
1680.00,0.0555
1679.00,0.0572
1678.00,0.0589
1677.00,0.0606
1676.00,0.0622
1675.00,0.0638
1674.00,0.0653
1673.00,0.0670
1672.00,0.0686
1671.00,0.0702
1670.00,0.0716
1669.00,0.0730
1668.00,0.0746
1667.00,0.0763
1666.00,0.0779
1665.00,0.0796
1664.00,0.0811
1663.00,0.0824
1662.00,0.0835
1661.00,0.0847
1660.00,0.0861
1659.00,0.0875
1658.00,0.0888
1657.00,0.0902
1656.00,0.0917
1655.00,0.0933
1654.00,0.0943
1653.00,0.0945
1652.00,0.0949
1651.00,0.0958
1650.00,0.0964
1649.00,0.0966
1648.00,0.0969
1647.00,0.0971
1646.00,0.0973
1645.00,0.0977
1644.00,0.0985
1643.00,0.0993
1642.00,0.1001
1641.00,0.1008
1640.00,0.1016
1639.00,0.1026
1638.00,0.1036
1637.00,0.1044
1636.00,0.1050
1635.00,0.1053
1634.00,0.1059
1633.00,0.1069
1632.00,0.1081
1631.00,0.1092
1630.00,0.1101
1629.00,0.1107
1628.00,0.1110
1627.00,0.1112
1626.00,0.1114
1625.00,0.1113
1624.00,0.1106
1623.00,0.1094
1622.00,0.1080
1621.00,0.1068
1620.00,0.1059
1619.00,0.1050
1618.00,0.1037
1617.00,0.1016
1616.00,0.0991
1615.00,0.0969
1614.00,0.0949
1613.00,0.0930
1612.00,0.0911
1611.00,0.0890
1610.00,0.0868
1609.00,0.0845
1608.00,0.0822
1607.00,0.0799
1606.00,0.0777
1605.00,0.0756
1604.00,0.0735
1603.00,0.0715
1602.00,0.0695
1601.00,0.0677
1600.00,0.0660
1599.00,0.0645
1598.00,0.0631
1597.00,0.0617
1596.00,0.0604
1595.00,0.0592
1594.00,0.0580
1593.00,0.0569
1592.00,0.0559
1591.00,0.0549
1590.00,0.0539
1589.00,0.0530
1588.00,0.0522
1587.00,0.0514
1586.00,0.0507
1585.00,0.0502
1584.00,0.0496
1583.00,0.0492
1582.00,0.0489
1581.00,0.0487
1580.00,0.0485
1579.00,0.0486
1578.00,0.0488
1577.00,0.0493
1576.00,0.0496
1575.00,0.0498
1574.00,0.0498
1573.00,0.0497
1572.00,0.0498
1571.00,0.0500
1570.00,0.0503
1569.00,0.0508
1568.00,0.0514
1567.00,0.0522
1566.00,0.0529
1565.00,0.0538
1564.00,0.0547
1563.00,0.0557
1562.00,0.0570
1561.00,0.0585
1560.00,0.0596
1559.00,0.0600
1558.00,0.0605
1557.00,0.0614
1556.00,0.0623
1555.00,0.0632
1554.00,0.0640
1553.00,0.0650
1552.00,0.0658
1551.00,0.0665
1550.00,0.0671
1549.00,0.0679
1548.00,0.0689
1547.00,0.0699
1546.00,0.0708
1545.00,0.0714
1544.00,0.0721
1543.00,0.0729
1542.00,0.0739
1541.00,0.0748
1540.00,0.0755
1539.00,0.0762
1538.00,0.0769
1537.00,0.0775
1536.00,0.0779
1535.00,0.0781
1534.00,0.0782
1533.00,0.0783
1532.00,0.0787
1531.00,0.0793
1530.00,0.0800
1529.00,0.0806
1528.00,0.0809
1527.00,0.0811
1526.00,0.0813
1525.00,0.0817
1524.00,0.0822
1523.00,0.0827
1522.00,0.0831
1521.00,0.0833
1520.00,0.0835
1519.00,0.0838
1518.00,0.0841
1517.00,0.0842
1516.00,0.0843
1515.00,0.0843
1514.00,0.0844
1513.00,0.0842
1512.00,0.0836
1511.00,0.0829
1510.00,0.0821
1509.00,0.0814
1508.00,0.0804
1507.00,0.0787
1506.00,0.0769
1505.00,0.0757
1504.00,0.0751
1503.00,0.0744
1502.00,0.0736
1501.00,0.0727
1500.00,0.0718
1499.00,0.0709
1498.00,0.0699
1497.00,0.0690
1496.00,0.0680
1495.00,0.0672
1494.00,0.0663
1493.00,0.0654
1492.00,0.0642
1491.00,0.0627
1490.00,0.0610
1489.00,0.0593
1488.00,0.0579
1487.00,0.0569
1486.00,0.0561
1485.00,0.0555
1484.00,0.0549
1483.00,0.0545
1482.00,0.0540
1481.00,0.0536
1480.00,0.0533
1479.00,0.0532
1478.00,0.0531
1477.00,0.0528
1476.00,0.0526
1475.00,0.0525
1474.00,0.0524
1473.00,0.0520
1472.00,0.0514
1471.00,0.0508
1470.00,0.0504
1469.00,0.0501
1468.00,0.0498
1467.00,0.0495
1466.00,0.0492
1465.00,0.0490
1464.00,0.0490
1463.00,0.0493
1462.00,0.0498
1461.00,0.0503
1460.00,0.0509
1459.00,0.0515
1458.00,0.0523
1457.00,0.0531
1456.00,0.0540
1455.00,0.0548
1454.00,0.0555
1453.00,0.0561
1452.00,0.0566
1451.00,0.0571
1450.00,0.0576
1449.00,0.0579
1448.00,0.0580
1447.00,0.0580
1446.00,0.0581
1445.00,0.0581
1444.00,0.0579
1443.00,0.0576
1442.00,0.0571
1441.00,0.0565
1440.00,0.0560
1439.00,0.0554
1438.00,0.0547
1437.00,0.0537
1436.00,0.0526
1435.00,0.0520
1434.00,0.0517
1433.00,0.0514
1432.00,0.0512
1431.00,0.0509
1430.00,0.0506
1429.00,0.0506
1428.00,0.0507
1427.00,0.0510
1426.00,0.0513
1425.00,0.0516
1424.00,0.0519
1423.00,0.0523
1422.00,0.0528
1421.00,0.0534
1420.00,0.0538
1419.00,0.0541
1418.00,0.0543
1417.00,0.0546
1416.00,0.0551
1415.00,0.0556
1414.00,0.0562
1413.00,0.0567
1412.00,0.0571
1411.00,0.0575
1410.00,0.0579
1409.00,0.0585
1408.00,0.0590
1407.00,0.0596
1406.00,0.0601
1405.00,0.0607
1404.00,0.0613
1403.00,0.0620
1402.00,0.0628
1401.00,0.0634
1400.00,0.0638
1399.00,0.0640
1398.00,0.0642
1397.00,0.0644
1396.00,0.0646
1395.00,0.0646
1394.00,0.0645
1393.00,0.0645
1392.00,0.0645
1391.00,0.0644
1390.00,0.0642
1389.00,0.0639
1388.00,0.0634
1387.00,0.0629
1386.00,0.0625
1385.00,0.0623
1384.00,0.0621
1383.00,0.0618
1382.00,0.0616
1381.00,0.0613
1380.00,0.0610
1379.00,0.0608
1378.00,0.0606
1377.00,0.0605
1376.00,0.0603
1375.00,0.0602
1374.00,0.0600
1373.00,0.0599
1372.00,0.0600
1371.00,0.0600
1370.00,0.0599
1369.00,0.0596
1368.00,0.0591
1367.00,0.0587
1366.00,0.0582
1365.00,0.0577
1364.00,0.0572
1363.00,0.0566
1362.00,0.0561
1361.00,0.0558
1360.00,0.0558
1359.00,0.0558
1358.00,0.0558
1357.00,0.0558
1356.00,0.0558
1355.00,0.0559
1354.00,0.0560
1353.00,0.0562
1352.00,0.0565
1351.00,0.0568
1350.00,0.0572
1349.00,0.0576
1348.00,0.0580
1347.00,0.0586
1346.00,0.0591
1345.00,0.0596
1344.00,0.0602
1343.00,0.0607
1342.00,0.0612
1341.00,0.0615
1340.00,0.0618
1339.00,0.0620
1338.00,0.0622
1337.00,0.0624
1336.00,0.0626
1335.00,0.0627
1334.00,0.0627
1333.00,0.0626
1332.00,0.0624
1331.00,0.0621
1330.00,0.0617
1329.00,0.0614
1328.00,0.0610
1327.00,0.0607
1326.00,0.0603
1325.00,0.0599
1324.00,0.0595
1323.00,0.0591
1322.00,0.0587
1321.00,0.0582
1320.00,0.0578
1319.00,0.0573
1318.00,0.0568
1317.00,0.0564
1316.00,0.0560
1315.00,0.0555
1314.00,0.0551
1313.00,0.0546
1312.00,0.0541
1311.00,0.0536
1310.00,0.0531
1309.00,0.0526
1308.00,0.0521
1307.00,0.0516
1306.00,0.0512
1305.00,0.0507
1304.00,0.0502
1303.00,0.0497
1302.00,0.0492
1301.00,0.0488
1300.00,0.0484
1299.00,0.0480
1298.00,0.0476
1297.00,0.0473
1296.00,0.0470
1295.00,0.0467
1294.00,0.0464
1293.00,0.0462
1292.00,0.0461
1291.00,0.0459
1290.00,0.0458
1289.00,0.0457
1288.00,0.0456
1287.00,0.0456
1286.00,0.0456
1285.00,0.0456
1284.00,0.0456
1283.00,0.0456
1282.00,0.0456
1281.00,0.0456
1280.00,0.0457
1279.00,0.0457
1278.00,0.0458
1277.00,0.0459
1276.00,0.0460
1275.00,0.0462
1274.00,0.0464
1273.00,0.0466
1272.00,0.0468
1271.00,0.0471
1270.00,0.0473
1269.00,0.0476
1268.00,0.0478
1267.00,0.0481
1266.00,0.0483
1265.00,0.0486
1264.00,0.0489
1263.00,0.0492
1262.00,0.0494
1261.00,0.0497
1260.00,0.0500
1259.00,0.0503
1258.00,0.0507
1257.00,0.0511
1256.00,0.0514
1255.00,0.0519
1254.00,0.0523
1253.00,0.0528
1252.00,0.0533
1251.00,0.0538
1250.00,0.0544
1249.00,0.0551
1248.00,0.0557
1247.00,0.0564
1246.00,0.0571
1245.00,0.0579
1244.00,0.0586
1243.00,0.0593
1242.00,0.0600
1241.00,0.0607
1240.00,0.0612
1239.00,0.0617
1238.00,0.0621
1237.00,0.0624
1236.00,0.0627
1235.00,0.0629
1234.00,0.0631
1233.00,0.0633
1232.00,0.0634
1231.00,0.0636
1230.00,0.0637
1229.00,0.0638
1228.00,0.0640
1227.00,0.0642
1226.00,0.0644
1225.00,0.0646
1224.00,0.0648
1223.00,0.0649
1222.00,0.0650
1221.00,0.0651
1220.00,0.0652
1219.00,0.0651
1218.00,0.0650
1217.00,0.0648
1216.00,0.0646
1215.00,0.0642
1214.00,0.0638
1213.00,0.0634
1212.00,0.0629
1211.00,0.0623
1210.00,0.0617
1209.00,0.0612
1208.00,0.0606
1207.00,0.0601
1206.00,0.0595
1205.00,0.0589
1204.00,0.0582
1203.00,0.0577
1202.00,0.0571
1201.00,0.0566
1200.00,0.0561
1199.00,0.0557
1198.00,0.0552
1197.00,0.0549
1196.00,0.0545
1195.00,0.0542
1194.00,0.0540
1193.00,0.0538
1192.00,0.0537
1191.00,0.0535
1190.00,0.0534
1189.00,0.0532
1188.00,0.0531
1187.00,0.0530
1186.00,0.0530
1185.00,0.0530
1184.00,0.0530
1183.00,0.0531
1182.00,0.0532
1181.00,0.0535
1180.00,0.0538
1179.00,0.0541
1178.00,0.0546
1177.00,0.0550
1176.00,0.0555
1175.00,0.0560
1174.00,0.0564
1173.00,0.0569
1172.00,0.0573
1171.00,0.0576
1170.00,0.0579
1169.00,0.0580
1168.00,0.0581
1167.00,0.0582
1166.00,0.0582
1165.00,0.0582
1164.00,0.0582
1163.00,0.0581
1162.00,0.0579
1161.00,0.0577
1160.00,0.0575
1159.00,0.0571
1158.00,0.0568
1157.00,0.0564
1156.00,0.0560
1155.00,0.0556
1154.00,0.0551
1153.00,0.0547
1152.00,0.0543
1151.00,0.0539
1150.00,0.0535
1149.00,0.0531
1148.00,0.0527
1147.00,0.0524
1146.00,0.0521
1145.00,0.0518
1144.00,0.0515
1143.00,0.0512
1142.00,0.0510
1141.00,0.0507
1140.00,0.0506
1139.00,0.0504
1138.00,0.0503
1137.00,0.0502
1136.00,0.0501
1135.00,0.0500
1134.00,0.0499
1133.00,0.0497
1132.00,0.0496
1131.00,0.0494
1130.00,0.0491
1129.00,0.0488
1128.00,0.0486
1127.00,0.0483
1126.00,0.0480
1125.00,0.0478
1124.00,0.0475
1123.00,0.0471
1122.00,0.0468
1121.00,0.0465
1120.00,0.0462
1119.00,0.0460
1118.00,0.0457
1117.00,0.0454
1116.00,0.0452
1115.00,0.0449
1114.00,0.0446
1113.00,0.0445
1112.00,0.0443
1111.00,0.0442
1110.00,0.0441
1109.00,0.0440
1108.00,0.0439
1107.00,0.0439
1106.00,0.0438
1105.00,0.0438
1104.00,0.0437
1103.00,0.0437
1102.00,0.0437
1101.00,0.0438
1100.00,0.0438
1099.00,0.0438
1098.00,0.0439
1097.00,0.0440
1096.00,0.0441
1095.00,0.0443
1094.00,0.0446
1093.00,0.0449
1092.00,0.0452
1091.00,0.0455
1090.00,0.0459
1089.00,0.0462
1088.00,0.0466
1087.00,0.0469
1086.00,0.0472
1085.00,0.0476
1084.00,0.0479
1083.00,0.0482
1082.00,0.0484
1081.00,0.0486
1080.00,0.0488
1079.00,0.0490
1078.00,0.0491
1077.00,0.0491
1076.00,0.0492
1075.00,0.0493
1074.00,0.0494
1073.00,0.0494
1072.00,0.0494
1071.00,0.0494
1070.00,0.0494
1069.00,0.0495
1068.00,0.0496
1067.00,0.0497
1066.00,0.0498
1065.00,0.0498
1064.00,0.0499
1063.00,0.0499
1062.00,0.0499
1061.00,0.0500
1060.00,0.0502
1059.00,0.0503
1058.00,0.0504
1057.00,0.0505
1056.00,0.0506
1055.00,0.0508
1054.00,0.0509
1053.00,0.0510
1052.00,0.0511
1051.00,0.0511
1050.00,0.0512
1049.00,0.0513
1048.00,0.0515
1047.00,0.0519
1046.00,0.0523
1045.00,0.0527
1044.00,0.0532
1043.00,0.0537
1042.00,0.0542
1041.00,0.0547
1040.00,0.0551
1039.00,0.0554
1038.00,0.0556
1037.00,0.0556
1036.00,0.0556
1035.00,0.0554
1034.00,0.0552
1033.00,0.0549
1032.00,0.0546
1031.00,0.0541
1030.00,0.0537
1029.00,0.0531
1028.00,0.0525
1027.00,0.0518
1026.00,0.0511
1025.00,0.0504
1024.00,0.0497
1023.00,0.0490
1022.00,0.0484
1021.00,0.0477
1020.00,0.0471
1019.00,0.0465
1018.00,0.0459
1017.00,0.0454
1016.00,0.0450
1015.00,0.0446
1014.00,0.0443
1013.00,0.0440
1012.00,0.0438
1011.00,0.0436
1010.00,0.0435
1009.00,0.0433
1008.00,0.0431
1007.00,0.0429
1006.00,0.0425
1005.00,0.0421
1004.00,0.0415
1003.00,0.0410
1002.00,0.0403
1001.00,0.0397
1000.00,0.0390
999.00,0.0384
998.00,0.0378
997.00,0.0373
996.00,0.0368
995.00,0.0364
994.00,0.0359
993.00,0.0356
992.00,0.0353
991.00,0.0350
990.00,0.0349
989.00,0.0349
988.00,0.0349
987.00,0.0351
986.00,0.0353
985.00,0.0356
984.00,0.0359
983.00,0.0363
982.00,0.0366
981.00,0.0368
980.00,0.0371
979.00,0.0373
978.00,0.0374
977.00,0.0374
976.00,0.0375
975.00,0.0376
974.00,0.0377
973.00,0.0379
972.00,0.0382
971.00,0.0387
970.00,0.0392
969.00,0.0399
968.00,0.0406
967.00,0.0413
966.00,0.0419
965.00,0.0424
964.00,0.0428
963.00,0.0431
962.00,0.0432
961.00,0.0432
960.00,0.0432
959.00,0.0430
958.00,0.0428
957.00,0.0426
956.00,0.0423
955.00,0.0419
954.00,0.0416
953.00,0.0412
952.00,0.0407
951.00,0.0403
950.00,0.0398
949.00,0.0392
948.00,0.0386
947.00,0.0381
946.00,0.0377
945.00,0.0374
944.00,0.0372
943.00,0.0371
942.00,0.0372
941.00,0.0375
940.00,0.0379
939.00,0.0385
938.00,0.0391
937.00,0.0396
936.00,0.0401
935.00,0.0405
934.00,0.0406
933.00,0.0406
932.00,0.0404
931.00,0.0400
930.00,0.0395
929.00,0.0390
928.00,0.0385
927.00,0.0380
926.00,0.0375
925.00,0.0371
924.00,0.0367
923.00,0.0363
922.00,0.0358
921.00,0.0354
920.00,0.0350
919.00,0.0346
918.00,0.0342
917.00,0.0339
916.00,0.0336
915.00,0.0332
914.00,0.0329
913.00,0.0326
912.00,0.0324
911.00,0.0323
910.00,0.0322
909.00,0.0323
908.00,0.0323
907.00,0.0325
906.00,0.0327
905.00,0.0331
904.00,0.0335
903.00,0.0341
902.00,0.0346
901.00,0.0352
900.00,0.0357
899.00,0.0361
898.00,0.0363
897.00,0.0364
896.00,0.0363
895.00,0.0360
894.00,0.0356
893.00,0.0350
892.00,0.0343
891.00,0.0336
890.00,0.0329
889.00,0.0321
888.00,0.0314
887.00,0.0308
886.00,0.0303
885.00,0.0299
884.00,0.0296
883.00,0.0294
882.00,0.0292
881.00,0.0291
880.00,0.0290
879.00,0.0289
878.00,0.0289
877.00,0.0289
876.00,0.0290
875.00,0.0290
874.00,0.0291
873.00,0.0291
872.00,0.0291
871.00,0.0291
870.00,0.0291
869.00,0.0291
868.00,0.0291
867.00,0.0291
866.00,0.0291
865.00,0.0291
864.00,0.0290
863.00,0.0289
862.00,0.0288
861.00,0.0286
860.00,0.0285
859.00,0.0283
858.00,0.0282
857.00,0.0281
856.00,0.0280
855.00,0.0280
854.00,0.0280
853.00,0.0280
852.00,0.0280
851.00,0.0280
850.00,0.0279
849.00,0.0279
848.00,0.0279
847.00,0.0278
846.00,0.0277
845.00,0.0277
844.00,0.0277
843.00,0.0277
842.00,0.0277
841.00,0.0278
840.00,0.0278
839.00,0.0280
838.00,0.0281
837.00,0.0283
836.00,0.0285
835.00,0.0288
834.00,0.0291
833.00,0.0296
832.00,0.0302
831.00,0.0309
830.00,0.0315
829.00,0.0319
828.00,0.0321
827.00,0.0320
826.00,0.0317
825.00,0.0313
824.00,0.0309
823.00,0.0305
822.00,0.0302
821.00,0.0300
820.00,0.0299
819.00,0.0298
818.00,0.0299
817.00,0.0300
816.00,0.0301
815.00,0.0302
814.00,0.0303
813.00,0.0304
812.00,0.0305
811.00,0.0306
810.00,0.0307
809.00,0.0308
808.00,0.0309
807.00,0.0311
806.00,0.0312
805.00,0.0314
804.00,0.0316
803.00,0.0317
802.00,0.0318
801.00,0.0320
800.00,0.0321
799.00,0.0321
798.00,0.0322
797.00,0.0322
796.00,0.0323
795.00,0.0323
794.00,0.0325
793.00,0.0326
792.00,0.0328
791.00,0.0329
790.00,0.0331
789.00,0.0333
788.00,0.0336
787.00,0.0339
786.00,0.0341
785.00,0.0345
784.00,0.0348
783.00,0.0352
782.00,0.0355
781.00,0.0358
780.00,0.0360
779.00,0.0363
778.00,0.0365
777.00,0.0367
776.00,0.0369
775.00,0.0371
774.00,0.0374
773.00,0.0376
772.00,0.0378
771.00,0.0379
770.00,0.0381
769.00,0.0383
768.00,0.0384
767.00,0.0385
766.00,0.0386
765.00,0.0387
764.00,0.0387
763.00,0.0388
762.00,0.0389
761.00,0.0390
760.00,0.0392
759.00,0.0393
758.00,0.0395
757.00,0.0398
756.00,0.0401
755.00,0.0404
754.00,0.0406
753.00,0.0409
752.00,0.0413
751.00,0.0417
750.00,0.0421
749.00,0.0426
748.00,0.0431
747.00,0.0435
746.00,0.0440
745.00,0.0445
744.00,0.0450
743.00,0.0454
742.00,0.0458
741.00,0.0461
740.00,0.0465
739.00,0.0468
738.00,0.0470
737.00,0.0473
736.00,0.0474
735.00,0.0476
734.00,0.0479
733.00,0.0483
732.00,0.0487
731.00,0.0492
730.00,0.0497
729.00,0.0502
728.00,0.0508
727.00,0.0513
726.00,0.0519
725.00,0.0525
724.00,0.0532
723.00,0.0539
722.00,0.0546
721.00,0.0555
720.00,0.0563
719.00,0.0570
718.00,0.0576
717.00,0.0581
716.00,0.0586
715.00,0.0591
714.00,0.0596
713.00,0.0601
712.00,0.0606
711.00,0.0610
710.00,0.0614
709.00,0.0618
708.00,0.0622
707.00,0.0626
706.00,0.0631
705.00,0.0634
704.00,0.0638
703.00,0.0642
702.00,0.0646
701.00,0.0649
700.00,0.0652
699.00,0.0655
698.00,0.0657
697.00,0.0660
696.00,0.0662
695.00,0.0664
694.00,0.0666
693.00,0.0668
692.00,0.0670
691.00,0.0673
690.00,0.0676
689.00,0.0677
688.00,0.0679
687.00,0.0680
686.00,0.0681
685.00,0.0682
684.00,0.0684
683.00,0.0686
682.00,0.0688
681.00,0.0690
680.00,0.0692
679.00,0.0694
678.00,0.0696
677.00,0.0698
676.00,0.0699
675.00,0.0701
674.00,0.0703
673.00,0.0705
672.00,0.0708
671.00,0.0711
670.00,0.0715
669.00,0.0718
668.00,0.0719
667.00,0.0719
666.00,0.0719
665.00,0.0720
664.00,0.0721
663.00,0.0723
662.00,0.0724
661.00,0.0725
660.00,0.0727
659.00,0.0729
658.00,0.0731
657.00,0.0733
656.00,0.0734
655.00,0.0735
654.00,0.0736
653.00,0.0738
652.00,0.0740
651.00,0.0742
650.00,0.0743
649.00,0.0744
648.00,0.0746
647.00,0.0747
646.00,0.0748
645.00,0.0750
644.00,0.0751
643.00,0.0753
642.00,0.0754
641.00,0.0756
640.00,0.0758
639.00,0.0760
638.00,0.0761
637.00,0.0763
636.00,0.0766
635.00,0.0770
634.00,0.0774
633.00,0.0777
632.00,0.0780
631.00,0.0784
630.00,0.0787
629.00,0.0792
628.00,0.0797
627.00,0.0802
626.00,0.0806
625.00,0.0810
624.00,0.0814
623.00,0.0818
622.00,0.0821
621.00,0.0825
620.00,0.0828
619.00,0.0831
618.00,0.0833
617.00,0.0835
616.00,0.0836
615.00,0.0838
614.00,0.0840
613.00,0.0842
612.00,0.0844
611.00,0.0844
610.00,0.0844
609.00,0.0844
608.00,0.0844
607.00,0.0843
606.00,0.0841
605.00,0.0840
604.00,0.0839
603.00,0.0838
602.00,0.0836
601.00,0.0833
600.00,0.0831
599.00,0.0830
598.00,0.0830
597.00,0.0830
596.00,0.0829
595.00,0.0828
594.00,0.0828
593.00,0.0828
592.00,0.0829
591.00,0.0831
590.00,0.0832
589.00,0.0833
588.00,0.0834
587.00,0.0834
586.00,0.0834
585.00,0.0836
584.00,0.0837
583.00,0.0839
582.00,0.0841
581.00,0.0843
580.00,0.0844
579.00,0.0844
578.00,0.0844
577.00,0.0843
576.00,0.0844
575.00,0.0845
574.00,0.0848
573.00,0.0851
572.00,0.0853
571.00,0.0854
570.00,0.0854
569.00,0.0855
568.00,0.0856
567.00,0.0858
566.00,0.0861
565.00,0.0864
564.00,0.0868
563.00,0.0870
562.00,0.0872
561.00,0.0874
560.00,0.0876
559.00,0.0879
558.00,0.0881
557.00,0.0883
556.00,0.0886
555.00,0.0889
554.00,0.0892
553.00,0.0895
552.00,0.0899
551.00,0.0901
550.00,0.0903
549.00,0.0905
548.00,0.0908
547.00,0.0911
546.00,0.0914
545.00,0.0916
544.00,0.0919
543.00,0.0922
542.00,0.0924
541.00,0.0926
540.00,0.0928
539.00,0.0930
538.00,0.0931
537.00,0.0933
536.00,0.0937
535.00,0.0939
534.00,0.0941
533.00,0.0941
532.00,0.0941
531.00,0.0941
530.00,0.0942
529.00,0.0943
528.00,0.0945
527.00,0.0946
526.00,0.0947
525.00,0.0950
524.00,0.0955
523.00,0.0959
522.00,0.0961
521.00,0.0961
520.00,0.0960
519.00,0.0958
518.00,0.0954
517.00,0.0950
516.00,0.0948
515.00,0.0946
514.00,0.0944
513.00,0.0942
512.00,0.0940
511.00,0.0938
510.00,0.0935
509.00,0.0931
508.00,0.0928
507.00,0.0923
506.00,0.0918
505.00,0.0915
504.00,0.0912
503.00,0.0909
502.00,0.0904
501.00,0.0900
500.00,0.0897
499.00,0.0894
498.00,0.0891
497.00,0.0886
496.00,0.0883
495.00,0.0880
494.00,0.0876
493.00,0.0873
492.00,0.0870
491.00,0.0867
490.00,0.0864
489.00,0.0861
488.00,0.0860
487.00,0.0860
486.00,0.0860
485.00,0.0858
484.00,0.0855
483.00,0.0851
482.00,0.0845
481.00,0.0841
480.00,0.0838
479.00,0.0837
478.00,0.0835
477.00,0.0833
476.00,0.0833
475.00,0.0832
474.00,0.0832
473.00,0.0830
472.00,0.0828
471.00,0.0824
470.00,0.0819
469.00,0.0816
468.00,0.0815
467.00,0.0817
466.00,0.0819
465.00,0.0820
464.00,0.0820
463.00,0.0819
462.00,0.0817
461.00,0.0814
460.00,0.0810
459.00,0.0805
458.00,0.0801
457.00,0.0800
456.00,0.0802
455.00,0.0803
454.00,0.0801
453.00,0.0798
452.00,0.0800
451.00,0.0806
450.00,0.0815
449.00,0.0824
448.00,0.0832
447.00,0.0834
446.00,0.0831
445.00,0.0826
444.00,0.0823
443.00,0.0821
442.00,0.0820
441.00,0.0818
440.00,0.0815
439.00,0.0811
438.00,0.0808
437.00,0.0805
436.00,0.0802
435.00,0.0795
434.00,0.0786
433.00,0.0777
432.00,0.0771
431.00,0.0766
430.00,0.0760
429.00,0.0754
428.00,0.0748
427.00,0.0745
426.00,0.0743
425.00,0.0741
424.00,0.0737
423.00,0.0730
422.00,0.0723
421.00,0.0717
420.00,0.0714
419.00,0.0711
418.00,0.0708
417.00,0.0706
416.00,0.0706
415.00,0.0707
414.00,0.0706
413.00,0.0703
412.00,0.0701
411.00,0.0700
410.00,0.0697
409.00,0.0695
408.00,0.0693
407.00,0.0689
406.00,0.0681
405.00,0.0673
404.00,0.0669
403.00,0.0670
402.00,0.0672
401.00,0.0674
400.00,0.0673
