Created as New Dataset,Sample 661 By YargerLab Date Wednesday, June 11 2025
cm-1,A
4000.00,0.0099
3999.00,0.0100
3998.00,0.0100
3997.00,0.0100
3996.00,0.0100
3995.00,0.0100
3994.00,0.0099
3993.00,0.0099
3992.00,0.0099
3991.00,0.0100
3990.00,0.0100
3989.00,0.0101
3988.00,0.0101
3987.00,0.0101
3986.00,0.0101
3985.00,0.0100
3984.00,0.0100
3983.00,0.0100
3982.00,0.0100
3981.00,0.0100
3980.00,0.0101
3979.00,0.0101
3978.00,0.0101
3977.00,0.0100
3976.00,0.0100
3975.00,0.0099
3974.00,0.0099
3973.00,0.0099
3972.00,0.0100
3971.00,0.0100
3970.00,0.0101
3969.00,0.0101
3968.00,0.0101
3967.00,0.0100
3966.00,0.0100
3965.00,0.0100
3964.00,0.0100
3963.00,0.0100
3962.00,0.0100
3961.00,0.0099
3960.00,0.0099
3959.00,0.0099
3958.00,0.0099
3957.00,0.0100
3956.00,0.0100
3955.00,0.0100
3954.00,0.0099
3953.00,0.0099
3952.00,0.0099
3951.00,0.0100
3950.00,0.0100
3949.00,0.0100
3948.00,0.0100
3947.00,0.0099
3946.00,0.0099
3945.00,0.0098
3944.00,0.0097
3943.00,0.0098
3942.00,0.0098
3941.00,0.0099
3940.00,0.0099
3939.00,0.0099
3938.00,0.0099
3937.00,0.0098
3936.00,0.0098
3935.00,0.0098
3934.00,0.0098
3933.00,0.0099
3932.00,0.0099
3931.00,0.0100
3930.00,0.0101
3929.00,0.0101
3928.00,0.0100
3927.00,0.0100
3926.00,0.0099
3925.00,0.0098
3924.00,0.0099
3923.00,0.0099
3922.00,0.0100
3921.00,0.0100
3920.00,0.0100
3919.00,0.0100
3918.00,0.0099
3917.00,0.0099
3916.00,0.0099
3915.00,0.0099
3914.00,0.0100
3913.00,0.0100
3912.00,0.0100
3911.00,0.0100
3910.00,0.0100
3909.00,0.0100
3908.00,0.0100
3907.00,0.0100
3906.00,0.0100
3905.00,0.0099
3904.00,0.0098
3903.00,0.0097
3902.00,0.0097
3901.00,0.0096
3900.00,0.0097
3899.00,0.0097
3898.00,0.0098
3897.00,0.0099
3896.00,0.0099
3895.00,0.0098
3894.00,0.0098
3893.00,0.0097
3892.00,0.0097
3891.00,0.0097
3890.00,0.0098
3889.00,0.0098
3888.00,0.0098
3887.00,0.0097
3886.00,0.0097
3885.00,0.0096
3884.00,0.0097
3883.00,0.0097
3882.00,0.0098
3881.00,0.0098
3880.00,0.0098
3879.00,0.0099
3878.00,0.0100
3877.00,0.0100
3876.00,0.0100
3875.00,0.0100
3874.00,0.0099
3873.00,0.0100
3872.00,0.0100
3871.00,0.0100
3870.00,0.0100
3869.00,0.0100
3868.00,0.0100
3867.00,0.0100
3866.00,0.0099
3865.00,0.0099
3864.00,0.0099
3863.00,0.0100
3862.00,0.0100
3861.00,0.0099
3860.00,0.0099
3859.00,0.0099
3858.00,0.0099
3857.00,0.0100
3856.00,0.0099
3855.00,0.0098
3854.00,0.0097
3853.00,0.0098
3852.00,0.0098
3851.00,0.0099
3850.00,0.0099
3849.00,0.0099
3848.00,0.0099
3847.00,0.0098
3846.00,0.0098
3845.00,0.0098
3844.00,0.0098
3843.00,0.0098
3842.00,0.0099
3841.00,0.0099
3840.00,0.0099
3839.00,0.0099
3838.00,0.0099
3837.00,0.0100
3836.00,0.0100
3835.00,0.0101
3834.00,0.0101
3833.00,0.0102
3832.00,0.0102
3831.00,0.0101
3830.00,0.0100
3829.00,0.0099
3828.00,0.0098
3827.00,0.0098
3826.00,0.0099
3825.00,0.0100
3824.00,0.0100
3823.00,0.0100
3822.00,0.0100
3821.00,0.0099
3820.00,0.0098
3819.00,0.0098
3818.00,0.0098
3817.00,0.0097
3816.00,0.0097
3815.00,0.0097
3814.00,0.0097
3813.00,0.0097
3812.00,0.0098
3811.00,0.0098
3810.00,0.0098
3809.00,0.0098
3808.00,0.0098
3807.00,0.0097
3806.00,0.0097
3805.00,0.0098
3804.00,0.0098
3803.00,0.0099
3802.00,0.0099
3801.00,0.0100
3800.00,0.0101
3799.00,0.0102
3798.00,0.0101
3797.00,0.0099
3796.00,0.0098
3795.00,0.0097
3794.00,0.0096
3793.00,0.0096
3792.00,0.0096
3791.00,0.0097
3790.00,0.0098
3789.00,0.0098
3788.00,0.0098
3787.00,0.0098
3786.00,0.0097
3785.00,0.0097
3784.00,0.0097
3783.00,0.0097
3782.00,0.0097
3781.00,0.0097
3780.00,0.0098
3779.00,0.0098
3778.00,0.0098
3777.00,0.0098
3776.00,0.0098
3775.00,0.0097
3774.00,0.0097
3773.00,0.0097
3772.00,0.0097
3771.00,0.0098
3770.00,0.0099
3769.00,0.0099
3768.00,0.0099
3767.00,0.0099
3766.00,0.0098
3765.00,0.0097
3764.00,0.0097
3763.00,0.0097
3762.00,0.0096
3761.00,0.0096
3760.00,0.0096
3759.00,0.0096
3758.00,0.0096
3757.00,0.0097
3756.00,0.0097
3755.00,0.0098
3754.00,0.0098
3753.00,0.0099
3752.00,0.0100
3751.00,0.0100
3750.00,0.0100
3749.00,0.0099
3748.00,0.0097
3747.00,0.0097
3746.00,0.0096
3745.00,0.0096
3744.00,0.0096
3743.00,0.0097
3742.00,0.0098
3741.00,0.0098
3740.00,0.0098
3739.00,0.0098
3738.00,0.0098
3737.00,0.0098
3736.00,0.0097
3735.00,0.0095
3734.00,0.0094
3733.00,0.0093
3732.00,0.0093
3731.00,0.0093
3730.00,0.0094
3729.00,0.0095
3728.00,0.0096
3727.00,0.0096
3726.00,0.0096
3725.00,0.0095
3724.00,0.0094
3723.00,0.0092
3722.00,0.0092
3721.00,0.0092
3720.00,0.0093
3719.00,0.0093
3718.00,0.0093
3717.00,0.0094
3716.00,0.0094
3715.00,0.0095
3714.00,0.0096
3713.00,0.0096
3712.00,0.0097
3711.00,0.0097
3710.00,0.0096
3709.00,0.0095
3708.00,0.0095
3707.00,0.0094
3706.00,0.0094
3705.00,0.0094
3704.00,0.0094
3703.00,0.0093
3702.00,0.0093
3701.00,0.0093
3700.00,0.0094
3699.00,0.0095
3698.00,0.0095
3697.00,0.0096
3696.00,0.0095
3695.00,0.0095
3694.00,0.0094
3693.00,0.0094
3692.00,0.0094
3691.00,0.0094
3690.00,0.0094
3689.00,0.0093
3688.00,0.0093
3687.00,0.0093
3686.00,0.0092
3685.00,0.0092
3684.00,0.0092
3683.00,0.0091
3682.00,0.0091
3681.00,0.0092
3680.00,0.0093
3679.00,0.0095
3678.00,0.0097
3677.00,0.0098
3676.00,0.0097
3675.00,0.0096
3674.00,0.0095
3673.00,0.0094
3672.00,0.0093
3671.00,0.0093
3670.00,0.0093
3669.00,0.0095
3668.00,0.0096
3667.00,0.0096
3666.00,0.0096
3665.00,0.0095
3664.00,0.0094
3663.00,0.0094
3662.00,0.0094
3661.00,0.0095
3660.00,0.0095
3659.00,0.0096
3658.00,0.0097
3657.00,0.0097
3656.00,0.0098
3655.00,0.0098
3654.00,0.0098
3653.00,0.0097
3652.00,0.0096
3651.00,0.0095
3650.00,0.0094
3649.00,0.0095
3648.00,0.0096
3647.00,0.0098
3646.00,0.0099
3645.00,0.0099
3644.00,0.0098
3643.00,0.0097
3642.00,0.0096
3641.00,0.0096
3640.00,0.0097
3639.00,0.0097
3638.00,0.0098
3637.00,0.0098
3636.00,0.0098
3635.00,0.0099
3634.00,0.0099
3633.00,0.0100
3632.00,0.0101
3631.00,0.0102
3630.00,0.0102
3629.00,0.0102
3628.00,0.0102
3627.00,0.0102
3626.00,0.0102
3625.00,0.0103
3624.00,0.0104
3623.00,0.0105
3622.00,0.0106
3621.00,0.0107
3620.00,0.0106
3619.00,0.0104
3618.00,0.0103
3617.00,0.0103
3616.00,0.0103
3615.00,0.0104
3614.00,0.0103
3613.00,0.0103
3612.00,0.0102
3611.00,0.0102
3610.00,0.0102
3609.00,0.0102
3608.00,0.0103
3607.00,0.0105
3606.00,0.0106
3605.00,0.0106
3604.00,0.0106
3603.00,0.0107
3602.00,0.0108
3601.00,0.0109
3600.00,0.0109
3599.00,0.0109
3598.00,0.0109
3597.00,0.0108
3596.00,0.0108
3595.00,0.0107
3594.00,0.0107
3593.00,0.0107
3592.00,0.0108
3591.00,0.0108
3590.00,0.0109
3589.00,0.0109
3588.00,0.0110
3587.00,0.0111
3586.00,0.0111
3585.00,0.0112
3584.00,0.0112
3583.00,0.0113
3582.00,0.0113
3581.00,0.0114
3580.00,0.0115
3579.00,0.0116
3578.00,0.0116
3577.00,0.0117
3576.00,0.0118
3575.00,0.0118
3574.00,0.0119
3573.00,0.0118
3572.00,0.0118
3571.00,0.0118
3570.00,0.0118
3569.00,0.0118
3568.00,0.0118
3567.00,0.0118
3566.00,0.0118
3565.00,0.0119
3564.00,0.0121
3563.00,0.0122
3562.00,0.0123
3561.00,0.0124
3560.00,0.0124
3559.00,0.0124
3558.00,0.0125
3557.00,0.0126
3556.00,0.0127
3555.00,0.0128
3554.00,0.0129
3553.00,0.0129
3552.00,0.0128
3551.00,0.0128
3550.00,0.0128
3549.00,0.0129
3548.00,0.0130
3547.00,0.0130
3546.00,0.0130
3545.00,0.0131
3544.00,0.0131
3543.00,0.0131
3542.00,0.0132
3541.00,0.0134
3540.00,0.0135
3539.00,0.0136
3538.00,0.0136
3537.00,0.0137
3536.00,0.0138
3535.00,0.0138
3534.00,0.0139
3533.00,0.0139
3532.00,0.0138
3531.00,0.0138
3530.00,0.0138
3529.00,0.0139
3528.00,0.0139
3527.00,0.0139
3526.00,0.0139
3525.00,0.0140
3524.00,0.0140
3523.00,0.0142
3522.00,0.0144
3521.00,0.0147
3520.00,0.0148
3519.00,0.0149
3518.00,0.0148
3517.00,0.0147
3516.00,0.0146
3515.00,0.0146
3514.00,0.0146
3513.00,0.0147
3512.00,0.0147
3511.00,0.0147
3510.00,0.0148
3509.00,0.0148
3508.00,0.0148
3507.00,0.0148
3506.00,0.0149
3505.00,0.0150
3504.00,0.0151
3503.00,0.0151
3502.00,0.0152
3501.00,0.0152
3500.00,0.0152
3499.00,0.0152
3498.00,0.0153
3497.00,0.0153
3496.00,0.0154
3495.00,0.0155
3494.00,0.0156
3493.00,0.0157
3492.00,0.0158
3491.00,0.0158
3490.00,0.0159
3489.00,0.0160
3488.00,0.0161
3487.00,0.0162
3486.00,0.0163
3485.00,0.0163
3484.00,0.0163
3483.00,0.0164
3482.00,0.0164
3481.00,0.0165
3480.00,0.0167
3479.00,0.0168
3478.00,0.0169
3477.00,0.0169
3476.00,0.0169
3475.00,0.0169
3474.00,0.0170
3473.00,0.0171
3472.00,0.0172
3471.00,0.0172
3470.00,0.0172
3469.00,0.0172
3468.00,0.0173
3467.00,0.0173
3466.00,0.0174
3465.00,0.0175
3464.00,0.0176
3463.00,0.0177
3462.00,0.0177
3461.00,0.0178
3460.00,0.0178
3459.00,0.0179
3458.00,0.0180
3457.00,0.0181
3456.00,0.0182
3455.00,0.0183
3454.00,0.0184
3453.00,0.0185
3452.00,0.0186
3451.00,0.0186
3450.00,0.0187
3449.00,0.0188
3448.00,0.0189
3447.00,0.0189
3446.00,0.0190
3445.00,0.0191
3444.00,0.0192
3443.00,0.0193
3442.00,0.0193
3441.00,0.0194
3440.00,0.0194
3439.00,0.0194
3438.00,0.0193
3437.00,0.0194
3436.00,0.0194
3435.00,0.0195
3434.00,0.0197
3433.00,0.0198
3432.00,0.0198
3431.00,0.0199
3430.00,0.0200
3429.00,0.0201
3428.00,0.0202
3427.00,0.0204
3426.00,0.0205
3425.00,0.0206
3424.00,0.0207
3423.00,0.0207
3422.00,0.0207
3421.00,0.0207
3420.00,0.0208
3419.00,0.0209
3418.00,0.0210
3417.00,0.0211
3416.00,0.0212
3415.00,0.0213
3414.00,0.0213
3413.00,0.0214
3412.00,0.0215
3411.00,0.0216
3410.00,0.0217
3409.00,0.0218
3408.00,0.0219
3407.00,0.0219
3406.00,0.0220
3405.00,0.0221
3404.00,0.0222
3403.00,0.0223
3402.00,0.0224
3401.00,0.0224
3400.00,0.0225
3399.00,0.0227
3398.00,0.0228
3397.00,0.0229
3396.00,0.0230
3395.00,0.0231
3394.00,0.0232
3393.00,0.0233
3392.00,0.0234
3391.00,0.0235
3390.00,0.0235
3389.00,0.0235
3388.00,0.0235
3387.00,0.0236
3386.00,0.0236
3385.00,0.0237
3384.00,0.0237
3383.00,0.0238
3382.00,0.0238
3381.00,0.0239
3380.00,0.0240
3379.00,0.0241
3378.00,0.0243
3377.00,0.0245
3376.00,0.0247
3375.00,0.0249
3374.00,0.0249
3373.00,0.0249
3372.00,0.0249
3371.00,0.0249
3370.00,0.0250
3369.00,0.0251
3368.00,0.0253
3367.00,0.0254
3366.00,0.0255
3365.00,0.0257
3364.00,0.0259
3363.00,0.0260
3362.00,0.0261
3361.00,0.0262
3360.00,0.0263
3359.00,0.0264
3358.00,0.0265
3357.00,0.0266
3356.00,0.0266
3355.00,0.0267
3354.00,0.0269
3353.00,0.0271
3352.00,0.0274
3351.00,0.0277
3350.00,0.0278
3349.00,0.0279
3348.00,0.0278
3347.00,0.0278
3346.00,0.0278
3345.00,0.0279
3344.00,0.0280
3343.00,0.0282
3342.00,0.0284
3341.00,0.0286
3340.00,0.0287
3339.00,0.0288
3338.00,0.0290
3337.00,0.0292
3336.00,0.0294
3335.00,0.0296
3334.00,0.0298
3333.00,0.0299
3332.00,0.0301
3331.00,0.0303
3330.00,0.0304
3329.00,0.0305
3328.00,0.0307
3327.00,0.0309
3326.00,0.0311
3325.00,0.0313
3324.00,0.0315
3323.00,0.0316
3322.00,0.0317
3321.00,0.0318
3320.00,0.0320
3319.00,0.0323
3318.00,0.0325
3317.00,0.0328
3316.00,0.0331
3315.00,0.0333
3314.00,0.0334
3313.00,0.0336
3312.00,0.0338
3311.00,0.0339
3310.00,0.0340
3309.00,0.0340
3308.00,0.0341
3307.00,0.0342
3306.00,0.0344
3305.00,0.0346
3304.00,0.0349
3303.00,0.0351
3302.00,0.0354
3301.00,0.0356
3300.00,0.0358
3299.00,0.0360
3298.00,0.0360
3297.00,0.0361
3296.00,0.0362
3295.00,0.0364
3294.00,0.0367
3293.00,0.0369
3292.00,0.0371
3291.00,0.0373
3290.00,0.0374
3289.00,0.0375
3288.00,0.0376
3287.00,0.0378
3286.00,0.0380
3285.00,0.0381
3284.00,0.0382
3283.00,0.0383
3282.00,0.0383
3281.00,0.0383
3280.00,0.0384
3279.00,0.0385
3278.00,0.0387
3277.00,0.0387
3276.00,0.0388
3275.00,0.0388
3274.00,0.0388
3273.00,0.0388
3272.00,0.0388
3271.00,0.0388
3270.00,0.0390
3269.00,0.0392
3268.00,0.0393
3267.00,0.0392
3266.00,0.0391
3265.00,0.0389
3264.00,0.0387
3263.00,0.0385
3262.00,0.0383
3261.00,0.0380
3260.00,0.0378
3259.00,0.0377
3258.00,0.0375
3257.00,0.0374
3256.00,0.0373
3255.00,0.0372
3254.00,0.0372
3253.00,0.0371
3252.00,0.0371
3251.00,0.0370
3250.00,0.0369
3249.00,0.0368
3248.00,0.0366
3247.00,0.0363
3246.00,0.0361
3245.00,0.0360
3244.00,0.0358
3243.00,0.0357
3242.00,0.0356
3241.00,0.0355
3240.00,0.0354
3239.00,0.0353
3238.00,0.0352
3237.00,0.0351
3236.00,0.0350
3235.00,0.0349
3234.00,0.0348
3233.00,0.0346
3232.00,0.0345
3231.00,0.0344
3230.00,0.0344
3229.00,0.0343
3228.00,0.0343
3227.00,0.0342
3226.00,0.0341
3225.00,0.0339
3224.00,0.0338
3223.00,0.0337
3222.00,0.0337
3221.00,0.0337
3220.00,0.0336
3219.00,0.0336
3218.00,0.0335
3217.00,0.0335
3216.00,0.0334
3215.00,0.0333
3214.00,0.0332
3213.00,0.0331
3212.00,0.0331
3211.00,0.0330
3210.00,0.0330
3209.00,0.0329
3208.00,0.0328
3207.00,0.0327
3206.00,0.0326
3205.00,0.0326
3204.00,0.0325
3203.00,0.0324
3202.00,0.0323
3201.00,0.0322
3200.00,0.0321
3199.00,0.0321
3198.00,0.0321
3197.00,0.0321
3196.00,0.0320
3195.00,0.0320
3194.00,0.0318
3193.00,0.0317
3192.00,0.0316
3191.00,0.0315
3190.00,0.0314
3189.00,0.0314
3188.00,0.0313
3187.00,0.0311
3186.00,0.0310
3185.00,0.0307
3184.00,0.0306
3183.00,0.0304
3182.00,0.0304
3181.00,0.0304
3180.00,0.0303
3179.00,0.0302
3178.00,0.0301
3177.00,0.0299
3176.00,0.0298
3175.00,0.0298
3174.00,0.0298
3173.00,0.0298
3172.00,0.0297
3171.00,0.0295
3170.00,0.0294
3169.00,0.0292
3168.00,0.0291
3167.00,0.0289
3166.00,0.0288
3165.00,0.0287
3164.00,0.0285
3163.00,0.0284
3162.00,0.0283
3161.00,0.0281
3160.00,0.0280
3159.00,0.0279
3158.00,0.0279
3157.00,0.0278
3156.00,0.0277
3155.00,0.0275
3154.00,0.0274
3153.00,0.0273
3152.00,0.0272
3151.00,0.0272
3150.00,0.0271
3149.00,0.0270
3148.00,0.0269
3147.00,0.0268
3146.00,0.0267
3145.00,0.0267
3144.00,0.0266
3143.00,0.0264
3142.00,0.0263
3141.00,0.0262
3140.00,0.0261
3139.00,0.0261
3138.00,0.0260
3137.00,0.0260
3136.00,0.0259
3135.00,0.0258
3134.00,0.0256
3133.00,0.0255
3132.00,0.0254
3131.00,0.0254
3130.00,0.0254
3129.00,0.0254
3128.00,0.0253
3127.00,0.0253
3126.00,0.0252
3125.00,0.0252
3124.00,0.0251
3123.00,0.0250
3122.00,0.0249
3121.00,0.0248
3120.00,0.0247
3119.00,0.0246
3118.00,0.0246
3117.00,0.0246
3116.00,0.0247
3115.00,0.0248
3114.00,0.0249
3113.00,0.0250
3112.00,0.0249
3111.00,0.0248
3110.00,0.0247
3109.00,0.0247
3108.00,0.0247
3107.00,0.0248
3106.00,0.0249
3105.00,0.0249
3104.00,0.0249
3103.00,0.0248
3102.00,0.0249
3101.00,0.0249
3100.00,0.0250
3099.00,0.0251
3098.00,0.0251
3097.00,0.0252
3096.00,0.0252
3095.00,0.0251
3094.00,0.0251
3093.00,0.0251
3092.00,0.0251
3091.00,0.0253
3090.00,0.0254
3089.00,0.0254
3088.00,0.0254
3087.00,0.0253
3086.00,0.0252
3085.00,0.0253
3084.00,0.0254
3083.00,0.0254
3082.00,0.0255
3081.00,0.0255
3080.00,0.0255
3079.00,0.0255
3078.00,0.0254
3077.00,0.0254
3076.00,0.0255
3075.00,0.0255
3074.00,0.0256
3073.00,0.0256
3072.00,0.0257
3071.00,0.0257
3070.00,0.0257
3069.00,0.0257
3068.00,0.0257
3067.00,0.0257
3066.00,0.0257
3065.00,0.0257
3064.00,0.0257
3063.00,0.0256
3062.00,0.0256
3061.00,0.0256
3060.00,0.0256
3059.00,0.0256
3058.00,0.0256
3057.00,0.0256
3056.00,0.0256
3055.00,0.0256
3054.00,0.0255
3053.00,0.0254
3052.00,0.0253
3051.00,0.0253
3050.00,0.0252
3049.00,0.0252
3048.00,0.0251
3047.00,0.0250
3046.00,0.0249
3045.00,0.0248
3044.00,0.0248
3043.00,0.0248
3042.00,0.0248
3041.00,0.0248
3040.00,0.0248
3039.00,0.0247
3038.00,0.0245
3037.00,0.0244
3036.00,0.0243
3035.00,0.0242
3034.00,0.0242
3033.00,0.0241
3032.00,0.0241
3031.00,0.0241
3030.00,0.0240
3029.00,0.0239
3028.00,0.0238
3027.00,0.0238
3026.00,0.0237
3025.00,0.0236
3024.00,0.0236
3023.00,0.0235
3022.00,0.0234
3021.00,0.0233
3020.00,0.0231
3019.00,0.0229
3018.00,0.0228
3017.00,0.0227
3016.00,0.0227
3015.00,0.0228
3014.00,0.0228
3013.00,0.0228
3012.00,0.0227
3011.00,0.0227
3010.00,0.0226
3009.00,0.0226
3008.00,0.0226
3007.00,0.0226
3006.00,0.0226
3005.00,0.0227
3004.00,0.0227
3003.00,0.0227
3002.00,0.0226
3001.00,0.0226
3000.00,0.0225
2999.00,0.0224
2998.00,0.0224
2997.00,0.0224
2996.00,0.0224
2995.00,0.0225
2994.00,0.0225
2993.00,0.0226
2992.00,0.0227
2991.00,0.0227
2990.00,0.0228
2989.00,0.0230
2988.00,0.0231
2987.00,0.0232
2986.00,0.0233
2985.00,0.0234
2984.00,0.0235
2983.00,0.0236
2982.00,0.0238
2981.00,0.0239
2980.00,0.0240
2979.00,0.0241
2978.00,0.0241
2977.00,0.0242
2976.00,0.0244
2975.00,0.0246
2974.00,0.0247
2973.00,0.0249
2972.00,0.0250
2971.00,0.0251
2970.00,0.0252
2969.00,0.0253
2968.00,0.0254
2967.00,0.0256
2966.00,0.0257
2965.00,0.0258
2964.00,0.0259
2963.00,0.0259
2962.00,0.0259
2961.00,0.0259
2960.00,0.0260
2959.00,0.0260
2958.00,0.0260
2957.00,0.0260
2956.00,0.0259
2955.00,0.0259
2954.00,0.0258
2953.00,0.0258
2952.00,0.0257
2951.00,0.0257
2950.00,0.0256
2949.00,0.0255
2948.00,0.0254
2947.00,0.0255
2946.00,0.0255
2945.00,0.0256
2944.00,0.0258
2943.00,0.0259
2942.00,0.0262
2941.00,0.0264
2940.00,0.0267
2939.00,0.0268
2938.00,0.0270
2937.00,0.0271
2936.00,0.0272
2935.00,0.0273
2934.00,0.0274
2933.00,0.0274
2932.00,0.0274
2931.00,0.0274
2930.00,0.0275
2929.00,0.0276
2928.00,0.0277
2927.00,0.0277
2926.00,0.0277
2925.00,0.0276
2924.00,0.0275
2923.00,0.0275
2922.00,0.0275
2921.00,0.0274
2920.00,0.0273
2919.00,0.0272
2918.00,0.0269
2917.00,0.0267
2916.00,0.0265
2915.00,0.0262
2914.00,0.0260
2913.00,0.0258
2912.00,0.0255
2911.00,0.0253
2910.00,0.0250
2909.00,0.0248
2908.00,0.0247
2907.00,0.0246
2906.00,0.0245
2905.00,0.0244
2904.00,0.0244
2903.00,0.0243
2902.00,0.0242
2901.00,0.0241
2900.00,0.0239
2899.00,0.0238
2898.00,0.0237
2897.00,0.0236
2896.00,0.0236
2895.00,0.0235
2894.00,0.0235
2893.00,0.0235
2892.00,0.0234
2891.00,0.0234
2890.00,0.0234
2889.00,0.0234
2888.00,0.0234
2887.00,0.0234
2886.00,0.0234
2885.00,0.0234
2884.00,0.0235
2883.00,0.0235
2882.00,0.0236
2881.00,0.0237
2880.00,0.0237
2879.00,0.0238
2878.00,0.0238
2877.00,0.0237
2876.00,0.0237
2875.00,0.0237
2874.00,0.0236
2873.00,0.0236
2872.00,0.0235
2871.00,0.0235
2870.00,0.0234
2869.00,0.0233
2868.00,0.0232
2867.00,0.0231
2866.00,0.0229
2865.00,0.0229
2864.00,0.0229
2863.00,0.0229
2862.00,0.0229
2861.00,0.0229
2860.00,0.0228
2859.00,0.0228
2858.00,0.0227
2857.00,0.0227
2856.00,0.0227
2855.00,0.0227
2854.00,0.0227
2853.00,0.0227
2852.00,0.0226
2851.00,0.0226
2850.00,0.0226
2849.00,0.0225
2848.00,0.0224
2847.00,0.0223
2846.00,0.0222
2845.00,0.0219
2844.00,0.0217
2843.00,0.0215
2842.00,0.0213
2841.00,0.0212
2840.00,0.0211
2839.00,0.0210
2838.00,0.0209
2837.00,0.0209
2836.00,0.0208
2835.00,0.0208
2834.00,0.0208
2833.00,0.0207
2832.00,0.0207
2831.00,0.0206
2830.00,0.0205
2829.00,0.0204
2828.00,0.0204
2827.00,0.0203
2826.00,0.0203
2825.00,0.0202
2824.00,0.0201
2823.00,0.0201
2822.00,0.0201
2821.00,0.0201
2820.00,0.0200
2819.00,0.0200
2818.00,0.0199
2817.00,0.0198
2816.00,0.0198
2815.00,0.0198
2814.00,0.0198
2813.00,0.0198
2812.00,0.0198
2811.00,0.0198
2810.00,0.0198
2809.00,0.0198
2808.00,0.0197
2807.00,0.0196
2806.00,0.0196
2805.00,0.0195
2804.00,0.0195
2803.00,0.0194
2802.00,0.0194
2801.00,0.0194
2800.00,0.0194
2799.00,0.0194
2798.00,0.0194
2797.00,0.0194
2796.00,0.0194
2795.00,0.0194
2794.00,0.0194
2793.00,0.0194
2792.00,0.0193
2791.00,0.0192
2790.00,0.0191
2789.00,0.0190
2788.00,0.0190
2787.00,0.0190
2786.00,0.0191
2785.00,0.0191
2784.00,0.0191
2783.00,0.0191
2782.00,0.0190
2781.00,0.0189
2780.00,0.0189
2779.00,0.0189
2778.00,0.0189
2777.00,0.0188
2776.00,0.0188
2775.00,0.0187
2774.00,0.0187
2773.00,0.0187
2772.00,0.0187
2771.00,0.0187
2770.00,0.0187
2769.00,0.0186
2768.00,0.0186
2767.00,0.0186
2766.00,0.0185
2765.00,0.0185
2764.00,0.0185
2763.00,0.0185
2762.00,0.0185
2761.00,0.0185
2760.00,0.0184
2759.00,0.0183
2758.00,0.0182
2757.00,0.0182
2756.00,0.0182
2755.00,0.0181
2754.00,0.0181
2753.00,0.0181
2752.00,0.0182
2751.00,0.0182
2750.00,0.0182
2749.00,0.0181
2748.00,0.0181
2747.00,0.0180
2746.00,0.0179
2745.00,0.0179
2744.00,0.0178
2743.00,0.0179
2742.00,0.0179
2741.00,0.0179
2740.00,0.0179
2739.00,0.0179
2738.00,0.0179
2737.00,0.0179
2736.00,0.0179
2735.00,0.0179
2734.00,0.0179
2733.00,0.0179
2732.00,0.0178
2731.00,0.0177
2730.00,0.0177
2729.00,0.0177
2728.00,0.0177
2727.00,0.0176
2726.00,0.0176
2725.00,0.0175
2724.00,0.0175
2723.00,0.0174
2722.00,0.0174
2721.00,0.0174
2720.00,0.0175
2719.00,0.0175
2718.00,0.0175
2717.00,0.0175
2716.00,0.0174
2715.00,0.0174
2714.00,0.0173
2713.00,0.0173
2712.00,0.0173
2711.00,0.0173
2710.00,0.0172
2709.00,0.0172
2708.00,0.0171
2707.00,0.0171
2706.00,0.0172
2705.00,0.0172
2704.00,0.0172
2703.00,0.0172
2702.00,0.0173
2701.00,0.0172
2700.00,0.0172
2699.00,0.0171
2698.00,0.0170
2697.00,0.0169
2696.00,0.0170
2695.00,0.0170
2694.00,0.0170
2693.00,0.0170
2692.00,0.0170
2691.00,0.0170
2690.00,0.0170
2689.00,0.0170
2688.00,0.0169
2687.00,0.0169
2686.00,0.0169
2685.00,0.0169
2684.00,0.0168
2683.00,0.0167
2682.00,0.0167
2681.00,0.0168
2680.00,0.0168
2679.00,0.0168
2678.00,0.0168
2677.00,0.0167
2676.00,0.0167
2675.00,0.0167
2674.00,0.0167
2673.00,0.0167
2672.00,0.0167
2671.00,0.0167
2670.00,0.0167
2669.00,0.0167
2668.00,0.0167
2667.00,0.0167
2666.00,0.0168
2665.00,0.0169
2664.00,0.0169
2663.00,0.0170
2662.00,0.0170
2661.00,0.0170
2660.00,0.0170
2659.00,0.0170
2658.00,0.0170
2657.00,0.0170
2656.00,0.0170
2655.00,0.0169
2654.00,0.0169
2653.00,0.0169
2652.00,0.0169
2651.00,0.0169
2650.00,0.0169
2649.00,0.0169
2648.00,0.0169
2647.00,0.0169
2646.00,0.0168
2645.00,0.0168
2644.00,0.0167
2643.00,0.0166
2642.00,0.0166
2641.00,0.0166
2640.00,0.0166
2639.00,0.0166
2638.00,0.0165
2637.00,0.0165
2636.00,0.0165
2635.00,0.0165
2634.00,0.0166
2633.00,0.0167
2632.00,0.0167
2631.00,0.0168
2630.00,0.0167
2629.00,0.0167
2628.00,0.0166
2627.00,0.0166
2626.00,0.0166
2625.00,0.0166
2624.00,0.0166
2623.00,0.0165
2622.00,0.0166
2621.00,0.0166
2620.00,0.0167
2619.00,0.0167
2618.00,0.0166
2617.00,0.0165
2616.00,0.0164
2615.00,0.0163
2614.00,0.0163
2613.00,0.0164
2612.00,0.0164
2611.00,0.0164
2610.00,0.0164
2609.00,0.0163
2608.00,0.0162
2607.00,0.0162
2606.00,0.0162
2605.00,0.0162
2604.00,0.0161
2603.00,0.0160
2602.00,0.0159
2601.00,0.0159
2600.00,0.0160
2599.00,0.0160
2598.00,0.0160
2597.00,0.0160
2596.00,0.0160
2595.00,0.0160
2594.00,0.0161
2593.00,0.0161
2592.00,0.0161
2591.00,0.0161
2590.00,0.0160
2589.00,0.0159
2588.00,0.0158
2587.00,0.0157
2586.00,0.0157
2585.00,0.0157
2584.00,0.0158
2583.00,0.0159
2582.00,0.0159
2581.00,0.0159
2580.00,0.0159
2579.00,0.0158
2578.00,0.0158
2577.00,0.0158
2576.00,0.0157
2575.00,0.0157
2574.00,0.0156
2573.00,0.0156
2572.00,0.0157
2571.00,0.0157
2570.00,0.0157
2569.00,0.0157
2568.00,0.0156
2567.00,0.0155
2566.00,0.0155
2565.00,0.0155
2564.00,0.0155
2563.00,0.0154
2562.00,0.0154
2561.00,0.0154
2560.00,0.0153
2559.00,0.0153
2558.00,0.0153
2557.00,0.0153
2556.00,0.0154
2555.00,0.0155
2554.00,0.0155
2553.00,0.0154
2552.00,0.0155
2551.00,0.0155
2550.00,0.0155
2549.00,0.0155
2548.00,0.0154
2547.00,0.0153
2546.00,0.0151
2545.00,0.0151
2544.00,0.0151
2543.00,0.0151
2542.00,0.0152
2541.00,0.0152
2540.00,0.0152
2539.00,0.0152
2538.00,0.0152
2537.00,0.0151
2536.00,0.0151
2535.00,0.0150
2534.00,0.0150
2533.00,0.0149
2532.00,0.0149
2531.00,0.0149
2530.00,0.0150
2529.00,0.0150
2528.00,0.0151
2527.00,0.0151
2526.00,0.0151
2525.00,0.0150
2524.00,0.0150
2523.00,0.0150
2522.00,0.0150
2521.00,0.0150
2520.00,0.0150
2519.00,0.0150
2518.00,0.0150
2517.00,0.0150
2516.00,0.0151
2515.00,0.0151
2514.00,0.0151
2513.00,0.0149
2512.00,0.0148
2511.00,0.0147
2510.00,0.0148
2509.00,0.0148
2508.00,0.0147
2507.00,0.0145
2506.00,0.0144
2505.00,0.0144
2504.00,0.0144
2503.00,0.0146
2502.00,0.0147
2501.00,0.0147
2500.00,0.0147
2499.00,0.0148
2498.00,0.0148
2497.00,0.0148
2496.00,0.0148
2495.00,0.0148
2494.00,0.0148
2493.00,0.0148
2492.00,0.0147
2491.00,0.0147
2490.00,0.0146
2489.00,0.0146
2488.00,0.0146
2487.00,0.0146
2486.00,0.0148
2485.00,0.0149
2484.00,0.0149
2483.00,0.0149
2482.00,0.0149
2481.00,0.0148
2480.00,0.0148
2479.00,0.0148
2478.00,0.0147
2477.00,0.0147
2476.00,0.0146
2475.00,0.0146
2474.00,0.0147
2473.00,0.0147
2472.00,0.0148
2471.00,0.0148
2470.00,0.0147
2469.00,0.0146
2468.00,0.0145
2467.00,0.0145
2466.00,0.0144
2465.00,0.0144
2464.00,0.0143
2463.00,0.0143
2462.00,0.0143
2461.00,0.0143
2460.00,0.0143
2459.00,0.0144
2458.00,0.0145
2457.00,0.0147
2456.00,0.0148
2455.00,0.0148
2454.00,0.0147
2453.00,0.0146
2452.00,0.0146
2451.00,0.0146
2450.00,0.0145
2449.00,0.0145
2448.00,0.0144
2447.00,0.0144
2446.00,0.0143
2445.00,0.0143
2444.00,0.0143
2443.00,0.0142
2442.00,0.0142
2441.00,0.0142
2440.00,0.0142
2439.00,0.0142
2438.00,0.0141
2437.00,0.0141
2436.00,0.0140
2435.00,0.0141
2434.00,0.0142
2433.00,0.0142
2432.00,0.0143
2431.00,0.0142
2430.00,0.0142
2429.00,0.0141
2428.00,0.0141
2427.00,0.0141
2426.00,0.0141
2425.00,0.0141
2424.00,0.0140
2423.00,0.0140
2422.00,0.0141
2421.00,0.0141
2420.00,0.0142
2419.00,0.0143
2418.00,0.0143
2417.00,0.0141
2416.00,0.0139
2415.00,0.0138
2414.00,0.0138
2413.00,0.0139
2412.00,0.0139
2411.00,0.0140
2410.00,0.0140
2409.00,0.0139
2408.00,0.0138
2407.00,0.0137
2406.00,0.0136
2405.00,0.0136
2404.00,0.0136
2403.00,0.0137
2402.00,0.0137
2401.00,0.0137
2400.00,0.0137
2399.00,0.0137
2398.00,0.0136
2397.00,0.0136
2396.00,0.0136
2395.00,0.0136
2394.00,0.0136
2393.00,0.0135
2392.00,0.0135
2391.00,0.0135
2390.00,0.0135
2389.00,0.0135
2388.00,0.0135
2387.00,0.0135
2386.00,0.0135
2385.00,0.0135
2384.00,0.0135
2383.00,0.0134
2382.00,0.0133
2381.00,0.0132
2380.00,0.0131
2379.00,0.0131
2378.00,0.0132
2377.00,0.0133
2376.00,0.0134
2375.00,0.0135
2374.00,0.0135
2373.00,0.0136
2372.00,0.0137
2371.00,0.0136
2370.00,0.0135
2369.00,0.0134
2368.00,0.0133
2367.00,0.0132
2366.00,0.0132
2365.00,0.0131
2364.00,0.0132
2363.00,0.0133
2362.00,0.0134
2361.00,0.0134
2360.00,0.0136
2359.00,0.0137
2358.00,0.0139
2357.00,0.0140
2356.00,0.0140
2355.00,0.0139
2354.00,0.0137
2353.00,0.0136
2352.00,0.0135
2351.00,0.0135
2350.00,0.0135
2349.00,0.0135
2348.00,0.0135
2347.00,0.0135
2346.00,0.0135
2345.00,0.0136
2344.00,0.0137
2343.00,0.0138
2342.00,0.0138
2341.00,0.0137
2340.00,0.0137
2339.00,0.0137
2338.00,0.0137
2337.00,0.0138
2336.00,0.0137
2335.00,0.0137
2334.00,0.0135
2333.00,0.0134
2332.00,0.0134
2331.00,0.0134
2330.00,0.0135
2329.00,0.0136
2328.00,0.0139
2327.00,0.0142
2326.00,0.0146
2325.00,0.0147
2324.00,0.0147
2323.00,0.0147
2322.00,0.0146
2321.00,0.0145
2320.00,0.0144
2319.00,0.0142
2318.00,0.0140
2317.00,0.0139
2316.00,0.0137
2315.00,0.0137
2314.00,0.0138
2313.00,0.0138
2312.00,0.0138
2311.00,0.0138
2310.00,0.0138
2309.00,0.0139
2308.00,0.0139
2307.00,0.0138
2306.00,0.0137
2305.00,0.0135
2304.00,0.0134
2303.00,0.0134
2302.00,0.0135
2301.00,0.0136
2300.00,0.0138
2299.00,0.0139
2298.00,0.0140
2297.00,0.0140
2296.00,0.0140
2295.00,0.0139
2294.00,0.0139
2293.00,0.0139
2292.00,0.0139
2291.00,0.0139
2290.00,0.0140
2289.00,0.0142
2288.00,0.0143
2287.00,0.0143
2286.00,0.0143
2285.00,0.0142
2284.00,0.0142
2283.00,0.0141
2282.00,0.0141
2281.00,0.0141
2280.00,0.0142
2279.00,0.0142
2278.00,0.0143
2277.00,0.0143
2276.00,0.0142
2275.00,0.0140
2274.00,0.0139
2273.00,0.0139
2272.00,0.0139
2271.00,0.0138
2270.00,0.0138
2269.00,0.0137
2268.00,0.0137
2267.00,0.0136
2266.00,0.0133
2265.00,0.0130
2264.00,0.0127
2263.00,0.0125
2262.00,0.0124
2261.00,0.0126
2260.00,0.0129
2259.00,0.0131
2258.00,0.0131
2257.00,0.0131
2256.00,0.0130
2255.00,0.0130
2254.00,0.0131
2253.00,0.0131
2252.00,0.0131
2251.00,0.0130
2250.00,0.0129
2249.00,0.0128
2248.00,0.0128
2247.00,0.0129
2246.00,0.0130
2245.00,0.0130
2244.00,0.0130
2243.00,0.0131
2242.00,0.0133
2241.00,0.0134
2240.00,0.0133
2239.00,0.0131
2238.00,0.0128
2237.00,0.0126
2236.00,0.0126
2235.00,0.0127
2234.00,0.0129
2233.00,0.0131
2232.00,0.0132
2231.00,0.0133
2230.00,0.0133
2229.00,0.0133
2228.00,0.0132
2227.00,0.0131
2226.00,0.0130
2225.00,0.0130
2224.00,0.0129
2223.00,0.0128
2222.00,0.0127
2221.00,0.0126
2220.00,0.0127
2219.00,0.0128
2218.00,0.0128
2217.00,0.0129
2216.00,0.0129
2215.00,0.0129
2214.00,0.0129
2213.00,0.0130
2212.00,0.0131
2211.00,0.0131
2210.00,0.0132
2209.00,0.0132
2208.00,0.0131
2207.00,0.0130
2206.00,0.0129
2205.00,0.0128
2204.00,0.0128
2203.00,0.0129
2202.00,0.0131
2201.00,0.0132
2200.00,0.0132
2199.00,0.0131
2198.00,0.0129
2197.00,0.0129
2196.00,0.0130
2195.00,0.0132
2194.00,0.0132
2193.00,0.0131
2192.00,0.0130
2191.00,0.0131
2190.00,0.0131
2189.00,0.0130
2188.00,0.0130
2187.00,0.0130
2186.00,0.0129
2185.00,0.0125
2184.00,0.0120
2183.00,0.0116
2182.00,0.0115
2181.00,0.0116
2180.00,0.0119
2179.00,0.0120
2178.00,0.0119
2177.00,0.0118
2176.00,0.0117
2175.00,0.0120
2174.00,0.0125
2173.00,0.0131
2172.00,0.0135
2171.00,0.0138
2170.00,0.0140
2169.00,0.0143
2168.00,0.0146
2167.00,0.0147
2166.00,0.0145
2165.00,0.0140
2164.00,0.0136
2163.00,0.0133
2162.00,0.0128
2161.00,0.0118
2160.00,0.0105
2159.00,0.0094
2158.00,0.0090
2157.00,0.0091
2156.00,0.0094
2155.00,0.0096
2154.00,0.0098
2153.00,0.0101
2152.00,0.0105
2151.00,0.0109
2150.00,0.0112
2149.00,0.0112
2148.00,0.0112
2147.00,0.0112
2146.00,0.0114
2145.00,0.0116
2144.00,0.0119
2143.00,0.0120
2142.00,0.0119
2141.00,0.0116
2140.00,0.0114
2139.00,0.0111
2138.00,0.0109
2137.00,0.0108
2136.00,0.0106
2135.00,0.0104
2134.00,0.0104
2133.00,0.0105
2132.00,0.0108
2131.00,0.0111
2130.00,0.0113
2129.00,0.0113
2128.00,0.0113
2127.00,0.0112
2126.00,0.0112
2125.00,0.0113
2124.00,0.0115
2123.00,0.0116
2122.00,0.0118
2121.00,0.0120
2120.00,0.0121
2119.00,0.0121
2118.00,0.0120
2117.00,0.0121
2116.00,0.0122
2115.00,0.0122
2114.00,0.0122
2113.00,0.0123
2112.00,0.0124
2111.00,0.0126
2110.00,0.0126
2109.00,0.0127
2108.00,0.0127
2107.00,0.0126
2106.00,0.0125
2105.00,0.0124
2104.00,0.0123
2103.00,0.0123
2102.00,0.0124
2101.00,0.0125
2100.00,0.0126
2099.00,0.0126
2098.00,0.0125
2097.00,0.0122
2096.00,0.0119
2095.00,0.0117
2094.00,0.0118
2093.00,0.0121
2092.00,0.0123
2091.00,0.0123
2090.00,0.0123
2089.00,0.0122
2088.00,0.0121
2087.00,0.0121
2086.00,0.0121
2085.00,0.0122
2084.00,0.0122
2083.00,0.0122
2082.00,0.0121
2081.00,0.0122
2080.00,0.0123
2079.00,0.0124
2078.00,0.0124
2077.00,0.0122
2076.00,0.0121
2075.00,0.0121
2074.00,0.0122
2073.00,0.0123
2072.00,0.0123
2071.00,0.0122
2070.00,0.0121
2069.00,0.0120
2068.00,0.0120
2067.00,0.0121
2066.00,0.0122
2065.00,0.0123
2064.00,0.0124
2063.00,0.0124
2062.00,0.0124
2061.00,0.0123
2060.00,0.0121
2059.00,0.0118
2058.00,0.0116
2057.00,0.0115
2056.00,0.0115
2055.00,0.0116
2054.00,0.0120
2053.00,0.0126
2052.00,0.0132
2051.00,0.0136
2050.00,0.0135
2049.00,0.0131
2048.00,0.0127
2047.00,0.0126
2046.00,0.0126
2045.00,0.0126
2044.00,0.0124
2043.00,0.0121
2042.00,0.0116
2041.00,0.0113
2040.00,0.0113
2039.00,0.0117
2038.00,0.0121
2037.00,0.0122
2036.00,0.0119
2035.00,0.0113
2034.00,0.0107
2033.00,0.0105
2032.00,0.0106
2031.00,0.0109
2030.00,0.0111
2029.00,0.0110
2028.00,0.0108
2027.00,0.0106
2026.00,0.0105
2025.00,0.0107
2024.00,0.0109
2023.00,0.0109
2022.00,0.0106
2021.00,0.0102
2020.00,0.0100
2019.00,0.0100
2018.00,0.0101
2017.00,0.0103
2016.00,0.0103
2015.00,0.0103
2014.00,0.0104
2013.00,0.0106
2012.00,0.0108
2011.00,0.0112
2010.00,0.0116
2009.00,0.0120
2008.00,0.0121
2007.00,0.0116
2006.00,0.0109
2005.00,0.0105
2004.00,0.0104
2003.00,0.0105
2002.00,0.0107
2001.00,0.0109
2000.00,0.0112
1999.00,0.0114
1998.00,0.0116
1997.00,0.0118
1996.00,0.0120
1995.00,0.0121
1994.00,0.0120
1993.00,0.0121
1992.00,0.0122
1991.00,0.0125
1990.00,0.0126
1989.00,0.0124
1988.00,0.0121
1987.00,0.0117
1986.00,0.0115
1985.00,0.0117
1984.00,0.0121
1983.00,0.0124
1982.00,0.0125
1981.00,0.0123
1980.00,0.0119
1979.00,0.0112
1978.00,0.0105
1977.00,0.0099
1976.00,0.0095
1975.00,0.0094
1974.00,0.0096
1973.00,0.0100
1972.00,0.0104
1971.00,0.0106
1970.00,0.0108
1969.00,0.0109
1968.00,0.0110
1967.00,0.0110
1966.00,0.0109
1965.00,0.0108
1964.00,0.0107
1963.00,0.0106
1962.00,0.0105
1961.00,0.0104
1960.00,0.0102
1959.00,0.0100
1958.00,0.0099
1957.00,0.0099
1956.00,0.0101
1955.00,0.0102
1954.00,0.0102
1953.00,0.0101
1952.00,0.0100
1951.00,0.0101
1950.00,0.0103
1949.00,0.0105
1948.00,0.0106
1947.00,0.0105
1946.00,0.0103
1945.00,0.0101
1944.00,0.0100
1943.00,0.0098
1942.00,0.0097
1941.00,0.0097
1940.00,0.0099
1939.00,0.0100
1938.00,0.0101
1937.00,0.0101
1936.00,0.0102
1935.00,0.0102
1934.00,0.0102
1933.00,0.0102
1932.00,0.0102
1931.00,0.0103
1930.00,0.0102
1929.00,0.0102
1928.00,0.0102
1927.00,0.0103
1926.00,0.0104
1925.00,0.0104
1924.00,0.0104
1923.00,0.0104
1922.00,0.0105
1921.00,0.0106
1920.00,0.0107
1919.00,0.0107
1918.00,0.0106
1917.00,0.0105
1916.00,0.0104
1915.00,0.0103
1914.00,0.0102
1913.00,0.0100
1912.00,0.0098
1911.00,0.0098
1910.00,0.0099
1909.00,0.0100
1908.00,0.0101
1907.00,0.0101
1906.00,0.0100
1905.00,0.0100
1904.00,0.0101
1903.00,0.0101
1902.00,0.0102
1901.00,0.0102
1900.00,0.0103
1899.00,0.0103
1898.00,0.0102
1897.00,0.0101
1896.00,0.0101
1895.00,0.0101
1894.00,0.0100
1893.00,0.0100
1892.00,0.0100
1891.00,0.0100
1890.00,0.0100
1889.00,0.0100
1888.00,0.0100
1887.00,0.0101
1886.00,0.0100
1885.00,0.0100
1884.00,0.0100
1883.00,0.0100
1882.00,0.0100
1881.00,0.0101
1880.00,0.0101
1879.00,0.0100
1878.00,0.0099
1877.00,0.0098
1876.00,0.0097
1875.00,0.0097
1874.00,0.0097
1873.00,0.0097
1872.00,0.0097
1871.00,0.0098
1870.00,0.0098
1869.00,0.0099
1868.00,0.0100
1867.00,0.0100
1866.00,0.0100
1865.00,0.0099
1864.00,0.0098
1863.00,0.0097
1862.00,0.0097
1861.00,0.0097
1860.00,0.0098
1859.00,0.0099
1858.00,0.0100
1857.00,0.0099
1856.00,0.0098
1855.00,0.0097
1854.00,0.0096
1853.00,0.0096
1852.00,0.0096
1851.00,0.0096
1850.00,0.0096
1849.00,0.0096
1848.00,0.0096
1847.00,0.0096
1846.00,0.0095
1845.00,0.0094
1844.00,0.0094
1843.00,0.0094
1842.00,0.0094
1841.00,0.0095
1840.00,0.0095
1839.00,0.0095
1838.00,0.0095
1837.00,0.0095
1836.00,0.0095
1835.00,0.0095
1834.00,0.0095
1833.00,0.0095
1832.00,0.0095
1831.00,0.0096
1830.00,0.0096
1829.00,0.0095
1828.00,0.0095
1827.00,0.0094
1826.00,0.0093
1825.00,0.0093
1824.00,0.0092
1823.00,0.0092
1822.00,0.0092
1821.00,0.0092
1820.00,0.0092
1819.00,0.0091
1818.00,0.0090
1817.00,0.0089
1816.00,0.0089
1815.00,0.0090
1814.00,0.0090
1813.00,0.0090
1812.00,0.0091
1811.00,0.0092
1810.00,0.0093
1809.00,0.0093
1808.00,0.0093
1807.00,0.0093
1806.00,0.0092
1805.00,0.0091
1804.00,0.0090
1803.00,0.0090
1802.00,0.0089
1801.00,0.0089
1800.00,0.0089
1799.00,0.0089
1798.00,0.0090
1797.00,0.0091
1796.00,0.0091
1795.00,0.0092
1794.00,0.0092
1793.00,0.0091
1792.00,0.0090
1791.00,0.0089
1790.00,0.0089
1789.00,0.0088
1788.00,0.0088
1787.00,0.0088
1786.00,0.0088
1785.00,0.0088
1784.00,0.0088
1783.00,0.0089
1782.00,0.0090
1781.00,0.0090
1780.00,0.0089
1779.00,0.0088
1778.00,0.0087
1777.00,0.0087
1776.00,0.0088
1775.00,0.0089
1774.00,0.0089
1773.00,0.0090
1772.00,0.0088
1771.00,0.0086
1770.00,0.0085
1769.00,0.0085
1768.00,0.0085
1767.00,0.0085
1766.00,0.0085
1765.00,0.0085
1764.00,0.0086
1763.00,0.0086
1762.00,0.0086
1761.00,0.0086
1760.00,0.0086
1759.00,0.0086
1758.00,0.0087
1757.00,0.0088
1756.00,0.0088
1755.00,0.0087
1754.00,0.0088
1753.00,0.0088
1752.00,0.0089
1751.00,0.0089
1750.00,0.0089
1749.00,0.0089
1748.00,0.0090
1747.00,0.0091
1746.00,0.0092
1745.00,0.0093
1744.00,0.0094
1743.00,0.0094
1742.00,0.0094
1741.00,0.0094
1740.00,0.0095
1739.00,0.0096
1738.00,0.0097
1737.00,0.0099
1736.00,0.0102
1735.00,0.0102
1734.00,0.0101
1733.00,0.0099
1732.00,0.0099
1731.00,0.0100
1730.00,0.0100
1729.00,0.0100
1728.00,0.0101
1727.00,0.0101
1726.00,0.0102
1725.00,0.0103
1724.00,0.0103
1723.00,0.0104
1722.00,0.0105
1721.00,0.0106
1720.00,0.0108
1719.00,0.0110
1718.00,0.0112
1717.00,0.0112
1716.00,0.0114
1715.00,0.0115
1714.00,0.0117
1713.00,0.0121
1712.00,0.0125
1711.00,0.0130
1710.00,0.0134
1709.00,0.0139
1708.00,0.0146
1707.00,0.0153
1706.00,0.0161
1705.00,0.0171
1704.00,0.0180
1703.00,0.0190
1702.00,0.0202
1701.00,0.0218
1700.00,0.0239
1699.00,0.0257
1698.00,0.0272
1697.00,0.0285
1696.00,0.0298
1695.00,0.0308
1694.00,0.0316
1693.00,0.0324
1692.00,0.0333
1691.00,0.0344
1690.00,0.0356
1689.00,0.0367
1688.00,0.0379
1687.00,0.0390
1686.00,0.0402
1685.00,0.0417
1684.00,0.0433
1683.00,0.0446
1682.00,0.0456
1681.00,0.0468
1680.00,0.0480
1679.00,0.0492
1678.00,0.0503
1677.00,0.0514
1676.00,0.0528
1675.00,0.0544
1674.00,0.0559
1673.00,0.0571
1672.00,0.0584
1671.00,0.0597
1670.00,0.0612
1669.00,0.0628
1668.00,0.0644
1667.00,0.0657
1666.00,0.0669
1665.00,0.0682
1664.00,0.0696
1663.00,0.0713
1662.00,0.0729
1661.00,0.0744
1660.00,0.0757
1659.00,0.0769
1658.00,0.0780
1657.00,0.0789
1656.00,0.0797
1655.00,0.0806
1654.00,0.0821
1653.00,0.0843
1652.00,0.0860
1651.00,0.0868
1650.00,0.0870
1649.00,0.0872
1648.00,0.0877
1647.00,0.0885
1646.00,0.0893
1645.00,0.0898
1644.00,0.0901
1643.00,0.0902
1642.00,0.0903
1641.00,0.0903
1640.00,0.0903
1639.00,0.0902
1638.00,0.0901
1637.00,0.0902
1636.00,0.0905
1635.00,0.0908
1634.00,0.0908
1633.00,0.0907
1632.00,0.0905
1631.00,0.0903
1630.00,0.0902
1629.00,0.0902
1628.00,0.0905
1627.00,0.0907
1626.00,0.0909
1625.00,0.0912
1624.00,0.0917
1623.00,0.0923
1622.00,0.0929
1621.00,0.0931
1620.00,0.0932
1619.00,0.0931
1618.00,0.0930
1617.00,0.0928
1616.00,0.0924
1615.00,0.0917
1614.00,0.0906
1613.00,0.0892
1612.00,0.0876
1611.00,0.0858
1610.00,0.0840
1609.00,0.0820
1608.00,0.0801
1607.00,0.0781
1606.00,0.0762
1605.00,0.0742
1604.00,0.0722
1603.00,0.0703
1602.00,0.0685
1601.00,0.0668
1600.00,0.0652
1599.00,0.0637
1598.00,0.0623
1597.00,0.0610
1596.00,0.0597
1595.00,0.0584
1594.00,0.0573
1593.00,0.0561
1592.00,0.0550
1591.00,0.0540
1590.00,0.0531
1589.00,0.0523
1588.00,0.0515
1587.00,0.0509
1586.00,0.0503
1585.00,0.0498
1584.00,0.0494
1583.00,0.0490
1582.00,0.0486
1581.00,0.0484
1580.00,0.0481
1579.00,0.0480
1578.00,0.0480
1577.00,0.0482
1576.00,0.0483
1575.00,0.0484
1574.00,0.0485
1573.00,0.0485
1572.00,0.0485
1571.00,0.0488
1570.00,0.0493
1569.00,0.0499
1568.00,0.0505
1567.00,0.0510
1566.00,0.0517
1565.00,0.0524
1564.00,0.0532
1563.00,0.0538
1562.00,0.0544
1561.00,0.0551
1560.00,0.0564
1559.00,0.0584
1558.00,0.0603
1557.00,0.0615
1556.00,0.0624
1555.00,0.0634
1554.00,0.0646
1553.00,0.0659
1552.00,0.0670
1551.00,0.0682
1550.00,0.0695
1549.00,0.0707
1548.00,0.0718
1547.00,0.0726
1546.00,0.0736
1545.00,0.0746
1544.00,0.0757
1543.00,0.0766
1542.00,0.0775
1541.00,0.0788
1540.00,0.0802
1539.00,0.0815
1538.00,0.0822
1537.00,0.0825
1536.00,0.0826
1535.00,0.0828
1534.00,0.0833
1533.00,0.0840
1532.00,0.0847
1531.00,0.0850
1530.00,0.0853
1529.00,0.0856
1528.00,0.0859
1527.00,0.0863
1526.00,0.0867
1525.00,0.0871
1524.00,0.0873
1523.00,0.0877
1522.00,0.0883
1521.00,0.0892
1520.00,0.0899
1519.00,0.0903
1518.00,0.0907
1517.00,0.0911
1516.00,0.0916
1515.00,0.0917
1514.00,0.0916
1513.00,0.0914
1512.00,0.0909
1511.00,0.0904
1510.00,0.0897
1509.00,0.0889
1508.00,0.0881
1507.00,0.0874
1506.00,0.0866
1505.00,0.0858
1504.00,0.0847
1503.00,0.0834
1502.00,0.0820
1501.00,0.0806
1500.00,0.0793
1499.00,0.0781
1498.00,0.0768
1497.00,0.0755
1496.00,0.0740
1495.00,0.0726
1494.00,0.0711
1493.00,0.0695
1492.00,0.0679
1491.00,0.0663
1490.00,0.0649
1489.00,0.0634
1488.00,0.0620
1487.00,0.0606
1486.00,0.0593
1485.00,0.0580
1484.00,0.0568
1483.00,0.0558
1482.00,0.0548
1481.00,0.0540
1480.00,0.0532
1479.00,0.0525
1478.00,0.0519
1477.00,0.0514
1476.00,0.0511
1475.00,0.0510
1474.00,0.0510
1473.00,0.0511
1472.00,0.0513
1471.00,0.0515
1470.00,0.0516
1469.00,0.0516
1468.00,0.0516
1467.00,0.0516
1466.00,0.0517
1465.00,0.0518
1464.00,0.0520
1463.00,0.0521
1462.00,0.0522
1461.00,0.0523
1460.00,0.0524
1459.00,0.0528
1458.00,0.0534
1457.00,0.0543
1456.00,0.0552
1455.00,0.0558
1454.00,0.0560
1453.00,0.0562
1452.00,0.0562
1451.00,0.0562
1450.00,0.0561
1449.00,0.0560
1448.00,0.0558
1447.00,0.0556
1446.00,0.0554
1445.00,0.0550
1444.00,0.0547
1443.00,0.0542
1442.00,0.0537
1441.00,0.0532
1440.00,0.0526
1439.00,0.0520
1438.00,0.0513
1437.00,0.0508
1436.00,0.0504
1435.00,0.0502
1434.00,0.0498
1433.00,0.0494
1432.00,0.0489
1431.00,0.0486
1430.00,0.0483
1429.00,0.0481
1428.00,0.0480
1427.00,0.0479
1426.00,0.0479
1425.00,0.0479
1424.00,0.0480
1423.00,0.0482
1422.00,0.0483
1421.00,0.0485
1420.00,0.0488
1419.00,0.0493
1418.00,0.0498
1417.00,0.0501
1416.00,0.0504
1415.00,0.0507
1414.00,0.0509
1413.00,0.0511
1412.00,0.0513
1411.00,0.0515
1410.00,0.0517
1409.00,0.0519
1408.00,0.0520
1407.00,0.0522
1406.00,0.0523
1405.00,0.0523
1404.00,0.0524
1403.00,0.0524
1402.00,0.0524
1401.00,0.0524
1400.00,0.0523
1399.00,0.0523
1398.00,0.0523
1397.00,0.0523
1396.00,0.0523
1395.00,0.0524
1394.00,0.0525
1393.00,0.0526
1392.00,0.0527
1391.00,0.0527
1390.00,0.0527
1389.00,0.0527
1388.00,0.0527
1387.00,0.0528
1386.00,0.0528
1385.00,0.0528
1384.00,0.0527
1383.00,0.0527
1382.00,0.0526
1381.00,0.0525
1380.00,0.0523
1379.00,0.0522
1378.00,0.0519
1377.00,0.0516
1376.00,0.0514
1375.00,0.0511
1374.00,0.0509
1373.00,0.0508
1372.00,0.0506
1371.00,0.0504
1370.00,0.0502
1369.00,0.0500
1368.00,0.0497
1367.00,0.0493
1366.00,0.0489
1365.00,0.0485
1364.00,0.0480
1363.00,0.0476
1362.00,0.0473
1361.00,0.0470
1360.00,0.0469
1359.00,0.0467
1358.00,0.0466
1357.00,0.0465
1356.00,0.0464
1355.00,0.0463
1354.00,0.0462
1353.00,0.0462
1352.00,0.0461
1351.00,0.0462
1350.00,0.0462
1349.00,0.0463
1348.00,0.0464
1347.00,0.0465
1346.00,0.0466
1345.00,0.0467
1344.00,0.0467
1343.00,0.0467
1342.00,0.0467
1341.00,0.0467
1340.00,0.0468
1339.00,0.0468
1338.00,0.0469
1337.00,0.0469
1336.00,0.0468
1335.00,0.0468
1334.00,0.0467
1333.00,0.0466
1332.00,0.0465
1331.00,0.0464
1330.00,0.0463
1329.00,0.0462
1328.00,0.0461
1327.00,0.0461
1326.00,0.0461
1325.00,0.0461
1324.00,0.0461
1323.00,0.0460
1322.00,0.0460
1321.00,0.0460
1320.00,0.0460
1319.00,0.0461
1318.00,0.0461
1317.00,0.0461
1316.00,0.0461
1315.00,0.0462
1314.00,0.0463
1313.00,0.0464
1312.00,0.0465
1311.00,0.0465
1310.00,0.0465
1309.00,0.0466
1308.00,0.0466
1307.00,0.0466
1306.00,0.0466
1305.00,0.0466
1304.00,0.0466
1303.00,0.0466
1302.00,0.0466
1301.00,0.0466
1300.00,0.0466
1299.00,0.0465
1298.00,0.0465
1297.00,0.0464
1296.00,0.0463
1295.00,0.0463
1294.00,0.0463
1293.00,0.0463
1292.00,0.0463
1291.00,0.0463
1290.00,0.0462
1289.00,0.0462
1288.00,0.0462
1287.00,0.0461
1286.00,0.0461
1285.00,0.0461
1284.00,0.0461
1283.00,0.0461
1282.00,0.0461
1281.00,0.0461
1280.00,0.0460
1279.00,0.0459
1278.00,0.0459
1277.00,0.0460
1276.00,0.0460
1275.00,0.0461
1274.00,0.0461
1273.00,0.0462
1272.00,0.0463
1271.00,0.0464
1270.00,0.0466
1269.00,0.0467
1268.00,0.0469
1267.00,0.0471
1266.00,0.0473
1265.00,0.0474
1264.00,0.0476
1263.00,0.0477
1262.00,0.0480
1261.00,0.0482
1260.00,0.0485
1259.00,0.0487
1258.00,0.0489
1257.00,0.0491
1256.00,0.0494
1255.00,0.0498
1254.00,0.0503
1253.00,0.0508
1252.00,0.0512
1251.00,0.0516
1250.00,0.0519
1249.00,0.0522
1248.00,0.0525
1247.00,0.0527
1246.00,0.0530
1245.00,0.0532
1244.00,0.0536
1243.00,0.0538
1242.00,0.0541
1241.00,0.0543
1240.00,0.0544
1239.00,0.0545
1238.00,0.0546
1237.00,0.0547
1236.00,0.0548
1235.00,0.0548
1234.00,0.0548
1233.00,0.0547
1232.00,0.0545
1231.00,0.0544
1230.00,0.0543
1229.00,0.0542
1228.00,0.0540
1227.00,0.0538
1226.00,0.0536
1225.00,0.0533
1224.00,0.0530
1223.00,0.0527
1222.00,0.0523
1221.00,0.0520
1220.00,0.0517
1219.00,0.0514
1218.00,0.0510
1217.00,0.0507
1216.00,0.0503
1215.00,0.0500
1214.00,0.0496
1213.00,0.0492
1212.00,0.0488
1211.00,0.0484
1210.00,0.0480
1209.00,0.0475
1208.00,0.0472
1207.00,0.0468
1206.00,0.0465
1205.00,0.0461
1204.00,0.0458
1203.00,0.0454
1202.00,0.0451
1201.00,0.0447
1200.00,0.0443
1199.00,0.0439
1198.00,0.0436
1197.00,0.0432
1196.00,0.0429
1195.00,0.0426
1194.00,0.0424
1193.00,0.0421
1192.00,0.0418
1191.00,0.0415
1190.00,0.0413
1189.00,0.0411
1188.00,0.0409
1187.00,0.0407
1186.00,0.0406
1185.00,0.0406
1184.00,0.0405
1183.00,0.0404
1182.00,0.0404
1181.00,0.0404
1180.00,0.0405
1179.00,0.0406
1178.00,0.0407
1177.00,0.0409
1176.00,0.0411
1175.00,0.0414
1174.00,0.0416
1173.00,0.0419
1172.00,0.0421
1171.00,0.0423
1170.00,0.0425
1169.00,0.0426
1168.00,0.0427
1167.00,0.0428
1166.00,0.0429
1165.00,0.0430
1164.00,0.0431
1163.00,0.0431
1162.00,0.0430
1161.00,0.0429
1160.00,0.0427
1159.00,0.0426
1158.00,0.0425
1157.00,0.0423
1156.00,0.0422
1155.00,0.0420
1154.00,0.0418
1153.00,0.0415
1152.00,0.0413
1151.00,0.0410
1150.00,0.0408
1149.00,0.0405
1148.00,0.0402
1147.00,0.0400
1146.00,0.0397
1145.00,0.0395
1144.00,0.0394
1143.00,0.0392
1142.00,0.0392
1141.00,0.0391
1140.00,0.0390
1139.00,0.0389
1138.00,0.0389
1137.00,0.0389
1136.00,0.0389
1135.00,0.0388
1134.00,0.0389
1133.00,0.0388
1132.00,0.0388
1131.00,0.0388
1130.00,0.0388
1129.00,0.0388
1128.00,0.0388
1127.00,0.0387
1126.00,0.0387
1125.00,0.0387
1124.00,0.0387
1123.00,0.0386
1122.00,0.0386
1121.00,0.0384
1120.00,0.0383
1119.00,0.0383
1118.00,0.0382
1117.00,0.0382
1116.00,0.0382
1115.00,0.0382
1114.00,0.0382
1113.00,0.0382
1112.00,0.0381
1111.00,0.0381
1110.00,0.0381
1109.00,0.0382
1108.00,0.0382
1107.00,0.0382
1106.00,0.0383
1105.00,0.0384
1104.00,0.0385
1103.00,0.0386
1102.00,0.0387
1101.00,0.0389
1100.00,0.0390
1099.00,0.0392
1098.00,0.0395
1097.00,0.0397
1096.00,0.0399
1095.00,0.0401
1094.00,0.0404
1093.00,0.0406
1092.00,0.0409
1091.00,0.0411
1090.00,0.0415
1089.00,0.0420
1088.00,0.0424
1087.00,0.0428
1086.00,0.0433
1085.00,0.0438
1084.00,0.0443
1083.00,0.0449
1082.00,0.0455
1081.00,0.0460
1080.00,0.0464
1079.00,0.0468
1078.00,0.0472
1077.00,0.0476
1076.00,0.0481
1075.00,0.0485
1074.00,0.0489
1073.00,0.0491
1072.00,0.0493
1071.00,0.0495
1070.00,0.0497
1069.00,0.0498
1068.00,0.0500
1067.00,0.0501
1066.00,0.0501
1065.00,0.0502
1064.00,0.0501
1063.00,0.0499
1062.00,0.0497
1061.00,0.0495
1060.00,0.0493
1059.00,0.0491
1058.00,0.0488
1057.00,0.0485
1056.00,0.0483
1055.00,0.0482
1054.00,0.0481
1053.00,0.0480
1052.00,0.0479
1051.00,0.0478
1050.00,0.0477
1049.00,0.0475
1048.00,0.0472
1047.00,0.0468
1046.00,0.0465
1045.00,0.0461
1044.00,0.0457
1043.00,0.0454
1042.00,0.0451
1041.00,0.0447
1040.00,0.0442
1039.00,0.0437
1038.00,0.0433
1037.00,0.0429
1036.00,0.0425
1035.00,0.0421
1034.00,0.0418
1033.00,0.0416
1032.00,0.0414
1031.00,0.0412
1030.00,0.0410
1029.00,0.0407
1028.00,0.0402
1027.00,0.0397
1026.00,0.0393
1025.00,0.0389
1024.00,0.0385
1023.00,0.0381
1022.00,0.0377
1021.00,0.0374
1020.00,0.0370
1019.00,0.0367
1018.00,0.0363
1017.00,0.0360
1016.00,0.0355
1015.00,0.0352
1014.00,0.0349
1013.00,0.0346
1012.00,0.0342
1011.00,0.0338
1010.00,0.0334
1009.00,0.0329
1008.00,0.0326
1007.00,0.0323
1006.00,0.0322
1005.00,0.0321
1004.00,0.0320
1003.00,0.0319
1002.00,0.0317
1001.00,0.0315
1000.00,0.0313
999.00,0.0311
998.00,0.0309
997.00,0.0308
996.00,0.0306
995.00,0.0306
994.00,0.0305
993.00,0.0305
992.00,0.0304
991.00,0.0303
990.00,0.0302
989.00,0.0301
988.00,0.0300
987.00,0.0299
986.00,0.0298
985.00,0.0297
984.00,0.0296
983.00,0.0296
982.00,0.0296
981.00,0.0296
980.00,0.0297
979.00,0.0298
978.00,0.0299
977.00,0.0300
976.00,0.0300
975.00,0.0301
974.00,0.0302
973.00,0.0304
972.00,0.0306
971.00,0.0306
970.00,0.0307
969.00,0.0307
968.00,0.0308
967.00,0.0309
966.00,0.0311
965.00,0.0312
964.00,0.0313
963.00,0.0313
962.00,0.0314
961.00,0.0315
960.00,0.0314
959.00,0.0314
958.00,0.0313
957.00,0.0312
956.00,0.0310
955.00,0.0308
954.00,0.0308
953.00,0.0308
952.00,0.0307
951.00,0.0307
950.00,0.0307
949.00,0.0306
948.00,0.0305
947.00,0.0305
946.00,0.0305
945.00,0.0306
944.00,0.0306
943.00,0.0307
942.00,0.0307
941.00,0.0307
940.00,0.0307
939.00,0.0307
938.00,0.0306
937.00,0.0305
936.00,0.0304
935.00,0.0303
934.00,0.0304
933.00,0.0305
932.00,0.0305
931.00,0.0306
930.00,0.0307
929.00,0.0306
928.00,0.0305
927.00,0.0304
926.00,0.0304
925.00,0.0304
924.00,0.0304
923.00,0.0303
922.00,0.0302
921.00,0.0301
920.00,0.0300
919.00,0.0300
918.00,0.0300
917.00,0.0300
916.00,0.0299
915.00,0.0298
914.00,0.0298
913.00,0.0298
912.00,0.0298
911.00,0.0297
910.00,0.0297
909.00,0.0297
908.00,0.0298
907.00,0.0299
906.00,0.0301
905.00,0.0302
904.00,0.0302
903.00,0.0303
902.00,0.0304
901.00,0.0304
900.00,0.0303
899.00,0.0302
898.00,0.0301
897.00,0.0299
896.00,0.0296
895.00,0.0295
894.00,0.0294
893.00,0.0293
892.00,0.0291
891.00,0.0289
890.00,0.0287
889.00,0.0285
888.00,0.0283
887.00,0.0282
886.00,0.0281
885.00,0.0280
884.00,0.0278
883.00,0.0278
882.00,0.0278
881.00,0.0279
880.00,0.0279
879.00,0.0279
878.00,0.0279
877.00,0.0278
876.00,0.0278
875.00,0.0277
874.00,0.0278
873.00,0.0278
872.00,0.0278
871.00,0.0277
870.00,0.0275
869.00,0.0274
868.00,0.0272
867.00,0.0271
866.00,0.0272
865.00,0.0271
864.00,0.0271
863.00,0.0270
862.00,0.0269
861.00,0.0268
860.00,0.0267
859.00,0.0266
858.00,0.0265
857.00,0.0265
856.00,0.0265
855.00,0.0266
854.00,0.0267
853.00,0.0269
852.00,0.0269
851.00,0.0269
850.00,0.0268
849.00,0.0268
848.00,0.0266
847.00,0.0265
846.00,0.0265
845.00,0.0265
844.00,0.0265
843.00,0.0266
842.00,0.0268
841.00,0.0270
840.00,0.0270
839.00,0.0270
838.00,0.0270
837.00,0.0270
836.00,0.0272
835.00,0.0274
834.00,0.0276
833.00,0.0278
832.00,0.0280
831.00,0.0282
830.00,0.0284
829.00,0.0285
828.00,0.0286
827.00,0.0287
826.00,0.0288
825.00,0.0289
824.00,0.0290
823.00,0.0290
822.00,0.0291
821.00,0.0291
820.00,0.0292
819.00,0.0293
818.00,0.0295
817.00,0.0297
816.00,0.0298
815.00,0.0299
814.00,0.0300
813.00,0.0301
812.00,0.0301
811.00,0.0302
810.00,0.0304
809.00,0.0305
808.00,0.0306
807.00,0.0307
806.00,0.0308
805.00,0.0309
804.00,0.0310
803.00,0.0311
802.00,0.0313
801.00,0.0314
800.00,0.0315
799.00,0.0316
798.00,0.0317
797.00,0.0318
796.00,0.0319
795.00,0.0320
794.00,0.0321
793.00,0.0322
792.00,0.0323
791.00,0.0325
790.00,0.0327
789.00,0.0329
788.00,0.0330
787.00,0.0331
786.00,0.0333
785.00,0.0336
784.00,0.0338
783.00,0.0342
782.00,0.0346
781.00,0.0349
780.00,0.0351
779.00,0.0354
778.00,0.0357
777.00,0.0359
776.00,0.0361
775.00,0.0363
774.00,0.0366
773.00,0.0369
772.00,0.0371
771.00,0.0373
770.00,0.0375
769.00,0.0378
768.00,0.0380
767.00,0.0383
766.00,0.0386
765.00,0.0389
764.00,0.0390
763.00,0.0393
762.00,0.0396
761.00,0.0399
760.00,0.0401
759.00,0.0402
758.00,0.0405
757.00,0.0412
756.00,0.0424
755.00,0.0437
754.00,0.0444
753.00,0.0439
752.00,0.0428
751.00,0.0419
750.00,0.0417
749.00,0.0418
748.00,0.0419
747.00,0.0420
746.00,0.0422
745.00,0.0423
744.00,0.0423
743.00,0.0423
742.00,0.0424
741.00,0.0424
740.00,0.0423
739.00,0.0422
738.00,0.0422
737.00,0.0423
736.00,0.0424
735.00,0.0425
734.00,0.0428
733.00,0.0430
732.00,0.0431
731.00,0.0433
730.00,0.0435
729.00,0.0438
728.00,0.0441
727.00,0.0445
726.00,0.0449
725.00,0.0454
724.00,0.0457
723.00,0.0461
722.00,0.0466
721.00,0.0471
720.00,0.0476
719.00,0.0481
718.00,0.0487
717.00,0.0493
716.00,0.0497
715.00,0.0502
714.00,0.0508
713.00,0.0513
712.00,0.0518
711.00,0.0524
710.00,0.0532
709.00,0.0541
708.00,0.0549
707.00,0.0556
706.00,0.0564
705.00,0.0572
704.00,0.0580
703.00,0.0588
702.00,0.0596
701.00,0.0602
700.00,0.0606
699.00,0.0608
698.00,0.0610
697.00,0.0611
696.00,0.0611
695.00,0.0610
694.00,0.0610
693.00,0.0609
692.00,0.0608
691.00,0.0607
690.00,0.0608
689.00,0.0609
688.00,0.0611
687.00,0.0612
686.00,0.0615
685.00,0.0617
684.00,0.0618
683.00,0.0619
682.00,0.0621
681.00,0.0624
680.00,0.0625
679.00,0.0627
678.00,0.0629
677.00,0.0632
676.00,0.0633
675.00,0.0635
674.00,0.0639
673.00,0.0642
672.00,0.0643
671.00,0.0644
670.00,0.0647
669.00,0.0651
668.00,0.0656
667.00,0.0659
666.00,0.0659
665.00,0.0657
664.00,0.0655
663.00,0.0655
662.00,0.0657
661.00,0.0658
660.00,0.0660
659.00,0.0661
658.00,0.0664
657.00,0.0665
656.00,0.0666
655.00,0.0668
654.00,0.0670
653.00,0.0671
652.00,0.0672
651.00,0.0673
650.00,0.0674
649.00,0.0677
648.00,0.0679
647.00,0.0682
646.00,0.0686
645.00,0.0688
644.00,0.0690
643.00,0.0692
642.00,0.0694
641.00,0.0697
640.00,0.0698
639.00,0.0700
638.00,0.0704
637.00,0.0707
636.00,0.0709
635.00,0.0711
634.00,0.0712
633.00,0.0713
632.00,0.0715
631.00,0.0718
630.00,0.0722
629.00,0.0724
628.00,0.0725
627.00,0.0725
626.00,0.0726
625.00,0.0727
624.00,0.0727
623.00,0.0728
622.00,0.0730
621.00,0.0731
620.00,0.0730
619.00,0.0729
618.00,0.0729
617.00,0.0728
616.00,0.0728
615.00,0.0728
614.00,0.0728
613.00,0.0728
612.00,0.0726
611.00,0.0724
610.00,0.0724
609.00,0.0725
608.00,0.0727
607.00,0.0729
606.00,0.0732
605.00,0.0734
604.00,0.0734
603.00,0.0734
602.00,0.0735
601.00,0.0736
600.00,0.0736
599.00,0.0736
598.00,0.0736
597.00,0.0736
596.00,0.0736
595.00,0.0736
594.00,0.0738
593.00,0.0740
592.00,0.0741
591.00,0.0742
590.00,0.0745
589.00,0.0746
588.00,0.0746
587.00,0.0746
586.00,0.0748
585.00,0.0750
584.00,0.0751
583.00,0.0751
582.00,0.0751
581.00,0.0752
580.00,0.0753
579.00,0.0755
578.00,0.0758
577.00,0.0760
576.00,0.0760
575.00,0.0761
574.00,0.0763
573.00,0.0766
572.00,0.0769
571.00,0.0772
570.00,0.0775
569.00,0.0776
568.00,0.0774
567.00,0.0773
566.00,0.0776
565.00,0.0780
564.00,0.0781
563.00,0.0781
562.00,0.0781
561.00,0.0781
560.00,0.0780
559.00,0.0780
558.00,0.0783
557.00,0.0786
556.00,0.0788
555.00,0.0791
554.00,0.0795
553.00,0.0798
552.00,0.0799
551.00,0.0799
550.00,0.0799
549.00,0.0800
548.00,0.0800
547.00,0.0800
546.00,0.0801
545.00,0.0802
544.00,0.0802
543.00,0.0803
542.00,0.0806
541.00,0.0808
540.00,0.0807
539.00,0.0806
538.00,0.0806
537.00,0.0805
536.00,0.0803
535.00,0.0803
534.00,0.0806
533.00,0.0808
532.00,0.0809
531.00,0.0811
530.00,0.0816
529.00,0.0821
528.00,0.0822
527.00,0.0821
526.00,0.0824
525.00,0.0827
524.00,0.0829
523.00,0.0830
522.00,0.0830
521.00,0.0828
520.00,0.0823
519.00,0.0820
518.00,0.0821
517.00,0.0821
516.00,0.0819
515.00,0.0817
514.00,0.0815
513.00,0.0814
512.00,0.0811
511.00,0.0811
510.00,0.0814
509.00,0.0817
508.00,0.0816
507.00,0.0812
506.00,0.0807
505.00,0.0798
504.00,0.0787
503.00,0.0782
502.00,0.0788
501.00,0.0797
500.00,0.0800
499.00,0.0800
498.00,0.0798
497.00,0.0795
496.00,0.0792
495.00,0.0790
494.00,0.0791
493.00,0.0794
492.00,0.0794
491.00,0.0795
490.00,0.0798
489.00,0.0801
488.00,0.0801
487.00,0.0801
486.00,0.0801
485.00,0.0798
484.00,0.0792
483.00,0.0788
482.00,0.0790
481.00,0.0794
480.00,0.0794
479.00,0.0793
478.00,0.0796
477.00,0.0797
476.00,0.0794
475.00,0.0790
474.00,0.0788
473.00,0.0787
472.00,0.0784
471.00,0.0783
470.00,0.0787
469.00,0.0789
468.00,0.0785
467.00,0.0782
466.00,0.0788
465.00,0.0793
464.00,0.0793
463.00,0.0788
462.00,0.0785
461.00,0.0781
460.00,0.0773
459.00,0.0767
458.00,0.0767
457.00,0.0770
456.00,0.0771
455.00,0.0772
454.00,0.0777
453.00,0.0780
452.00,0.0778
451.00,0.0773
450.00,0.0769
449.00,0.0764
448.00,0.0754
447.00,0.0747
446.00,0.0745
445.00,0.0745
444.00,0.0743
443.00,0.0741
442.00,0.0743
441.00,0.0741
440.00,0.0736
439.00,0.0731
438.00,0.0729
437.00,0.0721
436.00,0.0704
435.00,0.0690
434.00,0.0687
433.00,0.0690
432.00,0.0691
431.00,0.0694
430.00,0.0699
429.00,0.0700
428.00,0.0693
427.00,0.0684
426.00,0.0679
425.00,0.0674
424.00,0.0661
423.00,0.0650
422.00,0.0648
421.00,0.0647
420.00,0.0642
419.00,0.0639
418.00,0.0645
417.00,0.0650
416.00,0.0646
415.00,0.0644
414.00,0.0649
413.00,0.0651
412.00,0.0645
411.00,0.0642
410.00,0.0650
409.00,0.0659
408.00,0.0660
407.00,0.0662
406.00,0.0667
405.00,0.0659
404.00,0.0633
403.00,0.0610
402.00,0.0606
401.00,0.0606
400.00,0.0592
