Created as New Dataset,Sample 393 By YargerLab Date Thursday, December 04 2025
cm-1,A
4000.00,0.0003
3999.00,0.0003
3998.00,0.0003
3997.00,0.0003
3996.00,0.0003
3995.00,0.0003
3994.00,0.0003
3993.00,0.0003
3992.00,0.0002
3991.00,0.0002
3990.00,0.0002
3989.00,0.0002
3988.00,0.0002
3987.00,0.0002
3986.00,0.0002
3985.00,0.0002
3984.00,0.0002
3983.00,0.0002
3982.00,0.0002
3981.00,0.0002
3980.00,0.0002
3979.00,0.0002
3978.00,0.0002
3977.00,0.0002
3976.00,0.0002
3975.00,0.0002
3974.00,0.0002
3973.00,0.0002
3972.00,0.0002
3971.00,0.0002
3970.00,0.0002
3969.00,0.0002
3968.00,0.0002
3967.00,0.0002
3966.00,0.0002
3965.00,0.0002
3964.00,0.0002
3963.00,0.0002
3962.00,0.0002
3961.00,0.0002
3960.00,0.0002
3959.00,0.0002
3958.00,0.0002
3957.00,0.0002
3956.00,0.0002
3955.00,0.0002
3954.00,0.0002
3953.00,0.0002
3952.00,0.0002
3951.00,0.0002
3950.00,0.0002
3949.00,0.0002
3948.00,0.0002
3947.00,0.0002
3946.00,0.0002
3945.00,0.0002
3944.00,0.0002
3943.00,0.0002
3942.00,0.0002
3941.00,0.0003
3940.00,0.0003
3939.00,0.0003
3938.00,0.0003
3937.00,0.0002
3936.00,0.0002
3935.00,0.0002
3934.00,0.0002
3933.00,0.0002
3932.00,0.0002
3931.00,0.0001
3930.00,0.0001
3929.00,0.0001
3928.00,0.0002
3927.00,0.0002
3926.00,0.0002
3925.00,0.0002
3924.00,0.0002
3923.00,0.0002
3922.00,0.0002
3921.00,0.0002
3920.00,0.0002
3919.00,0.0002
3918.00,0.0002
3917.00,0.0002
3916.00,0.0002
3915.00,0.0002
3914.00,0.0002
3913.00,0.0002
3912.00,0.0002
3911.00,0.0002
3910.00,0.0002
3909.00,0.0002
3908.00,0.0002
3907.00,0.0002
3906.00,0.0002
3905.00,0.0002
3904.00,0.0002
3903.00,0.0002
3902.00,0.0002
3901.00,0.0002
3900.00,0.0002
3899.00,0.0002
3898.00,0.0002
3897.00,0.0002
3896.00,0.0002
3895.00,0.0002
3894.00,0.0002
3893.00,0.0002
3892.00,0.0002
3891.00,0.0002
3890.00,0.0003
3889.00,0.0003
3888.00,0.0003
3887.00,0.0002
3886.00,0.0002
3885.00,0.0002
3884.00,0.0002
3883.00,0.0002
3882.00,0.0002
3881.00,0.0002
3880.00,0.0002
3879.00,0.0002
3878.00,0.0002
3877.00,0.0002
3876.00,0.0002
3875.00,0.0002
3874.00,0.0002
3873.00,0.0002
3872.00,0.0002
3871.00,0.0002
3870.00,0.0002
3869.00,0.0002
3868.00,0.0002
3867.00,0.0003
3866.00,0.0003
3865.00,0.0003
3864.00,0.0003
3863.00,0.0003
3862.00,0.0002
3861.00,0.0002
3860.00,0.0002
3859.00,0.0002
3858.00,0.0002
3857.00,0.0003
3856.00,0.0003
3855.00,0.0004
3854.00,0.0004
3853.00,0.0004
3852.00,0.0004
3851.00,0.0004
3850.00,0.0003
3849.00,0.0002
3848.00,0.0002
3847.00,0.0002
3846.00,0.0002
3845.00,0.0002
3844.00,0.0002
3843.00,0.0002
3842.00,0.0002
3841.00,0.0003
3840.00,0.0003
3839.00,0.0003
3838.00,0.0003
3837.00,0.0003
3836.00,0.0003
3835.00,0.0003
3834.00,0.0003
3833.00,0.0003
3832.00,0.0003
3831.00,0.0003
3830.00,0.0003
3829.00,0.0002
3828.00,0.0002
3827.00,0.0002
3826.00,0.0002
3825.00,0.0002
3824.00,0.0003
3823.00,0.0003
3822.00,0.0003
3821.00,0.0003
3820.00,0.0003
3819.00,0.0004
3818.00,0.0004
3817.00,0.0004
3816.00,0.0003
3815.00,0.0003
3814.00,0.0003
3813.00,0.0003
3812.00,0.0003
3811.00,0.0003
3810.00,0.0003
3809.00,0.0003
3808.00,0.0003
3807.00,0.0003
3806.00,0.0004
3805.00,0.0004
3804.00,0.0004
3803.00,0.0003
3802.00,0.0003
3801.00,0.0003
3800.00,0.0003
3799.00,0.0003
3798.00,0.0003
3797.00,0.0003
3796.00,0.0003
3795.00,0.0003
3794.00,0.0003
3793.00,0.0003
3792.00,0.0003
3791.00,0.0003
3790.00,0.0003
3789.00,0.0003
3788.00,0.0003
3787.00,0.0002
3786.00,0.0002
3785.00,0.0002
3784.00,0.0002
3783.00,0.0002
3782.00,0.0002
3781.00,0.0002
3780.00,0.0002
3779.00,0.0002
3778.00,0.0002
3777.00,0.0003
3776.00,0.0003
3775.00,0.0003
3774.00,0.0002
3773.00,0.0002
3772.00,0.0002
3771.00,0.0002
3770.00,0.0002
3769.00,0.0003
3768.00,0.0003
3767.00,0.0003
3766.00,0.0002
3765.00,0.0002
3764.00,0.0002
3763.00,0.0002
3762.00,0.0002
3761.00,0.0002
3760.00,0.0002
3759.00,0.0002
3758.00,0.0002
3757.00,0.0002
3756.00,0.0003
3755.00,0.0003
3754.00,0.0003
3753.00,0.0004
3752.00,0.0004
3751.00,0.0003
3750.00,0.0003
3749.00,0.0004
3748.00,0.0004
3747.00,0.0004
3746.00,0.0004
3745.00,0.0003
3744.00,0.0003
3743.00,0.0003
3742.00,0.0004
3741.00,0.0003
3740.00,0.0003
3739.00,0.0003
3738.00,0.0003
3737.00,0.0002
3736.00,0.0002
3735.00,0.0002
3734.00,0.0002
3733.00,0.0002
3732.00,0.0002
3731.00,0.0002
3730.00,0.0002
3729.00,0.0002
3728.00,0.0002
3727.00,0.0002
3726.00,0.0002
3725.00,0.0002
3724.00,0.0002
3723.00,0.0002
3722.00,0.0002
3721.00,0.0002
3720.00,0.0002
3719.00,0.0002
3718.00,0.0002
3717.00,0.0002
3716.00,0.0002
3715.00,0.0002
3714.00,0.0002
3713.00,0.0002
3712.00,0.0002
3711.00,0.0002
3710.00,0.0003
3709.00,0.0003
3708.00,0.0003
3707.00,0.0003
3706.00,0.0002
3705.00,0.0002
3704.00,0.0002
3703.00,0.0002
3702.00,0.0002
3701.00,0.0002
3700.00,0.0003
3699.00,0.0003
3698.00,0.0002
3697.00,0.0002
3696.00,0.0002
3695.00,0.0002
3694.00,0.0003
3693.00,0.0003
3692.00,0.0003
3691.00,0.0003
3690.00,0.0003
3689.00,0.0003
3688.00,0.0003
3687.00,0.0002
3686.00,0.0002
3685.00,0.0002
3684.00,0.0001
3683.00,0.0001
3682.00,0.0001
3681.00,0.0001
3680.00,0.0002
3679.00,0.0002
3678.00,0.0003
3677.00,0.0003
3676.00,0.0002
3675.00,0.0002
3674.00,0.0003
3673.00,0.0003
3672.00,0.0003
3671.00,0.0002
3670.00,0.0002
3669.00,0.0002
3668.00,0.0002
3667.00,0.0002
3666.00,0.0002
3665.00,0.0002
3664.00,0.0002
3663.00,0.0002
3662.00,0.0002
3661.00,0.0003
3660.00,0.0003
3659.00,0.0003
3658.00,0.0002
3657.00,0.0002
3656.00,0.0002
3655.00,0.0003
3654.00,0.0003
3653.00,0.0003
3652.00,0.0003
3651.00,0.0003
3650.00,0.0003
3649.00,0.0003
3648.00,0.0003
3647.00,0.0003
3646.00,0.0003
3645.00,0.0003
3644.00,0.0003
3643.00,0.0003
3642.00,0.0003
3641.00,0.0003
3640.00,0.0003
3639.00,0.0003
3638.00,0.0002
3637.00,0.0002
3636.00,0.0002
3635.00,0.0002
3634.00,0.0002
3633.00,0.0003
3632.00,0.0003
3631.00,0.0003
3630.00,0.0003
3629.00,0.0003
3628.00,0.0003
3627.00,0.0003
3626.00,0.0003
3625.00,0.0003
3624.00,0.0003
3623.00,0.0003
3622.00,0.0003
3621.00,0.0003
3620.00,0.0003
3619.00,0.0003
3618.00,0.0003
3617.00,0.0003
3616.00,0.0003
3615.00,0.0002
3614.00,0.0002
3613.00,0.0003
3612.00,0.0003
3611.00,0.0003
3610.00,0.0003
3609.00,0.0003
3608.00,0.0003
3607.00,0.0003
3606.00,0.0003
3605.00,0.0003
3604.00,0.0003
3603.00,0.0003
3602.00,0.0004
3601.00,0.0004
3600.00,0.0004
3599.00,0.0004
3598.00,0.0003
3597.00,0.0003
3596.00,0.0003
3595.00,0.0003
3594.00,0.0003
3593.00,0.0003
3592.00,0.0003
3591.00,0.0004
3590.00,0.0004
3589.00,0.0004
3588.00,0.0004
3587.00,0.0004
3586.00,0.0005
3585.00,0.0005
3584.00,0.0005
3583.00,0.0005
3582.00,0.0004
3581.00,0.0004
3580.00,0.0004
3579.00,0.0004
3578.00,0.0004
3577.00,0.0004
3576.00,0.0004
3575.00,0.0005
3574.00,0.0005
3573.00,0.0005
3572.00,0.0005
3571.00,0.0004
3570.00,0.0004
3569.00,0.0004
3568.00,0.0004
3567.00,0.0004
3566.00,0.0004
3565.00,0.0004
3564.00,0.0005
3563.00,0.0005
3562.00,0.0005
3561.00,0.0005
3560.00,0.0006
3559.00,0.0006
3558.00,0.0006
3557.00,0.0006
3556.00,0.0006
3555.00,0.0006
3554.00,0.0006
3553.00,0.0006
3552.00,0.0007
3551.00,0.0007
3550.00,0.0007
3549.00,0.0007
3548.00,0.0007
3547.00,0.0007
3546.00,0.0007
3545.00,0.0007
3544.00,0.0007
3543.00,0.0007
3542.00,0.0007
3541.00,0.0008
3540.00,0.0008
3539.00,0.0008
3538.00,0.0008
3537.00,0.0008
3536.00,0.0008
3535.00,0.0008
3534.00,0.0008
3533.00,0.0008
3532.00,0.0008
3531.00,0.0008
3530.00,0.0008
3529.00,0.0008
3528.00,0.0008
3527.00,0.0008
3526.00,0.0008
3525.00,0.0008
3524.00,0.0008
3523.00,0.0009
3522.00,0.0009
3521.00,0.0009
3520.00,0.0009
3519.00,0.0009
3518.00,0.0009
3517.00,0.0009
3516.00,0.0009
3515.00,0.0010
3514.00,0.0010
3513.00,0.0010
3512.00,0.0010
3511.00,0.0009
3510.00,0.0009
3509.00,0.0009
3508.00,0.0009
3507.00,0.0009
3506.00,0.0009
3505.00,0.0009
3504.00,0.0009
3503.00,0.0010
3502.00,0.0010
3501.00,0.0010
3500.00,0.0010
3499.00,0.0010
3498.00,0.0010
3497.00,0.0010
3496.00,0.0010
3495.00,0.0011
3494.00,0.0011
3493.00,0.0011
3492.00,0.0011
3491.00,0.0011
3490.00,0.0011
3489.00,0.0011
3488.00,0.0011
3487.00,0.0011
3486.00,0.0011
3485.00,0.0011
3484.00,0.0011
3483.00,0.0011
3482.00,0.0011
3481.00,0.0011
3480.00,0.0011
3479.00,0.0011
3478.00,0.0011
3477.00,0.0011
3476.00,0.0012
3475.00,0.0012
3474.00,0.0012
3473.00,0.0012
3472.00,0.0012
3471.00,0.0012
3470.00,0.0012
3469.00,0.0012
3468.00,0.0012
3467.00,0.0012
3466.00,0.0012
3465.00,0.0012
3464.00,0.0012
3463.00,0.0012
3462.00,0.0012
3461.00,0.0012
3460.00,0.0012
3459.00,0.0012
3458.00,0.0012
3457.00,0.0012
3456.00,0.0012
3455.00,0.0012
3454.00,0.0012
3453.00,0.0012
3452.00,0.0012
3451.00,0.0012
3450.00,0.0013
3449.00,0.0012
3448.00,0.0012
3447.00,0.0012
3446.00,0.0012
3445.00,0.0012
3444.00,0.0013
3443.00,0.0013
3442.00,0.0013
3441.00,0.0013
3440.00,0.0013
3439.00,0.0013
3438.00,0.0013
3437.00,0.0012
3436.00,0.0012
3435.00,0.0012
3434.00,0.0013
3433.00,0.0013
3432.00,0.0013
3431.00,0.0013
3430.00,0.0013
3429.00,0.0013
3428.00,0.0013
3427.00,0.0013
3426.00,0.0013
3425.00,0.0013
3424.00,0.0012
3423.00,0.0012
3422.00,0.0012
3421.00,0.0013
3420.00,0.0013
3419.00,0.0013
3418.00,0.0013
3417.00,0.0014
3416.00,0.0013
3415.00,0.0013
3414.00,0.0013
3413.00,0.0013
3412.00,0.0013
3411.00,0.0013
3410.00,0.0014
3409.00,0.0014
3408.00,0.0014
3407.00,0.0014
3406.00,0.0014
3405.00,0.0014
3404.00,0.0014
3403.00,0.0014
3402.00,0.0014
3401.00,0.0014
3400.00,0.0014
3399.00,0.0014
3398.00,0.0014
3397.00,0.0014
3396.00,0.0014
3395.00,0.0014
3394.00,0.0014
3393.00,0.0014
3392.00,0.0014
3391.00,0.0014
3390.00,0.0014
3389.00,0.0014
3388.00,0.0014
3387.00,0.0014
3386.00,0.0014
3385.00,0.0014
3384.00,0.0014
3383.00,0.0014
3382.00,0.0014
3381.00,0.0014
3380.00,0.0014
3379.00,0.0014
3378.00,0.0014
3377.00,0.0014
3376.00,0.0014
3375.00,0.0014
3374.00,0.0014
3373.00,0.0015
3372.00,0.0015
3371.00,0.0015
3370.00,0.0015
3369.00,0.0015
3368.00,0.0015
3367.00,0.0015
3366.00,0.0015
3365.00,0.0015
3364.00,0.0015
3363.00,0.0015
3362.00,0.0015
3361.00,0.0015
3360.00,0.0015
3359.00,0.0015
3358.00,0.0015
3357.00,0.0015
3356.00,0.0015
3355.00,0.0015
3354.00,0.0015
3353.00,0.0015
3352.00,0.0015
3351.00,0.0015
3350.00,0.0016
3349.00,0.0016
3348.00,0.0016
3347.00,0.0016
3346.00,0.0015
3345.00,0.0015
3344.00,0.0015
3343.00,0.0015
3342.00,0.0015
3341.00,0.0015
3340.00,0.0015
3339.00,0.0015
3338.00,0.0015
3337.00,0.0015
3336.00,0.0015
3335.00,0.0015
3334.00,0.0015
3333.00,0.0015
3332.00,0.0015
3331.00,0.0015
3330.00,0.0015
3329.00,0.0015
3328.00,0.0015
3327.00,0.0015
3326.00,0.0015
3325.00,0.0015
3324.00,0.0015
3323.00,0.0015
3322.00,0.0015
3321.00,0.0015
3320.00,0.0016
3319.00,0.0016
3318.00,0.0016
3317.00,0.0016
3316.00,0.0016
3315.00,0.0016
3314.00,0.0016
3313.00,0.0016
3312.00,0.0016
3311.00,0.0016
3310.00,0.0016
3309.00,0.0016
3308.00,0.0016
3307.00,0.0016
3306.00,0.0016
3305.00,0.0016
3304.00,0.0016
3303.00,0.0016
3302.00,0.0016
3301.00,0.0016
3300.00,0.0015
3299.00,0.0015
3298.00,0.0015
3297.00,0.0015
3296.00,0.0016
3295.00,0.0016
3294.00,0.0016
3293.00,0.0016
3292.00,0.0016
3291.00,0.0016
3290.00,0.0016
3289.00,0.0016
3288.00,0.0016
3287.00,0.0016
3286.00,0.0015
3285.00,0.0015
3284.00,0.0015
3283.00,0.0015
3282.00,0.0016
3281.00,0.0015
3280.00,0.0015
3279.00,0.0015
3278.00,0.0015
3277.00,0.0015
3276.00,0.0015
3275.00,0.0015
3274.00,0.0015
3273.00,0.0015
3272.00,0.0015
3271.00,0.0015
3270.00,0.0015
3269.00,0.0015
3268.00,0.0015
3267.00,0.0015
3266.00,0.0015
3265.00,0.0015
3264.00,0.0015
3263.00,0.0015
3262.00,0.0015
3261.00,0.0014
3260.00,0.0014
3259.00,0.0014
3258.00,0.0014
3257.00,0.0014
3256.00,0.0014
3255.00,0.0014
3254.00,0.0014
3253.00,0.0013
3252.00,0.0013
3251.00,0.0013
3250.00,0.0013
3249.00,0.0014
3248.00,0.0014
3247.00,0.0014
3246.00,0.0014
3245.00,0.0014
3244.00,0.0014
3243.00,0.0014
3242.00,0.0014
3241.00,0.0014
3240.00,0.0013
3239.00,0.0013
3238.00,0.0013
3237.00,0.0013
3236.00,0.0013
3235.00,0.0013
3234.00,0.0013
3233.00,0.0013
3232.00,0.0013
3231.00,0.0012
3230.00,0.0012
3229.00,0.0012
3228.00,0.0012
3227.00,0.0012
3226.00,0.0013
3225.00,0.0013
3224.00,0.0013
3223.00,0.0012
3222.00,0.0012
3221.00,0.0012
3220.00,0.0012
3219.00,0.0013
3218.00,0.0013
3217.00,0.0013
3216.00,0.0013
3215.00,0.0013
3214.00,0.0013
3213.00,0.0013
3212.00,0.0013
3211.00,0.0013
3210.00,0.0013
3209.00,0.0013
3208.00,0.0013
3207.00,0.0013
3206.00,0.0013
3205.00,0.0013
3204.00,0.0013
3203.00,0.0013
3202.00,0.0013
3201.00,0.0013
3200.00,0.0013
3199.00,0.0013
3198.00,0.0013
3197.00,0.0012
3196.00,0.0012
3195.00,0.0012
3194.00,0.0012
3193.00,0.0012
3192.00,0.0012
3191.00,0.0011
3190.00,0.0011
3189.00,0.0011
3188.00,0.0012
3187.00,0.0012
3186.00,0.0012
3185.00,0.0011
3184.00,0.0011
3183.00,0.0011
3182.00,0.0011
3181.00,0.0011
3180.00,0.0011
3179.00,0.0011
3178.00,0.0011
3177.00,0.0011
3176.00,0.0011
3175.00,0.0011
3174.00,0.0011
3173.00,0.0011
3172.00,0.0011
3171.00,0.0011
3170.00,0.0011
3169.00,0.0011
3168.00,0.0011
3167.00,0.0011
3166.00,0.0011
3165.00,0.0011
3164.00,0.0011
3163.00,0.0012
3162.00,0.0012
3161.00,0.0012
3160.00,0.0011
3159.00,0.0011
3158.00,0.0011
3157.00,0.0011
3156.00,0.0011
3155.00,0.0011
3154.00,0.0011
3153.00,0.0011
3152.00,0.0011
3151.00,0.0011
3150.00,0.0011
3149.00,0.0011
3148.00,0.0010
3147.00,0.0010
3146.00,0.0010
3145.00,0.0010
3144.00,0.0010
3143.00,0.0010
3142.00,0.0010
3141.00,0.0010
3140.00,0.0010
3139.00,0.0010
3138.00,0.0010
3137.00,0.0010
3136.00,0.0010
3135.00,0.0010
3134.00,0.0010
3133.00,0.0010
3132.00,0.0010
3131.00,0.0010
3130.00,0.0010
3129.00,0.0010
3128.00,0.0010
3127.00,0.0010
3126.00,0.0010
3125.00,0.0010
3124.00,0.0010
3123.00,0.0010
3122.00,0.0011
3121.00,0.0011
3120.00,0.0011
3119.00,0.0011
3118.00,0.0011
3117.00,0.0011
3116.00,0.0012
3115.00,0.0012
3114.00,0.0013
3113.00,0.0014
3112.00,0.0014
3111.00,0.0015
3110.00,0.0016
3109.00,0.0018
3108.00,0.0019
3107.00,0.0020
3106.00,0.0021
3105.00,0.0022
3104.00,0.0022
3103.00,0.0023
3102.00,0.0023
3101.00,0.0022
3100.00,0.0022
3099.00,0.0022
3098.00,0.0021
3097.00,0.0021
3096.00,0.0021
3095.00,0.0022
3094.00,0.0022
3093.00,0.0023
3092.00,0.0025
3091.00,0.0026
3090.00,0.0029
3089.00,0.0032
3088.00,0.0035
3087.00,0.0039
3086.00,0.0043
3085.00,0.0046
3084.00,0.0049
3083.00,0.0051
3082.00,0.0052
3081.00,0.0051
3080.00,0.0050
3079.00,0.0047
3078.00,0.0045
3077.00,0.0043
3076.00,0.0041
3075.00,0.0040
3074.00,0.0039
3073.00,0.0039
3072.00,0.0039
3071.00,0.0040
3070.00,0.0041
3069.00,0.0043
3068.00,0.0045
3067.00,0.0049
3066.00,0.0052
3065.00,0.0056
3064.00,0.0060
3063.00,0.0063
3062.00,0.0067
3061.00,0.0069
3060.00,0.0070
3059.00,0.0071
3058.00,0.0069
3057.00,0.0067
3056.00,0.0064
3055.00,0.0060
3054.00,0.0056
3053.00,0.0052
3052.00,0.0049
3051.00,0.0045
3050.00,0.0043
3049.00,0.0041
3048.00,0.0039
3047.00,0.0038
3046.00,0.0037
3045.00,0.0037
3044.00,0.0037
3043.00,0.0037
3042.00,0.0039
3041.00,0.0040
3040.00,0.0042
3039.00,0.0045
3038.00,0.0048
3037.00,0.0052
3036.00,0.0056
3035.00,0.0062
3034.00,0.0068
3033.00,0.0075
3032.00,0.0084
3031.00,0.0093
3030.00,0.0103
3029.00,0.0113
3028.00,0.0121
3027.00,0.0128
3026.00,0.0133
3025.00,0.0135
3024.00,0.0133
3023.00,0.0127
3022.00,0.0118
3021.00,0.0107
3020.00,0.0096
3019.00,0.0084
3018.00,0.0074
3017.00,0.0065
3016.00,0.0057
3015.00,0.0051
3014.00,0.0046
3013.00,0.0042
3012.00,0.0038
3011.00,0.0036
3010.00,0.0035
3009.00,0.0034
3008.00,0.0033
3007.00,0.0034
3006.00,0.0035
3005.00,0.0036
3004.00,0.0037
3003.00,0.0038
3002.00,0.0039
3001.00,0.0039
3000.00,0.0039
2999.00,0.0037
2998.00,0.0035
2997.00,0.0033
2996.00,0.0031
2995.00,0.0029
2994.00,0.0027
2993.00,0.0025
2992.00,0.0024
2991.00,0.0023
2990.00,0.0022
2989.00,0.0022
2988.00,0.0022
2987.00,0.0022
2986.00,0.0022
2985.00,0.0022
2984.00,0.0023
2983.00,0.0023
2982.00,0.0024
2981.00,0.0024
2980.00,0.0025
2979.00,0.0025
2978.00,0.0026
2977.00,0.0026
2976.00,0.0027
2975.00,0.0028
2974.00,0.0029
2973.00,0.0029
2972.00,0.0030
2971.00,0.0031
2970.00,0.0032
2969.00,0.0033
2968.00,0.0034
2967.00,0.0035
2966.00,0.0037
2965.00,0.0038
2964.00,0.0039
2963.00,0.0041
2962.00,0.0042
2961.00,0.0044
2960.00,0.0045
2959.00,0.0047
2958.00,0.0049
2957.00,0.0051
2956.00,0.0053
2955.00,0.0054
2954.00,0.0056
2953.00,0.0058
2952.00,0.0059
2951.00,0.0061
2950.00,0.0064
2949.00,0.0066
2948.00,0.0069
2947.00,0.0072
2946.00,0.0076
2945.00,0.0080
2944.00,0.0084
2943.00,0.0088
2942.00,0.0093
2941.00,0.0098
2940.00,0.0103
2939.00,0.0108
2938.00,0.0114
2937.00,0.0120
2936.00,0.0126
2935.00,0.0132
2934.00,0.0139
2933.00,0.0146
2932.00,0.0153
2931.00,0.0160
2930.00,0.0166
2929.00,0.0172
2928.00,0.0177
2927.00,0.0182
2926.00,0.0186
2925.00,0.0189
2924.00,0.0192
2923.00,0.0194
2922.00,0.0195
2921.00,0.0195
2920.00,0.0194
2919.00,0.0193
2918.00,0.0190
2917.00,0.0186
2916.00,0.0182
2915.00,0.0178
2914.00,0.0173
2913.00,0.0168
2912.00,0.0162
2911.00,0.0157
2910.00,0.0151
2909.00,0.0146
2908.00,0.0141
2907.00,0.0136
2906.00,0.0131
2905.00,0.0126
2904.00,0.0122
2903.00,0.0117
2902.00,0.0112
2901.00,0.0107
2900.00,0.0103
2899.00,0.0098
2898.00,0.0094
2897.00,0.0090
2896.00,0.0086
2895.00,0.0083
2894.00,0.0080
2893.00,0.0077
2892.00,0.0075
2891.00,0.0073
2890.00,0.0070
2889.00,0.0068
2888.00,0.0066
2887.00,0.0065
2886.00,0.0063
2885.00,0.0062
2884.00,0.0060
2883.00,0.0059
2882.00,0.0057
2881.00,0.0056
2880.00,0.0055
2879.00,0.0054
2878.00,0.0053
2877.00,0.0052
2876.00,0.0052
2875.00,0.0051
2874.00,0.0051
2873.00,0.0050
2872.00,0.0050
2871.00,0.0050
2870.00,0.0050
2869.00,0.0050
2868.00,0.0050
2867.00,0.0051
2866.00,0.0052
2865.00,0.0053
2864.00,0.0055
2863.00,0.0057
2862.00,0.0060
2861.00,0.0062
2860.00,0.0065
2859.00,0.0068
2858.00,0.0071
2857.00,0.0075
2856.00,0.0079
2855.00,0.0082
2854.00,0.0085
2853.00,0.0088
2852.00,0.0089
2851.00,0.0090
2850.00,0.0090
2849.00,0.0089
2848.00,0.0087
2847.00,0.0084
2846.00,0.0080
2845.00,0.0076
2844.00,0.0071
2843.00,0.0066
2842.00,0.0060
2841.00,0.0055
2840.00,0.0050
2839.00,0.0045
2838.00,0.0040
2837.00,0.0036
2836.00,0.0033
2835.00,0.0030
2834.00,0.0027
2833.00,0.0025
2832.00,0.0023
2831.00,0.0022
2830.00,0.0021
2829.00,0.0020
2828.00,0.0019
2827.00,0.0018
2826.00,0.0017
2825.00,0.0017
2824.00,0.0016
2823.00,0.0016
2822.00,0.0016
2821.00,0.0016
2820.00,0.0016
2819.00,0.0015
2818.00,0.0015
2817.00,0.0015
2816.00,0.0015
2815.00,0.0015
2814.00,0.0015
2813.00,0.0014
2812.00,0.0014
2811.00,0.0014
2810.00,0.0014
2809.00,0.0014
2808.00,0.0014
2807.00,0.0014
2806.00,0.0013
2805.00,0.0013
2804.00,0.0013
2803.00,0.0013
2802.00,0.0013
2801.00,0.0013
2800.00,0.0012
2799.00,0.0012
2798.00,0.0012
2797.00,0.0012
2796.00,0.0012
2795.00,0.0012
2794.00,0.0012
2793.00,0.0011
2792.00,0.0011
2791.00,0.0011
2790.00,0.0011
2789.00,0.0011
2788.00,0.0011
2787.00,0.0011
2786.00,0.0010
2785.00,0.0010
2784.00,0.0010
2783.00,0.0010
2782.00,0.0010
2781.00,0.0010
2780.00,0.0011
2779.00,0.0011
2778.00,0.0011
2777.00,0.0010
2776.00,0.0010
2775.00,0.0010
2774.00,0.0010
2773.00,0.0010
2772.00,0.0010
2771.00,0.0010
2770.00,0.0010
2769.00,0.0009
2768.00,0.0009
2767.00,0.0009
2766.00,0.0010
2765.00,0.0010
2764.00,0.0010
2763.00,0.0009
2762.00,0.0009
2761.00,0.0009
2760.00,0.0009
2759.00,0.0009
2758.00,0.0009
2757.00,0.0009
2756.00,0.0009
2755.00,0.0009
2754.00,0.0009
2753.00,0.0009
2752.00,0.0009
2751.00,0.0009
2750.00,0.0009
2749.00,0.0009
2748.00,0.0009
2747.00,0.0009
2746.00,0.0009
2745.00,0.0009
2744.00,0.0009
2743.00,0.0009
2742.00,0.0009
2741.00,0.0009
2740.00,0.0009
2739.00,0.0009
2738.00,0.0009
2737.00,0.0009
2736.00,0.0009
2735.00,0.0009
2734.00,0.0009
2733.00,0.0009
2732.00,0.0009
2731.00,0.0009
2730.00,0.0009
2729.00,0.0009
2728.00,0.0008
2727.00,0.0008
2726.00,0.0008
2725.00,0.0008
2724.00,0.0008
2723.00,0.0009
2722.00,0.0009
2721.00,0.0009
2720.00,0.0009
2719.00,0.0009
2718.00,0.0009
2717.00,0.0009
2716.00,0.0009
2715.00,0.0009
2714.00,0.0009
2713.00,0.0009
2712.00,0.0009
2711.00,0.0009
2710.00,0.0009
2709.00,0.0009
2708.00,0.0009
2707.00,0.0009
2706.00,0.0009
2705.00,0.0009
2704.00,0.0009
2703.00,0.0009
2702.00,0.0009
2701.00,0.0009
2700.00,0.0009
2699.00,0.0009
2698.00,0.0009
2697.00,0.0009
2696.00,0.0009
2695.00,0.0009
2694.00,0.0009
2693.00,0.0009
2692.00,0.0009
2691.00,0.0009
2690.00,0.0009
2689.00,0.0009
2688.00,0.0009
2687.00,0.0009
2686.00,0.0009
2685.00,0.0009
2684.00,0.0009
2683.00,0.0009
2682.00,0.0009
2681.00,0.0009
2680.00,0.0009
2679.00,0.0009
2678.00,0.0009
2677.00,0.0009
2676.00,0.0009
2675.00,0.0009
2674.00,0.0008
2673.00,0.0009
2672.00,0.0009
2671.00,0.0009
2670.00,0.0009
2669.00,0.0009
2668.00,0.0009
2667.00,0.0009
2666.00,0.0009
2665.00,0.0010
2664.00,0.0010
2663.00,0.0010
2662.00,0.0010
2661.00,0.0011
2660.00,0.0011
2659.00,0.0011
2658.00,0.0012
2657.00,0.0012
2656.00,0.0012
2655.00,0.0012
2654.00,0.0012
2653.00,0.0013
2652.00,0.0013
2651.00,0.0013
2650.00,0.0013
2649.00,0.0013
2648.00,0.0013
2647.00,0.0013
2646.00,0.0012
2645.00,0.0012
2644.00,0.0012
2643.00,0.0012
2642.00,0.0012
2641.00,0.0012
2640.00,0.0012
2639.00,0.0012
2638.00,0.0012
2637.00,0.0012
2636.00,0.0012
2635.00,0.0012
2634.00,0.0012
2633.00,0.0012
2632.00,0.0012
2631.00,0.0012
2630.00,0.0012
2629.00,0.0012
2628.00,0.0012
2627.00,0.0012
2626.00,0.0012
2625.00,0.0012
2624.00,0.0012
2623.00,0.0011
2622.00,0.0011
2621.00,0.0011
2620.00,0.0010
2619.00,0.0011
2618.00,0.0011
2617.00,0.0011
2616.00,0.0011
2615.00,0.0010
2614.00,0.0010
2613.00,0.0010
2612.00,0.0010
2611.00,0.0010
2610.00,0.0010
2609.00,0.0010
2608.00,0.0010
2607.00,0.0011
2606.00,0.0011
2605.00,0.0011
2604.00,0.0011
2603.00,0.0011
2602.00,0.0011
2601.00,0.0011
2600.00,0.0010
2599.00,0.0010
2598.00,0.0010
2597.00,0.0010
2596.00,0.0009
2595.00,0.0009
2594.00,0.0009
2593.00,0.0009
2592.00,0.0009
2591.00,0.0009
2590.00,0.0009
2589.00,0.0009
2588.00,0.0009
2587.00,0.0009
2586.00,0.0009
2585.00,0.0009
2584.00,0.0009
2583.00,0.0009
2582.00,0.0009
2581.00,0.0009
2580.00,0.0008
2579.00,0.0008
2578.00,0.0008
2577.00,0.0008
2576.00,0.0008
2575.00,0.0008
2574.00,0.0008
2573.00,0.0008
2572.00,0.0008
2571.00,0.0008
2570.00,0.0008
2569.00,0.0008
2568.00,0.0007
2567.00,0.0007
2566.00,0.0007
2565.00,0.0007
2564.00,0.0006
2563.00,0.0006
2562.00,0.0006
2561.00,0.0007
2560.00,0.0007
2559.00,0.0008
2558.00,0.0007
2557.00,0.0007
2556.00,0.0006
2555.00,0.0006
2554.00,0.0007
2553.00,0.0007
2552.00,0.0007
2551.00,0.0007
2550.00,0.0007
2549.00,0.0007
2548.00,0.0007
2547.00,0.0007
2546.00,0.0007
2545.00,0.0007
2544.00,0.0007
2543.00,0.0007
2542.00,0.0007
2541.00,0.0007
2540.00,0.0007
2539.00,0.0007
2538.00,0.0006
2537.00,0.0006
2536.00,0.0006
2535.00,0.0006
2534.00,0.0006
2533.00,0.0006
2532.00,0.0006
2531.00,0.0006
2530.00,0.0006
2529.00,0.0006
2528.00,0.0006
2527.00,0.0006
2526.00,0.0006
2525.00,0.0006
2524.00,0.0006
2523.00,0.0006
2522.00,0.0006
2521.00,0.0006
2520.00,0.0006
2519.00,0.0006
2518.00,0.0006
2517.00,0.0006
2516.00,0.0007
2515.00,0.0007
2514.00,0.0007
2513.00,0.0007
2512.00,0.0006
2511.00,0.0006
2510.00,0.0005
2509.00,0.0005
2508.00,0.0006
2507.00,0.0006
2506.00,0.0006
2505.00,0.0006
2504.00,0.0006
2503.00,0.0006
2502.00,0.0006
2501.00,0.0006
2500.00,0.0006
2499.00,0.0006
2498.00,0.0006
2497.00,0.0006
2496.00,0.0006
2495.00,0.0006
2494.00,0.0005
2493.00,0.0005
2492.00,0.0005
2491.00,0.0005
2490.00,0.0005
2489.00,0.0006
2488.00,0.0006
2487.00,0.0005
2486.00,0.0005
2485.00,0.0005
2484.00,0.0005
2483.00,0.0005
2482.00,0.0004
2481.00,0.0004
2480.00,0.0004
2479.00,0.0004
2478.00,0.0004
2477.00,0.0005
2476.00,0.0005
2475.00,0.0005
2474.00,0.0005
2473.00,0.0005
2472.00,0.0005
2471.00,0.0005
2470.00,0.0005
2469.00,0.0005
2468.00,0.0005
2467.00,0.0004
2466.00,0.0004
2465.00,0.0004
2464.00,0.0004
2463.00,0.0005
2462.00,0.0005
2461.00,0.0005
2460.00,0.0006
2459.00,0.0006
2458.00,0.0006
2457.00,0.0006
2456.00,0.0005
2455.00,0.0005
2454.00,0.0005
2453.00,0.0005
2452.00,0.0005
2451.00,0.0005
2450.00,0.0005
2449.00,0.0004
2448.00,0.0004
2447.00,0.0004
2446.00,0.0004
2445.00,0.0005
2444.00,0.0005
2443.00,0.0004
2442.00,0.0004
2441.00,0.0004
2440.00,0.0004
2439.00,0.0004
2438.00,0.0004
2437.00,0.0003
2436.00,0.0003
2435.00,0.0003
2434.00,0.0003
2433.00,0.0003
2432.00,0.0003
2431.00,0.0003
2430.00,0.0003
2429.00,0.0003
2428.00,0.0003
2427.00,0.0003
2426.00,0.0003
2425.00,0.0003
2424.00,0.0003
2423.00,0.0003
2422.00,0.0003
2421.00,0.0003
2420.00,0.0003
2419.00,0.0003
2418.00,0.0003
2417.00,0.0002
2416.00,0.0003
2415.00,0.0003
2414.00,0.0003
2413.00,0.0003
2412.00,0.0003
2411.00,0.0003
2410.00,0.0002
2409.00,0.0002
2408.00,0.0002
2407.00,0.0001
2406.00,0.0001
2405.00,0.0001
2404.00,0.0001
2403.00,0.0001
2402.00,0.0001
2401.00,0.0001
2400.00,0.0001
2399.00,0.0001
2398.00,0.0001
2397.00,0.0001
2396.00,0.0001
2395.00,0.0001
2394.00,0.0001
2393.00,0.0000
2392.00,0.0000
2391.00,-0.0000
2390.00,0.0000
2389.00,0.0000
2388.00,0.0000
2387.00,0.0001
2386.00,0.0001
2385.00,0.0001
2384.00,0.0000
2383.00,0.0000
2382.00,0.0000
2381.00,0.0000
2380.00,0.0000
2379.00,0.0000
2378.00,0.0000
2377.00,0.0001
2376.00,0.0001
2375.00,0.0001
2374.00,0.0001
2373.00,0.0001
2372.00,0.0001
2371.00,0.0001
2370.00,0.0001
2369.00,0.0001
2368.00,0.0000
2367.00,0.0000
2366.00,0.0001
2365.00,0.0001
2364.00,0.0002
2363.00,0.0003
2362.00,0.0003
2361.00,0.0003
2360.00,0.0003
2359.00,0.0003
2358.00,0.0002
2357.00,0.0002
2356.00,0.0002
2355.00,0.0003
2354.00,0.0003
2353.00,0.0003
2352.00,0.0003
2351.00,0.0003
2350.00,0.0003
2349.00,0.0003
2348.00,0.0004
2347.00,0.0005
2346.00,0.0006
2345.00,0.0008
2344.00,0.0008
2343.00,0.0008
2342.00,0.0007
2341.00,0.0006
2340.00,0.0006
2339.00,0.0006
2338.00,0.0006
2337.00,0.0006
2336.00,0.0006
2335.00,0.0006
2334.00,0.0006
2333.00,0.0006
2332.00,0.0006
2331.00,0.0006
2330.00,0.0006
2329.00,0.0007
2328.00,0.0008
2327.00,0.0011
2326.00,0.0013
2325.00,0.0014
2324.00,0.0014
2323.00,0.0013
2322.00,0.0012
2321.00,0.0011
2320.00,0.0010
2319.00,0.0010
2318.00,0.0009
2317.00,0.0008
2316.00,0.0008
2315.00,0.0007
2314.00,0.0007
2313.00,0.0008
2312.00,0.0008
2311.00,0.0008
2310.00,0.0008
2309.00,0.0008
2308.00,0.0007
2307.00,0.0007
2306.00,0.0007
2305.00,0.0007
2304.00,0.0006
2303.00,0.0006
2302.00,0.0006
2301.00,0.0006
2300.00,0.0006
2299.00,0.0006
2298.00,0.0006
2297.00,0.0007
2296.00,0.0007
2295.00,0.0008
2294.00,0.0009
2293.00,0.0010
2292.00,0.0011
2291.00,0.0011
2290.00,0.0012
2289.00,0.0012
2288.00,0.0012
2287.00,0.0012
2286.00,0.0012
2285.00,0.0011
2284.00,0.0010
2283.00,0.0009
2282.00,0.0008
2281.00,0.0008
2280.00,0.0008
2279.00,0.0008
2278.00,0.0008
2277.00,0.0008
2276.00,0.0008
2275.00,0.0008
2274.00,0.0007
2273.00,0.0007
2272.00,0.0007
2271.00,0.0006
2270.00,0.0006
2269.00,0.0006
2268.00,0.0006
2267.00,0.0005
2266.00,0.0005
2265.00,0.0004
2264.00,0.0004
2263.00,0.0004
2262.00,0.0005
2261.00,0.0005
2260.00,0.0006
2259.00,0.0006
2258.00,0.0006
2257.00,0.0005
2256.00,0.0004
2255.00,0.0003
2254.00,0.0002
2253.00,0.0003
2252.00,0.0004
2251.00,0.0004
2250.00,0.0004
2249.00,0.0004
2248.00,0.0004
2247.00,0.0005
2246.00,0.0005
2245.00,0.0006
2244.00,0.0007
2243.00,0.0007
2242.00,0.0007
2241.00,0.0006
2240.00,0.0006
2239.00,0.0005
2238.00,0.0005
2237.00,0.0005
2236.00,0.0005
2235.00,0.0005
2234.00,0.0005
2233.00,0.0004
2232.00,0.0004
2231.00,0.0004
2230.00,0.0004
2229.00,0.0004
2228.00,0.0004
2227.00,0.0004
2226.00,0.0004
2225.00,0.0004
2224.00,0.0005
2223.00,0.0005
2222.00,0.0006
2221.00,0.0006
2220.00,0.0006
2219.00,0.0006
2218.00,0.0006
2217.00,0.0006
2216.00,0.0006
2215.00,0.0005
2214.00,0.0004
2213.00,0.0003
2212.00,0.0002
2211.00,0.0002
2210.00,0.0003
2209.00,0.0003
2208.00,0.0003
2207.00,0.0004
2206.00,0.0004
2205.00,0.0003
2204.00,0.0003
2203.00,0.0002
2202.00,0.0002
2201.00,0.0003
2200.00,0.0003
2199.00,0.0003
2198.00,0.0003
2197.00,0.0003
2196.00,0.0003
2195.00,0.0004
2194.00,0.0005
2193.00,0.0006
2192.00,0.0007
2191.00,0.0008
2190.00,0.0009
2189.00,0.0009
2188.00,0.0010
2187.00,0.0009
2186.00,0.0008
2185.00,0.0006
2184.00,0.0004
2183.00,0.0002
2182.00,0.0001
2181.00,0.0001
2180.00,0.0002
2179.00,0.0003
2178.00,0.0003
2177.00,0.0002
2176.00,0.0001
2175.00,0.0002
2174.00,0.0003
2173.00,0.0004
2172.00,0.0006
2171.00,0.0007
2170.00,0.0009
2169.00,0.0010
2168.00,0.0011
2167.00,0.0012
2166.00,0.0011
2165.00,0.0011
2164.00,0.0011
2163.00,0.0010
2162.00,0.0008
2161.00,0.0003
2160.00,-0.0006
2159.00,-0.0015
2158.00,-0.0020
2157.00,-0.0021
2156.00,-0.0019
2155.00,-0.0017
2154.00,-0.0015
2153.00,-0.0014
2152.00,-0.0012
2151.00,-0.0011
2150.00,-0.0010
2149.00,-0.0009
2148.00,-0.0009
2147.00,-0.0010
2146.00,-0.0010
2145.00,-0.0009
2144.00,-0.0009
2143.00,-0.0008
2142.00,-0.0008
2141.00,-0.0008
2140.00,-0.0008
2139.00,-0.0008
2138.00,-0.0009
2137.00,-0.0011
2136.00,-0.0013
2135.00,-0.0014
2134.00,-0.0014
2133.00,-0.0014
2132.00,-0.0013
2131.00,-0.0011
2130.00,-0.0011
2129.00,-0.0010
2128.00,-0.0009
2127.00,-0.0007
2126.00,-0.0006
2125.00,-0.0005
2124.00,-0.0004
2123.00,-0.0004
2122.00,-0.0003
2121.00,-0.0003
2120.00,-0.0002
2119.00,-0.0001
2118.00,-0.0001
2117.00,0.0000
2116.00,0.0001
2115.00,0.0001
2114.00,0.0002
2113.00,0.0002
2112.00,0.0001
2111.00,0.0001
2110.00,0.0001
2109.00,0.0001
2108.00,0.0001
2107.00,0.0001
2106.00,-0.0000
2105.00,-0.0001
2104.00,-0.0000
2103.00,0.0001
2102.00,0.0001
2101.00,0.0002
2100.00,0.0001
2099.00,0.0001
2098.00,-0.0000
2097.00,-0.0001
2096.00,-0.0002
2095.00,-0.0003
2094.00,-0.0003
2093.00,-0.0003
2092.00,-0.0003
2091.00,-0.0002
2090.00,-0.0001
2089.00,0.0000
2088.00,0.0001
2087.00,0.0002
2086.00,0.0002
2085.00,0.0002
2084.00,0.0002
2083.00,0.0003
2082.00,0.0002
2081.00,0.0002
2080.00,0.0001
2079.00,0.0001
2078.00,0.0002
2077.00,0.0002
2076.00,0.0003
2075.00,0.0003
2074.00,0.0004
2073.00,0.0004
2072.00,0.0004
2071.00,0.0003
2070.00,0.0002
2069.00,0.0001
2068.00,0.0001
2067.00,0.0000
2066.00,0.0000
2065.00,0.0000
2064.00,0.0001
2063.00,0.0001
2062.00,0.0001
2061.00,0.0000
2060.00,-0.0000
2059.00,0.0000
2058.00,0.0001
2057.00,0.0001
2056.00,0.0001
2055.00,0.0002
2054.00,0.0003
2053.00,0.0006
2052.00,0.0009
2051.00,0.0010
2050.00,0.0009
2049.00,0.0007
2048.00,0.0005
2047.00,0.0006
2046.00,0.0006
2045.00,0.0007
2044.00,0.0007
2043.00,0.0007
2042.00,0.0007
2041.00,0.0006
2040.00,0.0005
2039.00,0.0004
2038.00,0.0003
2037.00,0.0001
2036.00,-0.0000
2035.00,-0.0002
2034.00,-0.0003
2033.00,-0.0004
2032.00,-0.0004
2031.00,-0.0005
2030.00,-0.0005
2029.00,-0.0005
2028.00,-0.0005
2027.00,-0.0004
2026.00,-0.0004
2025.00,-0.0004
2024.00,-0.0004
2023.00,-0.0003
2022.00,-0.0001
2021.00,-0.0000
2020.00,-0.0001
2019.00,-0.0001
2018.00,-0.0001
2017.00,-0.0000
2016.00,0.0001
2015.00,0.0002
2014.00,0.0002
2013.00,0.0001
2012.00,-0.0000
2011.00,-0.0001
2010.00,-0.0002
2009.00,-0.0002
2008.00,-0.0003
2007.00,-0.0004
2006.00,-0.0006
2005.00,-0.0007
2004.00,-0.0006
2003.00,-0.0005
2002.00,-0.0004
2001.00,-0.0004
2000.00,-0.0004
1999.00,-0.0005
1998.00,-0.0004
1997.00,-0.0002
1996.00,-0.0001
1995.00,-0.0000
1994.00,0.0000
1993.00,0.0000
1992.00,0.0000
1991.00,0.0000
1990.00,0.0001
1989.00,0.0002
1988.00,0.0003
1987.00,0.0004
1986.00,0.0004
1985.00,0.0006
1984.00,0.0007
1983.00,0.0010
1982.00,0.0013
1981.00,0.0014
1980.00,0.0013
1979.00,0.0010
1978.00,0.0005
1977.00,0.0000
1976.00,-0.0003
1975.00,-0.0004
1974.00,-0.0005
1973.00,-0.0004
1972.00,-0.0003
1971.00,-0.0001
1970.00,0.0000
1969.00,0.0000
1968.00,-0.0001
1967.00,-0.0002
1966.00,-0.0003
1965.00,-0.0002
1964.00,-0.0001
1963.00,0.0000
1962.00,0.0001
1961.00,0.0001
1960.00,0.0000
1959.00,0.0000
1958.00,0.0002
1957.00,0.0003
1956.00,0.0006
1955.00,0.0007
1954.00,0.0008
1953.00,0.0009
1952.00,0.0009
1951.00,0.0009
1950.00,0.0010
1949.00,0.0011
1948.00,0.0012
1947.00,0.0012
1946.00,0.0013
1945.00,0.0013
1944.00,0.0013
1943.00,0.0013
1942.00,0.0013
1941.00,0.0013
1940.00,0.0012
1939.00,0.0011
1938.00,0.0010
1937.00,0.0010
1936.00,0.0009
1935.00,0.0008
1934.00,0.0007
1933.00,0.0006
1932.00,0.0005
1931.00,0.0004
1930.00,0.0003
1929.00,0.0002
1928.00,0.0002
1927.00,0.0001
1926.00,0.0000
1925.00,-0.0000
1924.00,-0.0000
1923.00,0.0001
1922.00,0.0001
1921.00,0.0001
1920.00,0.0001
1919.00,0.0001
1918.00,0.0001
1917.00,0.0001
1916.00,0.0002
1915.00,0.0001
1914.00,0.0001
1913.00,0.0001
1912.00,0.0000
1911.00,-0.0000
1910.00,-0.0000
1909.00,-0.0000
1908.00,-0.0000
1907.00,0.0000
1906.00,0.0000
1905.00,0.0000
1904.00,0.0000
1903.00,0.0001
1902.00,0.0001
1901.00,0.0002
1900.00,0.0002
1899.00,0.0002
1898.00,0.0002
1897.00,0.0002
1896.00,0.0002
1895.00,0.0003
1894.00,0.0004
1893.00,0.0005
1892.00,0.0005
1891.00,0.0005
1890.00,0.0005
1889.00,0.0006
1888.00,0.0007
1887.00,0.0008
1886.00,0.0008
1885.00,0.0009
1884.00,0.0010
1883.00,0.0011
1882.00,0.0011
1881.00,0.0012
1880.00,0.0012
1879.00,0.0012
1878.00,0.0012
1877.00,0.0012
1876.00,0.0013
1875.00,0.0013
1874.00,0.0014
1873.00,0.0014
1872.00,0.0014
1871.00,0.0014
1870.00,0.0013
1869.00,0.0012
1868.00,0.0012
1867.00,0.0012
1866.00,0.0012
1865.00,0.0012
1864.00,0.0012
1863.00,0.0011
1862.00,0.0010
1861.00,0.0009
1860.00,0.0009
1859.00,0.0008
1858.00,0.0007
1857.00,0.0007
1856.00,0.0006
1855.00,0.0005
1854.00,0.0004
1853.00,0.0004
1852.00,0.0003
1851.00,0.0003
1850.00,0.0002
1849.00,0.0002
1848.00,0.0001
1847.00,0.0001
1846.00,0.0000
1845.00,0.0000
1844.00,0.0001
1843.00,0.0001
1842.00,0.0001
1841.00,0.0001
1840.00,0.0001
1839.00,0.0001
1838.00,0.0001
1837.00,0.0002
1836.00,0.0002
1835.00,0.0003
1834.00,0.0003
1833.00,0.0003
1832.00,0.0003
1831.00,0.0003
1830.00,0.0004
1829.00,0.0004
1828.00,0.0004
1827.00,0.0004
1826.00,0.0005
1825.00,0.0006
1824.00,0.0007
1823.00,0.0008
1822.00,0.0008
1821.00,0.0008
1820.00,0.0008
1819.00,0.0008
1818.00,0.0008
1817.00,0.0008
1816.00,0.0009
1815.00,0.0010
1814.00,0.0010
1813.00,0.0011
1812.00,0.0012
1811.00,0.0013
1810.00,0.0015
1809.00,0.0015
1808.00,0.0016
1807.00,0.0017
1806.00,0.0017
1805.00,0.0018
1804.00,0.0018
1803.00,0.0019
1802.00,0.0019
1801.00,0.0019
1800.00,0.0019
1799.00,0.0019
1798.00,0.0018
1797.00,0.0018
1796.00,0.0017
1795.00,0.0016
1794.00,0.0015
1793.00,0.0014
1792.00,0.0014
1791.00,0.0013
1790.00,0.0013
1789.00,0.0013
1788.00,0.0013
1787.00,0.0013
1786.00,0.0013
1785.00,0.0013
1784.00,0.0013
1783.00,0.0013
1782.00,0.0013
1781.00,0.0014
1780.00,0.0014
1779.00,0.0015
1778.00,0.0015
1777.00,0.0015
1776.00,0.0015
1775.00,0.0016
1774.00,0.0016
1773.00,0.0016
1772.00,0.0017
1771.00,0.0018
1770.00,0.0018
1769.00,0.0018
1768.00,0.0018
1767.00,0.0019
1766.00,0.0020
1765.00,0.0020
1764.00,0.0021
1763.00,0.0021
1762.00,0.0023
1761.00,0.0024
1760.00,0.0026
1759.00,0.0028
1758.00,0.0029
1757.00,0.0032
1756.00,0.0034
1755.00,0.0037
1754.00,0.0040
1753.00,0.0042
1752.00,0.0045
1751.00,0.0047
1750.00,0.0050
1749.00,0.0053
1748.00,0.0056
1747.00,0.0059
1746.00,0.0061
1745.00,0.0063
1744.00,0.0065
1743.00,0.0066
1742.00,0.0066
1741.00,0.0066
1740.00,0.0066
1739.00,0.0065
1738.00,0.0065
1737.00,0.0065
1736.00,0.0064
1735.00,0.0062
1734.00,0.0060
1733.00,0.0057
1732.00,0.0055
1731.00,0.0054
1730.00,0.0053
1729.00,0.0053
1728.00,0.0052
1727.00,0.0051
1726.00,0.0050
1725.00,0.0049
1724.00,0.0047
1723.00,0.0046
1722.00,0.0045
1721.00,0.0045
1720.00,0.0044
1719.00,0.0043
1718.00,0.0042
1717.00,0.0040
1716.00,0.0039
1715.00,0.0039
1714.00,0.0038
1713.00,0.0038
1712.00,0.0038
1711.00,0.0038
1710.00,0.0038
1709.00,0.0038
1708.00,0.0038
1707.00,0.0038
1706.00,0.0037
1705.00,0.0037
1704.00,0.0037
1703.00,0.0037
1702.00,0.0037
1701.00,0.0037
1700.00,0.0037
1699.00,0.0036
1698.00,0.0036
1697.00,0.0035
1696.00,0.0035
1695.00,0.0036
1694.00,0.0036
1693.00,0.0036
1692.00,0.0036
1691.00,0.0037
1690.00,0.0038
1689.00,0.0038
1688.00,0.0039
1687.00,0.0040
1686.00,0.0040
1685.00,0.0040
1684.00,0.0041
1683.00,0.0042
1682.00,0.0043
1681.00,0.0043
1680.00,0.0043
1679.00,0.0044
1678.00,0.0044
1677.00,0.0044
1676.00,0.0045
1675.00,0.0045
1674.00,0.0045
1673.00,0.0046
1672.00,0.0046
1671.00,0.0046
1670.00,0.0046
1669.00,0.0047
1668.00,0.0047
1667.00,0.0047
1666.00,0.0047
1665.00,0.0047
1664.00,0.0047
1663.00,0.0047
1662.00,0.0047
1661.00,0.0047
1660.00,0.0047
1659.00,0.0046
1658.00,0.0046
1657.00,0.0046
1656.00,0.0046
1655.00,0.0046
1654.00,0.0045
1653.00,0.0044
1652.00,0.0043
1651.00,0.0042
1650.00,0.0041
1649.00,0.0041
1648.00,0.0041
1647.00,0.0041
1646.00,0.0040
1645.00,0.0039
1644.00,0.0039
1643.00,0.0038
1642.00,0.0038
1641.00,0.0037
1640.00,0.0037
1639.00,0.0036
1638.00,0.0035
1637.00,0.0035
1636.00,0.0034
1635.00,0.0034
1634.00,0.0034
1633.00,0.0033
1632.00,0.0032
1631.00,0.0032
1630.00,0.0031
1629.00,0.0031
1628.00,0.0031
1627.00,0.0031
1626.00,0.0031
1625.00,0.0031
1624.00,0.0031
1623.00,0.0031
1622.00,0.0031
1621.00,0.0031
1620.00,0.0031
1619.00,0.0031
1618.00,0.0032
1617.00,0.0032
1616.00,0.0033
1615.00,0.0034
1614.00,0.0035
1613.00,0.0037
1612.00,0.0039
1611.00,0.0042
1610.00,0.0046
1609.00,0.0052
1608.00,0.0060
1607.00,0.0071
1606.00,0.0084
1605.00,0.0098
1604.00,0.0113
1603.00,0.0126
1602.00,0.0136
1601.00,0.0141
1600.00,0.0138
1599.00,0.0130
1598.00,0.0117
1597.00,0.0104
1596.00,0.0090
1595.00,0.0079
1594.00,0.0070
1593.00,0.0063
1592.00,0.0058
1591.00,0.0054
1590.00,0.0051
1589.00,0.0050
1588.00,0.0050
1587.00,0.0052
1586.00,0.0056
1585.00,0.0061
1584.00,0.0065
1583.00,0.0066
1582.00,0.0064
1581.00,0.0060
1580.00,0.0054
1579.00,0.0048
1578.00,0.0043
1577.00,0.0038
1576.00,0.0035
1575.00,0.0033
1574.00,0.0032
1573.00,0.0031
1572.00,0.0030
1571.00,0.0030
1570.00,0.0029
1569.00,0.0029
1568.00,0.0029
1567.00,0.0028
1566.00,0.0028
1565.00,0.0028
1564.00,0.0028
1563.00,0.0028
1562.00,0.0028
1561.00,0.0028
1560.00,0.0028
1559.00,0.0028
1558.00,0.0029
1557.00,0.0030
1556.00,0.0030
1555.00,0.0030
1554.00,0.0031
1553.00,0.0031
1552.00,0.0032
1551.00,0.0032
1550.00,0.0033
1549.00,0.0033
1548.00,0.0034
1547.00,0.0034
1546.00,0.0034
1545.00,0.0034
1544.00,0.0035
1543.00,0.0035
1542.00,0.0035
1541.00,0.0035
1540.00,0.0034
1539.00,0.0034
1538.00,0.0033
1537.00,0.0032
1536.00,0.0031
1535.00,0.0030
1534.00,0.0030
1533.00,0.0029
1532.00,0.0029
1531.00,0.0028
1530.00,0.0028
1529.00,0.0027
1528.00,0.0026
1527.00,0.0026
1526.00,0.0026
1525.00,0.0025
1524.00,0.0025
1523.00,0.0024
1522.00,0.0023
1521.00,0.0023
1520.00,0.0023
1519.00,0.0023
1518.00,0.0024
1517.00,0.0024
1516.00,0.0024
1515.00,0.0024
1514.00,0.0024
1513.00,0.0024
1512.00,0.0024
1511.00,0.0024
1510.00,0.0025
1509.00,0.0025
1508.00,0.0025
1507.00,0.0027
1506.00,0.0029
1505.00,0.0032
1504.00,0.0035
1503.00,0.0038
1502.00,0.0042
1501.00,0.0049
1500.00,0.0060
1499.00,0.0075
1498.00,0.0100
1497.00,0.0137
1496.00,0.0186
1495.00,0.0240
1494.00,0.0287
1493.00,0.0316
1492.00,0.0321
1491.00,0.0297
1490.00,0.0252
1489.00,0.0202
1488.00,0.0160
1487.00,0.0129
1486.00,0.0106
1485.00,0.0089
1484.00,0.0076
1483.00,0.0066
1482.00,0.0058
1481.00,0.0052
1480.00,0.0048
1479.00,0.0045
1478.00,0.0043
1477.00,0.0042
1476.00,0.0041
1475.00,0.0040
1474.00,0.0040
1473.00,0.0041
1472.00,0.0042
1471.00,0.0044
1470.00,0.0046
1469.00,0.0048
1468.00,0.0050
1467.00,0.0051
1466.00,0.0053
1465.00,0.0054
1464.00,0.0056
1463.00,0.0058
1462.00,0.0061
1461.00,0.0065
1460.00,0.0072
1459.00,0.0083
1458.00,0.0102
1457.00,0.0136
1456.00,0.0181
1455.00,0.0230
1454.00,0.0274
1453.00,0.0310
1452.00,0.0329
1451.00,0.0330
1450.00,0.0315
1449.00,0.0291
1448.00,0.0265
1447.00,0.0242
1446.00,0.0223
1445.00,0.0207
1444.00,0.0192
1443.00,0.0177
1442.00,0.0163
1441.00,0.0151
1440.00,0.0140
1439.00,0.0131
1438.00,0.0120
1437.00,0.0109
1436.00,0.0098
1435.00,0.0088
1434.00,0.0081
1433.00,0.0075
1432.00,0.0069
1431.00,0.0064
1430.00,0.0059
1429.00,0.0056
1428.00,0.0053
1427.00,0.0051
1426.00,0.0050
1425.00,0.0048
1424.00,0.0048
1423.00,0.0047
1422.00,0.0046
1421.00,0.0046
1420.00,0.0046
1419.00,0.0046
1418.00,0.0045
1417.00,0.0045
1416.00,0.0045
1415.00,0.0045
1414.00,0.0044
1413.00,0.0044
1412.00,0.0044
1411.00,0.0044
1410.00,0.0043
1409.00,0.0043
1408.00,0.0043
1407.00,0.0043
1406.00,0.0043
1405.00,0.0043
1404.00,0.0043
1403.00,0.0043
1402.00,0.0043
1401.00,0.0043
1400.00,0.0043
1399.00,0.0043
1398.00,0.0044
1397.00,0.0044
1396.00,0.0045
1395.00,0.0046
1394.00,0.0047
1393.00,0.0048
1392.00,0.0050
1391.00,0.0052
1390.00,0.0054
1389.00,0.0056
1388.00,0.0058
1387.00,0.0060
1386.00,0.0063
1385.00,0.0065
1384.00,0.0067
1383.00,0.0069
1382.00,0.0071
1381.00,0.0074
1380.00,0.0075
1379.00,0.0077
1378.00,0.0079
1377.00,0.0081
1376.00,0.0082
1375.00,0.0084
1374.00,0.0085
1373.00,0.0085
1372.00,0.0086
1371.00,0.0086
1370.00,0.0086
1369.00,0.0085
1368.00,0.0084
1367.00,0.0084
1366.00,0.0083
1365.00,0.0082
1364.00,0.0082
1363.00,0.0081
1362.00,0.0080
1361.00,0.0079
1360.00,0.0078
1359.00,0.0077
1358.00,0.0076
1357.00,0.0075
1356.00,0.0074
1355.00,0.0074
1354.00,0.0073
1353.00,0.0073
1352.00,0.0073
1351.00,0.0073
1350.00,0.0072
1349.00,0.0072
1348.00,0.0071
1347.00,0.0071
1346.00,0.0070
1345.00,0.0069
1344.00,0.0068
1343.00,0.0067
1342.00,0.0066
1341.00,0.0064
1340.00,0.0063
1339.00,0.0063
1338.00,0.0062
1337.00,0.0063
1336.00,0.0064
1335.00,0.0065
1334.00,0.0067
1333.00,0.0068
1332.00,0.0070
1331.00,0.0071
1330.00,0.0072
1329.00,0.0073
1328.00,0.0073
1327.00,0.0073
1326.00,0.0073
1325.00,0.0072
1324.00,0.0071
1323.00,0.0070
1322.00,0.0070
1321.00,0.0069
1320.00,0.0068
1319.00,0.0068
1318.00,0.0069
1317.00,0.0069
1316.00,0.0070
1315.00,0.0071
1314.00,0.0071
1313.00,0.0072
1312.00,0.0072
1311.00,0.0072
1310.00,0.0072
1309.00,0.0071
1308.00,0.0070
1307.00,0.0069
1306.00,0.0068
1305.00,0.0068
1304.00,0.0067
1303.00,0.0066
1302.00,0.0065
1301.00,0.0064
1300.00,0.0063
1299.00,0.0063
1298.00,0.0063
1297.00,0.0063
1296.00,0.0063
1295.00,0.0063
1294.00,0.0063
1293.00,0.0063
1292.00,0.0063
1291.00,0.0063
1290.00,0.0063
1289.00,0.0062
1288.00,0.0062
1287.00,0.0062
1286.00,0.0061
1285.00,0.0061
1284.00,0.0061
1283.00,0.0061
1282.00,0.0061
1281.00,0.0061
1280.00,0.0061
1279.00,0.0060
1278.00,0.0059
1277.00,0.0059
1276.00,0.0058
1275.00,0.0057
1274.00,0.0056
1273.00,0.0056
1272.00,0.0055
1271.00,0.0055
1270.00,0.0055
1269.00,0.0054
1268.00,0.0054
1267.00,0.0054
1266.00,0.0054
1265.00,0.0054
1264.00,0.0053
1263.00,0.0053
1262.00,0.0053
1261.00,0.0052
1260.00,0.0052
1259.00,0.0052
1258.00,0.0052
1257.00,0.0052
1256.00,0.0052
1255.00,0.0053
1254.00,0.0053
1253.00,0.0053
1252.00,0.0053
1251.00,0.0053
1250.00,0.0054
1249.00,0.0054
1248.00,0.0054
1247.00,0.0054
1246.00,0.0055
1245.00,0.0055
1244.00,0.0055
1243.00,0.0055
1242.00,0.0054
1241.00,0.0054
1240.00,0.0054
1239.00,0.0054
1238.00,0.0054
1237.00,0.0054
1236.00,0.0054
1235.00,0.0053
1234.00,0.0053
1233.00,0.0053
1232.00,0.0053
1231.00,0.0053
1230.00,0.0054
1229.00,0.0054
1228.00,0.0054
1227.00,0.0054
1226.00,0.0054
1225.00,0.0054
1224.00,0.0054
1223.00,0.0054
1222.00,0.0054
1221.00,0.0054
1220.00,0.0054
1219.00,0.0054
1218.00,0.0054
1217.00,0.0054
1216.00,0.0055
1215.00,0.0055
1214.00,0.0055
1213.00,0.0056
1212.00,0.0056
1211.00,0.0057
1210.00,0.0058
1209.00,0.0059
1208.00,0.0060
1207.00,0.0060
1206.00,0.0062
1205.00,0.0063
1204.00,0.0064
1203.00,0.0066
1202.00,0.0067
1201.00,0.0069
1200.00,0.0071
1199.00,0.0072
1198.00,0.0073
1197.00,0.0074
1196.00,0.0075
1195.00,0.0075
1194.00,0.0076
1193.00,0.0076
1192.00,0.0076
1191.00,0.0077
1190.00,0.0077
1189.00,0.0078
1188.00,0.0080
1187.00,0.0082
1186.00,0.0085
1185.00,0.0089
1184.00,0.0092
1183.00,0.0096
1182.00,0.0098
1181.00,0.0100
1180.00,0.0099
1179.00,0.0097
1178.00,0.0093
1177.00,0.0088
1176.00,0.0084
1175.00,0.0080
1174.00,0.0077
1173.00,0.0075
1172.00,0.0074
1171.00,0.0073
1170.00,0.0073
1169.00,0.0072
1168.00,0.0072
1167.00,0.0071
1166.00,0.0071
1165.00,0.0071
1164.00,0.0071
1163.00,0.0072
1162.00,0.0074
1161.00,0.0076
1160.00,0.0079
1159.00,0.0083
1158.00,0.0088
1157.00,0.0093
1156.00,0.0097
1155.00,0.0100
1154.00,0.0099
1153.00,0.0097
1152.00,0.0092
1151.00,0.0086
1150.00,0.0080
1149.00,0.0075
1148.00,0.0071
1147.00,0.0068
1146.00,0.0065
1145.00,0.0063
1144.00,0.0061
1143.00,0.0060
1142.00,0.0058
1141.00,0.0056
1140.00,0.0055
1139.00,0.0054
1138.00,0.0053
1137.00,0.0052
1136.00,0.0052
1135.00,0.0052
1134.00,0.0051
1133.00,0.0051
1132.00,0.0051
1131.00,0.0051
1130.00,0.0051
1129.00,0.0051
1128.00,0.0052
1127.00,0.0052
1126.00,0.0052
1125.00,0.0053
1124.00,0.0054
1123.00,0.0055
1122.00,0.0056
1121.00,0.0056
1120.00,0.0057
1119.00,0.0058
1118.00,0.0060
1117.00,0.0061
1116.00,0.0063
1115.00,0.0064
1114.00,0.0065
1113.00,0.0066
1112.00,0.0066
1111.00,0.0066
1110.00,0.0066
1109.00,0.0066
1108.00,0.0065
1107.00,0.0065
1106.00,0.0065
1105.00,0.0065
1104.00,0.0065
1103.00,0.0066
1102.00,0.0066
1101.00,0.0067
1100.00,0.0067
1099.00,0.0068
1098.00,0.0068
1097.00,0.0069
1096.00,0.0069
1095.00,0.0070
1094.00,0.0071
1093.00,0.0071
1092.00,0.0072
1091.00,0.0072
1090.00,0.0072
1089.00,0.0073
1088.00,0.0074
1087.00,0.0075
1086.00,0.0077
1085.00,0.0078
1084.00,0.0079
1083.00,0.0081
1082.00,0.0083
1081.00,0.0085
1080.00,0.0088
1079.00,0.0090
1078.00,0.0092
1077.00,0.0095
1076.00,0.0099
1075.00,0.0103
1074.00,0.0107
1073.00,0.0111
1072.00,0.0114
1071.00,0.0117
1070.00,0.0119
1069.00,0.0120
1068.00,0.0120
1067.00,0.0119
1066.00,0.0116
1065.00,0.0113
1064.00,0.0109
1063.00,0.0104
1062.00,0.0100
1061.00,0.0097
1060.00,0.0093
1059.00,0.0090
1058.00,0.0087
1057.00,0.0085
1056.00,0.0083
1055.00,0.0081
1054.00,0.0079
1053.00,0.0077
1052.00,0.0075
1051.00,0.0073
1050.00,0.0072
1049.00,0.0071
1048.00,0.0070
1047.00,0.0070
1046.00,0.0069
1045.00,0.0069
1044.00,0.0068
1043.00,0.0068
1042.00,0.0068
1041.00,0.0069
1040.00,0.0070
1039.00,0.0072
1038.00,0.0075
1037.00,0.0081
1036.00,0.0089
1035.00,0.0100
1034.00,0.0115
1033.00,0.0131
1032.00,0.0147
1031.00,0.0162
1030.00,0.0174
1029.00,0.0183
1028.00,0.0187
1027.00,0.0184
1026.00,0.0177
1025.00,0.0166
1024.00,0.0154
1023.00,0.0142
1022.00,0.0132
1021.00,0.0124
1020.00,0.0117
1019.00,0.0111
1018.00,0.0105
1017.00,0.0101
1016.00,0.0097
1015.00,0.0093
1014.00,0.0090
1013.00,0.0087
1012.00,0.0085
1011.00,0.0083
1010.00,0.0081
1009.00,0.0081
1008.00,0.0081
1007.00,0.0082
1006.00,0.0083
1005.00,0.0084
1004.00,0.0086
1003.00,0.0086
1002.00,0.0085
1001.00,0.0081
1000.00,0.0077
999.00,0.0072
998.00,0.0069
997.00,0.0066
996.00,0.0065
995.00,0.0064
994.00,0.0063
993.00,0.0063
992.00,0.0064
991.00,0.0064
990.00,0.0065
989.00,0.0066
988.00,0.0067
987.00,0.0068
986.00,0.0069
985.00,0.0071
984.00,0.0073
983.00,0.0075
982.00,0.0076
981.00,0.0077
980.00,0.0077
979.00,0.0077
978.00,0.0076
977.00,0.0074
976.00,0.0073
975.00,0.0071
974.00,0.0070
973.00,0.0070
972.00,0.0070
971.00,0.0071
970.00,0.0073
969.00,0.0075
968.00,0.0078
967.00,0.0080
966.00,0.0082
965.00,0.0082
964.00,0.0082
963.00,0.0081
962.00,0.0080
961.00,0.0077
960.00,0.0074
959.00,0.0071
958.00,0.0068
957.00,0.0066
956.00,0.0064
955.00,0.0063
954.00,0.0062
953.00,0.0061
952.00,0.0060
951.00,0.0060
950.00,0.0060
949.00,0.0061
948.00,0.0062
947.00,0.0063
946.00,0.0064
945.00,0.0065
944.00,0.0066
943.00,0.0067
942.00,0.0067
941.00,0.0066
940.00,0.0065
939.00,0.0063
938.00,0.0061
937.00,0.0059
936.00,0.0057
935.00,0.0055
934.00,0.0053
933.00,0.0052
932.00,0.0050
931.00,0.0049
930.00,0.0048
929.00,0.0048
928.00,0.0048
927.00,0.0048
926.00,0.0048
925.00,0.0049
924.00,0.0049
923.00,0.0050
922.00,0.0051
921.00,0.0053
920.00,0.0055
919.00,0.0057
918.00,0.0059
917.00,0.0062
916.00,0.0066
915.00,0.0071
914.00,0.0077
913.00,0.0085
912.00,0.0092
911.00,0.0100
910.00,0.0107
909.00,0.0114
908.00,0.0119
907.00,0.0122
906.00,0.0123
905.00,0.0121
904.00,0.0117
903.00,0.0110
902.00,0.0101
901.00,0.0092
900.00,0.0083
899.00,0.0075
898.00,0.0068
897.00,0.0062
896.00,0.0057
895.00,0.0053
894.00,0.0051
893.00,0.0049
892.00,0.0047
891.00,0.0046
890.00,0.0045
889.00,0.0044
888.00,0.0043
887.00,0.0041
886.00,0.0040
885.00,0.0039
884.00,0.0038
883.00,0.0037
882.00,0.0036
881.00,0.0036
880.00,0.0037
879.00,0.0037
878.00,0.0036
877.00,0.0036
876.00,0.0035
875.00,0.0035
874.00,0.0035
873.00,0.0035
872.00,0.0034
871.00,0.0034
870.00,0.0033
869.00,0.0033
868.00,0.0032
867.00,0.0032
866.00,0.0032
865.00,0.0032
864.00,0.0031
863.00,0.0031
862.00,0.0031
861.00,0.0031
860.00,0.0032
859.00,0.0032
858.00,0.0032
857.00,0.0032
856.00,0.0033
855.00,0.0033
854.00,0.0034
853.00,0.0036
852.00,0.0037
851.00,0.0039
850.00,0.0041
849.00,0.0044
848.00,0.0047
847.00,0.0051
846.00,0.0054
845.00,0.0057
844.00,0.0059
843.00,0.0061
842.00,0.0061
841.00,0.0061
840.00,0.0060
839.00,0.0058
838.00,0.0055
837.00,0.0052
836.00,0.0048
835.00,0.0045
834.00,0.0041
833.00,0.0038
832.00,0.0036
831.00,0.0035
830.00,0.0034
829.00,0.0032
828.00,0.0032
827.00,0.0031
826.00,0.0030
825.00,0.0029
824.00,0.0029
823.00,0.0028
822.00,0.0029
821.00,0.0029
820.00,0.0029
819.00,0.0029
818.00,0.0029
817.00,0.0029
816.00,0.0029
815.00,0.0030
814.00,0.0031
813.00,0.0031
812.00,0.0032
811.00,0.0032
810.00,0.0032
809.00,0.0032
808.00,0.0033
807.00,0.0033
806.00,0.0032
805.00,0.0032
804.00,0.0032
803.00,0.0033
802.00,0.0035
801.00,0.0036
800.00,0.0037
799.00,0.0039
798.00,0.0040
797.00,0.0041
796.00,0.0042
795.00,0.0044
794.00,0.0046
793.00,0.0048
792.00,0.0051
791.00,0.0055
790.00,0.0058
789.00,0.0061
788.00,0.0064
787.00,0.0067
786.00,0.0071
785.00,0.0075
784.00,0.0079
783.00,0.0084
782.00,0.0090
781.00,0.0097
780.00,0.0104
779.00,0.0113
778.00,0.0123
777.00,0.0134
776.00,0.0146
775.00,0.0159
774.00,0.0173
773.00,0.0188
772.00,0.0205
771.00,0.0223
770.00,0.0242
769.00,0.0261
768.00,0.0279
767.00,0.0298
766.00,0.0316
765.00,0.0334
764.00,0.0352
763.00,0.0369
762.00,0.0386
761.00,0.0404
760.00,0.0422
759.00,0.0438
758.00,0.0453
757.00,0.0464
756.00,0.0472
755.00,0.0475
754.00,0.0475
753.00,0.0473
752.00,0.0471
751.00,0.0469
750.00,0.0469
749.00,0.0468
748.00,0.0466
747.00,0.0459
746.00,0.0447
745.00,0.0428
744.00,0.0404
743.00,0.0374
742.00,0.0342
741.00,0.0310
740.00,0.0280
739.00,0.0253
738.00,0.0227
737.00,0.0204
736.00,0.0182
735.00,0.0161
734.00,0.0141
733.00,0.0123
732.00,0.0107
731.00,0.0094
730.00,0.0084
729.00,0.0077
728.00,0.0072
727.00,0.0068
726.00,0.0065
725.00,0.0063
724.00,0.0061
723.00,0.0060
722.00,0.0060
721.00,0.0060
720.00,0.0061
719.00,0.0061
718.00,0.0063
717.00,0.0065
716.00,0.0068
715.00,0.0073
714.00,0.0081
713.00,0.0092
712.00,0.0106
711.00,0.0127
710.00,0.0155
709.00,0.0191
708.00,0.0237
707.00,0.0293
706.00,0.0357
705.00,0.0431
704.00,0.0513
703.00,0.0602
702.00,0.0696
701.00,0.0795
700.00,0.0895
699.00,0.0994
698.00,0.1089
697.00,0.1174
696.00,0.1238
695.00,0.1267
694.00,0.1252
693.00,0.1189
692.00,0.1087
691.00,0.0965
690.00,0.0841
689.00,0.0728
688.00,0.0633
687.00,0.0555
686.00,0.0492
685.00,0.0442
684.00,0.0401
683.00,0.0367
682.00,0.0338
681.00,0.0314
680.00,0.0293
679.00,0.0275
678.00,0.0259
677.00,0.0245
676.00,0.0233
675.00,0.0223
674.00,0.0214
673.00,0.0206
672.00,0.0199
671.00,0.0194
670.00,0.0189
669.00,0.0182
668.00,0.0173
667.00,0.0164
666.00,0.0157
665.00,0.0153
664.00,0.0149
663.00,0.0144
662.00,0.0138
661.00,0.0133
660.00,0.0127
659.00,0.0121
658.00,0.0116
657.00,0.0111
656.00,0.0107
655.00,0.0103
654.00,0.0099
653.00,0.0096
652.00,0.0093
651.00,0.0090
650.00,0.0087
649.00,0.0084
648.00,0.0082
647.00,0.0079
646.00,0.0078
645.00,0.0076
644.00,0.0075
643.00,0.0074
642.00,0.0074
641.00,0.0074
640.00,0.0073
639.00,0.0074
638.00,0.0075
637.00,0.0077
636.00,0.0079
635.00,0.0081
634.00,0.0083
633.00,0.0085
632.00,0.0087
631.00,0.0089
630.00,0.0090
629.00,0.0092
628.00,0.0093
627.00,0.0094
626.00,0.0094
625.00,0.0095
624.00,0.0096
623.00,0.0098
622.00,0.0100
621.00,0.0102
620.00,0.0102
619.00,0.0100
618.00,0.0098
617.00,0.0094
616.00,0.0092
615.00,0.0090
614.00,0.0088
613.00,0.0086
612.00,0.0083
611.00,0.0081
610.00,0.0080
609.00,0.0079
608.00,0.0079
607.00,0.0080
606.00,0.0080
605.00,0.0080
604.00,0.0080
603.00,0.0081
602.00,0.0081
601.00,0.0081
600.00,0.0082
599.00,0.0083
598.00,0.0084
597.00,0.0085
596.00,0.0086
595.00,0.0087
594.00,0.0088
593.00,0.0090
592.00,0.0090
591.00,0.0091
590.00,0.0092
589.00,0.0094
588.00,0.0096
587.00,0.0098
586.00,0.0100
585.00,0.0102
584.00,0.0104
583.00,0.0106
582.00,0.0108
581.00,0.0111
580.00,0.0115
579.00,0.0120
578.00,0.0125
577.00,0.0130
576.00,0.0137
575.00,0.0144
574.00,0.0152
573.00,0.0160
572.00,0.0167
571.00,0.0174
570.00,0.0179
569.00,0.0183
568.00,0.0188
567.00,0.0193
566.00,0.0199
565.00,0.0206
564.00,0.0214
563.00,0.0221
562.00,0.0227
561.00,0.0231
560.00,0.0236
559.00,0.0241
558.00,0.0246
557.00,0.0254
556.00,0.0262
555.00,0.0270
554.00,0.0277
553.00,0.0285
552.00,0.0293
551.00,0.0302
550.00,0.0312
549.00,0.0321
548.00,0.0332
547.00,0.0344
546.00,0.0357
545.00,0.0372
544.00,0.0388
543.00,0.0404
542.00,0.0419
541.00,0.0432
540.00,0.0441
539.00,0.0448
538.00,0.0450
537.00,0.0448
536.00,0.0441
535.00,0.0429
534.00,0.0411
533.00,0.0391
532.00,0.0370
531.00,0.0348
530.00,0.0326
529.00,0.0305
528.00,0.0285
527.00,0.0266
526.00,0.0247
525.00,0.0229
524.00,0.0215
523.00,0.0203
522.00,0.0192
521.00,0.0182
520.00,0.0174
519.00,0.0167
518.00,0.0161
517.00,0.0155
516.00,0.0151
515.00,0.0149
514.00,0.0147
513.00,0.0145
512.00,0.0141
511.00,0.0136
510.00,0.0130
509.00,0.0125
508.00,0.0120
507.00,0.0115
506.00,0.0110
505.00,0.0105
504.00,0.0102
503.00,0.0101
502.00,0.0101
501.00,0.0101
500.00,0.0100
499.00,0.0098
498.00,0.0094
497.00,0.0091
496.00,0.0089
495.00,0.0089
494.00,0.0089
493.00,0.0089
492.00,0.0088
491.00,0.0086
490.00,0.0084
489.00,0.0082
488.00,0.0080
487.00,0.0078
486.00,0.0078
485.00,0.0080
484.00,0.0081
483.00,0.0081
482.00,0.0079
481.00,0.0077
480.00,0.0075
479.00,0.0075
478.00,0.0076
477.00,0.0076
476.00,0.0075
475.00,0.0073
474.00,0.0071
473.00,0.0070
472.00,0.0070
471.00,0.0071
470.00,0.0071
469.00,0.0072
468.00,0.0073
467.00,0.0074
466.00,0.0072
465.00,0.0069
464.00,0.0067
463.00,0.0065
462.00,0.0065
461.00,0.0067
460.00,0.0068
459.00,0.0068
458.00,0.0068
457.00,0.0068
456.00,0.0070
455.00,0.0071
454.00,0.0072
453.00,0.0071
452.00,0.0069
451.00,0.0067
450.00,0.0066
449.00,0.0067
448.00,0.0068
447.00,0.0068
446.00,0.0066
445.00,0.0064
444.00,0.0062
443.00,0.0060
442.00,0.0057
441.00,0.0057
440.00,0.0058
439.00,0.0059
438.00,0.0057
437.00,0.0054
436.00,0.0052
435.00,0.0053
434.00,0.0057
433.00,0.0061
432.00,0.0062
431.00,0.0059
430.00,0.0054
429.00,0.0052
428.00,0.0051
427.00,0.0052
426.00,0.0052
425.00,0.0052
424.00,0.0052
423.00,0.0054
422.00,0.0055
421.00,0.0055
420.00,0.0056
419.00,0.0056
418.00,0.0055
417.00,0.0053
416.00,0.0051
415.00,0.0048
414.00,0.0046
413.00,0.0045
412.00,0.0047
411.00,0.0052
410.00,0.0056
409.00,0.0057
408.00,0.0053
407.00,0.0047
406.00,0.0042
405.00,0.0040
404.00,0.0040
403.00,0.0041
402.00,0.0043
401.00,0.0047
400.00,0.0053
