Created as New Dataset,Sample 616 By YargerLab Date Monday, March 09 2026
cm-1,A
4000.00,0.0002
3999.00,0.0002
3998.00,0.0002
3997.00,0.0002
3996.00,0.0002
3995.00,0.0002
3994.00,0.0002
3993.00,0.0002
3992.00,0.0002
3991.00,0.0002
3990.00,0.0002
3989.00,0.0002
3988.00,0.0002
3987.00,0.0002
3986.00,0.0002
3985.00,0.0002
3984.00,0.0002
3983.00,0.0002
3982.00,0.0002
3981.00,0.0001
3980.00,0.0001
3979.00,0.0001
3978.00,0.0001
3977.00,0.0001
3976.00,0.0001
3975.00,0.0001
3974.00,0.0001
3973.00,0.0001
3972.00,0.0001
3971.00,0.0001
3970.00,0.0001
3969.00,0.0001
3968.00,0.0001
3967.00,0.0002
3966.00,0.0002
3965.00,0.0002
3964.00,0.0002
3963.00,0.0002
3962.00,0.0002
3961.00,0.0002
3960.00,0.0001
3959.00,0.0001
3958.00,0.0001
3957.00,0.0002
3956.00,0.0002
3955.00,0.0002
3954.00,0.0002
3953.00,0.0002
3952.00,0.0002
3951.00,0.0002
3950.00,0.0002
3949.00,0.0002
3948.00,0.0002
3947.00,0.0002
3946.00,0.0002
3945.00,0.0002
3944.00,0.0002
3943.00,0.0002
3942.00,0.0002
3941.00,0.0002
3940.00,0.0002
3939.00,0.0002
3938.00,0.0002
3937.00,0.0002
3936.00,0.0002
3935.00,0.0002
3934.00,0.0002
3933.00,0.0002
3932.00,0.0002
3931.00,0.0002
3930.00,0.0002
3929.00,0.0001
3928.00,0.0002
3927.00,0.0002
3926.00,0.0002
3925.00,0.0002
3924.00,0.0002
3923.00,0.0001
3922.00,0.0001
3921.00,0.0001
3920.00,0.0001
3919.00,0.0001
3918.00,0.0002
3917.00,0.0002
3916.00,0.0002
3915.00,0.0002
3914.00,0.0002
3913.00,0.0002
3912.00,0.0002
3911.00,0.0002
3910.00,0.0002
3909.00,0.0002
3908.00,0.0002
3907.00,0.0001
3906.00,0.0001
3905.00,0.0001
3904.00,0.0001
3903.00,0.0001
3902.00,0.0001
3901.00,0.0000
3900.00,0.0000
3899.00,0.0001
3898.00,0.0001
3897.00,0.0001
3896.00,0.0001
3895.00,0.0001
3894.00,0.0001
3893.00,0.0001
3892.00,0.0001
3891.00,0.0001
3890.00,0.0001
3889.00,0.0001
3888.00,0.0001
3887.00,0.0001
3886.00,0.0001
3885.00,0.0001
3884.00,0.0001
3883.00,0.0001
3882.00,0.0001
3881.00,0.0001
3880.00,0.0001
3879.00,0.0001
3878.00,0.0001
3877.00,0.0001
3876.00,0.0001
3875.00,0.0002
3874.00,0.0002
3873.00,0.0001
3872.00,0.0001
3871.00,0.0001
3870.00,0.0001
3869.00,0.0001
3868.00,0.0000
3867.00,0.0000
3866.00,0.0000
3865.00,0.0000
3864.00,0.0000
3863.00,0.0001
3862.00,0.0001
3861.00,0.0001
3860.00,0.0001
3859.00,0.0001
3858.00,0.0001
3857.00,0.0000
3856.00,-0.0000
3855.00,-0.0000
3854.00,-0.0000
3853.00,-0.0000
3852.00,-0.0000
3851.00,-0.0000
3850.00,0.0000
3849.00,0.0001
3848.00,0.0001
3847.00,0.0001
3846.00,0.0001
3845.00,0.0001
3844.00,0.0001
3843.00,0.0001
3842.00,0.0001
3841.00,0.0001
3840.00,0.0001
3839.00,0.0001
3838.00,0.0001
3837.00,0.0001
3836.00,0.0001
3835.00,0.0001
3834.00,0.0001
3833.00,0.0001
3832.00,0.0001
3831.00,0.0001
3830.00,0.0001
3829.00,0.0002
3828.00,0.0002
3827.00,0.0002
3826.00,0.0002
3825.00,0.0002
3824.00,0.0002
3823.00,0.0001
3822.00,0.0001
3821.00,0.0001
3820.00,0.0001
3819.00,0.0001
3818.00,0.0000
3817.00,0.0000
3816.00,0.0001
3815.00,0.0001
3814.00,0.0001
3813.00,0.0001
3812.00,0.0001
3811.00,0.0002
3810.00,0.0002
3809.00,0.0002
3808.00,0.0002
3807.00,0.0002
3806.00,0.0002
3805.00,0.0002
3804.00,0.0001
3803.00,0.0001
3802.00,0.0001
3801.00,0.0001
3800.00,0.0002
3799.00,0.0001
3798.00,0.0001
3797.00,0.0001
3796.00,0.0001
3795.00,0.0002
3794.00,0.0002
3793.00,0.0002
3792.00,0.0002
3791.00,0.0002
3790.00,0.0002
3789.00,0.0002
3788.00,0.0002
3787.00,0.0002
3786.00,0.0002
3785.00,0.0002
3784.00,0.0002
3783.00,0.0002
3782.00,0.0002
3781.00,0.0002
3780.00,0.0002
3779.00,0.0002
3778.00,0.0002
3777.00,0.0002
3776.00,0.0002
3775.00,0.0002
3774.00,0.0002
3773.00,0.0002
3772.00,0.0002
3771.00,0.0002
3770.00,0.0002
3769.00,0.0002
3768.00,0.0002
3767.00,0.0002
3766.00,0.0002
3765.00,0.0002
3764.00,0.0002
3763.00,0.0002
3762.00,0.0002
3761.00,0.0002
3760.00,0.0002
3759.00,0.0002
3758.00,0.0001
3757.00,0.0001
3756.00,0.0001
3755.00,0.0001
3754.00,0.0001
3753.00,0.0001
3752.00,0.0001
3751.00,0.0001
3750.00,0.0001
3749.00,0.0001
3748.00,0.0001
3747.00,0.0000
3746.00,0.0000
3745.00,0.0000
3744.00,0.0001
3743.00,0.0001
3742.00,0.0001
3741.00,0.0001
3740.00,0.0001
3739.00,0.0001
3738.00,0.0002
3737.00,0.0002
3736.00,0.0001
3735.00,0.0001
3734.00,0.0001
3733.00,0.0001
3732.00,0.0001
3731.00,0.0001
3730.00,0.0001
3729.00,0.0002
3728.00,0.0002
3727.00,0.0002
3726.00,0.0002
3725.00,0.0002
3724.00,0.0001
3723.00,0.0001
3722.00,0.0001
3721.00,0.0001
3720.00,0.0001
3719.00,0.0001
3718.00,0.0001
3717.00,0.0002
3716.00,0.0002
3715.00,0.0002
3714.00,0.0002
3713.00,0.0001
3712.00,0.0001
3711.00,0.0001
3710.00,0.0001
3709.00,0.0001
3708.00,0.0001
3707.00,0.0001
3706.00,0.0001
3705.00,0.0001
3704.00,0.0001
3703.00,0.0001
3702.00,0.0001
3701.00,0.0001
3700.00,0.0001
3699.00,0.0002
3698.00,0.0002
3697.00,0.0002
3696.00,0.0002
3695.00,0.0001
3694.00,0.0001
3693.00,0.0001
3692.00,0.0001
3691.00,0.0001
3690.00,0.0001
3689.00,0.0001
3688.00,0.0001
3687.00,0.0001
3686.00,0.0001
3685.00,0.0001
3684.00,0.0001
3683.00,0.0002
3682.00,0.0002
3681.00,0.0002
3680.00,0.0002
3679.00,0.0002
3678.00,0.0002
3677.00,0.0001
3676.00,0.0001
3675.00,0.0001
3674.00,0.0000
3673.00,0.0000
3672.00,-0.0000
3671.00,0.0000
3670.00,0.0000
3669.00,0.0001
3668.00,0.0001
3667.00,0.0001
3666.00,0.0001
3665.00,0.0001
3664.00,0.0001
3663.00,0.0001
3662.00,0.0001
3661.00,0.0001
3660.00,0.0001
3659.00,0.0001
3658.00,0.0001
3657.00,0.0001
3656.00,0.0002
3655.00,0.0002
3654.00,0.0001
3653.00,0.0001
3652.00,0.0001
3651.00,0.0001
3650.00,0.0001
3649.00,0.0001
3648.00,0.0000
3647.00,0.0000
3646.00,0.0000
3645.00,0.0001
3644.00,0.0001
3643.00,0.0001
3642.00,0.0001
3641.00,0.0002
3640.00,0.0002
3639.00,0.0002
3638.00,0.0002
3637.00,0.0002
3636.00,0.0002
3635.00,0.0002
3634.00,0.0002
3633.00,0.0002
3632.00,0.0002
3631.00,0.0001
3630.00,0.0001
3629.00,0.0001
3628.00,0.0001
3627.00,0.0000
3626.00,0.0000
3625.00,0.0001
3624.00,0.0001
3623.00,0.0001
3622.00,0.0001
3621.00,0.0002
3620.00,0.0002
3619.00,0.0001
3618.00,0.0001
3617.00,0.0001
3616.00,0.0001
3615.00,0.0001
3614.00,0.0001
3613.00,0.0001
3612.00,0.0001
3611.00,0.0001
3610.00,0.0001
3609.00,0.0001
3608.00,0.0001
3607.00,0.0001
3606.00,0.0001
3605.00,0.0002
3604.00,0.0002
3603.00,0.0002
3602.00,0.0002
3601.00,0.0002
3600.00,0.0002
3599.00,0.0002
3598.00,0.0002
3597.00,0.0002
3596.00,0.0001
3595.00,0.0001
3594.00,0.0002
3593.00,0.0002
3592.00,0.0002
3591.00,0.0002
3590.00,0.0002
3589.00,0.0002
3588.00,0.0002
3587.00,0.0001
3586.00,0.0001
3585.00,0.0001
3584.00,0.0001
3583.00,0.0002
3582.00,0.0002
3581.00,0.0002
3580.00,0.0002
3579.00,0.0002
3578.00,0.0002
3577.00,0.0002
3576.00,0.0002
3575.00,0.0002
3574.00,0.0002
3573.00,0.0003
3572.00,0.0002
3571.00,0.0002
3570.00,0.0002
3569.00,0.0002
3568.00,0.0002
3567.00,0.0001
3566.00,0.0001
3565.00,0.0001
3564.00,0.0002
3563.00,0.0002
3562.00,0.0002
3561.00,0.0002
3560.00,0.0002
3559.00,0.0003
3558.00,0.0003
3557.00,0.0003
3556.00,0.0003
3555.00,0.0003
3554.00,0.0003
3553.00,0.0003
3552.00,0.0003
3551.00,0.0003
3550.00,0.0003
3549.00,0.0003
3548.00,0.0003
3547.00,0.0003
3546.00,0.0003
3545.00,0.0003
3544.00,0.0003
3543.00,0.0003
3542.00,0.0003
3541.00,0.0003
3540.00,0.0003
3539.00,0.0003
3538.00,0.0003
3537.00,0.0004
3536.00,0.0004
3535.00,0.0004
3534.00,0.0004
3533.00,0.0004
3532.00,0.0004
3531.00,0.0004
3530.00,0.0004
3529.00,0.0004
3528.00,0.0004
3527.00,0.0004
3526.00,0.0004
3525.00,0.0004
3524.00,0.0004
3523.00,0.0004
3522.00,0.0003
3521.00,0.0003
3520.00,0.0004
3519.00,0.0004
3518.00,0.0004
3517.00,0.0004
3516.00,0.0004
3515.00,0.0004
3514.00,0.0004
3513.00,0.0004
3512.00,0.0004
3511.00,0.0004
3510.00,0.0004
3509.00,0.0004
3508.00,0.0004
3507.00,0.0004
3506.00,0.0004
3505.00,0.0004
3504.00,0.0004
3503.00,0.0004
3502.00,0.0005
3501.00,0.0005
3500.00,0.0005
3499.00,0.0005
3498.00,0.0005
3497.00,0.0005
3496.00,0.0004
3495.00,0.0004
3494.00,0.0004
3493.00,0.0004
3492.00,0.0004
3491.00,0.0004
3490.00,0.0004
3489.00,0.0005
3488.00,0.0005
3487.00,0.0005
3486.00,0.0005
3485.00,0.0005
3484.00,0.0005
3483.00,0.0005
3482.00,0.0005
3481.00,0.0005
3480.00,0.0005
3479.00,0.0004
3478.00,0.0004
3477.00,0.0004
3476.00,0.0004
3475.00,0.0005
3474.00,0.0005
3473.00,0.0005
3472.00,0.0005
3471.00,0.0005
3470.00,0.0005
3469.00,0.0005
3468.00,0.0005
3467.00,0.0005
3466.00,0.0005
3465.00,0.0005
3464.00,0.0005
3463.00,0.0005
3462.00,0.0005
3461.00,0.0005
3460.00,0.0005
3459.00,0.0005
3458.00,0.0005
3457.00,0.0005
3456.00,0.0005
3455.00,0.0005
3454.00,0.0005
3453.00,0.0005
3452.00,0.0005
3451.00,0.0005
3450.00,0.0005
3449.00,0.0005
3448.00,0.0005
3447.00,0.0005
3446.00,0.0005
3445.00,0.0005
3444.00,0.0005
3443.00,0.0005
3442.00,0.0005
3441.00,0.0005
3440.00,0.0005
3439.00,0.0005
3438.00,0.0005
3437.00,0.0005
3436.00,0.0005
3435.00,0.0006
3434.00,0.0006
3433.00,0.0006
3432.00,0.0006
3431.00,0.0005
3430.00,0.0005
3429.00,0.0005
3428.00,0.0005
3427.00,0.0005
3426.00,0.0005
3425.00,0.0005
3424.00,0.0005
3423.00,0.0005
3422.00,0.0005
3421.00,0.0005
3420.00,0.0005
3419.00,0.0005
3418.00,0.0005
3417.00,0.0005
3416.00,0.0005
3415.00,0.0005
3414.00,0.0005
3413.00,0.0006
3412.00,0.0006
3411.00,0.0006
3410.00,0.0006
3409.00,0.0006
3408.00,0.0006
3407.00,0.0006
3406.00,0.0006
3405.00,0.0006
3404.00,0.0006
3403.00,0.0006
3402.00,0.0006
3401.00,0.0006
3400.00,0.0006
3399.00,0.0005
3398.00,0.0005
3397.00,0.0005
3396.00,0.0005
3395.00,0.0006
3394.00,0.0006
3393.00,0.0006
3392.00,0.0005
3391.00,0.0005
3390.00,0.0005
3389.00,0.0005
3388.00,0.0005
3387.00,0.0005
3386.00,0.0005
3385.00,0.0005
3384.00,0.0005
3383.00,0.0006
3382.00,0.0006
3381.00,0.0006
3380.00,0.0005
3379.00,0.0005
3378.00,0.0005
3377.00,0.0005
3376.00,0.0005
3375.00,0.0006
3374.00,0.0006
3373.00,0.0006
3372.00,0.0006
3371.00,0.0006
3370.00,0.0006
3369.00,0.0006
3368.00,0.0006
3367.00,0.0006
3366.00,0.0006
3365.00,0.0006
3364.00,0.0006
3363.00,0.0006
3362.00,0.0006
3361.00,0.0006
3360.00,0.0006
3359.00,0.0005
3358.00,0.0005
3357.00,0.0005
3356.00,0.0005
3355.00,0.0005
3354.00,0.0005
3353.00,0.0005
3352.00,0.0005
3351.00,0.0005
3350.00,0.0005
3349.00,0.0005
3348.00,0.0005
3347.00,0.0005
3346.00,0.0005
3345.00,0.0005
3344.00,0.0005
3343.00,0.0005
3342.00,0.0005
3341.00,0.0005
3340.00,0.0005
3339.00,0.0005
3338.00,0.0006
3337.00,0.0006
3336.00,0.0005
3335.00,0.0005
3334.00,0.0005
3333.00,0.0005
3332.00,0.0005
3331.00,0.0005
3330.00,0.0006
3329.00,0.0006
3328.00,0.0005
3327.00,0.0005
3326.00,0.0005
3325.00,0.0005
3324.00,0.0006
3323.00,0.0006
3322.00,0.0006
3321.00,0.0006
3320.00,0.0005
3319.00,0.0005
3318.00,0.0005
3317.00,0.0005
3316.00,0.0005
3315.00,0.0005
3314.00,0.0005
3313.00,0.0005
3312.00,0.0006
3311.00,0.0006
3310.00,0.0006
3309.00,0.0006
3308.00,0.0006
3307.00,0.0006
3306.00,0.0005
3305.00,0.0005
3304.00,0.0006
3303.00,0.0006
3302.00,0.0006
3301.00,0.0006
3300.00,0.0006
3299.00,0.0005
3298.00,0.0005
3297.00,0.0006
3296.00,0.0006
3295.00,0.0006
3294.00,0.0006
3293.00,0.0006
3292.00,0.0006
3291.00,0.0006
3290.00,0.0006
3289.00,0.0006
3288.00,0.0006
3287.00,0.0006
3286.00,0.0005
3285.00,0.0005
3284.00,0.0005
3283.00,0.0005
3282.00,0.0005
3281.00,0.0005
3280.00,0.0005
3279.00,0.0005
3278.00,0.0005
3277.00,0.0005
3276.00,0.0005
3275.00,0.0005
3274.00,0.0006
3273.00,0.0006
3272.00,0.0006
3271.00,0.0006
3270.00,0.0006
3269.00,0.0006
3268.00,0.0006
3267.00,0.0006
3266.00,0.0005
3265.00,0.0005
3264.00,0.0005
3263.00,0.0005
3262.00,0.0005
3261.00,0.0005
3260.00,0.0005
3259.00,0.0005
3258.00,0.0005
3257.00,0.0005
3256.00,0.0005
3255.00,0.0005
3254.00,0.0005
3253.00,0.0005
3252.00,0.0005
3251.00,0.0005
3250.00,0.0005
3249.00,0.0005
3248.00,0.0005
3247.00,0.0005
3246.00,0.0005
3245.00,0.0005
3244.00,0.0005
3243.00,0.0005
3242.00,0.0005
3241.00,0.0005
3240.00,0.0005
3239.00,0.0005
3238.00,0.0005
3237.00,0.0005
3236.00,0.0005
3235.00,0.0005
3234.00,0.0005
3233.00,0.0005
3232.00,0.0005
3231.00,0.0005
3230.00,0.0005
3229.00,0.0005
3228.00,0.0004
3227.00,0.0004
3226.00,0.0004
3225.00,0.0004
3224.00,0.0004
3223.00,0.0004
3222.00,0.0004
3221.00,0.0004
3220.00,0.0004
3219.00,0.0004
3218.00,0.0004
3217.00,0.0004
3216.00,0.0004
3215.00,0.0004
3214.00,0.0004
3213.00,0.0005
3212.00,0.0005
3211.00,0.0005
3210.00,0.0005
3209.00,0.0005
3208.00,0.0004
3207.00,0.0004
3206.00,0.0005
3205.00,0.0005
3204.00,0.0005
3203.00,0.0005
3202.00,0.0005
3201.00,0.0005
3200.00,0.0004
3199.00,0.0004
3198.00,0.0004
3197.00,0.0004
3196.00,0.0004
3195.00,0.0004
3194.00,0.0004
3193.00,0.0004
3192.00,0.0004
3191.00,0.0004
3190.00,0.0004
3189.00,0.0004
3188.00,0.0004
3187.00,0.0004
3186.00,0.0004
3185.00,0.0004
3184.00,0.0004
3183.00,0.0004
3182.00,0.0004
3181.00,0.0004
3180.00,0.0004
3179.00,0.0004
3178.00,0.0004
3177.00,0.0004
3176.00,0.0004
3175.00,0.0004
3174.00,0.0004
3173.00,0.0004
3172.00,0.0004
3171.00,0.0004
3170.00,0.0004
3169.00,0.0004
3168.00,0.0004
3167.00,0.0004
3166.00,0.0004
3165.00,0.0004
3164.00,0.0004
3163.00,0.0004
3162.00,0.0004
3161.00,0.0004
3160.00,0.0004
3159.00,0.0004
3158.00,0.0004
3157.00,0.0004
3156.00,0.0003
3155.00,0.0003
3154.00,0.0003
3153.00,0.0003
3152.00,0.0003
3151.00,0.0003
3150.00,0.0003
3149.00,0.0003
3148.00,0.0003
3147.00,0.0003
3146.00,0.0003
3145.00,0.0003
3144.00,0.0003
3143.00,0.0003
3142.00,0.0003
3141.00,0.0003
3140.00,0.0003
3139.00,0.0003
3138.00,0.0003
3137.00,0.0003
3136.00,0.0003
3135.00,0.0003
3134.00,0.0003
3133.00,0.0003
3132.00,0.0003
3131.00,0.0003
3130.00,0.0003
3129.00,0.0003
3128.00,0.0003
3127.00,0.0003
3126.00,0.0003
3125.00,0.0003
3124.00,0.0003
3123.00,0.0003
3122.00,0.0003
3121.00,0.0003
3120.00,0.0003
3119.00,0.0004
3118.00,0.0004
3117.00,0.0004
3116.00,0.0004
3115.00,0.0004
3114.00,0.0004
3113.00,0.0004
3112.00,0.0004
3111.00,0.0004
3110.00,0.0004
3109.00,0.0004
3108.00,0.0005
3107.00,0.0005
3106.00,0.0005
3105.00,0.0005
3104.00,0.0005
3103.00,0.0005
3102.00,0.0005
3101.00,0.0005
3100.00,0.0005
3099.00,0.0005
3098.00,0.0005
3097.00,0.0005
3096.00,0.0005
3095.00,0.0005
3094.00,0.0005
3093.00,0.0005
3092.00,0.0005
3091.00,0.0006
3090.00,0.0006
3089.00,0.0007
3088.00,0.0007
3087.00,0.0008
3086.00,0.0008
3085.00,0.0008
3084.00,0.0009
3083.00,0.0009
3082.00,0.0010
3081.00,0.0010
3080.00,0.0010
3079.00,0.0009
3078.00,0.0009
3077.00,0.0008
3076.00,0.0008
3075.00,0.0008
3074.00,0.0008
3073.00,0.0008
3072.00,0.0008
3071.00,0.0008
3070.00,0.0008
3069.00,0.0008
3068.00,0.0009
3067.00,0.0009
3066.00,0.0009
3065.00,0.0010
3064.00,0.0011
3063.00,0.0011
3062.00,0.0012
3061.00,0.0012
3060.00,0.0012
3059.00,0.0013
3058.00,0.0013
3057.00,0.0012
3056.00,0.0012
3055.00,0.0011
3054.00,0.0010
3053.00,0.0010
3052.00,0.0009
3051.00,0.0009
3050.00,0.0008
3049.00,0.0008
3048.00,0.0008
3047.00,0.0008
3046.00,0.0007
3045.00,0.0007
3044.00,0.0007
3043.00,0.0007
3042.00,0.0007
3041.00,0.0008
3040.00,0.0008
3039.00,0.0008
3038.00,0.0008
3037.00,0.0009
3036.00,0.0010
3035.00,0.0011
3034.00,0.0011
3033.00,0.0013
3032.00,0.0014
3031.00,0.0015
3030.00,0.0017
3029.00,0.0018
3028.00,0.0020
3027.00,0.0021
3026.00,0.0022
3025.00,0.0022
3024.00,0.0022
3023.00,0.0022
3022.00,0.0021
3021.00,0.0019
3020.00,0.0017
3019.00,0.0015
3018.00,0.0014
3017.00,0.0012
3016.00,0.0011
3015.00,0.0010
3014.00,0.0009
3013.00,0.0008
3012.00,0.0007
3011.00,0.0007
3010.00,0.0007
3009.00,0.0007
3008.00,0.0007
3007.00,0.0007
3006.00,0.0007
3005.00,0.0007
3004.00,0.0007
3003.00,0.0007
3002.00,0.0008
3001.00,0.0008
3000.00,0.0008
2999.00,0.0007
2998.00,0.0007
2997.00,0.0007
2996.00,0.0006
2995.00,0.0006
2994.00,0.0006
2993.00,0.0005
2992.00,0.0005
2991.00,0.0005
2990.00,0.0005
2989.00,0.0005
2988.00,0.0005
2987.00,0.0005
2986.00,0.0005
2985.00,0.0005
2984.00,0.0005
2983.00,0.0005
2982.00,0.0005
2981.00,0.0005
2980.00,0.0006
2979.00,0.0006
2978.00,0.0006
2977.00,0.0006
2976.00,0.0006
2975.00,0.0006
2974.00,0.0006
2973.00,0.0006
2972.00,0.0007
2971.00,0.0007
2970.00,0.0007
2969.00,0.0007
2968.00,0.0007
2967.00,0.0007
2966.00,0.0007
2965.00,0.0008
2964.00,0.0008
2963.00,0.0008
2962.00,0.0008
2961.00,0.0009
2960.00,0.0009
2959.00,0.0009
2958.00,0.0010
2957.00,0.0010
2956.00,0.0011
2955.00,0.0011
2954.00,0.0011
2953.00,0.0011
2952.00,0.0011
2951.00,0.0012
2950.00,0.0012
2949.00,0.0013
2948.00,0.0013
2947.00,0.0014
2946.00,0.0014
2945.00,0.0014
2944.00,0.0015
2943.00,0.0016
2942.00,0.0016
2941.00,0.0017
2940.00,0.0018
2939.00,0.0018
2938.00,0.0019
2937.00,0.0020
2936.00,0.0021
2935.00,0.0023
2934.00,0.0024
2933.00,0.0025
2932.00,0.0026
2931.00,0.0027
2930.00,0.0028
2929.00,0.0029
2928.00,0.0030
2927.00,0.0030
2926.00,0.0031
2925.00,0.0032
2924.00,0.0032
2923.00,0.0033
2922.00,0.0033
2921.00,0.0033
2920.00,0.0033
2919.00,0.0033
2918.00,0.0033
2917.00,0.0032
2916.00,0.0032
2915.00,0.0031
2914.00,0.0031
2913.00,0.0030
2912.00,0.0029
2911.00,0.0028
2910.00,0.0027
2909.00,0.0026
2908.00,0.0025
2907.00,0.0024
2906.00,0.0024
2905.00,0.0023
2904.00,0.0022
2903.00,0.0021
2902.00,0.0020
2901.00,0.0019
2900.00,0.0018
2899.00,0.0018
2898.00,0.0017
2897.00,0.0016
2896.00,0.0016
2895.00,0.0015
2894.00,0.0015
2893.00,0.0014
2892.00,0.0014
2891.00,0.0013
2890.00,0.0013
2889.00,0.0013
2888.00,0.0012
2887.00,0.0012
2886.00,0.0012
2885.00,0.0012
2884.00,0.0012
2883.00,0.0012
2882.00,0.0011
2881.00,0.0011
2880.00,0.0011
2879.00,0.0010
2878.00,0.0010
2877.00,0.0010
2876.00,0.0010
2875.00,0.0010
2874.00,0.0010
2873.00,0.0010
2872.00,0.0010
2871.00,0.0010
2870.00,0.0010
2869.00,0.0010
2868.00,0.0010
2867.00,0.0010
2866.00,0.0010
2865.00,0.0010
2864.00,0.0010
2863.00,0.0011
2862.00,0.0011
2861.00,0.0012
2860.00,0.0012
2859.00,0.0013
2858.00,0.0013
2857.00,0.0014
2856.00,0.0014
2855.00,0.0015
2854.00,0.0015
2853.00,0.0016
2852.00,0.0016
2851.00,0.0017
2850.00,0.0017
2849.00,0.0017
2848.00,0.0016
2847.00,0.0016
2846.00,0.0015
2845.00,0.0014
2844.00,0.0014
2843.00,0.0013
2842.00,0.0012
2841.00,0.0011
2840.00,0.0010
2839.00,0.0009
2838.00,0.0008
2837.00,0.0008
2836.00,0.0007
2835.00,0.0006
2834.00,0.0006
2833.00,0.0005
2832.00,0.0005
2831.00,0.0005
2830.00,0.0005
2829.00,0.0004
2828.00,0.0004
2827.00,0.0004
2826.00,0.0004
2825.00,0.0004
2824.00,0.0004
2823.00,0.0004
2822.00,0.0004
2821.00,0.0004
2820.00,0.0004
2819.00,0.0004
2818.00,0.0004
2817.00,0.0003
2816.00,0.0003
2815.00,0.0003
2814.00,0.0003
2813.00,0.0003
2812.00,0.0003
2811.00,0.0003
2810.00,0.0003
2809.00,0.0003
2808.00,0.0003
2807.00,0.0003
2806.00,0.0003
2805.00,0.0003
2804.00,0.0003
2803.00,0.0003
2802.00,0.0003
2801.00,0.0003
2800.00,0.0003
2799.00,0.0003
2798.00,0.0003
2797.00,0.0003
2796.00,0.0003
2795.00,0.0002
2794.00,0.0002
2793.00,0.0002
2792.00,0.0002
2791.00,0.0002
2790.00,0.0002
2789.00,0.0002
2788.00,0.0002
2787.00,0.0002
2786.00,0.0002
2785.00,0.0002
2784.00,0.0002
2783.00,0.0002
2782.00,0.0003
2781.00,0.0003
2780.00,0.0003
2779.00,0.0003
2778.00,0.0003
2777.00,0.0003
2776.00,0.0003
2775.00,0.0003
2774.00,0.0002
2773.00,0.0002
2772.00,0.0002
2771.00,0.0002
2770.00,0.0002
2769.00,0.0002
2768.00,0.0002
2767.00,0.0002
2766.00,0.0002
2765.00,0.0002
2764.00,0.0002
2763.00,0.0002
2762.00,0.0002
2761.00,0.0002
2760.00,0.0002
2759.00,0.0002
2758.00,0.0002
2757.00,0.0002
2756.00,0.0002
2755.00,0.0002
2754.00,0.0002
2753.00,0.0002
2752.00,0.0002
2751.00,0.0002
2750.00,0.0002
2749.00,0.0002
2748.00,0.0002
2747.00,0.0002
2746.00,0.0002
2745.00,0.0002
2744.00,0.0002
2743.00,0.0002
2742.00,0.0002
2741.00,0.0002
2740.00,0.0002
2739.00,0.0002
2738.00,0.0002
2737.00,0.0002
2736.00,0.0002
2735.00,0.0002
2734.00,0.0002
2733.00,0.0002
2732.00,0.0002
2731.00,0.0002
2730.00,0.0002
2729.00,0.0002
2728.00,0.0002
2727.00,0.0002
2726.00,0.0002
2725.00,0.0002
2724.00,0.0002
2723.00,0.0002
2722.00,0.0002
2721.00,0.0002
2720.00,0.0002
2719.00,0.0002
2718.00,0.0002
2717.00,0.0002
2716.00,0.0002
2715.00,0.0002
2714.00,0.0002
2713.00,0.0002
2712.00,0.0002
2711.00,0.0002
2710.00,0.0002
2709.00,0.0002
2708.00,0.0002
2707.00,0.0002
2706.00,0.0002
2705.00,0.0002
2704.00,0.0002
2703.00,0.0002
2702.00,0.0002
2701.00,0.0002
2700.00,0.0002
2699.00,0.0002
2698.00,0.0002
2697.00,0.0002
2696.00,0.0002
2695.00,0.0002
2694.00,0.0002
2693.00,0.0002
2692.00,0.0002
2691.00,0.0002
2690.00,0.0002
2689.00,0.0002
2688.00,0.0002
2687.00,0.0002
2686.00,0.0002
2685.00,0.0002
2684.00,0.0002
2683.00,0.0002
2682.00,0.0002
2681.00,0.0002
2680.00,0.0002
2679.00,0.0002
2678.00,0.0002
2677.00,0.0002
2676.00,0.0002
2675.00,0.0002
2674.00,0.0002
2673.00,0.0002
2672.00,0.0002
2671.00,0.0002
2670.00,0.0002
2669.00,0.0002
2668.00,0.0002
2667.00,0.0002
2666.00,0.0003
2665.00,0.0003
2664.00,0.0003
2663.00,0.0003
2662.00,0.0004
2661.00,0.0004
2660.00,0.0004
2659.00,0.0004
2658.00,0.0004
2657.00,0.0004
2656.00,0.0004
2655.00,0.0005
2654.00,0.0005
2653.00,0.0005
2652.00,0.0005
2651.00,0.0005
2650.00,0.0005
2649.00,0.0005
2648.00,0.0005
2647.00,0.0005
2646.00,0.0005
2645.00,0.0005
2644.00,0.0005
2643.00,0.0005
2642.00,0.0005
2641.00,0.0005
2640.00,0.0005
2639.00,0.0005
2638.00,0.0005
2637.00,0.0005
2636.00,0.0005
2635.00,0.0005
2634.00,0.0005
2633.00,0.0005
2632.00,0.0005
2631.00,0.0005
2630.00,0.0004
2629.00,0.0004
2628.00,0.0004
2627.00,0.0004
2626.00,0.0004
2625.00,0.0004
2624.00,0.0004
2623.00,0.0004
2622.00,0.0004
2621.00,0.0004
2620.00,0.0004
2619.00,0.0004
2618.00,0.0004
2617.00,0.0004
2616.00,0.0004
2615.00,0.0004
2614.00,0.0004
2613.00,0.0004
2612.00,0.0004
2611.00,0.0004
2610.00,0.0004
2609.00,0.0003
2608.00,0.0003
2607.00,0.0004
2606.00,0.0004
2605.00,0.0004
2604.00,0.0004
2603.00,0.0004
2602.00,0.0003
2601.00,0.0003
2600.00,0.0003
2599.00,0.0003
2598.00,0.0003
2597.00,0.0003
2596.00,0.0003
2595.00,0.0003
2594.00,0.0003
2593.00,0.0003
2592.00,0.0003
2591.00,0.0003
2590.00,0.0003
2589.00,0.0003
2588.00,0.0003
2587.00,0.0003
2586.00,0.0003
2585.00,0.0003
2584.00,0.0003
2583.00,0.0003
2582.00,0.0003
2581.00,0.0003
2580.00,0.0003
2579.00,0.0002
2578.00,0.0002
2577.00,0.0002
2576.00,0.0002
2575.00,0.0002
2574.00,0.0003
2573.00,0.0003
2572.00,0.0003
2571.00,0.0003
2570.00,0.0002
2569.00,0.0002
2568.00,0.0002
2567.00,0.0002
2566.00,0.0002
2565.00,0.0002
2564.00,0.0002
2563.00,0.0002
2562.00,0.0002
2561.00,0.0002
2560.00,0.0001
2559.00,0.0001
2558.00,0.0002
2557.00,0.0002
2556.00,0.0002
2555.00,0.0002
2554.00,0.0002
2553.00,0.0002
2552.00,0.0002
2551.00,0.0002
2550.00,0.0002
2549.00,0.0002
2548.00,0.0002
2547.00,0.0002
2546.00,0.0001
2545.00,0.0001
2544.00,0.0001
2543.00,0.0001
2542.00,0.0001
2541.00,0.0001
2540.00,0.0001
2539.00,0.0001
2538.00,0.0001
2537.00,0.0001
2536.00,0.0001
2535.00,0.0001
2534.00,0.0001
2533.00,0.0001
2532.00,0.0001
2531.00,0.0001
2530.00,0.0001
2529.00,0.0001
2528.00,0.0001
2527.00,0.0001
2526.00,0.0001
2525.00,0.0001
2524.00,0.0001
2523.00,0.0001
2522.00,0.0000
2521.00,0.0000
2520.00,0.0001
2519.00,0.0001
2518.00,0.0001
2517.00,0.0001
2516.00,0.0001
2515.00,0.0001
2514.00,0.0001
2513.00,0.0001
2512.00,0.0001
2511.00,0.0000
2510.00,0.0000
2509.00,0.0001
2508.00,0.0001
2507.00,0.0001
2506.00,0.0001
2505.00,0.0001
2504.00,0.0001
2503.00,0.0001
2502.00,0.0001
2501.00,0.0001
2500.00,0.0001
2499.00,0.0000
2498.00,0.0000
2497.00,0.0000
2496.00,0.0000
2495.00,0.0000
2494.00,0.0001
2493.00,0.0001
2492.00,0.0001
2491.00,0.0001
2490.00,0.0001
2489.00,0.0001
2488.00,0.0001
2487.00,0.0001
2486.00,0.0001
2485.00,0.0001
2484.00,0.0000
2483.00,0.0000
2482.00,0.0000
2481.00,0.0000
2480.00,0.0000
2479.00,0.0001
2478.00,0.0001
2477.00,0.0001
2476.00,0.0001
2475.00,0.0001
2474.00,0.0001
2473.00,0.0001
2472.00,0.0001
2471.00,0.0000
2470.00,0.0000
2469.00,0.0000
2468.00,0.0000
2467.00,0.0001
2466.00,0.0001
2465.00,0.0001
2464.00,0.0001
2463.00,0.0001
2462.00,0.0001
2461.00,0.0001
2460.00,0.0001
2459.00,0.0001
2458.00,0.0001
2457.00,0.0001
2456.00,0.0001
2455.00,0.0001
2454.00,0.0001
2453.00,0.0001
2452.00,0.0001
2451.00,0.0001
2450.00,0.0001
2449.00,0.0001
2448.00,0.0001
2447.00,0.0000
2446.00,0.0001
2445.00,0.0001
2444.00,0.0001
2443.00,0.0001
2442.00,0.0000
2441.00,0.0000
2440.00,0.0000
2439.00,0.0000
2438.00,0.0000
2437.00,0.0000
2436.00,0.0000
2435.00,-0.0000
2434.00,-0.0000
2433.00,-0.0001
2432.00,-0.0001
2431.00,-0.0001
2430.00,-0.0001
2429.00,-0.0001
2428.00,-0.0001
2427.00,-0.0001
2426.00,-0.0001
2425.00,-0.0001
2424.00,-0.0001
2423.00,-0.0001
2422.00,-0.0001
2421.00,-0.0001
2420.00,-0.0001
2419.00,-0.0001
2418.00,-0.0001
2417.00,-0.0001
2416.00,-0.0001
2415.00,-0.0001
2414.00,-0.0001
2413.00,-0.0001
2412.00,-0.0001
2411.00,-0.0001
2410.00,-0.0001
2409.00,-0.0001
2408.00,-0.0001
2407.00,-0.0002
2406.00,-0.0002
2405.00,-0.0001
2404.00,-0.0001
2403.00,-0.0001
2402.00,-0.0001
2401.00,-0.0001
2400.00,-0.0001
2399.00,-0.0001
2398.00,-0.0001
2397.00,-0.0001
2396.00,-0.0001
2395.00,-0.0002
2394.00,-0.0002
2393.00,-0.0002
2392.00,-0.0002
2391.00,-0.0002
2390.00,-0.0002
2389.00,-0.0002
2388.00,-0.0002
2387.00,-0.0002
2386.00,-0.0002
2385.00,-0.0002
2384.00,-0.0002
2383.00,-0.0003
2382.00,-0.0003
2381.00,-0.0003
2380.00,-0.0003
2379.00,-0.0003
2378.00,-0.0003
2377.00,-0.0003
2376.00,-0.0002
2375.00,-0.0002
2374.00,-0.0003
2373.00,-0.0003
2372.00,-0.0003
2371.00,-0.0003
2370.00,-0.0003
2369.00,-0.0003
2368.00,-0.0003
2367.00,-0.0003
2366.00,-0.0002
2365.00,-0.0002
2364.00,-0.0002
2363.00,-0.0002
2362.00,-0.0001
2361.00,-0.0001
2360.00,-0.0001
2359.00,-0.0002
2358.00,-0.0002
2357.00,-0.0003
2356.00,-0.0003
2355.00,-0.0003
2354.00,-0.0004
2353.00,-0.0003
2352.00,-0.0003
2351.00,-0.0002
2350.00,-0.0002
2349.00,-0.0001
2348.00,-0.0001
2347.00,-0.0000
2346.00,0.0000
2345.00,0.0000
2344.00,0.0000
2343.00,-0.0000
2342.00,-0.0000
2341.00,-0.0000
2340.00,-0.0000
2339.00,0.0000
2338.00,0.0000
2337.00,0.0000
2336.00,-0.0000
2335.00,-0.0000
2334.00,-0.0000
2333.00,-0.0000
2332.00,-0.0000
2331.00,-0.0001
2330.00,-0.0000
2329.00,0.0000
2328.00,0.0002
2327.00,0.0004
2326.00,0.0006
2325.00,0.0007
2324.00,0.0007
2323.00,0.0007
2322.00,0.0006
2321.00,0.0005
2320.00,0.0004
2319.00,0.0004
2318.00,0.0004
2317.00,0.0004
2316.00,0.0004
2315.00,0.0004
2314.00,0.0004
2313.00,0.0003
2312.00,0.0003
2311.00,0.0003
2310.00,0.0003
2309.00,0.0003
2308.00,0.0004
2307.00,0.0004
2306.00,0.0004
2305.00,0.0004
2304.00,0.0004
2303.00,0.0004
2302.00,0.0004
2301.00,0.0004
2300.00,0.0004
2299.00,0.0004
2298.00,0.0004
2297.00,0.0005
2296.00,0.0005
2295.00,0.0005
2294.00,0.0006
2293.00,0.0006
2292.00,0.0006
2291.00,0.0006
2290.00,0.0007
2289.00,0.0007
2288.00,0.0007
2287.00,0.0007
2286.00,0.0007
2285.00,0.0007
2284.00,0.0006
2283.00,0.0006
2282.00,0.0005
2281.00,0.0005
2280.00,0.0005
2279.00,0.0005
2278.00,0.0004
2277.00,0.0004
2276.00,0.0004
2275.00,0.0003
2274.00,0.0003
2273.00,0.0003
2272.00,0.0003
2271.00,0.0003
2270.00,0.0003
2269.00,0.0003
2268.00,0.0002
2267.00,0.0002
2266.00,0.0002
2265.00,0.0002
2264.00,0.0002
2263.00,0.0002
2262.00,0.0002
2261.00,0.0002
2260.00,0.0002
2259.00,0.0002
2258.00,0.0002
2257.00,0.0002
2256.00,0.0002
2255.00,0.0002
2254.00,0.0002
2253.00,0.0002
2252.00,0.0001
2251.00,0.0001
2250.00,0.0001
2249.00,0.0001
2248.00,0.0002
2247.00,0.0002
2246.00,0.0003
2245.00,0.0003
2244.00,0.0003
2243.00,0.0003
2242.00,0.0002
2241.00,0.0002
2240.00,0.0001
2239.00,0.0002
2238.00,0.0002
2237.00,0.0002
2236.00,0.0002
2235.00,0.0003
2234.00,0.0002
2233.00,0.0002
2232.00,0.0001
2231.00,0.0000
2230.00,0.0000
2229.00,0.0001
2228.00,0.0001
2227.00,0.0001
2226.00,0.0001
2225.00,0.0001
2224.00,0.0001
2223.00,0.0001
2222.00,0.0001
2221.00,0.0001
2220.00,0.0001
2219.00,0.0000
2218.00,0.0000
2217.00,0.0000
2216.00,0.0001
2215.00,0.0002
2214.00,0.0002
2213.00,0.0002
2212.00,0.0001
2211.00,0.0001
2210.00,0.0001
2209.00,0.0001
2208.00,0.0001
2207.00,0.0001
2206.00,0.0001
2205.00,0.0001
2204.00,0.0001
2203.00,0.0001
2202.00,0.0001
2201.00,0.0001
2200.00,0.0001
2199.00,0.0001
2198.00,0.0001
2197.00,0.0001
2196.00,0.0001
2195.00,0.0002
2194.00,0.0003
2193.00,0.0003
2192.00,0.0003
2191.00,0.0002
2190.00,0.0002
2189.00,0.0002
2188.00,0.0003
2187.00,0.0003
2186.00,0.0003
2185.00,0.0002
2184.00,0.0000
2183.00,-0.0001
2182.00,-0.0002
2181.00,-0.0003
2180.00,-0.0002
2179.00,-0.0002
2178.00,-0.0001
2177.00,-0.0001
2176.00,-0.0001
2175.00,-0.0001
2174.00,-0.0001
2173.00,-0.0000
2172.00,0.0000
2171.00,0.0001
2170.00,0.0002
2169.00,0.0004
2168.00,0.0005
2167.00,0.0006
2166.00,0.0006
2165.00,0.0006
2164.00,0.0007
2163.00,0.0007
2162.00,0.0006
2161.00,0.0002
2160.00,-0.0004
2159.00,-0.0010
2158.00,-0.0014
2157.00,-0.0016
2156.00,-0.0015
2155.00,-0.0014
2154.00,-0.0013
2153.00,-0.0012
2152.00,-0.0011
2151.00,-0.0010
2150.00,-0.0010
2149.00,-0.0010
2148.00,-0.0010
2147.00,-0.0010
2146.00,-0.0010
2145.00,-0.0010
2144.00,-0.0010
2143.00,-0.0009
2142.00,-0.0009
2141.00,-0.0009
2140.00,-0.0008
2139.00,-0.0008
2138.00,-0.0009
2137.00,-0.0010
2136.00,-0.0011
2135.00,-0.0012
2134.00,-0.0012
2133.00,-0.0011
2132.00,-0.0011
2131.00,-0.0010
2130.00,-0.0009
2129.00,-0.0009
2128.00,-0.0009
2127.00,-0.0008
2126.00,-0.0007
2125.00,-0.0006
2124.00,-0.0005
2123.00,-0.0004
2122.00,-0.0003
2121.00,-0.0003
2120.00,-0.0003
2119.00,-0.0003
2118.00,-0.0002
2117.00,-0.0001
2116.00,-0.0001
2115.00,-0.0001
2114.00,-0.0001
2113.00,-0.0001
2112.00,-0.0001
2111.00,-0.0001
2110.00,-0.0001
2109.00,-0.0001
2108.00,-0.0001
2107.00,-0.0001
2106.00,-0.0001
2105.00,-0.0001
2104.00,-0.0001
2103.00,-0.0000
2102.00,-0.0000
2101.00,-0.0000
2100.00,-0.0001
2099.00,-0.0001
2098.00,-0.0002
2097.00,-0.0002
2096.00,-0.0003
2095.00,-0.0003
2094.00,-0.0004
2093.00,-0.0003
2092.00,-0.0003
2091.00,-0.0002
2090.00,-0.0002
2089.00,-0.0001
2088.00,-0.0001
2087.00,-0.0000
2086.00,0.0000
2085.00,0.0001
2084.00,0.0001
2083.00,0.0001
2082.00,0.0001
2081.00,0.0002
2080.00,0.0002
2079.00,0.0001
2078.00,0.0001
2077.00,0.0001
2076.00,0.0000
2075.00,-0.0000
2074.00,-0.0000
2073.00,-0.0000
2072.00,-0.0000
2071.00,-0.0001
2070.00,-0.0001
2069.00,-0.0001
2068.00,-0.0001
2067.00,-0.0001
2066.00,-0.0000
2065.00,0.0000
2064.00,-0.0000
2063.00,-0.0000
2062.00,-0.0000
2061.00,-0.0000
2060.00,-0.0000
2059.00,-0.0000
2058.00,-0.0001
2057.00,-0.0001
2056.00,-0.0001
2055.00,-0.0001
2054.00,0.0001
2053.00,0.0003
2052.00,0.0005
2051.00,0.0006
2050.00,0.0006
2049.00,0.0004
2048.00,0.0003
2047.00,0.0002
2046.00,0.0001
2045.00,0.0000
2044.00,-0.0000
2043.00,-0.0000
2042.00,0.0000
2041.00,0.0000
2040.00,0.0000
2039.00,0.0001
2038.00,0.0001
2037.00,0.0002
2036.00,0.0002
2035.00,0.0001
2034.00,0.0001
2033.00,-0.0001
2032.00,-0.0002
2031.00,-0.0003
2030.00,-0.0005
2029.00,-0.0005
2028.00,-0.0006
2027.00,-0.0005
2026.00,-0.0004
2025.00,-0.0004
2024.00,-0.0003
2023.00,-0.0003
2022.00,-0.0003
2021.00,-0.0004
2020.00,-0.0004
2019.00,-0.0003
2018.00,-0.0002
2017.00,-0.0002
2016.00,-0.0002
2015.00,-0.0003
2014.00,-0.0003
2013.00,-0.0003
2012.00,-0.0003
2011.00,-0.0003
2010.00,-0.0002
2009.00,-0.0003
2008.00,-0.0004
2007.00,-0.0005
2006.00,-0.0007
2005.00,-0.0008
2004.00,-0.0008
2003.00,-0.0008
2002.00,-0.0007
2001.00,-0.0007
2000.00,-0.0006
1999.00,-0.0005
1998.00,-0.0005
1997.00,-0.0005
1996.00,-0.0004
1995.00,-0.0004
1994.00,-0.0003
1993.00,-0.0003
1992.00,-0.0002
1991.00,-0.0002
1990.00,-0.0002
1989.00,-0.0002
1988.00,-0.0001
1987.00,-0.0001
1986.00,-0.0000
1985.00,0.0001
1984.00,0.0002
1983.00,0.0005
1982.00,0.0008
1981.00,0.0009
1980.00,0.0009
1979.00,0.0006
1978.00,0.0002
1977.00,-0.0002
1976.00,-0.0005
1975.00,-0.0006
1974.00,-0.0007
1973.00,-0.0008
1972.00,-0.0008
1971.00,-0.0008
1970.00,-0.0008
1969.00,-0.0007
1968.00,-0.0007
1967.00,-0.0007
1966.00,-0.0007
1965.00,-0.0007
1964.00,-0.0006
1963.00,-0.0006
1962.00,-0.0006
1961.00,-0.0007
1960.00,-0.0008
1959.00,-0.0008
1958.00,-0.0008
1957.00,-0.0007
1956.00,-0.0006
1955.00,-0.0005
1954.00,-0.0005
1953.00,-0.0004
1952.00,-0.0004
1951.00,-0.0003
1950.00,-0.0003
1949.00,-0.0003
1948.00,-0.0003
1947.00,-0.0004
1946.00,-0.0004
1945.00,-0.0004
1944.00,-0.0004
1943.00,-0.0003
1942.00,-0.0003
1941.00,-0.0003
1940.00,-0.0002
1939.00,-0.0002
1938.00,-0.0001
1937.00,-0.0002
1936.00,-0.0002
1935.00,-0.0003
1934.00,-0.0003
1933.00,-0.0004
1932.00,-0.0004
1931.00,-0.0004
1930.00,-0.0005
1929.00,-0.0005
1928.00,-0.0005
1927.00,-0.0004
1926.00,-0.0004
1925.00,-0.0004
1924.00,-0.0004
1923.00,-0.0004
1922.00,-0.0004
1921.00,-0.0004
1920.00,-0.0004
1919.00,-0.0005
1918.00,-0.0005
1917.00,-0.0005
1916.00,-0.0005
1915.00,-0.0004
1914.00,-0.0004
1913.00,-0.0004
1912.00,-0.0004
1911.00,-0.0004
1910.00,-0.0003
1909.00,-0.0003
1908.00,-0.0003
1907.00,-0.0004
1906.00,-0.0004
1905.00,-0.0004
1904.00,-0.0004
1903.00,-0.0004
1902.00,-0.0003
1901.00,-0.0003
1900.00,-0.0003
1899.00,-0.0003
1898.00,-0.0003
1897.00,-0.0002
1896.00,-0.0002
1895.00,-0.0002
1894.00,-0.0002
1893.00,-0.0002
1892.00,-0.0002
1891.00,-0.0002
1890.00,-0.0002
1889.00,-0.0002
1888.00,-0.0001
1887.00,-0.0001
1886.00,-0.0001
1885.00,-0.0002
1884.00,-0.0002
1883.00,-0.0002
1882.00,-0.0002
1881.00,-0.0002
1880.00,-0.0001
1879.00,-0.0001
1878.00,-0.0001
1877.00,-0.0001
1876.00,-0.0001
1875.00,-0.0001
1874.00,-0.0001
1873.00,-0.0001
1872.00,-0.0001
1871.00,-0.0001
1870.00,-0.0001
1869.00,-0.0001
1868.00,-0.0000
1867.00,-0.0000
1866.00,-0.0000
1865.00,-0.0001
1864.00,-0.0001
1863.00,-0.0001
1862.00,-0.0002
1861.00,-0.0002
1860.00,-0.0002
1859.00,-0.0002
1858.00,-0.0002
1857.00,-0.0002
1856.00,-0.0002
1855.00,-0.0002
1854.00,-0.0002
1853.00,-0.0002
1852.00,-0.0002
1851.00,-0.0002
1850.00,-0.0003
1849.00,-0.0003
1848.00,-0.0003
1847.00,-0.0003
1846.00,-0.0003
1845.00,-0.0003
1844.00,-0.0003
1843.00,-0.0002
1842.00,-0.0003
1841.00,-0.0003
1840.00,-0.0003
1839.00,-0.0003
1838.00,-0.0002
1837.00,-0.0002
1836.00,-0.0002
1835.00,-0.0002
1834.00,-0.0002
1833.00,-0.0002
1832.00,-0.0002
1831.00,-0.0002
1830.00,-0.0002
1829.00,-0.0002
1828.00,-0.0002
1827.00,-0.0002
1826.00,-0.0002
1825.00,-0.0002
1824.00,-0.0001
1823.00,-0.0001
1822.00,-0.0001
1821.00,-0.0001
1820.00,-0.0002
1819.00,-0.0002
1818.00,-0.0002
1817.00,-0.0002
1816.00,-0.0002
1815.00,-0.0002
1814.00,-0.0001
1813.00,-0.0001
1812.00,-0.0000
1811.00,-0.0000
1810.00,0.0000
1809.00,0.0000
1808.00,0.0000
1807.00,0.0000
1806.00,0.0001
1805.00,0.0001
1804.00,0.0001
1803.00,0.0001
1802.00,0.0001
1801.00,0.0001
1800.00,0.0001
1799.00,0.0001
1798.00,0.0001
1797.00,0.0001
1796.00,0.0001
1795.00,0.0001
1794.00,0.0000
1793.00,0.0000
1792.00,0.0000
1791.00,0.0000
1790.00,0.0000
1789.00,-0.0000
1788.00,-0.0000
1787.00,0.0000
1786.00,0.0000
1785.00,0.0001
1784.00,0.0001
1783.00,0.0001
1782.00,0.0001
1781.00,0.0001
1780.00,0.0000
1779.00,0.0000
1778.00,0.0000
1777.00,-0.0000
1776.00,-0.0000
1775.00,-0.0000
1774.00,-0.0001
1773.00,-0.0001
1772.00,-0.0000
1771.00,-0.0000
1770.00,0.0000
1769.00,0.0000
1768.00,0.0001
1767.00,0.0001
1766.00,0.0001
1765.00,0.0001
1764.00,0.0001
1763.00,0.0001
1762.00,0.0002
1761.00,0.0002
1760.00,0.0002
1759.00,0.0002
1758.00,0.0003
1757.00,0.0003
1756.00,0.0004
1755.00,0.0004
1754.00,0.0004
1753.00,0.0005
1752.00,0.0005
1751.00,0.0006
1750.00,0.0006
1749.00,0.0006
1748.00,0.0006
1747.00,0.0007
1746.00,0.0008
1745.00,0.0008
1744.00,0.0009
1743.00,0.0009
1742.00,0.0009
1741.00,0.0009
1740.00,0.0009
1739.00,0.0009
1738.00,0.0010
1737.00,0.0010
1736.00,0.0010
1735.00,0.0010
1734.00,0.0010
1733.00,0.0009
1732.00,0.0009
1731.00,0.0008
1730.00,0.0008
1729.00,0.0008
1728.00,0.0008
1727.00,0.0008
1726.00,0.0007
1725.00,0.0007
1724.00,0.0007
1723.00,0.0007
1722.00,0.0007
1721.00,0.0006
1720.00,0.0006
1719.00,0.0006
1718.00,0.0006
1717.00,0.0005
1716.00,0.0005
1715.00,0.0005
1714.00,0.0005
1713.00,0.0005
1712.00,0.0005
1711.00,0.0005
1710.00,0.0005
1709.00,0.0005
1708.00,0.0005
1707.00,0.0004
1706.00,0.0004
1705.00,0.0005
1704.00,0.0005
1703.00,0.0005
1702.00,0.0005
1701.00,0.0005
1700.00,0.0006
1699.00,0.0006
1698.00,0.0006
1697.00,0.0006
1696.00,0.0006
1695.00,0.0006
1694.00,0.0007
1693.00,0.0007
1692.00,0.0007
1691.00,0.0008
1690.00,0.0008
1689.00,0.0009
1688.00,0.0009
1687.00,0.0009
1686.00,0.0010
1685.00,0.0010
1684.00,0.0010
1683.00,0.0010
1682.00,0.0010
1681.00,0.0010
1680.00,0.0011
1679.00,0.0012
1678.00,0.0012
1677.00,0.0012
1676.00,0.0013
1675.00,0.0013
1674.00,0.0013
1673.00,0.0013
1672.00,0.0013
1671.00,0.0013
1670.00,0.0013
1669.00,0.0013
1668.00,0.0013
1667.00,0.0014
1666.00,0.0014
1665.00,0.0014
1664.00,0.0014
1663.00,0.0015
1662.00,0.0015
1661.00,0.0014
1660.00,0.0014
1659.00,0.0014
1658.00,0.0015
1657.00,0.0015
1656.00,0.0015
1655.00,0.0015
1654.00,0.0015
1653.00,0.0014
1652.00,0.0013
1651.00,0.0012
1650.00,0.0012
1649.00,0.0012
1648.00,0.0012
1647.00,0.0012
1646.00,0.0012
1645.00,0.0012
1644.00,0.0012
1643.00,0.0011
1642.00,0.0011
1641.00,0.0011
1640.00,0.0011
1639.00,0.0011
1638.00,0.0011
1637.00,0.0010
1636.00,0.0010
1635.00,0.0009
1634.00,0.0009
1633.00,0.0009
1632.00,0.0009
1631.00,0.0009
1630.00,0.0009
1629.00,0.0008
1628.00,0.0008
1627.00,0.0008
1626.00,0.0008
1625.00,0.0008
1624.00,0.0008
1623.00,0.0008
1622.00,0.0008
1621.00,0.0008
1620.00,0.0008
1619.00,0.0008
1618.00,0.0008
1617.00,0.0008
1616.00,0.0008
1615.00,0.0008
1614.00,0.0008
1613.00,0.0008
1612.00,0.0008
1611.00,0.0009
1610.00,0.0010
1609.00,0.0011
1608.00,0.0012
1607.00,0.0014
1606.00,0.0016
1605.00,0.0018
1604.00,0.0021
1603.00,0.0023
1602.00,0.0025
1601.00,0.0026
1600.00,0.0026
1599.00,0.0025
1598.00,0.0022
1597.00,0.0020
1596.00,0.0017
1595.00,0.0015
1594.00,0.0013
1593.00,0.0012
1592.00,0.0011
1591.00,0.0010
1590.00,0.0010
1589.00,0.0009
1588.00,0.0009
1587.00,0.0010
1586.00,0.0010
1585.00,0.0011
1584.00,0.0012
1583.00,0.0012
1582.00,0.0012
1581.00,0.0012
1580.00,0.0011
1579.00,0.0010
1578.00,0.0009
1577.00,0.0008
1576.00,0.0007
1575.00,0.0007
1574.00,0.0006
1573.00,0.0006
1572.00,0.0005
1571.00,0.0005
1570.00,0.0005
1569.00,0.0005
1568.00,0.0004
1567.00,0.0004
1566.00,0.0005
1565.00,0.0005
1564.00,0.0005
1563.00,0.0005
1562.00,0.0005
1561.00,0.0004
1560.00,0.0004
1559.00,0.0004
1558.00,0.0005
1557.00,0.0005
1556.00,0.0005
1555.00,0.0005
1554.00,0.0005
1553.00,0.0006
1552.00,0.0006
1551.00,0.0006
1550.00,0.0006
1549.00,0.0007
1548.00,0.0007
1547.00,0.0007
1546.00,0.0007
1545.00,0.0008
1544.00,0.0007
1543.00,0.0007
1542.00,0.0007
1541.00,0.0007
1540.00,0.0007
1539.00,0.0007
1538.00,0.0007
1537.00,0.0007
1536.00,0.0006
1535.00,0.0006
1534.00,0.0006
1533.00,0.0006
1532.00,0.0006
1531.00,0.0006
1530.00,0.0006
1529.00,0.0006
1528.00,0.0005
1527.00,0.0005
1526.00,0.0005
1525.00,0.0005
1524.00,0.0005
1523.00,0.0005
1522.00,0.0005
1521.00,0.0005
1520.00,0.0005
1519.00,0.0005
1518.00,0.0005
1517.00,0.0005
1516.00,0.0005
1515.00,0.0005
1514.00,0.0005
1513.00,0.0005
1512.00,0.0005
1511.00,0.0006
1510.00,0.0006
1509.00,0.0006
1508.00,0.0006
1507.00,0.0006
1506.00,0.0006
1505.00,0.0007
1504.00,0.0007
1503.00,0.0008
1502.00,0.0009
1501.00,0.0010
1500.00,0.0012
1499.00,0.0015
1498.00,0.0019
1497.00,0.0026
1496.00,0.0034
1495.00,0.0044
1494.00,0.0053
1493.00,0.0059
1492.00,0.0062
1491.00,0.0058
1490.00,0.0050
1489.00,0.0040
1488.00,0.0032
1487.00,0.0025
1486.00,0.0021
1485.00,0.0018
1484.00,0.0016
1483.00,0.0014
1482.00,0.0012
1481.00,0.0011
1480.00,0.0011
1479.00,0.0010
1478.00,0.0010
1477.00,0.0010
1476.00,0.0010
1475.00,0.0010
1474.00,0.0010
1473.00,0.0010
1472.00,0.0010
1471.00,0.0010
1470.00,0.0011
1469.00,0.0011
1468.00,0.0012
1467.00,0.0012
1466.00,0.0012
1465.00,0.0013
1464.00,0.0013
1463.00,0.0014
1462.00,0.0014
1461.00,0.0015
1460.00,0.0016
1459.00,0.0018
1458.00,0.0021
1457.00,0.0026
1456.00,0.0034
1455.00,0.0042
1454.00,0.0050
1453.00,0.0058
1452.00,0.0062
1451.00,0.0063
1450.00,0.0061
1449.00,0.0057
1448.00,0.0052
1447.00,0.0048
1446.00,0.0044
1445.00,0.0041
1444.00,0.0038
1443.00,0.0036
1442.00,0.0033
1441.00,0.0031
1440.00,0.0029
1439.00,0.0028
1438.00,0.0026
1437.00,0.0024
1436.00,0.0021
1435.00,0.0018
1434.00,0.0017
1433.00,0.0016
1432.00,0.0015
1431.00,0.0014
1430.00,0.0013
1429.00,0.0012
1428.00,0.0012
1427.00,0.0011
1426.00,0.0011
1425.00,0.0011
1424.00,0.0011
1423.00,0.0011
1422.00,0.0010
1421.00,0.0010
1420.00,0.0010
1419.00,0.0010
1418.00,0.0009
1417.00,0.0009
1416.00,0.0008
1415.00,0.0008
1414.00,0.0008
1413.00,0.0009
1412.00,0.0009
1411.00,0.0008
1410.00,0.0008
1409.00,0.0008
1408.00,0.0008
1407.00,0.0008
1406.00,0.0008
1405.00,0.0008
1404.00,0.0008
1403.00,0.0008
1402.00,0.0008
1401.00,0.0008
1400.00,0.0008
1399.00,0.0008
1398.00,0.0008
1397.00,0.0009
1396.00,0.0009
1395.00,0.0009
1394.00,0.0009
1393.00,0.0010
1392.00,0.0010
1391.00,0.0010
1390.00,0.0011
1389.00,0.0011
1388.00,0.0012
1387.00,0.0012
1386.00,0.0013
1385.00,0.0013
1384.00,0.0014
1383.00,0.0014
1382.00,0.0015
1381.00,0.0015
1380.00,0.0016
1379.00,0.0016
1378.00,0.0017
1377.00,0.0017
1376.00,0.0017
1375.00,0.0017
1374.00,0.0018
1373.00,0.0017
1372.00,0.0017
1371.00,0.0017
1370.00,0.0017
1369.00,0.0017
1368.00,0.0017
1367.00,0.0017
1366.00,0.0017
1365.00,0.0017
1364.00,0.0017
1363.00,0.0017
1362.00,0.0016
1361.00,0.0016
1360.00,0.0016
1359.00,0.0016
1358.00,0.0016
1357.00,0.0015
1356.00,0.0015
1355.00,0.0015
1354.00,0.0015
1353.00,0.0015
1352.00,0.0015
1351.00,0.0015
1350.00,0.0015
1349.00,0.0015
1348.00,0.0015
1347.00,0.0014
1346.00,0.0014
1345.00,0.0014
1344.00,0.0014
1343.00,0.0014
1342.00,0.0014
1341.00,0.0013
1340.00,0.0013
1339.00,0.0013
1338.00,0.0013
1337.00,0.0013
1336.00,0.0013
1335.00,0.0013
1334.00,0.0014
1333.00,0.0014
1332.00,0.0014
1331.00,0.0014
1330.00,0.0015
1329.00,0.0015
1328.00,0.0015
1327.00,0.0015
1326.00,0.0015
1325.00,0.0015
1324.00,0.0015
1323.00,0.0015
1322.00,0.0015
1321.00,0.0015
1320.00,0.0014
1319.00,0.0014
1318.00,0.0014
1317.00,0.0015
1316.00,0.0015
1315.00,0.0015
1314.00,0.0015
1313.00,0.0015
1312.00,0.0015
1311.00,0.0015
1310.00,0.0015
1309.00,0.0015
1308.00,0.0014
1307.00,0.0014
1306.00,0.0014
1305.00,0.0014
1304.00,0.0014
1303.00,0.0014
1302.00,0.0014
1301.00,0.0014
1300.00,0.0014
1299.00,0.0014
1298.00,0.0015
1297.00,0.0015
1296.00,0.0015
1295.00,0.0015
1294.00,0.0016
1293.00,0.0016
1292.00,0.0016
1291.00,0.0016
1290.00,0.0016
1289.00,0.0016
1288.00,0.0015
1287.00,0.0015
1286.00,0.0015
1285.00,0.0015
1284.00,0.0014
1283.00,0.0014
1282.00,0.0014
1281.00,0.0014
1280.00,0.0014
1279.00,0.0014
1278.00,0.0014
1277.00,0.0014
1276.00,0.0013
1275.00,0.0013
1274.00,0.0013
1273.00,0.0013
1272.00,0.0013
1271.00,0.0012
1270.00,0.0012
1269.00,0.0012
1268.00,0.0012
1267.00,0.0012
1266.00,0.0012
1265.00,0.0012
1264.00,0.0011
1263.00,0.0011
1262.00,0.0012
1261.00,0.0012
1260.00,0.0011
1259.00,0.0011
1258.00,0.0011
1257.00,0.0012
1256.00,0.0011
1255.00,0.0012
1254.00,0.0012
1253.00,0.0012
1252.00,0.0012
1251.00,0.0011
1250.00,0.0012
1249.00,0.0012
1248.00,0.0012
1247.00,0.0012
1246.00,0.0012
1245.00,0.0012
1244.00,0.0012
1243.00,0.0012
1242.00,0.0012
1241.00,0.0012
1240.00,0.0012
1239.00,0.0012
1238.00,0.0012
1237.00,0.0012
1236.00,0.0012
1235.00,0.0012
1234.00,0.0012
1233.00,0.0012
1232.00,0.0012
1231.00,0.0012
1230.00,0.0012
1229.00,0.0012
1228.00,0.0012
1227.00,0.0012
1226.00,0.0012
1225.00,0.0012
1224.00,0.0012
1223.00,0.0012
1222.00,0.0012
1221.00,0.0012
1220.00,0.0012
1219.00,0.0012
1218.00,0.0013
1217.00,0.0013
1216.00,0.0013
1215.00,0.0013
1214.00,0.0013
1213.00,0.0013
1212.00,0.0013
1211.00,0.0013
1210.00,0.0013
1209.00,0.0014
1208.00,0.0014
1207.00,0.0014
1206.00,0.0014
1205.00,0.0014
1204.00,0.0015
1203.00,0.0015
1202.00,0.0015
1201.00,0.0016
1200.00,0.0016
1199.00,0.0016
1198.00,0.0016
1197.00,0.0017
1196.00,0.0017
1195.00,0.0017
1194.00,0.0017
1193.00,0.0017
1192.00,0.0017
1191.00,0.0017
1190.00,0.0017
1189.00,0.0017
1188.00,0.0017
1187.00,0.0018
1186.00,0.0018
1185.00,0.0019
1184.00,0.0020
1183.00,0.0020
1182.00,0.0021
1181.00,0.0021
1180.00,0.0021
1179.00,0.0021
1178.00,0.0020
1177.00,0.0019
1176.00,0.0018
1175.00,0.0017
1174.00,0.0017
1173.00,0.0016
1172.00,0.0016
1171.00,0.0016
1170.00,0.0016
1169.00,0.0016
1168.00,0.0016
1167.00,0.0016
1166.00,0.0016
1165.00,0.0016
1164.00,0.0016
1163.00,0.0017
1162.00,0.0017
1161.00,0.0018
1160.00,0.0018
1159.00,0.0019
1158.00,0.0020
1157.00,0.0021
1156.00,0.0021
1155.00,0.0022
1154.00,0.0022
1153.00,0.0022
1152.00,0.0021
1151.00,0.0020
1150.00,0.0018
1149.00,0.0017
1148.00,0.0016
1147.00,0.0015
1146.00,0.0015
1145.00,0.0014
1144.00,0.0014
1143.00,0.0013
1142.00,0.0013
1141.00,0.0013
1140.00,0.0013
1139.00,0.0012
1138.00,0.0012
1137.00,0.0012
1136.00,0.0012
1135.00,0.0012
1134.00,0.0012
1133.00,0.0012
1132.00,0.0012
1131.00,0.0012
1130.00,0.0012
1129.00,0.0012
1128.00,0.0012
1127.00,0.0012
1126.00,0.0013
1125.00,0.0013
1124.00,0.0013
1123.00,0.0013
1122.00,0.0013
1121.00,0.0013
1120.00,0.0014
1119.00,0.0014
1118.00,0.0014
1117.00,0.0015
1116.00,0.0015
1115.00,0.0015
1114.00,0.0016
1113.00,0.0016
1112.00,0.0015
1111.00,0.0016
1110.00,0.0016
1109.00,0.0016
1108.00,0.0016
1107.00,0.0016
1106.00,0.0016
1105.00,0.0016
1104.00,0.0016
1103.00,0.0016
1102.00,0.0016
1101.00,0.0016
1100.00,0.0016
1099.00,0.0016
1098.00,0.0017
1097.00,0.0017
1096.00,0.0017
1095.00,0.0017
1094.00,0.0017
1093.00,0.0017
1092.00,0.0017
1091.00,0.0017
1090.00,0.0017
1089.00,0.0017
1088.00,0.0017
1087.00,0.0018
1086.00,0.0018
1085.00,0.0018
1084.00,0.0019
1083.00,0.0019
1082.00,0.0020
1081.00,0.0021
1080.00,0.0021
1079.00,0.0021
1078.00,0.0022
1077.00,0.0022
1076.00,0.0023
1075.00,0.0023
1074.00,0.0025
1073.00,0.0026
1072.00,0.0026
1071.00,0.0027
1070.00,0.0028
1069.00,0.0028
1068.00,0.0028
1067.00,0.0027
1066.00,0.0027
1065.00,0.0026
1064.00,0.0025
1063.00,0.0024
1062.00,0.0023
1061.00,0.0022
1060.00,0.0021
1059.00,0.0020
1058.00,0.0020
1057.00,0.0020
1056.00,0.0019
1055.00,0.0019
1054.00,0.0019
1053.00,0.0018
1052.00,0.0018
1051.00,0.0017
1050.00,0.0017
1049.00,0.0017
1048.00,0.0017
1047.00,0.0016
1046.00,0.0016
1045.00,0.0016
1044.00,0.0016
1043.00,0.0016
1042.00,0.0016
1041.00,0.0016
1040.00,0.0016
1039.00,0.0017
1038.00,0.0018
1037.00,0.0019
1036.00,0.0021
1035.00,0.0023
1034.00,0.0026
1033.00,0.0030
1032.00,0.0033
1031.00,0.0036
1030.00,0.0038
1029.00,0.0040
1028.00,0.0040
1027.00,0.0040
1026.00,0.0039
1025.00,0.0037
1024.00,0.0034
1023.00,0.0032
1022.00,0.0030
1021.00,0.0029
1020.00,0.0027
1019.00,0.0025
1018.00,0.0024
1017.00,0.0023
1016.00,0.0023
1015.00,0.0022
1014.00,0.0022
1013.00,0.0021
1012.00,0.0020
1011.00,0.0020
1010.00,0.0020
1009.00,0.0020
1008.00,0.0019
1007.00,0.0019
1006.00,0.0019
1005.00,0.0020
1004.00,0.0020
1003.00,0.0020
1002.00,0.0020
1001.00,0.0019
1000.00,0.0018
999.00,0.0017
998.00,0.0017
997.00,0.0016
996.00,0.0016
995.00,0.0016
994.00,0.0015
993.00,0.0015
992.00,0.0015
991.00,0.0015
990.00,0.0015
989.00,0.0016
988.00,0.0016
987.00,0.0016
986.00,0.0017
985.00,0.0018
984.00,0.0018
983.00,0.0018
982.00,0.0019
981.00,0.0019
980.00,0.0018
979.00,0.0018
978.00,0.0019
977.00,0.0019
976.00,0.0018
975.00,0.0018
974.00,0.0018
973.00,0.0018
972.00,0.0018
971.00,0.0018
970.00,0.0018
969.00,0.0018
968.00,0.0019
967.00,0.0019
966.00,0.0019
965.00,0.0020
964.00,0.0020
963.00,0.0020
962.00,0.0020
961.00,0.0019
960.00,0.0018
959.00,0.0017
958.00,0.0017
957.00,0.0016
956.00,0.0016
955.00,0.0015
954.00,0.0015
953.00,0.0015
952.00,0.0015
951.00,0.0014
950.00,0.0014
949.00,0.0015
948.00,0.0015
947.00,0.0015
946.00,0.0016
945.00,0.0016
944.00,0.0016
943.00,0.0016
942.00,0.0016
941.00,0.0016
940.00,0.0015
939.00,0.0015
938.00,0.0014
937.00,0.0014
936.00,0.0013
935.00,0.0012
934.00,0.0012
933.00,0.0012
932.00,0.0012
931.00,0.0012
930.00,0.0012
929.00,0.0011
928.00,0.0011
927.00,0.0011
926.00,0.0011
925.00,0.0012
924.00,0.0012
923.00,0.0012
922.00,0.0013
921.00,0.0013
920.00,0.0013
919.00,0.0013
918.00,0.0014
917.00,0.0015
916.00,0.0015
915.00,0.0017
914.00,0.0018
913.00,0.0020
912.00,0.0021
911.00,0.0023
910.00,0.0025
909.00,0.0027
908.00,0.0028
907.00,0.0028
906.00,0.0029
905.00,0.0028
904.00,0.0027
903.00,0.0025
902.00,0.0024
901.00,0.0022
900.00,0.0020
899.00,0.0018
898.00,0.0017
897.00,0.0015
896.00,0.0014
895.00,0.0013
894.00,0.0012
893.00,0.0011
892.00,0.0010
891.00,0.0010
890.00,0.0010
889.00,0.0010
888.00,0.0010
887.00,0.0009
886.00,0.0010
885.00,0.0010
884.00,0.0009
883.00,0.0009
882.00,0.0009
881.00,0.0008
880.00,0.0008
879.00,0.0007
878.00,0.0008
877.00,0.0008
876.00,0.0008
875.00,0.0008
874.00,0.0008
873.00,0.0008
872.00,0.0008
871.00,0.0008
870.00,0.0008
869.00,0.0008
868.00,0.0007
867.00,0.0007
866.00,0.0007
865.00,0.0008
864.00,0.0007
863.00,0.0007
862.00,0.0007
861.00,0.0007
860.00,0.0007
859.00,0.0007
858.00,0.0008
857.00,0.0008
856.00,0.0008
855.00,0.0008
854.00,0.0008
853.00,0.0009
852.00,0.0009
851.00,0.0009
850.00,0.0010
849.00,0.0011
848.00,0.0011
847.00,0.0011
846.00,0.0013
845.00,0.0014
844.00,0.0014
843.00,0.0014
842.00,0.0014
841.00,0.0014
840.00,0.0014
839.00,0.0013
838.00,0.0013
837.00,0.0013
836.00,0.0012
835.00,0.0011
834.00,0.0010
833.00,0.0010
832.00,0.0009
831.00,0.0008
830.00,0.0008
829.00,0.0008
828.00,0.0007
827.00,0.0007
826.00,0.0007
825.00,0.0007
824.00,0.0007
823.00,0.0006
822.00,0.0006
821.00,0.0006
820.00,0.0006
819.00,0.0005
818.00,0.0006
817.00,0.0007
816.00,0.0007
815.00,0.0006
814.00,0.0007
813.00,0.0007
812.00,0.0006
811.00,0.0006
810.00,0.0007
809.00,0.0008
808.00,0.0008
807.00,0.0007
806.00,0.0007
805.00,0.0007
804.00,0.0007
803.00,0.0007
802.00,0.0008
801.00,0.0009
800.00,0.0009
799.00,0.0009
798.00,0.0010
797.00,0.0010
796.00,0.0010
795.00,0.0010
794.00,0.0011
793.00,0.0012
792.00,0.0012
791.00,0.0013
790.00,0.0014
789.00,0.0015
788.00,0.0015
787.00,0.0016
786.00,0.0017
785.00,0.0018
784.00,0.0019
783.00,0.0020
782.00,0.0021
781.00,0.0023
780.00,0.0025
779.00,0.0026
778.00,0.0029
777.00,0.0031
776.00,0.0034
775.00,0.0036
774.00,0.0039
773.00,0.0043
772.00,0.0045
771.00,0.0048
770.00,0.0053
769.00,0.0057
768.00,0.0061
767.00,0.0065
766.00,0.0069
765.00,0.0073
764.00,0.0076
763.00,0.0079
762.00,0.0084
761.00,0.0088
760.00,0.0091
759.00,0.0095
758.00,0.0099
757.00,0.0102
756.00,0.0104
755.00,0.0104
754.00,0.0105
753.00,0.0105
752.00,0.0104
751.00,0.0104
750.00,0.0104
749.00,0.0104
748.00,0.0103
747.00,0.0101
746.00,0.0099
745.00,0.0095
744.00,0.0090
743.00,0.0083
742.00,0.0077
741.00,0.0070
740.00,0.0063
739.00,0.0057
738.00,0.0053
737.00,0.0048
736.00,0.0043
735.00,0.0038
734.00,0.0035
733.00,0.0031
732.00,0.0027
731.00,0.0023
730.00,0.0021
729.00,0.0020
728.00,0.0018
727.00,0.0017
726.00,0.0016
725.00,0.0016
724.00,0.0015
723.00,0.0014
722.00,0.0015
721.00,0.0015
720.00,0.0015
719.00,0.0015
718.00,0.0015
717.00,0.0016
716.00,0.0016
715.00,0.0017
714.00,0.0020
713.00,0.0022
712.00,0.0025
711.00,0.0029
710.00,0.0035
709.00,0.0043
708.00,0.0053
707.00,0.0065
706.00,0.0080
705.00,0.0096
704.00,0.0114
703.00,0.0134
702.00,0.0155
701.00,0.0177
700.00,0.0198
699.00,0.0218
698.00,0.0238
697.00,0.0256
696.00,0.0271
695.00,0.0280
694.00,0.0282
693.00,0.0274
692.00,0.0256
691.00,0.0232
690.00,0.0206
689.00,0.0181
688.00,0.0158
687.00,0.0139
686.00,0.0124
685.00,0.0112
684.00,0.0101
683.00,0.0091
682.00,0.0084
681.00,0.0078
680.00,0.0072
679.00,0.0067
678.00,0.0064
677.00,0.0061
676.00,0.0057
675.00,0.0054
674.00,0.0052
673.00,0.0051
672.00,0.0048
671.00,0.0047
670.00,0.0045
669.00,0.0043
668.00,0.0039
667.00,0.0037
666.00,0.0037
665.00,0.0037
664.00,0.0035
663.00,0.0034
662.00,0.0033
661.00,0.0032
660.00,0.0030
659.00,0.0029
658.00,0.0028
657.00,0.0027
656.00,0.0025
655.00,0.0024
654.00,0.0023
653.00,0.0023
652.00,0.0022
651.00,0.0021
650.00,0.0021
649.00,0.0021
648.00,0.0020
647.00,0.0019
646.00,0.0019
645.00,0.0018
644.00,0.0017
643.00,0.0017
642.00,0.0018
641.00,0.0018
640.00,0.0018
639.00,0.0018
638.00,0.0019
637.00,0.0019
636.00,0.0019
635.00,0.0019
634.00,0.0020
633.00,0.0020
632.00,0.0020
631.00,0.0020
630.00,0.0021
629.00,0.0022
628.00,0.0022
627.00,0.0022
626.00,0.0023
625.00,0.0024
624.00,0.0023
623.00,0.0024
622.00,0.0025
621.00,0.0026
620.00,0.0025
619.00,0.0024
618.00,0.0024
617.00,0.0023
616.00,0.0022
615.00,0.0020
614.00,0.0020
613.00,0.0021
612.00,0.0020
611.00,0.0021
610.00,0.0022
609.00,0.0022
608.00,0.0021
607.00,0.0020
606.00,0.0021
605.00,0.0021
604.00,0.0020
603.00,0.0020
602.00,0.0020
601.00,0.0021
600.00,0.0021
599.00,0.0021
598.00,0.0022
597.00,0.0023
596.00,0.0023
595.00,0.0023
594.00,0.0024
593.00,0.0024
592.00,0.0023
591.00,0.0023
590.00,0.0025
589.00,0.0026
588.00,0.0026
587.00,0.0027
586.00,0.0028
585.00,0.0029
584.00,0.0028
583.00,0.0027
582.00,0.0028
581.00,0.0030
580.00,0.0030
579.00,0.0031
578.00,0.0033
577.00,0.0034
576.00,0.0034
575.00,0.0035
574.00,0.0036
573.00,0.0038
572.00,0.0039
571.00,0.0040
570.00,0.0043
569.00,0.0046
568.00,0.0046
567.00,0.0047
566.00,0.0050
565.00,0.0052
564.00,0.0053
563.00,0.0053
562.00,0.0055
561.00,0.0057
560.00,0.0058
559.00,0.0059
558.00,0.0061
557.00,0.0064
556.00,0.0064
555.00,0.0065
554.00,0.0067
553.00,0.0069
552.00,0.0070
551.00,0.0071
550.00,0.0075
549.00,0.0078
548.00,0.0080
547.00,0.0082
546.00,0.0086
545.00,0.0090
544.00,0.0092
543.00,0.0095
542.00,0.0100
541.00,0.0105
540.00,0.0108
539.00,0.0109
538.00,0.0111
537.00,0.0112
536.00,0.0110
535.00,0.0107
534.00,0.0105
533.00,0.0101
532.00,0.0095
531.00,0.0088
530.00,0.0083
529.00,0.0079
528.00,0.0073
527.00,0.0067
526.00,0.0063
525.00,0.0060
524.00,0.0054
523.00,0.0051
522.00,0.0050
521.00,0.0049
520.00,0.0047
519.00,0.0045
518.00,0.0046
517.00,0.0046
516.00,0.0044
515.00,0.0041
514.00,0.0039
513.00,0.0038
512.00,0.0035
511.00,0.0033
510.00,0.0034
509.00,0.0034
508.00,0.0032
507.00,0.0030
506.00,0.0030
505.00,0.0030
504.00,0.0028
503.00,0.0026
502.00,0.0026
501.00,0.0026
500.00,0.0024
499.00,0.0022
498.00,0.0024
497.00,0.0026
496.00,0.0025
495.00,0.0024
494.00,0.0026
493.00,0.0027
492.00,0.0025
491.00,0.0023
490.00,0.0024
489.00,0.0024
488.00,0.0021
487.00,0.0020
486.00,0.0022
485.00,0.0024
484.00,0.0022
483.00,0.0020
482.00,0.0022
481.00,0.0024
480.00,0.0022
479.00,0.0020
478.00,0.0021
477.00,0.0022
476.00,0.0021
475.00,0.0021
474.00,0.0024
473.00,0.0025
472.00,0.0022
471.00,0.0020
470.00,0.0021
469.00,0.0022
468.00,0.0020
467.00,0.0018
466.00,0.0020
465.00,0.0022
464.00,0.0020
463.00,0.0020
462.00,0.0024
461.00,0.0027
460.00,0.0025
459.00,0.0023
458.00,0.0026
457.00,0.0029
456.00,0.0025
455.00,0.0022
454.00,0.0024
453.00,0.0026
452.00,0.0024
451.00,0.0021
450.00,0.0022
449.00,0.0022
448.00,0.0017
447.00,0.0014
446.00,0.0017
445.00,0.0022
444.00,0.0021
443.00,0.0021
442.00,0.0023
441.00,0.0022
440.00,0.0016
439.00,0.0010
438.00,0.0009
437.00,0.0010
436.00,0.0007
435.00,0.0006
434.00,0.0010
433.00,0.0012
432.00,0.0010
431.00,0.0011
430.00,0.0018
429.00,0.0023
428.00,0.0021
427.00,0.0016
426.00,0.0016
425.00,0.0016
424.00,0.0011
423.00,0.0008
422.00,0.0015
421.00,0.0022
420.00,0.0020
419.00,0.0017
418.00,0.0021
417.00,0.0020
416.00,0.0009
415.00,0.0002
414.00,0.0005
413.00,0.0009
412.00,0.0006
411.00,0.0003
410.00,0.0007
409.00,0.0008
408.00,-0.0000
407.00,-0.0003
406.00,0.0009
405.00,0.0017
404.00,0.0011
403.00,0.0003
402.00,0.0011
401.00,0.0019
400.00,0.0016
