Created as New Dataset,Sample 569 By YargerLab Date Sunday, March 08 2026
cm-1,A
4000.00,0.0092
3999.00,0.0092
3998.00,0.0092
3997.00,0.0092
3996.00,0.0092
3995.00,0.0092
3994.00,0.0092
3993.00,0.0092
3992.00,0.0092
3991.00,0.0092
3990.00,0.0092
3989.00,0.0092
3988.00,0.0092
3987.00,0.0092
3986.00,0.0092
3985.00,0.0092
3984.00,0.0092
3983.00,0.0092
3982.00,0.0092
3981.00,0.0092
3980.00,0.0092
3979.00,0.0092
3978.00,0.0092
3977.00,0.0092
3976.00,0.0092
3975.00,0.0092
3974.00,0.0092
3973.00,0.0092
3972.00,0.0092
3971.00,0.0092
3970.00,0.0092
3969.00,0.0092
3968.00,0.0092
3967.00,0.0092
3966.00,0.0092
3965.00,0.0092
3964.00,0.0092
3963.00,0.0092
3962.00,0.0092
3961.00,0.0092
3960.00,0.0092
3959.00,0.0092
3958.00,0.0092
3957.00,0.0092
3956.00,0.0092
3955.00,0.0092
3954.00,0.0092
3953.00,0.0092
3952.00,0.0092
3951.00,0.0092
3950.00,0.0091
3949.00,0.0091
3948.00,0.0092
3947.00,0.0092
3946.00,0.0092
3945.00,0.0092
3944.00,0.0092
3943.00,0.0091
3942.00,0.0091
3941.00,0.0091
3940.00,0.0091
3939.00,0.0091
3938.00,0.0091
3937.00,0.0092
3936.00,0.0092
3935.00,0.0092
3934.00,0.0092
3933.00,0.0092
3932.00,0.0092
3931.00,0.0091
3930.00,0.0091
3929.00,0.0091
3928.00,0.0091
3927.00,0.0091
3926.00,0.0091
3925.00,0.0091
3924.00,0.0091
3923.00,0.0091
3922.00,0.0092
3921.00,0.0091
3920.00,0.0091
3919.00,0.0091
3918.00,0.0091
3917.00,0.0091
3916.00,0.0091
3915.00,0.0091
3914.00,0.0091
3913.00,0.0091
3912.00,0.0091
3911.00,0.0091
3910.00,0.0091
3909.00,0.0091
3908.00,0.0091
3907.00,0.0091
3906.00,0.0091
3905.00,0.0091
3904.00,0.0091
3903.00,0.0092
3902.00,0.0092
3901.00,0.0092
3900.00,0.0092
3899.00,0.0092
3898.00,0.0091
3897.00,0.0091
3896.00,0.0091
3895.00,0.0091
3894.00,0.0091
3893.00,0.0091
3892.00,0.0090
3891.00,0.0090
3890.00,0.0090
3889.00,0.0091
3888.00,0.0091
3887.00,0.0091
3886.00,0.0091
3885.00,0.0091
3884.00,0.0091
3883.00,0.0091
3882.00,0.0091
3881.00,0.0091
3880.00,0.0091
3879.00,0.0091
3878.00,0.0091
3877.00,0.0091
3876.00,0.0091
3875.00,0.0091
3874.00,0.0091
3873.00,0.0091
3872.00,0.0091
3871.00,0.0091
3870.00,0.0091
3869.00,0.0090
3868.00,0.0090
3867.00,0.0090
3866.00,0.0090
3865.00,0.0090
3864.00,0.0090
3863.00,0.0090
3862.00,0.0090
3861.00,0.0090
3860.00,0.0090
3859.00,0.0090
3858.00,0.0090
3857.00,0.0090
3856.00,0.0090
3855.00,0.0090
3854.00,0.0090
3853.00,0.0090
3852.00,0.0091
3851.00,0.0091
3850.00,0.0091
3849.00,0.0090
3848.00,0.0090
3847.00,0.0090
3846.00,0.0090
3845.00,0.0090
3844.00,0.0090
3843.00,0.0090
3842.00,0.0090
3841.00,0.0090
3840.00,0.0090
3839.00,0.0090
3838.00,0.0090
3837.00,0.0090
3836.00,0.0090
3835.00,0.0090
3834.00,0.0090
3833.00,0.0090
3832.00,0.0090
3831.00,0.0090
3830.00,0.0089
3829.00,0.0089
3828.00,0.0089
3827.00,0.0089
3826.00,0.0089
3825.00,0.0089
3824.00,0.0089
3823.00,0.0089
3822.00,0.0089
3821.00,0.0089
3820.00,0.0089
3819.00,0.0089
3818.00,0.0090
3817.00,0.0090
3816.00,0.0090
3815.00,0.0089
3814.00,0.0089
3813.00,0.0089
3812.00,0.0089
3811.00,0.0089
3810.00,0.0088
3809.00,0.0088
3808.00,0.0088
3807.00,0.0088
3806.00,0.0088
3805.00,0.0088
3804.00,0.0088
3803.00,0.0088
3802.00,0.0088
3801.00,0.0088
3800.00,0.0088
3799.00,0.0088
3798.00,0.0088
3797.00,0.0088
3796.00,0.0088
3795.00,0.0088
3794.00,0.0088
3793.00,0.0088
3792.00,0.0088
3791.00,0.0088
3790.00,0.0088
3789.00,0.0088
3788.00,0.0088
3787.00,0.0088
3786.00,0.0088
3785.00,0.0088
3784.00,0.0088
3783.00,0.0088
3782.00,0.0088
3781.00,0.0088
3780.00,0.0088
3779.00,0.0088
3778.00,0.0088
3777.00,0.0088
3776.00,0.0088
3775.00,0.0088
3774.00,0.0088
3773.00,0.0088
3772.00,0.0087
3771.00,0.0087
3770.00,0.0087
3769.00,0.0087
3768.00,0.0088
3767.00,0.0088
3766.00,0.0088
3765.00,0.0088
3764.00,0.0087
3763.00,0.0087
3762.00,0.0087
3761.00,0.0087
3760.00,0.0087
3759.00,0.0087
3758.00,0.0087
3757.00,0.0087
3756.00,0.0088
3755.00,0.0088
3754.00,0.0088
3753.00,0.0088
3752.00,0.0088
3751.00,0.0089
3750.00,0.0089
3749.00,0.0089
3748.00,0.0088
3747.00,0.0088
3746.00,0.0088
3745.00,0.0088
3744.00,0.0088
3743.00,0.0087
3742.00,0.0087
3741.00,0.0087
3740.00,0.0087
3739.00,0.0087
3738.00,0.0087
3737.00,0.0087
3736.00,0.0087
3735.00,0.0087
3734.00,0.0087
3733.00,0.0087
3732.00,0.0087
3731.00,0.0087
3730.00,0.0087
3729.00,0.0087
3728.00,0.0086
3727.00,0.0086
3726.00,0.0086
3725.00,0.0086
3724.00,0.0086
3723.00,0.0086
3722.00,0.0086
3721.00,0.0085
3720.00,0.0085
3719.00,0.0085
3718.00,0.0085
3717.00,0.0085
3716.00,0.0085
3715.00,0.0085
3714.00,0.0085
3713.00,0.0085
3712.00,0.0085
3711.00,0.0085
3710.00,0.0085
3709.00,0.0085
3708.00,0.0085
3707.00,0.0085
3706.00,0.0085
3705.00,0.0085
3704.00,0.0085
3703.00,0.0085
3702.00,0.0084
3701.00,0.0084
3700.00,0.0084
3699.00,0.0084
3698.00,0.0084
3697.00,0.0084
3696.00,0.0084
3695.00,0.0084
3694.00,0.0084
3693.00,0.0084
3692.00,0.0084
3691.00,0.0084
3690.00,0.0084
3689.00,0.0084
3688.00,0.0084
3687.00,0.0084
3686.00,0.0084
3685.00,0.0084
3684.00,0.0084
3683.00,0.0084
3682.00,0.0084
3681.00,0.0084
3680.00,0.0084
3679.00,0.0084
3678.00,0.0084
3677.00,0.0084
3676.00,0.0084
3675.00,0.0084
3674.00,0.0084
3673.00,0.0084
3672.00,0.0084
3671.00,0.0084
3670.00,0.0084
3669.00,0.0084
3668.00,0.0084
3667.00,0.0084
3666.00,0.0084
3665.00,0.0084
3664.00,0.0083
3663.00,0.0083
3662.00,0.0083
3661.00,0.0083
3660.00,0.0083
3659.00,0.0083
3658.00,0.0083
3657.00,0.0083
3656.00,0.0084
3655.00,0.0084
3654.00,0.0084
3653.00,0.0084
3652.00,0.0084
3651.00,0.0085
3650.00,0.0085
3649.00,0.0085
3648.00,0.0085
3647.00,0.0085
3646.00,0.0085
3645.00,0.0085
3644.00,0.0084
3643.00,0.0084
3642.00,0.0084
3641.00,0.0084
3640.00,0.0084
3639.00,0.0084
3638.00,0.0084
3637.00,0.0085
3636.00,0.0085
3635.00,0.0084
3634.00,0.0084
3633.00,0.0085
3632.00,0.0085
3631.00,0.0085
3630.00,0.0086
3629.00,0.0086
3628.00,0.0086
3627.00,0.0086
3626.00,0.0086
3625.00,0.0086
3624.00,0.0086
3623.00,0.0085
3622.00,0.0085
3621.00,0.0085
3620.00,0.0085
3619.00,0.0086
3618.00,0.0086
3617.00,0.0086
3616.00,0.0086
3615.00,0.0086
3614.00,0.0086
3613.00,0.0087
3612.00,0.0087
3611.00,0.0087
3610.00,0.0087
3609.00,0.0087
3608.00,0.0087
3607.00,0.0087
3606.00,0.0087
3605.00,0.0087
3604.00,0.0087
3603.00,0.0087
3602.00,0.0087
3601.00,0.0087
3600.00,0.0087
3599.00,0.0087
3598.00,0.0087
3597.00,0.0087
3596.00,0.0087
3595.00,0.0087
3594.00,0.0087
3593.00,0.0088
3592.00,0.0088
3591.00,0.0089
3590.00,0.0089
3589.00,0.0089
3588.00,0.0089
3587.00,0.0089
3586.00,0.0089
3585.00,0.0089
3584.00,0.0089
3583.00,0.0089
3582.00,0.0089
3581.00,0.0089
3580.00,0.0089
3579.00,0.0089
3578.00,0.0089
3577.00,0.0089
3576.00,0.0090
3575.00,0.0090
3574.00,0.0090
3573.00,0.0090
3572.00,0.0091
3571.00,0.0091
3570.00,0.0091
3569.00,0.0091
3568.00,0.0091
3567.00,0.0091
3566.00,0.0091
3565.00,0.0091
3564.00,0.0092
3563.00,0.0092
3562.00,0.0092
3561.00,0.0092
3560.00,0.0092
3559.00,0.0092
3558.00,0.0092
3557.00,0.0093
3556.00,0.0093
3555.00,0.0093
3554.00,0.0093
3553.00,0.0094
3552.00,0.0094
3551.00,0.0094
3550.00,0.0094
3549.00,0.0095
3548.00,0.0095
3547.00,0.0095
3546.00,0.0095
3545.00,0.0095
3544.00,0.0096
3543.00,0.0096
3542.00,0.0096
3541.00,0.0096
3540.00,0.0096
3539.00,0.0096
3538.00,0.0096
3537.00,0.0096
3536.00,0.0097
3535.00,0.0097
3534.00,0.0098
3533.00,0.0098
3532.00,0.0098
3531.00,0.0099
3530.00,0.0099
3529.00,0.0099
3528.00,0.0099
3527.00,0.0100
3526.00,0.0100
3525.00,0.0100
3524.00,0.0100
3523.00,0.0101
3522.00,0.0101
3521.00,0.0101
3520.00,0.0101
3519.00,0.0101
3518.00,0.0101
3517.00,0.0101
3516.00,0.0101
3515.00,0.0102
3514.00,0.0102
3513.00,0.0102
3512.00,0.0102
3511.00,0.0102
3510.00,0.0103
3509.00,0.0103
3508.00,0.0103
3507.00,0.0103
3506.00,0.0104
3505.00,0.0104
3504.00,0.0104
3503.00,0.0104
3502.00,0.0104
3501.00,0.0104
3500.00,0.0105
3499.00,0.0105
3498.00,0.0105
3497.00,0.0105
3496.00,0.0105
3495.00,0.0105
3494.00,0.0105
3493.00,0.0105
3492.00,0.0105
3491.00,0.0105
3490.00,0.0105
3489.00,0.0106
3488.00,0.0106
3487.00,0.0106
3486.00,0.0106
3485.00,0.0107
3484.00,0.0107
3483.00,0.0107
3482.00,0.0107
3481.00,0.0107
3480.00,0.0107
3479.00,0.0107
3478.00,0.0108
3477.00,0.0108
3476.00,0.0108
3475.00,0.0108
3474.00,0.0108
3473.00,0.0109
3472.00,0.0109
3471.00,0.0109
3470.00,0.0109
3469.00,0.0109
3468.00,0.0109
3467.00,0.0109
3466.00,0.0109
3465.00,0.0109
3464.00,0.0109
3463.00,0.0109
3462.00,0.0109
3461.00,0.0110
3460.00,0.0110
3459.00,0.0110
3458.00,0.0110
3457.00,0.0110
3456.00,0.0110
3455.00,0.0110
3454.00,0.0110
3453.00,0.0111
3452.00,0.0111
3451.00,0.0111
3450.00,0.0111
3449.00,0.0111
3448.00,0.0111
3447.00,0.0111
3446.00,0.0111
3445.00,0.0111
3444.00,0.0112
3443.00,0.0112
3442.00,0.0112
3441.00,0.0113
3440.00,0.0113
3439.00,0.0113
3438.00,0.0113
3437.00,0.0113
3436.00,0.0113
3435.00,0.0114
3434.00,0.0114
3433.00,0.0114
3432.00,0.0114
3431.00,0.0114
3430.00,0.0114
3429.00,0.0115
3428.00,0.0115
3427.00,0.0115
3426.00,0.0115
3425.00,0.0115
3424.00,0.0116
3423.00,0.0116
3422.00,0.0116
3421.00,0.0116
3420.00,0.0116
3419.00,0.0117
3418.00,0.0117
3417.00,0.0117
3416.00,0.0117
3415.00,0.0117
3414.00,0.0118
3413.00,0.0118
3412.00,0.0118
3411.00,0.0118
3410.00,0.0119
3409.00,0.0119
3408.00,0.0120
3407.00,0.0120
3406.00,0.0120
3405.00,0.0120
3404.00,0.0120
3403.00,0.0120
3402.00,0.0120
3401.00,0.0121
3400.00,0.0121
3399.00,0.0121
3398.00,0.0122
3397.00,0.0122
3396.00,0.0122
3395.00,0.0122
3394.00,0.0122
3393.00,0.0122
3392.00,0.0122
3391.00,0.0122
3390.00,0.0123
3389.00,0.0123
3388.00,0.0124
3387.00,0.0124
3386.00,0.0125
3385.00,0.0125
3384.00,0.0125
3383.00,0.0125
3382.00,0.0126
3381.00,0.0126
3380.00,0.0126
3379.00,0.0127
3378.00,0.0127
3377.00,0.0128
3376.00,0.0128
3375.00,0.0128
3374.00,0.0129
3373.00,0.0129
3372.00,0.0129
3371.00,0.0129
3370.00,0.0130
3369.00,0.0130
3368.00,0.0131
3367.00,0.0131
3366.00,0.0132
3365.00,0.0132
3364.00,0.0133
3363.00,0.0134
3362.00,0.0134
3361.00,0.0135
3360.00,0.0136
3359.00,0.0137
3358.00,0.0138
3357.00,0.0138
3356.00,0.0139
3355.00,0.0140
3354.00,0.0141
3353.00,0.0141
3352.00,0.0142
3351.00,0.0143
3350.00,0.0144
3349.00,0.0145
3348.00,0.0146
3347.00,0.0147
3346.00,0.0148
3345.00,0.0149
3344.00,0.0150
3343.00,0.0152
3342.00,0.0153
3341.00,0.0154
3340.00,0.0155
3339.00,0.0156
3338.00,0.0158
3337.00,0.0159
3336.00,0.0161
3335.00,0.0163
3334.00,0.0164
3333.00,0.0166
3332.00,0.0168
3331.00,0.0170
3330.00,0.0171
3329.00,0.0173
3328.00,0.0175
3327.00,0.0177
3326.00,0.0179
3325.00,0.0181
3324.00,0.0184
3323.00,0.0186
3322.00,0.0188
3321.00,0.0191
3320.00,0.0193
3319.00,0.0196
3318.00,0.0198
3317.00,0.0201
3316.00,0.0204
3315.00,0.0206
3314.00,0.0209
3313.00,0.0211
3312.00,0.0213
3311.00,0.0216
3310.00,0.0218
3309.00,0.0220
3308.00,0.0223
3307.00,0.0225
3306.00,0.0228
3305.00,0.0232
3304.00,0.0235
3303.00,0.0238
3302.00,0.0242
3301.00,0.0245
3300.00,0.0248
3299.00,0.0250
3298.00,0.0252
3297.00,0.0254
3296.00,0.0256
3295.00,0.0258
3294.00,0.0260
3293.00,0.0262
3292.00,0.0264
3291.00,0.0266
3290.00,0.0267
3289.00,0.0269
3288.00,0.0270
3287.00,0.0271
3286.00,0.0272
3285.00,0.0272
3284.00,0.0272
3283.00,0.0272
3282.00,0.0271
3281.00,0.0270
3280.00,0.0269
3279.00,0.0268
3278.00,0.0267
3277.00,0.0265
3276.00,0.0262
3275.00,0.0260
3274.00,0.0257
3273.00,0.0255
3272.00,0.0252
3271.00,0.0249
3270.00,0.0247
3269.00,0.0245
3268.00,0.0242
3267.00,0.0240
3266.00,0.0238
3265.00,0.0235
3264.00,0.0233
3263.00,0.0230
3262.00,0.0227
3261.00,0.0224
3260.00,0.0222
3259.00,0.0219
3258.00,0.0216
3257.00,0.0213
3256.00,0.0211
3255.00,0.0209
3254.00,0.0207
3253.00,0.0205
3252.00,0.0203
3251.00,0.0201
3250.00,0.0199
3249.00,0.0196
3248.00,0.0194
3247.00,0.0192
3246.00,0.0191
3245.00,0.0189
3244.00,0.0188
3243.00,0.0187
3242.00,0.0186
3241.00,0.0185
3240.00,0.0183
3239.00,0.0181
3238.00,0.0179
3237.00,0.0177
3236.00,0.0175
3235.00,0.0173
3234.00,0.0172
3233.00,0.0171
3232.00,0.0170
3231.00,0.0170
3230.00,0.0169
3229.00,0.0169
3228.00,0.0168
3227.00,0.0167
3226.00,0.0166
3225.00,0.0165
3224.00,0.0164
3223.00,0.0162
3222.00,0.0161
3221.00,0.0160
3220.00,0.0159
3219.00,0.0158
3218.00,0.0157
3217.00,0.0156
3216.00,0.0155
3215.00,0.0154
3214.00,0.0153
3213.00,0.0153
3212.00,0.0152
3211.00,0.0151
3210.00,0.0150
3209.00,0.0149
3208.00,0.0148
3207.00,0.0148
3206.00,0.0147
3205.00,0.0146
3204.00,0.0145
3203.00,0.0144
3202.00,0.0144
3201.00,0.0143
3200.00,0.0143
3199.00,0.0142
3198.00,0.0141
3197.00,0.0141
3196.00,0.0140
3195.00,0.0139
3194.00,0.0139
3193.00,0.0138
3192.00,0.0137
3191.00,0.0137
3190.00,0.0136
3189.00,0.0136
3188.00,0.0135
3187.00,0.0135
3186.00,0.0134
3185.00,0.0134
3184.00,0.0133
3183.00,0.0132
3182.00,0.0132
3181.00,0.0131
3180.00,0.0130
3179.00,0.0130
3178.00,0.0129
3177.00,0.0129
3176.00,0.0128
3175.00,0.0128
3174.00,0.0127
3173.00,0.0127
3172.00,0.0127
3171.00,0.0126
3170.00,0.0126
3169.00,0.0125
3168.00,0.0125
3167.00,0.0125
3166.00,0.0124
3165.00,0.0124
3164.00,0.0123
3163.00,0.0123
3162.00,0.0123
3161.00,0.0122
3160.00,0.0122
3159.00,0.0122
3158.00,0.0121
3157.00,0.0121
3156.00,0.0120
3155.00,0.0120
3154.00,0.0120
3153.00,0.0120
3152.00,0.0119
3151.00,0.0119
3150.00,0.0119
3149.00,0.0119
3148.00,0.0119
3147.00,0.0118
3146.00,0.0118
3145.00,0.0118
3144.00,0.0118
3143.00,0.0118
3142.00,0.0117
3141.00,0.0117
3140.00,0.0117
3139.00,0.0116
3138.00,0.0116
3137.00,0.0117
3136.00,0.0117
3135.00,0.0117
3134.00,0.0117
3133.00,0.0116
3132.00,0.0116
3131.00,0.0116
3130.00,0.0117
3129.00,0.0117
3128.00,0.0117
3127.00,0.0117
3126.00,0.0117
3125.00,0.0117
3124.00,0.0117
3123.00,0.0116
3122.00,0.0116
3121.00,0.0116
3120.00,0.0115
3119.00,0.0115
3118.00,0.0115
3117.00,0.0115
3116.00,0.0116
3115.00,0.0116
3114.00,0.0117
3113.00,0.0117
3112.00,0.0118
3111.00,0.0118
3110.00,0.0118
3109.00,0.0118
3108.00,0.0118
3107.00,0.0119
3106.00,0.0119
3105.00,0.0119
3104.00,0.0119
3103.00,0.0120
3102.00,0.0120
3101.00,0.0120
3100.00,0.0120
3099.00,0.0120
3098.00,0.0121
3097.00,0.0121
3096.00,0.0121
3095.00,0.0121
3094.00,0.0121
3093.00,0.0121
3092.00,0.0121
3091.00,0.0121
3090.00,0.0121
3089.00,0.0122
3088.00,0.0122
3087.00,0.0122
3086.00,0.0122
3085.00,0.0122
3084.00,0.0122
3083.00,0.0122
3082.00,0.0122
3081.00,0.0122
3080.00,0.0122
3079.00,0.0122
3078.00,0.0123
3077.00,0.0123
3076.00,0.0124
3075.00,0.0124
3074.00,0.0125
3073.00,0.0125
3072.00,0.0125
3071.00,0.0124
3070.00,0.0124
3069.00,0.0123
3068.00,0.0123
3067.00,0.0123
3066.00,0.0123
3065.00,0.0123
3064.00,0.0123
3063.00,0.0123
3062.00,0.0124
3061.00,0.0123
3060.00,0.0123
3059.00,0.0123
3058.00,0.0123
3057.00,0.0122
3056.00,0.0122
3055.00,0.0121
3054.00,0.0121
3053.00,0.0120
3052.00,0.0120
3051.00,0.0119
3050.00,0.0119
3049.00,0.0119
3048.00,0.0118
3047.00,0.0118
3046.00,0.0117
3045.00,0.0116
3044.00,0.0116
3043.00,0.0115
3042.00,0.0115
3041.00,0.0115
3040.00,0.0115
3039.00,0.0115
3038.00,0.0115
3037.00,0.0115
3036.00,0.0114
3035.00,0.0114
3034.00,0.0113
3033.00,0.0113
3032.00,0.0114
3031.00,0.0114
3030.00,0.0113
3029.00,0.0113
3028.00,0.0113
3027.00,0.0113
3026.00,0.0112
3025.00,0.0112
3024.00,0.0112
3023.00,0.0112
3022.00,0.0111
3021.00,0.0111
3020.00,0.0110
3019.00,0.0110
3018.00,0.0110
3017.00,0.0109
3016.00,0.0109
3015.00,0.0108
3014.00,0.0108
3013.00,0.0108
3012.00,0.0108
3011.00,0.0108
3010.00,0.0109
3009.00,0.0109
3008.00,0.0109
3007.00,0.0110
3006.00,0.0110
3005.00,0.0110
3004.00,0.0110
3003.00,0.0110
3002.00,0.0110
3001.00,0.0110
3000.00,0.0110
2999.00,0.0110
2998.00,0.0110
2997.00,0.0110
2996.00,0.0111
2995.00,0.0111
2994.00,0.0111
2993.00,0.0111
2992.00,0.0112
2991.00,0.0113
2990.00,0.0113
2989.00,0.0114
2988.00,0.0114
2987.00,0.0115
2986.00,0.0115
2985.00,0.0116
2984.00,0.0117
2983.00,0.0117
2982.00,0.0118
2981.00,0.0118
2980.00,0.0119
2979.00,0.0119
2978.00,0.0120
2977.00,0.0120
2976.00,0.0120
2975.00,0.0121
2974.00,0.0121
2973.00,0.0122
2972.00,0.0122
2971.00,0.0123
2970.00,0.0123
2969.00,0.0123
2968.00,0.0124
2967.00,0.0124
2966.00,0.0124
2965.00,0.0123
2964.00,0.0123
2963.00,0.0122
2962.00,0.0122
2961.00,0.0122
2960.00,0.0122
2959.00,0.0121
2958.00,0.0121
2957.00,0.0121
2956.00,0.0121
2955.00,0.0120
2954.00,0.0120
2953.00,0.0119
2952.00,0.0119
2951.00,0.0119
2950.00,0.0119
2949.00,0.0119
2948.00,0.0119
2947.00,0.0119
2946.00,0.0119
2945.00,0.0120
2944.00,0.0121
2943.00,0.0123
2942.00,0.0124
2941.00,0.0126
2940.00,0.0128
2939.00,0.0129
2938.00,0.0131
2937.00,0.0132
2936.00,0.0134
2935.00,0.0135
2934.00,0.0137
2933.00,0.0138
2932.00,0.0139
2931.00,0.0141
2930.00,0.0142
2929.00,0.0144
2928.00,0.0146
2927.00,0.0147
2926.00,0.0149
2925.00,0.0151
2924.00,0.0153
2923.00,0.0155
2922.00,0.0157
2921.00,0.0158
2920.00,0.0159
2919.00,0.0160
2918.00,0.0160
2917.00,0.0159
2916.00,0.0157
2915.00,0.0154
2914.00,0.0151
2913.00,0.0147
2912.00,0.0143
2911.00,0.0140
2910.00,0.0137
2909.00,0.0134
2908.00,0.0133
2907.00,0.0131
2906.00,0.0129
2905.00,0.0128
2904.00,0.0127
2903.00,0.0126
2902.00,0.0126
2901.00,0.0125
2900.00,0.0124
2899.00,0.0123
2898.00,0.0122
2897.00,0.0121
2896.00,0.0120
2895.00,0.0120
2894.00,0.0119
2893.00,0.0119
2892.00,0.0119
2891.00,0.0118
2890.00,0.0118
2889.00,0.0118
2888.00,0.0117
2887.00,0.0117
2886.00,0.0116
2885.00,0.0116
2884.00,0.0116
2883.00,0.0116
2882.00,0.0116
2881.00,0.0116
2880.00,0.0116
2879.00,0.0116
2878.00,0.0116
2877.00,0.0116
2876.00,0.0116
2875.00,0.0116
2874.00,0.0115
2873.00,0.0115
2872.00,0.0115
2871.00,0.0115
2870.00,0.0114
2869.00,0.0114
2868.00,0.0113
2867.00,0.0113
2866.00,0.0112
2865.00,0.0112
2864.00,0.0112
2863.00,0.0112
2862.00,0.0112
2861.00,0.0112
2860.00,0.0113
2859.00,0.0114
2858.00,0.0115
2857.00,0.0117
2856.00,0.0119
2855.00,0.0121
2854.00,0.0123
2853.00,0.0126
2852.00,0.0128
2851.00,0.0130
2850.00,0.0130
2849.00,0.0130
2848.00,0.0127
2847.00,0.0124
2846.00,0.0121
2845.00,0.0117
2844.00,0.0115
2843.00,0.0112
2842.00,0.0110
2841.00,0.0108
2840.00,0.0107
2839.00,0.0106
2838.00,0.0105
2837.00,0.0104
2836.00,0.0104
2835.00,0.0104
2834.00,0.0103
2833.00,0.0103
2832.00,0.0102
2831.00,0.0102
2830.00,0.0102
2829.00,0.0101
2828.00,0.0101
2827.00,0.0101
2826.00,0.0101
2825.00,0.0101
2824.00,0.0101
2823.00,0.0101
2822.00,0.0101
2821.00,0.0100
2820.00,0.0100
2819.00,0.0100
2818.00,0.0100
2817.00,0.0100
2816.00,0.0100
2815.00,0.0100
2814.00,0.0099
2813.00,0.0099
2812.00,0.0099
2811.00,0.0099
2810.00,0.0099
2809.00,0.0099
2808.00,0.0099
2807.00,0.0099
2806.00,0.0099
2805.00,0.0099
2804.00,0.0099
2803.00,0.0099
2802.00,0.0098
2801.00,0.0098
2800.00,0.0098
2799.00,0.0098
2798.00,0.0098
2797.00,0.0098
2796.00,0.0098
2795.00,0.0097
2794.00,0.0097
2793.00,0.0097
2792.00,0.0097
2791.00,0.0097
2790.00,0.0097
2789.00,0.0097
2788.00,0.0097
2787.00,0.0096
2786.00,0.0096
2785.00,0.0096
2784.00,0.0096
2783.00,0.0096
2782.00,0.0096
2781.00,0.0096
2780.00,0.0096
2779.00,0.0096
2778.00,0.0096
2777.00,0.0096
2776.00,0.0095
2775.00,0.0095
2774.00,0.0095
2773.00,0.0095
2772.00,0.0095
2771.00,0.0095
2770.00,0.0095
2769.00,0.0095
2768.00,0.0094
2767.00,0.0094
2766.00,0.0094
2765.00,0.0094
2764.00,0.0094
2763.00,0.0094
2762.00,0.0094
2761.00,0.0094
2760.00,0.0094
2759.00,0.0094
2758.00,0.0093
2757.00,0.0093
2756.00,0.0093
2755.00,0.0093
2754.00,0.0092
2753.00,0.0092
2752.00,0.0092
2751.00,0.0092
2750.00,0.0092
2749.00,0.0092
2748.00,0.0092
2747.00,0.0092
2746.00,0.0092
2745.00,0.0092
2744.00,0.0092
2743.00,0.0091
2742.00,0.0091
2741.00,0.0091
2740.00,0.0091
2739.00,0.0091
2738.00,0.0091
2737.00,0.0091
2736.00,0.0090
2735.00,0.0090
2734.00,0.0090
2733.00,0.0090
2732.00,0.0090
2731.00,0.0090
2730.00,0.0090
2729.00,0.0090
2728.00,0.0090
2727.00,0.0090
2726.00,0.0090
2725.00,0.0090
2724.00,0.0090
2723.00,0.0089
2722.00,0.0089
2721.00,0.0089
2720.00,0.0089
2719.00,0.0089
2718.00,0.0089
2717.00,0.0089
2716.00,0.0089
2715.00,0.0089
2714.00,0.0089
2713.00,0.0089
2712.00,0.0089
2711.00,0.0089
2710.00,0.0089
2709.00,0.0089
2708.00,0.0089
2707.00,0.0089
2706.00,0.0089
2705.00,0.0089
2704.00,0.0089
2703.00,0.0089
2702.00,0.0089
2701.00,0.0089
2700.00,0.0089
2699.00,0.0089
2698.00,0.0089
2697.00,0.0089
2696.00,0.0089
2695.00,0.0089
2694.00,0.0089
2693.00,0.0089
2692.00,0.0089
2691.00,0.0089
2690.00,0.0089
2689.00,0.0090
2688.00,0.0089
2687.00,0.0089
2686.00,0.0089
2685.00,0.0090
2684.00,0.0090
2683.00,0.0090
2682.00,0.0090
2681.00,0.0090
2680.00,0.0090
2679.00,0.0090
2678.00,0.0090
2677.00,0.0090
2676.00,0.0091
2675.00,0.0091
2674.00,0.0091
2673.00,0.0091
2672.00,0.0091
2671.00,0.0091
2670.00,0.0091
2669.00,0.0091
2668.00,0.0092
2667.00,0.0092
2666.00,0.0092
2665.00,0.0093
2664.00,0.0093
2663.00,0.0094
2662.00,0.0094
2661.00,0.0095
2660.00,0.0095
2659.00,0.0095
2658.00,0.0095
2657.00,0.0095
2656.00,0.0095
2655.00,0.0096
2654.00,0.0096
2653.00,0.0096
2652.00,0.0096
2651.00,0.0096
2650.00,0.0096
2649.00,0.0097
2648.00,0.0097
2647.00,0.0097
2646.00,0.0097
2645.00,0.0097
2644.00,0.0097
2643.00,0.0098
2642.00,0.0098
2641.00,0.0098
2640.00,0.0099
2639.00,0.0099
2638.00,0.0099
2637.00,0.0098
2636.00,0.0098
2635.00,0.0099
2634.00,0.0099
2633.00,0.0099
2632.00,0.0099
2631.00,0.0100
2630.00,0.0100
2629.00,0.0100
2628.00,0.0100
2627.00,0.0100
2626.00,0.0100
2625.00,0.0101
2624.00,0.0101
2623.00,0.0101
2622.00,0.0101
2621.00,0.0101
2620.00,0.0101
2619.00,0.0102
2618.00,0.0102
2617.00,0.0102
2616.00,0.0102
2615.00,0.0103
2614.00,0.0103
2613.00,0.0103
2612.00,0.0104
2611.00,0.0104
2610.00,0.0104
2609.00,0.0104
2608.00,0.0104
2607.00,0.0105
2606.00,0.0105
2605.00,0.0105
2604.00,0.0105
2603.00,0.0106
2602.00,0.0106
2601.00,0.0107
2600.00,0.0107
2599.00,0.0107
2598.00,0.0107
2597.00,0.0107
2596.00,0.0107
2595.00,0.0108
2594.00,0.0108
2593.00,0.0108
2592.00,0.0109
2591.00,0.0109
2590.00,0.0109
2589.00,0.0109
2588.00,0.0109
2587.00,0.0110
2586.00,0.0110
2585.00,0.0110
2584.00,0.0110
2583.00,0.0110
2582.00,0.0111
2581.00,0.0111
2580.00,0.0111
2579.00,0.0111
2578.00,0.0112
2577.00,0.0112
2576.00,0.0112
2575.00,0.0112
2574.00,0.0113
2573.00,0.0113
2572.00,0.0113
2571.00,0.0113
2570.00,0.0114
2569.00,0.0114
2568.00,0.0114
2567.00,0.0114
2566.00,0.0114
2565.00,0.0114
2564.00,0.0115
2563.00,0.0115
2562.00,0.0115
2561.00,0.0115
2560.00,0.0116
2559.00,0.0116
2558.00,0.0116
2557.00,0.0117
2556.00,0.0117
2555.00,0.0117
2554.00,0.0118
2553.00,0.0118
2552.00,0.0119
2551.00,0.0119
2550.00,0.0119
2549.00,0.0120
2548.00,0.0120
2547.00,0.0120
2546.00,0.0121
2545.00,0.0121
2544.00,0.0122
2543.00,0.0122
2542.00,0.0122
2541.00,0.0122
2540.00,0.0123
2539.00,0.0124
2538.00,0.0124
2537.00,0.0125
2536.00,0.0125
2535.00,0.0126
2534.00,0.0126
2533.00,0.0127
2532.00,0.0127
2531.00,0.0128
2530.00,0.0128
2529.00,0.0129
2528.00,0.0129
2527.00,0.0130
2526.00,0.0130
2525.00,0.0131
2524.00,0.0131
2523.00,0.0131
2522.00,0.0131
2521.00,0.0132
2520.00,0.0133
2519.00,0.0133
2518.00,0.0134
2517.00,0.0134
2516.00,0.0135
2515.00,0.0135
2514.00,0.0136
2513.00,0.0136
2512.00,0.0136
2511.00,0.0137
2510.00,0.0138
2509.00,0.0138
2508.00,0.0139
2507.00,0.0139
2506.00,0.0139
2505.00,0.0140
2504.00,0.0140
2503.00,0.0141
2502.00,0.0141
2501.00,0.0142
2500.00,0.0142
2499.00,0.0143
2498.00,0.0143
2497.00,0.0143
2496.00,0.0144
2495.00,0.0145
2494.00,0.0145
2493.00,0.0146
2492.00,0.0146
2491.00,0.0147
2490.00,0.0147
2489.00,0.0148
2488.00,0.0148
2487.00,0.0149
2486.00,0.0149
2485.00,0.0150
2484.00,0.0150
2483.00,0.0150
2482.00,0.0151
2481.00,0.0151
2480.00,0.0151
2479.00,0.0152
2478.00,0.0152
2477.00,0.0152
2476.00,0.0152
2475.00,0.0153
2474.00,0.0153
2473.00,0.0153
2472.00,0.0153
2471.00,0.0153
2470.00,0.0153
2469.00,0.0153
2468.00,0.0153
2467.00,0.0153
2466.00,0.0153
2465.00,0.0153
2464.00,0.0153
2463.00,0.0153
2462.00,0.0153
2461.00,0.0153
2460.00,0.0153
2459.00,0.0153
2458.00,0.0153
2457.00,0.0153
2456.00,0.0153
2455.00,0.0152
2454.00,0.0152
2453.00,0.0152
2452.00,0.0151
2451.00,0.0151
2450.00,0.0150
2449.00,0.0150
2448.00,0.0150
2447.00,0.0150
2446.00,0.0149
2445.00,0.0149
2444.00,0.0149
2443.00,0.0149
2442.00,0.0149
2441.00,0.0149
2440.00,0.0149
2439.00,0.0149
2438.00,0.0149
2437.00,0.0149
2436.00,0.0149
2435.00,0.0149
2434.00,0.0149
2433.00,0.0150
2432.00,0.0150
2431.00,0.0149
2430.00,0.0149
2429.00,0.0149
2428.00,0.0149
2427.00,0.0150
2426.00,0.0150
2425.00,0.0150
2424.00,0.0150
2423.00,0.0150
2422.00,0.0150
2421.00,0.0150
2420.00,0.0150
2419.00,0.0150
2418.00,0.0150
2417.00,0.0150
2416.00,0.0150
2415.00,0.0150
2414.00,0.0150
2413.00,0.0150
2412.00,0.0150
2411.00,0.0150
2410.00,0.0149
2409.00,0.0149
2408.00,0.0149
2407.00,0.0148
2406.00,0.0148
2405.00,0.0148
2404.00,0.0148
2403.00,0.0148
2402.00,0.0147
2401.00,0.0147
2400.00,0.0147
2399.00,0.0146
2398.00,0.0146
2397.00,0.0145
2396.00,0.0145
2395.00,0.0145
2394.00,0.0144
2393.00,0.0144
2392.00,0.0144
2391.00,0.0143
2390.00,0.0142
2389.00,0.0142
2388.00,0.0141
2387.00,0.0141
2386.00,0.0140
2385.00,0.0139
2384.00,0.0138
2383.00,0.0137
2382.00,0.0136
2381.00,0.0135
2380.00,0.0134
2379.00,0.0134
2378.00,0.0133
2377.00,0.0133
2376.00,0.0132
2375.00,0.0132
2374.00,0.0131
2373.00,0.0131
2372.00,0.0130
2371.00,0.0130
2370.00,0.0129
2369.00,0.0128
2368.00,0.0127
2367.00,0.0127
2366.00,0.0127
2365.00,0.0126
2364.00,0.0126
2363.00,0.0125
2362.00,0.0125
2361.00,0.0124
2360.00,0.0124
2359.00,0.0124
2358.00,0.0124
2357.00,0.0124
2356.00,0.0124
2355.00,0.0123
2354.00,0.0122
2353.00,0.0121
2352.00,0.0121
2351.00,0.0120
2350.00,0.0120
2349.00,0.0120
2348.00,0.0119
2347.00,0.0119
2346.00,0.0118
2345.00,0.0118
2344.00,0.0118
2343.00,0.0118
2342.00,0.0118
2341.00,0.0118
2340.00,0.0117
2339.00,0.0117
2338.00,0.0117
2337.00,0.0116
2336.00,0.0116
2335.00,0.0115
2334.00,0.0114
2333.00,0.0114
2332.00,0.0113
2331.00,0.0113
2330.00,0.0114
2329.00,0.0114
2328.00,0.0116
2327.00,0.0118
2326.00,0.0119
2325.00,0.0120
2324.00,0.0119
2323.00,0.0117
2322.00,0.0116
2321.00,0.0115
2320.00,0.0114
2319.00,0.0113
2318.00,0.0112
2317.00,0.0111
2316.00,0.0110
2315.00,0.0109
2314.00,0.0109
2313.00,0.0108
2312.00,0.0108
2311.00,0.0107
2310.00,0.0107
2309.00,0.0106
2308.00,0.0106
2307.00,0.0106
2306.00,0.0105
2305.00,0.0105
2304.00,0.0105
2303.00,0.0105
2302.00,0.0104
2301.00,0.0104
2300.00,0.0103
2299.00,0.0103
2298.00,0.0103
2297.00,0.0103
2296.00,0.0103
2295.00,0.0103
2294.00,0.0103
2293.00,0.0103
2292.00,0.0103
2291.00,0.0104
2290.00,0.0104
2289.00,0.0104
2288.00,0.0104
2287.00,0.0104
2286.00,0.0104
2285.00,0.0103
2284.00,0.0102
2283.00,0.0101
2282.00,0.0100
2281.00,0.0099
2280.00,0.0099
2279.00,0.0098
2278.00,0.0098
2277.00,0.0097
2276.00,0.0097
2275.00,0.0096
2274.00,0.0095
2273.00,0.0095
2272.00,0.0095
2271.00,0.0094
2270.00,0.0094
2269.00,0.0094
2268.00,0.0093
2267.00,0.0092
2266.00,0.0092
2265.00,0.0092
2264.00,0.0091
2263.00,0.0091
2262.00,0.0091
2261.00,0.0090
2260.00,0.0091
2259.00,0.0091
2258.00,0.0091
2257.00,0.0090
2256.00,0.0090
2255.00,0.0089
2254.00,0.0088
2253.00,0.0088
2252.00,0.0088
2251.00,0.0088
2250.00,0.0088
2249.00,0.0088
2248.00,0.0087
2247.00,0.0087
2246.00,0.0086
2245.00,0.0086
2244.00,0.0086
2243.00,0.0086
2242.00,0.0085
2241.00,0.0085
2240.00,0.0085
2239.00,0.0086
2238.00,0.0086
2237.00,0.0086
2236.00,0.0085
2235.00,0.0085
2234.00,0.0085
2233.00,0.0085
2232.00,0.0085
2231.00,0.0084
2230.00,0.0084
2229.00,0.0083
2228.00,0.0083
2227.00,0.0083
2226.00,0.0083
2225.00,0.0083
2224.00,0.0083
2223.00,0.0083
2222.00,0.0082
2221.00,0.0082
2220.00,0.0081
2219.00,0.0081
2218.00,0.0080
2217.00,0.0080
2216.00,0.0080
2215.00,0.0081
2214.00,0.0081
2213.00,0.0081
2212.00,0.0082
2211.00,0.0081
2210.00,0.0081
2209.00,0.0081
2208.00,0.0081
2207.00,0.0080
2206.00,0.0079
2205.00,0.0079
2204.00,0.0079
2203.00,0.0079
2202.00,0.0078
2201.00,0.0078
2200.00,0.0077
2199.00,0.0078
2198.00,0.0079
2197.00,0.0080
2196.00,0.0080
2195.00,0.0080
2194.00,0.0078
2193.00,0.0078
2192.00,0.0078
2191.00,0.0078
2190.00,0.0078
2189.00,0.0078
2188.00,0.0078
2187.00,0.0078
2186.00,0.0078
2185.00,0.0078
2184.00,0.0077
2183.00,0.0076
2182.00,0.0075
2181.00,0.0074
2180.00,0.0074
2179.00,0.0074
2178.00,0.0072
2177.00,0.0070
2176.00,0.0069
2175.00,0.0069
2174.00,0.0070
2173.00,0.0073
2172.00,0.0076
2171.00,0.0077
2170.00,0.0078
2169.00,0.0078
2168.00,0.0079
2167.00,0.0080
2166.00,0.0081
2165.00,0.0083
2164.00,0.0084
2163.00,0.0083
2162.00,0.0078
2161.00,0.0070
2160.00,0.0061
2159.00,0.0054
2158.00,0.0050
2157.00,0.0050
2156.00,0.0051
2155.00,0.0052
2154.00,0.0053
2153.00,0.0055
2152.00,0.0057
2151.00,0.0058
2150.00,0.0060
2149.00,0.0060
2148.00,0.0060
2147.00,0.0060
2146.00,0.0059
2145.00,0.0059
2144.00,0.0059
2143.00,0.0059
2142.00,0.0059
2141.00,0.0059
2140.00,0.0059
2139.00,0.0059
2138.00,0.0059
2137.00,0.0059
2136.00,0.0058
2135.00,0.0057
2134.00,0.0056
2133.00,0.0057
2132.00,0.0058
2131.00,0.0060
2130.00,0.0061
2129.00,0.0062
2128.00,0.0062
2127.00,0.0063
2126.00,0.0063
2125.00,0.0063
2124.00,0.0063
2123.00,0.0064
2122.00,0.0064
2121.00,0.0065
2120.00,0.0066
2119.00,0.0066
2118.00,0.0066
2117.00,0.0067
2116.00,0.0067
2115.00,0.0068
2114.00,0.0068
2113.00,0.0068
2112.00,0.0068
2111.00,0.0068
2110.00,0.0067
2109.00,0.0067
2108.00,0.0067
2107.00,0.0066
2106.00,0.0066
2105.00,0.0066
2104.00,0.0066
2103.00,0.0067
2102.00,0.0067
2101.00,0.0067
2100.00,0.0066
2099.00,0.0066
2098.00,0.0065
2097.00,0.0064
2096.00,0.0063
2095.00,0.0062
2094.00,0.0062
2093.00,0.0062
2092.00,0.0063
2091.00,0.0064
2090.00,0.0064
2089.00,0.0064
2088.00,0.0065
2087.00,0.0065
2086.00,0.0066
2085.00,0.0066
2084.00,0.0067
2083.00,0.0067
2082.00,0.0067
2081.00,0.0067
2080.00,0.0067
2079.00,0.0067
2078.00,0.0067
2077.00,0.0066
2076.00,0.0065
2075.00,0.0064
2074.00,0.0064
2073.00,0.0064
2072.00,0.0064
2071.00,0.0064
2070.00,0.0064
2069.00,0.0064
2068.00,0.0064
2067.00,0.0065
2066.00,0.0065
2065.00,0.0066
2064.00,0.0066
2063.00,0.0065
2062.00,0.0064
2061.00,0.0063
2060.00,0.0063
2059.00,0.0064
2058.00,0.0064
2057.00,0.0064
2056.00,0.0065
2055.00,0.0066
2054.00,0.0068
2053.00,0.0070
2052.00,0.0072
2051.00,0.0071
2050.00,0.0070
2049.00,0.0067
2048.00,0.0066
2047.00,0.0065
2046.00,0.0064
2045.00,0.0063
2044.00,0.0062
2043.00,0.0061
2042.00,0.0062
2041.00,0.0062
2040.00,0.0063
2039.00,0.0063
2038.00,0.0063
2037.00,0.0062
2036.00,0.0062
2035.00,0.0060
2034.00,0.0058
2033.00,0.0056
2032.00,0.0056
2031.00,0.0056
2030.00,0.0055
2029.00,0.0053
2028.00,0.0053
2027.00,0.0053
2026.00,0.0053
2025.00,0.0054
2024.00,0.0055
2023.00,0.0055
2022.00,0.0054
2021.00,0.0054
2020.00,0.0054
2019.00,0.0054
2018.00,0.0053
2017.00,0.0053
2016.00,0.0053
2015.00,0.0053
2014.00,0.0053
2013.00,0.0053
2012.00,0.0055
2011.00,0.0056
2010.00,0.0056
2009.00,0.0056
2008.00,0.0054
2007.00,0.0051
2006.00,0.0049
2005.00,0.0048
2004.00,0.0049
2003.00,0.0049
2002.00,0.0050
2001.00,0.0051
2000.00,0.0051
1999.00,0.0052
1998.00,0.0053
1997.00,0.0053
1996.00,0.0055
1995.00,0.0056
1994.00,0.0057
1993.00,0.0057
1992.00,0.0057
1991.00,0.0056
1990.00,0.0056
1989.00,0.0056
1988.00,0.0057
1987.00,0.0057
1986.00,0.0057
1985.00,0.0058
1984.00,0.0059
1983.00,0.0060
1982.00,0.0061
1981.00,0.0061
1980.00,0.0061
1979.00,0.0059
1978.00,0.0056
1977.00,0.0054
1976.00,0.0053
1975.00,0.0052
1974.00,0.0051
1973.00,0.0050
1972.00,0.0049
1971.00,0.0048
1970.00,0.0048
1969.00,0.0049
1968.00,0.0050
1967.00,0.0051
1966.00,0.0050
1965.00,0.0049
1964.00,0.0048
1963.00,0.0048
1962.00,0.0049
1961.00,0.0049
1960.00,0.0049
1959.00,0.0048
1958.00,0.0047
1957.00,0.0047
1956.00,0.0047
1955.00,0.0047
1954.00,0.0048
1953.00,0.0048
1952.00,0.0049
1951.00,0.0049
1950.00,0.0048
1949.00,0.0048
1948.00,0.0049
1947.00,0.0049
1946.00,0.0049
1945.00,0.0049
1944.00,0.0049
1943.00,0.0049
1942.00,0.0048
1941.00,0.0047
1940.00,0.0047
1939.00,0.0047
1938.00,0.0048
1937.00,0.0049
1936.00,0.0050
1935.00,0.0051
1934.00,0.0051
1933.00,0.0051
1932.00,0.0051
1931.00,0.0050
1930.00,0.0049
1929.00,0.0049
1928.00,0.0048
1927.00,0.0048
1926.00,0.0049
1925.00,0.0049
1924.00,0.0050
1923.00,0.0051
1922.00,0.0051
1921.00,0.0051
1920.00,0.0051
1919.00,0.0051
1918.00,0.0051
1917.00,0.0052
1916.00,0.0052
1915.00,0.0052
1914.00,0.0052
1913.00,0.0051
1912.00,0.0051
1911.00,0.0051
1910.00,0.0051
1909.00,0.0051
1908.00,0.0051
1907.00,0.0051
1906.00,0.0051
1905.00,0.0051
1904.00,0.0051
1903.00,0.0051
1902.00,0.0051
1901.00,0.0051
1900.00,0.0050
1899.00,0.0050
1898.00,0.0050
1897.00,0.0050
1896.00,0.0051
1895.00,0.0051
1894.00,0.0051
1893.00,0.0051
1892.00,0.0051
1891.00,0.0052
1890.00,0.0051
1889.00,0.0051
1888.00,0.0051
1887.00,0.0051
1886.00,0.0050
1885.00,0.0049
1884.00,0.0049
1883.00,0.0049
1882.00,0.0049
1881.00,0.0050
1880.00,0.0050
1879.00,0.0050
1878.00,0.0050
1877.00,0.0050
1876.00,0.0050
1875.00,0.0050
1874.00,0.0050
1873.00,0.0050
1872.00,0.0050
1871.00,0.0049
1870.00,0.0049
1869.00,0.0048
1868.00,0.0049
1867.00,0.0049
1866.00,0.0049
1865.00,0.0050
1864.00,0.0050
1863.00,0.0049
1862.00,0.0049
1861.00,0.0049
1860.00,0.0049
1859.00,0.0049
1858.00,0.0048
1857.00,0.0048
1856.00,0.0049
1855.00,0.0049
1854.00,0.0049
1853.00,0.0049
1852.00,0.0049
1851.00,0.0048
1850.00,0.0048
1849.00,0.0048
1848.00,0.0047
1847.00,0.0047
1846.00,0.0047
1845.00,0.0047
1844.00,0.0048
1843.00,0.0049
1842.00,0.0049
1841.00,0.0049
1840.00,0.0049
1839.00,0.0048
1838.00,0.0048
1837.00,0.0048
1836.00,0.0048
1835.00,0.0048
1834.00,0.0048
1833.00,0.0047
1832.00,0.0048
1831.00,0.0048
1830.00,0.0048
1829.00,0.0047
1828.00,0.0047
1827.00,0.0047
1826.00,0.0047
1825.00,0.0048
1824.00,0.0048
1823.00,0.0048
1822.00,0.0048
1821.00,0.0047
1820.00,0.0047
1819.00,0.0046
1818.00,0.0046
1817.00,0.0045
1816.00,0.0046
1815.00,0.0046
1814.00,0.0046
1813.00,0.0046
1812.00,0.0046
1811.00,0.0046
1810.00,0.0046
1809.00,0.0047
1808.00,0.0047
1807.00,0.0047
1806.00,0.0047
1805.00,0.0047
1804.00,0.0047
1803.00,0.0046
1802.00,0.0046
1801.00,0.0046
1800.00,0.0047
1799.00,0.0047
1798.00,0.0047
1797.00,0.0047
1796.00,0.0047
1795.00,0.0046
1794.00,0.0046
1793.00,0.0046
1792.00,0.0047
1791.00,0.0047
1790.00,0.0047
1789.00,0.0047
1788.00,0.0047
1787.00,0.0047
1786.00,0.0047
1785.00,0.0047
1784.00,0.0047
1783.00,0.0047
1782.00,0.0046
1781.00,0.0046
1780.00,0.0046
1779.00,0.0046
1778.00,0.0046
1777.00,0.0045
1776.00,0.0045
1775.00,0.0044
1774.00,0.0044
1773.00,0.0044
1772.00,0.0045
1771.00,0.0045
1770.00,0.0045
1769.00,0.0045
1768.00,0.0045
1767.00,0.0045
1766.00,0.0045
1765.00,0.0045
1764.00,0.0044
1763.00,0.0044
1762.00,0.0045
1761.00,0.0045
1760.00,0.0045
1759.00,0.0044
1758.00,0.0044
1757.00,0.0044
1756.00,0.0044
1755.00,0.0044
1754.00,0.0043
1753.00,0.0043
1752.00,0.0043
1751.00,0.0043
1750.00,0.0042
1749.00,0.0042
1748.00,0.0042
1747.00,0.0042
1746.00,0.0041
1745.00,0.0040
1744.00,0.0040
1743.00,0.0040
1742.00,0.0040
1741.00,0.0040
1740.00,0.0041
1739.00,0.0041
1738.00,0.0041
1737.00,0.0040
1736.00,0.0041
1735.00,0.0041
1734.00,0.0042
1733.00,0.0042
1732.00,0.0043
1731.00,0.0043
1730.00,0.0044
1729.00,0.0044
1728.00,0.0045
1727.00,0.0045
1726.00,0.0046
1725.00,0.0046
1724.00,0.0047
1723.00,0.0048
1722.00,0.0049
1721.00,0.0049
1720.00,0.0050
1719.00,0.0051
1718.00,0.0052
1717.00,0.0054
1716.00,0.0057
1715.00,0.0060
1714.00,0.0063
1713.00,0.0066
1712.00,0.0069
1711.00,0.0072
1710.00,0.0077
1709.00,0.0082
1708.00,0.0089
1707.00,0.0097
1706.00,0.0108
1705.00,0.0121
1704.00,0.0134
1703.00,0.0147
1702.00,0.0160
1701.00,0.0174
1700.00,0.0185
1699.00,0.0191
1698.00,0.0192
1697.00,0.0192
1696.00,0.0192
1695.00,0.0192
1694.00,0.0192
1693.00,0.0192
1692.00,0.0194
1691.00,0.0196
1690.00,0.0199
1689.00,0.0203
1688.00,0.0206
1687.00,0.0210
1686.00,0.0216
1685.00,0.0223
1684.00,0.0232
1683.00,0.0241
1682.00,0.0249
1681.00,0.0258
1680.00,0.0268
1679.00,0.0278
1678.00,0.0288
1677.00,0.0300
1676.00,0.0313
1675.00,0.0327
1674.00,0.0339
1673.00,0.0350
1672.00,0.0363
1671.00,0.0377
1670.00,0.0392
1669.00,0.0406
1668.00,0.0421
1667.00,0.0434
1666.00,0.0447
1665.00,0.0461
1664.00,0.0477
1663.00,0.0493
1662.00,0.0508
1661.00,0.0523
1660.00,0.0538
1659.00,0.0553
1658.00,0.0568
1657.00,0.0582
1656.00,0.0595
1655.00,0.0609
1654.00,0.0624
1653.00,0.0639
1652.00,0.0653
1651.00,0.0665
1650.00,0.0676
1649.00,0.0687
1648.00,0.0700
1647.00,0.0713
1646.00,0.0725
1645.00,0.0736
1644.00,0.0747
1643.00,0.0758
1642.00,0.0769
1641.00,0.0781
1640.00,0.0792
1639.00,0.0804
1638.00,0.0815
1637.00,0.0827
1636.00,0.0840
1635.00,0.0853
1634.00,0.0865
1633.00,0.0875
1632.00,0.0886
1631.00,0.0896
1630.00,0.0906
1629.00,0.0914
1628.00,0.0921
1627.00,0.0926
1626.00,0.0928
1625.00,0.0927
1624.00,0.0921
1623.00,0.0911
1622.00,0.0895
1621.00,0.0877
1620.00,0.0857
1619.00,0.0834
1618.00,0.0806
1617.00,0.0772
1616.00,0.0736
1615.00,0.0705
1614.00,0.0678
1613.00,0.0653
1612.00,0.0627
1611.00,0.0601
1610.00,0.0574
1609.00,0.0546
1608.00,0.0520
1607.00,0.0494
1606.00,0.0471
1605.00,0.0448
1604.00,0.0428
1603.00,0.0409
1602.00,0.0392
1601.00,0.0377
1600.00,0.0363
1599.00,0.0351
1598.00,0.0340
1597.00,0.0331
1596.00,0.0322
1595.00,0.0314
1594.00,0.0306
1593.00,0.0300
1592.00,0.0293
1591.00,0.0287
1590.00,0.0282
1589.00,0.0278
1588.00,0.0273
1587.00,0.0270
1586.00,0.0267
1585.00,0.0264
1584.00,0.0262
1583.00,0.0261
1582.00,0.0260
1581.00,0.0259
1580.00,0.0258
1579.00,0.0257
1578.00,0.0256
1577.00,0.0257
1576.00,0.0259
1575.00,0.0261
1574.00,0.0263
1573.00,0.0264
1572.00,0.0267
1571.00,0.0270
1570.00,0.0273
1569.00,0.0278
1568.00,0.0282
1567.00,0.0286
1566.00,0.0290
1565.00,0.0295
1564.00,0.0300
1563.00,0.0304
1562.00,0.0308
1561.00,0.0313
1560.00,0.0319
1559.00,0.0326
1558.00,0.0333
1557.00,0.0339
1556.00,0.0344
1555.00,0.0349
1554.00,0.0355
1553.00,0.0361
1552.00,0.0366
1551.00,0.0371
1550.00,0.0377
1549.00,0.0383
1548.00,0.0389
1547.00,0.0395
1546.00,0.0401
1545.00,0.0407
1544.00,0.0413
1543.00,0.0418
1542.00,0.0424
1541.00,0.0430
1540.00,0.0437
1539.00,0.0444
1538.00,0.0450
1537.00,0.0456
1536.00,0.0462
1535.00,0.0468
1534.00,0.0475
1533.00,0.0482
1532.00,0.0488
1531.00,0.0494
1530.00,0.0500
1529.00,0.0506
1528.00,0.0511
1527.00,0.0516
1526.00,0.0521
1525.00,0.0525
1524.00,0.0529
1523.00,0.0532
1522.00,0.0537
1521.00,0.0541
1520.00,0.0547
1519.00,0.0553
1518.00,0.0560
1517.00,0.0566
1516.00,0.0570
1515.00,0.0571
1514.00,0.0568
1513.00,0.0561
1512.00,0.0549
1511.00,0.0534
1510.00,0.0517
1509.00,0.0500
1508.00,0.0482
1507.00,0.0460
1506.00,0.0440
1505.00,0.0423
1504.00,0.0409
1503.00,0.0397
1502.00,0.0385
1501.00,0.0373
1500.00,0.0361
1499.00,0.0349
1498.00,0.0338
1497.00,0.0327
1496.00,0.0317
1495.00,0.0308
1494.00,0.0301
1493.00,0.0295
1492.00,0.0291
1491.00,0.0287
1490.00,0.0283
1489.00,0.0280
1488.00,0.0279
1487.00,0.0280
1486.00,0.0281
1485.00,0.0283
1484.00,0.0286
1483.00,0.0290
1482.00,0.0295
1481.00,0.0301
1480.00,0.0308
1479.00,0.0315
1478.00,0.0323
1477.00,0.0332
1476.00,0.0340
1475.00,0.0349
1474.00,0.0359
1473.00,0.0369
1472.00,0.0380
1471.00,0.0389
1470.00,0.0396
1469.00,0.0403
1468.00,0.0409
1467.00,0.0415
1466.00,0.0420
1465.00,0.0425
1464.00,0.0430
1463.00,0.0434
1462.00,0.0438
1461.00,0.0443
1460.00,0.0448
1459.00,0.0453
1458.00,0.0460
1457.00,0.0469
1456.00,0.0477
1455.00,0.0485
1454.00,0.0492
1453.00,0.0499
1452.00,0.0505
1451.00,0.0511
1450.00,0.0516
1449.00,0.0519
1448.00,0.0521
1447.00,0.0522
1446.00,0.0522
1445.00,0.0521
1444.00,0.0520
1443.00,0.0517
1442.00,0.0514
1441.00,0.0511
1440.00,0.0506
1439.00,0.0500
1438.00,0.0493
1437.00,0.0484
1436.00,0.0473
1435.00,0.0462
1434.00,0.0451
1433.00,0.0442
1432.00,0.0432
1431.00,0.0422
1430.00,0.0411
1429.00,0.0402
1428.00,0.0393
1427.00,0.0384
1426.00,0.0377
1425.00,0.0370
1424.00,0.0363
1423.00,0.0358
1422.00,0.0354
1421.00,0.0351
1420.00,0.0350
1419.00,0.0348
1418.00,0.0348
1417.00,0.0348
1416.00,0.0349
1415.00,0.0350
1414.00,0.0351
1413.00,0.0352
1412.00,0.0353
1411.00,0.0353
1410.00,0.0354
1409.00,0.0355
1408.00,0.0355
1407.00,0.0355
1406.00,0.0354
1405.00,0.0353
1404.00,0.0351
1403.00,0.0348
1402.00,0.0346
1401.00,0.0343
1400.00,0.0339
1399.00,0.0335
1398.00,0.0331
1397.00,0.0326
1396.00,0.0322
1395.00,0.0317
1394.00,0.0313
1393.00,0.0309
1392.00,0.0305
1391.00,0.0302
1390.00,0.0298
1389.00,0.0295
1388.00,0.0291
1387.00,0.0288
1386.00,0.0285
1385.00,0.0283
1384.00,0.0281
1383.00,0.0279
1382.00,0.0278
1381.00,0.0277
1380.00,0.0275
1379.00,0.0274
1378.00,0.0272
1377.00,0.0271
1376.00,0.0270
1375.00,0.0269
1374.00,0.0268
1373.00,0.0268
1372.00,0.0268
1371.00,0.0268
1370.00,0.0268
1369.00,0.0267
1368.00,0.0266
1367.00,0.0265
1366.00,0.0263
1365.00,0.0261
1364.00,0.0258
1363.00,0.0256
1362.00,0.0254
1361.00,0.0253
1360.00,0.0252
1359.00,0.0251
1358.00,0.0251
1357.00,0.0250
1356.00,0.0251
1355.00,0.0251
1354.00,0.0251
1353.00,0.0252
1352.00,0.0253
1351.00,0.0254
1350.00,0.0254
1349.00,0.0255
1348.00,0.0256
1347.00,0.0257
1346.00,0.0258
1345.00,0.0259
1344.00,0.0260
1343.00,0.0261
1342.00,0.0262
1341.00,0.0263
1340.00,0.0264
1339.00,0.0265
1338.00,0.0266
1337.00,0.0267
1336.00,0.0267
1335.00,0.0267
1334.00,0.0267
1333.00,0.0266
1332.00,0.0265
1331.00,0.0263
1330.00,0.0261
1329.00,0.0259
1328.00,0.0256
1327.00,0.0254
1326.00,0.0251
1325.00,0.0248
1324.00,0.0244
1323.00,0.0241
1322.00,0.0238
1321.00,0.0236
1320.00,0.0233
1319.00,0.0230
1318.00,0.0228
1317.00,0.0226
1316.00,0.0224
1315.00,0.0222
1314.00,0.0221
1313.00,0.0220
1312.00,0.0218
1311.00,0.0217
1310.00,0.0215
1309.00,0.0214
1308.00,0.0213
1307.00,0.0212
1306.00,0.0210
1305.00,0.0209
1304.00,0.0208
1303.00,0.0206
1302.00,0.0205
1301.00,0.0203
1300.00,0.0202
1299.00,0.0200
1298.00,0.0198
1297.00,0.0196
1296.00,0.0193
1295.00,0.0191
1294.00,0.0189
1293.00,0.0186
1292.00,0.0184
1291.00,0.0183
1290.00,0.0181
1289.00,0.0181
1288.00,0.0181
1287.00,0.0181
1286.00,0.0182
1285.00,0.0184
1284.00,0.0186
1283.00,0.0189
1282.00,0.0191
1281.00,0.0194
1280.00,0.0197
1279.00,0.0200
1278.00,0.0203
1277.00,0.0207
1276.00,0.0210
1275.00,0.0215
1274.00,0.0220
1273.00,0.0225
1272.00,0.0231
1271.00,0.0237
1270.00,0.0243
1269.00,0.0249
1268.00,0.0255
1267.00,0.0261
1266.00,0.0267
1265.00,0.0271
1264.00,0.0275
1263.00,0.0278
1262.00,0.0280
1261.00,0.0281
1260.00,0.0282
1259.00,0.0282
1258.00,0.0282
1257.00,0.0282
1256.00,0.0281
1255.00,0.0279
1254.00,0.0278
1253.00,0.0276
1252.00,0.0274
1251.00,0.0273
1250.00,0.0271
1249.00,0.0270
1248.00,0.0268
1247.00,0.0267
1246.00,0.0266
1245.00,0.0266
1244.00,0.0265
1243.00,0.0265
1242.00,0.0265
1241.00,0.0266
1240.00,0.0267
1239.00,0.0268
1238.00,0.0269
1237.00,0.0271
1236.00,0.0273
1235.00,0.0275
1234.00,0.0277
1233.00,0.0278
1232.00,0.0279
1231.00,0.0279
1230.00,0.0279
1229.00,0.0277
1228.00,0.0275
1227.00,0.0273
1226.00,0.0270
1225.00,0.0267
1224.00,0.0263
1223.00,0.0260
1222.00,0.0256
1221.00,0.0252
1220.00,0.0248
1219.00,0.0244
1218.00,0.0240
1217.00,0.0235
1216.00,0.0231
1215.00,0.0227
1214.00,0.0223
1213.00,0.0218
1212.00,0.0214
1211.00,0.0210
1210.00,0.0205
1209.00,0.0201
1208.00,0.0196
1207.00,0.0192
1206.00,0.0189
1205.00,0.0185
1204.00,0.0182
1203.00,0.0178
1202.00,0.0175
1201.00,0.0173
1200.00,0.0170
1199.00,0.0168
1198.00,0.0166
1197.00,0.0164
1196.00,0.0162
1195.00,0.0161
1194.00,0.0160
1193.00,0.0159
1192.00,0.0158
1191.00,0.0157
1190.00,0.0157
1189.00,0.0157
1188.00,0.0157
1187.00,0.0157
1186.00,0.0158
1185.00,0.0159
1184.00,0.0160
1183.00,0.0161
1182.00,0.0163
1181.00,0.0165
1180.00,0.0168
1179.00,0.0171
1178.00,0.0175
1177.00,0.0179
1176.00,0.0183
1175.00,0.0187
1174.00,0.0191
1173.00,0.0194
1172.00,0.0197
1171.00,0.0199
1170.00,0.0200
1169.00,0.0201
1168.00,0.0201
1167.00,0.0201
1166.00,0.0201
1165.00,0.0201
1164.00,0.0200
1163.00,0.0199
1162.00,0.0198
1161.00,0.0197
1160.00,0.0195
1159.00,0.0193
1158.00,0.0191
1157.00,0.0188
1156.00,0.0185
1155.00,0.0183
1154.00,0.0180
1153.00,0.0178
1152.00,0.0176
1151.00,0.0173
1150.00,0.0171
1149.00,0.0168
1148.00,0.0166
1147.00,0.0164
1146.00,0.0162
1145.00,0.0160
1144.00,0.0159
1143.00,0.0158
1142.00,0.0157
1141.00,0.0156
1140.00,0.0156
1139.00,0.0156
1138.00,0.0155
1137.00,0.0155
1136.00,0.0155
1135.00,0.0154
1134.00,0.0154
1133.00,0.0154
1132.00,0.0154
1131.00,0.0154
1130.00,0.0154
1129.00,0.0154
1128.00,0.0154
1127.00,0.0154
1126.00,0.0154
1125.00,0.0154
1124.00,0.0154
1123.00,0.0155
1122.00,0.0155
1121.00,0.0155
1120.00,0.0155
1119.00,0.0155
1118.00,0.0155
1117.00,0.0155
1116.00,0.0156
1115.00,0.0157
1114.00,0.0158
1113.00,0.0158
1112.00,0.0159
1111.00,0.0160
1110.00,0.0160
1109.00,0.0161
1108.00,0.0161
1107.00,0.0162
1106.00,0.0162
1105.00,0.0163
1104.00,0.0163
1103.00,0.0163
1102.00,0.0163
1101.00,0.0163
1100.00,0.0162
1099.00,0.0161
1098.00,0.0160
1097.00,0.0160
1096.00,0.0160
1095.00,0.0161
1094.00,0.0161
1093.00,0.0162
1092.00,0.0163
1091.00,0.0164
1090.00,0.0165
1089.00,0.0166
1088.00,0.0167
1087.00,0.0168
1086.00,0.0169
1085.00,0.0170
1084.00,0.0171
1083.00,0.0172
1082.00,0.0174
1081.00,0.0175
1080.00,0.0176
1079.00,0.0177
1078.00,0.0178
1077.00,0.0179
1076.00,0.0180
1075.00,0.0181
1074.00,0.0182
1073.00,0.0183
1072.00,0.0185
1071.00,0.0186
1070.00,0.0187
1069.00,0.0189
1068.00,0.0191
1067.00,0.0192
1066.00,0.0194
1065.00,0.0195
1064.00,0.0196
1063.00,0.0197
1062.00,0.0198
1061.00,0.0199
1060.00,0.0199
1059.00,0.0199
1058.00,0.0199
1057.00,0.0199
1056.00,0.0199
1055.00,0.0199
1054.00,0.0199
1053.00,0.0199
1052.00,0.0199
1051.00,0.0199
1050.00,0.0199
1049.00,0.0199
1048.00,0.0199
1047.00,0.0198
1046.00,0.0198
1045.00,0.0198
1044.00,0.0197
1043.00,0.0196
1042.00,0.0195
1041.00,0.0194
1040.00,0.0192
1039.00,0.0191
1038.00,0.0190
1037.00,0.0189
1036.00,0.0187
1035.00,0.0186
1034.00,0.0184
1033.00,0.0182
1032.00,0.0181
1031.00,0.0180
1030.00,0.0179
1029.00,0.0178
1028.00,0.0177
1027.00,0.0176
1026.00,0.0175
1025.00,0.0174
1024.00,0.0174
1023.00,0.0173
1022.00,0.0173
1021.00,0.0173
1020.00,0.0174
1019.00,0.0174
1018.00,0.0174
1017.00,0.0174
1016.00,0.0175
1015.00,0.0175
1014.00,0.0176
1013.00,0.0176
1012.00,0.0177
1011.00,0.0177
1010.00,0.0178
1009.00,0.0179
1008.00,0.0180
1007.00,0.0182
1006.00,0.0184
1005.00,0.0186
1004.00,0.0188
1003.00,0.0190
1002.00,0.0193
1001.00,0.0194
1000.00,0.0195
999.00,0.0195
998.00,0.0195
997.00,0.0194
996.00,0.0193
995.00,0.0191
994.00,0.0188
993.00,0.0186
992.00,0.0183
991.00,0.0181
990.00,0.0179
989.00,0.0178
988.00,0.0177
987.00,0.0176
986.00,0.0176
985.00,0.0176
984.00,0.0177
983.00,0.0177
982.00,0.0178
981.00,0.0179
980.00,0.0181
979.00,0.0182
978.00,0.0183
977.00,0.0184
976.00,0.0184
975.00,0.0184
974.00,0.0183
973.00,0.0181
972.00,0.0180
971.00,0.0179
970.00,0.0177
969.00,0.0175
968.00,0.0173
967.00,0.0171
966.00,0.0170
965.00,0.0169
964.00,0.0168
963.00,0.0168
962.00,0.0167
961.00,0.0167
960.00,0.0166
959.00,0.0166
958.00,0.0165
957.00,0.0165
956.00,0.0164
955.00,0.0164
954.00,0.0164
953.00,0.0163
952.00,0.0163
951.00,0.0162
950.00,0.0161
949.00,0.0160
948.00,0.0159
947.00,0.0159
946.00,0.0158
945.00,0.0158
944.00,0.0158
943.00,0.0157
942.00,0.0157
941.00,0.0156
940.00,0.0156
939.00,0.0156
938.00,0.0155
937.00,0.0155
936.00,0.0155
935.00,0.0155
934.00,0.0155
933.00,0.0154
932.00,0.0154
931.00,0.0154
930.00,0.0153
929.00,0.0152
928.00,0.0151
927.00,0.0150
926.00,0.0149
925.00,0.0148
924.00,0.0147
923.00,0.0145
922.00,0.0143
921.00,0.0141
920.00,0.0140
919.00,0.0138
918.00,0.0137
917.00,0.0135
916.00,0.0134
915.00,0.0133
914.00,0.0132
913.00,0.0131
912.00,0.0130
911.00,0.0129
910.00,0.0128
909.00,0.0127
908.00,0.0126
907.00,0.0125
906.00,0.0124
905.00,0.0123
904.00,0.0122
903.00,0.0122
902.00,0.0121
901.00,0.0121
900.00,0.0120
899.00,0.0120
898.00,0.0120
897.00,0.0120
896.00,0.0121
895.00,0.0121
894.00,0.0120
893.00,0.0120
892.00,0.0119
891.00,0.0118
890.00,0.0118
889.00,0.0118
888.00,0.0118
887.00,0.0118
886.00,0.0118
885.00,0.0118
884.00,0.0118
883.00,0.0118
882.00,0.0118
881.00,0.0118
880.00,0.0117
879.00,0.0117
878.00,0.0117
877.00,0.0117
876.00,0.0117
875.00,0.0116
874.00,0.0116
873.00,0.0116
872.00,0.0116
871.00,0.0116
870.00,0.0115
869.00,0.0115
868.00,0.0115
867.00,0.0115
866.00,0.0115
865.00,0.0115
864.00,0.0116
863.00,0.0116
862.00,0.0117
861.00,0.0118
860.00,0.0119
859.00,0.0121
858.00,0.0122
857.00,0.0123
856.00,0.0125
855.00,0.0126
854.00,0.0127
853.00,0.0129
852.00,0.0130
851.00,0.0131
850.00,0.0131
849.00,0.0131
848.00,0.0131
847.00,0.0130
846.00,0.0130
845.00,0.0130
844.00,0.0130
843.00,0.0131
842.00,0.0131
841.00,0.0131
840.00,0.0131
839.00,0.0132
838.00,0.0133
837.00,0.0134
836.00,0.0135
835.00,0.0136
834.00,0.0137
833.00,0.0138
832.00,0.0140
831.00,0.0141
830.00,0.0142
829.00,0.0143
828.00,0.0144
827.00,0.0144
826.00,0.0143
825.00,0.0142
824.00,0.0141
823.00,0.0139
822.00,0.0138
821.00,0.0137
820.00,0.0136
819.00,0.0135
818.00,0.0135
817.00,0.0134
816.00,0.0134
815.00,0.0133
814.00,0.0133
813.00,0.0133
812.00,0.0133
811.00,0.0134
810.00,0.0135
809.00,0.0135
808.00,0.0135
807.00,0.0135
806.00,0.0135
805.00,0.0136
804.00,0.0137
803.00,0.0137
802.00,0.0138
801.00,0.0138
800.00,0.0138
799.00,0.0139
798.00,0.0139
797.00,0.0140
796.00,0.0140
795.00,0.0141
794.00,0.0142
793.00,0.0142
792.00,0.0144
791.00,0.0145
790.00,0.0146
789.00,0.0148
788.00,0.0150
787.00,0.0151
786.00,0.0153
785.00,0.0154
784.00,0.0156
783.00,0.0157
782.00,0.0159
781.00,0.0161
780.00,0.0163
779.00,0.0164
778.00,0.0166
777.00,0.0168
776.00,0.0170
775.00,0.0172
774.00,0.0173
773.00,0.0175
772.00,0.0176
771.00,0.0178
770.00,0.0180
769.00,0.0182
768.00,0.0183
767.00,0.0184
766.00,0.0185
765.00,0.0186
764.00,0.0187
763.00,0.0187
762.00,0.0188
761.00,0.0189
760.00,0.0190
759.00,0.0190
758.00,0.0191
757.00,0.0192
756.00,0.0194
755.00,0.0195
754.00,0.0197
753.00,0.0199
752.00,0.0200
751.00,0.0202
750.00,0.0204
749.00,0.0206
748.00,0.0208
747.00,0.0211
746.00,0.0213
745.00,0.0216
744.00,0.0219
743.00,0.0221
742.00,0.0224
741.00,0.0227
740.00,0.0229
739.00,0.0232
738.00,0.0235
737.00,0.0237
736.00,0.0240
735.00,0.0243
734.00,0.0247
733.00,0.0250
732.00,0.0254
731.00,0.0258
730.00,0.0262
729.00,0.0266
728.00,0.0269
727.00,0.0273
726.00,0.0276
725.00,0.0280
724.00,0.0283
723.00,0.0287
722.00,0.0291
721.00,0.0294
720.00,0.0297
719.00,0.0300
718.00,0.0302
717.00,0.0303
716.00,0.0305
715.00,0.0306
714.00,0.0308
713.00,0.0311
712.00,0.0313
711.00,0.0316
710.00,0.0318
709.00,0.0320
708.00,0.0322
707.00,0.0325
706.00,0.0328
705.00,0.0330
704.00,0.0332
703.00,0.0334
702.00,0.0336
701.00,0.0337
700.00,0.0339
699.00,0.0340
698.00,0.0340
697.00,0.0341
696.00,0.0342
695.00,0.0342
694.00,0.0343
693.00,0.0343
692.00,0.0343
691.00,0.0343
690.00,0.0343
689.00,0.0342
688.00,0.0342
687.00,0.0342
686.00,0.0341
685.00,0.0341
684.00,0.0341
683.00,0.0341
682.00,0.0341
681.00,0.0341
680.00,0.0340
679.00,0.0340
678.00,0.0339
677.00,0.0339
676.00,0.0340
675.00,0.0340
674.00,0.0340
673.00,0.0339
672.00,0.0339
671.00,0.0339
670.00,0.0339
669.00,0.0340
668.00,0.0341
667.00,0.0343
666.00,0.0343
665.00,0.0343
664.00,0.0343
663.00,0.0344
662.00,0.0344
661.00,0.0344
660.00,0.0345
659.00,0.0346
658.00,0.0347
657.00,0.0348
656.00,0.0348
655.00,0.0349
654.00,0.0349
653.00,0.0350
652.00,0.0351
651.00,0.0352
650.00,0.0353
649.00,0.0354
648.00,0.0355
647.00,0.0356
646.00,0.0356
645.00,0.0356
644.00,0.0357
643.00,0.0357
642.00,0.0357
641.00,0.0357
640.00,0.0357
639.00,0.0356
638.00,0.0355
637.00,0.0355
636.00,0.0354
635.00,0.0354
634.00,0.0353
633.00,0.0353
632.00,0.0353
631.00,0.0352
630.00,0.0351
629.00,0.0350
628.00,0.0349
627.00,0.0349
626.00,0.0349
625.00,0.0349
624.00,0.0349
623.00,0.0351
622.00,0.0353
621.00,0.0356
620.00,0.0359
619.00,0.0361
618.00,0.0364
617.00,0.0366
616.00,0.0369
615.00,0.0371
614.00,0.0372
613.00,0.0373
612.00,0.0372
611.00,0.0370
610.00,0.0368
609.00,0.0364
608.00,0.0360
607.00,0.0356
606.00,0.0352
605.00,0.0348
604.00,0.0345
603.00,0.0341
602.00,0.0338
601.00,0.0335
600.00,0.0333
599.00,0.0331
598.00,0.0329
597.00,0.0328
596.00,0.0327
595.00,0.0327
594.00,0.0326
593.00,0.0325
592.00,0.0325
591.00,0.0324
590.00,0.0324
589.00,0.0325
588.00,0.0325
587.00,0.0325
586.00,0.0325
585.00,0.0326
584.00,0.0327
583.00,0.0328
582.00,0.0328
581.00,0.0329
580.00,0.0330
579.00,0.0332
578.00,0.0333
577.00,0.0334
576.00,0.0335
575.00,0.0337
574.00,0.0340
573.00,0.0342
572.00,0.0345
571.00,0.0347
570.00,0.0349
569.00,0.0352
568.00,0.0356
567.00,0.0361
566.00,0.0365
565.00,0.0370
564.00,0.0376
563.00,0.0382
562.00,0.0388
561.00,0.0395
560.00,0.0402
559.00,0.0410
558.00,0.0416
557.00,0.0421
556.00,0.0425
555.00,0.0430
554.00,0.0433
553.00,0.0435
552.00,0.0435
551.00,0.0435
550.00,0.0434
549.00,0.0433
548.00,0.0432
547.00,0.0430
546.00,0.0428
545.00,0.0426
544.00,0.0424
543.00,0.0423
542.00,0.0421
541.00,0.0419
540.00,0.0418
539.00,0.0417
538.00,0.0415
537.00,0.0413
536.00,0.0413
535.00,0.0412
534.00,0.0411
533.00,0.0410
532.00,0.0410
531.00,0.0410
530.00,0.0409
529.00,0.0407
528.00,0.0407
527.00,0.0407
526.00,0.0407
525.00,0.0407
524.00,0.0407
523.00,0.0408
522.00,0.0409
521.00,0.0410
520.00,0.0411
519.00,0.0411
518.00,0.0411
517.00,0.0411
516.00,0.0411
515.00,0.0410
514.00,0.0409
513.00,0.0408
512.00,0.0408
511.00,0.0409
510.00,0.0408
509.00,0.0408
508.00,0.0408
507.00,0.0408
506.00,0.0408
505.00,0.0407
504.00,0.0408
503.00,0.0408
502.00,0.0408
501.00,0.0408
500.00,0.0409
499.00,0.0408
498.00,0.0407
497.00,0.0406
496.00,0.0407
495.00,0.0408
494.00,0.0410
493.00,0.0410
492.00,0.0411
491.00,0.0411
490.00,0.0411
489.00,0.0411
488.00,0.0412
487.00,0.0412
486.00,0.0412
485.00,0.0411
484.00,0.0410
483.00,0.0410
482.00,0.0410
481.00,0.0410
480.00,0.0411
479.00,0.0410
478.00,0.0408
477.00,0.0406
476.00,0.0406
475.00,0.0407
474.00,0.0407
473.00,0.0408
472.00,0.0409
471.00,0.0410
470.00,0.0410
469.00,0.0408
468.00,0.0406
467.00,0.0405
466.00,0.0405
465.00,0.0406
464.00,0.0408
463.00,0.0409
462.00,0.0408
461.00,0.0406
460.00,0.0407
459.00,0.0408
458.00,0.0408
457.00,0.0408
456.00,0.0407
455.00,0.0405
454.00,0.0404
453.00,0.0403
452.00,0.0405
451.00,0.0406
450.00,0.0406
449.00,0.0406
448.00,0.0408
447.00,0.0411
446.00,0.0414
445.00,0.0415
444.00,0.0417
443.00,0.0419
442.00,0.0419
441.00,0.0419
440.00,0.0419
439.00,0.0419
438.00,0.0417
437.00,0.0417
436.00,0.0419
435.00,0.0422
434.00,0.0427
433.00,0.0433
432.00,0.0441
431.00,0.0450
430.00,0.0457
429.00,0.0462
428.00,0.0466
427.00,0.0468
426.00,0.0469
425.00,0.0469
424.00,0.0470
423.00,0.0468
422.00,0.0465
421.00,0.0461
420.00,0.0457
419.00,0.0453
418.00,0.0449
417.00,0.0447
416.00,0.0449
415.00,0.0449
414.00,0.0445
413.00,0.0439
412.00,0.0434
411.00,0.0430
410.00,0.0425
409.00,0.0421
408.00,0.0419
407.00,0.0417
406.00,0.0416
405.00,0.0416
404.00,0.0417
403.00,0.0414
402.00,0.0407
401.00,0.0402
400.00,0.0402
