Created as New Dataset,Sample 572 By YargerLab Date Sunday, March 08 2026
cm-1,A
4000.00,0.0057
3999.00,0.0057
3998.00,0.0057
3997.00,0.0057
3996.00,0.0057
3995.00,0.0057
3994.00,0.0057
3993.00,0.0057
3992.00,0.0057
3991.00,0.0057
3990.00,0.0057
3989.00,0.0057
3988.00,0.0057
3987.00,0.0057
3986.00,0.0057
3985.00,0.0057
3984.00,0.0057
3983.00,0.0057
3982.00,0.0057
3981.00,0.0057
3980.00,0.0057
3979.00,0.0057
3978.00,0.0057
3977.00,0.0057
3976.00,0.0057
3975.00,0.0057
3974.00,0.0057
3973.00,0.0057
3972.00,0.0057
3971.00,0.0056
3970.00,0.0056
3969.00,0.0056
3968.00,0.0056
3967.00,0.0056
3966.00,0.0056
3965.00,0.0056
3964.00,0.0056
3963.00,0.0056
3962.00,0.0056
3961.00,0.0056
3960.00,0.0056
3959.00,0.0056
3958.00,0.0056
3957.00,0.0056
3956.00,0.0056
3955.00,0.0056
3954.00,0.0056
3953.00,0.0056
3952.00,0.0056
3951.00,0.0056
3950.00,0.0056
3949.00,0.0056
3948.00,0.0056
3947.00,0.0056
3946.00,0.0056
3945.00,0.0056
3944.00,0.0056
3943.00,0.0056
3942.00,0.0056
3941.00,0.0056
3940.00,0.0056
3939.00,0.0056
3938.00,0.0056
3937.00,0.0056
3936.00,0.0056
3935.00,0.0056
3934.00,0.0056
3933.00,0.0057
3932.00,0.0057
3931.00,0.0056
3930.00,0.0056
3929.00,0.0056
3928.00,0.0056
3927.00,0.0056
3926.00,0.0056
3925.00,0.0056
3924.00,0.0056
3923.00,0.0057
3922.00,0.0057
3921.00,0.0057
3920.00,0.0057
3919.00,0.0057
3918.00,0.0057
3917.00,0.0057
3916.00,0.0057
3915.00,0.0057
3914.00,0.0057
3913.00,0.0057
3912.00,0.0057
3911.00,0.0057
3910.00,0.0057
3909.00,0.0057
3908.00,0.0057
3907.00,0.0057
3906.00,0.0057
3905.00,0.0058
3904.00,0.0058
3903.00,0.0058
3902.00,0.0058
3901.00,0.0058
3900.00,0.0058
3899.00,0.0058
3898.00,0.0058
3897.00,0.0058
3896.00,0.0058
3895.00,0.0058
3894.00,0.0058
3893.00,0.0058
3892.00,0.0058
3891.00,0.0058
3890.00,0.0058
3889.00,0.0059
3888.00,0.0059
3887.00,0.0059
3886.00,0.0059
3885.00,0.0059
3884.00,0.0059
3883.00,0.0059
3882.00,0.0060
3881.00,0.0060
3880.00,0.0060
3879.00,0.0060
3878.00,0.0060
3877.00,0.0060
3876.00,0.0060
3875.00,0.0060
3874.00,0.0060
3873.00,0.0060
3872.00,0.0060
3871.00,0.0060
3870.00,0.0060
3869.00,0.0060
3868.00,0.0060
3867.00,0.0060
3866.00,0.0061
3865.00,0.0061
3864.00,0.0061
3863.00,0.0061
3862.00,0.0061
3861.00,0.0061
3860.00,0.0061
3859.00,0.0061
3858.00,0.0061
3857.00,0.0060
3856.00,0.0061
3855.00,0.0061
3854.00,0.0061
3853.00,0.0061
3852.00,0.0061
3851.00,0.0061
3850.00,0.0061
3849.00,0.0061
3848.00,0.0061
3847.00,0.0061
3846.00,0.0061
3845.00,0.0061
3844.00,0.0061
3843.00,0.0061
3842.00,0.0061
3841.00,0.0061
3840.00,0.0061
3839.00,0.0061
3838.00,0.0061
3837.00,0.0061
3836.00,0.0061
3835.00,0.0061
3834.00,0.0061
3833.00,0.0061
3832.00,0.0061
3831.00,0.0061
3830.00,0.0061
3829.00,0.0061
3828.00,0.0061
3827.00,0.0061
3826.00,0.0061
3825.00,0.0060
3824.00,0.0060
3823.00,0.0060
3822.00,0.0060
3821.00,0.0060
3820.00,0.0060
3819.00,0.0061
3818.00,0.0061
3817.00,0.0061
3816.00,0.0061
3815.00,0.0061
3814.00,0.0060
3813.00,0.0060
3812.00,0.0060
3811.00,0.0060
3810.00,0.0060
3809.00,0.0060
3808.00,0.0060
3807.00,0.0060
3806.00,0.0060
3805.00,0.0060
3804.00,0.0060
3803.00,0.0060
3802.00,0.0060
3801.00,0.0060
3800.00,0.0060
3799.00,0.0060
3798.00,0.0060
3797.00,0.0059
3796.00,0.0059
3795.00,0.0059
3794.00,0.0059
3793.00,0.0059
3792.00,0.0059
3791.00,0.0059
3790.00,0.0059
3789.00,0.0059
3788.00,0.0059
3787.00,0.0059
3786.00,0.0058
3785.00,0.0058
3784.00,0.0058
3783.00,0.0058
3782.00,0.0058
3781.00,0.0058
3780.00,0.0058
3779.00,0.0058
3778.00,0.0058
3777.00,0.0058
3776.00,0.0058
3775.00,0.0058
3774.00,0.0058
3773.00,0.0058
3772.00,0.0058
3771.00,0.0058
3770.00,0.0058
3769.00,0.0058
3768.00,0.0058
3767.00,0.0058
3766.00,0.0057
3765.00,0.0057
3764.00,0.0057
3763.00,0.0057
3762.00,0.0058
3761.00,0.0058
3760.00,0.0057
3759.00,0.0057
3758.00,0.0057
3757.00,0.0057
3756.00,0.0057
3755.00,0.0057
3754.00,0.0058
3753.00,0.0058
3752.00,0.0058
3751.00,0.0059
3750.00,0.0059
3749.00,0.0059
3748.00,0.0059
3747.00,0.0058
3746.00,0.0058
3745.00,0.0058
3744.00,0.0058
3743.00,0.0058
3742.00,0.0057
3741.00,0.0057
3740.00,0.0057
3739.00,0.0057
3738.00,0.0057
3737.00,0.0056
3736.00,0.0056
3735.00,0.0055
3734.00,0.0055
3733.00,0.0055
3732.00,0.0055
3731.00,0.0055
3730.00,0.0054
3729.00,0.0054
3728.00,0.0054
3727.00,0.0053
3726.00,0.0053
3725.00,0.0054
3724.00,0.0054
3723.00,0.0054
3722.00,0.0054
3721.00,0.0054
3720.00,0.0055
3719.00,0.0055
3718.00,0.0055
3717.00,0.0055
3716.00,0.0055
3715.00,0.0055
3714.00,0.0055
3713.00,0.0055
3712.00,0.0055
3711.00,0.0055
3710.00,0.0054
3709.00,0.0054
3708.00,0.0054
3707.00,0.0054
3706.00,0.0054
3705.00,0.0054
3704.00,0.0054
3703.00,0.0054
3702.00,0.0054
3701.00,0.0054
3700.00,0.0054
3699.00,0.0054
3698.00,0.0054
3697.00,0.0055
3696.00,0.0055
3695.00,0.0055
3694.00,0.0056
3693.00,0.0056
3692.00,0.0056
3691.00,0.0056
3690.00,0.0056
3689.00,0.0056
3688.00,0.0056
3687.00,0.0057
3686.00,0.0057
3685.00,0.0057
3684.00,0.0057
3683.00,0.0057
3682.00,0.0057
3681.00,0.0058
3680.00,0.0058
3679.00,0.0058
3678.00,0.0058
3677.00,0.0059
3676.00,0.0059
3675.00,0.0059
3674.00,0.0059
3673.00,0.0059
3672.00,0.0060
3671.00,0.0060
3670.00,0.0060
3669.00,0.0060
3668.00,0.0060
3667.00,0.0061
3666.00,0.0061
3665.00,0.0061
3664.00,0.0061
3663.00,0.0061
3662.00,0.0062
3661.00,0.0062
3660.00,0.0062
3659.00,0.0062
3658.00,0.0063
3657.00,0.0063
3656.00,0.0064
3655.00,0.0064
3654.00,0.0065
3653.00,0.0065
3652.00,0.0066
3651.00,0.0067
3650.00,0.0067
3649.00,0.0068
3648.00,0.0069
3647.00,0.0069
3646.00,0.0069
3645.00,0.0069
3644.00,0.0070
3643.00,0.0070
3642.00,0.0070
3641.00,0.0071
3640.00,0.0071
3639.00,0.0072
3638.00,0.0072
3637.00,0.0073
3636.00,0.0073
3635.00,0.0074
3634.00,0.0074
3633.00,0.0075
3632.00,0.0076
3631.00,0.0076
3630.00,0.0077
3629.00,0.0078
3628.00,0.0078
3627.00,0.0079
3626.00,0.0079
3625.00,0.0080
3624.00,0.0080
3623.00,0.0081
3622.00,0.0081
3621.00,0.0082
3620.00,0.0083
3619.00,0.0084
3618.00,0.0085
3617.00,0.0086
3616.00,0.0087
3615.00,0.0088
3614.00,0.0088
3613.00,0.0089
3612.00,0.0090
3611.00,0.0091
3610.00,0.0092
3609.00,0.0092
3608.00,0.0093
3607.00,0.0093
3606.00,0.0093
3605.00,0.0094
3604.00,0.0095
3603.00,0.0095
3602.00,0.0096
3601.00,0.0097
3600.00,0.0098
3599.00,0.0099
3598.00,0.0099
3597.00,0.0100
3596.00,0.0101
3595.00,0.0102
3594.00,0.0103
3593.00,0.0104
3592.00,0.0105
3591.00,0.0106
3590.00,0.0107
3589.00,0.0108
3588.00,0.0109
3587.00,0.0110
3586.00,0.0110
3585.00,0.0111
3584.00,0.0112
3583.00,0.0113
3582.00,0.0114
3581.00,0.0115
3580.00,0.0116
3579.00,0.0117
3578.00,0.0118
3577.00,0.0119
3576.00,0.0120
3575.00,0.0122
3574.00,0.0123
3573.00,0.0124
3572.00,0.0125
3571.00,0.0126
3570.00,0.0127
3569.00,0.0129
3568.00,0.0130
3567.00,0.0131
3566.00,0.0132
3565.00,0.0133
3564.00,0.0134
3563.00,0.0135
3562.00,0.0136
3561.00,0.0138
3560.00,0.0139
3559.00,0.0140
3558.00,0.0141
3557.00,0.0142
3556.00,0.0143
3555.00,0.0145
3554.00,0.0146
3553.00,0.0147
3552.00,0.0149
3551.00,0.0150
3550.00,0.0151
3549.00,0.0153
3548.00,0.0154
3547.00,0.0155
3546.00,0.0157
3545.00,0.0158
3544.00,0.0159
3543.00,0.0160
3542.00,0.0161
3541.00,0.0163
3540.00,0.0164
3539.00,0.0165
3538.00,0.0167
3537.00,0.0168
3536.00,0.0169
3535.00,0.0171
3534.00,0.0172
3533.00,0.0174
3532.00,0.0175
3531.00,0.0177
3530.00,0.0178
3529.00,0.0180
3528.00,0.0181
3527.00,0.0183
3526.00,0.0184
3525.00,0.0186
3524.00,0.0187
3523.00,0.0188
3522.00,0.0189
3521.00,0.0191
3520.00,0.0192
3519.00,0.0193
3518.00,0.0194
3517.00,0.0196
3516.00,0.0197
3515.00,0.0199
3514.00,0.0200
3513.00,0.0201
3512.00,0.0203
3511.00,0.0204
3510.00,0.0205
3509.00,0.0207
3508.00,0.0208
3507.00,0.0209
3506.00,0.0211
3505.00,0.0212
3504.00,0.0213
3503.00,0.0215
3502.00,0.0216
3501.00,0.0217
3500.00,0.0219
3499.00,0.0220
3498.00,0.0221
3497.00,0.0223
3496.00,0.0224
3495.00,0.0225
3494.00,0.0226
3493.00,0.0228
3492.00,0.0229
3491.00,0.0230
3490.00,0.0231
3489.00,0.0232
3488.00,0.0234
3487.00,0.0235
3486.00,0.0236
3485.00,0.0237
3484.00,0.0238
3483.00,0.0239
3482.00,0.0241
3481.00,0.0242
3480.00,0.0243
3479.00,0.0244
3478.00,0.0245
3477.00,0.0246
3476.00,0.0248
3475.00,0.0249
3474.00,0.0250
3473.00,0.0251
3472.00,0.0252
3471.00,0.0253
3470.00,0.0254
3469.00,0.0255
3468.00,0.0256
3467.00,0.0257
3466.00,0.0258
3465.00,0.0259
3464.00,0.0260
3463.00,0.0261
3462.00,0.0262
3461.00,0.0263
3460.00,0.0264
3459.00,0.0265
3458.00,0.0266
3457.00,0.0267
3456.00,0.0268
3455.00,0.0268
3454.00,0.0269
3453.00,0.0270
3452.00,0.0271
3451.00,0.0272
3450.00,0.0273
3449.00,0.0274
3448.00,0.0275
3447.00,0.0275
3446.00,0.0276
3445.00,0.0277
3444.00,0.0278
3443.00,0.0279
3442.00,0.0280
3441.00,0.0281
3440.00,0.0282
3439.00,0.0282
3438.00,0.0283
3437.00,0.0284
3436.00,0.0285
3435.00,0.0286
3434.00,0.0286
3433.00,0.0287
3432.00,0.0288
3431.00,0.0289
3430.00,0.0290
3429.00,0.0291
3428.00,0.0292
3427.00,0.0292
3426.00,0.0293
3425.00,0.0294
3424.00,0.0295
3423.00,0.0296
3422.00,0.0297
3421.00,0.0297
3420.00,0.0298
3419.00,0.0299
3418.00,0.0299
3417.00,0.0300
3416.00,0.0301
3415.00,0.0302
3414.00,0.0302
3413.00,0.0303
3412.00,0.0304
3411.00,0.0305
3410.00,0.0306
3409.00,0.0307
3408.00,0.0308
3407.00,0.0309
3406.00,0.0309
3405.00,0.0310
3404.00,0.0310
3403.00,0.0311
3402.00,0.0311
3401.00,0.0312
3400.00,0.0313
3399.00,0.0314
3398.00,0.0315
3397.00,0.0316
3396.00,0.0317
3395.00,0.0317
3394.00,0.0317
3393.00,0.0318
3392.00,0.0318
3391.00,0.0319
3390.00,0.0320
3389.00,0.0322
3388.00,0.0323
3387.00,0.0324
3386.00,0.0325
3385.00,0.0326
3384.00,0.0326
3383.00,0.0327
3382.00,0.0328
3381.00,0.0329
3380.00,0.0330
3379.00,0.0332
3378.00,0.0333
3377.00,0.0334
3376.00,0.0336
3375.00,0.0337
3374.00,0.0338
3373.00,0.0339
3372.00,0.0341
3371.00,0.0342
3370.00,0.0343
3369.00,0.0344
3368.00,0.0346
3367.00,0.0349
3366.00,0.0351
3365.00,0.0353
3364.00,0.0356
3363.00,0.0358
3362.00,0.0360
3361.00,0.0363
3360.00,0.0365
3359.00,0.0368
3358.00,0.0371
3357.00,0.0374
3356.00,0.0377
3355.00,0.0380
3354.00,0.0383
3353.00,0.0385
3352.00,0.0388
3351.00,0.0392
3350.00,0.0396
3349.00,0.0400
3348.00,0.0404
3347.00,0.0409
3346.00,0.0413
3345.00,0.0417
3344.00,0.0421
3343.00,0.0426
3342.00,0.0431
3341.00,0.0436
3340.00,0.0441
3339.00,0.0446
3338.00,0.0453
3337.00,0.0459
3336.00,0.0466
3335.00,0.0473
3334.00,0.0480
3333.00,0.0487
3332.00,0.0494
3331.00,0.0502
3330.00,0.0509
3329.00,0.0517
3328.00,0.0524
3327.00,0.0532
3326.00,0.0541
3325.00,0.0550
3324.00,0.0560
3323.00,0.0570
3322.00,0.0580
3321.00,0.0591
3320.00,0.0601
3319.00,0.0611
3318.00,0.0622
3317.00,0.0633
3316.00,0.0644
3315.00,0.0655
3314.00,0.0667
3313.00,0.0678
3312.00,0.0690
3311.00,0.0700
3310.00,0.0711
3309.00,0.0722
3308.00,0.0733
3307.00,0.0745
3306.00,0.0758
3305.00,0.0772
3304.00,0.0786
3303.00,0.0799
3302.00,0.0813
3301.00,0.0825
3300.00,0.0836
3299.00,0.0846
3298.00,0.0856
3297.00,0.0865
3296.00,0.0873
3295.00,0.0881
3294.00,0.0888
3293.00,0.0894
3292.00,0.0900
3291.00,0.0905
3290.00,0.0909
3289.00,0.0911
3288.00,0.0912
3287.00,0.0911
3286.00,0.0909
3285.00,0.0905
3284.00,0.0900
3283.00,0.0894
3282.00,0.0886
3281.00,0.0877
3280.00,0.0867
3279.00,0.0855
3278.00,0.0842
3277.00,0.0828
3276.00,0.0813
3275.00,0.0798
3274.00,0.0781
3273.00,0.0764
3272.00,0.0747
3271.00,0.0731
3270.00,0.0716
3269.00,0.0701
3268.00,0.0686
3267.00,0.0671
3266.00,0.0656
3265.00,0.0641
3264.00,0.0626
3263.00,0.0611
3262.00,0.0597
3261.00,0.0583
3260.00,0.0569
3259.00,0.0556
3258.00,0.0543
3257.00,0.0531
3256.00,0.0520
3255.00,0.0509
3254.00,0.0500
3253.00,0.0491
3252.00,0.0482
3251.00,0.0472
3250.00,0.0463
3249.00,0.0453
3248.00,0.0444
3247.00,0.0437
3246.00,0.0430
3245.00,0.0425
3244.00,0.0419
3243.00,0.0414
3242.00,0.0408
3241.00,0.0402
3240.00,0.0396
3239.00,0.0390
3238.00,0.0384
3237.00,0.0377
3236.00,0.0371
3235.00,0.0364
3234.00,0.0358
3233.00,0.0354
3232.00,0.0351
3231.00,0.0349
3230.00,0.0346
3229.00,0.0342
3228.00,0.0338
3227.00,0.0334
3226.00,0.0330
3225.00,0.0326
3224.00,0.0323
3223.00,0.0319
3222.00,0.0315
3221.00,0.0311
3220.00,0.0307
3219.00,0.0303
3218.00,0.0300
3217.00,0.0296
3216.00,0.0293
3215.00,0.0290
3214.00,0.0287
3213.00,0.0284
3212.00,0.0281
3211.00,0.0278
3210.00,0.0275
3209.00,0.0272
3208.00,0.0269
3207.00,0.0266
3206.00,0.0263
3205.00,0.0260
3204.00,0.0257
3203.00,0.0254
3202.00,0.0252
3201.00,0.0249
3200.00,0.0247
3199.00,0.0244
3198.00,0.0241
3197.00,0.0239
3196.00,0.0236
3195.00,0.0234
3194.00,0.0231
3193.00,0.0229
3192.00,0.0227
3191.00,0.0225
3190.00,0.0222
3189.00,0.0220
3188.00,0.0218
3187.00,0.0216
3186.00,0.0214
3185.00,0.0212
3184.00,0.0210
3183.00,0.0208
3182.00,0.0207
3181.00,0.0205
3180.00,0.0203
3179.00,0.0201
3178.00,0.0199
3177.00,0.0198
3176.00,0.0196
3175.00,0.0195
3174.00,0.0193
3173.00,0.0192
3172.00,0.0190
3171.00,0.0189
3170.00,0.0187
3169.00,0.0186
3168.00,0.0185
3167.00,0.0184
3166.00,0.0183
3165.00,0.0181
3164.00,0.0180
3163.00,0.0179
3162.00,0.0178
3161.00,0.0177
3160.00,0.0176
3159.00,0.0175
3158.00,0.0174
3157.00,0.0172
3156.00,0.0171
3155.00,0.0169
3154.00,0.0168
3153.00,0.0167
3152.00,0.0167
3151.00,0.0167
3150.00,0.0167
3149.00,0.0167
3148.00,0.0167
3147.00,0.0166
3146.00,0.0166
3145.00,0.0165
3144.00,0.0165
3143.00,0.0164
3142.00,0.0163
3141.00,0.0162
3140.00,0.0162
3139.00,0.0162
3138.00,0.0162
3137.00,0.0162
3136.00,0.0163
3135.00,0.0163
3134.00,0.0163
3133.00,0.0163
3132.00,0.0163
3131.00,0.0162
3130.00,0.0162
3129.00,0.0163
3128.00,0.0163
3127.00,0.0164
3126.00,0.0164
3125.00,0.0164
3124.00,0.0164
3123.00,0.0163
3122.00,0.0162
3121.00,0.0161
3120.00,0.0161
3119.00,0.0161
3118.00,0.0161
3117.00,0.0162
3116.00,0.0163
3115.00,0.0165
3114.00,0.0167
3113.00,0.0168
3112.00,0.0169
3111.00,0.0170
3110.00,0.0170
3109.00,0.0171
3108.00,0.0172
3107.00,0.0173
3106.00,0.0174
3105.00,0.0175
3104.00,0.0176
3103.00,0.0177
3102.00,0.0177
3101.00,0.0178
3100.00,0.0178
3099.00,0.0179
3098.00,0.0180
3097.00,0.0181
3096.00,0.0182
3095.00,0.0183
3094.00,0.0183
3093.00,0.0183
3092.00,0.0183
3091.00,0.0183
3090.00,0.0184
3089.00,0.0184
3088.00,0.0185
3087.00,0.0185
3086.00,0.0185
3085.00,0.0185
3084.00,0.0186
3083.00,0.0186
3082.00,0.0186
3081.00,0.0185
3080.00,0.0185
3079.00,0.0186
3078.00,0.0186
3077.00,0.0188
3076.00,0.0189
3075.00,0.0190
3074.00,0.0190
3073.00,0.0190
3072.00,0.0190
3071.00,0.0189
3070.00,0.0188
3069.00,0.0186
3068.00,0.0185
3067.00,0.0185
3066.00,0.0185
3065.00,0.0185
3064.00,0.0184
3063.00,0.0184
3062.00,0.0183
3061.00,0.0182
3060.00,0.0180
3059.00,0.0179
3058.00,0.0177
3057.00,0.0175
3056.00,0.0174
3055.00,0.0172
3054.00,0.0171
3053.00,0.0169
3052.00,0.0167
3051.00,0.0166
3050.00,0.0165
3049.00,0.0164
3048.00,0.0163
3047.00,0.0161
3046.00,0.0159
3045.00,0.0158
3044.00,0.0156
3043.00,0.0155
3042.00,0.0155
3041.00,0.0155
3040.00,0.0155
3039.00,0.0155
3038.00,0.0154
3037.00,0.0153
3036.00,0.0152
3035.00,0.0151
3034.00,0.0150
3033.00,0.0150
3032.00,0.0150
3031.00,0.0150
3030.00,0.0150
3029.00,0.0149
3028.00,0.0149
3027.00,0.0148
3026.00,0.0147
3025.00,0.0147
3024.00,0.0146
3023.00,0.0146
3022.00,0.0146
3021.00,0.0146
3020.00,0.0145
3019.00,0.0145
3018.00,0.0145
3017.00,0.0145
3016.00,0.0145
3015.00,0.0146
3014.00,0.0146
3013.00,0.0148
3012.00,0.0149
3011.00,0.0152
3010.00,0.0154
3009.00,0.0156
3008.00,0.0158
3007.00,0.0160
3006.00,0.0162
3005.00,0.0164
3004.00,0.0166
3003.00,0.0168
3002.00,0.0171
3001.00,0.0173
3000.00,0.0175
2999.00,0.0177
2998.00,0.0180
2997.00,0.0183
2996.00,0.0186
2995.00,0.0189
2994.00,0.0192
2993.00,0.0195
2992.00,0.0199
2991.00,0.0203
2990.00,0.0207
2989.00,0.0210
2988.00,0.0214
2987.00,0.0218
2986.00,0.0221
2985.00,0.0225
2984.00,0.0228
2983.00,0.0231
2982.00,0.0234
2981.00,0.0237
2980.00,0.0240
2979.00,0.0243
2978.00,0.0246
2977.00,0.0249
2976.00,0.0252
2975.00,0.0255
2974.00,0.0257
2973.00,0.0260
2972.00,0.0263
2971.00,0.0266
2970.00,0.0268
2969.00,0.0270
2968.00,0.0272
2967.00,0.0273
2966.00,0.0274
2965.00,0.0274
2964.00,0.0275
2963.00,0.0275
2962.00,0.0274
2961.00,0.0274
2960.00,0.0274
2959.00,0.0274
2958.00,0.0274
2957.00,0.0274
2956.00,0.0273
2955.00,0.0273
2954.00,0.0272
2953.00,0.0272
2952.00,0.0273
2951.00,0.0274
2950.00,0.0275
2949.00,0.0277
2948.00,0.0279
2947.00,0.0281
2946.00,0.0285
2945.00,0.0290
2944.00,0.0296
2943.00,0.0302
2942.00,0.0310
2941.00,0.0317
2940.00,0.0324
2939.00,0.0332
2938.00,0.0339
2937.00,0.0346
2936.00,0.0353
2935.00,0.0360
2934.00,0.0366
2933.00,0.0372
2932.00,0.0377
2931.00,0.0382
2930.00,0.0387
2929.00,0.0392
2928.00,0.0397
2927.00,0.0402
2926.00,0.0406
2925.00,0.0410
2924.00,0.0413
2923.00,0.0415
2922.00,0.0416
2921.00,0.0416
2920.00,0.0413
2919.00,0.0409
2918.00,0.0401
2917.00,0.0391
2916.00,0.0378
2915.00,0.0363
2914.00,0.0347
2913.00,0.0332
2912.00,0.0319
2911.00,0.0308
2910.00,0.0298
2909.00,0.0290
2908.00,0.0283
2907.00,0.0276
2906.00,0.0271
2905.00,0.0266
2904.00,0.0262
2903.00,0.0258
2902.00,0.0254
2901.00,0.0251
2900.00,0.0248
2899.00,0.0244
2898.00,0.0241
2897.00,0.0238
2896.00,0.0235
2895.00,0.0233
2894.00,0.0231
2893.00,0.0229
2892.00,0.0227
2891.00,0.0225
2890.00,0.0224
2889.00,0.0222
2888.00,0.0221
2887.00,0.0219
2886.00,0.0218
2885.00,0.0218
2884.00,0.0217
2883.00,0.0217
2882.00,0.0217
2881.00,0.0217
2880.00,0.0218
2879.00,0.0219
2878.00,0.0219
2877.00,0.0219
2876.00,0.0218
2875.00,0.0217
2874.00,0.0216
2873.00,0.0215
2872.00,0.0214
2871.00,0.0213
2870.00,0.0210
2869.00,0.0208
2868.00,0.0206
2867.00,0.0204
2866.00,0.0203
2865.00,0.0202
2864.00,0.0202
2863.00,0.0203
2862.00,0.0205
2861.00,0.0208
2860.00,0.0212
2859.00,0.0216
2858.00,0.0222
2857.00,0.0227
2856.00,0.0234
2855.00,0.0240
2854.00,0.0246
2853.00,0.0251
2852.00,0.0254
2851.00,0.0253
2850.00,0.0248
2849.00,0.0239
2848.00,0.0227
2847.00,0.0213
2846.00,0.0199
2845.00,0.0186
2844.00,0.0175
2843.00,0.0166
2842.00,0.0159
2841.00,0.0152
2840.00,0.0147
2839.00,0.0142
2838.00,0.0139
2837.00,0.0137
2836.00,0.0135
2835.00,0.0134
2834.00,0.0132
2833.00,0.0131
2832.00,0.0130
2831.00,0.0129
2830.00,0.0128
2829.00,0.0127
2828.00,0.0126
2827.00,0.0125
2826.00,0.0125
2825.00,0.0124
2824.00,0.0124
2823.00,0.0123
2822.00,0.0122
2821.00,0.0122
2820.00,0.0122
2819.00,0.0121
2818.00,0.0121
2817.00,0.0121
2816.00,0.0120
2815.00,0.0120
2814.00,0.0120
2813.00,0.0119
2812.00,0.0119
2811.00,0.0118
2810.00,0.0118
2809.00,0.0118
2808.00,0.0118
2807.00,0.0118
2806.00,0.0117
2805.00,0.0117
2804.00,0.0117
2803.00,0.0117
2802.00,0.0117
2801.00,0.0116
2800.00,0.0116
2799.00,0.0115
2798.00,0.0115
2797.00,0.0115
2796.00,0.0115
2795.00,0.0115
2794.00,0.0115
2793.00,0.0115
2792.00,0.0114
2791.00,0.0114
2790.00,0.0114
2789.00,0.0114
2788.00,0.0114
2787.00,0.0114
2786.00,0.0114
2785.00,0.0114
2784.00,0.0114
2783.00,0.0114
2782.00,0.0114
2781.00,0.0114
2780.00,0.0114
2779.00,0.0114
2778.00,0.0114
2777.00,0.0113
2776.00,0.0113
2775.00,0.0113
2774.00,0.0113
2773.00,0.0114
2772.00,0.0114
2771.00,0.0114
2770.00,0.0114
2769.00,0.0114
2768.00,0.0114
2767.00,0.0114
2766.00,0.0114
2765.00,0.0114
2764.00,0.0114
2763.00,0.0114
2762.00,0.0115
2761.00,0.0115
2760.00,0.0115
2759.00,0.0115
2758.00,0.0115
2757.00,0.0115
2756.00,0.0116
2755.00,0.0116
2754.00,0.0116
2753.00,0.0117
2752.00,0.0117
2751.00,0.0118
2750.00,0.0118
2749.00,0.0119
2748.00,0.0120
2747.00,0.0121
2746.00,0.0121
2745.00,0.0122
2744.00,0.0123
2743.00,0.0124
2742.00,0.0125
2741.00,0.0126
2740.00,0.0128
2739.00,0.0129
2738.00,0.0130
2737.00,0.0132
2736.00,0.0133
2735.00,0.0135
2734.00,0.0137
2733.00,0.0139
2732.00,0.0141
2731.00,0.0143
2730.00,0.0146
2729.00,0.0148
2728.00,0.0150
2727.00,0.0153
2726.00,0.0156
2725.00,0.0159
2724.00,0.0162
2723.00,0.0165
2722.00,0.0169
2721.00,0.0172
2720.00,0.0176
2719.00,0.0180
2718.00,0.0184
2717.00,0.0188
2716.00,0.0192
2715.00,0.0197
2714.00,0.0201
2713.00,0.0206
2712.00,0.0211
2711.00,0.0216
2710.00,0.0221
2709.00,0.0226
2708.00,0.0232
2707.00,0.0237
2706.00,0.0243
2705.00,0.0248
2704.00,0.0254
2703.00,0.0260
2702.00,0.0266
2701.00,0.0272
2700.00,0.0278
2699.00,0.0284
2698.00,0.0290
2697.00,0.0296
2696.00,0.0303
2695.00,0.0309
2694.00,0.0316
2693.00,0.0322
2692.00,0.0329
2691.00,0.0335
2690.00,0.0342
2689.00,0.0348
2688.00,0.0355
2687.00,0.0362
2686.00,0.0368
2685.00,0.0375
2684.00,0.0381
2683.00,0.0388
2682.00,0.0394
2681.00,0.0401
2680.00,0.0408
2679.00,0.0415
2678.00,0.0422
2677.00,0.0429
2676.00,0.0435
2675.00,0.0442
2674.00,0.0449
2673.00,0.0456
2672.00,0.0463
2671.00,0.0469
2670.00,0.0476
2669.00,0.0483
2668.00,0.0490
2667.00,0.0498
2666.00,0.0505
2665.00,0.0513
2664.00,0.0520
2663.00,0.0527
2662.00,0.0535
2661.00,0.0542
2660.00,0.0549
2659.00,0.0556
2658.00,0.0563
2657.00,0.0570
2656.00,0.0577
2655.00,0.0584
2654.00,0.0591
2653.00,0.0598
2652.00,0.0605
2651.00,0.0612
2650.00,0.0618
2649.00,0.0625
2648.00,0.0632
2647.00,0.0639
2646.00,0.0646
2645.00,0.0653
2644.00,0.0660
2643.00,0.0667
2642.00,0.0673
2641.00,0.0680
2640.00,0.0687
2639.00,0.0694
2638.00,0.0700
2637.00,0.0707
2636.00,0.0713
2635.00,0.0720
2634.00,0.0726
2633.00,0.0733
2632.00,0.0739
2631.00,0.0746
2630.00,0.0752
2629.00,0.0758
2628.00,0.0764
2627.00,0.0771
2626.00,0.0777
2625.00,0.0783
2624.00,0.0789
2623.00,0.0796
2622.00,0.0801
2621.00,0.0807
2620.00,0.0813
2619.00,0.0819
2618.00,0.0824
2617.00,0.0830
2616.00,0.0836
2615.00,0.0841
2614.00,0.0847
2613.00,0.0852
2612.00,0.0857
2611.00,0.0863
2610.00,0.0868
2609.00,0.0873
2608.00,0.0878
2607.00,0.0883
2606.00,0.0888
2605.00,0.0893
2604.00,0.0898
2603.00,0.0902
2602.00,0.0907
2601.00,0.0912
2600.00,0.0916
2599.00,0.0920
2598.00,0.0925
2597.00,0.0929
2596.00,0.0933
2595.00,0.0938
2594.00,0.0942
2593.00,0.0946
2592.00,0.0950
2591.00,0.0954
2590.00,0.0957
2589.00,0.0961
2588.00,0.0965
2587.00,0.0969
2586.00,0.0973
2585.00,0.0976
2584.00,0.0980
2583.00,0.0983
2582.00,0.0986
2581.00,0.0990
2580.00,0.0993
2579.00,0.0997
2578.00,0.1001
2577.00,0.1004
2576.00,0.1008
2575.00,0.1012
2574.00,0.1015
2573.00,0.1018
2572.00,0.1022
2571.00,0.1025
2570.00,0.1028
2569.00,0.1032
2568.00,0.1035
2567.00,0.1039
2566.00,0.1042
2565.00,0.1045
2564.00,0.1049
2563.00,0.1052
2562.00,0.1056
2561.00,0.1060
2560.00,0.1064
2559.00,0.1067
2558.00,0.1071
2557.00,0.1075
2556.00,0.1079
2555.00,0.1082
2554.00,0.1086
2553.00,0.1091
2552.00,0.1095
2551.00,0.1100
2550.00,0.1104
2549.00,0.1108
2548.00,0.1113
2547.00,0.1118
2546.00,0.1122
2545.00,0.1127
2544.00,0.1132
2543.00,0.1137
2542.00,0.1142
2541.00,0.1147
2540.00,0.1151
2539.00,0.1157
2538.00,0.1162
2537.00,0.1167
2536.00,0.1173
2535.00,0.1178
2534.00,0.1184
2533.00,0.1189
2532.00,0.1195
2531.00,0.1200
2530.00,0.1205
2529.00,0.1210
2528.00,0.1216
2527.00,0.1221
2526.00,0.1226
2525.00,0.1231
2524.00,0.1236
2523.00,0.1241
2522.00,0.1246
2521.00,0.1252
2520.00,0.1257
2519.00,0.1262
2518.00,0.1267
2517.00,0.1272
2516.00,0.1277
2515.00,0.1282
2514.00,0.1287
2513.00,0.1292
2512.00,0.1297
2511.00,0.1302
2510.00,0.1307
2509.00,0.1311
2508.00,0.1316
2507.00,0.1321
2506.00,0.1326
2505.00,0.1330
2504.00,0.1335
2503.00,0.1340
2502.00,0.1346
2501.00,0.1351
2500.00,0.1356
2499.00,0.1360
2498.00,0.1365
2497.00,0.1369
2496.00,0.1374
2495.00,0.1379
2494.00,0.1384
2493.00,0.1388
2492.00,0.1393
2491.00,0.1397
2490.00,0.1401
2489.00,0.1405
2488.00,0.1409
2487.00,0.1412
2486.00,0.1415
2485.00,0.1418
2484.00,0.1421
2483.00,0.1424
2482.00,0.1426
2481.00,0.1428
2480.00,0.1430
2479.00,0.1431
2478.00,0.1433
2477.00,0.1434
2476.00,0.1434
2475.00,0.1434
2474.00,0.1434
2473.00,0.1434
2472.00,0.1433
2471.00,0.1432
2470.00,0.1431
2469.00,0.1429
2468.00,0.1427
2467.00,0.1425
2466.00,0.1422
2465.00,0.1420
2464.00,0.1417
2463.00,0.1414
2462.00,0.1411
2461.00,0.1408
2460.00,0.1404
2459.00,0.1400
2458.00,0.1397
2457.00,0.1393
2456.00,0.1389
2455.00,0.1385
2454.00,0.1381
2453.00,0.1377
2452.00,0.1373
2451.00,0.1369
2450.00,0.1366
2449.00,0.1363
2448.00,0.1360
2447.00,0.1357
2446.00,0.1355
2445.00,0.1353
2444.00,0.1351
2443.00,0.1350
2442.00,0.1349
2441.00,0.1349
2440.00,0.1348
2439.00,0.1348
2438.00,0.1348
2437.00,0.1348
2436.00,0.1349
2435.00,0.1349
2434.00,0.1350
2433.00,0.1351
2432.00,0.1351
2431.00,0.1352
2430.00,0.1354
2429.00,0.1355
2428.00,0.1356
2427.00,0.1357
2426.00,0.1358
2425.00,0.1359
2424.00,0.1360
2423.00,0.1360
2422.00,0.1360
2421.00,0.1361
2420.00,0.1361
2419.00,0.1361
2418.00,0.1360
2417.00,0.1360
2416.00,0.1359
2415.00,0.1359
2414.00,0.1358
2413.00,0.1356
2412.00,0.1355
2411.00,0.1353
2410.00,0.1351
2409.00,0.1349
2408.00,0.1346
2407.00,0.1344
2406.00,0.1341
2405.00,0.1338
2404.00,0.1335
2403.00,0.1332
2402.00,0.1329
2401.00,0.1325
2400.00,0.1321
2399.00,0.1316
2398.00,0.1312
2397.00,0.1307
2396.00,0.1302
2395.00,0.1297
2394.00,0.1292
2393.00,0.1286
2392.00,0.1280
2391.00,0.1274
2390.00,0.1267
2389.00,0.1260
2388.00,0.1253
2387.00,0.1245
2386.00,0.1237
2385.00,0.1231
2384.00,0.1224
2383.00,0.1216
2382.00,0.1208
2381.00,0.1200
2380.00,0.1192
2379.00,0.1184
2378.00,0.1175
2377.00,0.1167
2376.00,0.1132
2375.00,0.1123
2374.00,0.1114
2373.00,0.1106
2372.00,0.1097
2371.00,0.1088
2370.00,0.1078
2369.00,0.1068
2368.00,0.1059
2367.00,0.1049
2366.00,0.1040
2365.00,0.1032
2364.00,0.1023
2363.00,0.1014
2362.00,0.1004
2361.00,0.0996
2360.00,0.0987
2359.00,0.0978
2358.00,0.0969
2357.00,0.0960
2356.00,0.0952
2355.00,0.0944
2354.00,0.0936
2353.00,0.0927
2352.00,0.0917
2351.00,0.0907
2350.00,0.0897
2349.00,0.0888
2348.00,0.0879
2347.00,0.0871
2346.00,0.0862
2345.00,0.0856
2344.00,0.0850
2343.00,0.0844
2342.00,0.0837
2341.00,0.0828
2340.00,0.0820
2339.00,0.0812
2338.00,0.0805
2337.00,0.0798
2336.00,0.0790
2335.00,0.0781
2334.00,0.0771
2333.00,0.0762
2332.00,0.0754
2331.00,0.0748
2330.00,0.0743
2329.00,0.0739
2328.00,0.0736
2327.00,0.0732
2326.00,0.0725
2325.00,0.0716
2324.00,0.0705
2323.00,0.0695
2322.00,0.0685
2321.00,0.0678
2320.00,0.0671
2319.00,0.0665
2318.00,0.0658
2317.00,0.0651
2316.00,0.0644
2315.00,0.0636
2314.00,0.0629
2313.00,0.0622
2312.00,0.0616
2311.00,0.0610
2310.00,0.0603
2309.00,0.0597
2308.00,0.0591
2307.00,0.0584
2306.00,0.0578
2305.00,0.0573
2304.00,0.0567
2303.00,0.0562
2302.00,0.0556
2301.00,0.0551
2300.00,0.0545
2299.00,0.0539
2298.00,0.0534
2297.00,0.0529
2296.00,0.0524
2295.00,0.0519
2294.00,0.0514
2293.00,0.0509
2292.00,0.0504
2291.00,0.0500
2290.00,0.0495
2289.00,0.0490
2288.00,0.0485
2287.00,0.0480
2286.00,0.0475
2285.00,0.0469
2284.00,0.0463
2283.00,0.0457
2282.00,0.0452
2281.00,0.0446
2280.00,0.0441
2279.00,0.0436
2278.00,0.0431
2277.00,0.0426
2276.00,0.0421
2275.00,0.0416
2274.00,0.0411
2273.00,0.0407
2272.00,0.0403
2271.00,0.0399
2270.00,0.0396
2269.00,0.0392
2268.00,0.0387
2267.00,0.0383
2266.00,0.0378
2265.00,0.0374
2264.00,0.0371
2263.00,0.0367
2262.00,0.0364
2261.00,0.0361
2260.00,0.0359
2259.00,0.0356
2258.00,0.0352
2257.00,0.0348
2256.00,0.0344
2255.00,0.0340
2254.00,0.0337
2253.00,0.0334
2252.00,0.0331
2251.00,0.0329
2250.00,0.0326
2249.00,0.0324
2248.00,0.0321
2247.00,0.0318
2246.00,0.0315
2245.00,0.0313
2244.00,0.0311
2243.00,0.0308
2242.00,0.0306
2241.00,0.0303
2240.00,0.0301
2239.00,0.0299
2238.00,0.0296
2237.00,0.0293
2236.00,0.0290
2235.00,0.0287
2234.00,0.0284
2233.00,0.0281
2232.00,0.0279
2231.00,0.0276
2230.00,0.0273
2229.00,0.0271
2228.00,0.0269
2227.00,0.0267
2226.00,0.0265
2225.00,0.0263
2224.00,0.0261
2223.00,0.0259
2222.00,0.0257
2221.00,0.0255
2220.00,0.0253
2219.00,0.0251
2218.00,0.0249
2217.00,0.0247
2216.00,0.0245
2215.00,0.0243
2214.00,0.0241
2213.00,0.0239
2212.00,0.0237
2211.00,0.0235
2210.00,0.0233
2209.00,0.0231
2208.00,0.0230
2207.00,0.0229
2206.00,0.0227
2205.00,0.0225
2204.00,0.0224
2203.00,0.0223
2202.00,0.0221
2201.00,0.0219
2200.00,0.0218
2199.00,0.0216
2198.00,0.0215
2197.00,0.0215
2196.00,0.0214
2195.00,0.0213
2194.00,0.0211
2193.00,0.0209
2192.00,0.0209
2191.00,0.0208
2190.00,0.0207
2189.00,0.0206
2188.00,0.0205
2187.00,0.0203
2186.00,0.0201
2185.00,0.0199
2184.00,0.0196
2183.00,0.0193
2182.00,0.0189
2181.00,0.0188
2180.00,0.0188
2179.00,0.0187
2178.00,0.0185
2177.00,0.0182
2176.00,0.0180
2175.00,0.0179
2174.00,0.0179
2173.00,0.0180
2172.00,0.0182
2171.00,0.0183
2170.00,0.0183
2169.00,0.0184
2168.00,0.0184
2167.00,0.0184
2166.00,0.0184
2165.00,0.0185
2164.00,0.0187
2163.00,0.0184
2162.00,0.0174
2161.00,0.0159
2160.00,0.0143
2159.00,0.0130
2158.00,0.0124
2157.00,0.0125
2156.00,0.0129
2155.00,0.0132
2154.00,0.0134
2153.00,0.0135
2152.00,0.0137
2151.00,0.0137
2150.00,0.0137
2149.00,0.0137
2148.00,0.0137
2147.00,0.0136
2146.00,0.0134
2145.00,0.0133
2144.00,0.0132
2143.00,0.0132
2142.00,0.0132
2141.00,0.0131
2140.00,0.0131
2139.00,0.0130
2138.00,0.0129
2137.00,0.0127
2136.00,0.0125
2135.00,0.0123
2134.00,0.0122
2133.00,0.0123
2132.00,0.0125
2131.00,0.0126
2130.00,0.0127
2129.00,0.0128
2128.00,0.0128
2127.00,0.0128
2126.00,0.0128
2125.00,0.0129
2124.00,0.0129
2123.00,0.0130
2122.00,0.0130
2121.00,0.0130
2120.00,0.0130
2119.00,0.0131
2118.00,0.0132
2117.00,0.0133
2116.00,0.0133
2115.00,0.0133
2114.00,0.0132
2113.00,0.0131
2112.00,0.0131
2111.00,0.0130
2110.00,0.0129
2109.00,0.0129
2108.00,0.0128
2107.00,0.0127
2106.00,0.0126
2105.00,0.0126
2104.00,0.0125
2103.00,0.0125
2102.00,0.0124
2101.00,0.0123
2100.00,0.0123
2099.00,0.0121
2098.00,0.0119
2097.00,0.0118
2096.00,0.0116
2095.00,0.0116
2094.00,0.0116
2093.00,0.0116
2092.00,0.0117
2091.00,0.0117
2090.00,0.0117
2089.00,0.0117
2088.00,0.0118
2087.00,0.0118
2086.00,0.0119
2085.00,0.0119
2084.00,0.0119
2083.00,0.0118
2082.00,0.0117
2081.00,0.0116
2080.00,0.0116
2079.00,0.0115
2078.00,0.0114
2077.00,0.0114
2076.00,0.0113
2075.00,0.0113
2074.00,0.0112
2073.00,0.0111
2072.00,0.0111
2071.00,0.0111
2070.00,0.0110
2069.00,0.0109
2068.00,0.0108
2067.00,0.0108
2066.00,0.0108
2065.00,0.0108
2064.00,0.0108
2063.00,0.0108
2062.00,0.0107
2061.00,0.0106
2060.00,0.0106
2059.00,0.0106
2058.00,0.0106
2057.00,0.0105
2056.00,0.0105
2055.00,0.0105
2054.00,0.0108
2053.00,0.0112
2052.00,0.0115
2051.00,0.0114
2050.00,0.0110
2049.00,0.0106
2048.00,0.0104
2047.00,0.0102
2046.00,0.0100
2045.00,0.0100
2044.00,0.0099
2043.00,0.0098
2042.00,0.0097
2041.00,0.0097
2040.00,0.0098
2039.00,0.0098
2038.00,0.0097
2037.00,0.0096
2036.00,0.0095
2035.00,0.0092
2034.00,0.0088
2033.00,0.0087
2032.00,0.0088
2031.00,0.0088
2030.00,0.0087
2029.00,0.0087
2028.00,0.0086
2027.00,0.0085
2026.00,0.0083
2025.00,0.0082
2024.00,0.0083
2023.00,0.0082
2022.00,0.0081
2021.00,0.0082
2020.00,0.0083
2019.00,0.0083
2018.00,0.0082
2017.00,0.0082
2016.00,0.0082
2015.00,0.0081
2014.00,0.0080
2013.00,0.0080
2012.00,0.0082
2011.00,0.0083
2010.00,0.0083
2009.00,0.0081
2008.00,0.0078
2007.00,0.0074
2006.00,0.0072
2005.00,0.0072
2004.00,0.0074
2003.00,0.0076
2002.00,0.0077
2001.00,0.0078
2000.00,0.0080
1999.00,0.0081
1998.00,0.0081
1997.00,0.0082
1996.00,0.0085
1995.00,0.0086
1994.00,0.0086
1993.00,0.0086
1992.00,0.0086
1991.00,0.0086
1990.00,0.0084
1989.00,0.0084
1988.00,0.0086
1987.00,0.0086
1986.00,0.0087
1985.00,0.0088
1984.00,0.0091
1983.00,0.0093
1982.00,0.0094
1981.00,0.0093
1980.00,0.0090
1979.00,0.0084
1978.00,0.0077
1977.00,0.0074
1976.00,0.0073
1975.00,0.0073
1974.00,0.0072
1973.00,0.0072
1972.00,0.0072
1971.00,0.0069
1970.00,0.0066
1969.00,0.0065
1968.00,0.0066
1967.00,0.0067
1966.00,0.0068
1965.00,0.0069
1964.00,0.0070
1963.00,0.0069
1962.00,0.0067
1961.00,0.0066
1960.00,0.0065
1959.00,0.0064
1958.00,0.0064
1957.00,0.0064
1956.00,0.0066
1955.00,0.0068
1954.00,0.0068
1953.00,0.0069
1952.00,0.0070
1951.00,0.0070
1950.00,0.0069
1949.00,0.0070
1948.00,0.0071
1947.00,0.0070
1946.00,0.0069
1945.00,0.0069
1944.00,0.0070
1943.00,0.0069
1942.00,0.0069
1941.00,0.0069
1940.00,0.0071
1939.00,0.0071
1938.00,0.0072
1937.00,0.0072
1936.00,0.0073
1935.00,0.0073
1934.00,0.0072
1933.00,0.0072
1932.00,0.0073
1931.00,0.0073
1930.00,0.0072
1929.00,0.0072
1928.00,0.0072
1927.00,0.0072
1926.00,0.0071
1925.00,0.0071
1924.00,0.0072
1923.00,0.0072
1922.00,0.0073
1921.00,0.0074
1920.00,0.0075
1919.00,0.0075
1918.00,0.0075
1917.00,0.0076
1916.00,0.0076
1915.00,0.0076
1914.00,0.0075
1913.00,0.0075
1912.00,0.0075
1911.00,0.0075
1910.00,0.0074
1909.00,0.0075
1908.00,0.0076
1907.00,0.0076
1906.00,0.0076
1905.00,0.0075
1904.00,0.0075
1903.00,0.0075
1902.00,0.0075
1901.00,0.0075
1900.00,0.0077
1899.00,0.0077
1898.00,0.0076
1897.00,0.0075
1896.00,0.0075
1895.00,0.0076
1894.00,0.0076
1893.00,0.0077
1892.00,0.0077
1891.00,0.0076
1890.00,0.0076
1889.00,0.0076
1888.00,0.0076
1887.00,0.0076
1886.00,0.0076
1885.00,0.0076
1884.00,0.0076
1883.00,0.0076
1882.00,0.0075
1881.00,0.0075
1880.00,0.0075
1879.00,0.0075
1878.00,0.0075
1877.00,0.0076
1876.00,0.0077
1875.00,0.0077
1874.00,0.0076
1873.00,0.0076
1872.00,0.0075
1871.00,0.0074
1870.00,0.0072
1869.00,0.0071
1868.00,0.0072
1867.00,0.0073
1866.00,0.0074
1865.00,0.0075
1864.00,0.0076
1863.00,0.0075
1862.00,0.0075
1861.00,0.0075
1860.00,0.0075
1859.00,0.0075
1858.00,0.0075
1857.00,0.0075
1856.00,0.0075
1855.00,0.0076
1854.00,0.0075
1853.00,0.0076
1852.00,0.0076
1851.00,0.0075
1850.00,0.0074
1849.00,0.0073
1848.00,0.0074
1847.00,0.0074
1846.00,0.0074
1845.00,0.0075
1844.00,0.0075
1843.00,0.0076
1842.00,0.0076
1841.00,0.0076
1840.00,0.0076
1839.00,0.0076
1838.00,0.0076
1837.00,0.0076
1836.00,0.0077
1835.00,0.0077
1834.00,0.0077
1833.00,0.0077
1832.00,0.0077
1831.00,0.0076
1830.00,0.0076
1829.00,0.0076
1828.00,0.0077
1827.00,0.0077
1826.00,0.0077
1825.00,0.0078
1824.00,0.0079
1823.00,0.0080
1822.00,0.0079
1821.00,0.0079
1820.00,0.0079
1819.00,0.0078
1818.00,0.0077
1817.00,0.0077
1816.00,0.0078
1815.00,0.0079
1814.00,0.0079
1813.00,0.0079
1812.00,0.0079
1811.00,0.0080
1810.00,0.0080
1809.00,0.0081
1808.00,0.0082
1807.00,0.0083
1806.00,0.0083
1805.00,0.0083
1804.00,0.0083
1803.00,0.0082
1802.00,0.0082
1801.00,0.0083
1800.00,0.0084
1799.00,0.0085
1798.00,0.0085
1797.00,0.0085
1796.00,0.0086
1795.00,0.0086
1794.00,0.0086
1793.00,0.0087
1792.00,0.0088
1791.00,0.0089
1790.00,0.0090
1789.00,0.0090
1788.00,0.0091
1787.00,0.0091
1786.00,0.0091
1785.00,0.0091
1784.00,0.0092
1783.00,0.0092
1782.00,0.0091
1781.00,0.0091
1780.00,0.0092
1779.00,0.0093
1778.00,0.0093
1777.00,0.0093
1776.00,0.0094
1775.00,0.0094
1774.00,0.0094
1773.00,0.0094
1772.00,0.0096
1771.00,0.0097
1770.00,0.0098
1769.00,0.0099
1768.00,0.0100
1767.00,0.0101
1766.00,0.0101
1765.00,0.0101
1764.00,0.0102
1763.00,0.0102
1762.00,0.0103
1761.00,0.0104
1760.00,0.0106
1759.00,0.0106
1758.00,0.0107
1757.00,0.0109
1756.00,0.0111
1755.00,0.0113
1754.00,0.0113
1753.00,0.0114
1752.00,0.0115
1751.00,0.0116
1750.00,0.0117
1749.00,0.0119
1748.00,0.0121
1747.00,0.0122
1746.00,0.0123
1745.00,0.0123
1744.00,0.0125
1743.00,0.0127
1742.00,0.0128
1741.00,0.0131
1740.00,0.0133
1739.00,0.0135
1738.00,0.0135
1737.00,0.0135
1736.00,0.0137
1735.00,0.0138
1734.00,0.0139
1733.00,0.0140
1732.00,0.0142
1731.00,0.0144
1730.00,0.0145
1729.00,0.0148
1728.00,0.0151
1727.00,0.0153
1726.00,0.0155
1725.00,0.0157
1724.00,0.0160
1723.00,0.0163
1722.00,0.0166
1721.00,0.0169
1720.00,0.0172
1719.00,0.0175
1718.00,0.0178
1717.00,0.0184
1716.00,0.0192
1715.00,0.0201
1714.00,0.0209
1713.00,0.0217
1712.00,0.0226
1711.00,0.0236
1710.00,0.0246
1709.00,0.0259
1708.00,0.0276
1707.00,0.0296
1706.00,0.0321
1705.00,0.0354
1704.00,0.0390
1703.00,0.0426
1702.00,0.0469
1701.00,0.0524
1700.00,0.0580
1699.00,0.0617
1698.00,0.0634
1697.00,0.0645
1696.00,0.0656
1695.00,0.0668
1694.00,0.0677
1693.00,0.0684
1692.00,0.0694
1691.00,0.0707
1690.00,0.0724
1689.00,0.0743
1688.00,0.0762
1687.00,0.0780
1686.00,0.0801
1685.00,0.0832
1684.00,0.0875
1683.00,0.0914
1682.00,0.0942
1681.00,0.0967
1680.00,0.0995
1679.00,0.1024
1678.00,0.1054
1677.00,0.1087
1676.00,0.1128
1675.00,0.1174
1674.00,0.1214
1673.00,0.1249
1672.00,0.1282
1671.00,0.1320
1670.00,0.1367
1669.00,0.1420
1668.00,0.1471
1667.00,0.1514
1666.00,0.1551
1665.00,0.1590
1664.00,0.1639
1663.00,0.1696
1662.00,0.1756
1661.00,0.1813
1660.00,0.1866
1659.00,0.1918
1658.00,0.1966
1657.00,0.2010
1656.00,0.2050
1655.00,0.2096
1654.00,0.2168
1653.00,0.2276
1652.00,0.2373
1651.00,0.2427
1650.00,0.2454
1649.00,0.2482
1648.00,0.2530
1647.00,0.2600
1646.00,0.2678
1645.00,0.2746
1644.00,0.2801
1643.00,0.2848
1642.00,0.2894
1641.00,0.2946
1640.00,0.3000
1639.00,0.3050
1638.00,0.3099
1637.00,0.3164
1636.00,0.3257
1635.00,0.3362
1634.00,0.3447
1633.00,0.3510
1632.00,0.3563
1631.00,0.3620
1630.00,0.3683
1629.00,0.3756
1628.00,0.3836
1627.00,0.3911
1626.00,0.3974
1625.00,0.4032
1624.00,0.4094
1623.00,0.4156
1622.00,0.4198
1621.00,0.4211
1620.00,0.4196
1619.00,0.4164
1618.00,0.4118
1617.00,0.4064
1616.00,0.3998
1615.00,0.3913
1614.00,0.3809
1613.00,0.3692
1612.00,0.3569
1611.00,0.3442
1610.00,0.3309
1609.00,0.3171
1608.00,0.3030
1607.00,0.2890
1606.00,0.2751
1605.00,0.2614
1604.00,0.2483
1603.00,0.2359
1602.00,0.2243
1601.00,0.2136
1600.00,0.2037
1599.00,0.1946
1598.00,0.1864
1597.00,0.1787
1596.00,0.1717
1595.00,0.1654
1594.00,0.1597
1593.00,0.1547
1592.00,0.1501
1591.00,0.1460
1590.00,0.1425
1589.00,0.1394
1588.00,0.1367
1587.00,0.1342
1586.00,0.1319
1585.00,0.1298
1584.00,0.1279
1583.00,0.1261
1582.00,0.1246
1581.00,0.1232
1580.00,0.1217
1579.00,0.1204
1578.00,0.1193
1577.00,0.1188
1576.00,0.1189
1575.00,0.1192
1574.00,0.1192
1573.00,0.1189
1572.00,0.1186
1571.00,0.1188
1570.00,0.1197
1569.00,0.1209
1568.00,0.1221
1567.00,0.1229
1566.00,0.1239
1565.00,0.1250
1564.00,0.1262
1563.00,0.1270
1562.00,0.1275
1561.00,0.1281
1560.00,0.1296
1559.00,0.1326
1558.00,0.1356
1557.00,0.1370
1556.00,0.1373
1555.00,0.1376
1554.00,0.1382
1553.00,0.1390
1552.00,0.1395
1551.00,0.1399
1550.00,0.1406
1549.00,0.1415
1548.00,0.1422
1547.00,0.1425
1546.00,0.1429
1545.00,0.1435
1544.00,0.1441
1543.00,0.1448
1542.00,0.1456
1541.00,0.1470
1540.00,0.1492
1539.00,0.1517
1538.00,0.1532
1537.00,0.1538
1536.00,0.1540
1535.00,0.1547
1534.00,0.1562
1533.00,0.1583
1532.00,0.1602
1531.00,0.1614
1530.00,0.1624
1529.00,0.1635
1528.00,0.1647
1527.00,0.1661
1526.00,0.1676
1525.00,0.1689
1524.00,0.1699
1523.00,0.1710
1522.00,0.1731
1521.00,0.1764
1520.00,0.1800
1519.00,0.1834
1518.00,0.1872
1517.00,0.1917
1516.00,0.1959
1515.00,0.1979
1514.00,0.1970
1513.00,0.1934
1512.00,0.1876
1511.00,0.1802
1510.00,0.1723
1509.00,0.1645
1508.00,0.1569
1507.00,0.1500
1506.00,0.1441
1505.00,0.1388
1504.00,0.1338
1503.00,0.1291
1502.00,0.1247
1501.00,0.1208
1500.00,0.1174
1499.00,0.1143
1498.00,0.1117
1497.00,0.1096
1496.00,0.1082
1495.00,0.1070
1494.00,0.1061
1493.00,0.1054
1492.00,0.1052
1491.00,0.1056
1490.00,0.1066
1489.00,0.1084
1488.00,0.1108
1487.00,0.1133
1486.00,0.1161
1485.00,0.1192
1484.00,0.1226
1483.00,0.1262
1482.00,0.1304
1481.00,0.1350
1480.00,0.1397
1479.00,0.1443
1478.00,0.1490
1477.00,0.1541
1476.00,0.1593
1475.00,0.1645
1474.00,0.1701
1473.00,0.1765
1472.00,0.1833
1471.00,0.1891
1470.00,0.1937
1469.00,0.1975
1468.00,0.2010
1467.00,0.2045
1466.00,0.2085
1465.00,0.2130
1464.00,0.2173
1463.00,0.2206
1462.00,0.2230
1461.00,0.2250
1460.00,0.2268
1459.00,0.2293
1458.00,0.2333
1457.00,0.2392
1456.00,0.2451
1455.00,0.2490
1454.00,0.2513
1453.00,0.2533
1452.00,0.2555
1451.00,0.2576
1450.00,0.2596
1449.00,0.2615
1448.00,0.2633
1447.00,0.2647
1446.00,0.2654
1445.00,0.2657
1444.00,0.2656
1443.00,0.2653
1442.00,0.2648
1441.00,0.2639
1440.00,0.2623
1439.00,0.2600
1438.00,0.2574
1437.00,0.2547
1436.00,0.2515
1435.00,0.2471
1434.00,0.2417
1433.00,0.2358
1432.00,0.2297
1431.00,0.2237
1430.00,0.2179
1429.00,0.2123
1428.00,0.2070
1427.00,0.2017
1426.00,0.1967
1425.00,0.1919
1424.00,0.1876
1423.00,0.1837
1422.00,0.1801
1421.00,0.1769
1420.00,0.1743
1419.00,0.1726
1418.00,0.1714
1417.00,0.1703
1416.00,0.1692
1415.00,0.1683
1414.00,0.1676
1413.00,0.1670
1412.00,0.1666
1411.00,0.1664
1410.00,0.1662
1409.00,0.1659
1408.00,0.1654
1407.00,0.1648
1406.00,0.1642
1405.00,0.1634
1404.00,0.1624
1403.00,0.1611
1402.00,0.1594
1401.00,0.1572
1400.00,0.1548
1399.00,0.1523
1398.00,0.1496
1397.00,0.1467
1396.00,0.1438
1395.00,0.1410
1394.00,0.1384
1393.00,0.1358
1392.00,0.1331
1391.00,0.1305
1390.00,0.1281
1389.00,0.1259
1388.00,0.1239
1387.00,0.1224
1386.00,0.1211
1385.00,0.1200
1384.00,0.1189
1383.00,0.1180
1382.00,0.1172
1381.00,0.1165
1380.00,0.1158
1379.00,0.1152
1378.00,0.1145
1377.00,0.1138
1376.00,0.1131
1375.00,0.1126
1374.00,0.1125
1373.00,0.1126
1372.00,0.1128
1371.00,0.1129
1370.00,0.1130
1369.00,0.1130
1368.00,0.1128
1367.00,0.1125
1366.00,0.1119
1365.00,0.1110
1364.00,0.1101
1363.00,0.1093
1362.00,0.1089
1361.00,0.1086
1360.00,0.1084
1359.00,0.1082
1358.00,0.1081
1357.00,0.1081
1356.00,0.1082
1355.00,0.1084
1354.00,0.1086
1353.00,0.1089
1352.00,0.1091
1351.00,0.1094
1350.00,0.1097
1349.00,0.1101
1348.00,0.1105
1347.00,0.1109
1346.00,0.1115
1345.00,0.1120
1344.00,0.1125
1343.00,0.1130
1342.00,0.1135
1341.00,0.1139
1340.00,0.1143
1339.00,0.1149
1338.00,0.1153
1337.00,0.1156
1336.00,0.1156
1335.00,0.1154
1334.00,0.1149
1333.00,0.1141
1332.00,0.1131
1331.00,0.1119
1330.00,0.1107
1329.00,0.1092
1328.00,0.1076
1327.00,0.1060
1326.00,0.1043
1325.00,0.1025
1324.00,0.1008
1323.00,0.0991
1322.00,0.0975
1321.00,0.0960
1320.00,0.0945
1319.00,0.0932
1318.00,0.0920
1317.00,0.0908
1316.00,0.0897
1315.00,0.0886
1314.00,0.0875
1313.00,0.0865
1312.00,0.0855
1311.00,0.0846
1310.00,0.0837
1309.00,0.0828
1308.00,0.0820
1307.00,0.0812
1306.00,0.0805
1305.00,0.0799
1304.00,0.0793
1303.00,0.0789
1302.00,0.0784
1301.00,0.0780
1300.00,0.0776
1299.00,0.0771
1298.00,0.0767
1297.00,0.0761
1296.00,0.0754
1295.00,0.0747
1294.00,0.0741
1293.00,0.0734
1292.00,0.0728
1291.00,0.0723
1290.00,0.0719
1289.00,0.0717
1288.00,0.0716
1287.00,0.0718
1286.00,0.0721
1285.00,0.0725
1284.00,0.0729
1283.00,0.0735
1282.00,0.0743
1281.00,0.0751
1280.00,0.0759
1279.00,0.0770
1278.00,0.0783
1277.00,0.0797
1276.00,0.0813
1275.00,0.0832
1274.00,0.0854
1273.00,0.0878
1272.00,0.0904
1271.00,0.0933
1270.00,0.0963
1269.00,0.0993
1268.00,0.1023
1267.00,0.1053
1266.00,0.1081
1265.00,0.1106
1264.00,0.1128
1263.00,0.1148
1262.00,0.1164
1261.00,0.1176
1260.00,0.1185
1259.00,0.1191
1258.00,0.1194
1257.00,0.1193
1256.00,0.1190
1255.00,0.1184
1254.00,0.1176
1253.00,0.1167
1252.00,0.1156
1251.00,0.1145
1250.00,0.1134
1249.00,0.1123
1248.00,0.1113
1247.00,0.1105
1246.00,0.1099
1245.00,0.1094
1244.00,0.1091
1243.00,0.1090
1242.00,0.1093
1241.00,0.1097
1240.00,0.1103
1239.00,0.1112
1238.00,0.1123
1237.00,0.1136
1236.00,0.1151
1235.00,0.1167
1234.00,0.1183
1233.00,0.1199
1232.00,0.1213
1231.00,0.1226
1230.00,0.1238
1229.00,0.1246
1228.00,0.1252
1227.00,0.1257
1226.00,0.1260
1225.00,0.1261
1224.00,0.1262
1223.00,0.1263
1222.00,0.1264
1221.00,0.1264
1220.00,0.1264
1219.00,0.1265
1218.00,0.1265
1217.00,0.1264
1216.00,0.1262
1215.00,0.1259
1214.00,0.1255
1213.00,0.1249
1212.00,0.1243
1211.00,0.1235
1210.00,0.1227
1209.00,0.1218
1208.00,0.1208
1207.00,0.1197
1206.00,0.1185
1205.00,0.1173
1204.00,0.1160
1203.00,0.1147
1202.00,0.1134
1201.00,0.1120
1200.00,0.1106
1199.00,0.1091
1198.00,0.1076
1197.00,0.1060
1196.00,0.1045
1195.00,0.1029
1194.00,0.1014
1193.00,0.0998
1192.00,0.0983
1191.00,0.0969
1190.00,0.0955
1189.00,0.0943
1188.00,0.0931
1187.00,0.0920
1186.00,0.0912
1185.00,0.0905
1184.00,0.0900
1183.00,0.0898
1182.00,0.0899
1181.00,0.0902
1180.00,0.0908
1179.00,0.0917
1178.00,0.0927
1177.00,0.0939
1176.00,0.0950
1175.00,0.0962
1174.00,0.0971
1173.00,0.0978
1172.00,0.0982
1171.00,0.0983
1170.00,0.0983
1169.00,0.0981
1168.00,0.0979
1167.00,0.0976
1166.00,0.0974
1165.00,0.0970
1164.00,0.0966
1163.00,0.0960
1162.00,0.0953
1161.00,0.0944
1160.00,0.0934
1159.00,0.0923
1158.00,0.0911
1157.00,0.0897
1156.00,0.0883
1155.00,0.0868
1154.00,0.0854
1153.00,0.0840
1152.00,0.0825
1151.00,0.0811
1150.00,0.0798
1149.00,0.0785
1148.00,0.0773
1147.00,0.0763
1146.00,0.0754
1145.00,0.0746
1144.00,0.0738
1143.00,0.0732
1142.00,0.0727
1141.00,0.0723
1140.00,0.0718
1139.00,0.0715
1138.00,0.0712
1137.00,0.0710
1136.00,0.0708
1135.00,0.0707
1134.00,0.0706
1133.00,0.0705
1132.00,0.0703
1131.00,0.0703
1130.00,0.0703
1129.00,0.0704
1128.00,0.0704
1127.00,0.0704
1126.00,0.0705
1125.00,0.0705
1124.00,0.0706
1123.00,0.0707
1122.00,0.0708
1121.00,0.0710
1120.00,0.0712
1119.00,0.0715
1118.00,0.0719
1117.00,0.0723
1116.00,0.0728
1115.00,0.0733
1114.00,0.0740
1113.00,0.0745
1112.00,0.0751
1111.00,0.0757
1110.00,0.0763
1109.00,0.0768
1108.00,0.0772
1107.00,0.0776
1106.00,0.0779
1105.00,0.0780
1104.00,0.0779
1103.00,0.0779
1102.00,0.0778
1101.00,0.0778
1100.00,0.0777
1099.00,0.0778
1098.00,0.0780
1097.00,0.0783
1096.00,0.0786
1095.00,0.0791
1094.00,0.0797
1093.00,0.0803
1092.00,0.0810
1091.00,0.0817
1090.00,0.0825
1089.00,0.0833
1088.00,0.0840
1087.00,0.0848
1086.00,0.0855
1085.00,0.0862
1084.00,0.0868
1083.00,0.0874
1082.00,0.0880
1081.00,0.0885
1080.00,0.0890
1079.00,0.0895
1078.00,0.0899
1077.00,0.0903
1076.00,0.0907
1075.00,0.0911
1074.00,0.0916
1073.00,0.0921
1072.00,0.0926
1071.00,0.0933
1070.00,0.0941
1069.00,0.0950
1068.00,0.0959
1067.00,0.0969
1066.00,0.0980
1065.00,0.0990
1064.00,0.0999
1063.00,0.1009
1062.00,0.1018
1061.00,0.1025
1060.00,0.1032
1059.00,0.1037
1058.00,0.1042
1057.00,0.1046
1056.00,0.1049
1055.00,0.1053
1054.00,0.1057
1053.00,0.1060
1052.00,0.1063
1051.00,0.1066
1050.00,0.1068
1049.00,0.1069
1048.00,0.1069
1047.00,0.1068
1046.00,0.1066
1045.00,0.1062
1044.00,0.1057
1043.00,0.1051
1042.00,0.1045
1041.00,0.1038
1040.00,0.1030
1039.00,0.1023
1038.00,0.1015
1037.00,0.1007
1036.00,0.0998
1035.00,0.0988
1034.00,0.0979
1033.00,0.0969
1032.00,0.0958
1031.00,0.0948
1030.00,0.0939
1029.00,0.0929
1028.00,0.0920
1027.00,0.0912
1026.00,0.0905
1025.00,0.0898
1024.00,0.0893
1023.00,0.0889
1022.00,0.0886
1021.00,0.0885
1020.00,0.0883
1019.00,0.0883
1018.00,0.0883
1017.00,0.0883
1016.00,0.0883
1015.00,0.0882
1014.00,0.0882
1013.00,0.0883
1012.00,0.0884
1011.00,0.0886
1010.00,0.0891
1009.00,0.0896
1008.00,0.0903
1007.00,0.0911
1006.00,0.0921
1005.00,0.0932
1004.00,0.0943
1003.00,0.0954
1002.00,0.0965
1001.00,0.0974
1000.00,0.0980
999.00,0.0984
998.00,0.0985
997.00,0.0982
996.00,0.0976
995.00,0.0968
994.00,0.0958
993.00,0.0947
992.00,0.0936
991.00,0.0926
990.00,0.0917
989.00,0.0909
988.00,0.0903
987.00,0.0899
986.00,0.0898
985.00,0.0897
984.00,0.0898
983.00,0.0900
982.00,0.0903
981.00,0.0907
980.00,0.0911
979.00,0.0915
978.00,0.0918
977.00,0.0920
976.00,0.0920
975.00,0.0918
974.00,0.0914
973.00,0.0910
972.00,0.0903
971.00,0.0896
970.00,0.0889
969.00,0.0882
968.00,0.0874
967.00,0.0868
966.00,0.0863
965.00,0.0859
964.00,0.0855
963.00,0.0852
962.00,0.0850
961.00,0.0847
960.00,0.0844
959.00,0.0842
958.00,0.0839
957.00,0.0837
956.00,0.0833
955.00,0.0829
954.00,0.0826
953.00,0.0821
952.00,0.0816
951.00,0.0811
950.00,0.0806
949.00,0.0801
948.00,0.0795
947.00,0.0790
946.00,0.0785
945.00,0.0780
944.00,0.0775
943.00,0.0770
942.00,0.0767
941.00,0.0763
940.00,0.0759
939.00,0.0757
938.00,0.0755
937.00,0.0754
936.00,0.0751
935.00,0.0750
934.00,0.0748
933.00,0.0745
932.00,0.0741
931.00,0.0737
930.00,0.0734
929.00,0.0729
928.00,0.0724
927.00,0.0718
926.00,0.0713
925.00,0.0706
924.00,0.0698
923.00,0.0690
922.00,0.0683
921.00,0.0674
920.00,0.0666
919.00,0.0658
918.00,0.0650
917.00,0.0643
916.00,0.0635
915.00,0.0628
914.00,0.0622
913.00,0.0616
912.00,0.0610
911.00,0.0604
910.00,0.0599
909.00,0.0594
908.00,0.0589
907.00,0.0585
906.00,0.0582
905.00,0.0579
904.00,0.0576
903.00,0.0574
902.00,0.0573
901.00,0.0572
900.00,0.0570
899.00,0.0568
898.00,0.0566
897.00,0.0564
896.00,0.0561
895.00,0.0559
894.00,0.0556
893.00,0.0554
892.00,0.0551
891.00,0.0548
890.00,0.0546
889.00,0.0545
888.00,0.0543
887.00,0.0541
886.00,0.0541
885.00,0.0540
884.00,0.0539
883.00,0.0538
882.00,0.0538
881.00,0.0537
880.00,0.0536
879.00,0.0535
878.00,0.0535
877.00,0.0534
876.00,0.0533
875.00,0.0532
874.00,0.0531
873.00,0.0530
872.00,0.0528
871.00,0.0526
870.00,0.0525
869.00,0.0524
868.00,0.0522
867.00,0.0521
866.00,0.0520
865.00,0.0520
864.00,0.0521
863.00,0.0522
862.00,0.0524
861.00,0.0527
860.00,0.0531
859.00,0.0535
858.00,0.0541
857.00,0.0548
856.00,0.0554
855.00,0.0561
854.00,0.0568
853.00,0.0574
852.00,0.0578
851.00,0.0582
850.00,0.0584
849.00,0.0585
848.00,0.0584
847.00,0.0582
846.00,0.0581
845.00,0.0580
844.00,0.0580
843.00,0.0580
842.00,0.0581
841.00,0.0582
840.00,0.0584
839.00,0.0587
838.00,0.0591
837.00,0.0595
836.00,0.0598
835.00,0.0603
834.00,0.0608
833.00,0.0613
832.00,0.0616
831.00,0.0620
830.00,0.0624
829.00,0.0626
828.00,0.0626
827.00,0.0625
826.00,0.0622
825.00,0.0617
824.00,0.0610
823.00,0.0604
822.00,0.0598
821.00,0.0593
820.00,0.0587
819.00,0.0583
818.00,0.0580
817.00,0.0577
816.00,0.0575
815.00,0.0573
814.00,0.0573
813.00,0.0573
812.00,0.0574
811.00,0.0575
810.00,0.0577
809.00,0.0579
808.00,0.0579
807.00,0.0580
806.00,0.0581
805.00,0.0583
804.00,0.0585
803.00,0.0587
802.00,0.0590
801.00,0.0592
800.00,0.0593
799.00,0.0595
798.00,0.0598
797.00,0.0600
796.00,0.0602
795.00,0.0604
794.00,0.0608
793.00,0.0611
792.00,0.0614
791.00,0.0618
790.00,0.0623
789.00,0.0629
788.00,0.0634
787.00,0.0640
786.00,0.0647
785.00,0.0655
784.00,0.0661
783.00,0.0668
782.00,0.0676
781.00,0.0683
780.00,0.0689
779.00,0.0696
778.00,0.0703
777.00,0.0709
776.00,0.0716
775.00,0.0723
774.00,0.0731
773.00,0.0739
772.00,0.0746
771.00,0.0754
770.00,0.0761
769.00,0.0768
768.00,0.0774
767.00,0.0780
766.00,0.0785
765.00,0.0790
764.00,0.0794
763.00,0.0797
762.00,0.0801
761.00,0.0804
760.00,0.0808
759.00,0.0812
758.00,0.0816
757.00,0.0821
756.00,0.0826
755.00,0.0832
754.00,0.0838
753.00,0.0844
752.00,0.0849
751.00,0.0855
750.00,0.0862
749.00,0.0868
748.00,0.0875
747.00,0.0882
746.00,0.0891
745.00,0.0899
744.00,0.0907
743.00,0.0915
742.00,0.0925
741.00,0.0934
740.00,0.0944
739.00,0.0955
738.00,0.0966
737.00,0.0978
736.00,0.0989
735.00,0.1002
734.00,0.1015
733.00,0.1028
732.00,0.1041
731.00,0.1055
730.00,0.1069
729.00,0.1083
728.00,0.1096
727.00,0.1109
726.00,0.1122
725.00,0.1135
724.00,0.1147
723.00,0.1158
722.00,0.1170
721.00,0.1181
720.00,0.1190
719.00,0.1197
718.00,0.1203
717.00,0.1208
716.00,0.1212
715.00,0.1216
714.00,0.1222
713.00,0.1228
712.00,0.1235
711.00,0.1242
710.00,0.1251
709.00,0.1261
708.00,0.1270
707.00,0.1279
706.00,0.1290
705.00,0.1300
704.00,0.1310
703.00,0.1318
702.00,0.1327
701.00,0.1334
700.00,0.1339
699.00,0.1343
698.00,0.1346
697.00,0.1348
696.00,0.1349
695.00,0.1350
694.00,0.1351
693.00,0.1352
692.00,0.1351
691.00,0.1349
690.00,0.1349
689.00,0.1347
688.00,0.1346
687.00,0.1344
686.00,0.1344
685.00,0.1343
684.00,0.1342
683.00,0.1341
682.00,0.1340
681.00,0.1340
680.00,0.1338
679.00,0.1338
678.00,0.1338
677.00,0.1340
676.00,0.1340
675.00,0.1341
674.00,0.1343
673.00,0.1344
672.00,0.1341
671.00,0.1336
670.00,0.1329
669.00,0.1326
668.00,0.1334
667.00,0.1352
666.00,0.1364
665.00,0.1367
664.00,0.1367
663.00,0.1369
662.00,0.1373
661.00,0.1376
660.00,0.1380
659.00,0.1384
658.00,0.1389
657.00,0.1395
656.00,0.1401
655.00,0.1407
654.00,0.1415
653.00,0.1421
652.00,0.1427
651.00,0.1433
650.00,0.1440
649.00,0.1446
648.00,0.1451
647.00,0.1457
646.00,0.1462
645.00,0.1467
644.00,0.1471
643.00,0.1474
642.00,0.1478
641.00,0.1481
640.00,0.1481
639.00,0.1482
638.00,0.1482
637.00,0.1482
636.00,0.1481
635.00,0.1481
634.00,0.1482
633.00,0.1482
632.00,0.1482
631.00,0.1482
630.00,0.1484
629.00,0.1485
628.00,0.1485
627.00,0.1486
626.00,0.1489
625.00,0.1492
624.00,0.1496
623.00,0.1502
622.00,0.1512
621.00,0.1523
620.00,0.1535
619.00,0.1551
618.00,0.1569
617.00,0.1587
616.00,0.1603
615.00,0.1618
614.00,0.1632
613.00,0.1643
612.00,0.1651
611.00,0.1656
610.00,0.1658
609.00,0.1656
608.00,0.1650
607.00,0.1643
606.00,0.1635
605.00,0.1628
604.00,0.1620
603.00,0.1613
602.00,0.1608
601.00,0.1604
600.00,0.1600
599.00,0.1598
598.00,0.1598
597.00,0.1599
596.00,0.1601
595.00,0.1604
594.00,0.1609
593.00,0.1613
592.00,0.1617
591.00,0.1621
590.00,0.1627
589.00,0.1633
588.00,0.1638
587.00,0.1644
586.00,0.1651
585.00,0.1659
584.00,0.1665
583.00,0.1672
582.00,0.1679
581.00,0.1687
580.00,0.1694
579.00,0.1703
578.00,0.1714
577.00,0.1724
576.00,0.1734
575.00,0.1746
574.00,0.1759
573.00,0.1773
572.00,0.1785
571.00,0.1798
570.00,0.1813
569.00,0.1829
568.00,0.1846
567.00,0.1865
566.00,0.1887
565.00,0.1910
564.00,0.1934
563.00,0.1959
562.00,0.1988
561.00,0.2019
560.00,0.2049
559.00,0.2081
558.00,0.2113
557.00,0.2142
556.00,0.2169
555.00,0.2194
554.00,0.2219
553.00,0.2240
552.00,0.2257
551.00,0.2271
550.00,0.2284
549.00,0.2295
548.00,0.2304
547.00,0.2312
546.00,0.2320
545.00,0.2327
544.00,0.2331
543.00,0.2334
542.00,0.2339
541.00,0.2343
540.00,0.2346
539.00,0.2350
538.00,0.2356
537.00,0.2362
536.00,0.2368
535.00,0.2376
534.00,0.2385
533.00,0.2394
532.00,0.2402
531.00,0.2409
530.00,0.2418
529.00,0.2425
528.00,0.2432
527.00,0.2439
526.00,0.2450
525.00,0.2462
524.00,0.2472
523.00,0.2482
522.00,0.2491
521.00,0.2500
520.00,0.2507
519.00,0.2515
518.00,0.2527
517.00,0.2538
516.00,0.2547
515.00,0.2555
514.00,0.2564
513.00,0.2571
512.00,0.2577
511.00,0.2583
510.00,0.2591
509.00,0.2597
508.00,0.2603
507.00,0.2610
506.00,0.2618
505.00,0.2624
504.00,0.2626
503.00,0.2628
502.00,0.2633
501.00,0.2639
500.00,0.2643
499.00,0.2646
498.00,0.2652
497.00,0.2657
496.00,0.2661
495.00,0.2666
494.00,0.2673
493.00,0.2680
492.00,0.2686
491.00,0.2693
490.00,0.2702
489.00,0.2711
488.00,0.2717
487.00,0.2723
486.00,0.2729
485.00,0.2734
484.00,0.2737
483.00,0.2743
482.00,0.2752
481.00,0.2759
480.00,0.2762
479.00,0.2763
478.00,0.2767
477.00,0.2770
476.00,0.2772
475.00,0.2775
474.00,0.2779
473.00,0.2782
472.00,0.2786
471.00,0.2792
470.00,0.2801
469.00,0.2806
468.00,0.2806
467.00,0.2808
466.00,0.2814
465.00,0.2819
464.00,0.2821
463.00,0.2824
462.00,0.2830
461.00,0.2835
460.00,0.2836
459.00,0.2836
458.00,0.2839
457.00,0.2841
456.00,0.2841
455.00,0.2842
454.00,0.2846
453.00,0.2852
452.00,0.2857
451.00,0.2863
450.00,0.2869
449.00,0.2872
448.00,0.2871
447.00,0.2874
446.00,0.2882
445.00,0.2890
444.00,0.2894
443.00,0.2899
442.00,0.2906
441.00,0.2912
440.00,0.2914
439.00,0.2919
438.00,0.2927
437.00,0.2934
436.00,0.2935
435.00,0.2940
434.00,0.2956
433.00,0.2975
432.00,0.2993
431.00,0.3010
430.00,0.3030
429.00,0.3049
428.00,0.3064
427.00,0.3079
426.00,0.3097
425.00,0.3111
424.00,0.3118
423.00,0.3125
422.00,0.3132
421.00,0.3130
420.00,0.3117
419.00,0.3106
418.00,0.3111
417.00,0.3117
416.00,0.3112
415.00,0.3104
414.00,0.3102
413.00,0.3102
412.00,0.3093
411.00,0.3082
410.00,0.3076
409.00,0.3072
408.00,0.3067
407.00,0.3066
406.00,0.3073
405.00,0.3075
404.00,0.3065
403.00,0.3054
402.00,0.3050
401.00,0.3046
400.00,0.3037
