Created as New Dataset,Sample 558 By YargerLab Date Sunday, March 08 2026
cm-1,A
4000.00,0.0002
3999.00,0.0002
3998.00,0.0002
3997.00,0.0002
3996.00,0.0002
3995.00,0.0002
3994.00,0.0002
3993.00,0.0002
3992.00,0.0002
3991.00,0.0002
3990.00,0.0002
3989.00,0.0002
3988.00,0.0002
3987.00,0.0002
3986.00,0.0002
3985.00,0.0002
3984.00,0.0002
3983.00,0.0002
3982.00,0.0002
3981.00,0.0002
3980.00,0.0002
3979.00,0.0002
3978.00,0.0002
3977.00,0.0002
3976.00,0.0002
3975.00,0.0002
3974.00,0.0002
3973.00,0.0002
3972.00,0.0002
3971.00,0.0002
3970.00,0.0002
3969.00,0.0002
3968.00,0.0002
3967.00,0.0002
3966.00,0.0002
3965.00,0.0002
3964.00,0.0002
3963.00,0.0002
3962.00,0.0002
3961.00,0.0002
3960.00,0.0002
3959.00,0.0002
3958.00,0.0002
3957.00,0.0002
3956.00,0.0002
3955.00,0.0002
3954.00,0.0002
3953.00,0.0002
3952.00,0.0002
3951.00,0.0002
3950.00,0.0002
3949.00,0.0002
3948.00,0.0002
3947.00,0.0002
3946.00,0.0002
3945.00,0.0002
3944.00,0.0002
3943.00,0.0002
3942.00,0.0002
3941.00,0.0002
3940.00,0.0002
3939.00,0.0002
3938.00,0.0002
3937.00,0.0002
3936.00,0.0002
3935.00,0.0002
3934.00,0.0002
3933.00,0.0002
3932.00,0.0002
3931.00,0.0002
3930.00,0.0002
3929.00,0.0002
3928.00,0.0002
3927.00,0.0002
3926.00,0.0002
3925.00,0.0002
3924.00,0.0002
3923.00,0.0002
3922.00,0.0002
3921.00,0.0002
3920.00,0.0002
3919.00,0.0002
3918.00,0.0002
3917.00,0.0002
3916.00,0.0002
3915.00,0.0002
3914.00,0.0002
3913.00,0.0002
3912.00,0.0002
3911.00,0.0002
3910.00,0.0002
3909.00,0.0002
3908.00,0.0002
3907.00,0.0002
3906.00,0.0002
3905.00,0.0002
3904.00,0.0002
3903.00,0.0002
3902.00,0.0002
3901.00,0.0002
3900.00,0.0002
3899.00,0.0002
3898.00,0.0002
3897.00,0.0002
3896.00,0.0002
3895.00,0.0002
3894.00,0.0002
3893.00,0.0002
3892.00,0.0002
3891.00,0.0002
3890.00,0.0002
3889.00,0.0002
3888.00,0.0002
3887.00,0.0002
3886.00,0.0002
3885.00,0.0002
3884.00,0.0002
3883.00,0.0002
3882.00,0.0002
3881.00,0.0002
3880.00,0.0002
3879.00,0.0002
3878.00,0.0002
3877.00,0.0002
3876.00,0.0002
3875.00,0.0002
3874.00,0.0002
3873.00,0.0002
3872.00,0.0002
3871.00,0.0002
3870.00,0.0002
3869.00,0.0002
3868.00,0.0002
3867.00,0.0002
3866.00,0.0002
3865.00,0.0002
3864.00,0.0002
3863.00,0.0002
3862.00,0.0002
3861.00,0.0002
3860.00,0.0002
3859.00,0.0002
3858.00,0.0002
3857.00,0.0002
3856.00,0.0002
3855.00,0.0002
3854.00,0.0002
3853.00,0.0002
3852.00,0.0002
3851.00,0.0002
3850.00,0.0002
3849.00,0.0002
3848.00,0.0002
3847.00,0.0002
3846.00,0.0002
3845.00,0.0002
3844.00,0.0002
3843.00,0.0002
3842.00,0.0002
3841.00,0.0002
3840.00,0.0002
3839.00,0.0002
3838.00,0.0002
3837.00,0.0002
3836.00,0.0002
3835.00,0.0002
3834.00,0.0002
3833.00,0.0002
3832.00,0.0002
3831.00,0.0002
3830.00,0.0002
3829.00,0.0002
3828.00,0.0002
3827.00,0.0002
3826.00,0.0002
3825.00,0.0003
3824.00,0.0002
3823.00,0.0002
3822.00,0.0002
3821.00,0.0002
3820.00,0.0002
3819.00,0.0002
3818.00,0.0003
3817.00,0.0003
3816.00,0.0003
3815.00,0.0003
3814.00,0.0003
3813.00,0.0003
3812.00,0.0003
3811.00,0.0003
3810.00,0.0003
3809.00,0.0003
3808.00,0.0003
3807.00,0.0003
3806.00,0.0003
3805.00,0.0003
3804.00,0.0003
3803.00,0.0002
3802.00,0.0002
3801.00,0.0002
3800.00,0.0002
3799.00,0.0002
3798.00,0.0002
3797.00,0.0002
3796.00,0.0002
3795.00,0.0003
3794.00,0.0003
3793.00,0.0002
3792.00,0.0002
3791.00,0.0003
3790.00,0.0003
3789.00,0.0003
3788.00,0.0003
3787.00,0.0003
3786.00,0.0003
3785.00,0.0003
3784.00,0.0003
3783.00,0.0003
3782.00,0.0003
3781.00,0.0003
3780.00,0.0003
3779.00,0.0002
3778.00,0.0003
3777.00,0.0003
3776.00,0.0003
3775.00,0.0003
3774.00,0.0003
3773.00,0.0003
3772.00,0.0003
3771.00,0.0003
3770.00,0.0003
3769.00,0.0002
3768.00,0.0003
3767.00,0.0003
3766.00,0.0003
3765.00,0.0003
3764.00,0.0003
3763.00,0.0003
3762.00,0.0003
3761.00,0.0003
3760.00,0.0003
3759.00,0.0003
3758.00,0.0003
3757.00,0.0003
3756.00,0.0003
3755.00,0.0003
3754.00,0.0003
3753.00,0.0003
3752.00,0.0003
3751.00,0.0003
3750.00,0.0003
3749.00,0.0003
3748.00,0.0003
3747.00,0.0003
3746.00,0.0002
3745.00,0.0002
3744.00,0.0002
3743.00,0.0002
3742.00,0.0002
3741.00,0.0002
3740.00,0.0002
3739.00,0.0002
3738.00,0.0002
3737.00,0.0002
3736.00,0.0002
3735.00,0.0002
3734.00,0.0002
3733.00,0.0002
3732.00,0.0003
3731.00,0.0003
3730.00,0.0002
3729.00,0.0002
3728.00,0.0002
3727.00,0.0002
3726.00,0.0002
3725.00,0.0002
3724.00,0.0002
3723.00,0.0002
3722.00,0.0002
3721.00,0.0002
3720.00,0.0002
3719.00,0.0002
3718.00,0.0002
3717.00,0.0002
3716.00,0.0002
3715.00,0.0002
3714.00,0.0002
3713.00,0.0002
3712.00,0.0002
3711.00,0.0002
3710.00,0.0002
3709.00,0.0002
3708.00,0.0002
3707.00,0.0002
3706.00,0.0002
3705.00,0.0002
3704.00,0.0002
3703.00,0.0002
3702.00,0.0002
3701.00,0.0002
3700.00,0.0002
3699.00,0.0002
3698.00,0.0002
3697.00,0.0002
3696.00,0.0002
3695.00,0.0002
3694.00,0.0002
3693.00,0.0002
3692.00,0.0002
3691.00,0.0002
3690.00,0.0002
3689.00,0.0002
3688.00,0.0001
3687.00,0.0001
3686.00,0.0001
3685.00,0.0001
3684.00,0.0002
3683.00,0.0002
3682.00,0.0002
3681.00,0.0002
3680.00,0.0002
3679.00,0.0002
3678.00,0.0002
3677.00,0.0001
3676.00,0.0001
3675.00,0.0001
3674.00,0.0001
3673.00,0.0001
3672.00,0.0000
3671.00,0.0001
3670.00,0.0001
3669.00,0.0001
3668.00,0.0001
3667.00,0.0001
3666.00,0.0001
3665.00,0.0001
3664.00,0.0002
3663.00,0.0002
3662.00,0.0002
3661.00,0.0002
3660.00,0.0002
3659.00,0.0002
3658.00,0.0002
3657.00,0.0002
3656.00,0.0002
3655.00,0.0002
3654.00,0.0002
3653.00,0.0002
3652.00,0.0002
3651.00,0.0002
3650.00,0.0002
3649.00,0.0002
3648.00,0.0002
3647.00,0.0001
3646.00,0.0001
3645.00,0.0001
3644.00,0.0001
3643.00,0.0002
3642.00,0.0002
3641.00,0.0002
3640.00,0.0002
3639.00,0.0002
3638.00,0.0002
3637.00,0.0002
3636.00,0.0002
3635.00,0.0002
3634.00,0.0001
3633.00,0.0001
3632.00,0.0001
3631.00,0.0001
3630.00,0.0001
3629.00,0.0002
3628.00,0.0002
3627.00,0.0001
3626.00,0.0001
3625.00,0.0001
3624.00,0.0001
3623.00,0.0001
3622.00,0.0001
3621.00,0.0001
3620.00,0.0001
3619.00,0.0001
3618.00,0.0001
3617.00,0.0001
3616.00,0.0001
3615.00,0.0002
3614.00,0.0002
3613.00,0.0002
3612.00,0.0002
3611.00,0.0002
3610.00,0.0002
3609.00,0.0002
3608.00,0.0001
3607.00,0.0001
3606.00,0.0001
3605.00,0.0001
3604.00,0.0001
3603.00,0.0001
3602.00,0.0001
3601.00,0.0001
3600.00,0.0001
3599.00,0.0002
3598.00,0.0001
3597.00,0.0001
3596.00,0.0001
3595.00,0.0001
3594.00,0.0001
3593.00,0.0001
3592.00,0.0001
3591.00,0.0001
3590.00,0.0001
3589.00,0.0001
3588.00,0.0001
3587.00,0.0001
3586.00,0.0001
3585.00,0.0001
3584.00,0.0001
3583.00,0.0001
3582.00,0.0001
3581.00,0.0001
3580.00,0.0002
3579.00,0.0002
3578.00,0.0001
3577.00,0.0001
3576.00,0.0001
3575.00,0.0001
3574.00,0.0001
3573.00,0.0001
3572.00,0.0002
3571.00,0.0002
3570.00,0.0002
3569.00,0.0001
3568.00,0.0001
3567.00,0.0001
3566.00,0.0001
3565.00,0.0001
3564.00,0.0001
3563.00,0.0001
3562.00,0.0001
3561.00,0.0001
3560.00,0.0002
3559.00,0.0002
3558.00,0.0002
3557.00,0.0002
3556.00,0.0002
3555.00,0.0002
3554.00,0.0002
3553.00,0.0002
3552.00,0.0002
3551.00,0.0002
3550.00,0.0002
3549.00,0.0002
3548.00,0.0002
3547.00,0.0002
3546.00,0.0002
3545.00,0.0002
3544.00,0.0002
3543.00,0.0002
3542.00,0.0002
3541.00,0.0002
3540.00,0.0002
3539.00,0.0002
3538.00,0.0002
3537.00,0.0002
3536.00,0.0002
3535.00,0.0002
3534.00,0.0002
3533.00,0.0002
3532.00,0.0002
3531.00,0.0002
3530.00,0.0002
3529.00,0.0002
3528.00,0.0002
3527.00,0.0002
3526.00,0.0002
3525.00,0.0002
3524.00,0.0003
3523.00,0.0003
3522.00,0.0003
3521.00,0.0003
3520.00,0.0003
3519.00,0.0003
3518.00,0.0003
3517.00,0.0003
3516.00,0.0003
3515.00,0.0003
3514.00,0.0003
3513.00,0.0003
3512.00,0.0003
3511.00,0.0003
3510.00,0.0003
3509.00,0.0003
3508.00,0.0003
3507.00,0.0003
3506.00,0.0003
3505.00,0.0003
3504.00,0.0003
3503.00,0.0003
3502.00,0.0003
3501.00,0.0003
3500.00,0.0003
3499.00,0.0003
3498.00,0.0003
3497.00,0.0003
3496.00,0.0003
3495.00,0.0003
3494.00,0.0003
3493.00,0.0003
3492.00,0.0003
3491.00,0.0003
3490.00,0.0003
3489.00,0.0003
3488.00,0.0004
3487.00,0.0004
3486.00,0.0003
3485.00,0.0003
3484.00,0.0003
3483.00,0.0003
3482.00,0.0003
3481.00,0.0003
3480.00,0.0004
3479.00,0.0004
3478.00,0.0004
3477.00,0.0004
3476.00,0.0004
3475.00,0.0004
3474.00,0.0004
3473.00,0.0004
3472.00,0.0004
3471.00,0.0004
3470.00,0.0004
3469.00,0.0004
3468.00,0.0003
3467.00,0.0003
3466.00,0.0003
3465.00,0.0003
3464.00,0.0003
3463.00,0.0003
3462.00,0.0004
3461.00,0.0004
3460.00,0.0004
3459.00,0.0004
3458.00,0.0004
3457.00,0.0004
3456.00,0.0004
3455.00,0.0004
3454.00,0.0004
3453.00,0.0004
3452.00,0.0004
3451.00,0.0004
3450.00,0.0004
3449.00,0.0004
3448.00,0.0004
3447.00,0.0004
3446.00,0.0003
3445.00,0.0004
3444.00,0.0004
3443.00,0.0004
3442.00,0.0004
3441.00,0.0004
3440.00,0.0004
3439.00,0.0004
3438.00,0.0004
3437.00,0.0004
3436.00,0.0004
3435.00,0.0004
3434.00,0.0004
3433.00,0.0004
3432.00,0.0004
3431.00,0.0004
3430.00,0.0004
3429.00,0.0004
3428.00,0.0004
3427.00,0.0004
3426.00,0.0004
3425.00,0.0004
3424.00,0.0004
3423.00,0.0004
3422.00,0.0004
3421.00,0.0004
3420.00,0.0004
3419.00,0.0004
3418.00,0.0004
3417.00,0.0004
3416.00,0.0004
3415.00,0.0004
3414.00,0.0004
3413.00,0.0004
3412.00,0.0004
3411.00,0.0004
3410.00,0.0004
3409.00,0.0004
3408.00,0.0004
3407.00,0.0004
3406.00,0.0004
3405.00,0.0004
3404.00,0.0004
3403.00,0.0004
3402.00,0.0004
3401.00,0.0004
3400.00,0.0004
3399.00,0.0004
3398.00,0.0004
3397.00,0.0004
3396.00,0.0004
3395.00,0.0004
3394.00,0.0004
3393.00,0.0004
3392.00,0.0004
3391.00,0.0003
3390.00,0.0003
3389.00,0.0003
3388.00,0.0003
3387.00,0.0004
3386.00,0.0004
3385.00,0.0004
3384.00,0.0004
3383.00,0.0004
3382.00,0.0004
3381.00,0.0004
3380.00,0.0004
3379.00,0.0004
3378.00,0.0004
3377.00,0.0004
3376.00,0.0004
3375.00,0.0004
3374.00,0.0004
3373.00,0.0004
3372.00,0.0004
3371.00,0.0004
3370.00,0.0004
3369.00,0.0004
3368.00,0.0004
3367.00,0.0004
3366.00,0.0004
3365.00,0.0004
3364.00,0.0004
3363.00,0.0004
3362.00,0.0004
3361.00,0.0004
3360.00,0.0004
3359.00,0.0004
3358.00,0.0004
3357.00,0.0004
3356.00,0.0004
3355.00,0.0004
3354.00,0.0004
3353.00,0.0004
3352.00,0.0004
3351.00,0.0004
3350.00,0.0004
3349.00,0.0004
3348.00,0.0004
3347.00,0.0004
3346.00,0.0004
3345.00,0.0004
3344.00,0.0004
3343.00,0.0004
3342.00,0.0004
3341.00,0.0004
3340.00,0.0004
3339.00,0.0004
3338.00,0.0004
3337.00,0.0004
3336.00,0.0004
3335.00,0.0004
3334.00,0.0004
3333.00,0.0004
3332.00,0.0004
3331.00,0.0004
3330.00,0.0004
3329.00,0.0004
3328.00,0.0004
3327.00,0.0004
3326.00,0.0004
3325.00,0.0004
3324.00,0.0004
3323.00,0.0004
3322.00,0.0004
3321.00,0.0004
3320.00,0.0004
3319.00,0.0004
3318.00,0.0004
3317.00,0.0004
3316.00,0.0004
3315.00,0.0004
3314.00,0.0004
3313.00,0.0004
3312.00,0.0004
3311.00,0.0004
3310.00,0.0004
3309.00,0.0004
3308.00,0.0004
3307.00,0.0004
3306.00,0.0004
3305.00,0.0004
3304.00,0.0004
3303.00,0.0004
3302.00,0.0004
3301.00,0.0004
3300.00,0.0004
3299.00,0.0004
3298.00,0.0004
3297.00,0.0004
3296.00,0.0004
3295.00,0.0004
3294.00,0.0004
3293.00,0.0004
3292.00,0.0004
3291.00,0.0004
3290.00,0.0004
3289.00,0.0004
3288.00,0.0004
3287.00,0.0004
3286.00,0.0004
3285.00,0.0004
3284.00,0.0004
3283.00,0.0004
3282.00,0.0004
3281.00,0.0004
3280.00,0.0004
3279.00,0.0004
3278.00,0.0004
3277.00,0.0004
3276.00,0.0004
3275.00,0.0004
3274.00,0.0004
3273.00,0.0004
3272.00,0.0004
3271.00,0.0004
3270.00,0.0004
3269.00,0.0004
3268.00,0.0004
3267.00,0.0004
3266.00,0.0004
3265.00,0.0004
3264.00,0.0004
3263.00,0.0004
3262.00,0.0004
3261.00,0.0004
3260.00,0.0004
3259.00,0.0004
3258.00,0.0004
3257.00,0.0004
3256.00,0.0004
3255.00,0.0004
3254.00,0.0004
3253.00,0.0004
3252.00,0.0003
3251.00,0.0003
3250.00,0.0004
3249.00,0.0004
3248.00,0.0004
3247.00,0.0004
3246.00,0.0004
3245.00,0.0004
3244.00,0.0004
3243.00,0.0004
3242.00,0.0004
3241.00,0.0004
3240.00,0.0004
3239.00,0.0003
3238.00,0.0003
3237.00,0.0003
3236.00,0.0003
3235.00,0.0003
3234.00,0.0003
3233.00,0.0004
3232.00,0.0004
3231.00,0.0004
3230.00,0.0004
3229.00,0.0003
3228.00,0.0003
3227.00,0.0003
3226.00,0.0003
3225.00,0.0003
3224.00,0.0003
3223.00,0.0003
3222.00,0.0004
3221.00,0.0003
3220.00,0.0003
3219.00,0.0003
3218.00,0.0003
3217.00,0.0003
3216.00,0.0003
3215.00,0.0003
3214.00,0.0003
3213.00,0.0003
3212.00,0.0003
3211.00,0.0004
3210.00,0.0004
3209.00,0.0004
3208.00,0.0004
3207.00,0.0003
3206.00,0.0003
3205.00,0.0003
3204.00,0.0003
3203.00,0.0003
3202.00,0.0003
3201.00,0.0004
3200.00,0.0004
3199.00,0.0003
3198.00,0.0003
3197.00,0.0003
3196.00,0.0003
3195.00,0.0003
3194.00,0.0003
3193.00,0.0003
3192.00,0.0003
3191.00,0.0003
3190.00,0.0003
3189.00,0.0003
3188.00,0.0003
3187.00,0.0003
3186.00,0.0003
3185.00,0.0003
3184.00,0.0003
3183.00,0.0003
3182.00,0.0003
3181.00,0.0003
3180.00,0.0003
3179.00,0.0003
3178.00,0.0003
3177.00,0.0003
3176.00,0.0003
3175.00,0.0003
3174.00,0.0003
3173.00,0.0003
3172.00,0.0003
3171.00,0.0003
3170.00,0.0003
3169.00,0.0003
3168.00,0.0003
3167.00,0.0003
3166.00,0.0004
3165.00,0.0004
3164.00,0.0004
3163.00,0.0004
3162.00,0.0004
3161.00,0.0003
3160.00,0.0003
3159.00,0.0003
3158.00,0.0003
3157.00,0.0003
3156.00,0.0003
3155.00,0.0003
3154.00,0.0003
3153.00,0.0003
3152.00,0.0003
3151.00,0.0003
3150.00,0.0003
3149.00,0.0003
3148.00,0.0003
3147.00,0.0003
3146.00,0.0003
3145.00,0.0003
3144.00,0.0003
3143.00,0.0003
3142.00,0.0003
3141.00,0.0003
3140.00,0.0003
3139.00,0.0003
3138.00,0.0003
3137.00,0.0003
3136.00,0.0003
3135.00,0.0003
3134.00,0.0003
3133.00,0.0003
3132.00,0.0003
3131.00,0.0003
3130.00,0.0003
3129.00,0.0003
3128.00,0.0004
3127.00,0.0004
3126.00,0.0004
3125.00,0.0003
3124.00,0.0003
3123.00,0.0003
3122.00,0.0003
3121.00,0.0004
3120.00,0.0004
3119.00,0.0004
3118.00,0.0004
3117.00,0.0004
3116.00,0.0004
3115.00,0.0004
3114.00,0.0005
3113.00,0.0005
3112.00,0.0006
3111.00,0.0006
3110.00,0.0006
3109.00,0.0007
3108.00,0.0007
3107.00,0.0008
3106.00,0.0008
3105.00,0.0009
3104.00,0.0009
3103.00,0.0009
3102.00,0.0009
3101.00,0.0009
3100.00,0.0009
3099.00,0.0009
3098.00,0.0009
3097.00,0.0009
3096.00,0.0009
3095.00,0.0009
3094.00,0.0009
3093.00,0.0010
3092.00,0.0010
3091.00,0.0011
3090.00,0.0012
3089.00,0.0013
3088.00,0.0015
3087.00,0.0017
3086.00,0.0019
3085.00,0.0020
3084.00,0.0022
3083.00,0.0023
3082.00,0.0023
3081.00,0.0023
3080.00,0.0023
3079.00,0.0022
3078.00,0.0021
3077.00,0.0020
3076.00,0.0019
3075.00,0.0018
3074.00,0.0018
3073.00,0.0017
3072.00,0.0018
3071.00,0.0018
3070.00,0.0018
3069.00,0.0019
3068.00,0.0020
3067.00,0.0021
3066.00,0.0023
3065.00,0.0024
3064.00,0.0026
3063.00,0.0028
3062.00,0.0030
3061.00,0.0031
3060.00,0.0032
3059.00,0.0032
3058.00,0.0032
3057.00,0.0031
3056.00,0.0030
3055.00,0.0028
3054.00,0.0027
3053.00,0.0025
3052.00,0.0023
3051.00,0.0021
3050.00,0.0020
3049.00,0.0019
3048.00,0.0018
3047.00,0.0017
3046.00,0.0017
3045.00,0.0017
3044.00,0.0017
3043.00,0.0017
3042.00,0.0017
3041.00,0.0018
3040.00,0.0019
3039.00,0.0020
3038.00,0.0021
3037.00,0.0023
3036.00,0.0025
3035.00,0.0028
3034.00,0.0030
3033.00,0.0034
3032.00,0.0037
3031.00,0.0042
3030.00,0.0046
3029.00,0.0050
3028.00,0.0055
3027.00,0.0058
3026.00,0.0061
3025.00,0.0063
3024.00,0.0062
3023.00,0.0060
3022.00,0.0057
3021.00,0.0052
3020.00,0.0047
3019.00,0.0042
3018.00,0.0036
3017.00,0.0032
3016.00,0.0027
3015.00,0.0024
3014.00,0.0021
3013.00,0.0019
3012.00,0.0017
3011.00,0.0016
3010.00,0.0015
3009.00,0.0015
3008.00,0.0015
3007.00,0.0015
3006.00,0.0015
3005.00,0.0016
3004.00,0.0016
3003.00,0.0017
3002.00,0.0017
3001.00,0.0017
3000.00,0.0017
2999.00,0.0017
2998.00,0.0016
2997.00,0.0015
2996.00,0.0014
2995.00,0.0012
2994.00,0.0012
2993.00,0.0011
2992.00,0.0010
2991.00,0.0010
2990.00,0.0009
2989.00,0.0009
2988.00,0.0009
2987.00,0.0008
2986.00,0.0008
2985.00,0.0009
2984.00,0.0009
2983.00,0.0009
2982.00,0.0010
2981.00,0.0010
2980.00,0.0010
2979.00,0.0011
2978.00,0.0011
2977.00,0.0011
2976.00,0.0011
2975.00,0.0011
2974.00,0.0012
2973.00,0.0012
2972.00,0.0012
2971.00,0.0013
2970.00,0.0013
2969.00,0.0013
2968.00,0.0014
2967.00,0.0015
2966.00,0.0015
2965.00,0.0016
2964.00,0.0016
2963.00,0.0017
2962.00,0.0017
2961.00,0.0018
2960.00,0.0018
2959.00,0.0019
2958.00,0.0020
2957.00,0.0021
2956.00,0.0022
2955.00,0.0022
2954.00,0.0023
2953.00,0.0024
2952.00,0.0025
2951.00,0.0026
2950.00,0.0027
2949.00,0.0028
2948.00,0.0030
2947.00,0.0031
2946.00,0.0032
2945.00,0.0034
2944.00,0.0035
2943.00,0.0037
2942.00,0.0039
2941.00,0.0042
2940.00,0.0044
2939.00,0.0047
2938.00,0.0049
2937.00,0.0052
2936.00,0.0055
2935.00,0.0057
2934.00,0.0060
2933.00,0.0063
2932.00,0.0066
2931.00,0.0069
2930.00,0.0072
2929.00,0.0074
2928.00,0.0077
2927.00,0.0079
2926.00,0.0080
2925.00,0.0082
2924.00,0.0083
2923.00,0.0084
2922.00,0.0084
2921.00,0.0084
2920.00,0.0084
2919.00,0.0083
2918.00,0.0082
2917.00,0.0081
2916.00,0.0079
2915.00,0.0078
2914.00,0.0076
2913.00,0.0074
2912.00,0.0072
2911.00,0.0070
2910.00,0.0068
2909.00,0.0066
2908.00,0.0063
2907.00,0.0061
2906.00,0.0059
2905.00,0.0056
2904.00,0.0054
2903.00,0.0052
2902.00,0.0050
2901.00,0.0048
2900.00,0.0046
2899.00,0.0044
2898.00,0.0042
2897.00,0.0040
2896.00,0.0038
2895.00,0.0037
2894.00,0.0035
2893.00,0.0034
2892.00,0.0033
2891.00,0.0032
2890.00,0.0031
2889.00,0.0030
2888.00,0.0029
2887.00,0.0028
2886.00,0.0027
2885.00,0.0027
2884.00,0.0026
2883.00,0.0025
2882.00,0.0025
2881.00,0.0024
2880.00,0.0024
2879.00,0.0023
2878.00,0.0023
2877.00,0.0023
2876.00,0.0022
2875.00,0.0022
2874.00,0.0021
2873.00,0.0021
2872.00,0.0021
2871.00,0.0021
2870.00,0.0021
2869.00,0.0021
2868.00,0.0021
2867.00,0.0021
2866.00,0.0021
2865.00,0.0022
2864.00,0.0022
2863.00,0.0023
2862.00,0.0024
2861.00,0.0025
2860.00,0.0026
2859.00,0.0028
2858.00,0.0029
2857.00,0.0030
2856.00,0.0032
2855.00,0.0033
2854.00,0.0035
2853.00,0.0036
2852.00,0.0037
2851.00,0.0037
2850.00,0.0037
2849.00,0.0037
2848.00,0.0037
2847.00,0.0036
2846.00,0.0035
2845.00,0.0033
2844.00,0.0031
2843.00,0.0029
2842.00,0.0027
2841.00,0.0025
2840.00,0.0022
2839.00,0.0020
2838.00,0.0018
2837.00,0.0016
2836.00,0.0014
2835.00,0.0013
2834.00,0.0012
2833.00,0.0011
2832.00,0.0010
2831.00,0.0009
2830.00,0.0008
2829.00,0.0008
2828.00,0.0007
2827.00,0.0007
2826.00,0.0007
2825.00,0.0006
2824.00,0.0006
2823.00,0.0006
2822.00,0.0006
2821.00,0.0006
2820.00,0.0006
2819.00,0.0006
2818.00,0.0005
2817.00,0.0005
2816.00,0.0005
2815.00,0.0005
2814.00,0.0005
2813.00,0.0005
2812.00,0.0005
2811.00,0.0005
2810.00,0.0005
2809.00,0.0005
2808.00,0.0005
2807.00,0.0005
2806.00,0.0005
2805.00,0.0005
2804.00,0.0005
2803.00,0.0005
2802.00,0.0005
2801.00,0.0005
2800.00,0.0004
2799.00,0.0004
2798.00,0.0004
2797.00,0.0004
2796.00,0.0004
2795.00,0.0004
2794.00,0.0004
2793.00,0.0004
2792.00,0.0004
2791.00,0.0004
2790.00,0.0004
2789.00,0.0004
2788.00,0.0004
2787.00,0.0004
2786.00,0.0004
2785.00,0.0003
2784.00,0.0003
2783.00,0.0003
2782.00,0.0004
2781.00,0.0004
2780.00,0.0004
2779.00,0.0004
2778.00,0.0004
2777.00,0.0004
2776.00,0.0004
2775.00,0.0004
2774.00,0.0004
2773.00,0.0004
2772.00,0.0004
2771.00,0.0003
2770.00,0.0003
2769.00,0.0003
2768.00,0.0003
2767.00,0.0003
2766.00,0.0003
2765.00,0.0003
2764.00,0.0003
2763.00,0.0003
2762.00,0.0003
2761.00,0.0003
2760.00,0.0003
2759.00,0.0003
2758.00,0.0003
2757.00,0.0003
2756.00,0.0003
2755.00,0.0003
2754.00,0.0003
2753.00,0.0003
2752.00,0.0003
2751.00,0.0003
2750.00,0.0003
2749.00,0.0003
2748.00,0.0003
2747.00,0.0003
2746.00,0.0003
2745.00,0.0003
2744.00,0.0003
2743.00,0.0003
2742.00,0.0003
2741.00,0.0003
2740.00,0.0003
2739.00,0.0003
2738.00,0.0003
2737.00,0.0003
2736.00,0.0003
2735.00,0.0003
2734.00,0.0003
2733.00,0.0003
2732.00,0.0003
2731.00,0.0003
2730.00,0.0003
2729.00,0.0003
2728.00,0.0003
2727.00,0.0003
2726.00,0.0003
2725.00,0.0003
2724.00,0.0003
2723.00,0.0003
2722.00,0.0003
2721.00,0.0003
2720.00,0.0003
2719.00,0.0003
2718.00,0.0003
2717.00,0.0003
2716.00,0.0003
2715.00,0.0003
2714.00,0.0003
2713.00,0.0003
2712.00,0.0003
2711.00,0.0003
2710.00,0.0003
2709.00,0.0003
2708.00,0.0003
2707.00,0.0003
2706.00,0.0003
2705.00,0.0003
2704.00,0.0003
2703.00,0.0003
2702.00,0.0003
2701.00,0.0003
2700.00,0.0003
2699.00,0.0003
2698.00,0.0003
2697.00,0.0003
2696.00,0.0003
2695.00,0.0003
2694.00,0.0003
2693.00,0.0003
2692.00,0.0003
2691.00,0.0003
2690.00,0.0003
2689.00,0.0003
2688.00,0.0003
2687.00,0.0003
2686.00,0.0003
2685.00,0.0003
2684.00,0.0003
2683.00,0.0003
2682.00,0.0003
2681.00,0.0003
2680.00,0.0003
2679.00,0.0003
2678.00,0.0003
2677.00,0.0003
2676.00,0.0003
2675.00,0.0003
2674.00,0.0003
2673.00,0.0003
2672.00,0.0003
2671.00,0.0003
2670.00,0.0003
2669.00,0.0003
2668.00,0.0003
2667.00,0.0004
2666.00,0.0004
2665.00,0.0004
2664.00,0.0005
2663.00,0.0005
2662.00,0.0005
2661.00,0.0006
2660.00,0.0006
2659.00,0.0006
2658.00,0.0006
2657.00,0.0006
2656.00,0.0006
2655.00,0.0007
2654.00,0.0007
2653.00,0.0007
2652.00,0.0007
2651.00,0.0007
2650.00,0.0007
2649.00,0.0007
2648.00,0.0007
2647.00,0.0007
2646.00,0.0007
2645.00,0.0007
2644.00,0.0007
2643.00,0.0007
2642.00,0.0007
2641.00,0.0007
2640.00,0.0007
2639.00,0.0007
2638.00,0.0007
2637.00,0.0007
2636.00,0.0007
2635.00,0.0007
2634.00,0.0007
2633.00,0.0007
2632.00,0.0007
2631.00,0.0007
2630.00,0.0007
2629.00,0.0007
2628.00,0.0007
2627.00,0.0007
2626.00,0.0007
2625.00,0.0007
2624.00,0.0006
2623.00,0.0006
2622.00,0.0006
2621.00,0.0006
2620.00,0.0006
2619.00,0.0006
2618.00,0.0006
2617.00,0.0006
2616.00,0.0006
2615.00,0.0006
2614.00,0.0006
2613.00,0.0006
2612.00,0.0005
2611.00,0.0005
2610.00,0.0005
2609.00,0.0005
2608.00,0.0005
2607.00,0.0005
2606.00,0.0005
2605.00,0.0006
2604.00,0.0006
2603.00,0.0006
2602.00,0.0006
2601.00,0.0006
2600.00,0.0006
2599.00,0.0006
2598.00,0.0005
2597.00,0.0005
2596.00,0.0005
2595.00,0.0005
2594.00,0.0005
2593.00,0.0005
2592.00,0.0005
2591.00,0.0005
2590.00,0.0005
2589.00,0.0004
2588.00,0.0004
2587.00,0.0004
2586.00,0.0004
2585.00,0.0004
2584.00,0.0004
2583.00,0.0004
2582.00,0.0004
2581.00,0.0004
2580.00,0.0004
2579.00,0.0004
2578.00,0.0004
2577.00,0.0004
2576.00,0.0004
2575.00,0.0004
2574.00,0.0004
2573.00,0.0004
2572.00,0.0004
2571.00,0.0003
2570.00,0.0003
2569.00,0.0003
2568.00,0.0003
2567.00,0.0003
2566.00,0.0003
2565.00,0.0003
2564.00,0.0003
2563.00,0.0003
2562.00,0.0003
2561.00,0.0003
2560.00,0.0002
2559.00,0.0002
2558.00,0.0003
2557.00,0.0003
2556.00,0.0003
2555.00,0.0003
2554.00,0.0003
2553.00,0.0003
2552.00,0.0003
2551.00,0.0003
2550.00,0.0003
2549.00,0.0003
2548.00,0.0003
2547.00,0.0003
2546.00,0.0003
2545.00,0.0003
2544.00,0.0003
2543.00,0.0003
2542.00,0.0003
2541.00,0.0003
2540.00,0.0003
2539.00,0.0003
2538.00,0.0002
2537.00,0.0002
2536.00,0.0002
2535.00,0.0002
2534.00,0.0002
2533.00,0.0002
2532.00,0.0002
2531.00,0.0002
2530.00,0.0002
2529.00,0.0002
2528.00,0.0002
2527.00,0.0002
2526.00,0.0002
2525.00,0.0002
2524.00,0.0002
2523.00,0.0002
2522.00,0.0002
2521.00,0.0002
2520.00,0.0002
2519.00,0.0002
2518.00,0.0002
2517.00,0.0002
2516.00,0.0002
2515.00,0.0002
2514.00,0.0002
2513.00,0.0002
2512.00,0.0002
2511.00,0.0002
2510.00,0.0002
2509.00,0.0002
2508.00,0.0002
2507.00,0.0002
2506.00,0.0002
2505.00,0.0002
2504.00,0.0002
2503.00,0.0001
2502.00,0.0001
2501.00,0.0001
2500.00,0.0001
2499.00,0.0001
2498.00,0.0001
2497.00,0.0001
2496.00,0.0001
2495.00,0.0001
2494.00,0.0001
2493.00,0.0001
2492.00,0.0002
2491.00,0.0002
2490.00,0.0002
2489.00,0.0002
2488.00,0.0002
2487.00,0.0001
2486.00,0.0001
2485.00,0.0001
2484.00,0.0001
2483.00,0.0001
2482.00,0.0001
2481.00,0.0001
2480.00,0.0001
2479.00,0.0001
2478.00,0.0001
2477.00,0.0001
2476.00,0.0001
2475.00,0.0001
2474.00,0.0001
2473.00,0.0001
2472.00,0.0001
2471.00,0.0001
2470.00,0.0001
2469.00,0.0001
2468.00,0.0001
2467.00,0.0001
2466.00,0.0001
2465.00,0.0001
2464.00,0.0001
2463.00,0.0001
2462.00,0.0001
2461.00,0.0001
2460.00,0.0002
2459.00,0.0002
2458.00,0.0002
2457.00,0.0002
2456.00,0.0003
2455.00,0.0003
2454.00,0.0002
2453.00,0.0002
2452.00,0.0002
2451.00,0.0001
2450.00,0.0001
2449.00,0.0001
2448.00,0.0001
2447.00,0.0001
2446.00,0.0001
2445.00,0.0001
2444.00,0.0001
2443.00,0.0001
2442.00,0.0001
2441.00,0.0001
2440.00,0.0001
2439.00,0.0001
2438.00,0.0000
2437.00,0.0000
2436.00,0.0000
2435.00,0.0000
2434.00,0.0000
2433.00,0.0000
2432.00,0.0000
2431.00,0.0000
2430.00,0.0000
2429.00,0.0000
2428.00,0.0000
2427.00,0.0000
2426.00,0.0000
2425.00,0.0000
2424.00,0.0000
2423.00,0.0000
2422.00,0.0000
2421.00,-0.0000
2420.00,-0.0000
2419.00,-0.0000
2418.00,-0.0000
2417.00,-0.0000
2416.00,-0.0001
2415.00,-0.0001
2414.00,-0.0001
2413.00,-0.0001
2412.00,-0.0001
2411.00,-0.0001
2410.00,-0.0001
2409.00,-0.0001
2408.00,-0.0002
2407.00,-0.0002
2406.00,-0.0003
2405.00,-0.0002
2404.00,-0.0002
2403.00,-0.0002
2402.00,-0.0002
2401.00,-0.0002
2400.00,-0.0002
2399.00,-0.0002
2398.00,-0.0002
2397.00,-0.0002
2396.00,-0.0002
2395.00,-0.0001
2394.00,-0.0001
2393.00,-0.0001
2392.00,-0.0002
2391.00,-0.0002
2390.00,-0.0002
2389.00,-0.0002
2388.00,-0.0002
2387.00,-0.0002
2386.00,-0.0002
2385.00,-0.0002
2384.00,-0.0003
2383.00,-0.0003
2382.00,-0.0003
2381.00,-0.0003
2380.00,-0.0004
2379.00,-0.0004
2378.00,-0.0003
2377.00,-0.0003
2376.00,-0.0003
2375.00,-0.0003
2374.00,-0.0003
2373.00,-0.0003
2372.00,-0.0003
2371.00,-0.0003
2370.00,-0.0003
2369.00,-0.0003
2368.00,-0.0004
2367.00,-0.0004
2366.00,-0.0003
2365.00,-0.0003
2364.00,-0.0002
2363.00,-0.0002
2362.00,-0.0002
2361.00,-0.0002
2360.00,-0.0002
2359.00,-0.0002
2358.00,-0.0001
2357.00,-0.0001
2356.00,-0.0001
2355.00,-0.0001
2354.00,-0.0001
2353.00,-0.0002
2352.00,-0.0002
2351.00,-0.0002
2350.00,-0.0001
2349.00,-0.0001
2348.00,-0.0000
2347.00,0.0000
2346.00,0.0000
2345.00,0.0000
2344.00,0.0001
2343.00,0.0001
2342.00,0.0001
2341.00,0.0001
2340.00,0.0002
2339.00,0.0002
2338.00,0.0002
2337.00,0.0002
2336.00,0.0002
2335.00,0.0002
2334.00,0.0002
2333.00,0.0002
2332.00,0.0001
2331.00,0.0001
2330.00,0.0002
2329.00,0.0003
2328.00,0.0005
2327.00,0.0008
2326.00,0.0011
2325.00,0.0012
2324.00,0.0012
2323.00,0.0010
2322.00,0.0009
2321.00,0.0007
2320.00,0.0007
2319.00,0.0006
2318.00,0.0006
2317.00,0.0005
2316.00,0.0005
2315.00,0.0005
2314.00,0.0005
2313.00,0.0005
2312.00,0.0005
2311.00,0.0005
2310.00,0.0005
2309.00,0.0005
2308.00,0.0004
2307.00,0.0004
2306.00,0.0005
2305.00,0.0005
2304.00,0.0005
2303.00,0.0005
2302.00,0.0004
2301.00,0.0004
2300.00,0.0004
2299.00,0.0004
2298.00,0.0005
2297.00,0.0005
2296.00,0.0006
2295.00,0.0006
2294.00,0.0007
2293.00,0.0007
2292.00,0.0008
2291.00,0.0008
2290.00,0.0009
2289.00,0.0010
2288.00,0.0010
2287.00,0.0010
2286.00,0.0010
2285.00,0.0009
2284.00,0.0009
2283.00,0.0008
2282.00,0.0007
2281.00,0.0007
2280.00,0.0007
2279.00,0.0006
2278.00,0.0006
2277.00,0.0006
2276.00,0.0005
2275.00,0.0005
2274.00,0.0005
2273.00,0.0005
2272.00,0.0005
2271.00,0.0005
2270.00,0.0005
2269.00,0.0004
2268.00,0.0004
2267.00,0.0004
2266.00,0.0003
2265.00,0.0003
2264.00,0.0003
2263.00,0.0003
2262.00,0.0003
2261.00,0.0004
2260.00,0.0005
2259.00,0.0005
2258.00,0.0005
2257.00,0.0004
2256.00,0.0003
2255.00,0.0003
2254.00,0.0002
2253.00,0.0002
2252.00,0.0002
2251.00,0.0002
2250.00,0.0002
2249.00,0.0003
2248.00,0.0003
2247.00,0.0003
2246.00,0.0003
2245.00,0.0002
2244.00,0.0002
2243.00,0.0003
2242.00,0.0003
2241.00,0.0003
2240.00,0.0003
2239.00,0.0003
2238.00,0.0004
2237.00,0.0004
2236.00,0.0004
2235.00,0.0004
2234.00,0.0004
2233.00,0.0003
2232.00,0.0003
2231.00,0.0003
2230.00,0.0003
2229.00,0.0003
2228.00,0.0003
2227.00,0.0004
2226.00,0.0003
2225.00,0.0003
2224.00,0.0002
2223.00,0.0002
2222.00,0.0001
2221.00,0.0001
2220.00,0.0001
2219.00,0.0001
2218.00,0.0001
2217.00,0.0001
2216.00,0.0001
2215.00,0.0002
2214.00,0.0002
2213.00,0.0003
2212.00,0.0003
2211.00,0.0003
2210.00,0.0003
2209.00,0.0002
2208.00,0.0001
2207.00,0.0001
2206.00,0.0001
2205.00,0.0002
2204.00,0.0002
2203.00,0.0003
2202.00,0.0002
2201.00,0.0001
2200.00,0.0000
2199.00,0.0000
2198.00,0.0001
2197.00,0.0002
2196.00,0.0002
2195.00,0.0001
2194.00,0.0001
2193.00,0.0001
2192.00,0.0003
2191.00,0.0004
2190.00,0.0005
2189.00,0.0005
2188.00,0.0005
2187.00,0.0005
2186.00,0.0005
2185.00,0.0004
2184.00,0.0003
2183.00,0.0001
2182.00,0.0001
2181.00,0.0000
2180.00,0.0000
2179.00,-0.0000
2178.00,-0.0001
2177.00,-0.0003
2176.00,-0.0003
2175.00,-0.0002
2174.00,-0.0000
2173.00,0.0002
2172.00,0.0004
2171.00,0.0006
2170.00,0.0007
2169.00,0.0008
2168.00,0.0009
2167.00,0.0009
2166.00,0.0011
2165.00,0.0013
2164.00,0.0014
2163.00,0.0013
2162.00,0.0009
2161.00,0.0000
2160.00,-0.0010
2159.00,-0.0019
2158.00,-0.0024
2157.00,-0.0025
2156.00,-0.0024
2155.00,-0.0022
2154.00,-0.0019
2153.00,-0.0017
2152.00,-0.0015
2151.00,-0.0014
2150.00,-0.0012
2149.00,-0.0012
2148.00,-0.0012
2147.00,-0.0013
2146.00,-0.0013
2145.00,-0.0013
2144.00,-0.0012
2143.00,-0.0012
2142.00,-0.0012
2141.00,-0.0012
2140.00,-0.0013
2139.00,-0.0012
2138.00,-0.0012
2137.00,-0.0013
2136.00,-0.0014
2135.00,-0.0016
2134.00,-0.0017
2133.00,-0.0016
2132.00,-0.0015
2131.00,-0.0013
2130.00,-0.0012
2129.00,-0.0011
2128.00,-0.0011
2127.00,-0.0010
2126.00,-0.0009
2125.00,-0.0008
2124.00,-0.0007
2123.00,-0.0006
2122.00,-0.0005
2121.00,-0.0005
2120.00,-0.0005
2119.00,-0.0004
2118.00,-0.0003
2117.00,-0.0002
2116.00,-0.0001
2115.00,-0.0000
2114.00,0.0000
2113.00,0.0001
2112.00,0.0001
2111.00,0.0000
2110.00,-0.0000
2109.00,-0.0001
2108.00,-0.0001
2107.00,-0.0002
2106.00,-0.0002
2105.00,-0.0002
2104.00,-0.0002
2103.00,-0.0002
2102.00,-0.0002
2101.00,-0.0002
2100.00,-0.0002
2099.00,-0.0002
2098.00,-0.0003
2097.00,-0.0004
2096.00,-0.0005
2095.00,-0.0005
2094.00,-0.0005
2093.00,-0.0004
2092.00,-0.0003
2091.00,-0.0003
2090.00,-0.0003
2089.00,-0.0002
2088.00,-0.0002
2087.00,-0.0001
2086.00,0.0000
2085.00,0.0001
2084.00,0.0001
2083.00,0.0001
2082.00,0.0001
2081.00,0.0001
2080.00,0.0001
2079.00,0.0001
2078.00,0.0001
2077.00,0.0001
2076.00,0.0000
2075.00,0.0000
2074.00,0.0000
2073.00,0.0000
2072.00,-0.0000
2071.00,0.0000
2070.00,0.0000
2069.00,0.0000
2068.00,0.0000
2067.00,0.0000
2066.00,0.0001
2065.00,0.0001
2064.00,0.0001
2063.00,0.0000
2062.00,-0.0001
2061.00,-0.0001
2060.00,-0.0001
2059.00,-0.0001
2058.00,-0.0001
2057.00,-0.0000
2056.00,-0.0000
2055.00,0.0001
2054.00,0.0002
2053.00,0.0005
2052.00,0.0007
2051.00,0.0008
2050.00,0.0006
2049.00,0.0003
2048.00,0.0002
2047.00,0.0001
2046.00,0.0001
2045.00,0.0001
2044.00,-0.0000
2043.00,-0.0001
2042.00,-0.0001
2041.00,-0.0000
2040.00,0.0000
2039.00,0.0000
2038.00,-0.0000
2037.00,-0.0000
2036.00,-0.0000
2035.00,-0.0001
2034.00,-0.0003
2033.00,-0.0003
2032.00,-0.0002
2031.00,-0.0002
2030.00,-0.0002
2029.00,-0.0004
2028.00,-0.0006
2027.00,-0.0007
2026.00,-0.0007
2025.00,-0.0007
2024.00,-0.0006
2023.00,-0.0006
2022.00,-0.0005
2021.00,-0.0005
2020.00,-0.0005
2019.00,-0.0005
2018.00,-0.0004
2017.00,-0.0005
2016.00,-0.0005
2015.00,-0.0006
2014.00,-0.0007
2013.00,-0.0006
2012.00,-0.0004
2011.00,-0.0002
2010.00,-0.0001
2009.00,-0.0002
2008.00,-0.0005
2007.00,-0.0009
2006.00,-0.0010
2005.00,-0.0011
2004.00,-0.0010
2003.00,-0.0009
2002.00,-0.0008
2001.00,-0.0007
2000.00,-0.0006
1999.00,-0.0005
1998.00,-0.0004
1997.00,-0.0003
1996.00,-0.0002
1995.00,-0.0000
1994.00,0.0001
1993.00,0.0001
1992.00,0.0001
1991.00,-0.0000
1990.00,-0.0001
1989.00,-0.0001
1988.00,-0.0000
1987.00,0.0001
1986.00,0.0002
1985.00,0.0003
1984.00,0.0004
1983.00,0.0005
1982.00,0.0007
1981.00,0.0008
1980.00,0.0007
1979.00,0.0005
1978.00,0.0002
1977.00,-0.0000
1976.00,-0.0001
1975.00,-0.0001
1974.00,-0.0002
1973.00,-0.0003
1972.00,-0.0004
1971.00,-0.0006
1970.00,-0.0007
1969.00,-0.0007
1968.00,-0.0006
1967.00,-0.0005
1966.00,-0.0005
1965.00,-0.0006
1964.00,-0.0006
1963.00,-0.0007
1962.00,-0.0006
1961.00,-0.0006
1960.00,-0.0006
1959.00,-0.0007
1958.00,-0.0007
1957.00,-0.0008
1956.00,-0.0007
1955.00,-0.0006
1954.00,-0.0005
1953.00,-0.0004
1952.00,-0.0004
1951.00,-0.0003
1950.00,-0.0002
1949.00,-0.0002
1948.00,-0.0001
1947.00,-0.0000
1946.00,0.0001
1945.00,0.0002
1944.00,0.0002
1943.00,0.0001
1942.00,0.0000
1941.00,-0.0001
1940.00,-0.0001
1939.00,-0.0001
1938.00,-0.0002
1937.00,-0.0001
1936.00,-0.0001
1935.00,-0.0001
1934.00,-0.0001
1933.00,-0.0001
1932.00,-0.0002
1931.00,-0.0002
1930.00,-0.0003
1929.00,-0.0003
1928.00,-0.0003
1927.00,-0.0004
1926.00,-0.0004
1925.00,-0.0004
1924.00,-0.0004
1923.00,-0.0003
1922.00,-0.0003
1921.00,-0.0004
1920.00,-0.0004
1919.00,-0.0004
1918.00,-0.0004
1917.00,-0.0003
1916.00,-0.0003
1915.00,-0.0003
1914.00,-0.0003
1913.00,-0.0004
1912.00,-0.0004
1911.00,-0.0004
1910.00,-0.0004
1909.00,-0.0003
1908.00,-0.0003
1907.00,-0.0003
1906.00,-0.0003
1905.00,-0.0003
1904.00,-0.0004
1903.00,-0.0004
1902.00,-0.0004
1901.00,-0.0003
1900.00,-0.0003
1899.00,-0.0003
1898.00,-0.0002
1897.00,-0.0002
1896.00,-0.0002
1895.00,-0.0002
1894.00,-0.0001
1893.00,-0.0001
1892.00,-0.0001
1891.00,-0.0000
1890.00,-0.0000
1889.00,0.0000
1888.00,0.0001
1887.00,0.0001
1886.00,0.0001
1885.00,0.0001
1884.00,0.0001
1883.00,0.0001
1882.00,0.0001
1881.00,0.0001
1880.00,0.0002
1879.00,0.0002
1878.00,0.0003
1877.00,0.0003
1876.00,0.0003
1875.00,0.0003
1874.00,0.0003
1873.00,0.0003
1872.00,0.0003
1871.00,0.0003
1870.00,0.0003
1869.00,0.0002
1868.00,0.0003
1867.00,0.0003
1866.00,0.0003
1865.00,0.0003
1864.00,0.0003
1863.00,0.0002
1862.00,0.0002
1861.00,0.0001
1860.00,0.0000
1859.00,-0.0000
1858.00,-0.0001
1857.00,-0.0001
1856.00,-0.0001
1855.00,-0.0001
1854.00,-0.0001
1853.00,-0.0002
1852.00,-0.0002
1851.00,-0.0002
1850.00,-0.0002
1849.00,-0.0002
1848.00,-0.0002
1847.00,-0.0002
1846.00,-0.0002
1845.00,-0.0002
1844.00,-0.0002
1843.00,-0.0002
1842.00,-0.0002
1841.00,-0.0002
1840.00,-0.0002
1839.00,-0.0002
1838.00,-0.0003
1837.00,-0.0003
1836.00,-0.0002
1835.00,-0.0002
1834.00,-0.0002
1833.00,-0.0002
1832.00,-0.0002
1831.00,-0.0002
1830.00,-0.0001
1829.00,-0.0001
1828.00,-0.0001
1827.00,-0.0001
1826.00,-0.0001
1825.00,-0.0000
1824.00,0.0000
1823.00,0.0001
1822.00,0.0001
1821.00,0.0001
1820.00,0.0000
1819.00,-0.0000
1818.00,-0.0000
1817.00,-0.0000
1816.00,0.0000
1815.00,0.0001
1814.00,0.0002
1813.00,0.0002
1812.00,0.0003
1811.00,0.0003
1810.00,0.0003
1809.00,0.0004
1808.00,0.0004
1807.00,0.0005
1806.00,0.0005
1805.00,0.0005
1804.00,0.0005
1803.00,0.0006
1802.00,0.0006
1801.00,0.0006
1800.00,0.0006
1799.00,0.0006
1798.00,0.0006
1797.00,0.0006
1796.00,0.0005
1795.00,0.0005
1794.00,0.0004
1793.00,0.0004
1792.00,0.0004
1791.00,0.0003
1790.00,0.0003
1789.00,0.0003
1788.00,0.0003
1787.00,0.0002
1786.00,0.0003
1785.00,0.0003
1784.00,0.0003
1783.00,0.0003
1782.00,0.0002
1781.00,0.0002
1780.00,0.0002
1779.00,0.0002
1778.00,0.0002
1777.00,0.0003
1776.00,0.0003
1775.00,0.0003
1774.00,0.0003
1773.00,0.0003
1772.00,0.0003
1771.00,0.0003
1770.00,0.0003
1769.00,0.0003
1768.00,0.0004
1767.00,0.0004
1766.00,0.0004
1765.00,0.0004
1764.00,0.0004
1763.00,0.0005
1762.00,0.0005
1761.00,0.0006
1760.00,0.0006
1759.00,0.0007
1758.00,0.0007
1757.00,0.0008
1756.00,0.0008
1755.00,0.0009
1754.00,0.0010
1753.00,0.0011
1752.00,0.0012
1751.00,0.0013
1750.00,0.0013
1749.00,0.0014
1748.00,0.0015
1747.00,0.0016
1746.00,0.0016
1745.00,0.0017
1744.00,0.0018
1743.00,0.0018
1742.00,0.0019
1741.00,0.0019
1740.00,0.0019
1739.00,0.0019
1738.00,0.0020
1737.00,0.0020
1736.00,0.0020
1735.00,0.0020
1734.00,0.0019
1733.00,0.0018
1732.00,0.0017
1731.00,0.0017
1730.00,0.0017
1729.00,0.0016
1728.00,0.0016
1727.00,0.0016
1726.00,0.0015
1725.00,0.0015
1724.00,0.0014
1723.00,0.0013
1722.00,0.0013
1721.00,0.0013
1720.00,0.0012
1719.00,0.0012
1718.00,0.0011
1717.00,0.0011
1716.00,0.0010
1715.00,0.0010
1714.00,0.0010
1713.00,0.0010
1712.00,0.0009
1711.00,0.0009
1710.00,0.0009
1709.00,0.0009
1708.00,0.0009
1707.00,0.0009
1706.00,0.0009
1705.00,0.0009
1704.00,0.0009
1703.00,0.0009
1702.00,0.0009
1701.00,0.0008
1700.00,0.0008
1699.00,0.0008
1698.00,0.0008
1697.00,0.0008
1696.00,0.0008
1695.00,0.0008
1694.00,0.0008
1693.00,0.0008
1692.00,0.0008
1691.00,0.0009
1690.00,0.0009
1689.00,0.0010
1688.00,0.0010
1687.00,0.0011
1686.00,0.0011
1685.00,0.0012
1684.00,0.0012
1683.00,0.0012
1682.00,0.0012
1681.00,0.0012
1680.00,0.0012
1679.00,0.0013
1678.00,0.0013
1677.00,0.0013
1676.00,0.0014
1675.00,0.0014
1674.00,0.0014
1673.00,0.0014
1672.00,0.0014
1671.00,0.0014
1670.00,0.0014
1669.00,0.0014
1668.00,0.0014
1667.00,0.0014
1666.00,0.0014
1665.00,0.0014
1664.00,0.0014
1663.00,0.0014
1662.00,0.0014
1661.00,0.0014
1660.00,0.0014
1659.00,0.0014
1658.00,0.0014
1657.00,0.0014
1656.00,0.0013
1655.00,0.0013
1654.00,0.0013
1653.00,0.0012
1652.00,0.0011
1651.00,0.0011
1650.00,0.0011
1649.00,0.0011
1648.00,0.0011
1647.00,0.0011
1646.00,0.0011
1645.00,0.0010
1644.00,0.0010
1643.00,0.0009
1642.00,0.0009
1641.00,0.0009
1640.00,0.0009
1639.00,0.0009
1638.00,0.0009
1637.00,0.0009
1636.00,0.0009
1635.00,0.0009
1634.00,0.0008
1633.00,0.0008
1632.00,0.0008
1631.00,0.0008
1630.00,0.0008
1629.00,0.0008
1628.00,0.0008
1627.00,0.0008
1626.00,0.0008
1625.00,0.0008
1624.00,0.0008
1623.00,0.0008
1622.00,0.0008
1621.00,0.0008
1620.00,0.0009
1619.00,0.0009
1618.00,0.0009
1617.00,0.0009
1616.00,0.0009
1615.00,0.0009
1614.00,0.0010
1613.00,0.0011
1612.00,0.0012
1611.00,0.0013
1610.00,0.0015
1609.00,0.0018
1608.00,0.0022
1607.00,0.0026
1606.00,0.0032
1605.00,0.0038
1604.00,0.0045
1603.00,0.0051
1602.00,0.0055
1601.00,0.0057
1600.00,0.0056
1599.00,0.0053
1598.00,0.0047
1597.00,0.0041
1596.00,0.0035
1595.00,0.0030
1594.00,0.0026
1593.00,0.0023
1592.00,0.0020
1591.00,0.0018
1590.00,0.0017
1589.00,0.0016
1588.00,0.0016
1587.00,0.0017
1586.00,0.0018
1585.00,0.0020
1584.00,0.0022
1583.00,0.0023
1582.00,0.0022
1581.00,0.0020
1580.00,0.0018
1579.00,0.0015
1578.00,0.0013
1577.00,0.0011
1576.00,0.0009
1575.00,0.0008
1574.00,0.0007
1573.00,0.0007
1572.00,0.0006
1571.00,0.0006
1570.00,0.0006
1569.00,0.0005
1568.00,0.0005
1567.00,0.0005
1566.00,0.0005
1565.00,0.0005
1564.00,0.0005
1563.00,0.0005
1562.00,0.0005
1561.00,0.0005
1560.00,0.0005
1559.00,0.0005
1558.00,0.0005
1557.00,0.0005
1556.00,0.0006
1555.00,0.0006
1554.00,0.0006
1553.00,0.0006
1552.00,0.0007
1551.00,0.0007
1550.00,0.0007
1549.00,0.0007
1548.00,0.0008
1547.00,0.0008
1546.00,0.0008
1545.00,0.0009
1544.00,0.0009
1543.00,0.0009
1542.00,0.0009
1541.00,0.0009
1540.00,0.0009
1539.00,0.0008
1538.00,0.0008
1537.00,0.0008
1536.00,0.0008
1535.00,0.0008
1534.00,0.0007
1533.00,0.0007
1532.00,0.0007
1531.00,0.0006
1530.00,0.0006
1529.00,0.0006
1528.00,0.0006
1527.00,0.0006
1526.00,0.0006
1525.00,0.0006
1524.00,0.0006
1523.00,0.0006
1522.00,0.0006
1521.00,0.0006
1520.00,0.0006
1519.00,0.0006
1518.00,0.0006
1517.00,0.0006
1516.00,0.0006
1515.00,0.0007
1514.00,0.0007
1513.00,0.0007
1512.00,0.0008
1511.00,0.0008
1510.00,0.0009
1509.00,0.0009
1508.00,0.0010
1507.00,0.0010
1506.00,0.0011
1505.00,0.0011
1504.00,0.0012
1503.00,0.0014
1502.00,0.0016
1501.00,0.0020
1500.00,0.0024
1499.00,0.0031
1498.00,0.0042
1497.00,0.0056
1496.00,0.0076
1495.00,0.0099
1494.00,0.0120
1493.00,0.0136
1492.00,0.0141
1491.00,0.0134
1490.00,0.0115
1489.00,0.0093
1488.00,0.0073
1487.00,0.0057
1486.00,0.0046
1485.00,0.0038
1484.00,0.0032
1483.00,0.0027
1482.00,0.0023
1481.00,0.0020
1480.00,0.0018
1479.00,0.0017
1478.00,0.0016
1477.00,0.0016
1476.00,0.0015
1475.00,0.0015
1474.00,0.0015
1473.00,0.0015
1472.00,0.0015
1471.00,0.0016
1470.00,0.0016
1469.00,0.0017
1468.00,0.0018
1467.00,0.0019
1466.00,0.0020
1465.00,0.0020
1464.00,0.0021
1463.00,0.0022
1462.00,0.0024
1461.00,0.0027
1460.00,0.0030
1459.00,0.0035
1458.00,0.0043
1457.00,0.0056
1456.00,0.0073
1455.00,0.0093
1454.00,0.0113
1453.00,0.0130
1452.00,0.0141
1451.00,0.0143
1450.00,0.0138
1449.00,0.0128
1448.00,0.0116
1447.00,0.0105
1446.00,0.0096
1445.00,0.0089
1444.00,0.0082
1443.00,0.0076
1442.00,0.0069
1441.00,0.0064
1440.00,0.0059
1439.00,0.0055
1438.00,0.0050
1437.00,0.0045
1436.00,0.0039
1435.00,0.0034
1434.00,0.0031
1433.00,0.0028
1432.00,0.0025
1431.00,0.0023
1430.00,0.0021
1429.00,0.0019
1428.00,0.0018
1427.00,0.0017
1426.00,0.0016
1425.00,0.0016
1424.00,0.0015
1423.00,0.0015
1422.00,0.0014
1421.00,0.0014
1420.00,0.0014
1419.00,0.0013
1418.00,0.0013
1417.00,0.0013
1416.00,0.0012
1415.00,0.0012
1414.00,0.0012
1413.00,0.0012
1412.00,0.0012
1411.00,0.0012
1410.00,0.0012
1409.00,0.0012
1408.00,0.0012
1407.00,0.0012
1406.00,0.0012
1405.00,0.0012
1404.00,0.0012
1403.00,0.0011
1402.00,0.0011
1401.00,0.0012
1400.00,0.0012
1399.00,0.0012
1398.00,0.0013
1397.00,0.0013
1396.00,0.0014
1395.00,0.0014
1394.00,0.0015
1393.00,0.0015
1392.00,0.0016
1391.00,0.0017
1390.00,0.0018
1389.00,0.0019
1388.00,0.0020
1387.00,0.0021
1386.00,0.0022
1385.00,0.0023
1384.00,0.0024
1383.00,0.0025
1382.00,0.0026
1381.00,0.0027
1380.00,0.0028
1379.00,0.0029
1378.00,0.0030
1377.00,0.0031
1376.00,0.0031
1375.00,0.0032
1374.00,0.0032
1373.00,0.0033
1372.00,0.0033
1371.00,0.0032
1370.00,0.0032
1369.00,0.0032
1368.00,0.0032
1367.00,0.0031
1366.00,0.0031
1365.00,0.0031
1364.00,0.0031
1363.00,0.0030
1362.00,0.0030
1361.00,0.0029
1360.00,0.0029
1359.00,0.0028
1358.00,0.0028
1357.00,0.0028
1356.00,0.0027
1355.00,0.0027
1354.00,0.0027
1353.00,0.0027
1352.00,0.0027
1351.00,0.0027
1350.00,0.0026
1349.00,0.0026
1348.00,0.0026
1347.00,0.0026
1346.00,0.0025
1345.00,0.0025
1344.00,0.0025
1343.00,0.0024
1342.00,0.0024
1341.00,0.0024
1340.00,0.0023
1339.00,0.0023
1338.00,0.0023
1337.00,0.0023
1336.00,0.0023
1335.00,0.0024
1334.00,0.0024
1333.00,0.0025
1332.00,0.0026
1331.00,0.0026
1330.00,0.0027
1329.00,0.0027
1328.00,0.0027
1327.00,0.0027
1326.00,0.0027
1325.00,0.0027
1324.00,0.0026
1323.00,0.0026
1322.00,0.0026
1321.00,0.0026
1320.00,0.0026
1319.00,0.0026
1318.00,0.0026
1317.00,0.0026
1316.00,0.0026
1315.00,0.0026
1314.00,0.0026
1313.00,0.0027
1312.00,0.0027
1311.00,0.0027
1310.00,0.0026
1309.00,0.0026
1308.00,0.0026
1307.00,0.0025
1306.00,0.0025
1305.00,0.0025
1304.00,0.0024
1303.00,0.0024
1302.00,0.0023
1301.00,0.0023
1300.00,0.0023
1299.00,0.0023
1298.00,0.0023
1297.00,0.0023
1296.00,0.0023
1295.00,0.0023
1294.00,0.0023
1293.00,0.0023
1292.00,0.0023
1291.00,0.0023
1290.00,0.0023
1289.00,0.0023
1288.00,0.0023
1287.00,0.0022
1286.00,0.0022
1285.00,0.0022
1284.00,0.0022
1283.00,0.0022
1282.00,0.0021
1281.00,0.0021
1280.00,0.0021
1279.00,0.0021
1278.00,0.0021
1277.00,0.0020
1276.00,0.0020
1275.00,0.0020
1274.00,0.0019
1273.00,0.0019
1272.00,0.0019
1271.00,0.0018
1270.00,0.0018
1269.00,0.0018
1268.00,0.0018
1267.00,0.0018
1266.00,0.0017
1265.00,0.0017
1264.00,0.0017
1263.00,0.0017
1262.00,0.0017
1261.00,0.0016
1260.00,0.0016
1259.00,0.0016
1258.00,0.0017
1257.00,0.0017
1256.00,0.0017
1255.00,0.0017
1254.00,0.0017
1253.00,0.0017
1252.00,0.0017
1251.00,0.0017
1250.00,0.0017
1249.00,0.0017
1248.00,0.0017
1247.00,0.0018
1246.00,0.0018
1245.00,0.0018
1244.00,0.0018
1243.00,0.0018
1242.00,0.0018
1241.00,0.0018
1240.00,0.0018
1239.00,0.0018
1238.00,0.0018
1237.00,0.0018
1236.00,0.0018
1235.00,0.0018
1234.00,0.0017
1233.00,0.0017
1232.00,0.0017
1231.00,0.0017
1230.00,0.0018
1229.00,0.0018
1228.00,0.0018
1227.00,0.0018
1226.00,0.0018
1225.00,0.0018
1224.00,0.0018
1223.00,0.0018
1222.00,0.0018
1221.00,0.0018
1220.00,0.0018
1219.00,0.0018
1218.00,0.0018
1217.00,0.0018
1216.00,0.0018
1215.00,0.0019
1214.00,0.0019
1213.00,0.0019
1212.00,0.0019
1211.00,0.0020
1210.00,0.0020
1209.00,0.0020
1208.00,0.0021
1207.00,0.0021
1206.00,0.0022
1205.00,0.0022
1204.00,0.0023
1203.00,0.0023
1202.00,0.0024
1201.00,0.0024
1200.00,0.0025
1199.00,0.0026
1198.00,0.0026
1197.00,0.0027
1196.00,0.0027
1195.00,0.0027
1194.00,0.0027
1193.00,0.0027
1192.00,0.0027
1191.00,0.0027
1190.00,0.0028
1189.00,0.0028
1188.00,0.0029
1187.00,0.0030
1186.00,0.0031
1185.00,0.0033
1184.00,0.0034
1183.00,0.0036
1182.00,0.0037
1181.00,0.0037
1180.00,0.0037
1179.00,0.0036
1178.00,0.0034
1177.00,0.0032
1176.00,0.0030
1175.00,0.0029
1174.00,0.0027
1173.00,0.0026
1172.00,0.0025
1171.00,0.0025
1170.00,0.0024
1169.00,0.0024
1168.00,0.0024
1167.00,0.0024
1166.00,0.0024
1165.00,0.0025
1164.00,0.0025
1163.00,0.0025
1162.00,0.0026
1161.00,0.0027
1160.00,0.0029
1159.00,0.0030
1158.00,0.0032
1157.00,0.0034
1156.00,0.0036
1155.00,0.0037
1154.00,0.0037
1153.00,0.0037
1152.00,0.0035
1151.00,0.0032
1150.00,0.0029
1149.00,0.0027
1148.00,0.0025
1147.00,0.0023
1146.00,0.0022
1145.00,0.0021
1144.00,0.0020
1143.00,0.0019
1142.00,0.0019
1141.00,0.0018
1140.00,0.0018
1139.00,0.0018
1138.00,0.0017
1137.00,0.0017
1136.00,0.0017
1135.00,0.0016
1134.00,0.0016
1133.00,0.0016
1132.00,0.0016
1131.00,0.0016
1130.00,0.0016
1129.00,0.0016
1128.00,0.0016
1127.00,0.0017
1126.00,0.0017
1125.00,0.0017
1124.00,0.0018
1123.00,0.0018
1122.00,0.0018
1121.00,0.0019
1120.00,0.0019
1119.00,0.0020
1118.00,0.0020
1117.00,0.0021
1116.00,0.0021
1115.00,0.0022
1114.00,0.0023
1113.00,0.0023
1112.00,0.0023
1111.00,0.0023
1110.00,0.0023
1109.00,0.0022
1108.00,0.0022
1107.00,0.0022
1106.00,0.0022
1105.00,0.0022
1104.00,0.0023
1103.00,0.0023
1102.00,0.0023
1101.00,0.0023
1100.00,0.0023
1099.00,0.0024
1098.00,0.0024
1097.00,0.0024
1096.00,0.0024
1095.00,0.0024
1094.00,0.0024
1093.00,0.0024
1092.00,0.0025
1091.00,0.0025
1090.00,0.0026
1089.00,0.0026
1088.00,0.0027
1087.00,0.0028
1086.00,0.0029
1085.00,0.0029
1084.00,0.0030
1083.00,0.0030
1082.00,0.0031
1081.00,0.0032
1080.00,0.0033
1079.00,0.0035
1078.00,0.0036
1077.00,0.0037
1076.00,0.0038
1075.00,0.0040
1074.00,0.0042
1073.00,0.0044
1072.00,0.0045
1071.00,0.0047
1070.00,0.0048
1069.00,0.0049
1068.00,0.0049
1067.00,0.0048
1066.00,0.0047
1065.00,0.0045
1064.00,0.0043
1063.00,0.0041
1062.00,0.0039
1061.00,0.0037
1060.00,0.0035
1059.00,0.0034
1058.00,0.0032
1057.00,0.0032
1056.00,0.0031
1055.00,0.0030
1054.00,0.0030
1053.00,0.0029
1052.00,0.0028
1051.00,0.0028
1050.00,0.0027
1049.00,0.0026
1048.00,0.0026
1047.00,0.0025
1046.00,0.0025
1045.00,0.0025
1044.00,0.0025
1043.00,0.0025
1042.00,0.0025
1041.00,0.0025
1040.00,0.0026
1039.00,0.0027
1038.00,0.0029
1037.00,0.0032
1036.00,0.0035
1035.00,0.0040
1034.00,0.0046
1033.00,0.0053
1032.00,0.0060
1031.00,0.0066
1030.00,0.0072
1029.00,0.0076
1028.00,0.0077
1027.00,0.0077
1026.00,0.0073
1025.00,0.0069
1024.00,0.0063
1023.00,0.0058
1022.00,0.0054
1021.00,0.0050
1020.00,0.0047
1019.00,0.0044
1018.00,0.0042
1017.00,0.0040
1016.00,0.0038
1015.00,0.0037
1014.00,0.0036
1013.00,0.0034
1012.00,0.0033
1011.00,0.0032
1010.00,0.0032
1009.00,0.0031
1008.00,0.0031
1007.00,0.0032
1006.00,0.0032
1005.00,0.0033
1004.00,0.0034
1003.00,0.0034
1002.00,0.0033
1001.00,0.0032
1000.00,0.0030
999.00,0.0028
998.00,0.0026
997.00,0.0025
996.00,0.0024
995.00,0.0024
994.00,0.0024
993.00,0.0024
992.00,0.0024
991.00,0.0024
990.00,0.0025
989.00,0.0025
988.00,0.0026
987.00,0.0027
986.00,0.0028
985.00,0.0029
984.00,0.0029
983.00,0.0030
982.00,0.0030
981.00,0.0030
980.00,0.0031
979.00,0.0031
978.00,0.0031
977.00,0.0030
976.00,0.0029
975.00,0.0029
974.00,0.0028
973.00,0.0028
972.00,0.0028
971.00,0.0028
970.00,0.0029
969.00,0.0030
968.00,0.0031
967.00,0.0032
966.00,0.0033
965.00,0.0034
964.00,0.0034
963.00,0.0034
962.00,0.0033
961.00,0.0032
960.00,0.0030
959.00,0.0028
958.00,0.0027
957.00,0.0026
956.00,0.0025
955.00,0.0024
954.00,0.0024
953.00,0.0024
952.00,0.0024
951.00,0.0024
950.00,0.0024
949.00,0.0025
948.00,0.0025
947.00,0.0025
946.00,0.0025
945.00,0.0025
944.00,0.0026
943.00,0.0026
942.00,0.0026
941.00,0.0026
940.00,0.0025
939.00,0.0025
938.00,0.0024
937.00,0.0023
936.00,0.0022
935.00,0.0021
934.00,0.0021
933.00,0.0020
932.00,0.0020
931.00,0.0019
930.00,0.0018
929.00,0.0018
928.00,0.0018
927.00,0.0018
926.00,0.0018
925.00,0.0018
924.00,0.0019
923.00,0.0019
922.00,0.0019
921.00,0.0020
920.00,0.0021
919.00,0.0022
918.00,0.0023
917.00,0.0025
916.00,0.0027
915.00,0.0029
914.00,0.0032
913.00,0.0035
912.00,0.0038
911.00,0.0042
910.00,0.0045
909.00,0.0048
908.00,0.0050
907.00,0.0051
906.00,0.0051
905.00,0.0050
904.00,0.0048
903.00,0.0045
902.00,0.0042
901.00,0.0038
900.00,0.0034
899.00,0.0030
898.00,0.0027
897.00,0.0024
896.00,0.0022
895.00,0.0021
894.00,0.0019
893.00,0.0018
892.00,0.0017
891.00,0.0016
890.00,0.0016
889.00,0.0015
888.00,0.0014
887.00,0.0014
886.00,0.0014
885.00,0.0013
884.00,0.0013
883.00,0.0013
882.00,0.0013
881.00,0.0013
880.00,0.0013
879.00,0.0013
878.00,0.0013
877.00,0.0013
876.00,0.0012
875.00,0.0012
874.00,0.0012
873.00,0.0012
872.00,0.0011
871.00,0.0011
870.00,0.0011
869.00,0.0011
868.00,0.0011
867.00,0.0011
866.00,0.0011
865.00,0.0011
864.00,0.0011
863.00,0.0011
862.00,0.0011
861.00,0.0010
860.00,0.0011
859.00,0.0011
858.00,0.0011
857.00,0.0011
856.00,0.0011
855.00,0.0012
854.00,0.0012
853.00,0.0013
852.00,0.0014
851.00,0.0015
850.00,0.0016
849.00,0.0017
848.00,0.0018
847.00,0.0020
846.00,0.0021
845.00,0.0023
844.00,0.0024
843.00,0.0025
842.00,0.0025
841.00,0.0025
840.00,0.0024
839.00,0.0023
838.00,0.0022
837.00,0.0021
836.00,0.0019
835.00,0.0017
834.00,0.0015
833.00,0.0013
832.00,0.0012
831.00,0.0011
830.00,0.0010
829.00,0.0010
828.00,0.0010
827.00,0.0010
826.00,0.0010
825.00,0.0010
824.00,0.0010
823.00,0.0009
822.00,0.0009
821.00,0.0009
820.00,0.0009
819.00,0.0009
818.00,0.0010
817.00,0.0010
816.00,0.0010
815.00,0.0009
814.00,0.0009
813.00,0.0009
812.00,0.0010
811.00,0.0010
810.00,0.0010
809.00,0.0010
808.00,0.0011
807.00,0.0011
806.00,0.0011
805.00,0.0011
804.00,0.0012
803.00,0.0012
802.00,0.0012
801.00,0.0013
800.00,0.0013
799.00,0.0014
798.00,0.0014
797.00,0.0015
796.00,0.0016
795.00,0.0016
794.00,0.0017
793.00,0.0018
792.00,0.0019
791.00,0.0021
790.00,0.0022
789.00,0.0024
788.00,0.0025
787.00,0.0027
786.00,0.0029
785.00,0.0031
784.00,0.0033
783.00,0.0035
782.00,0.0037
781.00,0.0040
780.00,0.0044
779.00,0.0047
778.00,0.0051
777.00,0.0056
776.00,0.0061
775.00,0.0067
774.00,0.0073
773.00,0.0079
772.00,0.0085
771.00,0.0093
770.00,0.0100
769.00,0.0108
768.00,0.0116
767.00,0.0124
766.00,0.0131
765.00,0.0139
764.00,0.0146
763.00,0.0152
762.00,0.0160
761.00,0.0167
760.00,0.0174
759.00,0.0181
758.00,0.0187
757.00,0.0192
756.00,0.0195
755.00,0.0197
754.00,0.0198
753.00,0.0198
752.00,0.0196
751.00,0.0195
750.00,0.0195
749.00,0.0194
748.00,0.0193
747.00,0.0190
746.00,0.0185
745.00,0.0178
744.00,0.0168
743.00,0.0156
742.00,0.0143
741.00,0.0130
740.00,0.0118
739.00,0.0106
738.00,0.0095
737.00,0.0085
736.00,0.0075
735.00,0.0066
734.00,0.0058
733.00,0.0050
732.00,0.0043
731.00,0.0037
730.00,0.0033
729.00,0.0029
728.00,0.0027
727.00,0.0025
726.00,0.0024
725.00,0.0023
724.00,0.0023
723.00,0.0022
722.00,0.0022
721.00,0.0022
720.00,0.0022
719.00,0.0023
718.00,0.0024
717.00,0.0025
716.00,0.0027
715.00,0.0030
714.00,0.0033
713.00,0.0038
712.00,0.0045
711.00,0.0054
710.00,0.0065
709.00,0.0080
708.00,0.0099
707.00,0.0122
706.00,0.0148
705.00,0.0177
704.00,0.0209
703.00,0.0243
702.00,0.0278
701.00,0.0313
700.00,0.0349
699.00,0.0384
698.00,0.0418
697.00,0.0448
696.00,0.0471
695.00,0.0484
694.00,0.0481
693.00,0.0462
692.00,0.0427
691.00,0.0383
690.00,0.0337
689.00,0.0293
688.00,0.0254
687.00,0.0222
686.00,0.0196
685.00,0.0176
684.00,0.0159
683.00,0.0145
682.00,0.0133
681.00,0.0122
680.00,0.0113
679.00,0.0106
678.00,0.0099
677.00,0.0093
676.00,0.0088
675.00,0.0084
674.00,0.0080
673.00,0.0077
672.00,0.0075
671.00,0.0073
670.00,0.0072
669.00,0.0069
668.00,0.0064
667.00,0.0059
666.00,0.0056
665.00,0.0054
664.00,0.0052
663.00,0.0049
662.00,0.0047
661.00,0.0045
660.00,0.0042
659.00,0.0040
658.00,0.0038
657.00,0.0036
656.00,0.0034
655.00,0.0032
654.00,0.0031
653.00,0.0029
652.00,0.0028
651.00,0.0027
650.00,0.0026
649.00,0.0025
648.00,0.0024
647.00,0.0024
646.00,0.0023
645.00,0.0023
644.00,0.0022
643.00,0.0021
642.00,0.0020
641.00,0.0021
640.00,0.0021
639.00,0.0022
638.00,0.0022
637.00,0.0022
636.00,0.0023
635.00,0.0023
634.00,0.0025
633.00,0.0026
632.00,0.0028
631.00,0.0029
630.00,0.0030
629.00,0.0031
628.00,0.0032
627.00,0.0032
626.00,0.0032
625.00,0.0032
624.00,0.0033
623.00,0.0033
622.00,0.0035
621.00,0.0035
620.00,0.0035
619.00,0.0033
618.00,0.0032
617.00,0.0031
616.00,0.0030
615.00,0.0029
614.00,0.0029
613.00,0.0029
612.00,0.0028
611.00,0.0027
610.00,0.0027
609.00,0.0026
608.00,0.0026
607.00,0.0025
606.00,0.0025
605.00,0.0025
604.00,0.0025
603.00,0.0025
602.00,0.0025
601.00,0.0026
600.00,0.0026
599.00,0.0027
598.00,0.0027
597.00,0.0028
596.00,0.0028
595.00,0.0029
594.00,0.0030
593.00,0.0030
592.00,0.0031
591.00,0.0031
590.00,0.0031
589.00,0.0032
588.00,0.0033
587.00,0.0033
586.00,0.0034
585.00,0.0035
584.00,0.0036
583.00,0.0038
582.00,0.0039
581.00,0.0041
580.00,0.0043
579.00,0.0045
578.00,0.0047
577.00,0.0050
576.00,0.0053
575.00,0.0055
574.00,0.0058
573.00,0.0060
572.00,0.0062
571.00,0.0064
570.00,0.0066
569.00,0.0069
568.00,0.0072
567.00,0.0075
566.00,0.0077
565.00,0.0080
564.00,0.0082
563.00,0.0085
562.00,0.0087
561.00,0.0089
560.00,0.0092
559.00,0.0095
558.00,0.0098
557.00,0.0101
556.00,0.0104
555.00,0.0107
554.00,0.0110
553.00,0.0113
552.00,0.0117
551.00,0.0120
550.00,0.0125
549.00,0.0130
548.00,0.0135
547.00,0.0140
546.00,0.0144
545.00,0.0149
544.00,0.0154
543.00,0.0160
542.00,0.0165
541.00,0.0171
540.00,0.0176
539.00,0.0179
538.00,0.0180
537.00,0.0180
536.00,0.0176
535.00,0.0171
534.00,0.0163
533.00,0.0156
532.00,0.0148
531.00,0.0139
530.00,0.0129
529.00,0.0119
528.00,0.0110
527.00,0.0103
526.00,0.0097
525.00,0.0090
524.00,0.0084
523.00,0.0078
522.00,0.0073
521.00,0.0070
520.00,0.0067
519.00,0.0065
518.00,0.0063
517.00,0.0061
516.00,0.0058
515.00,0.0056
514.00,0.0052
513.00,0.0050
512.00,0.0047
511.00,0.0046
510.00,0.0044
509.00,0.0043
508.00,0.0042
507.00,0.0041
506.00,0.0039
505.00,0.0037
504.00,0.0036
503.00,0.0035
502.00,0.0034
501.00,0.0034
500.00,0.0034
499.00,0.0034
498.00,0.0033
497.00,0.0032
496.00,0.0032
495.00,0.0031
494.00,0.0030
493.00,0.0029
492.00,0.0028
491.00,0.0026
490.00,0.0025
489.00,0.0024
488.00,0.0025
487.00,0.0025
486.00,0.0025
485.00,0.0024
484.00,0.0024
483.00,0.0025
482.00,0.0027
481.00,0.0027
480.00,0.0026
479.00,0.0023
478.00,0.0021
477.00,0.0022
476.00,0.0024
475.00,0.0026
474.00,0.0026
473.00,0.0025
472.00,0.0025
471.00,0.0025
470.00,0.0025
469.00,0.0024
468.00,0.0023
467.00,0.0022
466.00,0.0022
465.00,0.0024
464.00,0.0026
463.00,0.0027
462.00,0.0025
461.00,0.0022
460.00,0.0018
459.00,0.0016
458.00,0.0016
457.00,0.0018
456.00,0.0020
455.00,0.0021
454.00,0.0021
453.00,0.0020
452.00,0.0019
451.00,0.0017
450.00,0.0016
449.00,0.0015
448.00,0.0016
447.00,0.0016
446.00,0.0017
445.00,0.0018
444.00,0.0019
443.00,0.0020
442.00,0.0019
441.00,0.0017
440.00,0.0016
439.00,0.0014
438.00,0.0012
437.00,0.0010
436.00,0.0008
435.00,0.0007
434.00,0.0007
433.00,0.0009
432.00,0.0013
431.00,0.0017
430.00,0.0019
429.00,0.0018
428.00,0.0016
427.00,0.0015
426.00,0.0014
425.00,0.0014
424.00,0.0014
423.00,0.0014
422.00,0.0014
421.00,0.0015
420.00,0.0015
419.00,0.0016
418.00,0.0015
417.00,0.0013
416.00,0.0009
415.00,0.0006
414.00,0.0006
413.00,0.0007
412.00,0.0006
411.00,0.0004
410.00,0.0001
409.00,-0.0001
408.00,0.0000
407.00,0.0001
406.00,0.0002
405.00,0.0002
404.00,0.0004
403.00,0.0006
402.00,0.0009
401.00,0.0011
400.00,0.0012
