3997.65486	-0.00211
3995.59527	-0.00216
3993.53569	-0.00249
3991.47610	-0.00253
3989.41652	-0.00232
3987.35693	-0.00248
3985.29735	-0.00326
3983.23776	-0.00394
3981.17817	-0.00405
3979.11859	-0.00372
3977.05900	-0.00314
3974.99942	-0.00255
3972.93983	-0.00211
3970.88025	-0.00190
3968.82066	-0.00192
3966.76108	-0.00204
3964.70149	-0.00210
3962.64191	-0.00202
3960.58232	-0.00217
3958.52274	-0.00287
3956.46315	-0.00354
3954.40357	-0.00355
3952.34398	-0.00325
3950.28440	-0.00332
3948.22481	-0.00386
3946.16523	-0.00406
3944.10564	-0.00354
3942.04606	-0.00298
3939.98647	-0.00295
3937.92689	-0.00315
3935.86730	-0.00314
3933.80772	-0.00264
3931.74813	-0.00190
3929.68855	-0.00185
3927.62896	-0.00235
3925.56937	-0.00255
3923.50979	-0.00259
3921.45020	-0.00288
3919.39062	-0.00318
3917.33103	-0.00314
3915.27145	-0.00277
3913.21186	-0.00253
3911.15228	-0.00269
3909.09269	-0.00295
3907.03311	-0.00268
3904.97352	-0.00197
3902.91394	-0.00188
3900.85435	-0.00256
3898.79477	-0.00322
3896.73518	-0.00385
3894.67560	-0.00432
3892.61601	-0.00413
3890.55643	-0.00345
3888.49684	-0.00335
3886.43726	-0.00366
3884.37767	-0.00304
3882.31809	-0.00194
3880.25850	-0.00211
3878.19892	-0.00356
3876.13933	-0.00459
3874.07974	-0.00441
3872.02016	-0.00377
3869.96057	-0.00343
3867.90099	-0.00320
3865.84140	-0.00310
3863.78182	-0.00347
3861.72223	-0.00389
3859.66265	-0.00392
3857.60306	-0.00340
3855.54348	-0.00233
3853.48389	-0.00154
3851.42431	-0.00196
3849.36472	-0.00249
3847.30514	-0.00235
3845.24555	-0.00200
3843.18597	-0.00198
3841.12638	-0.00188
3839.06680	-0.00146
3837.00721	-0.00160
3834.94763	-0.00236
3832.88804	-0.00276
3830.82846	-0.00271
3828.76887	-0.00268
3826.70929	-0.00252
3824.64970	-0.00201
3822.59012	-0.00165
3820.53053	-0.00189
3818.47094	-0.00242
3816.41136	-0.00278
3814.35177	-0.00293
3812.29219	-0.00294
3810.23260	-0.00294
3808.17302	-0.00313
3806.11343	-0.00338
3804.05385	-0.00322
3801.99426	-0.00263
3799.93468	-0.00204
3797.87509	-0.00171
3795.81551	-0.00158
3793.75592	-0.00168
3791.69634	-0.00197
3789.63675	-0.00229
3787.57717	-0.00248
3785.51758	-0.00250
3783.45800	-0.00222
3781.39841	-0.00156
3779.33883	-0.00111
3777.27924	-0.00130
3775.21966	-0.00146
3773.16007	-0.00147
3771.10049	-0.00206
3769.04090	-0.00307
3766.98132	-0.00339
3764.92173	-0.00300
3762.86214	-0.00269
3760.80256	-0.00254
3758.74297	-0.00211
3756.68339	-0.00154
3754.62380	-0.00129
3752.56422	-0.00099
3750.50463	-0.00035
3748.44505	-0.00046
3746.38546	-0.00165
3744.32588	-0.00252
3742.26629	-0.00248
3740.20671	-0.00242
3738.14712	-0.00240
3736.08754	-0.00190
3734.02795	-0.00128
3731.96837	-0.00113
3729.90878	-0.00137
3727.84920	-0.00173
3725.78961	-0.00195
3723.73003	-0.00201
3721.67044	-0.00194
3719.61086	-0.00175
3717.55127	-0.00157
3715.49169	-0.00146
3713.43210	-0.00138
3711.37251	-0.00119
3709.31293	-0.00089
3707.25334	-0.00082
3705.19376	-0.00129
3703.13417	-0.00179
3701.07459	-0.00155
3699.01500	-0.00100
3696.95542	-0.00081
3694.89583	-0.00084
3692.83625	-0.00082
3690.77666	-0.00046
3688.71708	-0.00004
3686.65749	0.00013
3684.59791	0.00045
3682.53832	0.00121
3680.47874	0.00222
3678.41915	0.00311
3676.35957	0.00390
3674.29998	0.00423
3672.24040	0.00382
3670.18081	0.00344
3668.12123	0.00363
3666.06164	0.00441
3664.00206	0.00531
3661.94247	0.00578
3659.88289	0.00581
3657.82330	0.00596
3655.76371	0.00699
3653.70413	0.00876
3651.64454	0.01032
3649.58496	0.01121
3647.52537	0.01182
3645.46579	0.01262
3643.40620	0.01341
3641.34662	0.01374
3639.28703	0.01374
3637.22745	0.01409
3635.16786	0.01486
3633.10828	0.01550
3631.04869	0.01608
3628.98911	0.01716
3626.92952	0.01848
3624.86994	0.01949
3622.81035	0.02034
3620.75077	0.02139
3618.69118	0.02254
3616.63160	0.02324
3614.57201	0.02375
3612.51243	0.02453
3610.45284	0.02558
3608.39326	0.02698
3606.33367	0.02852
3604.27408	0.02979
3602.21450	0.03076
3600.15491	0.03155
3598.09533	0.03235
3596.03574	0.03337
3593.97616	0.03415
3591.91657	0.03447
3589.85699	0.03524
3587.79740	0.03713
3585.73782	0.03910
3583.67823	0.04035
3581.61865	0.04112
3579.55906	0.04171
3577.49948	0.04238
3575.43989	0.04335
3573.38031	0.04450
3571.32072	0.04562
3569.26114	0.04703
3567.20155	0.04913
3565.14197	0.05120
3563.08238	0.05247
3561.02280	0.05332
3558.96321	0.05424
3556.90363	0.05523
3554.84404	0.05600
3552.78446	0.05655
3550.72487	0.05741
3548.66528	0.05895
3546.60570	0.06088
3544.54611	0.06250
3542.48653	0.06344
3540.42694	0.06416
3538.36736	0.06504
3536.30777	0.06583
3534.24819	0.06651
3532.18860	0.06745
3530.12902	0.06875
3528.06943	0.07034
3526.00985	0.07212
3523.95026	0.07338
3521.89068	0.07378
3519.83109	0.07420
3517.77151	0.07519
3515.71192	0.07629
3513.65234	0.07732
3511.59275	0.07845
3509.53317	0.07962
3507.47358	0.08045
3505.41400	0.08066
3503.35441	0.08101
3501.29483	0.08240
3499.23524	0.08391
3497.17565	0.08440
3495.11607	0.08450
3493.05648	0.08505
3490.99690	0.08594
3488.93731	0.08694
3486.87773	0.08803
3484.81814	0.08917
3482.75856	0.09008
3480.69897	0.09036
3478.63939	0.09012
3476.57980	0.09023
3474.52022	0.09133
3472.46063	0.09251
3470.40105	0.09297
3468.34146	0.09339
3466.28188	0.09438
3464.22229	0.09551
3462.16271	0.09603
3460.10312	0.09598
3458.04354	0.09628
3455.98395	0.09732
3453.92437	0.09833
3451.86478	0.09839
3449.80520	0.09788
3447.74561	0.09803
3445.68603	0.09897
3443.62644	0.10005
3441.56685	0.10096
3439.50727	0.10149
3437.44768	0.10177
3435.38810	0.10230
3433.32851	0.10316
3431.26893	0.10400
3429.20934	0.10446
3427.14976	0.10474
3425.09017	0.10535
3423.03059	0.10638
3420.97100	0.10749
3418.91142	0.10837
3416.85183	0.10907
3414.79225	0.10966
3412.73266	0.11013
3410.67308	0.11084
3408.61349	0.11198
3406.55391	0.11328
3404.49432	0.11451
3402.43474	0.11551
3400.37515	0.11615
3398.31557	0.11655
3396.25598	0.11734
3394.19640	0.11860
3392.13681	0.11957
3390.07723	0.12014
3388.01764	0.12078
3385.95805	0.12181
3383.89847	0.12346
3381.83888	0.12502
3379.77930	0.12573
3377.71971	0.12627
3375.66013	0.12725
3373.60054	0.12863
3371.54096	0.13013
3369.48137	0.13154
3367.42179	0.13299
3365.36220	0.13440
3363.30262	0.13563
3361.24303	0.13684
3359.18345	0.13806
3357.12386	0.13928
3355.06428	0.14055
3353.00469	0.14196
3350.94511	0.14362
3348.88552	0.14511
3346.82594	0.14638
3344.76635	0.14799
3342.70677	0.14992
3340.64718	0.15203
3338.58760	0.15449
3336.52801	0.15691
3334.46842	0.15886
3332.40884	0.16065
3330.34925	0.16254
3328.28967	0.16442
3326.23008	0.16639
3324.17050	0.16880
3322.11091	0.17144
3320.05133	0.17389
3317.99174	0.17634
3315.93216	0.17898
3313.87257	0.18147
3311.81299	0.18373
3309.75340	0.18600
3307.69382	0.18850
3305.63423	0.19128
3303.57465	0.19424
3301.51506	0.19711
3299.45548	0.19982
3297.39589	0.20255
3295.33631	0.20515
3293.27672	0.20762
3291.21714	0.21011
3289.15755	0.21213
3287.09797	0.21351
3285.03838	0.21483
3282.97880	0.21623
3280.91921	0.21720
3278.85962	0.21758
3276.80004	0.21789
3274.74045	0.21818
3272.68087	0.21795
3270.62128	0.21728
3268.56170	0.21622
3266.50211	0.21460
3264.44253	0.21274
3262.38294	0.21077
3260.32336	0.20853
3258.26377	0.20634
3256.20419	0.20409
3254.14460	0.20114
3252.08502	0.19784
3250.02543	0.19529
3247.96585	0.19348
3245.90626	0.19136
3243.84668	0.18867
3241.78709	0.18614
3239.72751	0.18426
3237.66792	0.18275
3235.60834	0.18115
3233.54875	0.17934
3231.48917	0.17732
3229.42958	0.17510
3227.36999	0.17296
3225.31041	0.17110
3223.25082	0.16945
3221.19124	0.16794
3219.13165	0.16632
3217.07207	0.16429
3215.01248	0.16201
3212.95290	0.15982
3210.89331	0.15765
3208.83373	0.15534
3206.77414	0.15308
3204.71456	0.15112
3202.65497	0.14952
3200.59539	0.14780
3198.53580	0.14549
3196.47622	0.14283
3194.41663	0.14024
3192.35705	0.13776
3190.29746	0.13545
3188.23788	0.13351
3186.17829	0.13187
3184.11871	0.13004
3182.05912	0.12788
3179.99954	0.12564
3177.93995	0.12322
3175.88037	0.12076
3173.82078	0.11849
3171.76119	0.11626
3169.70161	0.11410
3167.64202	0.11217
3165.58244	0.11009
3163.52285	0.10783
3161.46327	0.10602
3159.40368	0.10454
3157.34410	0.10283
3155.28451	0.10109
3153.22493	0.09967
3151.16534	0.09823
3149.10576	0.09658
3147.04617	0.09505
3144.98659	0.09366
3142.92700	0.09221
3140.86742	0.09077
3138.80783	0.08945
3136.74825	0.08806
3134.68866	0.08677
3132.62908	0.08621
3130.56949	0.08613
3128.50991	0.08566
3126.45032	0.08490
3124.39074	0.08431
3122.33115	0.08406
3120.27156	0.08431
3118.21198	0.08474
3116.15239	0.08488
3114.09281	0.08483
3112.03322	0.08483
3109.97364	0.08496
3107.91405	0.08527
3105.85447	0.08582
3103.79488	0.08638
3101.73530	0.08656
3099.67571	0.08666
3097.61613	0.08729
3095.55654	0.08826
3093.49696	0.08910
3091.43737	0.08988
3089.37779	0.09065
3087.31820	0.09132
3085.25862	0.09187
3083.19903	0.09221
3081.13945	0.09246
3079.07986	0.09302
3077.02028	0.09368
3074.96069	0.09402
3072.90111	0.09405
3070.84152	0.09387
3068.78194	0.09353
3066.72235	0.09290
3064.66276	0.09176
3062.60318	0.09042
3060.54359	0.08929
3058.48401	0.08830
3056.42442	0.08735
3054.36484	0.08629
3052.30525	0.08505
3050.24567	0.08362
3048.18608	0.08206
3046.12650	0.08061
3044.06691	0.07917
3042.00733	0.07745
3039.94774	0.07554
3037.88816	0.07377
3035.82857	0.07220
3033.76899	0.07080
3031.70940	0.06947
3029.64982	0.06791
3027.59023	0.06629
3025.53065	0.06496
3023.47106	0.06375
3021.41148	0.06247
3019.35189	0.06133
3017.29231	0.06049
3015.23272	0.05980
3013.17313	0.05895
3011.11355	0.05769
3009.05396	0.05663
3006.99438	0.05652
3004.93479	0.05678
3002.87521	0.05678
3000.81562	0.05696
2998.75604	0.05750
2996.69645	0.05811
2994.63687	0.05881
2992.57728	0.05960
2990.51770	0.06058
2988.45811	0.06145
2986.39853	0.06177
2984.33894	0.06192
2982.27936	0.06212
2980.21977	0.06204
2978.16019	0.06166
2976.10060	0.06131
2974.04102	0.06084
2971.98143	0.06027
2969.92185	0.05978
2967.86226	0.05892
2965.80268	0.05774
2963.74309	0.05677
2961.68351	0.05590
2959.62392	0.05497
2957.56433	0.05410
2955.50475	0.05369
2953.44516	0.05420
2951.38558	0.05544
2949.32599	0.05681
2947.26641	0.05822
2945.20682	0.06003
2943.14724	0.06188
2941.08765	0.06284
2939.02807	0.06284
2936.96848	0.06232
2934.90890	0.06104
2932.84931	0.05891
2930.78973	0.05622
2928.73014	0.05261
2926.67056	0.04743
2924.61097	0.04024
2922.55139	0.03095
2920.49180	0.02004
2918.43222	0.00884
2916.37263	0.00147
2914.31305	0.00281
2912.25346	0.01118
2910.19388	0.01986
2908.13429	0.02545
2906.07471	0.02843
2904.01512	0.02966
2901.95553	0.02991
2899.89595	0.02997
2897.83636	0.03013
2895.77678	0.03049
2893.71719	0.03100
2891.65761	0.03150
2889.59802	0.03201
2887.53844	0.03264
2885.47885	0.03343
2883.41927	0.03429
2881.35968	0.03486
2879.30010	0.03495
2877.24051	0.03496
2875.18093	0.03503
2873.12134	0.03474
2871.06176	0.03391
2869.00217	0.03281
2866.94259	0.03177
2864.88300	0.03066
2862.82342	0.02928
2860.76383	0.02782
2858.70425	0.02603
2856.64466	0.02322
2854.58508	0.01842
2852.52549	0.01021
2850.46590	-0.00008
2848.40632	-0.00539
2846.34673	-0.00090
2844.28715	0.00854
2842.22756	0.01614
2840.16798	0.02042
2838.10839	0.02273
2836.04881	0.02392
2833.98922	0.02434
2831.92964	0.02463
2829.87005	0.02497
2827.81047	0.02517
2825.75088	0.02537
2823.69130	0.02563
2821.63171	0.02561
2819.57213	0.02544
2817.51254	0.02541
2815.45296	0.02536
2813.39337	0.02512
2811.33379	0.02474
2809.27420	0.02443
2807.21462	0.02428
2805.15503	0.02419
2803.09545	0.02391
2801.03586	0.02350
2798.97628	0.02320
2796.91669	0.02304
2794.85710	0.02283
2792.79752	0.02250
2790.73793	0.02213
2788.67835	0.02165
2786.61876	0.02109
2784.55918	0.02067
2782.49959	0.02044
2780.44001	0.02023
2778.38042	0.02005
2776.32084	0.01980
2774.26125	0.01938
2772.20167	0.01904
2770.14208	0.01882
2768.08250	0.01841
2766.02291	0.01796
2763.96333	0.01779
2761.90374	0.01765
2759.84416	0.01733
2757.78457	0.01725
2755.72499	0.01738
2753.66540	0.01719
2751.60582	0.01678
2749.54623	0.01645
2747.48665	0.01608
2745.42706	0.01546
2743.36747	0.01488
2741.30789	0.01468
2739.24830	0.01461
2737.18872	0.01440
2735.12913	0.01412
2733.06955	0.01387
2731.00996	0.01379
2728.95038	0.01382
2726.89079	0.01383
2724.83121	0.01374
2722.77162	0.01341
2720.71204	0.01312
2718.65245	0.01299
2716.59287	0.01281
2714.53328	0.01258
2712.47370	0.01248
2710.41411	0.01246
2708.35453	0.01240
2706.29494	0.01227
2704.23536	0.01206
2702.17577	0.01184
2700.11619	0.01155
2698.05660	0.01130
2695.99702	0.01138
2693.93743	0.01152
2691.87785	0.01139
2689.81826	0.01132
2687.75867	0.01131
2685.69909	0.01119
2683.63950	0.01110
2681.57992	0.01117
2679.52033	0.01128
2677.46075	0.01120
2675.40116	0.01096
2673.34158	0.01080
2671.28199	0.01076
2669.22241	0.01067
2667.16282	0.01039
2665.10324	0.01011
2663.04365	0.01018
2660.98407	0.01045
2658.92448	0.01053
2656.86490	0.01061
2654.80531	0.01061
2652.74573	0.01043
2650.68614	0.01046
2648.62656	0.01072
2646.56697	0.01082
2644.50739	0.01061
2642.44780	0.01044
2640.38822	0.01052
2638.32863	0.01039
2636.26904	0.01007
2634.20946	0.01003
2632.14987	0.01019
2630.09029	0.01017
2628.03070	0.01011
2625.97112	0.01014
2623.91153	0.01013
2621.85195	0.01008
2619.79236	0.00991
2617.73278	0.00956
2615.67319	0.00926
2613.61361	0.00927
2611.55402	0.00944
2609.49444	0.00948
2607.43485	0.00932
2605.37527	0.00900
2603.31568	0.00872
2601.25610	0.00833
2599.19651	0.00788
2597.13693	0.00770
2595.07734	0.00760
2593.01776	0.00754
2590.95817	0.00780
2588.89859	0.00804
2586.83900	0.00796
2584.77942	0.00793
2582.71983	0.00802
2580.66024	0.00797
2578.60066	0.00769
2576.54107	0.00723
2574.48149	0.00678
2572.42190	0.00626
2570.36232	0.00570
2568.30273	0.00569
2566.24315	0.00625
2564.18356	0.00666
2562.12398	0.00656
2560.06439	0.00638
2558.00481	0.00656
2555.94522	0.00673
2553.88564	0.00650
2551.82605	0.00609
2549.76647	0.00616
2547.70688	0.00662
2545.64730	0.00659
2543.58771	0.00606
2541.52813	0.00598
2539.46854	0.00639
2537.40896	0.00636
2535.34937	0.00598
2533.28979	0.00605
2531.23020	0.00622
2529.17062	0.00596
2527.11103	0.00582
2525.05144	0.00611
2522.99186	0.00612
2520.93227	0.00581
2518.87269	0.00583
2516.81310	0.00597
2514.75352	0.00592
2512.69393	0.00575
2510.63435	0.00554
2508.57476	0.00558
2506.51518	0.00583
2504.45559	0.00593
2502.39601	0.00587
2500.33642	0.00571
2498.27684	0.00561
2496.21725	0.00558
2494.15767	0.00540
2492.09808	0.00521
2490.03850	0.00509
2487.97891	0.00478
2485.91933	0.00471
2483.85974	0.00502
2481.80016	0.00521
2479.74057	0.00546
2477.68099	0.00571
2475.62140	0.00554
2473.56181	0.00536
2471.50223	0.00551
2469.44264	0.00558
2467.38306	0.00537
2465.32347	0.00520
2463.26389	0.00525
2461.20430	0.00518
2459.14472	0.00489
2457.08513	0.00473
2455.02555	0.00444
2452.96596	0.00419
2450.90638	0.00456
2448.84679	0.00496
2446.78721	0.00479
2444.72762	0.00445
2442.66804	0.00437
2440.60845	0.00441
2438.54887	0.00436
2436.48928	0.00462
2434.42970	0.00493
2432.37011	0.00463
2430.31053	0.00422
2428.25094	0.00432
2426.19136	0.00450
2424.13177	0.00432
2422.07219	0.00398
2420.01260	0.00377
2417.95301	0.00409
2415.89343	0.00479
2413.83384	0.00517
2411.77426	0.00503
2409.71467	0.00446
2407.65509	0.00388
2405.59550	0.00384
2403.53592	0.00406
2401.47633	0.00417
2399.41675	0.00424
2397.35716	0.00394
2395.29758	0.00356
2393.23799	0.00346
2391.17841	0.00358
2389.11882	0.00368
2387.05924	0.00370
2384.99965	0.00368
2382.94007	0.00378
2380.88048	0.00409
2378.82090	0.00453
2376.76131	0.00513
2374.70173	0.00503
2372.64214	0.00501
2370.58256	0.00548
2368.52297	0.00554
2366.46338	0.00617
2364.40380	0.00617
2362.34421	0.00606
2360.28463	0.00716
2358.22504	0.00681
2356.16546	0.00597
2354.10587	0.00530
2352.04629	0.00491
2349.98670	0.00634
2347.92712	0.00589
2345.86753	0.00534
2343.80795	0.00625
2341.74836	0.00581
2339.68878	0.00666
2337.62919	0.00706
2335.56961	0.00657
2333.51002	0.00726
2331.45044	0.00658
2329.39085	0.00678
2327.33127	0.00645
2325.27168	0.00715
2323.21210	0.00707
2321.15251	0.00678
2319.09293	0.00663
2317.03334	0.00630
2314.97376	0.00602
2312.91417	0.00556
2310.85458	0.00525
2308.79500	0.00530
2306.73541	0.00530
2304.67583	0.00532
2302.61624	0.00533
2300.55666	0.00535
2298.49707	0.00538
2296.43749	0.00549
2294.37790	0.00536
2292.31832	0.00536
2290.25873	0.00566
2288.19915	0.00601
2286.13956	0.00619
2284.07998	0.00615
2282.02039	0.00572
2279.96081	0.00510
2277.90122	0.00476
2275.84164	0.00493
2273.78205	0.00516
2271.72247	0.00530
2269.66288	0.00575
2267.60330	0.00595
2265.54371	0.00534
2263.48413	0.00489
2261.42454	0.00526
2259.36495	0.00558
2257.30537	0.00532
2255.24578	0.00493
2253.18620	0.00504
2251.12661	0.00562
2249.06703	0.00606
2247.00744	0.00580
2244.94786	0.00516
2242.88827	0.00452
2240.82869	0.00422
2238.76910	0.00463
2236.70952	0.00531
2234.64993	0.00512
2232.59035	0.00437
2230.53076	0.00417
2228.47118	0.00439
2226.41159	0.00445
2224.35201	0.00455
2222.29242	0.00459
2220.23284	0.00420
2218.17325	0.00436
2216.11367	0.00498
2214.05408	0.00447
2211.99450	0.00368
2209.93491	0.00440
2207.87533	0.00600
2205.81574	0.00645
2203.75615	0.00532
2201.69657	0.00444
2199.63698	0.00450
2197.57740	0.00515
2195.51781	0.00633
2193.45823	0.00718
2191.39864	0.00732
2189.33906	0.00725
2187.27947	0.00718
2185.21989	0.00691
2183.16030	0.00630
2181.10072	0.00523
2179.04113	0.00427
2176.98155	0.00419
2174.92196	0.00448
2172.86238	0.00490
2170.80279	0.00588
2168.74321	0.00668
2166.68362	0.00658
2164.62404	0.00617
2162.56445	0.00581
2160.50487	0.00457
2158.44528	0.00263
2156.38570	0.00181
2154.32611	0.00254
2152.26652	0.00410
2150.20694	0.00477
2148.14735	0.00333
2146.08777	0.00154
2144.02818	0.00184
2141.96860	0.00351
2139.90901	0.00404
2137.84943	0.00316
2135.78984	0.00252
2133.73026	0.00286
2131.67067	0.00340
2129.61109	0.00351
2127.55150	0.00338
2125.49192	0.00367
2123.43233	0.00453
2121.37275	0.00537
2119.31316	0.00597
2117.25358	0.00632
2115.19399	0.00590
2113.13441	0.00526
2111.07482	0.00529
2109.01524	0.00530
2106.95565	0.00508
2104.89607	0.00541
2102.83648	0.00590
2100.77690	0.00585
2098.71731	0.00566
2096.65772	0.00540
2094.59814	0.00520
2092.53855	0.00546
2090.47897	0.00585
2088.41938	0.00585
2086.35980	0.00541
2084.30021	0.00512
2082.24063	0.00540
2080.18104	0.00577
2078.12146	0.00543
2076.06187	0.00469
2074.00229	0.00459
2071.94270	0.00516
2069.88312	0.00561
2067.82353	0.00563
2065.76395	0.00556
2063.70436	0.00555
2061.64478	0.00539
2059.58519	0.00487
2057.52561	0.00424
2055.46602	0.00386
2053.40644	0.00404
2051.34685	0.00462
2049.28727	0.00428
2047.22768	0.00303
2045.16810	0.00297
2043.10851	0.00407
2041.04892	0.00438
2038.98934	0.00353
2036.92975	0.00302
2034.87017	0.00338
2032.81058	0.00339
2030.75100	0.00273
2028.69141	0.00171
2026.63183	0.00085
2024.57224	0.00087
2022.51266	0.00139
2020.45307	0.00181
2018.39349	0.00233
2016.33390	0.00302
2014.27432	0.00394
2012.21473	0.00518
2010.15515	0.00585
2008.09556	0.00520
2006.03598	0.00383
2003.97639	0.00261
2001.91681	0.00202
1999.85722	0.00231
1997.79764	0.00283
1995.73805	0.00296
1993.67847	0.00295
1991.61888	0.00306
1989.55929	0.00324
1987.49971	0.00321
1985.44012	0.00332
1983.38054	0.00439
1981.32095	0.00546
1979.26137	0.00478
1977.20178	0.00320
1975.14220	0.00281
1973.08261	0.00288
1971.02303	0.00218
1968.96344	0.00160
1966.90386	0.00207
1964.84427	0.00264
1962.78469	0.00216
1960.72510	0.00187
1958.66552	0.00270
1956.60593	0.00341
1954.54635	0.00345
1952.48676	0.00332
1950.42718	0.00312
1948.36759	0.00282
1946.30801	0.00290
1944.24842	0.00331
1942.18884	0.00338
1940.12925	0.00316
1938.06967	0.00291
1936.01008	0.00279
1933.95049	0.00303
1931.89091	0.00333
1929.83132	0.00330
1927.77174	0.00312
1925.71215	0.00312
1923.65257	0.00319
1921.59298	0.00316
1919.53340	0.00296
1917.47381	0.00270
1915.41423	0.00284
1913.35464	0.00325
1911.29506	0.00342
1909.23547	0.00347
1907.17589	0.00369
1905.11630	0.00384
1903.05672	0.00367
1900.99713	0.00334
1898.93755	0.00315
1896.87796	0.00331
1894.81838	0.00361
1892.75879	0.00372
1890.69921	0.00378
1888.63962	0.00400
1886.58004	0.00410
1884.52045	0.00389
1882.46086	0.00369
1880.40128	0.00369
1878.34169	0.00368
1876.28211	0.00352
1874.22252	0.00350
1872.16294	0.00390
1870.10335	0.00442
1868.04377	0.00450
1865.98418	0.00418
1863.92460	0.00395
1861.86501	0.00400
1859.80543	0.00407
1857.74584	0.00394
1855.68626	0.00387
1853.62667	0.00404
1851.56709	0.00411
1849.50750	0.00390
1847.44792	0.00381
1845.38833	0.00407
1843.32875	0.00432
1841.26916	0.00432
1839.20958	0.00416
1837.14999	0.00390
1835.09041	0.00381
1833.03082	0.00408
1830.97124	0.00450
1828.91165	0.00479
1826.85206	0.00496
1824.79248	0.00499
1822.73289	0.00478
1820.67331	0.00452
1818.61372	0.00439
1816.55414	0.00443
1814.49455	0.00465
1812.43497	0.00491
1810.37538	0.00499
1808.31580	0.00493
1806.25621	0.00503
1804.19663	0.00528
1802.13704	0.00551
1800.07746	0.00573
1798.01787	0.00596
1795.95829	0.00617
1793.89870	0.00639
1791.83912	0.00650
1789.77953	0.00639
1787.71995	0.00627
1785.66036	0.00631
1783.60078	0.00645
1781.54119	0.00662
1779.48161	0.00670
1777.42202	0.00675
1775.36243	0.00692
1773.30285	0.00715
1771.24326	0.00724
1769.18368	0.00726
1767.12409	0.00730
1765.06451	0.00739
1763.00492	0.00762
1760.94534	0.00793
1758.88575	0.00815
1756.82617	0.00837
1754.76658	0.00867
1752.70700	0.00899
1750.64741	0.00942
1748.58783	0.00994
1746.52824	0.01024
1744.46866	0.01033
1742.40907	0.01049
1740.34949	0.01085
1738.28990	0.01128
1736.23032	0.01166
1734.17073	0.01200
1732.11115	0.01232
1730.05156	0.01261
1727.99198	0.01292
1725.93239	0.01332
1723.87281	0.01389
1721.81322	0.01471
1719.75363	0.01582
1717.69405	0.01743
1715.63446	0.01949
1713.57488	0.02175
1711.51529	0.02443
1709.45571	0.02803
1707.39612	0.03306
1705.33654	0.03957
1703.27695	0.04630
1701.21737	0.05341
1699.15778	0.06126
1697.09820	0.06792
1695.03861	0.07345
1692.97903	0.07835
1690.91944	0.08311
1688.85986	0.08809
1686.80027	0.09327
1684.74069	0.10034
1682.68110	0.10892
1680.62152	0.11561
1678.56193	0.12100
1676.50235	0.12722
1674.44276	0.13456
1672.38318	0.14157
1670.32359	0.14890
1668.26401	0.15709
1666.20442	0.16401
1664.14483	0.17049
1662.08525	0.17835
1660.02566	0.18591
1657.96608	0.19145
1655.90649	0.19644
1653.84691	0.20420
1651.78732	0.21331
1649.72774	0.21823
1647.66815	0.22168
1645.60857	0.22594
1643.54898	0.22883
1641.48940	0.23026
1639.42981	0.23140
1637.37023	0.23298
1635.31064	0.23528
1633.25106	0.23695
1631.19147	0.23741
1629.13189	0.23769
1627.07230	0.23824
1625.01272	0.23859
1622.95313	0.23809
1620.89355	0.23583
1618.83396	0.23080
1616.77438	0.22236
1614.71479	0.21188
1612.65520	0.20105
1610.59562	0.18903
1608.53603	0.17549
1606.47645	0.16193
1604.41686	0.14969
1602.35728	0.13915
1600.29769	0.13056
1598.23811	0.12381
1596.17852	0.11818
1594.11894	0.11311
1592.05935	0.10861
1589.99977	0.10490
1587.94018	0.10220
1585.88060	0.10058
1583.82101	0.09987
1581.76143	0.09987
1579.70184	0.10063
1577.64226	0.10297
1575.58267	0.10734
1573.52309	0.11207
1571.46350	0.11694
1569.40392	0.12359
1567.34433	0.13097
1565.28475	0.13737
1563.22516	0.14259
1561.16558	0.14808
1559.10599	0.15709
1557.04640	0.16718
1554.98682	0.17354
1552.92723	0.17844
1550.86765	0.18359
1548.80806	0.18846
1546.74848	0.19237
1544.68889	0.19579
1542.62931	0.19986
1540.56972	0.20564
1538.51014	0.21185
1536.45055	0.21596
1534.39097	0.21978
1532.33138	0.22436
1530.27180	0.22785
1528.21221	0.23026
1526.15263	0.23255
1524.09304	0.23472
1522.03346	0.23731
1519.97387	0.24055
1517.91429	0.24374
1515.85470	0.24623
1513.79512	0.24681
1511.73553	0.24519
1509.67595	0.24184
1507.61636	0.23596
1505.55677	0.22762
1503.49719	0.21966
1501.43760	0.21205
1499.37802	0.20309
1497.31843	0.19234
1495.25885	0.18155
1493.19926	0.17237
1491.13968	0.16329
1489.08009	0.15288
1487.02051	0.14304
1484.96092	0.13515
1482.90134	0.12847
1480.84175	0.12241
1478.78217	0.11717
1476.72258	0.11269
1474.66300	0.10884
1472.60341	0.10614
1470.54383	0.10497
1468.48424	0.10460
1466.42466	0.10462
1464.36507	0.10544
1462.30549	0.10711
1460.24590	0.10959
1458.18632	0.11372
1456.12673	0.11908
1454.06715	0.12283
1452.00756	0.12460
1449.94797	0.12528
1447.88839	0.12496
1445.82880	0.12342
1443.76922	0.12087
1441.70963	0.11777
1439.65005	0.11436
1437.59046	0.11043
1435.53088	0.10609
1433.47129	0.10230
1431.41171	0.09939
1429.35212	0.09748
1427.29254	0.09678
1425.23295	0.09723
1423.17337	0.09846
1421.11378	0.10028
1419.05420	0.10307
1416.99461	0.10627
1414.93503	0.10875
1412.87544	0.11049
1410.81586	0.11160
1408.75627	0.11186
1406.69669	0.11121
1404.63710	0.10981
1402.57752	0.10799
1400.51793	0.10619
1398.45834	0.10478
1396.39876	0.10402
1394.33917	0.10399
1392.27959	0.10444
1390.22000	0.10507
1388.16042	0.10592
1386.10083	0.10677
1384.04125	0.10716
1381.98166	0.10699
1379.92208	0.10650
1377.86249	0.10580
1375.80291	0.10481
1373.74332	0.10332
1371.68374	0.10123
1369.62415	0.09857
1367.56457	0.09548
1365.50498	0.09217
1363.44540	0.08870
1361.38581	0.08539
1359.32623	0.08283
1357.26664	0.08105
1355.20706	0.07986
1353.14747	0.07936
1351.08789	0.07963
1349.02830	0.08054
1346.96872	0.08192
1344.90913	0.08371
1342.84954	0.08584
1340.78996	0.08819
1338.73037	0.09052
1336.67079	0.09225
1334.61120	0.09296
1332.55162	0.09261
1330.49203	0.09132
1328.43245	0.08933
1326.37286	0.08697
1324.31328	0.08460
1322.25369	0.08260
1320.19411	0.08118
1318.13452	0.08035
1316.07494	0.08003
1314.01535	0.08008
1311.95577	0.08031
1309.89618	0.08058
1307.83660	0.08093
1305.77701	0.08136
1303.71743	0.08185
1301.65784	0.08240
1299.59826	0.08293
1297.53867	0.08342
1295.47909	0.08401
1293.41950	0.08474
1291.35991	0.08547
1289.30033	0.08620
1287.24074	0.08705
1285.18116	0.08801
1283.12157	0.08902
1281.06199	0.09018
1279.00240	0.09170
1276.94282	0.09364
1274.88323	0.09591
1272.82365	0.09846
1270.76406	0.10120
1268.70448	0.10388
1266.64489	0.10636
1264.58531	0.10859
1262.52572	0.11050
1260.46614	0.11219
1258.40655	0.11394
1256.34697	0.11591
1254.28738	0.11815
1252.22780	0.12058
1250.16821	0.12315
1248.10863	0.12591
1246.04904	0.12876
1243.98946	0.13157
1241.92987	0.13420
1239.87029	0.13646
1237.81070	0.13824
1235.75111	0.13954
1233.69153	0.14021
1231.63194	0.13997
1229.57236	0.13866
1227.51277	0.13628
1225.45319	0.13298
1223.39360	0.12900
1221.33402	0.12444
1219.27443	0.11941
1217.21485	0.11412
1215.15526	0.10870
1213.09568	0.10326
1211.03609	0.09803
1208.97651	0.09317
1206.91692	0.08864
1204.85734	0.08437
1202.79775	0.08037
1200.73817	0.07672
1198.67858	0.07351
1196.61900	0.07083
1194.55941	0.06880
1192.49983	0.06727
1190.44024	0.06613
1188.38066	0.06537
1186.32107	0.06503
1184.26149	0.06520
1182.20190	0.06599
1180.14231	0.06748
1178.08273	0.06954
1176.02314	0.07193
1173.96356	0.07420
1171.90397	0.07589
1169.84439	0.07691
1167.78480	0.07743
1165.72522	0.07755
1163.66563	0.07719
1161.60605	0.07637
1159.54646	0.07528
1157.48688	0.07401
1155.42729	0.07257
1153.36771	0.07091
1151.30812	0.06907
1149.24854	0.06718
1147.18895	0.06536
1145.12937	0.06375
1143.06978	0.06236
1141.01020	0.06104
1138.95061	0.05980
1136.89103	0.05880
1134.83144	0.05808
1132.77186	0.05759
1130.71227	0.05727
1128.65268	0.05711
1126.59310	0.05706
1124.53351	0.05699
1122.47393	0.05692
1120.41434	0.05682
1118.35476	0.05668
1116.29517	0.05658
1114.23559	0.05657
1112.17600	0.05665
1110.11642	0.05685
1108.05683	0.05719
1105.99725	0.05765
1103.93766	0.05785
1101.87808	0.05753
1099.81849	0.05687
1097.75891	0.05610
1095.69932	0.05549
1093.63974	0.05542
1091.58015	0.05597
1089.52057	0.05701
1087.46098	0.05861
1085.40140	0.06066
1083.34181	0.06282
1081.28223	0.06499
1079.22264	0.06717
1077.16306	0.06914
1075.10347	0.07075
1073.04388	0.07197
1070.98430	0.07279
1068.92471	0.07324
1066.86513	0.07349
1064.80554	0.07366
1062.74596	0.07386
1060.68637	0.07419
1058.62679	0.07447
1056.56720	0.07437
1054.50762	0.07370
1052.44803	0.07234
1050.38845	0.07058
1048.32886	0.06884
1046.26928	0.06712
1044.20969	0.06529
1042.15011	0.06344
1040.09052	0.06183
1038.03094	0.06052
1035.97135	0.05939
1033.91177	0.05848
1031.85218	0.05785
1029.79260	0.05732
1027.73301	0.05668
1025.67343	0.05611
1023.61384	0.05612
1021.55425	0.05711
1019.49467	0.05897
1017.43508	0.06098
1015.37550	0.06220
1013.31591	0.06217
1011.25633	0.06095
1009.19674	0.05889
1007.13716	0.05644
1005.07757	0.05401
1003.01799	0.05182
1000.95840	0.04993
998.89882	0.04824
996.83923	0.04660
994.77965	0.04491
992.72006	0.04314
990.66048	0.04144
988.60089	0.04006
986.54131	0.03902
984.48172	0.03836
982.42214	0.03809
980.36255	0.03807
978.30297	0.03815
976.24338	0.03823
974.18380	0.03808
972.12421	0.03767
970.06463	0.03716
968.00504	0.03680
965.94545	0.03674
963.88587	0.03689
961.82628	0.03708
959.76670	0.03723
957.70711	0.03739
955.64753	0.03761
953.58794	0.03788
951.52836	0.03816
949.46877	0.03837
947.40919	0.03844
945.34960	0.03838
943.29002	0.03819
941.23043	0.03786
939.17085	0.03750
937.11126	0.03712
935.05168	0.03664
932.99209	0.03607
930.93251	0.03557
928.87292	0.03522
926.81334	0.03484
924.75375	0.03427
922.69417	0.03357
920.63458	0.03282
918.57500	0.03217
916.51541	0.03166
914.45582	0.03119
912.39624	0.03067
910.33665	0.03024
908.27707	0.02993
906.21748	0.02967
904.15790	0.02945
902.09831	0.02921
900.03873	0.02906
897.97914	0.02903
895.91956	0.02900
893.85997	0.02898
891.80039	0.02901
889.74080	0.02912
887.68122	0.02928
885.62163	0.02942
883.56205	0.02954
881.50246	0.02975
879.44288	0.03001
877.38329	0.03018
875.32371	0.03025
873.26412	0.03035
871.20454	0.03057
869.14495	0.03095
867.08537	0.03153
865.02578	0.03235
862.96620	0.03334
860.90661	0.03432
858.84702	0.03518
856.78744	0.03604
854.72785	0.03698
852.66827	0.03777
850.60868	0.03812
848.54910	0.03803
846.48951	0.03787
844.42993	0.03799
842.37034	0.03850
840.31076	0.03929
838.25117	0.04014
836.19159	0.04090
834.13200	0.04151
832.07242	0.04199
830.01283	0.04235
827.95325	0.04261
825.89366	0.04272
823.83408	0.04265
821.77449	0.04259
819.71491	0.04263
817.65532	0.04275
815.59574	0.04310
813.53615	0.04363
811.47657	0.04410
809.41698	0.04458
807.35740	0.04516
805.29781	0.04571
803.23822	0.04609
801.17864	0.04625
799.11905	0.04632
797.05947	0.04657
794.99988	0.04705
792.94030	0.04756
790.88071	0.04803
788.82113	0.04858
786.76154	0.04918
784.70196	0.04981
782.64237	0.05045
780.58279	0.05106
778.52320	0.05167
776.46362	0.05226
774.40403	0.05288
772.34445	0.05359
770.28486	0.05436
768.22528	0.05517
766.16569	0.05601
764.10611	0.05678
762.04652	0.05748
759.98694	0.05825
757.92735	0.05913
755.86777	0.06004
753.80818	0.06084
751.74859	0.06169
749.68901	0.06280
747.62942	0.06397
745.56984	0.06494
743.51025	0.06578
741.45067	0.06669
739.39108	0.06777
737.33150	0.06883
735.27191	0.06968
733.21233	0.07038
731.15274	0.07104
729.09316	0.07195
727.03357	0.07315
724.97399	0.07427
722.91440	0.07523
720.85482	0.07606
718.79523	0.07712
716.73565	0.07812
714.67606	0.07911
712.61648	0.08007
710.55689	0.08104
708.49731	0.08204
706.43772	0.08311
704.37814	0.08419
702.31855	0.08516
700.25897	0.08603
698.19938	0.08691
696.13979	0.08770
694.08021	0.08835
692.02062	0.08906
689.96104	0.08990
687.90145	0.09057
685.84187	0.09109
683.78228	0.09167
681.72270	0.09230
679.66311	0.09287
677.60353	0.09336
675.54394	0.09379
673.48436	0.09420
671.42477	0.09535
669.36519	0.09712
667.30560	0.09496
665.24602	0.09677
663.18643	0.09677
661.12685	0.09691
659.06726	0.09739
657.00768	0.09798
654.94809	0.09842
652.88851	0.09854
650.82892	0.09870
648.76934	0.09902
646.70975	0.09933
644.65016	0.09936
642.59058	0.09934
640.53099	0.09941
638.47141	0.09953
636.41182	0.09976
634.35224	0.09998
632.29265	0.10008
630.23307	0.10010
628.17348	0.10000
626.11390	0.09992
624.05431	0.10010
621.99473	0.10030
619.93514	0.10013
617.87556	0.09989
615.81597	0.10004
613.75639	0.10040
611.69680	0.10063
609.63722	0.10072
607.57763	0.10070
605.51805	0.10058
603.45846	0.10050
601.39888	0.10051
599.33929	0.10050
597.27971	0.10039
595.22012	0.10030
593.16054	0.10038
591.10095	0.10061
589.04136	0.10086
586.98178	0.10110
584.92219	0.10156
582.86261	0.10224
580.80302	0.10285
578.74344	0.10333
576.68385	0.10384
574.62427	0.10434
572.56468	0.10482
570.50510	0.10541
568.44551	0.10604
566.38593	0.10668
564.32634	0.10761
562.26676	0.10883
560.20717	0.11004
558.14759	0.11120
556.08800	0.11240
554.02842	0.11358
551.96883	0.11471
549.90925	0.11562
547.84966	0.11631
545.79008	0.11681
543.73049	0.11692
541.67091	0.11674
539.61132	0.11667
537.55173	0.11677
535.49215	0.11671
533.43256	0.11631
531.37298	0.11577
529.31339	0.11536
527.25381	0.11505
525.19422	0.11478
523.13464	0.11474
521.07505	0.11468
519.01547	0.11421
516.95588	0.11376
514.89630	0.11372
512.83671	0.11363
510.77713	0.11344
508.71754	0.11344
506.65796	0.11329
504.59837	0.11276
502.53879	0.11236
500.47920	0.11225
498.41962	0.11222
496.36003	0.11227
494.30045	0.11233
492.24086	0.11231
490.18128	0.11214
488.12169	0.11177
486.06211	0.11134
484.00252	0.11104
481.94293	0.11076
479.88335	0.11021
477.82376	0.10937
475.76418	0.10852
473.70459	0.10786
471.64501	0.10726
469.58542	0.10665
467.52584	0.10631
465.46625	0.10613
463.40667	0.10558
461.34708	0.10469
459.28750	0.10386
457.22791	0.10303
455.16833	0.10221
453.10874	0.10186
451.04916	0.10190
448.98957	0.10152
446.92999	0.10057
444.87040	0.09981
442.81082	0.09968
440.75123	0.09980
438.69165	0.09971
436.63206	0.09918
434.57248	0.09847
432.51289	0.09812
430.45330	0.09831
428.39372	0.09877
426.33413	0.09927
424.27455	0.09953
422.21496	0.09923
420.15538	0.09840
418.09579	0.09750
416.03621	0.09689
413.97662	0.09672
411.91704	0.09690
409.85745	0.09691
407.79787	0.09629
405.73828	0.09524
403.67870	0.09421
401.61911	0.09354
399.55953	0.09335
