################################################################################
# Data 1                                  10_10_2023_0_vd_00041-00042_azimAvg_20degree_horizontal.dat
# Data 2                                  2023_10_26_0_vd_00013-00014_azimAvg_20degree_horizontal.dat
# Transmission                            0.7618430249147571
# Weight                                  1.0376913635869098
# Smart_subtraction                       True
# Enhanced_transmission_correction        True
# EDF_DataBlockID                         0.Image.Psd
# EDF_BinarySize                          4637784
# EDF_HeaderSize                          3072
# ByteOrder                               LowByteFirst
# DataType                                FloatValue
# Dim_1                                   1038
# Dim_2                                   1117
# Image                                   0
# HeaderID                                EH:000000:000000:000000
# Size                                    4637784
# BIO_SYSTEM_CONF_TXT                     WAXSRES
# Center_1                                606.875
# Center_2                                651.034
# Comment                                 alpha_0X - alpha_0X_SAXS_HI_1200s
# DDummy                                  0.6
# Date                                    2023-10-11T03:03:57
# Delta                                   0
# Dummy                                   -1.5
# ExposureTime                            1200
# Force                                   9.91088
# Gamma                                   0
# Intensity1                              4.46235e-08
# JawsDistance                            4.54563
# JawsVelocity                            0.358589
# PSize_1                                 7.5e-05
# PSize_2                                 7.5e-05
# Pressure                                0.0778961
# SampleDistance                          0.899998
# SampleEnvKind                           saxs
# SampleEnvPN                             Solids
# SampleEnvSN                             1012
# Strain                                  0
# Stress                                  0
# Thickness                               0
# Wavelength                              1.541891e-10
# Wavelength                              1.54189e-10
# anaB                                    0
# anaB_dial                               -0.0012015
# anaPark                                 -175.125
# anaPark_dial                            175.169
# anaXi                                   0
# anaXi_dial                              0
# anaZ                                    -9.13123e-08
# anaZ_dial                               6.2299
# aux                                     0
# aux_dial                                -0.000125
# b2c                                     0
# b2c_dial                                0
# beamx                                   602.698
# beamx_dial                              602.698
# beamz                                   651.159
# beamz_dial                              651.159
# bioZ                                    -2.90461e-08
# bioZ_dial                               -0.546695
# det0x                                   0
# det0x_dial                              3.98621
# det0xvd                                 0
# det0xvd_dial                            0
# det0y                                   899.998
# det0y_dial                              43.5135
# det0z                                   0
# det0z_dial                              7.30833
# det0zvd                                 0
# det0zvd_dial                            0
# distana                                 93.4
# distana_dial                            93.4
# mag                                     2.6365
# mag_dial                                2.6365
# mono1B                                  1.00136e-08
# mono1B_dial                             -0.277
# mono2B                                  1.75476e-07
# mono2B_dial                             -4.366
# mono2X                                  -1
# mono2X_dial                             3.96031
# mono2Xi                                 0
# mono2Xi_dial                            0
# monoZ                                   -11
# monoZ_dial                              -10.6609
# om                                      1.30741e-08
# om_dial                                 -0.939898
# phi                                     -4.9295e-08
# phi_dial                                -7.01716
# qana                                    0
# qana_dial                               0
# ry                                      0
# ry_dial                                 0.00149998
# s1bot                                   1
# s1bot_dial                              -1.57906
# s1hl                                    0.1
# s1hl_dial                               -0.02125
# s1hr                                    1.5
# s1hr_dial                               1.86625
# s1top                                   0.6
# s1top_dial                              0.783906
# s2bot                                   0.95
# s2bot_dial                              -1.84531
# s2hl                                    0.35
# s2hl_dial                               -1.115
# s2hr                                    0.55
# s2hr_dial                               -0.265313
# s2top                                   -0.05
# s2top_dial                              -1.43281
# ttdeg                                   0
# ttdeg_dial                              0
# wind                                    72.0045
# wind_dial                               72.0233
# x                                       -41
# x_dial                                  -40.2903
# z                                       -13.5
# z_dial                                  5.60906
# CountCutoff                             15302352
# DetectorModel                           Dectris EIGER2 Si 1M, S/N E-02-0357
# ThresholdSetting                        4023.88989258
# Saturation                              0
# FlatField                               Corrected
# BackgroundReductionExtra                0.02
# Detector                                0
# Monitor                                 0
# Pil_Roi0                                5.35482e+10
# SumForIntensity1                        5.35482e+10
# det                                     0
# mon                                     0
# pilai0                                  5.35482e+10
# pilai1                                  0
# pilct0                                  5.35482e+10
# pilct1                                  0
# pilroi0                                 5.35482e+10
# pilroi1                                 0
# sec                                     0.099
# title                                   10_10_2023_0_00041.edf
# usaxs0                                  0
# Operation                               Azimuthal average I(q)
# Error_model                             ErrorModel.poisson
# Geometrical_correction                  True
# Transmission_correction                 True
# Psi                                     0.0
# Omega                                   0.0
# TransmittedFlux_init_value              4.46235e+07
# TransmittedFlux                         44623188.616574995
# MaskInvalidPixels                       True
# DetectorEdge                            3
# PsiMin                                  -10.0
# PsiMax                                  10.0
# Origin                                  subtracted
# Thickness_correction                    False
################################################################################
 q(A-1)                   I_subtracted(a.u.)         Sigma_I(a.u.)            
       0.001189               -173593.098                27.5051833           
       0.001528               -122306.493                25.9940391           
       0.001868               -62919.3371                24.0818288           
       0.002207               -10180.0251                21.9459175           
       0.002547                29562.3574                 19.316887           
       0.002886                43167.9426                13.4282162           
       0.003226                44729.9702                9.65195809           
       0.003566                28315.3343                7.53209594           
       0.003905                 9348.8005                5.42779113           
       0.004245               -2277.89768                3.59302044           
       0.004584               -5738.00523                2.19095281           
       0.004924               -3035.77613                1.10532231           
       0.005264               -435.841239               0.553604031           
       0.005603                115.355858               0.263186056           
       0.005943                81.7811806               0.154871752           
       0.006282                16.3633008              0.0670143858           
       0.006622                1.71821057              0.0234343511           
       0.006961               0.311614852             0.00942550219           
       0.007301              0.0900728451             0.00582981844           
       0.007641              0.0692124863             0.00479455494           
       0.007980              0.0590463155             0.00417923428           
       0.008320              0.0542274599             0.00378669614           
       0.008659              0.0531908665             0.00361530662           
       0.008999              0.0480436806             0.00302622666           
       0.009339              0.0424982896             0.00285372814           
       0.009678              0.0438442889             0.00284752963           
       0.010018              0.0365994771             0.00264869535           
       0.010357               0.034773273             0.00252955598           
       0.010697              0.0291483762             0.00225858858           
       0.011036              0.0294940311              0.0021644038           
       0.011376              0.0296856286             0.00209867754           
       0.011716              0.0288046699             0.00205892104           
       0.012055              0.0264772292             0.00196022324           
       0.012395              0.0252634064             0.00192546355           
       0.012734              0.0250368472             0.00179884544           
       0.013074              0.0204808789             0.00157715683           
       0.013414              0.0208006997             0.00160672649           
       0.013753              0.0191222713              0.0015142319           
       0.014093               0.021735268             0.00154778493           
       0.014432               0.019012607             0.00149123946           
       0.014772               0.017193761              0.0013566179           
       0.015111              0.0142775748             0.00119276338           
       0.015451              0.0135068442             0.00118240301           
       0.015791               0.015333328             0.00121561938           
       0.016130              0.0128291343             0.00116758994           
       0.016470              0.0133697473             0.00113319592           
       0.016809              0.0108088382             0.00104494203           
       0.017149              0.0122646585             0.00106461702           
       0.017489              0.0118017523             0.00101519463           
       0.017828             0.00857231163            0.000905725085           
       0.018168              0.0107401629            0.000990791869           
       0.018507              0.0103314603            0.000957036307           
       0.018847              0.0099982791            0.000888016661           
       0.019186             0.00870963491            0.000837020079           
       0.019526             0.00747892984             0.00077739472           
       0.019866             0.00812593427            0.000801704069           
       0.020205             0.00864045524            0.000834514649           
       0.020545             0.00975762026            0.000854323079           
       0.020884             0.00655559916            0.000728732772           
       0.021224              0.0076675699            0.000723806008           
       0.021564             0.00752999955            0.000728375285           
       0.021903             0.00539014665            0.000644074727           
       0.022243             0.00701916848            0.000713814002           
       0.022582             0.00615843281            0.000673679379           
       0.022922             0.00719144822            0.000679571132           
       0.023261             0.00706948295            0.000680939899           
       0.023601             0.00552924651            0.000606052186           
       0.023941             0.00616207301            0.000639256635           
       0.024280             0.00572218344            0.000578221924           
       0.024620             0.00605770945            0.000588655725           
       0.024959             0.00441713232            0.000523349473           
       0.025299             0.00550997643            0.000567652053           
       0.025639             0.00436526108            0.000516135273           
       0.025978             0.00549180914             0.00056251773           
       0.026318             0.00456259664            0.000513682678           
       0.026657             0.00452506377            0.000510650966           
       0.026997             0.00488024666            0.000529915286           
       0.027336             0.00417036781            0.000487111328           
       0.027676              0.0047364606            0.000508316108           
       0.028016             0.00523492646            0.000516604423           
       0.028355             0.00457572321            0.000498599378           
       0.028695              0.0044617071            0.000479236377           
       0.029034              0.0040313687            0.000461550704           
       0.029374             0.00458505586            0.000500274226           
       0.029714             0.00388726281            0.000459771001           
       0.030053              0.0042472167            0.000456254955           
       0.030393             0.00352198576            0.000431370329           
       0.030732             0.00378258759            0.000421854861           
       0.031072              0.0046990881             0.00045206532           
       0.031411             0.00383741528            0.000421335189           
       0.031751             0.00350137982            0.000420354438           
       0.032091             0.00347522942             0.00043150899           
       0.032430             0.00407255164            0.000433654457           
       0.032770             0.00329879028             0.00037830098           
       0.033109             0.00390880903            0.000401124369           
       0.033449              0.0032708715             0.00039563023           
       0.033789              0.0036838269            0.000397656571           
       0.034128             0.00352080468            0.000386911281           
       0.034468             0.00311293274            0.000370489428           
       0.034807             0.00366340518            0.000398359285           
       0.035147             0.00351355883            0.000391578564           
       0.035486             0.00358620561            0.000399291937           
       0.035826             0.00386756573            0.000412484426           
       0.036166             0.00308764998            0.000346196257           
       0.036505             0.00354105357            0.000383090822           
       0.036845             0.00307611359            0.000361556297           
       0.037184             0.00337170239            0.000359715165           
       0.037524             0.00296315622            0.000362923784           
       0.037864             0.00326311062            0.000363218337           
       0.038203              0.0032224288            0.000347168059           
       0.038543             0.00282434999             0.00032959062           
       0.038882             0.00294335731            0.000337108232           
       0.039222             0.00300300619            0.000340258272           
       0.039561             0.00281150435            0.000332897769           
       0.039901             0.00291311148            0.000339079303           
       0.040241             0.00279874392            0.000324397028           
       0.040580             0.00352124479            0.000355618749           
       0.040920             0.00271614778            0.000313031805           
       0.041259             0.00283174173            0.000325196344           
       0.041599             0.00298756792            0.000313661358           
       0.041939             0.00245730967             0.00029781343           
       0.042278             0.00231149564             0.00028743328           
       0.042618             0.00242843333            0.000300979389           
       0.042957             0.00253631677            0.000295220814           
       0.043297             0.00340305654            0.000331925124           
       0.043636             0.00268724598            0.000300972648           
       0.043976             0.00231543472            0.000295219308           
       0.044316             0.00296717941            0.000308084984           
       0.044655             0.00263717419             0.00028972936           
       0.044995             0.00242106103            0.000282767435           
       0.045334             0.00246296988            0.000294388668           
       0.045674             0.00224655393            0.000275757563           
       0.046014             0.00254828644            0.000300716291           
       0.046353             0.00225566039            0.000273418819           
       0.046693              0.0024901863            0.000278206704           
       0.047032             0.00290368687            0.000311447741           
       0.047372             0.00275611572            0.000288937131           
       0.047711             0.00233411389            0.000275292215           
       0.048051             0.00253721021             0.00028651377           
       0.048391             0.00271362432             0.00028264102           
       0.048730             0.00249533061             0.00027977624           
       0.049070             0.00198392138            0.000262452621           
       0.049409             0.00224136255            0.000269316697           
       0.049749             0.00247073267            0.000270717877           
       0.050089             0.00237335637             0.00026182774           
       0.050428             0.00243794623             0.00026649692           
       0.050768             0.00225917252            0.000259617631           
       0.051107             0.00228655205            0.000260746016           
       0.051447             0.00245766771            0.000266188741           
       0.051786             0.00234213594            0.000258507123           
       0.052126              0.0021271123            0.000247424899           
       0.052466             0.00236479878            0.000249343964           
       0.052805             0.00198506887            0.000239365939           
       0.053145             0.00263170332            0.000271673647           
       0.053484             0.00230174078             0.00026262227           
       0.053824             0.00192412032            0.000235942367           
       0.054164             0.00215069771            0.000242442814           
       0.054503             0.00236077548            0.000251207862           
       0.054843             0.00232683175            0.000247604552           
       0.055182              0.0014462536             0.00020428695           
       0.055522             0.00192654831            0.000232045169           
       0.055861             0.00243282048            0.000253606444           
       0.056201             0.00211759928            0.000230954655           
       0.056541             0.00194126595             0.00022799762           
       0.056880             0.00169385771            0.000214433694           
       0.057220             0.00204783632            0.000232711102           
       0.057559             0.00180942583            0.000227144287           
       0.057899             0.00188906954            0.000219330259           
       0.058239             0.00192414223            0.000221406982           
       0.058578             0.00148097573            0.000204562694           
       0.058918              0.0016927326            0.000218707265           
       0.059257             0.00179980989            0.000216782832           
       0.059597             0.00223052466             0.00023384344           
       0.059936             0.00180805374            0.000207372572           
       0.060276             0.00158042363            0.000212199277           
       0.060616              0.0018942729            0.000211885453           
       0.060955             0.00163368986            0.000204363638           
       0.061295             0.00175294222            0.000213119095           
       0.061634             0.00158973434            0.000215263331           
       0.061974             0.00152613825            0.000196509753           
       0.062314             0.00206754278            0.000222020426           
       0.062653             0.00198967983            0.000212136879           
       0.062993             0.00184527579            0.000212485905           
       0.063332             0.00206637244            0.000219869083           
       0.063672              0.0020412293              0.0002194076           
       0.064011             0.00166076284              0.0001943507           
       0.064351             0.00161392152            0.000198260898           
       0.064691             0.00143345916            0.000193879006           
       0.065030             0.00168600075            0.000201228614           
       0.065370             0.00151926331            0.000198305409           
       0.065709             0.00163832957            0.000202002836           
       0.066049             0.00206437276            0.000209732693           
       0.066389             0.00136947568            0.000178348246           
       0.066728             0.00173022012             0.00019655951           
       0.067068             0.00121342557            0.000179012684           
       0.067407             0.00158757547            0.000189561104           
       0.067747              0.0017963653            0.000201447212           
       0.068086             0.00182986701             0.00019703115           
       0.068426             0.00161316338            0.000195463793           
       0.068766             0.00156000629            0.000190823344           
       0.069105             0.00151536078              0.0001749509           
       0.069445             0.00138466964            0.000177022546           
       0.069784             0.00169196348            0.000186704342           
       0.070124             0.00172615794            0.000190997801           
       0.070464             0.00117206691            0.000166762585           
       0.070803              0.0014521282            0.000181438286           
       0.071143             0.00165579155            0.000191655776           
       0.071482             0.00132625545             0.00017478695           
       0.071822              0.0010589544            0.000163227628           
       0.072161              0.0014128114            0.000176489786           
       0.072501             0.00164860305            0.000187837085           
       0.072841             0.00146486059            0.000177653263           
       0.073180             0.00172240584             0.00019092593           
       0.073520             0.00166983285            0.000188123095           
       0.073859             0.00116533188            0.000165336438           
       0.074199             0.00118303845             0.00016120733           
       0.074539             0.00119318551            0.000174184886           
       0.074878             0.00133740126            0.000168843541           
       0.075218             0.00109913741            0.000159436573           
       0.075557             0.00122285598            0.000160572023           
       0.075897             0.00131381275            0.000161956641           
       0.076236            0.000939732052            0.000156458256           
       0.076576             0.00116590496             0.00016044264           
       0.076916            0.000931103546            0.000146712046           
       0.077255             0.00134841985            0.000162422576           
       0.077595              0.0014577583             0.00017641785           
       0.077934             0.00124795521            0.000154529844           
       0.078274             0.00121888376            0.000157809122           
       0.078614             0.00132206672            0.000160235523           
       0.078953             0.00127301524            0.000158816561           
       0.079293              0.0012477823            0.000160438565           
       0.079632             0.00122044488            0.000155436731           
       0.079972              0.0016192413            0.000174599867           
       0.080311             0.00145428946            0.000166748257           
       0.080651              0.0015288661            0.000165674782           
       0.080991             0.00124159042            0.000155110001           
       0.081330             0.00127814366            0.000157064308           
       0.081670             0.00119337021            0.000159086253           
       0.082009             0.00116153259            0.000145720918           
       0.082349             0.00121953327            0.000152277989           
       0.082689             0.00119113408            0.000157669741           
       0.083028             0.00132883186            0.000160887317           
       0.083368              0.0010455906            0.000147515913           
       0.083707              0.0011096274            0.000154461749           
       0.084047             0.00113251804            0.000155515506           
       0.084386            0.000903656574            0.000138114288           
       0.084726              0.0010682095             0.00013739566           
       0.085066            0.000957690717            0.000131857024           
       0.085405             0.00108776494            0.000141993242           
       0.085745             0.00144528982            0.000162706238           
       0.086084            0.000986555339             0.00014328548           
       0.086424             0.00100962128            0.000139306765           
       0.086764             0.00108435152            0.000143383147           
       0.087103             0.00090148203            0.000133019981           
       0.087443            0.000970828594             0.00013452925           
       0.087782             0.00101621186            0.000145281769           
       0.088122             0.00100631922            0.000141271322           
       0.088461             0.00114265327            0.000143885932           
       0.088801            0.000995493975            0.000136116492           
       0.089141            0.000997191337            0.000139497246           
       0.089480             0.00117304101            0.000141102629           
       0.089820             0.00112406398            0.000137450964           
       0.090159             0.00109486979            0.000139519129           
       0.090499             0.00104689216            0.000136427293           
       0.090839            0.000805656331            0.000123973875           
       0.091178              0.0010747074            0.000137581216           
       0.091518            0.000866064855            0.000135490605           
       0.091857            0.000832569873            0.000130653406           
       0.092197             0.00124136468            0.000145651212           
       0.092536             0.00108165678            0.000135071306           
       0.092876             0.00111469771            0.000134646931           
       0.093216            0.000943079121            0.000126594761           
       0.093555            0.000938314794            0.000124263733           
       0.093895            0.000932359037            0.000131051737           
       0.094234            0.000985187813             0.00013773743           
       0.094574            0.000698186608            0.000120374452           
       0.094914            0.000863017762            0.000123437334           
       0.095253             0.00101717231            0.000134013659           
       0.095593            0.000996290698            0.000134815207           
       0.095932             0.00079509219            0.000128091466           
       0.096272            0.000699227201            0.000113931479           
       0.096611            0.000735473784            0.000123215024           
       0.096951            0.000917234694            0.000124504198           
       0.097291            0.000671112031            0.000113655424           
       0.097630            0.000718278115            0.000114330195           
       0.097970            0.000907693745            0.000124879749           
       0.098309             0.00103162546            0.000127076709           
       0.098649            0.000693194279            0.000114122273           
       0.098989            0.000823536291            0.000119405795           
       0.099328            0.000892394293            0.000123398386           
       0.099668            0.000999185136            0.000133816063           
       0.100007            0.000650683027            0.000101830251           
       0.100347            0.000599894343            0.000106397677           
       0.100686            0.000969691137            0.000124030733           
       0.101026            0.000534015103            0.000108833566           
       0.101366            0.000756784665            0.000117513325           
       0.101705            0.000881127228            0.000123411714           
       0.102045            0.000674918242            0.000107269222           
       0.102384            0.000903513305            0.000129298933           
       0.102724            0.000771135231            0.000116472543           
       0.103064            0.000539964963            0.000100715444           
       0.103403            0.000562953152            0.000107265481           
       0.103743             0.00077265023            0.000115685953           
       0.104082            0.000641247732            0.000110185589           
       0.104422            0.000620440177            0.000108017507           
       0.104761            0.000741148996             0.00010653966           
       0.105101            0.000793863011            0.000115108407           
       0.105441            0.000676772884            0.000111118589           
       0.105780            0.000706581845            0.000108464685           
       0.106120            0.000828543072            0.000115015816           
       0.106459            0.000949685622            0.000127237984           
       0.106799            0.000783464591            0.000111593849           
       0.107138            0.000536716333            0.000102831461           
       0.107478            0.000666867791            9.95669978e-05           
       0.107818            0.000779383446            0.000110463096           
       0.108157             0.00059303435             0.00010014024           
       0.108497            0.000774166166            0.000110575876           
       0.108836            0.000595842042            0.000107726073           
       0.109176            0.000585352863            9.57497254e-05           
       0.109516            0.000706777604            0.000108388087           
       0.109855            0.000799400067            0.000114035009           
       0.110195             0.00061955006             0.00010605264           
       0.110534            0.000631547873            0.000104354287           
       0.110874            0.000568810958            9.63602192e-05           
       0.111213             0.00068223274             0.00010345472           
       0.111553            0.000596240193            0.000104668745           
       0.111893            0.000708507859            0.000104573113           
       0.112232            0.000520206529            9.59833398e-05           
       0.112572            0.000563659393             0.00010394908           
       0.112911            0.000705715853            0.000106578913           
       0.113251             0.00049954079            9.53307437e-05           
       0.113591            0.000390481272            9.01330267e-05           
       0.113930            0.000683742114            0.000103802245           
       0.114270            0.000485564289            8.87816891e-05           
       0.114609            0.000491529557            9.69628377e-05           
       0.114949            0.000652741328            0.000101995853           
       0.115288            0.000611051516             9.9187817e-05           
       0.115628            0.000647747036            0.000102196204           
       0.115968            0.000531468975            9.67489663e-05           
       0.116307            0.000615665394            9.66994391e-05           
       0.116647            0.000519685555            9.26867998e-05           
       0.116986            0.000672208163            9.78039933e-05           
       0.117326            0.000570251866            9.39457739e-05           
       0.117666              0.0006205218            0.000101808751           
       0.118005            0.000537594385            9.47659221e-05           
       0.118345            0.000675824999            9.50872146e-05           
       0.118684            0.000646900374            0.000102720316           
       0.119024            0.000554983125            9.70242658e-05           
       0.119363            0.000582934826            9.81142464e-05           
       0.119703            0.000669552653            9.46329843e-05           
       0.120043            0.000590597953             9.3370614e-05           
       0.120382             0.00046248805            9.44542617e-05           
       0.120722            0.000484264955            8.87188137e-05           
       0.121061            0.000608299946             9.4346072e-05           
       0.121401            0.000425242204            9.06919091e-05           
       0.121741            0.000478846207            8.87485995e-05           
       0.122080            0.000620680711            9.80422777e-05           
       0.122420            0.000615171154            0.000100729078           
       0.122759            0.000548950874            8.73801691e-05           
       0.123099            0.000458905285            8.84576371e-05           
       0.123438             0.00057438874             9.6444962e-05           
       0.123778            0.000561698318             9.4206335e-05           
       0.124118            0.000462484826            9.18490911e-05           
       0.124457            0.000422935544            8.48839093e-05           
       0.124797            0.000412265478            8.78305801e-05           
       0.125136            0.000593741962            9.69592093e-05           
       0.125476            0.000435151466             8.2752131e-05           
       0.125816            0.000519216092            8.67836406e-05           
       0.126155            0.000619640423            8.69600606e-05           
       0.126495            0.000488309454            9.11497499e-05           
       0.126834            0.000455738671            8.81548332e-05           
       0.127174            0.000366160439            8.07008427e-05           
       0.127513            0.000513848403             8.3755591e-05           
       0.127853            0.000545349451            9.03182246e-05           
       0.128193            0.000440310153            8.01725789e-05           
       0.128532            0.000434984626            8.21946604e-05           
       0.128872            0.000334567849            7.64757962e-05           
       0.129211            0.000458424162            9.15251495e-05           
       0.129551            0.000483956072            7.99757681e-05           
       0.129891            0.000503671124            8.72848743e-05           
       0.130230            0.000453714694            8.88594114e-05           
       0.130570            0.000302010913            7.65304136e-05           
       0.130909             0.00046380765            8.21619728e-05           
       0.131249              0.0004215236            7.79812554e-05           
       0.131588            0.000510490397            8.91677261e-05           
       0.131928            0.000451009267            8.24786103e-05           
       0.132268            0.000472469688            7.96411341e-05           
       0.132607            0.000392876701            8.25759263e-05           
       0.132947            0.000496647692            8.26865249e-05           
       0.133286            0.000359121894            7.45240509e-05           
       0.133626            0.000600684696            8.69850034e-05           
       0.133966            0.000362276781            7.26948866e-05           
       0.134305            0.000338962385            6.93946887e-05           
       0.134645            0.000325617428            7.52184652e-05           
       0.134984            0.000311676103            7.21009172e-05           
       0.135324            0.000407699869            7.67192011e-05           
       0.135663             0.00032533379            6.67471382e-05           
       0.136003            0.000365364211            6.80755775e-05           
       0.136343            0.000386040609             7.0103741e-05           
       0.136682            0.000389167512            7.70362605e-05           
       0.137022            0.000405841948            7.40777566e-05           
       0.137361            0.000402136914            7.16477709e-05           
       0.137701            0.000486506976            7.89878084e-05           
       0.138041            0.000359780012            7.16359382e-05           
       0.138380            0.000369235829            6.88729224e-05           
       0.138720            0.000478817623            7.94030171e-05           
       0.139059            0.000391005507            6.99851832e-05           
       0.139399            0.000453198371            7.95273727e-05           
       0.139738            0.000338739519             7.6093623e-05           
       0.140078            0.000586958085            8.47019494e-05           
       0.140418            0.000379319606            6.60719129e-05           
       0.140757            0.000179072289            5.74205681e-05           
       0.141097            0.000220593354            6.16132446e-05           
       0.141436            0.000455438297            7.01042843e-05           
       0.141776             0.00033471178            6.72073076e-05           
       0.142116            0.000324504758            6.76449742e-05           
       0.142455            0.000436256996             7.1199869e-05           
       0.142795            0.000301031182            6.51642475e-05           
       0.143134            0.000488469805            7.36250553e-05           
       0.143474            0.000232570646            6.19488668e-05           
       0.143813            0.000413190379            7.49664234e-05           
       0.144153            0.000345757246             6.4334356e-05           
       0.144493            0.000286400281            6.51590712e-05           
       0.144832            0.000336165396            7.01908534e-05           
       0.145172            0.000309442877            7.13773731e-05           
       0.145511            0.000470771518            8.57325722e-05           
       0.145851            0.000379089617            8.60904057e-05           
       0.146191            0.000372792943            9.62226522e-05           
       0.146530            0.000282462613            9.41353039e-05           
       0.146870             0.00042216162            0.000100713893           
       0.147209            0.000142104028            8.28151702e-05           
       0.147549             0.00034957919            0.000103872189           
       0.147888            0.000274617491            9.48546618e-05           
       0.148228            0.000281527864              9.143461e-05           
       0.148568            0.000356403931            0.000105999412           
       0.148907            0.000436472125            0.000111106759           
       0.149247            0.000164887556            8.42744732e-05           
       0.149586            0.000347012503            9.64691411e-05           
       0.149926            0.000327679146             9.2743774e-05           
       0.150266            0.000275188692            8.97022065e-05           
       0.150605            0.000338298973            0.000101664405           
       0.150945            0.000331316205             9.8612513e-05           
       0.151284            0.000229927054            7.97572112e-05           
       0.151624            0.000335166847            9.25950182e-05           
       0.151963            0.000218243866             8.0726102e-05           
       0.152303            0.000308801885            0.000108137428           
       0.152643            0.000152674335            8.32292781e-05           
       0.152982            0.000257996219            9.53433957e-05           
       0.153322            0.000292248602            9.21764432e-05           
       0.153661            0.000306198006            8.23553846e-05           
       0.154001            0.000174170635            8.03925403e-05           
       0.154341            0.000243516905            0.000103480212           
       0.154680            0.000306560396            9.32239487e-05           
       0.155020            0.000281349903            9.51343376e-05           
       0.155359            0.000242373408            8.95138086e-05           
       0.155699            0.000109136932            7.70273545e-05           
       0.156038            0.000334359135            9.26502679e-05           
       0.156378            0.000293205094            8.64562933e-05           
       0.156718            0.000332538439            9.58758279e-05           
       0.157057             0.00035352026            9.83405818e-05           
       0.157397            0.000200029855            7.97190216e-05           
       0.157736            0.000348017323            0.000101042357           
       0.158076             0.00026041932            9.15586908e-05           
       0.158416             0.00029539634            8.64840045e-05           
       0.158755            9.65781733e-05            8.63279337e-05           
       0.159095             4.8094911e-05            7.19324387e-05           
       0.159434            0.000168888344            7.76876179e-05           
       0.159774            0.000232061385            8.37627853e-05           
       0.160113            0.000183961504            7.86059138e-05           
       0.160453            0.000267071925            8.88328609e-05           
       0.160793            0.000235394114            8.80194113e-05           
       0.161132            0.000279702721            7.98245231e-05           
       0.161472            0.000229524491            8.49391507e-05           
       0.161811            0.000267060063            9.04933046e-05           
       0.162151            0.000283308237            9.19190335e-05           
       0.162491            0.000316138784            9.44795385e-05           
       0.162830            0.000191390386            7.68869425e-05           
       0.163170            0.000368026516            9.28511594e-05           
       0.163509            0.000142636147            8.83002923e-05           
       0.163849            0.000424808813            9.58091282e-05           
       0.164188            0.000245145205            9.41871263e-05           
       0.164528            0.000200963506            6.47992198e-05           
       0.164868            0.000275897052            8.65799023e-05           
       0.165207            0.000373569354            8.93959321e-05           
       0.165547            0.000318945639            9.72610869e-05           
       0.165886            0.000280725782            8.26022299e-05           
       0.166226            0.000318513469            9.30203178e-05           
       0.166566            0.000270490738             9.2744129e-05           
       0.166905            0.000294367156            9.26933942e-05           
       0.167245            0.000286552277            8.58923228e-05           
       0.167584            0.000312268941            8.03313436e-05           
       0.167924            0.000355669527             8.9890752e-05           
       0.168263             0.00025269334            8.47625103e-05           
       0.168603            0.000132337919            9.11860282e-05           
       0.168943            0.000398533208            9.86123957e-05           
       0.169282            0.000239036963            8.29884615e-05           
       0.169622            0.000290598377            7.38750412e-05           
       0.169961            0.000251624282            8.23502128e-05           
       0.170301            0.000476560065            0.000104215743           
       0.170641             0.00029514649             7.8351556e-05           
       0.170980            0.000298006605            8.36760203e-05           
       0.171320            0.000300799007            9.08965828e-05           
       0.171659            0.000312268053            9.02312021e-05           
       0.171999            0.000351343758            9.69704488e-05           
       0.172338            0.000215405032            8.60509569e-05           
       0.172678            0.000271881516            8.72346293e-05           
       0.173018            0.000211308257            7.69786514e-05           
       0.173357            0.000197689781            8.33408628e-05           
       0.173697            0.000191027325            7.07607904e-05           
       0.174036            0.000189224406            7.69322727e-05           
       0.174376            0.000150364788            7.69108222e-05           
       0.174716             0.00015778594            7.52028532e-05           
       0.175055              0.0002382232            7.66637129e-05           
       0.175395            0.000196616089            8.40568986e-05           
       0.175734            0.000294995406            8.21898049e-05           
       0.176074            0.000204650808            7.98292809e-05           
       0.176413            0.000300400197            7.73206194e-05           
       0.176753            0.000380502237            9.43340282e-05           
       0.177093            0.000152977916            8.18140852e-05           
       0.177432             0.00027439801             8.5168232e-05           
       0.177772             0.00015956838            8.84882521e-05           
       0.178111            0.000265297622            7.45934184e-05           
       0.178451            0.000195096273            8.48261086e-05           
       0.178791            0.000240565663            7.58100545e-05           
       0.179130            0.000319073592            8.97443226e-05           
       0.179470            0.000131471262            8.18266393e-05           
       0.179809            0.000134802559            6.93910424e-05           
       0.180149            0.000165829067            7.99513761e-05           
       0.180488            0.000202858516            7.98146691e-05           
       0.180828            0.000179666342            7.37392667e-05           
       0.181168            0.000119194849            7.33421688e-05           
       0.181507            0.000113499446            7.75854359e-05           
       0.181847             0.00015485767            6.61703065e-05           
       0.182186            0.000247264162             8.1172328e-05           
       0.182526            0.000121793826            7.54662062e-05           
       0.182866             0.00042633303            8.33697047e-05           
       0.183205            0.000413480064            9.80807489e-05           
       0.183545             0.00034077355             9.0326676e-05           
       0.183884            0.000333386395            8.14288728e-05           
       0.184224            0.000234587889            7.83286699e-05           
       0.184563            0.000174672185             7.7639566e-05           
       0.184903            6.57941462e-05            6.99496184e-05           
       0.185243            0.000133272806            7.48130359e-05           
       0.185582            0.000190798993            8.44768298e-05           
       0.185922            0.000219977138            7.03752369e-05           
       0.186261            0.000270633387            7.89483627e-05           
       0.186601            0.000290275003            7.53582073e-05           
       0.186941             0.00022967988            7.91118527e-05           
       0.187280            0.000248945085            7.30552228e-05           
       0.187620            0.000189137058            7.42757611e-05           
       0.187959            0.000203277849            6.66554146e-05           
       0.188299            0.000162395382            7.86155761e-05           
       0.188638            0.000337744329            7.73697442e-05           
       0.188978            0.000281061274             7.6506066e-05           
       0.189318            0.000226200532            7.56118303e-05           
       0.189657             0.00017052172            7.71900622e-05           
       0.189997            0.000138101351            7.24028607e-05           
       0.190336            0.000209088482            7.87705087e-05           
       0.190676            0.000165521833            7.39766728e-05           
       0.191016            0.000158890856            6.22983912e-05           
       0.191355            0.000204872851            7.63316365e-05           
       0.191695            0.000195799024            7.04865113e-05           
       0.192034            0.000173745941            7.82577478e-05           
       0.192374            0.000264603908             7.2865063e-05           
       0.192713            0.000204731136            7.08388406e-05           
       0.193053            0.000184571693            7.90914574e-05           
       0.193393             0.00017759366            7.65033481e-05           
       0.193732             0.00012761294            7.20091774e-05           
       0.194072            0.000400977768             8.3125093e-05           
       0.194411            0.000178798565            6.92831406e-05           
       0.194751            0.000293635348            7.76908296e-05           
       0.195091            0.000184605108            7.12829757e-05           
       0.195430            0.000281558196            8.00256054e-05           
       0.195770            0.000370343171            8.41937396e-05           
       0.196109            0.000270731896            7.76823706e-05           
       0.196449            0.000105057361            6.54667943e-05           
       0.196788            0.000151056926            6.41029199e-05           
       0.197128            0.000193266108            7.16610237e-05           
       0.197468            0.000118383137            7.34839094e-05           
       0.197807            0.000291764022            7.73115015e-05           
       0.198147            0.000324491459            7.80937719e-05           
       0.198486            0.000167740073            7.45929527e-05           
       0.198826            0.000192409662            7.09437429e-05           
       0.199166            0.000168413142            6.83012777e-05           
       0.199505            0.000265272287            7.43672642e-05           
       0.199845            0.000392917466            8.34184376e-05           
       0.200184            0.000148479157            7.20880667e-05           
       0.200524            0.000334066307            8.29657023e-05           
       0.200863            0.000189075208            7.06315672e-05           
       0.201203            0.000242977739            7.55246249e-05           
       0.201543            0.000173448468            6.75989959e-05           
       0.201882            0.000265970699            7.57502919e-05           
       0.202222            0.000190496575            7.87113191e-05           
       0.202561             0.00031119295            7.52660472e-05           
       0.202901            0.000298855808            7.76599977e-05           
       0.203241            0.000290729912            7.25806236e-05           
       0.203580             0.00015835977            6.98886741e-05           
       0.203920            0.000159628593            7.18822023e-05           
       0.204259            0.000315968588            7.61280936e-05           
       0.204599            0.000135497292             6.5904053e-05           
       0.204938            0.000113678545            6.92654049e-05           
       0.205278            0.000401684832            0.000104909636           
       0.205618            0.000168897672            9.63968709e-05           
       0.205957            0.000182789518            0.000121598841           
       0.206297            0.000240041859            0.000116478736           
       0.206636            8.59730333e-05            0.000109211577           
       0.206976            0.000139986391            0.000185242896           
       0.207316           -8.99401206e-05            9.37159572e-05           
       0.207655                         0                         0           
