################################################################################
# EDF_DataBlockID                 0.Image.Psd
# EDF_BinarySize                  4637784
# EDF_HeaderSize                  3072
# ByteOrder                       LowByteFirst
# DataType                        FloatValue
# Dim_1                           1038
# Dim_2                           1117
# Image                           0
# HeaderID                        EH:000000:000000:000000
# Size                            4637784
# BIO_SYSTEM_CONF_TXT             WAXSRES
# Center_1                        606.981
# Center_2                        651.016
# Comment                         CatfaceSilk_Major - CatfaceSilk_Major_WAXS_HI_600s
# DDummy                          0.6
# Date                            2023-10-10T18:05:27
# Delta                           0
# Dummy                           -1.5
# ExposureTime                    600
# Force                           9.91088
# Gamma                           0
# Intensity1                      1.06798e-07
# JawsDistance                    4.54563
# JawsVelocity                    0.358589
# PSize_1                         7.5e-05
# PSize_2                         7.5e-05
# Pressure                        0.11216
# SampleDistance                  0.0500003
# SampleEnvKind                   saxs
# SampleEnvPN                     Solids
# SampleEnvSN                     1012
# Strain                          0
# Stress                          0
# Thickness                       0
# WaveLength                      1.541891e-10
# Wavelength                      1.54189e-10
# anaB                            0
# anaB_dial                       -0.0012015
# anaPark                         -175.125
# anaPark_dial                    175.169
# anaXi                           0
# anaXi_dial                      0
# anaZ                            -9.13123e-08
# anaZ_dial                       6.2299
# aux                             0
# aux_dial                        -0.000125
# b2c                             0
# b2c_dial                        0
# beamx                           603.62
# beamx_dial                      603.62
# beamz                           653.016
# beamz_dial                      653.016
# bioZ                            -2.90461e-08
# bioZ_dial                       -0.546695
# det0x                           0
# det0x_dial                      6.05631
# det0xvd                         0
# det0xvd_dial                    0
# det0y                           50.0003
# det0y_dial                      893.512
# det0z                           0
# det0z_dial                      6.3358
# det0zvd                         0
# det0zvd_dial                    0
# distana                         93.4
# distana_dial                    93.4
# mag                             1.091
# mag_dial                        1.091
# mono1B                          1.00136e-08
# mono1B_dial                     -0.277
# mono2B                          1.75476e-07
# mono2B_dial                     -4.366
# mono2X                          -1
# mono2X_dial                     3.96031
# mono2Xi                         0
# mono2Xi_dial                    0
# monoZ                           -11
# monoZ_dial                      -10.6609
# om                              1.30741e-08
# om_dial                         -0.939898
# phi                             -4.9295e-08
# phi_dial                        -7.01716
# qana                            0
# qana_dial                       0
# ry                              0
# ry_dial                         0.00149998
# s1bot                           1.45
# s1bot_dial                      -2.02906
# s1hl                            0.55
# s1hl_dial                       -0.47125
# s1hr                            1.95
# s1hr_dial                       2.31625
# s1top                           1.05
# s1top_dial                      1.23391
# s2bot                           1.2
# s2bot_dial                      -2.09531
# s2hl                            0.6
# s2hl_dial                       -1.365
# s2hr                            0.8
# s2hr_dial                       -0.0153125
# s2top                           0.2
# s2top_dial                      -1.18281
# ttdeg                           0
# ttdeg_dial                      0
# wind                            72.0045
# wind_dial                       72.0233
# x                               -37.3
# x_dial                          -36.5903
# z                               -34
# z_dial                          -14.8909
# CountCutoff                     15302352
# DetectorModel                   Dectris EIGER2 Si 1M, S/N E-02-0357
# ThresholdSetting                4023.88989258
# Saturation                      0
# FlatField                       Corrected
# BackgroundReductionExtra        0.02
# Detector                        0
# Monitor                         0
# Pil_Roi0                        6.40822e+10
# SumForIntensity1                6.40787e+10
# TransmittedFlux                 1.06798e+08
# det                             0
# mon                             0
# pilai0                          6.40787e+10
# pilai1                          0
# pilct0                          6.40834e+10
# pilct1                          0
# pilroi0                         6.40822e+10
# pilroi1                         0
# sec                             0.099
# title                           10_10_2023_0_00005.edf
# usaxs0                          0
################################################################################
q(A-1)                    I(q)                      Sig(q)                    
0.0030562210859526916     1852.1396889652774        0.05667106861314103       
0.009168663257858074      1857.0078393863296        0.04012526090343881       
0.015281105429763455      1854.3687934458358        0.025359592813041437      
0.02139354760166884       1757.8337488060142        0.024690950586199058      
0.027505989773574224      1662.8636122902658        0.020296394865735746      
0.0336184319454796        1547.7372412005377        0.018316822663488882      
0.03973087411738499       1357.3144481035774        0.014628484580046421      
0.04584331628929037       1085.4833789714057        0.012033899637856237      
0.05195575846119575       758.9701262176188         0.010473696609989772      
0.058068200633101134      556.495487376518          0.008021880094779324      
0.0641806428050065        357.61929786171885        0.0060856742529571866     
0.07029308497691189       247.47698311969023        0.005025328411911702      
0.07640552714881728       152.0085142094033         0.0034622790193978353     
0.08251796932072265       80.1508995319803          0.0026878048541732285     
0.08863041149262804       47.21205057518193         0.0018286167918553752     
0.09474285366453342       17.550367725190185        0.0011149669787004824     
0.1008552958364388        8.249426226470925         0.000764458550176434      
0.1069677380083442        1.6373461705898522        0.00032147927191174746    
0.11308018018024958       0.334278035929368         0.00014939684321486202    
0.11919262235215496       0.08641017918895144       6.455564914170962e-05     
0.12530506452406032       0.005743732370244593      1.772391733878968e-05     
0.13141750669596572       0.0012750128207719106     8.160683224162468e-06     
0.1375299488678711        0.0004804683706175554     4.918348129309549e-06     
0.14364239103977647       0.00035397141259223383    4.161972536409021e-06     
0.14975483321168187       0.00030807182898952415    3.580656505754244e-06     
0.15586727538358724       0.00027376845388775634    3.5267796104939864e-06    
0.16197971755549262       0.00026512411292481456    3.3525261502360756e-06    
0.168092159727398         0.00024297147548015834    3.0637307798910574e-06    
0.1742046018993034        0.0002291234599696545     2.992099322046436e-06     
0.18031704407120877       0.00022728974595638595    2.9234598190271034e-06    
0.18642948624311415       0.00022801176255035426    2.897241078064736e-06     
0.19254192841501955       0.0002127848009013327     2.681140485341458e-06     
0.19865437058692492       0.00021570253511305794    2.6997557581895878e-06    
0.2047668127588303        0.00020956374951476575    2.6234312776183226e-06    
0.2108792549307357        0.00021567058579476618    2.7133635937607234e-06    
0.21699169710264107       0.0002114564148246964     2.581616940518397e-06     
0.22310413927454648       0.00021009573779854216    2.4443133933709266e-06    
0.22921658144645185       0.00021531869902474568    2.537755047056393e-06     
0.23532902361835722       0.00021315215813937186    2.46266039553665e-06      
0.2414414657902626        0.00021528966357227083    2.470265339022918e-06     
0.24755390796216797       0.0002105988576037774     2.376839811679962e-06     
0.25366635013407335       0.00021458653497194774    2.3995688780284233e-06    
0.2597787923059788        0.0002182881946170809     2.4298773336302243e-06    
0.26589123447788415       0.00021681753021047292    2.300416789475614e-06     
0.2720036766497895        0.00021734760539862154    2.3364827541418195e-06    
0.2781161188216949        0.00022103849438569756    2.2994104308616823e-06    
0.2842285609936003        0.000223858602637847      2.3426381037655065e-06    
0.29034100316550565       0.00022745984747091783    2.3135717712177073e-06    
0.2964534453374111        0.0002339608121877607     2.2331367684114584e-06    
0.30256588750931646       0.0002333633796163694     2.3056944195100697e-06    
0.30867832968122183       0.00023985355554335507    2.308046616584963e-06     
0.3147907718531272        0.00023950744346886352    2.2815615710261546e-06    
0.3209032140250326        0.00024830425737794006    2.2611545466354497e-06    
0.32701565619693795       0.00024511768818443066    2.2470031000826243e-06    
0.33312809836884333       0.0002510695471361585     2.2948710622657486e-06    
0.33924054054074876       0.0002589247750834155     2.2420642431361475e-06    
0.34535298271265413       0.00025828129872823785    2.2243583455491016e-06    
0.3514654248845595        0.00026765970339635934    2.2741635886960144e-06    
0.3575778670564649        0.00026874436763546625    2.2792062314011306e-06    
0.36369030922837026       0.00027465540445733753    2.2319949162796015e-06    
0.36980275140027563       0.00028336161571223525    2.276397061555799e-06     
0.37591519357218106       0.0002855390054472297     2.325286841120477e-06     
0.38202763574408644       0.0002940205948676321     2.2368421366678955e-06    
0.3881400779159918        0.00029869773857188616    2.282860457341807e-06     
0.3942525200878972        0.0002991304059438031     2.2303407836074296e-06    
0.40036496225980256       0.0003068728851477957     2.2950622578376627e-06    
0.40647740443170793       0.00031536153194219424    2.3443124620199407e-06    
0.4125898466036133        0.0003178753134318157     2.260944724667524e-06     
0.41870228877551874       0.00032596729257585594    2.295321679614636e-06     
0.4248147309474241        0.0003335209671114898     2.275808481409029e-06     
0.4309271731193295        0.0003373898877121354     2.3389781455776254e-06    
0.4370396152912348        0.0003455851231439724     2.2611460216292813e-06    
0.44315205746314024       0.0003508460156320225     2.3567140652084416e-06    
0.44926449963504556       0.0003595963238493101     2.3100809166077003e-06    
0.455376941806951         0.00036337510893570506    2.3106700331497107e-06    
0.4614893839788563        0.0003701598344519259     2.3376016550199477e-06    
0.46760182615076173       0.0003755590747909417     2.3052073925818097e-06    
0.47371426832266716       0.0003787473390398658     2.390870637336658e-06     
0.4798267104945725        0.00038748829484036974    2.312872650933083e-06     
0.4859391526664779        0.00038607717549555664    2.304794048624325e-06     
0.49205159483838323       0.00039502522009124706    2.3118807370901812e-06    
0.49816403701028866       0.0003988252223541906     2.3834826764202274e-06    
0.504276479182194         0.00040766416869674626    2.3083810193060733e-06    
0.5103889213540994        0.00040701564000782624    2.2924762813370203e-06    
0.5165013635260048        0.0004113664527174219     2.3506691366407792e-06    
0.5226138056979102        0.00041516978910043995    2.269692149934576e-06     
0.5287262478698156        0.0004213640998488569     2.311578464697485e-06     
0.5348386900417209        0.0004214103421483698     2.292058316836051e-06     
0.5409511322136263        0.00042575828394729226    2.3270627392699513e-06    
0.5470635743855317        0.0004279665417633006     2.2622229121523145e-06    
0.5531760165574371        0.00042679036286350815    2.290765824419836e-06     
0.5592884587293425        0.0004334240778983703     2.305240312392183e-06     
0.5654009009012478        0.00043471068597182393    2.263187505832355e-06     
0.5715133430731533        0.00043848766152984825    2.2965698592213363e-06    
0.5776257852450586        0.0004388887781160991     2.228191911278407e-06     
0.583738227416964         0.00044060544317107655    2.2901446806312375e-06    
0.5898506695888694        0.0004406641287624901     2.2064005618462786e-06    
0.5959631117607748        0.00044666998245131227    2.2699161270977165e-06    
0.6020755539326802        0.00044173016107235634    2.2225755170514375e-06    
0.6081879961045855        0.0004441656256000562     2.239947646874707e-06     
0.614300438276491         0.0004504693341508354     2.200115430211665e-06     
0.6204128804483963        0.00044762468487544985    2.2071745183230163e-06    
0.6265253226203017        0.00044676083926111735    2.2400019766424217e-06    
0.6326377647922071        0.00045074118638156106    2.153662813983172e-06     
0.6387502069641124        0.00044893569819773967    2.1831652659905028e-06    
0.6448626491360179        0.00044936277356970365    2.167474065375771e-06     
0.6509750913079232        0.0004484710949206415     2.1755951351266444e-06    
0.6570875334798286        0.00045399002641405604    2.155298852191467e-06     
0.6631999756517339        0.0004524573594984227     2.1313981652493475e-06    
0.6693124178236394        0.00045616583739453075    2.1529309110042447e-06    
0.6754248599955447        0.00045305831655018       2.1433661897736373e-06    
0.6815373021674501        0.00045430042520886344    2.1104393767084324e-06    
0.6876497443393554        0.0004576134682127184     2.1275970698857254e-06    
0.6937621865112609        0.0004535859840838219     2.1161385193420438e-06    
0.6998746286831662        0.0004603985157766115     2.108515074206013e-06     
0.7059870708550716        0.00045954906281459284    2.104597839433554e-06     
0.7120995130269769        0.0004598825368938128     2.048531635644376e-06     
0.7182119551988824        0.00046062804275305287    2.1186321688259348e-06    
0.7243243973707877        0.0004596989404352924     2.0773419183886266e-06    
0.7304368395426931        0.0004652762218096514     2.0578347624879224e-06    
0.7365492817145985        0.00046563499609893986    2.0354646405757316e-06    
0.7426617238865039        0.00046931914597361595    2.1097564960848776e-06    
0.7487741660584093        0.00046864248256332124    2.0072975414484037e-06    
0.7548866082303146        0.0004652473559694389     2.037189818008509e-06     
0.76099905040222          0.0004693465831326944     2.0558193357456687e-06    
0.7671114925741254        0.00046908939521903595    2.0251932906089236e-06    
0.7732239347460308        0.0004722082173049564     2.0171983197792897e-06    
0.7793363769179361        0.00047053032598155765    2.0240379770320213e-06    
0.7854488190898415        0.0004763205224066626     2.0265500394521427e-06    
0.791561261261747         0.0004777778764978863     2.0082502804880718e-06    
0.7976737034336523        0.0004796682153689979     2.035466860753277e-06     
0.8037861456055577        0.0004784476934567774     1.9831685508215715e-06    
0.809898587777463         0.000477562564109176      2.0059122394629803e-06    
0.8160110299493685        0.00048302229040611116    1.9955613358081186e-06    
0.8221234721212738        0.0004871722704084479     2.0255274762943694e-06    
0.8282359142931792        0.0004837852200563219     1.955707453218266e-06     
0.8343483564650847        0.0004891479045986715     2.024604348910069e-06     
0.84046079863699          0.0004944029101496269     1.976789491930405e-06     
0.8465732408088954        0.0004933496530893719     2.0014458420180444e-06    
0.8526856829808007        0.0004949226278406035     1.9723505324639594e-06    
0.8587981251527061        0.0005033752669752919     2.002862750949996e-06     
0.8649105673246117        0.0004979982993903738     1.950623123453483e-06     
0.871023009496517         0.0005045726463142838     1.996515149384116e-06     
0.8771354516684223        0.0005077480481633371     1.9408666758947936e-06    
0.8832478938403279        0.0005070281271109519     1.9834446232806785e-06    
0.8893603360122332        0.0005092204140681675     1.949523996052771e-06     
0.8954727781841385        0.0005085708785243039     1.954166035292926e-06     
0.9015852203560438        0.0005149094484833585     1.9584665229507905e-06    
0.9076976625279494        0.0005158522357130068     1.9681395580037727e-06    
0.9138101046998547        0.0005134318264426966     1.939378110226805e-06     
0.91992254687176          0.0005170174210871023     1.976361024279233e-06     
0.9260349890436655        0.0005167923456846507     1.9026631765172051e-06    
0.9321474312155709        0.0005178078291176674     1.9690705927405566e-06    
0.9382598733874762        0.0005216393067030452     1.9381594589023375e-06    
0.9443723155593817        0.0005233784542450926     1.9368614281194336e-06    
0.950484757731287         0.0005200110424342935     1.9153153085558435e-06    
0.9565971999031924        0.00052368978430044       1.945088991789876e-06     
0.9627096420750977        0.0005250786447875209     1.8976137149993795e-06    
0.9688220842470032        0.00052595235246485       1.9467547344387203e-06    
0.9749345264189085        0.0005291169661837802     1.8675554427125358e-06    
0.9810469685908139        0.0005292340454881246     1.920535162867735e-06     
0.9871594107627194        0.0005268485914633188     1.9076376755316065e-06    
0.9932718529346247        0.0005305439508439261     1.8724098484207155e-06    
0.99938429510653          0.0005307610578925217     1.8962814003604515e-06    
1.0054967372784354        0.0005337205709000568     1.9034891831630637e-06    
1.0116091794503408        0.000527958398266101      1.8589566534281585e-06    
1.0177216216222462        0.0005314993724475986     1.916292777476279e-06     
1.0238340637941514        0.0005309746820603029     1.831350696309473e-06     
1.029946505966057         0.0005372885290173064     1.922863387679146e-06     
1.0360589481379623        0.0005370479054531286     1.8470046069004702e-06    
1.0421713903098677        0.0005311939206166635     1.8733139270848578e-06    
1.048283832481773         0.000531910053818759      1.8676409997755936e-06    
1.0543962746536786        0.0005348750004637531     1.823991395889706e-06     
1.0605087168255838        0.0005363195871327583     1.8417929869949853e-06    
1.0666211589974892        0.0005418668095823034     1.8256158149815669e-06    
1.0727336011693946        0.0005398211943002059     1.8670360399302199e-06    
1.0788460433413           0.0005438177580423274     1.8274970158927506e-06    
1.0849584855132053        0.0005421650321953137     1.8383240505316646e-06    
1.0910709276851107        0.0005420408924310501     1.8565466410161716e-06    
1.0971833698570161        0.0005421785292050442     1.8166067982546818e-06    
1.1032958120289216        0.0005413799333154906     1.824318188270724e-06     
1.1094082542008268        0.0005481822576748386     1.8325498772434627e-06    
1.1155206963727324        0.0005480980305917206     1.8157646702814138e-06    
1.1216331385446376        0.0005491115666406252     1.8429920091097804e-06    
1.127745580716543         0.0005542167779732025     1.7826184490123184e-06    
1.1338580228884483        0.000559414116336127      1.8351512099795927e-06    
1.139970465060354         0.0005523268689494576     1.7819209195748652e-06    
1.1460829072322591        0.0005588412905390861     1.8302935845181255e-06    
1.1521953494041646        0.0005564760494643849     1.7909664972865578e-06    
1.15830779157607          0.000561360545901043      1.831936298533289e-06     
1.1644202337479754        0.0005621074765191651     1.795149055009803e-06     
1.1705326759198806        0.0005621154210326809     1.81432064973397e-06      
1.1766451180917863        0.0005640036261130458     1.7986238625838301e-06    
1.1827575602636915        0.0005664778574522687     1.810379524137025e-06     
1.188870002435597         0.0005740358569271299     1.8000634276747038e-06    
1.1949824446075021        0.0005758320949619347     1.786349754451097e-06     
1.2010948867794078        0.0005698436362512029     1.7851740045748995e-06    
1.207207328951313         0.0005733501771446557     1.7912670311997423e-06    
1.2133197711232184        0.0005773170128845777     1.7899022821603048e-06    
1.2194322132951239        0.0005793266036261685     1.8050082032090794e-06    
1.2255446554670293        0.0005811158094557647     1.7852550535007106e-06    
1.2316570976389345        0.0005807442706077616     1.8002482078578218e-06    
1.23776953981084          0.0005822329881313631     1.7858113810940071e-06    
1.2438819819827454        0.0005859454430992581     1.7681227493508867e-06    
1.2499944241546508        0.0005943296327254906     1.7850025630484835e-06    
1.256106866326556         0.0005871548226678557     1.760260086946505e-06     
1.2622193084984616        0.0005930333149365562     1.7880681467010953e-06    
1.2683317506703669        0.0005924123976530839     1.768974988347261e-06     
1.2744441928422723        0.0005970371377424697     1.8058289081883975e-06    
1.2805566350141775        0.0005958735194116647     1.7555554454291668e-06    
1.2866690771860831        0.0005973616017472124     1.7855675874792643e-06    
1.2927815193579884        0.0006048022728958408     1.7752836827021927e-06    
1.2988939615298938        0.0006091993519956933     1.7700279964207595e-06    
1.3050064037017992        0.0006118623067797719     1.7752423137371815e-06    
1.3111188458737046        0.0006094156464441146     1.7713564239023759e-06    
1.3172312880456098        0.0006117429246075232     1.7583875969157446e-06    
1.3233437302175153        0.0006132646367955677     1.7916173553728767e-06    
1.3294561723894207        0.0006139859055673267     1.74494094712747e-06      
1.3355686145613261        0.0006182329738712708     1.796470698964654e-06     
1.3416810567332313        0.0006227842708341385     1.775801311403794e-06     
1.347793498905137         0.0006300447751633844     1.7408681458174707e-06    
1.3539059410770422        0.0006292785881721281     1.7834869549961284e-06    
1.3600183832489476        0.0006305517313084423     1.7499929844581073e-06    
1.3661308254208528        0.0006377851776681956     1.7994699090596175e-06    
1.3722432675927585        0.0006363212319435489     1.756640600493859e-06     
1.3783557097646637        0.0006409534259783121     1.7947109694199374e-06    
1.3844681519365691        0.0006419211744256344     1.7765808476688377e-06    
1.3905805941084746        0.000653392078529214      1.7517696540714705e-06    
1.39669303628038          0.0006514945712556361     1.778035165393581e-06     
1.4028054784522852        0.0006521397412186724     1.7665155774750235e-06    
1.4089179206241906        0.0006527961857348723     1.7613040052941997e-06    
1.415030362796096         0.0006585335991669819     1.794140014281574e-06     
1.4211428049680015        0.0006588613364468686     1.777951561423525e-06     
1.4272552471399067        0.0006594273081417566     1.7562208433383203e-06    
1.4333676893118124        0.0006762209563519818     1.7869316429264675e-06    
1.4394801314837176        0.0006656246768469738     1.74283771316113e-06      
1.445592573655623         0.0006612133741082114     1.757721153874572e-06     
1.4517050158275284        0.0006654850379595443     1.7777312603226777e-06    
1.4578174579994339        0.0006593864181839242     1.7362776391506517e-06    
1.463929900171339         0.0006579534498736808     1.7761690719539486e-06    
1.4700423423432445        0.0006611907724032742     1.7145087329529993e-06    
1.47615478451515          0.0006512837593828318     1.7067168059316577e-06    
1.4822672266870554        0.0006461386384917657     1.7322481688066296e-06    
1.4883796688589606        0.0006425000246457819     1.7039662056944883e-06    
1.4944921110308662        0.0006395994572294569     1.7120718401287048e-06    
1.5006045532027714        0.000628788290075922      1.6949377205873255e-06    
1.5067169953746768        0.0006285396847085113     1.652188352447637e-06     
1.512829437546582         0.0006235755454820345     1.6701319886478592e-06    
1.5189418797184877        0.0006148163660309351     1.6470424012655406e-06    
1.525054321890393         0.0006106142357511195     1.6471193090703973e-06    
1.5311667640622983        0.0006028072923579879     1.638876563548906e-06     
1.5372792062342038        0.0006021645856212048     1.6361076848465692e-06    
1.5433916484061092        0.0005965067834057421     1.5974136677206862e-06    
1.5495040905780144        0.0005892809767631522     1.5978836071215e-06       
1.5556165327499198        0.0005813105672409344     1.6001144372780948e-06    
1.5617289749218253        0.0005755048085757779     1.5765117744264216e-06    
1.5678414170937307        0.0005696958392215862     1.5692218216479186e-06    
1.573953859265636         0.0005680249235921394     1.553474946574701e-06     
1.5800663014375413        0.0005633928649539605     1.5470885688126964e-06    
1.5861787436094468        0.0005567063415421305     1.5326760889550208e-06    
1.5922911857813522        0.0005536082852126035     1.538754996780304e-06     
1.5984036279532574        0.000547163774359481      1.5323307425837593e-06    
1.6045160701251628        0.0005488252267391273     1.4997231414820263e-06    
1.6106285122970683        0.0005377841722024514     1.499633674221606e-06     
1.6167409544689737        0.0005358910965472054     1.5084352989661327e-06    
1.6228533966408791        0.0005361951568405252     1.4887419905284339e-06    
1.6289658388127843        0.0005302804264226815     1.4864586965187145e-06    
1.6350782809846898        0.0005301114935657496     1.4749635395659136e-06    
1.6411907231565952        0.0005238654618341742     1.4676901433008556e-06    
1.6473031653285006        0.0005215202913669515     1.4594893032328752e-06    
1.6534156075004058        0.0005217276506608137     1.4639018172421866e-06    
1.6595280496723113        0.0005172425945907514     1.4694869276290702e-06    
1.6656404918442167        0.0005201774854909305     1.424763907541496e-06     
1.6717529340161221        0.0005189969001280453     1.4454129083234474e-06    
1.6778653761880273        0.0005114456306403829     1.4496055530920881e-06    
1.6839778183599328        0.0005107327833999146     1.4380107990307072e-06    
1.6900902605318382        0.0005049297618163503     1.4003617743138376e-06    
1.6962027027037436        0.0005077703973371622     1.4148593897196343e-06    
1.7023151448756488        0.0005028761783050467     1.4196491948391713e-06    
1.7084275870475545        0.0005029771024249531     1.4221753449585745e-06    
1.7145400292194597        0.0005001396394724889     1.4027503488377889e-06    
1.7206524713913651        0.0004992474437479623     1.3852342287675802e-06    
1.7267649135632706        0.0004975099758017591     1.3933528797296468e-06    
1.7328773557351758        0.0004935410682768508     1.4035907975441365e-06    
1.7389897979070812        0.0004901605742624943     1.3768828373760428e-06    
1.7451022400789868        0.0004861632936282767     1.3653060969554908e-06    
1.7512146822508918        0.0004838707471187327     1.3596025912330114e-06    
1.7573271244227975        0.0004829733559692901     1.3688415192340762e-06    
1.763439566594703         0.0004784756191737705     1.3543331159458942e-06    
1.7695520087666081        0.0004734720655804159     1.3342229090059215e-06    
1.7756644509385135        0.0004717579813389179     1.3416500769203277e-06    
1.7817768931104192        0.0004682398338772629     1.3348217372852969e-06    
1.7878893352823242        0.00046481311325919945    1.3313713574028542e-06    
1.7940017774542298        0.0004622043995231292     1.3072538687133194e-06    
1.800114219626135         0.00045668067172021634    1.3075485345367706e-06    
1.8062266617980405        0.00045327915190436664    1.308781616604027e-06     
1.812339103969946         0.0004513039429242559     1.3006282772763634e-06    
1.8184515461418511        0.0004477141939734031     1.2773470655348956e-06    
1.8245639883137565        0.00044568054065275217    1.2862774553450788e-06    
1.8306764304856622        0.00044361358734221277    1.2902619442232056e-06    
1.8367888726575672        0.00043805401114957703    1.271883181104977e-06     
1.8429013148294728        0.0004367058845541823     1.2424559062643898e-06    
1.8490137570013783        0.0004347511452214343     1.2658454191891354e-06    
1.8551261991732835        0.0004316598819768752     1.2577105921780047e-06    
1.861238641345189         0.00042976714545889266    1.256851999913058e-06     
1.8673510835170946        0.00042901922241338756    1.2393870220428263e-06    
1.8734635256889995        0.00042531562777565866    1.2354616996683168e-06    
1.8795759678609052        0.0004217861126347613     1.2421316547563324e-06    
1.8856884100328106        0.00042451759668442454    1.2166301688501912e-06    
1.8918008522047158        0.0004212935171471477     1.2273494151135667e-06    
1.8979132943766213        0.0004174538880443685     1.2274437465583952e-06    
1.9040257365485265        0.00041721544443754424    1.2090785434288833e-06    
1.910138178720432         0.00041497804142571527    1.2034101749483087e-06    
1.9162506208923376        0.0004149328595098984     1.2197979317704317e-06    
1.9223630630642425        0.0004121494360159073     1.2040691926049254e-06    
1.9284755052361482        0.00041043764521128163    1.1918156560428393e-06    
1.9345879474080536        0.0004111520469677314     1.2070020980516246e-06    
1.9407003895799588        0.0004084781569574142     1.202998904881281e-06     
1.9468128317518643        0.000407584103134478      1.164999754058148e-06     
1.95292527392377          0.0004069659885289079     1.1855128702368158e-06    
1.959037716095675         0.00040308238077107626    1.185996718207455e-06     
1.9651501582675805        0.0004048216482874768     1.171994214649382e-06     
1.971262600439486         0.00040201806649548026    1.1743371483748953e-06    
1.9773750426113912        0.0004025801484127909     1.185303949871759e-06     
1.9834874847832966        0.0004010538038923845     1.1547801092909335e-06    
1.9895999269552018        0.0003993871123955864     1.1671217664630352e-06    
1.9957123691271073        0.0003988765927534896     1.1658719429986095e-06    
2.001824811299013         0.00039688774973407583    1.1500724661704528e-06    
2.007937253470918         0.00039756356307164305    1.1549633629873226e-06    
2.0140496956428233        0.0003971671677281209     1.1590815075910947e-06    
2.020162137814729         0.0003954151229831016     1.1419071426652134e-06    
2.026274579986634         0.00039461601203787154    1.1518544661781502e-06    
2.03238702215854          0.00039457164439979186    1.1540010413097324e-06    
2.038499464330445         0.00039361246594547795    1.1317453042244099e-06    
2.0446119065023503        0.00039295069800940953    1.139986687341723e-06     
2.050724348674256         0.0003937229548404607     1.1467830801426757e-06    
2.0568367908461616        0.00039283895910854926    1.1210355141150212e-06    
2.0629492330180663        0.00039173932101978237    1.135116889607159e-06     
2.069061675189972         0.000393590742247572      1.1358966585598506e-06    
2.075174117361877         0.00039432975051764647    1.1294906324104817e-06    
2.081286559533783         0.00039237092113917905    1.1332307348140377e-06    
2.087399001705688         0.0003912940261236702     1.1231112053790224e-06    
2.0935114438775932        0.00039313130132627926    1.1236525170290576e-06    
2.099623886049499         0.0003926346506575176     1.1300995450294843e-06    
2.1057363282214046        0.00039121244045085926    1.1166518240862821e-06    
2.1118487703933093        0.0003920211584835564     1.1224990985143662e-06    
2.117961212565215         0.00039369348437233117    1.1168837332578648e-06    
2.1240736547371206        0.00039368276538584977    1.1185472019614957e-06    
2.130186096909026         0.00039148457359338855    1.1162747472894979e-06    
2.136298539080931         0.00039003752765719645    1.106781540977367e-06     
2.1424109812528367        0.000390362008532354      1.110211683143696e-06     
2.148523423424742         0.0003884657539096072     1.1114600448496388e-06    
2.1546358655966475        0.0003894350486115606     1.1007683493502305e-06    
2.1607483077685528        0.0003876314416975119     1.1038452248122593e-06    
2.166860749940458         0.00039034605681041604    1.0957798000510023e-06    
2.1729731921123636        0.00038855866240458843    1.0912931797079476e-06    
2.179085634284269         0.00038740323292053435    1.1023271570866002e-06    
2.185198076456174         0.0003870208354118486     1.0879511376860582e-06    
2.1913105186280797        0.000382996557873736      1.0958515926077435e-06    
2.197422960799985         0.0003829553262516135     1.0800581242695754e-06    
2.2035354029718905        0.0003820728787199093     1.0821329532514476e-06    
2.2096478451437958        0.0003807771277545473     1.0743402471516644e-06    
2.215760287315701         0.00037988813608805965    1.0799038362159826e-06    
2.2218727294876066        0.0003775514344757043     1.0722655540926835e-06    
2.227985171659512         0.0003780602287833116     1.068901522041173e-06     
2.234097613831417         0.00037535580465837613    1.0669028249606306e-06    
2.2402100560033227        0.0003720814017542722     1.0511793391936784e-06    
2.2463224981752283        0.00037146110443330544    1.0600635814165631e-06    
2.2524349403471335        0.0003693019827021423     1.0474451072709158e-06    
2.2585473825190387        0.0003665901160254219     1.0473145390396774e-06    
2.264659824690944         0.0003660569603370656     1.0415866236050085e-06    
2.2707722668628496        0.0003663301714856103     1.0490819869672658e-06    
2.276884709034755         0.00036203963226582117    1.0359826383649732e-06    
2.28299715120666          0.0003623528012425155     1.0319053868348156e-06    
2.2891095933785657        0.00036022407774752703    1.0479784939733404e-06    
2.2952220355504713        0.0003586002591485205     1.020214461003498e-06     
2.3013344777223765        0.00035724164215137483    1.0444517408279548e-06    
2.3074469198942817        0.0003545567887888051     1.0210775007016962e-06    
2.3135593620661874        0.0003508889864095801     1.0382656446043019e-06    
2.3196718042380926        0.0003492387170266996     1.0324183179170719e-06    
2.325784246409998         0.0003480312552901833     1.0331501200237695e-06    
2.3318966885819035        0.00034260784584836724    1.019277748788338e-06     
2.3380091307538087        0.0003414509141649155     1.0325432391166584e-06    
2.3441215729257143        0.00034057926819355464    1.0148686723903764e-06    
2.3502340150976195        0.00033861100222831096    1.0300858919315946e-06    
2.3563464572695247        0.00033623193795542393    1.0188931880833357e-06    
2.3624588994414304        0.00033318620429266435    1.017689206826296e-06     
2.3685713416133356        0.00033229596331143       1.0168744539099066e-06    
2.374683783785241         0.00033014675651120364    1.0107679373326165e-06    
2.3807962259571465        0.00032700164132594005    1.0039640626478607e-06    
2.3869086681290517        0.00032454659445058836    1.0168344769133667e-06    
2.3930211103009573        0.0003241075521607558     9.990204278393804e-07     
2.3991335524728625        0.0003221983536775831     1.0105977149435679e-06    
2.4052459946447677        0.0003191520941753105     9.959134908896523e-07     
2.4113584368166734        0.00031758277107253894    9.947011647089397e-07     
2.417470878988579         0.00031358638924521617    9.932833103584136e-07     
2.423583321160484         0.0003103168210968202     9.855798441997216e-07     
2.4296957633323895        0.00031133410841353913    9.946965053589602e-07     
2.435808205504295         0.0003092731806638701     9.836657775414112e-07     
2.4419206476762003        0.000305161707165414      9.822760769589736e-07     
2.4480330898481055        0.00030427351594179415    9.787692958826665e-07     
2.4541455320200107        0.0003028246017769702     9.958822921103171e-07     
2.4602579741919164        0.00030264438363343375    9.931305342475372e-07     
2.466370416363822         0.0003000126166262269     1.0070152662578156e-06    
2.472482858535727         0.0002984280188389511     9.908816205205243e-07     
2.4785953007076325        0.0002956754210738511     1.0001614291642451e-06    
2.484707742879538         0.0002927646352932331     1.004611674377988e-06     
2.4908201850514433        0.00029214566224701705    9.987010575631213e-07     
2.4969326272233485        0.00029154886290768973    1.004303768486525e-06     
2.503045069395254         0.00028765664148676866    9.92408985105338e-07      
2.5091575115671594        0.0002869849122144129     1.0102691720889351e-06    
2.515269953739065         0.0002860767328362326     1.0024773206242326e-06    
2.5213823959109702        0.00028549180612213006    9.973084634353274e-07     
2.5274948380828755        0.0002834046809732699     1.0047594373604255e-06    
2.533607280254781         0.00028176192971818384    1.0016791462374225e-06    
2.5397197224266863        0.00028144218878652983    1.0065190614422721e-06    
2.5458321645985915        0.00027909168867102404    1.0005248330732736e-06    
2.551944606770497         0.0002769898733217266     9.98098498365875e-07      
2.5580570489424024        0.00027872429028109923    1.0106273844601063e-06    
2.564169491114308         0.00027673109713228925    1.000331240155045e-06     
2.5702819332862132        0.00027587815611044224    1.0003021412142473e-06    
2.5763943754581184        0.00027395872655364644    1.0122782847596054e-06    
2.582506817630024         0.0002727715375717416     9.948472850729417e-07     
2.5886192598019298        0.0002733931736058839     1.0035595119011797e-06    
2.5947317019738345        0.00027207062131972306    1.0171611243755265e-06    
2.60084414414574          0.0002716476024935588     9.988122589874747e-07     
2.606956586317646         0.0002733415590199579     1.0080759937910659e-06    
2.613069028489551         0.000269620548937452      1.0083283505274829e-06    
2.6191814706614562        0.00026954552050187424    1.0119398467956885e-06    
2.625293912833362         0.0002692489934952461     1.006234706757121e-06     
2.631406355005267         0.00026784014215437506    1.0035598145806196e-06    
2.6375187971771727        0.0002677234088918359     1.0143593846805512e-06    
2.6436312393490775        0.0002677728959078683     1.0129943575838514e-06    
2.649743681520983         0.0002682688588929159     1.009384388234309e-06     
2.655856123692889         0.0002679491782345172     1.020569085347333e-06     
2.661968565864794         0.00026600242528514005    1.0041548939092941e-06    
2.6680810080366992        0.00026626687094101226    1.0139977824612977e-06    
2.674193450208605         0.0002657951408047079     1.018167842380335e-06     
2.68030589238051          0.0002657103945671711     1.0212952084336341e-06    
2.6864183345524157        0.0002664059516304063     1.0187516767233222e-06    
2.692530776724321         0.0002659630819326746     1.0130545448676732e-06    
2.698643218896226         0.00026496082502574185    1.0294753883640085e-06    
2.704755661068132         0.0002653551044152656     1.0153487009624955e-06    
2.7108681032400375        0.00026426022578345475    1.020783506811842e-06     
2.7169805454119422        0.00026244719708639697    1.0165178483389913e-06    
2.723092987583848         0.0002649458194737633     1.034273883221389e-06     
2.729205429755753         0.0002633514388787939     1.0174553114779957e-06    
2.7353178719276587        0.0002641354713241862     1.0255897129854647e-06    
2.741430314099564         0.00026373561040602474    1.026958402569776e-06     
2.747542756271469         0.0002654104814326383     1.0348560068614976e-06    
2.753655198443375         0.0002645644970963045     1.0295878041784917e-06    
2.7597676406152805        0.0002628651703345278     1.0329727498459056e-06    
2.7658800827871852        0.0002641534363841686     1.0266193892088692e-06    
2.771992524959091         0.0002648033228226781     1.0407700244436354e-06    
2.7781049671309965        0.00026350469669290206    1.0339298270949603e-06    
2.7842174093029017        0.000263218853301611      1.0377730115028478e-06    
2.790329851474807         0.00026324904039237327    1.033621773756288e-06     
2.7964422936467126        0.00026447667467982317    1.0374552076846862e-06    
2.802554735818618         0.00026318889779849546    1.044160420297013e-06     
2.8086671779905235        0.0002621885528053675     1.0379585812815314e-06    
2.814779620162428         0.00026212739872916695    1.0493471021173158e-06    
2.820892062334334         0.0002641857267805586     1.0396070584858343e-06    
2.8270045045062395        0.00026271732314932364    1.0399436844889083e-06    
2.8331169466781447        0.0002621827933485173     1.0449755859260111e-06    
2.83922938885005          0.0002605904002836542     1.038936259054808e-06     
2.8453418310219556        0.0002611915392946953     1.0466470092768091e-06    
2.851454273193861         0.0002592887496945301     1.0419993719373422e-06    
2.8575667153657665        0.00026001939629045407    1.0475507558204866e-06    
2.8636791575376717        0.00026007280553094097    1.0494306914169487e-06    
2.869791599709577         0.0002580522961065041     1.0371891993653167e-06    
2.8759040418814825        0.000257922455240376      1.0400718513971198e-06    
2.8820164840533877        0.00025734169985661137    1.0467501240682444e-06    
2.888128926225293         0.00025688552971396273    1.046950449482125e-06     
2.8942413683971986        0.00025640737053917427    1.0388652173651445e-06    
2.9003538105691042        0.00025629050476221434    1.045118730245644e-06     
2.9064662527410094        0.0002563836939410705     1.053351643451497e-06     
2.9125786949129147        0.00025378650061939776    1.0383749997709174e-06    
2.91869113708482          0.0002536610595192816     1.0415660526332653e-06    
2.9248035792567255        0.0002529950366078853     1.0449785576374988e-06    
2.9309160214286307        0.00025181991545008837    1.0480122053360814e-06    
2.937028463600536         0.00025167787764554577    1.0412334591553933e-06    
2.9431409057724416        0.0002502296947286197     1.0529208912616019e-06    
2.9492533479443472        0.0002510802326193396     1.0742363501107779e-06    
2.9553657901162524        0.0002510258685187232     1.0980709252965045e-06    
2.9614782322881577        0.0002523853819989792     1.1099587013088644e-06    
2.9675906744600633        0.0002521347215225756     1.1191226876758157e-06    
2.9737031166319685        0.0002505479806302323     1.1173040756270533e-06    
2.9798155588038737        0.00025168419051334963    1.127645830180557e-06     
2.9859280009757794        0.0002524262064020997     1.1354306831987698e-06    
2.9920404431476846        0.00025425189045767503    1.1460635378715642e-06    
2.9981528853195902        0.00025329025886292083    1.1473185524458612e-06    
3.0042653274914954        0.0002530144921137772     1.1531708777624495e-06    
3.0103777696634006        0.0002522073433328989     1.1592364844390454e-06    
3.0164902118353063        0.00025394264283510476    1.174406193190567e-06     
3.0226026540072115        0.0002534786458101        1.1692282432278227e-06    
3.0287150961791167        0.0002534143585827378     1.1880845920225047e-06    
3.0348275383510224        0.0002556268610845354     1.1886235831210377e-06    
3.0409399805229276        0.00025339866455828406    1.1933928118432888e-06    
3.0470524226948332        0.0002565631408287809     1.205823370675962e-06     
3.0531648648667384        0.00025578591406045343    1.2068169906437584e-06    
3.0592773070386436        0.00025249882041089344    1.2083302247510013e-06    
3.0653897492105493        0.0002551148561174034     1.2196841840736694e-06    
3.071502191382455         0.00025369461078422945    1.2124226477631815e-06    
3.0776146335543597        0.00025119950425887713    1.2514493292931677e-06    
3.0837270757262654        0.0002503514084077478     1.2770743167478672e-06    
3.0898395178981706        0.0002477684586194031     1.2903608673277719e-06    
3.0959519600700762        0.00024570942090478763    1.3086482011768549e-06    
3.1020644022419814        0.00024311823208902073    1.316592868547003e-06     
3.1081768444138866        0.00024119818052568943    1.331094363704693e-06     
3.1142892865857923        0.00023648152654330416    1.3413713060236793e-06    
3.120401728757698         0.00023536749892278825    1.352560133448566e-06     
3.1265141709296027        0.00023370274589415814    1.3649071887721348e-06    
3.1326266131015084        0.00023032976023542616    1.3675033750896566e-06    
3.138739055273414         0.00022633019922746404    1.378535825987867e-06     
3.144851497445319         0.00022575742290969762    1.3958562447539764e-06    
3.1509639396172244        0.00022424722588224518    1.4067996461690934e-06    
3.15707638178913          0.000220667393134624      1.4133213348959954e-06    
3.1631888239610353        0.0002173981278594826     1.4190748029671634e-06    
3.169301266132941         0.00021976449207718348    1.4452495715158415e-06    
3.175413708304846         0.00021445075456855037    1.4444287070707488e-06    
3.1815261504767514        0.00021036294322450094    1.4515044472525862e-06    
3.187638592648657         0.00021004746408504293    1.4705885083395137e-06    
3.193751034820562         0.00020747243271862834    1.4759240975364128e-06    
3.1998634769924674        0.00020411325703386694    1.4876493041191287e-06    
3.205975919164373         0.0002046106248414134     1.5022465250701874e-06    
3.2120883613362783        0.00020259377429009394    1.5244260567231955e-06    
3.218200803508184         0.00020270718299998606    1.545600375284656e-06     
3.224313245680089         0.00020145493510088664    1.5560411895330173e-06    
3.2304256878519944        0.0001990777213510624     1.5627703156165895e-06    
3.2365381300239           0.0001956239192992721     1.576778009896782e-06     
3.2426505721958057        0.00019578713300616503    1.6019462441257534e-06    
3.2487630143677104        0.00019545427102586583    1.6295342120771815e-06    
3.254875456539616         0.0001935413766266615     1.6349886597998044e-06    
3.2609878987115217        0.00019267810377498237    1.6630864209331473e-06    
3.267100340883427         0.00019212377401143507    1.6804784505153446e-06    
3.273212783055332         0.0001904042423817287     1.7093969090285236e-06    
3.2793252252272374        0.0001886705965458714     1.727657916985505e-06     
3.285437667399143         0.00018288757581659483    1.7332847602395053e-06    
3.2915501095710487        0.0001823604760253842     1.7890103638059922e-06    
3.2976625517429534        0.00018604049727947172    1.8376431379442224e-06    
3.303774993914859         0.00018395133698657085    1.879247273518629e-06     
3.3098874360867647        0.00018296224523845435    1.9182289250425934e-06    
3.31599987825867          0.00018240667888386113    1.9409728657803993e-06    
3.322112320430575         0.00018149418807489434    1.992689008826515e-06     
3.328224762602481         0.00017820207215100687    1.9940686728954663e-06    
3.334337204774386         0.00017349097712728885    2.0339499080822146e-06    
3.3404496469462917        0.00017470655212916558    2.063520955180632e-06     
3.346562089118197         0.00017257981515228849    2.136132315390133e-06     
3.352674531290102         0.00017200459901692473    2.152903653172735e-06     
3.3587869734620077        0.0001751453413255944     2.245268821199077e-06     
3.364899415633913         0.00016934184425083728    2.2519297526800865e-06    
3.371011857805818         0.00017801604917969926    2.3386808710546844e-06    
3.377124299977724         0.0001707687533703956     2.3667380739199503e-06    
3.383236742149629         0.00017201509558027704    2.396605523144197e-06     
3.3893491843215346        0.00017093318790647842    2.4653799820265326e-06    
3.39546162649344          0.0001670262688223554     2.4927571472168427e-06    
3.401574068665345         0.0001680740508941198     2.532508528376605e-06     
3.4076865108372507        0.0001689813829716999     2.60483239828845e-06      
3.4137989530091564        0.0001679701861843336     2.6276099051784553e-06    
3.419911395181061         0.0001617304393980129     2.5943016529948516e-06    
3.426023837352967         0.00016160513424429572    2.644427518130916e-06     
3.4321362795248724        0.00015891561001851916    2.691945010440965e-06     
3.4382487216967776        0.00015893239751936034    2.685788957858128e-06     
3.444361163868683         0.0001624297814794414     2.769685897198632e-06     
3.4504736060405885        0.00015609033533625852    2.760912702658077e-06     
3.456586048212494         0.00015796617389483535    2.8417408340839434e-06    
3.462698490384399         0.00016286605891610155    2.948697710503767e-06     
3.468810932556304         0.00015204518610511627    2.87783735301167e-06      
3.47492337472821          0.00015817247027433186    2.9715116748048707e-06    
3.4810358169001154        0.00015454544867704118    3.0092860974256586e-06    
3.4871482590720206        0.0001507487348135423     3.024002178978998e-06     
3.4932607012439263        0.00015079390709639065    3.0999942164390673e-06    
3.499373143415831         0.00015318629372935573    3.178732111979668e-06     
3.5054855855877367        0.00015022083420163958    3.231801722520201e-06     
3.5115980277596424        0.00015061282522004876    3.3087594842945697e-06    
3.5177104699315476        0.00014839091826092192    3.3607118334266415e-06    
3.523822912103453         0.0001487176531683984     3.450496386566615e-06     
3.529935354275358         0.0001474382137577323     3.5219866346191425e-06    
3.5360477964472636        0.00015486961174370043    3.7156134461883296e-06    
3.542160238619169         0.0001480386013447807     3.720326158116935e-06     
3.5482726807910745        0.00015066403055810168    3.907156537716229e-06     
3.55438512296298          0.00014093530602349015    3.9014817121832865e-06    
3.5604975651348854        0.00015569110769841357    4.241178830970642e-06     
3.56661000730679          0.00014770726218646296    4.299211854685307e-06     
3.5727224494786958        0.00014350069975487616    4.402865935907134e-06     
3.5788348916506014        0.00014562788922449653    4.620758371634167e-06     
3.5849473338225066        0.00014645764606683424    4.79208735346728e-06      
3.5910597759944123        0.000148554886977011      5.161079095191088e-06     
3.597172218166317         0.0001448879457751861     5.391924736608315e-06     
3.6032846603382227        0.00014570121771002853    5.821050692063744e-06     
3.6093971025101284        0.00014422444881216005    6.2520192906542016e-06    
3.6155095446820336        0.00014424396909009065    6.69773874054177e-06      
3.621621986853939         0.00013393321900157038    7.2398318180698045e-06    
3.627734429025845         0.00014563515948547018    8.746297000448343e-06     
3.6338468711977496        0.00012200934609705817    9.836201370290628e-06     
3.639959313369655         0.00015005722663986298    1.4128110336700787e-05    
3.6460717555415605        0.00013540344384396937    3.296193469518754e-05     
