################################################################################
# EDF_DataBlockID                 0.Image.Psd
# EDF_BinarySize                  4366944
# EDF_HeaderSize                  3072
# ByteOrder                       LowByteFirst
# DataType                        FloatValue
# Dim_1                           1028
# Dim_2                           1062
# Image                           0
# HeaderID                        EH:000000:000000:000000
# Size                            4366944
# BIO_SYSTEM_CONF_TXT             WAXSRES
# Center_1                        606.8750
# Center_2                        651.0340
# Comment                         ICG_silk_unlasered - ICG_silk_unlasered_SAXS_HI_1200s
# DDummy                          0.6
# Date                            2023-10-11T05:55:20
# Delta                           0
# Dummy                           -1.5
# ExposureTime                    1200
# Force                           9.91088
# Gamma                           0
# Intensity1                      4.38623e-08
# JawsDistance                    4.54563
# JawsVelocity                    0.358589
# PSize_1                         7.5e-05
# PSize_2                         7.5e-05
# Pressure                        0.0759048
# SampleDistance                  0.899998
# SampleEnvKind                   saxs
# SampleEnvPN                     Solids
# SampleEnvSN                     1012
# Strain                          0
# Stress                          0
# Thickness                       0
# WaveLength                      1.541891e-10
# Wavelength                      1.54189e-10
# anaB                            0
# anaB_dial                       -0.0012015
# anaPark                         -175.125
# anaPark_dial                    175.169
# anaXi                           0
# anaXi_dial                      0
# anaZ                            -9.13123e-08
# anaZ_dial                       6.2299
# aux                             0
# aux_dial                        -0.000125
# b2c                             0
# b2c_dial                        0
# beamx                           602.698
# beamx_dial                      602.698
# beamz                           651.159
# beamz_dial                      651.159
# bioZ                            -2.90461e-08
# bioZ_dial                       -0.546695
# det0x                           0
# det0x_dial                      3.98621
# det0xvd                         0
# det0xvd_dial                    0
# det0y                           899.998
# det0y_dial                      43.5135
# det0z                           0
# det0z_dial                      7.30833
# det0zvd                         0
# det0zvd_dial                    0
# distana                         93.4
# distana_dial                    93.4
# mag                             2.6365
# mag_dial                        2.6365
# mono1B                          1.00136e-08
# mono1B_dial                     -0.277
# mono2B                          1.75476e-07
# mono2B_dial                     -4.366
# mono2X                          -1
# mono2X_dial                     3.96031
# mono2Xi                         0
# mono2Xi_dial                    0
# monoZ                           -11
# monoZ_dial                      -10.6609
# om                              1.30741e-08
# om_dial                         -0.939898
# phi                             -4.9295e-08
# phi_dial                        -7.01716
# qana                            0
# qana_dial                       0
# ry                              0
# ry_dial                         0.00149998
# s1bot                           1
# s1bot_dial                      -1.57906
# s1hl                            0.1
# s1hl_dial                       -0.02125
# s1hr                            1.5
# s1hr_dial                       1.86625
# s1top                           0.6
# s1top_dial                      0.783906
# s2bot                           0.95
# s2bot_dial                      -1.84531
# s2hl                            0.35
# s2hl_dial                       -1.115
# s2hr                            0.55
# s2hr_dial                       -0.265313
# s2top                           -0.05
# s2top_dial                      -1.43281
# ttdeg                           0
# ttdeg_dial                      0
# wind                            72.0045
# wind_dial                       72.0233
# x                               2.86102e-08
# x_dial                          0.709688
# z                               12.5
# z_dial                          31.6091
# CountCutoff                     15302352
# DetectorModel                   Dectris EIGER2 Si 1M, S/N E-02-0357
# ThresholdSetting                4023.88989258
# Saturation                      0
# FlatField                       Corrected
# BackgroundReductionExtra        0.02
# Detector                        0
# Monitor                         0
# Pil_Roi0                        5.26347e+10
# SumForIntensity1                5.26347e+10
# TransmittedFlux                 4.38623e+07
# det                             0
# mon                             0
# pilai0                          5.26347e+10
# pilai1                          0
# pilct0                          5.26347e+10
# pilct1                          0
# pilroi0                         5.26347e+10
# pilroi1                         0
# sec                             0.099
# title                           10_10_2023_0_00049.edf
# usaxs0                          0
################################################################################
q(A-1)                    I(q)                      Sig(q)                    
0.00016979159920298188    616968.8144758181         20.5421345376204          
0.0005093747976089456     612332.664120028          14.470804728328563        
0.0008489579960149094     584038.0118013299         9.694827106301604         
0.001188541194420873      580160.0858324011         8.307187092423785         
0.0015281243928268369     522252.10803826066        7.413058566159529         
0.001867707591232801      462383.79878396186        5.847153148469736         
0.0022072907896387643     394979.8187429984         5.2637978697696886        
0.002546873988044728      326426.07050288294        4.226214177264371         
0.002886457186450692      257421.1090023963         3.6801416021249236        
0.003226040384856656      196727.2131705516         3.0203020496590414        
0.0035656235832626196     139071.50201509436        2.365423050663511         
0.0039052067816685828     88816.74664159119         1.8370688853939874        
0.004244789980074546      53123.556300179735        1.3478541199437484        
0.004584373178480511      29286.695283384164        1.000770654810425         
0.004923956376886474      16753.41179150629         0.6982840774838162        
0.005263539575292438      8313.758822537446         0.48423630414071134       
0.005603122773698402      4385.617194392073         0.3364395193835537        
0.005942705972104365      2438.635753257481         0.24740294927650233       
0.00628228917051033       1595.4639982652277        0.19653912399197437       
0.0066218723689162925     857.9607953457247         0.13648762237995063       
0.006961455567322258      454.4086465176943         0.09816876982692593       
0.0073010387657282206     239.24614117190507        0.07015225830040196       
0.007640621964134184      91.38315432236693         0.04210838836870238       
0.007980205162540149      33.96417779395569         0.02514184203516445       
0.008319788360946111      8.240988552170494         0.01183374034511854       
0.008659371559352074      2.129339376659912         0.0062112555778839436     
0.00899895475775804       0.5101354949741747        0.002848551630072039      
0.009338537956164003      0.15143752329080287       0.001552023154973827      
0.009678121154569966      0.08164444985596826       0.0011139684195335378     
0.01001770435297593       0.04923759403329834       0.0008464774963470979     
0.010357287551381893      0.029989613712943366      0.0006695853683864407     
0.01069687074978786       0.020761612571350226      0.0005251013503077275     
0.011036453948193822      0.017311037067244413      0.00048662329489338157    
0.011376037146599785      0.015525124358945503      0.00044973262560775874    
0.01171562034500575       0.01437052074488487       0.0004217807633791471     
0.012055203543411714      0.013127480424081857      0.0004058908433250135     
0.012394786741817678      0.012442635478301198      0.0003806003924624979     
0.01273436994022364       0.011700948621672874      0.00037146139502325837    
0.013073953138629604      0.011357835717586345      0.00036133216599112223    
0.013413536337035568      0.010456112936534619      0.00033759480800716176    
0.013753119535441533      0.010053623262720093      0.00033103362599725084    
0.014092702733847497      0.009534149311957833      0.0003079799785825937     
0.01443228593225346       0.009963768157621532      0.0003282461142457749     
0.014771869130659422      0.009147729205540765      0.0003005834079276931     
0.015111452329065385      0.008579090726207274      0.0002890120223833656     
0.01545103552747135       0.008279283779017623      0.000280445699506395      
0.015790618725877316      0.008119394400585945      0.000274409829630129      
0.01613020192428328       0.007821098136294174      0.00027163387773432014    
0.01646978512268924       0.00781339049173173       0.0002621735357660272     
0.016809368321095204      0.007820948303320502      0.0002627231633291258     
0.017148951519501167      0.00716392088854194       0.00024904715180777443    
0.017488534717907133      0.007372616482729458      0.000249896123650341      
0.017828117916313096      0.0072570494456687075     0.00024565877791845426    
0.018167701114719062      0.006656452577037268      0.00023143679031629254    
0.018507284313125025      0.006359708613584993      0.0002268876922759237     
0.018846867511530987      0.006669505402574953      0.00022865727734163092    
0.01918645070993695       0.005973232230102751      0.00021516346326110462    
0.019526033908342916      0.006596231916360943      0.00022327757691033932    
0.01986561710674888       0.0063639908634201305     0.0002143368636946807     
0.020205200305154842      0.006160397013663124      0.00021518184664231103    
0.020544783503560805      0.005918208840538838      0.00020481121411943947    
0.02088436670196677       0.00568547143672694       0.00020152845313080176    
0.021223949900372737      0.00570454926673838       0.00019953561848752788    
0.0215635330987787        0.005177991381841087      0.0001884288053063904     
0.021903116297184663      0.004958235094445978      0.00018415644880075463    
0.022242699495590625      0.004936861853307342      0.0001791175350929083     
0.022582282693996588      0.004987083421027626      0.0001815419980137914     
0.022921865892402554      0.0046668635744923454     0.00017272091781317362    
0.023261449090808517      0.004733003224270543      0.00017517283088564926    
0.02360103228921448       0.00442847259542585       0.00016651031662284405    
0.023940615487620442      0.004129259086493859      0.0001582716021446203     
0.02428019868602641       0.003824129052664679      0.00015368091296448513    
0.024619781884432375      0.0041997007033964095     0.0001580469449714396     
0.024959365082838338      0.003847829417788963      0.00015177700722907104    
0.0252989482812443        0.00406124801151114       0.00015425094355402838    
0.025638531479650263      0.0036769446214076633     0.0001438739824549974     
0.025978114678056226      0.003587841359569425      0.00014467296918993435    
0.02631769787646219       0.003539158706254409      0.00013944177288389913    
0.026657281074868155      0.003521783237956924      0.00014109659433877896    
0.026996864273274118      0.00334036210338921       0.00013452696456488775    
0.027336447471680087      0.003210629636470332      0.00013201961343913408    
0.02767603067008605       0.002931728823423462      0.00012553418092426763    
0.028015613868492013      0.0031125951914261108     0.00012712043537628368    
0.02835519706689798       0.002736883468448128      0.00012069973778706731    
0.02869478026530394       0.002955713042748192      0.00012192472880942739    
0.029034363463709904      0.002670040234100215      0.00011807385893419125    
0.029373946662115867      0.0026210819270934813     0.00011524027875988616    
0.02971352986052183       0.0027822031152447226     0.00011617592597210848    
0.030053113058927793      0.002410034202302315      0.00010979425563007958    
0.030392696257333755      0.0024364585306709706     0.0001081444322990536     
0.03073227945573972       0.0023593405558583022     0.00010736526252337636    
0.031071862654145688      0.0022714522794778018     0.00010378313842248908    
0.03141144585255165       0.0021090669949082163     9.889685888745777e-05     
0.03175102905095761       0.0023397485089049117     0.0001057913870016083     
0.032090612249363576      0.0021170492986382836     9.744615980275876e-05     
0.03243019544776954       0.0022180400457036645     0.00010167875794148647    
0.03276977864617551       0.0019190693620090176     9.210114678640981e-05     
0.03310936184458147       0.001958513586887324      9.403563211768335e-05     
0.033448945042987434      0.0019145137012538732     9.206634670091637e-05     
0.0337885282413934        0.0017430011065366557     8.679872257271925e-05     
0.03412811143979936       0.0018422059612114962     9.009280338825436e-05     
0.03446769463820532       0.0018399865846113659     8.953539828699757e-05     
0.03480727783661129       0.0016681457660517247     8.671423173012817e-05     
0.035146861035017254      0.0017380272911716543     8.940009978335202e-05     
0.03548644423342322       0.0016725190028703675     8.640203125610434e-05     
0.03582602743182918       0.001642694587452252      8.706030873367951e-05     
0.03616561063023514       0.0016682392108468402     8.643271872108517e-05     
0.036505193828641105      0.0016300112427744026     8.636043305746979e-05     
0.03684477702704707       0.0016453698475106184     8.691189673413354e-05     
0.03718436022545303       0.0014352273421435052     8.01042801921706e-05      
0.037523943423858994      0.0013841884587684308     8.039339796000761e-05     
0.037863526622264956      0.0014850525209200416     8.128406779314679e-05     
0.03820310982067092       0.0013875787772079492     8.001548929350433e-05     
0.03854269301907689       0.0013448252589151278     7.716347741808526e-05     
0.03888227621748285       0.0012967197469757209     7.69632265889431e-05      
0.039221859415888814      0.0013920658963410503     7.902038012600503e-05     
0.039561442614294784      0.0012759843345705095     7.51628250823246e-05      
0.03990102581270075       0.0012429898009254786     7.4853933964297e-05       
0.04024060901110671       0.0011976067964152577     7.275913506853275e-05     
0.04058019220951267       0.001307030810840165      7.669505891361838e-05     
0.040919775407918635      0.001175264009743991      7.207741417186328e-05     
0.0412593586063246        0.001037306687501848      6.738929785627196e-05     
0.04159894180473056       0.0012714360151177193     7.502930468757687e-05     
0.04193852500313653       0.0011791111442013744     7.150578090476265e-05     
0.04227810820154249       0.0010356455424407425     6.766113317742926e-05     
0.042617691399948456      0.0010241172747611697     6.60159610798077e-05      
0.04295727459835442       0.0010061038649265843     6.615706803355467e-05     
0.04329685779676038       0.0010585112913649613     6.796646987644883e-05     
0.043636440995166344      0.0011099142828879056     6.867253835350156e-05     
0.043976024193572306      0.0009963140024925687     6.604500910610765e-05     
0.04431560739197827       0.001029499808494412      6.528221659791167e-05     
0.04465519059038423       0.0010321164239715708     6.695409609462093e-05     
0.044994773788790195      0.0010129897038984052     6.550431824916106e-05     
0.045334356987196164      0.0010851768363156229     6.738227339260654e-05     
0.04567394018560213       0.0009214623453655837     6.271835563588854e-05     
0.0460135233840081        0.0008904921844738402     6.044183374691631e-05     
0.04635310658241406       0.0008361162722019918     5.9836890270994946e-05    
0.04669268978082002       0.0008602824891742532     5.9541973281859855e-05    
0.047032272979225985      0.0009220058207955302     6.118207963353192e-05     
0.04737185617763195       0.0008718597655312134     5.936315454285358e-05     
0.04771143937603791       0.0008673585402497315     5.761491502370303e-05     
0.04805102257444387       0.0008023109202530562     5.5412479791870924e-05    
0.048390605772849836      0.0008880527791933835     5.7150866440533185e-05    
0.0487301889712558        0.0008786419711359875     5.680916194374672e-05     
0.04906977216966177       0.0007918595087829339     5.378663245913935e-05     
0.04940935536806773       0.0007367871310262838     5.084117340952619e-05     
0.049748938566473694      0.0008047181845987645     5.337337630846194e-05     
0.05008852176487966       0.0008874793217407645     5.5514852676215954e-05    
0.05042810496328562       0.0008332483167790473     5.348745218319801e-05     
0.05076768816169158       0.0007393731020581864     5.013354425831683e-05     
0.051107271360097545      0.0007257161392782074     4.960686983375083e-05     
0.05144685455850351       0.0008549399713080796     5.325209776684379e-05     
0.05178643775690947       0.0007602423324053484     5.012535111220621e-05     
0.05212602095531544       0.0007313720435924582     4.895794761346467e-05     
0.0524656041537214        0.0007836923787034862     5.0378173282127035e-05    
0.05280518735212737       0.0006550220365357934     4.5574427380828184e-05    
0.053144770550533335      0.0007620165199919329     4.9414297902404755e-05    
0.0534843537489393        0.0006915634529624389     4.688290522026685e-05     
0.05382393694734526       0.0006781662752654233     4.5974987997982794e-05    
0.054163520145751216      0.0007734712395619466     4.865806535234462e-05     
0.054503103344157186      0.0006740824837969586     4.568068685100071e-05     
0.05484268654256314       0.0007250100044868275     4.726813598975527e-05     
0.05518226974096911       0.0006406885079440625     4.3797977839062205e-05    
0.05552185293937507       0.0006177764339550384     4.3054909570636133e-05    
0.05586143613778104       0.0007015753499193224     4.555871525050801e-05     
0.05620101933618699       0.0006252818381928837     4.3221127193605256e-05    
0.05654060253459296       0.0006464358335739246     4.310730872724344e-05     
0.05688018573299892       0.0006736334652824199     4.449840216245586e-05     
0.05721976893140489       0.0006516666780141511     4.3190874831293634e-05    
0.05755935212981085       0.0006758652587672178     4.412423743421758e-05     
0.05789893532821682       0.0006896839715765925     4.4202438275775265e-05    
0.05823851852662278       0.0005643779621456036     3.9739838449753854e-05    
0.058578101725028746      0.000602262946051591      4.115740006403681e-05     
0.058917684923434716      0.0006779827510814659     4.335735796631839e-05     
0.05925726812184067       0.0005837352977458858     4.0251527899815365e-05    
0.05959685132024664       0.0006119740969104233     4.115115335290788e-05     
0.0599364345186526        0.0005236216466321797     3.7500420676232344e-05    
0.060276017717058566      0.0005783578316151947     3.9864275654215514e-05    
0.06061560091546452       0.0005401297219364444     3.79569578181227e-05      
0.06095518411387049       0.0005519086072933125     3.8500231513925205e-05    
0.06129476731227645       0.0005235279337602791     3.729657735318449e-05     
0.06163435051068242       0.0005692705472960523     3.859330726999676e-05     
0.06197393370908839       0.0005662703274184563     3.880820164646829e-05     
0.06231351690749434       0.0005412908507808073     3.7243445157900134e-05    
0.06265310010590032       0.0005462491660790396     3.769714763767503e-05     
0.06299268330430627       0.0005078486595331756     3.60916509082985e-05      
0.06333226650271225       0.0005110165930222302     3.6153325850034256e-05    
0.0636718497011182        0.0005429520471858898     3.7144658911289174e-05    
0.06401143289952417       0.0005218168550137015     3.6097582430706884e-05    
0.06435101609793012       0.000593465977810439      3.858431007160344e-05     
0.0646905992963361        0.0005357889774773385     3.654447928789021e-05     
0.06503018249474204       0.0004721717140050326     3.425967557284359e-05     
0.06536976569314802       0.0005387696514855282     3.6463938732947786e-05    
0.06570934889155398       0.00046579947171967675    3.364797739521744e-05     
0.06604893208995995       0.0005535334726462183     3.689384347038694e-05     
0.06638851528836591       0.0005428070937783543     3.602055802374093e-05     
0.06672809848677187       0.000555897146063879      3.664490315722152e-05     
0.06706768168517784       0.0005385594495880752     3.586383424651966e-05     
0.0674072648835838        0.0005620105075444489     3.6352043426361025e-05    
0.06774684808198977       0.0004777617099139679     3.388268427002079e-05     
0.06808643128039572       0.00047490075285933813    3.324548478331625e-05     
0.0684260144788017        0.0005265023987808816     3.517005333177321e-05     
0.06876559767720765       0.0004996720155512247     3.397191797038545e-05     
0.06910518087561363       0.0004676166899868325     3.2947748648293784e-05    
0.06944476407401959       0.0004937207042622977     3.376914470764397e-05     
0.06978434727242555       0.0004925612683744119     3.337927802463978e-05     
0.07012393047083151       0.000472508630661038      3.2924946490818005e-05    
0.07046351366923748       0.00045505508936452744    3.199101815134191e-05     
0.07080309686764344       0.0004956525918145811     3.3401364401363076e-05    
0.0711426800660494        0.0004978100601869257     3.354308556358119e-05     
0.07148226326445536       0.000458362233209233      3.169329489557229e-05     
0.07182184646286133       0.00047118406775965686    3.2513261479434545e-05    
0.07216142966126729       0.0004086330801957349     2.9758511214597098e-05    
0.07250101285967325       0.0004916700686106772     3.2943756822064104e-05    
0.07284059605807922       0.0004686817261152601     3.1958930558178265e-05    
0.07318017925648519       0.0004504842587936017     3.104942495621961e-05     
0.07351976245489114       0.0004708318705059274     3.2238296270155956e-05    
0.07385934565329712       0.0004465973077630941     3.0723744278270116e-05    
0.07419892885170308       0.0005046267703185053     3.293994777481148e-05     
0.07453851205010904       0.0004667371184706619     3.132446319219718e-05     
0.074878095248515         0.0004405784556890517     3.0575300111289936e-05    
0.07521767844692097       0.0004035114412567964     2.9170611611243283e-05    
0.07555726164532693       0.0004430892272716783     3.0427474325003982e-05    
0.0758968448437329        0.00043195443100547634    3.0123381428774144e-05    
0.07623642804213886       0.0004369921630046629     3.0012056931463548e-05    
0.07657601124054482       0.0004532457611001976     3.05997536154589e-05      
0.0769155944389508        0.00044097243783252065    3.0058168279382304e-05    
0.07725517763735675       0.00042706155851227214    2.9361378711711986e-05    
0.07759476083576272       0.00046400731589678123    3.0961112320153636e-05    
0.07793434403416867       0.00035218613183694755    2.6585329777798145e-05    
0.07827392723257465       0.00041140583632620013    2.8860977167366752e-05    
0.0786135104309806        0.0004704733645141632     3.061535882441407e-05     
0.07895309362938657       0.0004212824221850251     2.8970737661471544e-05    
0.07929267682779252       0.00040076527530772776    2.831843817131871e-05     
0.0796322600261985        0.00035216298790255473    2.6259510781808346e-05    
0.07997184322460446       0.00040893787908293845    2.846060151497629e-05     
0.08031142642301042       0.00041149258519736437    2.8234520867530674e-05    
0.08065100962141639       0.00046077822737229624    3.005902121883916e-05     
0.08099059281982235       0.00039602908969761885    2.774820284292679e-05     
0.08133017601822833       0.0004302616835589032     2.8699348912443314e-05    
0.08166975921663427       0.0003962511404313654     2.7765981247785587e-05    
0.08200934241504025       0.0003855792917289557     2.7130523413675533e-05    
0.0823489256134462        0.000398831496841471      2.7612148879208413e-05    
0.08268850881185218       0.00035438066408867983    2.586598975741e-05        
0.08302809201025813       0.00038063857222179646    2.6660519995560068e-05    
0.0833676752086641        0.0004489620401350214     2.9265717325057594e-05    
0.08370725840707006       0.00041574747760272587    2.7834622302018155e-05    
0.08404684160547603       0.0003772827764617968     2.657014126672405e-05     
0.08438642480388199       0.0003727208797775406     2.6177500428590114e-05    
0.08472600800228795       0.00041012507574703403    2.760842154939523e-05     
0.08506559120069392       0.00038521465569248814    2.667553982269737e-05     
0.08540517439909988       0.0004239683864737621     2.7724601870147116e-05    
0.08574475759750584       0.0003395349097856741     2.4976827839761242e-05    
0.0860843407959118        0.0003745382028098848     2.603262352291039e-05     
0.08642392399431777       0.00036870959899342734    2.5897894635361198e-05    
0.08676350719272373       0.0003868440387758834     2.636131757726877e-05     
0.0871030903911297        0.00032365627489735165    2.4025953271633818e-05    
0.08744267358953567       0.00039502284164538064    2.662993767158615e-05     
0.08778225678794163       0.0003849350063983022     2.61594419449194e-05      
0.0881218399863476        0.00037588889650634876    2.58923731839711e-05      
0.08846142318475356       0.00043991110514762213    2.769683327713797e-05     
0.08880100638315952       0.0003905817914949402     2.6164602907327763e-05    
0.08914058958156548       0.00037804612837375487    2.5824171077206548e-05    
0.08948017277997145       0.0003879911496673453     2.6011303582637577e-05    
0.08981975597837741       0.0003833762131518983     2.588921770132852e-05     
0.09015933917678337       0.0003605735177247531     2.47544096184568e-05      
0.09049892237518933       0.000407459228854391      2.6580041349822037e-05    
0.0908385055735953        0.00037840424360614485    2.5502100575030953e-05    
0.09117808877200127       0.0003959267538190156     2.5931758062371396e-05    
0.09151767197040722       0.00040494726065429726    2.6323735298558235e-05    
0.0918572551688132        0.0003541985283795566     2.4369116335428914e-05    
0.09219683836721915       0.000426440546295313      2.70472753420052e-05      
0.09253642156562512       0.0004013474073038307     2.587723607796389e-05     
0.09287600476403109       0.00040597570585345066    2.6113759710508694e-05    
0.09321558796243705       0.00036425237767681996    2.46075753265353e-05      
0.09355517116084301       0.00040508573970760183    2.5910997239048762e-05    
0.09389475435924897       0.000371784101991381      2.4982468089554472e-05    
0.09423433755765494       0.0003672349168292138     2.4428128739141184e-05    
0.0945739207560609        0.0003621821157780989     2.439750612891819e-05     
0.09491350395446688       0.0003703248398790554     2.4670310710017606e-05    
0.09525308715287283       0.0003943805876681733     2.5300096895736818e-05    
0.0955926703512788        0.00037915421783531314    2.4940376656738546e-05    
0.09593225354968475       0.00037510945768162306    2.4429415815558322e-05    
0.09627183674809073       0.0003803031599623343     2.491863382478687e-05     
0.09661141994649668       0.0003668297227484105     2.429291059029975e-05     
0.09695100314490265       0.000361628375761389      2.3944922946312702e-05    
0.0972905863433086        0.00035540284114100255    2.386267232272237e-05     
0.09763016954171458       0.0003816691538598402     2.4556994213111503e-05    
0.09796975274012054       0.0004177770150477239     2.5902538977001193e-05    
0.0983093359385265        0.0003433221194871121     2.3144398289330127e-05    
0.09864891913693247       0.0003822160712593245     2.4448165710453525e-05    
0.09898850233533843       0.00036252556679322953    2.3905928173209135e-05    
0.09932808553374439       0.0003753075315227654     2.4089172346179916e-05    
0.09966766873215036       0.00031154883751403266    2.2110786859524132e-05    
0.10000725193055632       0.0003563504191329558     2.335466509759112e-05     
0.10034683512896228       0.0004073413382009725     2.5181861753428394e-05    
0.10068641832736826       0.000392715557270425      2.455874845478169e-05     
0.1010260015257742        0.00039289905250450334    2.4530190712037526e-05    
0.10136558472418018       0.00035003147336075846    2.3140491189463383e-05    
0.10170516792258615       0.0003729899479302529     2.3722319178085628e-05    
0.10204475112099211       0.0003580671529083563     2.3424386042139825e-05    
0.10238433431939807       0.0003643701519908834     2.3427398644057114e-05    
0.10272391751780403       0.0003953969378230037     2.4371052957185245e-05    
0.10306350071621          0.0003411644465604811     2.263814824854815e-05     
0.10340308391461596       0.00034977244834589316    2.278496372514088e-05     
0.10374266711302192       0.0003566969939959075     2.3205246650673565e-05    
0.10408225031142788       0.00038337251790029675    2.3650201519033322e-05    
0.10442183350983385       0.0003567397662751704     2.3048506274500625e-05    
0.10476141670823981       0.0003975830390810102     2.421403981747972e-05     
0.10510099990664577       0.000322541089198563      2.176858727759504e-05     
0.10544058310505175       0.00039992522432613745    2.423327210526431e-05     
0.1057801663034577        0.00036321192598019736    2.2928886906911e-05       
0.10611974950186367       0.00043865352174532094    2.5427452473335945e-05    
0.10645933270026964       0.00034686672278192023    2.2365836474977558e-05    
0.1067989158986756        0.00038446618160735917    2.3584218781442256e-05    
0.10713849909708156       0.0003487639287320703     2.236824833696267e-05     
0.10747808229548753       0.00038124740507125223    2.3307588999805094e-05    
0.1078176654938935        0.00037770666738262015    2.3450653568812264e-05    
0.10815724869229947       0.0003688586794701491     2.277825695128797e-05     
0.10849683189070543       0.00036814235009580484    2.290372432010759e-05     
0.1088364150891114        0.00033792380895840104    2.1937953281302996e-05    
0.10917599828751737       0.00036112681951605265    2.2544274076526705e-05    
0.10951558148592332       0.000300796504842917      2.0596386936949862e-05    
0.10985516468432928       0.00035913008541871793    2.2338978497506927e-05    
0.11019474788273526       0.00037795410731949027    2.3028297176888577e-05    
0.11053433108114122       0.0003654045486727577     2.265443997240072e-05     
0.11087391427954717       0.0003718355376241579     2.2633535151758765e-05    
0.11121349747795313       0.0003258421509534954     2.1338417733634902e-05    
0.1115530806763591        0.00029437563513260367    2.0008258999462636e-05    
0.11189266387476507       0.00033132708873010255    2.150644182057961e-05     
0.11223224707317102       0.0003578929664081177     2.207809655606978e-05     
0.11257183027157701       0.00029750340641487475    2.0154549287211317e-05    
0.11291141346998296       0.0003676271380139539     2.242112469741993e-05     
0.11325099666838892       0.00034080953078231965    2.1422787815517852e-05    
0.11359057986679488       0.0003847929394220999     2.3013576287833488e-05    
0.11393016306520086       0.00035612190581929066    2.180264993090232e-05     
0.11426974626360681       0.0003356765163365139     2.128725180340859e-05     
0.11460932946201277       0.0003643714339931131     2.2102410685346874e-05    
0.11494891266041873       0.0003603965301258783     2.1976222692714073e-05    
0.11528849585882471       0.000331294088986172      2.1013851509071295e-05    
0.11562807905723067       0.0003642792130288614     2.195524517523161e-05     
0.11596766225563662       0.000366990363038793      2.2095659543136134e-05    
0.11630724545404261       0.00033487265768298457    2.1065848823362942e-05    
0.11664682865244856       0.000328581593438658      2.0801796953486615e-05    
0.11698641185085452       0.0003462736529629627     2.1359689815341136e-05    
0.11732599504926047       0.00037344243111221643    2.1976720262377035e-05    
0.11766557824766646       0.00031834238123316304    2.048519278383901e-05     
0.11800516144607241       0.0003770377728329919     2.206159496950388e-05     
0.11834474464447838       0.0003677763636339344     2.1923758438348495e-05    
0.11868432784288432       0.0003412878332970854     2.0974965489174987e-05    
0.11902391104129031       0.0003437522839352899     2.105559131637975e-05     
0.11936349423969626       0.00030942869041790123    1.9990950606542752e-05    
0.11970307743810223       0.0003339145016511077     2.0616815829033853e-05    
0.1200426606365082        0.0003259442314631271     2.0474274929114377e-05    
0.12038224383491417       0.000353038454021836      2.113051429975328e-05     
0.12072182703332013       0.0003726178179939288     2.1835008653994998e-05    
0.12106141023172608       0.00035405714016212834    2.1205235758336387e-05    
0.12140099343013205       0.00034845146971848       2.0858638577684782e-05    
0.12174057662853802       0.00030408077143516464    1.968842672149081e-05     
0.12208015982694398       0.0003065704010921553     1.9583008710366604e-05    
0.12241974302534993       0.00030697214972020404    1.9690543393330467e-05    
0.12275932622375592       0.0003485245454910729     2.085163608129074e-05     
0.12309890942216187       0.00032653688296784727    2.0064824144616036e-05    
0.12343849262056783       0.0003386215251668682     2.0628703878365942e-05    
0.1237780758189738        0.00033551726820581554    2.027524411767227e-05     
0.12411765901737977       0.0003355618643609942     2.0437251285350398e-05    
0.12445724221578572       0.00034345905618727484    2.048648951816566e-05     
0.12479682541419168       0.0003305312750377892     2.0187557517321326e-05    
0.12513640861259767       0.0003278094414120566     2.0104343035179847e-05    
0.1254759918110036        0.0003367185111312861     2.0194822898725473e-05    
0.12581557500940957       0.0002934797268621238     1.892076582454597e-05     
0.12615515820781553       0.0003420463897022709     2.0331665676041523e-05    
0.12649474140622152       0.00032925031975694033    2.0045312173625e-05       
0.12683432460462746       0.0003389192788358476     2.0203053614892737e-05    
0.12717390780303342       0.00030521719026375905    1.9101103838494453e-05    
0.1275134910014394        0.00033805389700451255    2.0195164014468726e-05    
0.12785307419984537       0.0003145548024522279     1.9412423280685306e-05    
0.12819265739825134       0.0003449106727210442     2.0309870317277178e-05    
0.12853224059665727       0.0003179470161520571     1.9406966418584878e-05    
0.12887182379506326       0.0002954095268710697     1.8734944306871976e-05    
0.12921140699346922       0.0003416060139701715     2.015110277197639e-05     
0.1295509901918752        0.0003174501353816892     1.931286644545232e-05     
0.12989057339028112       0.00032548541174740877    1.9635995725648843e-05    
0.1302301565886871        0.00032723145871194553    1.9541378332098934e-05    
0.13056973978709308       0.00031743970421946424    1.93626627128206e-05      
0.13090932298549904       0.000350726228082852      2.020510374291885e-05     
0.131248906183905         0.00031002002177534       1.9016706340516162e-05    
0.13158848938231096       0.0003106646294046101     1.8968029967927142e-05    
0.13192807258071693       0.0003310020126286733     1.958326926221748e-05     
0.1322676557791229        0.0003044292651898536     1.8824661497742604e-05    
0.13260723897752885       0.0003452810352752906     1.990064983306333e-05     
0.13294682217593481       0.00031927734015647967    1.915674259849725e-05     
0.13328640537434078       0.00032778808456210854    1.9390143543006538e-05    
0.13362598857274674       0.00031875804148198515    1.9049642434025015e-05    
0.1339655717711527        0.00037187701814649934    2.06575393949588e-05      
0.13430515496955867       0.00031865189373103317    1.8929030083986834e-05    
0.13464473816796463       0.0002888035955009423     1.8189483875574057e-05    
0.13498432136637062       0.00033667187846831516    1.9521243728246913e-05    
0.13532390456477658       0.00029313034547588104    1.8177793573369323e-05    
0.13566348776318252       0.0003061602840314254     1.8608132101674853e-05    
0.13600307096158848       0.00032005294019990147    1.8866764738144844e-05    
0.13634265415999447       0.00032265471634817703    1.9130628181189732e-05    
0.13668223735840043       0.00034132716323714303    1.94483997404026e-05      
0.13702182055680637       0.000319530964011821      1.888998123437075e-05     
0.13736140375521233       0.0003154791109726949     1.8724185187068482e-05    
0.13770098695361832       0.0003305208621256583     1.909972321332645e-05     
0.13804057015202428       0.0003401468283563539     1.9502010448534962e-05    
0.13838015335043022       0.0003130129815990182     1.8486895374495604e-05    
0.1387197365488362        0.0002983832801983473     1.809670452532857e-05     
0.13905931974724217       0.0003397743478441495     1.938901132130105e-05     
0.13939890294564813       0.0003203751791123501     1.8643952386689766e-05    
0.1397384861440541        0.00030632459938678187    1.8514996611010768e-05    
0.14007806934246006       0.0002983752682210146     1.8250914037917057e-05    
0.14041765254086602       0.00032466454188767515    1.9230936814661995e-05    
0.14075723573927199       0.0003442275142348789     1.9724209778580374e-05    
0.14109681893767795       0.00029125797492380066    1.818464607438556e-05     
0.1414364021360839        0.0002883811838373527     1.8132291377606896e-05    
0.14177598533448987       0.0003367113045839178     1.9625638126427478e-05    
0.14211556853289584       0.00032269999228265873    1.9285627936185436e-05    
0.14245515173130183       0.00032315362616596404    1.91866359389231e-05      
0.14279473492970776       0.0003066647584153054     1.874542902118476e-05     
0.14313431812811372       0.000354109858422447      2.037476925202827e-05     
0.1434739013265197        0.00032836042853330864    1.9764326505681882e-05    
0.14381348452492568       0.00035762390498507153    2.0771069945453158e-05    
0.1441530677233316        0.00029330940398484504    1.8745052780795733e-05    
0.14449265092173758       0.0003138509050590709     1.9636564815581187e-05    
0.14483223412014354       0.0003088162895787912     1.945237538663111e-05     
0.14517181731854953       0.00034960476628376425    2.0757676829813635e-05    
0.14551140051695546       0.0003440153175594631     2.0665635386650933e-05    
0.14585098371536143       0.0003005678416825148     1.9303596767650204e-05    
0.14619056691376742       0.0003226201744011749     2.0299913602705647e-05    
0.14653015011217338       0.00030873276437061887    1.955094672616296e-05     
0.14686973331057934       0.0002955658886632658     1.9407703635984757e-05    
0.14720931650898528       0.0003145479836046208     1.9919698187977017e-05    
0.14754889970739127       0.00031289398674501416    1.996868805594622e-05     
0.14788848290579723       0.00029012396138326395    1.931395831147436e-05     
0.1482280661042032        0.0003343905240332433     2.0548121925014563e-05    
0.14856764930260913       0.00032333383235827934    2.0375284574781143e-05    
0.14890723250101512       0.00030383296330617525    1.9723688773303418e-05    
0.14924681569942108       0.0002971912725332752     1.9516127589432384e-05    
0.14958639889782704       0.00030837889736764476    1.9940851707009643e-05    
0.149925982096233         0.0003242053294690913     2.027998845525814e-05     
0.15026556529463897       0.0003329113363757587     2.091674722077543e-05     
0.15060514849304493       0.00028685598101142393    1.911168370224224e-05     
0.1509447316914509        0.00028901027467020317    1.9396281646480533e-05    
0.15128431488985686       0.00032503410340250436    2.051136329102432e-05     
0.15162389808826282       0.0002910168040359621     1.9399304746982198e-05    
0.15196348128666878       0.00031338674325689497    2.037287024657123e-05     
0.15230306448507475       0.0003445397943188179     2.1088298756376777e-05    
0.1526426476834807        0.0003236930710743871     2.0680393336683057e-05    
0.15298223088188667       0.0003356283081207357     2.0982601228602948e-05    
0.15332181408029263       0.00031949325132553673    2.05064946134552e-05      
0.15366139727869862       0.0003029051786340411     2.006369881866244e-05     
0.1540009804771046        0.0003392626458579934     2.111641472912401e-05     
0.15434056367551052       0.0003203572215645311     2.069406441152987e-05     
0.15468014687391649       0.00031765628387354374    2.047735720207302e-05     
0.15501973007232248       0.0003036600514903553     2.0157577755120408e-05    
0.15535931327072844       0.00031176176205010593    2.041484812856958e-05     
0.15569889646913437       0.0002852909361126199     1.9406417916520533e-05    
0.15603847966754036       0.00029723722511672203    2.0116090721215478e-05    
0.15637806286594633       0.0003339754741764988     2.1093973537179196e-05    
0.1567176460643523        0.00030208366682284187    2.021448258618108e-05     
0.15705722926275822       0.00033166399292463276    2.1021052733441157e-05    
0.15739681246116421       0.0003139602394303375     2.064389887768233e-05     
0.15773639565957018       0.0002858657161991816     1.968408700773204e-05     
0.15807597885797614       0.0003298862262171134     2.1114235071574952e-05    
0.1584155620563821        0.0003122088296084291     2.0704747761053554e-05    
0.15875514525478807       0.0003292664056721437     2.103764538476156e-05     
0.15909472845319403       0.0003469337078174169     2.1815113412016242e-05    
0.1594343116516           0.0003144026226957858     2.070521715649516e-05     
0.15977389485000595       0.0003197510003390023     2.0839278224323427e-05    
0.16011347804841192       0.0003022204310996234     2.0484499796523533e-05    
0.16045306124681788       0.00027171387371942903    1.9191419719570117e-05    
0.16079264444522384       0.00031004818764921187    2.072731185606035e-05     
0.16113222764362983       0.0002956394656182163     2.010839659836221e-05     
0.16147181084203577       0.0003222721585831349     2.105781588314139e-05     
0.16181139404044173       0.0003008679858734585     2.0444295468982e-05       
0.1621509772388477        0.0003203384374038277     2.0890197070026725e-05    
0.16249056043725368       0.00029852109465697155    2.047904347941483e-05     
0.16283014363565962       0.00030151890023723255    2.0348502936798753e-05    
0.16316972683406558       0.0003291961858391228     2.1467257951964875e-05    
0.16350931003247157       0.00032717288094549096    2.1352300258632422e-05    
0.16384889323087753       0.0002991480995865895     2.0273727706234624e-05    
0.16418847642928347       0.0003117890279735054     2.0935084948732316e-05    
0.16452805962768943       0.00032151734293324344    2.1097699459581788e-05    
0.16486764282609542       0.000288153570567538      2.014164133352118e-05     
0.16520722602450139       0.00029540591379182427    2.026401902189872e-05     
0.16554680922290735       0.00034455471967205557    2.19687070466664e-05      
0.16588639242131328       0.00033794664370305765    2.1852204093900797e-05    
0.16622597561971927       0.00029946555122464867    2.0444585691630702e-05    
0.16656555881812524       0.0002816990805245972     1.9997583750788026e-05    
0.1669051420165312        0.00030905871834223576    2.070131614095443e-05     
0.16724472521493716       0.00031480975327196367    2.1184312958809518e-05    
0.16758430841334312       0.00031886007447468447    2.1204855803285577e-05    
0.1679238916117491        0.0003122946579148149     2.0878452194927108e-05    
0.16826347481015505       0.00032406529484297903    2.1544251745795463e-05    
0.168603058008561         0.00030576502777041617    2.0701426715457993e-05    
0.16894264120696698       0.0003136758781227365     2.1224032749912905e-05    
0.16928222440537294       0.0003045464618607904     2.0702707374715202e-05    
0.1696218076037789        0.0002992476642472777     2.0601350784486617e-05    
0.16996139080218486       0.0003314011358203615     2.180438592124037e-05     
0.17030097400059083       0.0003348805872580782     2.17543088919389e-05      
0.1706405571989968        0.0002868440790712867     2.034450959597344e-05     
0.17098014039740278       0.00031726473306876996    2.1077121896725835e-05    
0.17131972359580872       0.00028448434945197267    2.023958548769069e-05     
0.17165930679421468       0.00030128288177089127    2.0834157584249094e-05    
0.17199888999262064       0.0003009524960201792     2.0618109541943775e-05    
0.17233847319102663       0.0003010774895362106     2.0931976667193182e-05    
0.17267805638943257       0.000292520701313565      2.0285703649842738e-05    
0.17301763958783853       0.00028720330443648674    2.04986595032814e-05      
0.1733572227862445        0.00030248480498548273    2.076204356128047e-05     
0.17369680598465048       0.0003389379942867237     2.201195652814077e-05     
0.17403638918305644       0.0003212288819362902     2.1581670312328188e-05    
0.17437597238146238       0.00028274240955732767    2.0141516938099483e-05    
0.17471555557986837       0.00031886491598070657    2.155366718142541e-05     
0.17505513877827433       0.0003007734028903914     2.0666239474118373e-05    
0.1753947219766803        0.00031089047487277524    2.1203995101415697e-05    
0.17573430517508623       0.00029253080105416456    2.0677767545114613e-05    
0.17607388837349222       0.0003103422528865975     2.109673719041278e-05     
0.17641347157189818       0.0003040451964984151     2.1097886634916804e-05    
0.17675305477030415       0.0002918770183424148     2.040644447440372e-05     
0.17709263796871008       0.00028884260373542167    2.06134460095363e-05      
0.17743222116711607       0.0003150878517515111     2.135860929409364e-05     
0.17777180436552203       0.0002654356044506694     1.961928328642586e-05     
0.178111387563928         0.0002998570528754671     2.088588036019914e-05     
0.17845097076233396       0.0003255084619787776     2.1703553707173504e-05    
0.17879055396073992       0.0003025441816815068     2.1136973244437446e-05    
0.17913013715914589       0.00031290543032066326    2.116812743126587e-05     
0.17946972035755185       0.0003189531273942869     2.1621536581188863e-05    
0.1798093035559578        0.0003334091012757159     2.210030531457004e-05     
0.18014888675436377       0.000269623127435261      1.984248263356233e-05     
0.18048846995276974       0.00030963492836538347    2.130940450494807e-05     
0.1808280531511757        0.0002895584401824991     2.046000156629906e-05     
0.1811676363495817        0.00031019560351107736    2.1490336220057627e-05    
0.18150721954798762       0.0003467285084855821     2.2460240593668257e-05    
0.1818468027463936        0.0002965114783239695     2.0836696264176165e-05    
0.18218638594479958       0.0003064956537917779     2.1241468458874945e-05    
0.18252596914320554       0.00031607069761296376    2.1473136384024428e-05    
0.18286555234161148       0.00030405849612271405    2.129461788394226e-05     
0.18320513554001744       0.0003281909025197964     2.1754370314919566e-05    
0.18354471873842343       0.0003227154445692438     2.1879082603113045e-05    
0.1838843019368294        0.0002940134275497664     2.0849811636103663e-05    
0.18422388513523533       0.0003317633635731573     2.204729507661377e-05     
0.1845634683336413        0.00027508814832579993    2.0310603942324415e-05    
0.18490305153204728       0.00033314611607449847    2.1970619187293535e-05    
0.18524263473045324       0.00032869088828917797    2.2153301653925264e-05    
0.1855822179288592        0.00031326476070369334    2.1424304942762502e-05    
0.18592180112726517       0.00032960611582946817    2.2064653772844046e-05    
0.18626138432567113       0.0003212180815523346     2.1900400580591545e-05    
0.1866009675240771        0.0003126272666177595     2.1385741597073145e-05    
0.18694055072248306       0.0002840541689721797     2.0668023445002446e-05    
0.18728013392088902       0.0002987745972273263     2.0945921485214123e-05    
0.18761971711929498       0.0002913151065085703     2.0828290532789342e-05    
0.18795930031770094       0.00030656926714701184    2.1343623768106613e-05    
0.1882988835161069        0.00030175498203289646    2.1107040099278806e-05    
0.18863846671451287       0.00032208642090718917    2.205116722762886e-05     
0.18897804991291883       0.0002858913666045582     2.0440784464806205e-05    
0.1893176331113248        0.000285793998551374      2.0703719453455028e-05    
0.1896572163097308        0.0003023325424025071     2.119624309727377e-05     
0.18999679950813672       0.0002737035216689478     2.0244701381936215e-05    
0.19033638270654268       0.0002663001034231697     1.996369608053067e-05     
0.19067596590494865       0.0003246760146694221     2.187137918353303e-05     
0.19101554910335464       0.00029919284408864175    2.1265603921570976e-05    
0.19135513230176057       0.00030546516955179507    2.1260402473109452e-05    
0.19169471550016653       0.00029717619499432246    2.119406316304608e-05     
0.1920342986985725        0.00033258076155435676    2.21902093232648e-05      
0.1923738818969785        0.0003049514248522352     2.1346713772467372e-05    
0.19271346509538445       0.00031433700350109236    2.1773833609700514e-05    
0.19305304829379039       0.0003289870239622743     2.208230000085013e-05     
0.19339263149219638       0.00030127356367364196    2.1375644236605135e-05    
0.19373221469060234       0.00029639449669515143    2.096018680937406e-05     
0.1940717978890083        0.00030807969146027814    2.165792382117776e-05     
0.19441138108741424       0.000310838161228956      2.1617352559627827e-05    
0.19475096428582023       0.0002791322621182611     2.0357521037894252e-05    
0.1950905474842262        0.0003060700991579937     2.1545773977221402e-05    
0.19543013068263215       0.0002677830710397131     1.993960945586943e-05     
0.19576971388103812       0.00026979001012527855    2.026801517652174e-05     
0.19610929707944408       0.0003032151801801805     2.1287254671744977e-05    
0.19644888027785004       0.00031524389145701193    2.1758884774785186e-05    
0.196788463476256         0.0003465468895778465     2.2971383155175638e-05    
0.19712804667466197       0.0002715297270124936     2.0144697111818976e-05    
0.19746762987306793       0.000343032497976568      2.2886640335090687e-05    
0.1978072130714739        0.00031907108969067414    2.181366941716563e-05     
0.19814679626987985       0.0003057480929704206     2.155347687682972e-05     
0.19848637946828582       0.00030945240099653626    2.1671791746070676e-05    
0.19882596266669178       0.00030490377686755296    2.137076126228723e-05     
0.19916554586509774       0.00032581433693997544    2.2268415314404603e-05    
0.19950512906350373       0.00029209270455257376    2.094582164785588e-05     
0.1998447122619097        0.0002775823899448464     2.058297638592327e-05     
0.20018429546031563       0.00034689176828298513    2.2807794846656518e-05    
0.2005238786587216        0.00029085986758819576    2.098246016934295e-05     
0.20086346185712758       0.00026741742808414966    2.0064034587462756e-05    
0.20120304505553355       0.00032461913457111787    2.2124354032501873e-05    
0.20154262825393948       0.00027101948028214083    2.027692805457021e-05     
0.20188221145234544       0.0003065781145283648     2.14130298970063e-05      
0.20222179465075144       0.0003062175983766844     2.150033904622658e-05     
0.2025613778491574        0.00028745239769184034    2.082555364613111e-05     
0.20290096104756333       0.0002867254126825742     2.073676017497428e-05     
0.20324054424596932       0.000294009633712841      2.1010124514994934e-05    
0.2035801274443753        0.00030599782306379037    2.134117894397399e-05     
0.20391971064278125       0.0003478596733848382     2.296693057194185e-05     
0.2042592938411872        0.0003372835623634696     2.2479114958630596e-05    
0.20459887703959317       0.0003087700148401289     2.1502228565570247e-05    
0.20493846023799914       0.0002849361802060294     2.0684034682430515e-05    
0.2052780434364051        0.0003105424660871952     2.155237842543572e-05     
0.20561762663481106       0.0002868614792042569     2.077110065999471e-05     
0.20595720983321703       0.0002735815826497029     2.0284745196191247e-05    
0.206296793031623         0.00025871550052326353    2.0109655231914363e-05    
0.20663637623002895       0.0003082848699558793     2.207792388619377e-05     
0.20697595942843494       0.0003196933760940428     2.2633212661093052e-05    
0.20731554262684088       0.0002565275946269991     2.036375742661026e-05     
0.20765512582524684       0.00027803230210300244    2.127553135147698e-05     
0.2079947090236528        0.0003074467823251461     2.2554023656259454e-05    
0.2083342922220588        0.0002822857465692617     2.1683531302369954e-05    
0.20867387542046473       0.00029029607067220875    2.1916196451258298e-05    
0.2090134586188707        0.0002970835055041188     2.231946455931356e-05     
0.20935304181727665       0.0003044703890535696     2.2629954119835205e-05    
0.20969262501568264       0.0002957336963406661     2.2413125212474338e-05    
0.21003220821408858       0.00034260730712482463    2.393257069211881e-05     
0.21037179141249454       0.00026596469961693995    2.120303146283215e-05     
0.21071137461090053       0.0003180754442992026     2.3216086866367126e-05    
0.2110509578093065        0.0002973431158575035     2.2551448074719345e-05    
0.21139054100771246       0.00028166400718587764    2.1887718315099224e-05    
0.2117301242061184        0.0003273045830986371     2.3712410757436043e-05    
0.21206970740452438       0.0003150276282426223     2.3373483723324655e-05    
0.21240929060293035       0.00027754655044974296    2.1890837096951915e-05    
0.2127488738013363        0.0003026115534994634     2.2908547111682356e-05    
0.21308845699974224       0.00030677447994835114    2.3080308552790596e-05    
0.21342804019814823       0.00032865106961756736    2.398036491696559e-05     
0.2137676233965542        0.00031396501508976877    2.3681182572682205e-05    
0.21410720659496016       0.00030382770066800046    2.3064602967572768e-05    
0.21444678979336612       0.0002689778584077423     2.193356834110456e-05     
0.21478637299177208       0.0003171895510090907     2.3596727318711218e-05    
0.21512595619017802       0.00032289420719577004    2.418983500358677e-05     
0.215465539388584         0.00027439075655423425    2.2160818262367946e-05    
0.21580512258698994       0.0002804503934773013     2.2426255853968798e-05    
0.2161447057853959        0.0002802787931572975     2.2642332211476835e-05    
0.2164842889838019        0.0002782060340317551     2.2417261072531397e-05    
0.21682387218220783       0.0003280609729632507     2.45131109802078e-05      
0.21716345538061382       0.0002996513119989972     2.335012945427504e-05     
0.2175030385790198        0.0002854347323029818     2.2873107644649074e-05    
0.21784262177742572       0.0002976793726469373     2.3563970625267638e-05    
0.2181822049758317        0.00030966808670788277    2.376128826957808e-05     
0.21852178817423765       0.00033350283026516755    2.497584392158813e-05     
0.2188613713726436        0.00030630242935622375    2.3790521601411742e-05    
0.2192009545710496        0.00028653033618154973    2.322180771625844e-05     
0.21954053776945553       0.0002982263548480493     2.3650714579883362e-05    
0.21988012096786153       0.00030503975004188033    2.3886929161065208e-05    
0.2202197041662675        0.00026073184168403133    2.221312555339631e-05     
0.22055928736467342       0.00031587598367956344    2.444130419960005e-05     
0.2208988705630794        0.00029035812911126373    2.38643557379293e-05      
0.2212384537614854        0.00025092824091270936    2.230477827771634e-05     
0.22157803695989134       0.0002948179737249799     2.475534429340498e-05     
0.2219176201582973        0.00029145721985088187    2.4802336125733554e-05    
0.22225720335670324       0.0003246030867059463     2.6398847631357783e-05    
0.22259678655510923       0.00032791942493165397    2.682859933526845e-05     
0.22293636975351522       0.00025959577824082877    2.3851715557906123e-05    
0.22327595295192113       0.00031289611260170195    2.6691255468151227e-05    
0.22361553615032712       0.0002754645665438598     2.5054442592928315e-05    
0.2239551193487331        0.0003061653187693753     2.6557445403589096e-05    
0.22429470254713904       0.00029401187839259526    2.6404152362120696e-05    
0.224634285745545         0.0002756427590912415     2.5544163257376156e-05    
0.224973868943951         0.0002497023537682397     2.4798002377800046e-05    
0.22531345214235693       0.00028441473221897315    2.6128457996477814e-05    
0.22565303534076292       0.0002888606539076135     2.6672001925650396e-05    
0.22599261853916885       0.0002744591976979581     2.6282950138209453e-05    
0.22633220173757482       0.00033068388210066597    2.9009762512606664e-05    
0.2266717849359808        0.000297514044501957      2.7761862038742994e-05    
0.22701136813438674       0.0002645134968907187     2.607898246411111e-05     
0.22735095133279273       0.00024409443978593029    2.541146965638089e-05     
0.2276905345311987        0.0003003627180863819     2.8229604156769047e-05    
0.22803011772960463       0.0003072674653897349     2.886050966446826e-05     
0.22836970092801062       0.00029571383717586283    2.836892411781029e-05     
0.22870928412641658       0.0003244237665436676     2.9892472625010866e-05    
0.22904886732482252       0.00031352151182670795    2.9700257698800193e-05    
0.2293884505232285        0.0003144374359989649     2.9683117405478955e-05    
0.22972803372163444       0.00027992803581681493    2.8253004930333538e-05    
0.23006761692004044       0.0002991213045861506     2.9297055312103694e-05    
0.2304072001184464        0.00032494437909024316    3.092553332732735e-05     
0.23074678331685233       0.0003116485201488456     3.0599276649407324e-05    
0.23108636651525832       0.00032603506475239086    3.106107973924318e-05     
0.23142594971366431       0.0002456367205644318     2.724089068072596e-05     
0.23176553291207025       0.00031093306213363157    3.0733189159964384e-05    
0.2321051161104762        0.0003108089123642135     3.13934266196049e-05      
0.2324446993088822        0.0003760543808382905     3.4354045307232944e-05    
0.23278428250728814       0.0002768943001796046     2.9361916173619834e-05    
0.2331238657056941        0.00034725419549247086    3.361292099899296e-05     
0.23346344890410003       0.00031496308778465403    3.189914281831303e-05     
0.23380303210250603       0.00023456951793645177    2.7808005888000345e-05    
0.23414261530091202       0.0002784843913244882     3.037257383847162e-05     
0.23448219849931795       0.00030515090199890343    3.202609727901238e-05     
0.2348217816977239        0.0003088712221997609     3.2704305460136864e-05    
0.2351613648961299        0.00035997777560451083    3.49778549504639e-05      
0.23550094809453584       0.00027021762725153777    3.066733575026893e-05     
0.23584053129294183       0.00032524368526576684    3.3947631328546975e-05    
0.2361801144913478        0.00022242260804901514    2.829318334266733e-05     
0.23651969768975373       0.00034086668785650466    3.50947486768048e-05      
0.23685928088815972       0.00031346635756954904    3.3810775843584734e-05    
0.23719886408656565       0.0002869684733194404     3.2567104244617924e-05    
0.23753844728497162       0.00030141255819255113    3.362640018036506e-05     
0.2378780304833776        0.0003216229199182047     3.5121153059595974e-05    
0.23821761368178354       0.0003507203656472263     3.6498015163962366e-05    
0.23855719688018953       0.00033211842623670447    3.606941909512522e-05     
0.2388967800785955        0.00028278819892880747    3.3693779676398474e-05    
0.23923636327700143       0.0002946549481388978     3.404754807647374e-05     
0.23957594647540742       0.00029182354669058026    3.442996677006349e-05     
0.2399155296738134        0.0003655313569118347     3.842047717345065e-05     
0.24025511287221935       0.000300513886235398      3.560292351825147e-05     
0.2405946960706253        0.0002420451335467414     3.19035994717977e-05      
0.24093427926903124       0.0003264397794985781     3.722182178568697e-05     
0.24127386246743723       0.00027876482874782967    3.474713000882878e-05     
0.2416134456658432        0.00029986256057342733    3.595347185618579e-05     
0.24195302886424913       0.0003276149623565682     3.8623947259415194e-05    
0.24229261206265512       0.0002496127439706843     3.3196006270155624e-05    
0.2426321952610611        0.0002449770353517315     3.326241612838681e-05     
0.24297177845946705       0.0003302215667183514     3.940286237638146e-05     
0.243311361657873         0.0003189956926064004     3.846549037065686e-05     
0.243650944856279         0.0003548038948634103     4.1341439529248354e-05    
0.24399052805468494       0.0002624569127088594     3.5219260615663886e-05    
0.24433011125309093       0.0002786892023706052     3.6932432534072244e-05    
0.24466969445149686       0.0002621271723943376     3.640623870889311e-05     
0.24500927764990282       0.00030923301947909847    3.914884236451329e-05     
0.24534886084830881       0.00033060221378641434    4.1267487227871814e-05    
0.24568844404671475       0.00028541687166900535    3.82012639793739e-05      
0.2460280272451207        0.0003186307188129877     4.125461454226295e-05     
0.2463676104435267        0.0003030078324802664     3.9845832137106795e-05    
0.24670719364193264       0.0002592307560598645     3.765287897090303e-05     
0.24704677684033863       0.00024325814704672218    3.665736391524693e-05     
0.2473863600387446        0.00020256868229694965    3.34852431904782e-05      
0.24772594323715053       0.0002701303234284145     3.967934143115231e-05     
0.24806552643555652       0.00029086406582991655    4.053523004403959e-05     
0.24840510963396245       0.0003517136858417443     4.537338053914019e-05     
0.24874469283236844       0.0002906233383778137     4.142199989495237e-05     
0.2490842760307744        0.0003811313425492243     4.800580122945681e-05     
0.24942385922918034       0.0002689855927848277     4.1011301287045935e-05    
0.24976344242758633       0.000355584371789577      4.606696246158085e-05     
0.2501030256259923        0.0002824736971814766     4.241497347302703e-05     
0.2504426088243982        0.0002993475305968398     4.2973015045357236e-05    
0.2507821920228042        0.00020910001801172998    3.6749463689251285e-05    
0.2511217752212102        0.000245787567183522      3.99845194690323e-05      
0.25146135841961614       0.0002477120448166991     3.9905903248418794e-05    
0.25180094161802213       0.0003462939054859183     4.886802474242132e-05     
0.25214052481642807       0.00030564790988587317    4.458950880444722e-05     
0.25248010801483406       0.0003040719502266156     4.5908010575844096e-05    
0.25281969121324          0.0002706938664499295     4.272755703376212e-05     
0.25315927441164593       0.0002915099659377336     4.541028393080077e-05     
0.2534988576100519        0.000311168093940828      4.691680437099573e-05     
0.2538384408084579        0.00028504424632351874    4.4846951329456736e-05    
0.25417802400686385       0.00023962931553040898    4.244650084720587e-05     
0.25451760720526984       0.0002584838048169704     4.298353768973379e-05     
0.2548571904036758        0.00027073233502024395    4.5555633987517114e-05    
0.25519677360208176       0.0002842721130485233     4.5920101604171976e-05    
0.2555363568004877        0.00027173826780318874    4.5832809654455464e-05    
0.25587593999889363       0.0003666498938792156     5.4081122289184976e-05    
0.2562155231972996        0.00032288202332761407    4.9682513934337656e-05    
0.2565551063957056        0.0003053475167034069     5.008539659996643e-05     
0.25689468959411155       0.000325837950260873      5.076343186869314e-05     
0.25723427279251754       0.00025792422052334967    4.666383797870419e-05     
0.25757385599092353       0.00024670943923858226    4.5292418536357325e-05    
0.25791343918932946       0.0002899158642297158     4.97032494082336e-05      
0.2582530223877354        0.0002994289343654342     5.156078254948807e-05     
0.2585926055861414        0.00034674871110902347    5.3860009203708436e-05    
0.2589321887845473        0.00027126822527043617    5.005549386278197e-05     
0.2592717719829533        0.0002810067740060639     4.9710726243073176e-05    
0.25961135518135925       0.0001902527089782453     4.206171045033154e-05     
0.25995093837976524       0.00024373752344568228    4.80159490206446e-05      
0.26029052157817123       0.00023041072420188998    4.621121700650062e-05     
0.26063010477657717       0.00031664889540512396    5.681785594233361e-05     
0.26096968797498316       0.0002001882735722518     4.336773223569782e-05     
0.2613092711733891        0.000293888726549878      5.473867939353235e-05     
0.261648854371795         0.00024099697898547512    4.947768483633534e-05     
0.261988437570201         0.000207873625827773      4.638211691930123e-05     
0.262328020768607         0.0003175698866777721     5.9135027006799665e-05    
0.26266760396701294       0.00025437818917825806    5.1117684777502665e-05    
0.26300718716541893       0.00018933549896227336    4.5752893648339355e-05    
0.26334677036382487       0.000247456940678792      5.1789141024203744e-05    
0.26368635356223086       0.00022675603349828747    5.089558758203468e-05     
0.2640259367606368        0.00029782806434781216    5.738467225877166e-05     
0.2643655199590427        0.00031422545163269804    5.991401740912712e-05     
0.2647051031574487        0.00023054799751741708    5.230659581287994e-05     
0.2650446863558547        0.00016591167036009605    4.2831385592524446e-05    
0.26538426955426064       0.00020149235864397747    4.943599192393884e-05     
0.26572385275266663       0.00040610797151947084    6.811499027935735e-05     
0.2660634359510726        0.0003435122125052248     6.498020603678353e-05     
0.26640301914947856       0.0002617357035223693     5.646961137485695e-05     
0.2667426023478845        0.0003419970955891289     6.398650288221053e-05     
0.26708218554629043       0.0002481995632116019     5.611969421514465e-05     
0.2674217687446964        0.0002522949232132655     5.507883767223706e-05     
0.2677613519431024        0.0003166211267167032     6.42806915592404e-05      
0.26810093514150835       0.0002725840827028876     5.8410956299816046e-05    
0.26844051833991434       0.00027336862754493254    5.9729940606633194e-05    
0.2687801015383203        0.0002841004932741015     6.238791298231931e-05     
0.26911968473672626       0.0002832107790543414     5.940525164469679e-05     
0.26945926793513225       0.00026120081347512077    5.9821732802589485e-05    
0.2697988511335382        0.0003383765467898654     6.661374633504564e-05     
0.2701384343319441        0.00030885086517656163    6.554186623032322e-05     
0.2704780175303501        0.000262148193043771      6.0232030283904984e-05    
0.27081760072875605       0.0002681605175816004     6.0919324820483815e-05    
0.27115718392716204       0.00021139686261047993    5.6558949402927744e-05    
0.27149676712556803       0.00025513863505708946    5.854671934622333e-05     
0.27183635032397396       0.00032762647842239217    7.002863514744851e-05     
0.27217593352237995       0.0002939423071969171     6.510481083461662e-05     
0.2725155167207859        0.00030306519960384743    6.772276291374798e-05     
0.2728550999191918        0.00030936314550372804    6.918791184070853e-05     
0.2731946831175978        0.0002945980433392389     6.587243101475786e-05     
0.2735342663160038        0.0002662532173768399     6.587449389091458e-05     
0.27387384951440974       0.0003298097003003216     6.988631291908266e-05     
0.27421343271281573       0.00033966302380633974    7.484908070607461e-05     
0.27455301591122167       0.0002960454876906876     6.806865145804392e-05     
0.27489259910962766       0.000272489522042274      6.704163303843387e-05     
0.27523218230803365       0.00032425915470763513    7.591223146617895e-05     
0.2755717655064395        0.000176258316768443      5.237491505411071e-05     
0.2759113487048455        0.0003600520333266421     8.025297984848015e-05     
0.2762509319032515        0.0002952419805067875     6.978682121655975e-05     
0.27659051510165744       0.00023644891759492113    6.482598546775315e-05     
0.27693009830006343       0.00027802938552258814    7.007015743981917e-05     
0.2772696814984694        0.00021111795491701908    6.12562574649778e-05      
0.27760926469687536       0.00020135464977719472    6.363233727332635e-05     
0.27794884789528135       0.00021376220016369206    6.010805781186674e-05     
0.2782884310936873        0.00033485282216260515    8.146750672682273e-05     
0.2786280142920932        0.00044324658830349235    9.053117071874248e-05     
0.2789675974904992        0.00026589823186707375    7.259765700532574e-05     
0.27930718068890514       0.0002984124173869075     7.746832497001097e-05     
0.27964676388731113       0.0004059695738744525     8.906701216558377e-05     
0.2799863470857171        0.00019092826923699998    6.43600933901437e-05      
0.28032593028412306       0.00023855726855542776    6.77977837950074e-05      
0.28066551348252905       0.00021649539854445607    6.935926117727941e-05     
0.281005096680935         0.0002474839194183029     7.160484554698448e-05     
0.2813446798793409        0.00017143682043041858    6.147457556901813e-05     
0.2816842630777469        0.0003768977144546599     9.716670675544003e-05     
0.28202384627615285       0.0003909284271580712     8.867356819720152e-05     
0.28236342947455884       0.0003444601646530663     9.331810976292281e-05     
0.2827030126729648        0.0002791227108774614     7.751863130940212e-05     
0.28304259587137076       0.0004212367421218936     0.00010272687841070369    
0.28338217906977675       0.0002781396126651813     8.128746274694129e-05     
0.28372176226818274       0.0003528120319506065     9.275928730697747e-05     
0.2840613454665887        0.0005501275484121529     0.0001269978450075189     
0.2844009286649946        0.0004326008568408678     9.967480656036554e-05     
0.2847405118634006        0.0003267841589219555     9.685702271688233e-05     
0.28508009506180654       7.291872838854537e-05     4.274282990123852e-05     
0.28541967826021253       0.0002019956757119246     7.655139602258864e-05     
0.28575926145861846       0.00033036954249823357    9.54218298229615e-05      
0.28609884465702445       0.00044965675711907       0.00011362043795175056    
0.28643842785543044       0.000396648396753288      0.0001134092921678574     
0.2867780110538364        0.0002449734200981312     8.17631999834807e-05      
0.2871175942522423        0.00035679534936859203    0.00010885128004525118    
0.2874571774506483        0.0004368399487953492     0.00011378540750060189    
0.28779676064905424       0.0003004176688699184     0.00010110926057784551    
0.28813634384746023       0.00016292469927246334    7.446041837077838e-05     
0.2884759270458662        0.0003965344074014203     0.00011407201596763471    
0.28881551024427216       0.000117246077218835      6.746866545557053e-05     
0.28915509344267815       0.0003544941765001916     0.00010722131303274932    
0.2894946766410841        0.00027547244417312983    0.00010415498440513205    
0.28983425983949          0.00023552843961588383    9.304326274008535e-05     
0.290173843037896         0.00039156230205430407    0.00012507590491811507    
0.29051342623630194       0.00023026275715985672    0.00010285790431779416    
0.29085300943470793       0.0003347806451001644     0.00011167851800623992    
0.2911925926331139        0.0002739016068412148     0.00011313073626951279    
0.29153217583151986       0.000321214692634267      0.00011672241070128015    
0.29187175902992585       0.00038387158707325886    0.00013626134586510662    
0.29221134222833184       0.00031880339855990794    0.00012417810826191887    
0.2925509254267378        0.00023431092859903393    0.00010645933676396512    
0.2928905086251437        0.0004167956400720853     0.0001516021572207382     
0.29323009182354964       5.117070877916829e-05     5.1114790154631e-05       
0.29356967502195563       0.0004784635039509602     0.0001675375453749411     
0.2939092582203616        0.00012097772969950678    8.515582476075715e-05     
0.29424884141876756       0.0002195913567088429     0.00011472898541324166    
0.29458842461717355       0.00020494561830162897    0.00011886053696756969    
0.29492800781557954       0.0003186009928191546     0.0001429360036931104     
0.2952675910139855        0.0001420012694665916     0.00010151042401251913    
0.2956071742123914        0.00022102294985674558    0.00013011510429146946    
0.2959467574107974        0.0002983318725662044     0.00015116903778337516    
0.29628634060920334       0.0005040487532569623     0.0002189300789418325     
0.2966259238076093        0.00016706317189135847    0.00011815593166141885    
0.29696550700601526       0.000203455140765323      0.00014690066452549409    
0.29730509020442125       0.00018597357825326372    0.00013782367553073847    
0.29764467340282724       0.0003075474974430162     0.00018798991177450708    
0.2979842566012332        0.0002365663142628521     0.00017626043446655098    
0.29832383979963917       0.00032539718122653796    0.00021182823726157704    
0.2986634229980451        0.0005728705643460344     0.0002962701910692511     
0.29900300619645104       0.0                       0.0001613713064628246     
0.29934258939485703       0.0                       0.0001412025562591159     
0.299682172593263         0.0                       0.00022592825326331914    
0.30002175579166895       0.000840168610589409      0.00048138780707474737    
0.30036133899007494       0.0002313402214287035     0.00028242059707508975    
0.3007009221884809        0.0005306866866861416     0.0006049349091552967     
0.30104050538688687       0.0006823973093900143     0.0006135601508543571     
0.3013800885852928        0.0                       0.002259491995693222      
