################################################################################
# Data 1                                  10_10_2023_0_vd_00001-00002_azimAvg_20degree_horizontal.dat
# Data 2                                  2023_10_26_0_vd_00006-00007_azimAvg_20degree_horizontal.dat
# Transmission                            0.843931845646427
# Weight                                  1.1256725790957705
# Smart_subtraction                       True
# Enhanced_transmission_correction        True
# EDF_DataBlockID                         0.Image.Psd
# EDF_BinarySize                          4637784
# EDF_HeaderSize                          3072
# ByteOrder                               LowByteFirst
# DataType                                FloatValue
# Dim_1                                   1038
# Dim_2                                   1117
# Image                                   0
# HeaderID                                EH:000000:000000:000000
# Size                                    4637784
# BIO_SYSTEM_CONF_TXT                     WAXSRES
# Center_1                                606.981
# Center_2                                651.016
# Comment                                 NC_major - NC_major_WAXS_HI_600s
# DDummy                                  0.6
# Date                                    2023-10-10T17:22:14
# Delta                                   0
# Dummy                                   -1.5
# ExposureTime                            600
# Force                                   9.91088
# Gamma                                   0
# Intensity1                              1.10366e-07
# JawsDistance                            4.54563
# JawsVelocity                            0.358589
# PSize_1                                 7.5e-05
# PSize_2                                 7.5e-05
# Pressure                                0.133387
# SampleDistance                          0.0500003
# SampleEnvKind                           saxs
# SampleEnvPN                             Solids
# SampleEnvSN                             1012
# Strain                                  0
# Stress                                  0
# Thickness                               0
# Wavelength                              1.541891e-10
# Wavelength                              1.54189e-10
# anaB                                    0
# anaB_dial                               -0.0012015
# anaPark                                 -175.125
# anaPark_dial                            175.169
# anaXi                                   0
# anaXi_dial                              0
# anaZ                                    -9.13123e-08
# anaZ_dial                               6.2299
# aux                                     0
# aux_dial                                -0.000125
# b2c                                     0
# b2c_dial                                0
# beamx                                   603.62
# beamx_dial                              603.62
# beamz                                   653.016
# beamz_dial                              653.016
# bioZ                                    -2.90461e-08
# bioZ_dial                               -0.546695
# det0x                                   0
# det0x_dial                              6.05631
# det0xvd                                 0
# det0xvd_dial                            0
# det0y                                   50.0003
# det0y_dial                              893.512
# det0z                                   0
# det0z_dial                              6.3358
# det0zvd                                 0
# det0zvd_dial                            0
# distana                                 93.4
# distana_dial                            93.4
# mag                                     1.091
# mag_dial                                1.091
# mono1B                                  1.00136e-08
# mono1B_dial                             -0.277
# mono2B                                  1.75476e-07
# mono2B_dial                             -4.366
# mono2X                                  -1
# mono2X_dial                             3.96031
# mono2Xi                                 0
# mono2Xi_dial                            0
# monoZ                                   -11
# monoZ_dial                              -10.6609
# om                                      1.30741e-08
# om_dial                                 -0.939898
# phi                                     -4.9295e-08
# phi_dial                                -7.01716
# qana                                    0
# qana_dial                               0
# ry                                      0
# ry_dial                                 0.00149998
# s1bot                                   1.45
# s1bot_dial                              -2.02906
# s1hl                                    0.55
# s1hl_dial                               -0.47125
# s1hr                                    1.95
# s1hr_dial                               2.31625
# s1top                                   1.05
# s1top_dial                              1.23391
# s2bot                                   1.2
# s2bot_dial                              -2.09531
# s2hl                                    0.6
# s2hl_dial                               -1.365
# s2hr                                    0.8
# s2hr_dial                               -0.0153125
# s2top                                   0.2
# s2top_dial                              -1.18281
# ttdeg                                   0
# ttdeg_dial                              0
# wind                                    72.0045
# wind_dial                               72.0233
# x                                       31.5
# x_dial                                  32.2097
# z                                       -55
# z_dial                                  -35.8909
# CountCutoff                             15302352
# DetectorModel                           Dectris EIGER2 Si 1M, S/N E-02-0357
# ThresholdSetting                        4023.88989258
# Saturation                              0
# FlatField                               Corrected
# BackgroundReductionExtra                0.02
# Detector                                0
# Monitor                                 0
# Pil_Roi0                                6.62202e+10
# SumForIntensity1                        6.62198e+10
# det                                     0
# mon                                     0
# pilai0                                  6.62198e+10
# pilai1                                  0
# pilct0                                  6.62203e+10
# pilct1                                  0
# pilroi0                                 6.62202e+10
# pilroi1                                 0
# sec                                     0.099
# title                                   10_10_2023_0_00001.edf
# usaxs0                                  0
# Operation                               Azimuthal average I(q)
# Error_model                             ErrorModel.poisson
# Geometrical_correction                  True
# Transmission_correction                 True
# Psi                                     0.0
# Omega                                   0.0
# TransmittedFlux_init_value              1.10366e+08
# TransmittedFlux                         110361276.05366267
# MaskInvalidPixels                       True
# DetectorEdge                            3
# PsiMin                                  -10.0
# PsiMax                                  10.0
# Origin                                  subtracted
# Thickness_correction                    False
################################################################################
 q(A-1)                   I_subtracted(a.u.)         Sigma_I(a.u.)            
       0.021394               -4.68355615               0.071919701           
       0.027506               -205.922226              0.0695328341           
       0.033618                -116.00762              0.0637481024           
       0.039731               -67.2394984              0.0570651112           
       0.045843               -28.7088864              0.0497343584           
       0.051956                43.6492679              0.0334762597           
       0.058068                  97.14495              0.0230377965           
       0.064181                100.850774              0.0166605721           
       0.070293                55.8147765               0.011796026           
       0.076406               -6.35149281             0.00624146504           
       0.082518               -9.47669864             0.00311237455           
       0.088630               -2.29377627             0.00110932424           
       0.094743              -0.129031681            0.000264542147           
       0.100855            -0.00799115847             6.9705159e-05           
       0.106968           -0.000539059264            2.35833259e-05           
       0.113080            1.57220892e-05            1.28467854e-05           
       0.119193            4.38752923e-05            1.01541063e-05           
       0.125305            3.94783844e-05            7.80090247e-06           
       0.131418            4.35192493e-05            7.07742468e-06           
       0.137530            3.41884973e-05            6.68167321e-06           
       0.143642            3.19843019e-05            6.17722616e-06           
       0.149755             3.6206767e-05            6.18557068e-06           
       0.155867              3.626171e-05            5.22049896e-06           
       0.161980            1.86021794e-05            4.49490999e-06           
       0.168092            2.50037473e-05             4.4627639e-06           
       0.174205            2.40227734e-05            4.29926873e-06           
       0.180317            3.11498724e-05            4.21272725e-06           
       0.186429            2.78781715e-05            3.85391045e-06           
       0.192542            2.34540366e-05            3.67922956e-06           
       0.198654            1.95374028e-05            3.40559383e-06           
       0.204767            2.47444361e-05            3.42533296e-06           
       0.210879            2.11670992e-05            3.52783389e-06           
       0.216992            2.68015091e-05            3.34725505e-06           
       0.223104            2.23957044e-05            3.17896829e-06           
       0.229217            2.51231791e-05            3.01731923e-06           
       0.235329            2.76682158e-05            2.97503614e-06           
       0.241441            2.58270451e-05            2.73243305e-06           
       0.247554            2.21850311e-05            2.77446388e-06           
       0.253666            2.78585405e-05            2.74427442e-06           
       0.259779            2.60789616e-05            2.92541887e-06           
       0.265891            2.16647075e-05            2.63375335e-06           
       0.272004            2.02184647e-05            2.52113556e-06           
       0.278116            2.37823456e-05            2.49045801e-06           
       0.284229            1.94244027e-05             2.2366915e-06           
       0.290341            2.31782637e-05            2.46131225e-06           
       0.296453            2.12852063e-05            2.28126965e-06           
       0.302566            1.73026424e-05            2.08603009e-06           
       0.308678            2.06910621e-05            2.20995659e-06           
       0.314791             2.0189538e-05             2.1756422e-06           
       0.320903            1.60185398e-05            2.02885924e-06           
       0.327016            2.24612973e-05            2.24859848e-06           
       0.333128            2.29901369e-05            2.27866453e-06           
       0.339241            2.00342634e-05            2.07362549e-06           
       0.345353            2.18337186e-05            2.07642699e-06           
       0.351465            2.45496519e-05            2.11205618e-06           
       0.357578            2.15774912e-05            2.06127821e-06           
       0.363690            2.27515484e-05             2.0983186e-06           
       0.369803            2.61536313e-05            2.09659515e-06           
       0.375915            2.03128813e-05            1.92261959e-06           
       0.382028            2.17241755e-05            1.92482387e-06           
       0.388140            2.33447475e-05            1.97876323e-06           
       0.394253            1.78793602e-05            1.79741481e-06           
       0.400365            2.41773602e-05            2.12712394e-06           
       0.406477             2.3829374e-05            1.93034951e-06           
       0.412590            2.42111539e-05            1.92906237e-06           
       0.418702            2.18479072e-05            1.94864949e-06           
       0.424815            2.16596685e-05            1.83342854e-06           
       0.430927            2.39490591e-05            1.90166809e-06           
       0.437040            2.26008631e-05            1.87874937e-06           
       0.443152            2.37315342e-05            1.81085565e-06           
       0.449264              2.600406e-05            1.93480287e-06           
       0.455377            2.23423486e-05            1.76074499e-06           
       0.461489            2.51806489e-05            1.90144503e-06           
       0.467602            2.34506985e-05            1.86385971e-06           
       0.473714            2.40655586e-05             1.8175713e-06           
       0.479827            2.64961475e-05            1.90128259e-06           
       0.485939            2.76064568e-05            1.94330076e-06           
       0.492052            2.49919579e-05            1.80370458e-06           
       0.498164            2.64304225e-05            1.86890858e-06           
       0.504276            2.55769797e-05            1.80727991e-06           
       0.510389            2.60565304e-05            1.76003714e-06           
       0.516501            2.72740509e-05            1.77086735e-06           
       0.522614            2.50046206e-05            1.72916764e-06           
       0.528726            2.73331752e-05            1.76691676e-06           
       0.534839            3.03899465e-05            1.92065287e-06           
       0.540951            2.76619535e-05            1.79918023e-06           
       0.547064            3.41473145e-05            1.96537246e-06           
       0.553176            3.19871671e-05            1.87779306e-06           
       0.559288            3.05646125e-05            1.81752268e-06           
       0.565401            3.07002799e-05            1.82123297e-06           
       0.571513            2.84712638e-05            1.78218981e-06           
       0.577626            3.45908427e-05            1.95914612e-06           
       0.583738            3.28974252e-05            1.86305233e-06           
       0.589851            3.09355376e-05            1.79095131e-06           
       0.595963            3.14050345e-05            1.87060124e-06           
       0.602076            3.62268224e-05            1.92820617e-06           
       0.608188            3.60569532e-05            1.92418724e-06           
       0.614300             3.4802418e-05            1.82831552e-06           
       0.620413             3.6009604e-05            1.91435903e-06           
       0.626525            3.56637529e-05            1.88653952e-06           
       0.632638            3.35437482e-05            1.82851616e-06           
       0.638750             3.8045251e-05            1.93056945e-06           
       0.644863            3.74645965e-05            1.92227591e-06           
       0.650975            3.71690095e-05            1.86038375e-06           
       0.657088            3.92906977e-05            1.93832723e-06           
       0.663200            3.79720418e-05            1.84292577e-06           
       0.669312            4.10633473e-05            1.95787158e-06           
       0.675425            3.67353116e-05            1.88148559e-06           
       0.681537            3.84239521e-05            1.86355795e-06           
       0.687650            3.60509436e-05            1.79679432e-06           
       0.693762            4.09163506e-05            1.92208806e-06           
       0.699875            3.97717871e-05            1.88310386e-06           
       0.705987            4.04887182e-05            1.89687184e-06           
       0.712100            4.23077445e-05            1.90755277e-06           
       0.718212            4.00772228e-05            1.82777717e-06           
       0.724324            4.17491895e-05            1.91660782e-06           
       0.730437            4.07705103e-05            1.88294532e-06           
       0.736549            4.40693674e-05             1.8724994e-06           
       0.742662            3.95649988e-05            1.79658116e-06           
       0.748774            4.34913483e-05            1.84150435e-06           
       0.754887            4.11903545e-05            1.80204426e-06           
       0.760999             4.2656416e-05            1.84156517e-06           
       0.767111            4.17410052e-05            1.81028432e-06           
       0.773224            4.37897346e-05            1.87514172e-06           
       0.779336            4.59047898e-05            1.91496565e-06           
       0.785449            4.55739758e-05            1.84619277e-06           
       0.791561            4.21371533e-05            1.83155071e-06           
       0.797674            4.63549108e-05            1.89146573e-06           
       0.803786            4.39987125e-05            1.83065095e-06           
       0.809899            4.59277217e-05            1.91859118e-06           
       0.816011            4.60384035e-05            1.83924814e-06           
       0.822123            4.84984307e-05             1.9043463e-06           
       0.828236             4.4930816e-05             1.8408779e-06           
       0.834348            4.82250235e-05            1.88551956e-06           
       0.840461            4.82168538e-05            1.91078506e-06           
       0.846573            4.68416265e-05             1.8708453e-06           
       0.852686             4.8639237e-05            1.85668496e-06           
       0.858798             4.9533619e-05            1.89884725e-06           
       0.864911            4.93910795e-05             1.8588525e-06           
       0.871023            5.37121504e-05            1.92658766e-06           
       0.877135            4.78035315e-05             1.7653993e-06           
       0.883248            4.92373439e-05            1.82621827e-06           
       0.889360            4.98331783e-05            1.82272497e-06           
       0.895473            5.24252792e-05            1.88513269e-06           
       0.901585            5.35469797e-05            1.89033724e-06           
       0.907698            5.56022327e-05            1.96133048e-06           
       0.913810            5.29679312e-05            1.85389428e-06           
       0.919923              5.472276e-05            1.93561385e-06           
       0.926035            5.98530671e-05            1.96989179e-06           
       0.932147            6.06733792e-05            2.02190992e-06           
       0.938260            5.97918284e-05            1.96948611e-06           
       0.944372            5.77799284e-05            1.97952506e-06           
       0.950485            6.00466644e-05            1.94571037e-06           
       0.956597            5.96756322e-05            1.98528665e-06           
       0.962710            6.14913696e-05            1.97864393e-06           
       0.968822            6.31927294e-05            2.01151477e-06           
       0.974935            6.61633101e-05            1.93990124e-06           
       0.981047            6.73636085e-05            2.02637187e-06           
       0.987159            6.84504904e-05            1.99128299e-06           
       0.993272              6.915895e-05            2.03542283e-06           
       0.999384            7.25910595e-05            2.09744434e-06           
       1.005497            7.59090806e-05            2.14605713e-06           
       1.011609            6.91433465e-05            2.07184212e-06           
       1.017722            7.48732711e-05            2.08415273e-06           
       1.023834            7.89015534e-05            2.16466102e-06           
       1.029947            7.90391062e-05            2.17969212e-06           
       1.036059            8.24391068e-05            2.20504197e-06           
       1.042171            8.54084758e-05             2.2769404e-06           
       1.048284            8.78122013e-05              2.266868e-06           
       1.054396            8.76632671e-05            2.19778313e-06           
       1.060509             9.3263788e-05            2.21282364e-06           
       1.066621            9.39120971e-05            2.25779448e-06           
       1.072734            9.75731025e-05            2.35303926e-06           
       1.078846            0.000102366985            2.39444154e-06           
       1.084958            9.88750348e-05            2.29721628e-06           
       1.091071            0.000110318229            2.50656937e-06           
       1.097183            0.000108247738             2.4297419e-06           
       1.103296             0.00010875916            2.45488409e-06           
       1.109408            0.000112959853            2.50305907e-06           
       1.115521            0.000111413693             2.4464933e-06           
       1.121633            0.000119511685            2.57323171e-06           
       1.127746            0.000123422181            2.45749533e-06           
       1.133858            0.000121038787            2.46862803e-06           
       1.139970            0.000126161432            2.57731939e-06           
       1.146083            0.000126849443            2.53843182e-06           
       1.152195             0.00013121018             2.6108588e-06           
       1.158308            0.000129775381             2.6103116e-06           
       1.164420            0.000129729952            2.62030559e-06           
       1.170533            0.000130163917            2.58270214e-06           
       1.176645            0.000134516362            2.67439745e-06           
       1.182758            0.000131490943             2.6086561e-06           
       1.188870            0.000130078894            2.51011014e-06           
       1.194982            0.000137270287            2.51915844e-06           
       1.201095            0.000137743322            2.61888984e-06           
       1.207207            0.000134773735            2.55606608e-06           
       1.213320            0.000140139171            2.61080709e-06           
       1.219432            0.000138280543             2.6451463e-06           
       1.225545            0.000139302756            2.64641829e-06           
       1.231657            0.000134287633            2.58404605e-06           
       1.237770              0.0001371562            2.62110401e-06           
       1.243882            0.000138619822            2.56708119e-06           
       1.249994            0.000143181297            2.49016247e-06           
       1.256107            0.000147552715            2.60492286e-06           
       1.262219            0.000141708182             2.5914906e-06           
       1.268332             0.00013577338              2.590007e-06           
       1.274444            0.000137004447            2.55036251e-06           
       1.280557            0.000141968473            2.61471835e-06           
       1.286669            0.000143500527            2.62126255e-06           
       1.292782             0.00014724909            2.65359627e-06           
       1.298894            0.000141966343            2.45462774e-06           
       1.305006            0.000148324332            2.54332811e-06           
       1.311119            0.000144355052            2.54844006e-06           
       1.317231            0.000148549208            2.58657903e-06           
       1.323344            0.000146569258            2.60530446e-06           
       1.329456            0.000149297776            2.64526571e-06           
       1.335569            0.000152083346            2.65218578e-06           
       1.341681            0.000153118567             2.6619012e-06           
       1.347793            0.000159350396            2.50737411e-06           
       1.353906            0.000161931177            2.65401059e-06           
       1.360018            0.000172840692            2.75386553e-06           
       1.366131            0.000168399797            2.73427165e-06           
       1.372243            0.000172489615            2.77080107e-06           
       1.378356            0.000175106915            2.81032822e-06           
       1.384468            0.000177505485            2.82649895e-06           
       1.390581            0.000187666397            2.71735602e-06           
       1.396693            0.000183523743            2.73565299e-06           
       1.402805            0.000188117727            2.80833117e-06           
       1.408918            0.000190706747            2.86301237e-06           
       1.415030             0.00018479396            2.81081953e-06           
       1.421143            0.000186768455            2.87463714e-06           
       1.427255            0.000186743956            2.82570855e-06           
       1.433368            0.000193034027            2.68436015e-06           
       1.439480            0.000186009705            2.74674169e-06           
       1.445593            0.000190991027            2.83795148e-06           
       1.451705            0.000184347112            2.77756942e-06           
       1.457817            0.000177759015            2.74816133e-06           
       1.463930             0.00017720787            2.72863748e-06           
       1.470042            0.000175716988            2.56992625e-06           
       1.476155            0.000172071882            2.58704064e-06           
       1.482267            0.000168587322            2.62825026e-06           
       1.488380            0.000151296091            2.47812563e-06           
       1.494492            0.000149065771            2.46083891e-06           
       1.500605            0.000148666644            2.47789324e-06           
       1.506717            0.000147928231            2.34099584e-06           
       1.512829            0.000140984892            2.33434507e-06           
       1.518942            0.000133658347            2.29619299e-06           
       1.525054            0.000126565213             2.2397578e-06           
       1.531167            0.000123054203            2.23791455e-06           
       1.537279            0.000124795168             2.2304488e-06           
       1.543392            0.000116880689            2.06009905e-06           
       1.549504            0.000113799521            2.07532057e-06           
       1.555617            0.000110243091            2.06989112e-06           
       1.561729            0.000104933694            2.03572526e-06           
       1.567841            9.88553581e-05            1.99467083e-06           
       1.573954            9.91239465e-05            1.88223534e-06           
       1.580066            9.73622137e-05            1.87694899e-06           
       1.586179            9.54876162e-05            1.91601209e-06           
       1.592291            9.37048239e-05            1.92195964e-06           
       1.598404            9.10602111e-05            1.89720157e-06           
       1.604516            8.98057399e-05            1.77192792e-06           
       1.610629            8.88813301e-05             1.7794226e-06           
       1.616741             8.4705518e-05            1.79766694e-06           
       1.622853            8.50626895e-05            1.80797343e-06           
       1.628966            8.01508237e-05            1.77254963e-06           
       1.635078            8.18530957e-05            1.69165114e-06           
       1.641191            7.56726584e-05            1.62585874e-06           
       1.647303            7.91512683e-05            1.71288217e-06           
       1.653416            7.70781961e-05            1.71819508e-06           
       1.659528            7.17057289e-05            1.67100181e-06           
       1.665640            7.29706523e-05            1.54280781e-06           
       1.671753            7.19460542e-05            1.60777866e-06           
       1.677865            7.00828043e-05            1.60522649e-06           
       1.683978            6.80417203e-05            1.60722215e-06           
       1.690090            7.06213299e-05            1.56703186e-06           
       1.696203            6.40617596e-05               1.49335e-06           
       1.702315            6.67062879e-05            1.52789418e-06           
       1.708428            6.42286367e-05            1.55523085e-06           
       1.714540            6.41119817e-05            1.54471689e-06           
       1.720652            6.36054822e-05            1.42775767e-06           
       1.726765            6.38049721e-05            1.48758994e-06           
       1.732877            5.98725008e-05            1.46584053e-06           
       1.738990            5.70293384e-05            1.44936468e-06           
       1.745102             6.0352196e-05            1.40190453e-06           
       1.751215            5.86812291e-05            1.40825231e-06           
       1.757327            6.22911188e-05            1.48233736e-06           
       1.763440            6.08516888e-05            1.49127145e-06           
       1.769552             5.7663002e-05            1.35949085e-06           
       1.775664             5.5928999e-05            1.38125813e-06           
       1.781777            5.54619848e-05             1.3766621e-06           
       1.787889            5.82845627e-05            1.43354576e-06           
       1.794002            5.44397567e-05            1.32236708e-06           
       1.800114            5.22088469e-05            1.32159141e-06           
       1.806227            5.18929811e-05            1.36153476e-06           
       1.812339             5.0959502e-05            1.33454718e-06           
       1.818452            5.01258861e-05            1.24575219e-06           
       1.824564            5.02125799e-05            1.29203755e-06           
       1.830676            5.25342611e-05            1.35729751e-06           
       1.836789            5.03804437e-05            1.30034445e-06           
       1.842901            5.08096553e-05            1.25440752e-06           
       1.849014            4.96370338e-05              1.297746e-06           
       1.855126            4.87802624e-05            1.30218993e-06           
       1.861239            4.92463542e-05             1.2360996e-06           
       1.867351            5.07527868e-05            1.27142517e-06           
       1.873464             4.6467998e-05            1.25888312e-06           
       1.879576            4.82282901e-05             1.2906807e-06           
       1.885688            4.71988991e-05            1.18409867e-06           
       1.891801            4.62797279e-05            1.23079516e-06           
       1.897913            4.67521351e-05            1.25541907e-06           
       1.904026            4.52472116e-05            1.17346342e-06           
       1.910138            4.50956485e-05            1.20509401e-06           
       1.916251            4.50774996e-05             1.2319436e-06           
       1.922363            4.79249007e-05            1.21665414e-06           
       1.928476            4.44440359e-05            1.16599602e-06           
       1.934588            4.54792243e-05            1.21178589e-06           
       1.940700            4.53965317e-05            1.23550996e-06           
       1.946813            4.26072762e-05            1.09624513e-06           
       1.952925            4.22386965e-05            1.16958494e-06           
       1.959038            4.35320159e-05            1.20638138e-06           
       1.965150            4.26333034e-05            1.10849501e-06           
       1.971263            4.12490836e-05            1.15117924e-06           
       1.977375            4.24262981e-05            1.17683714e-06           
       1.983487            4.12041161e-05            1.08992315e-06           
       1.989600            4.06550836e-05             1.1356081e-06           
       1.995712            4.01075893e-05             1.1482791e-06           
       2.001825            4.00008719e-05            1.07138861e-06           
       2.007937            3.87618842e-05            1.09583595e-06           
       2.014050             4.1941944e-05            1.16693862e-06           
       2.020162            3.93645889e-05            1.06467817e-06           
       2.026275             3.8709658e-05            1.08081393e-06           
       2.032387             3.9034867e-05            1.12724545e-06           
       2.038499            3.95397477e-05            1.05514016e-06           
       2.044612            3.95714859e-05            1.09757593e-06           
       2.050724            3.66888939e-05            1.09322555e-06           
       2.056837            3.96755104e-05            1.04256294e-06           
       2.062949            3.84231056e-05            1.09711655e-06           
       2.069062            3.87265588e-05            1.08550227e-06           
       2.075174            3.75157101e-05            1.03750839e-06           
       2.081287            3.81456833e-05            1.07576707e-06           
       2.087399            3.80056894e-05            1.04488221e-06           
       2.093511            3.84822803e-05            1.06405378e-06           
       2.099624            3.63434384e-05            1.07496463e-06           
       2.105736            3.68846629e-05            1.00735851e-06           
       2.111849            3.96966238e-05             1.0870372e-06           
       2.117961            3.62523127e-05            1.02506864e-06           
       2.124074            3.47942552e-05            9.91826049e-07           
       2.130186             3.8843014e-05            1.08504031e-06           
       2.136299            3.64573068e-05            1.00172383e-06           
       2.142411            3.63167019e-05            1.02617814e-06           
       2.148523            3.57268066e-05            1.03198364e-06           
       2.154636            3.65584968e-05            9.90398055e-07           
       2.160748            3.66039705e-05            1.03239376e-06           
       2.166861            3.57345247e-05            9.85267785e-07           
       2.172973            3.57466834e-05            1.01620726e-06           
       2.179086            3.45243094e-05            9.98097915e-07           
       2.185198            3.76162649e-05            1.00368895e-06           
       2.191311            3.64226139e-05            1.03747635e-06           
       2.197423            3.50857015e-05            9.67338717e-07           
       2.203535            3.59738403e-05            1.02004215e-06           
       2.209648            3.52433801e-05            9.76136795e-07           
       2.215760            3.41602176e-05            9.83818421e-07           
       2.221873            3.57397145e-05            1.02097473e-06           
       2.227985            3.63424753e-05            9.70596993e-07           
       2.234098            3.37587371e-05            9.95487736e-07           
       2.240210            3.49847498e-05            9.51093347e-07           
       2.246322            3.62792445e-05            1.02077179e-06           
       2.252435            3.57250656e-05            9.65642303e-07           
       2.258547            3.37865948e-05            9.70795459e-07           
       2.264660            3.44949396e-05            9.58625125e-07           
       2.270772            3.30030905e-05             9.5937231e-07           
       2.276885            3.75124473e-05            1.01360028e-06           
       2.282997            3.45665367e-05            9.79539716e-07           
       2.289110            3.45083088e-05            1.05187849e-06           
       2.295222            3.50708777e-05            1.02818494e-06           
       2.301334            3.50152028e-05            1.23755281e-06           
       2.307447            3.57209727e-05            1.23936792e-06           
       2.313559            3.41432404e-05            1.33593486e-06           
       2.319672            3.49718338e-05            1.31202791e-06           
       2.325784            3.66114679e-05            1.42402027e-06           
       2.331897            3.55386749e-05            1.33740211e-06           
       2.338009            3.67419287e-05            1.41801812e-06           
       2.344122             3.5489032e-05            1.33392384e-06           
       2.350234             3.4078053e-05            1.36376978e-06           
       2.356346            3.36394662e-05            1.29306786e-06           
       2.362459            3.36151963e-05            1.36319338e-06           
       2.368571            3.69747429e-05            1.35112151e-06           
       2.374684            3.11828463e-05            1.32256552e-06           
       2.380796            3.30671011e-05            1.27979793e-06           
       2.386909             3.4529828e-05            1.37742542e-06           
       2.393021            3.42363826e-05            1.29121915e-06           
       2.399134            3.45711364e-05            1.34815818e-06           
       2.405246            3.21115435e-05            1.27471387e-06           
       2.411358            3.30222923e-05            1.30148425e-06           
       2.417471            3.36138051e-05            1.32313425e-06           
       2.423583            3.27103359e-05            1.29917741e-06           
       2.429696            3.17903283e-05            1.29182002e-06           
       2.435808            3.12208113e-05            1.22956836e-06           
       2.441921            3.23558349e-05            1.33248164e-06           
       2.448033            3.26939911e-05            1.26801935e-06           
       2.454146            3.55887505e-05            1.37540831e-06           
       2.460258             3.1900089e-05            1.24625495e-06           
       2.466370            3.23043477e-05            1.27683644e-06           
       2.472483            3.15837175e-05            1.28493243e-06           
       2.478595            3.06306285e-05            1.22591366e-06           
       2.484708            3.15830224e-05            1.28809552e-06           
       2.490820            3.17959362e-05            1.23047565e-06           
       2.496933            3.13913041e-05            1.27542287e-06           
       2.503045            2.85261723e-05            1.17470699e-06           
       2.509158            2.95903237e-05            1.21591195e-06           
       2.515270            2.95663254e-05            1.25084617e-06           
       2.521382            2.93414533e-05            1.17011114e-06           
       2.527495            2.88069433e-05            1.20969469e-06           
       2.533607            2.94149603e-05            1.21267104e-06           
       2.539720            2.93112097e-05            1.19277803e-06           
       2.545832            2.80035627e-05            1.22211498e-06           
       2.551945            2.92369251e-05             1.1609971e-06           
       2.558057            2.97945858e-05            1.20546129e-06           
       2.564169            2.33859209e-05            1.09790639e-06           
       2.570282            2.72933648e-05            1.12399878e-06           
       2.576394            2.68476401e-05            1.15444733e-06           
       2.582507            2.99268325e-05            1.21377625e-06           
       2.588619            2.64256915e-05            1.12395119e-06           
       2.594732            2.69107422e-05            1.15051215e-06           
       2.600844            2.60103851e-05            1.12943964e-06           
       2.606957            2.70636166e-05            1.12801225e-06           
       2.613069            2.89784368e-05            1.19590836e-06           
       2.619181            2.86003464e-05            1.16051491e-06           
       2.625294            2.59919498e-05            1.11205271e-06           
       2.631406            2.60066979e-05             1.1250173e-06           
       2.637519            2.77295398e-05            1.17140825e-06           
       2.643631            2.65726543e-05             1.1076072e-06           
       2.649744            2.77649352e-05            1.14484331e-06           
       2.655856            2.76924543e-05            1.15569531e-06           
       2.661969            2.61771955e-05            1.08593782e-06           
       2.668081             2.5426626e-05            1.09417065e-06           
       2.674193            2.51560282e-05            1.08575057e-06           
       2.680306            2.76155513e-05            1.14077127e-06           
       2.686418            2.84518348e-05            1.13641325e-06           
       2.692531            2.55868896e-05            1.09292029e-06           
       2.698643            2.55223255e-05            1.12241709e-06           
       2.704756            2.65335496e-05            1.09214453e-06           
       2.710868             2.3595976e-05            1.03901398e-06           
       2.716981            2.64374007e-05            1.09859409e-06           
       2.723093            2.64993217e-05            1.14460865e-06           
       2.729205             2.4962836e-05            1.05830147e-06           
       2.735318            2.62396667e-05            1.10457274e-06           
       2.741430            2.47471785e-05            1.05830351e-06           
       2.747543            2.46829746e-05             1.0708898e-06           
       2.753655            2.63770485e-05            1.10867161e-06           
       2.759768             2.4047834e-05            1.03955794e-06           
       2.765880            2.42070866e-05            1.05705563e-06           
       2.771993            2.34635804e-05            1.03318123e-06           
       2.778105            2.49035153e-05            1.06564332e-06           
       2.784217            2.39425424e-05            1.05122368e-06           
       2.790330            2.38584194e-05            1.03372493e-06           
       2.796442            2.32269024e-05            1.02300954e-06           
       2.802555            2.33762974e-05            1.01905091e-06           
       2.808667            2.37037647e-05            1.04828305e-06           
       2.814780            2.36419647e-05            1.04996167e-06           
       2.820892            2.25141108e-05            9.97890916e-07           
       2.827005            2.25142011e-05            1.00455264e-06           
       2.833117            2.38148228e-05             1.0285827e-06           
       2.839229            2.17337204e-05            9.74501637e-07           
       2.845342            2.33416416e-05            1.02935471e-06           
       2.851454            2.28100716e-05            1.00459345e-06           
       2.857567            2.26294329e-05            1.01585792e-06           
       2.863679            2.32047053e-05             1.0088867e-06           
       2.869792            2.29352805e-05            1.02124902e-06           
       2.875904              2.271559e-05            1.00488891e-06           
       2.882016             2.2785931e-05            1.00903321e-06           
       2.888129            2.35274145e-05            1.00627382e-06           
       2.894241            2.33058467e-05            9.96863534e-07           
       2.900354            2.22260276e-05            9.94807977e-07           
       2.906466            2.16851815e-05            9.76070601e-07           
       2.912579            2.23961003e-05            9.91714151e-07           
       2.918691            2.36489903e-05            1.01061293e-06           
       2.924804            2.14513299e-05            9.63683157e-07           
       2.930916            2.14746645e-05             9.8998524e-07           
       2.937028            2.22955151e-05            1.27579051e-06           
       2.943141            2.13550425e-05             1.6298698e-06           
       2.949253            1.63521333e-05            1.85435745e-06           
       2.955366            2.01658319e-05            3.25400387e-06           
