################################################################################
# Data 1                                  10_10_2023_0_vd_00029-00030_azimAvg_20degree_vertical.dat
# Data 2                                  2023_10_26_0_vd_00013-00014_azimAvg_20degree_vertical.dat
# Transmission                            0.8267341891088757
# Weight                                  1.107588838275762
# Smart_subtraction                       True
# Enhanced_transmission_correction        True
# EDF_DataBlockID                         0.Image.Psd
# EDF_BinarySize                          4637784
# EDF_HeaderSize                          3072
# ByteOrder                               LowByteFirst
# DataType                                FloatValue
# Dim_1                                   1038
# Dim_2                                   1117
# Image                                   0
# HeaderID                                EH:000000:000000:000000
# Size                                    4637784
# BIO_SYSTEM_CONF_TXT                     WAXSRES
# Center_1                                606.875
# Center_2                                651.034
# Comment                                 BW_EC - BW_EC_SAXS_HI_1200s
# DDummy                                  0.6
# Date                                    2023-10-10T22:46:58
# Delta                                   0
# Dummy                                   -1.5
# ExposureTime                            1200
# Force                                   9.91088
# Gamma                                   0
# Intensity1                              4.53684e-08
# JawsDistance                            4.54563
# JawsVelocity                            0.358589
# PSize_1                                 7.5e-05
# PSize_2                                 7.5e-05
# Pressure                                0.0841761
# SampleDistance                          0.899998
# SampleEnvKind                           saxs
# SampleEnvPN                             Solids
# SampleEnvSN                             1012
# Strain                                  0
# Stress                                  0
# Thickness                               0
# Wavelength                              1.541891e-10
# Wavelength                              1.54189e-10
# anaB                                    0
# anaB_dial                               -0.0012015
# anaPark                                 -175.125
# anaPark_dial                            175.169
# anaXi                                   0
# anaXi_dial                              0
# anaZ                                    -9.13123e-08
# anaZ_dial                               6.2299
# aux                                     0
# aux_dial                                -0.000125
# b2c                                     0
# b2c_dial                                0
# beamx                                   602.698
# beamx_dial                              602.698
# beamz                                   651.159
# beamz_dial                              651.159
# bioZ                                    -2.90461e-08
# bioZ_dial                               -0.546695
# det0x                                   0
# det0x_dial                              3.98621
# det0xvd                                 0
# det0xvd_dial                            0
# det0y                                   899.998
# det0y_dial                              43.5135
# det0z                                   0
# det0z_dial                              7.30833
# det0zvd                                 0
# det0zvd_dial                            0
# distana                                 93.4
# distana_dial                            93.4
# mag                                     2.6365
# mag_dial                                2.6365
# mono1B                                  1.00136e-08
# mono1B_dial                             -0.277
# mono2B                                  1.75476e-07
# mono2B_dial                             -4.366
# mono2X                                  -1
# mono2X_dial                             3.96031
# mono2Xi                                 0
# mono2Xi_dial                            0
# monoZ                                   -11
# monoZ_dial                              -10.6609
# om                                      1.30741e-08
# om_dial                                 -0.939898
# phi                                     -4.9295e-08
# phi_dial                                -7.01716
# qana                                    0
# qana_dial                               0
# ry                                      0
# ry_dial                                 0.00149998
# s1bot                                   1
# s1bot_dial                              -1.57906
# s1hl                                    0.1
# s1hl_dial                               -0.02125
# s1hr                                    1.5
# s1hr_dial                               1.86625
# s1top                                   0.6
# s1top_dial                              0.783906
# s2bot                                   0.95
# s2bot_dial                              -1.84531
# s2hl                                    0.35
# s2hl_dial                               -1.115
# s2hr                                    0.55
# s2hr_dial                               -0.265313
# s2top                                   -0.05
# s2top_dial                              -1.43281
# ttdeg                                   0
# ttdeg_dial                              0
# wind                                    72.0045
# wind_dial                               72.0233
# x                                       -11.9
# x_dial                                  -11.1903
# z                                       -32.8
# z_dial                                  -13.6909
# CountCutoff                             15302352
# DetectorModel                           Dectris EIGER2 Si 1M, S/N E-02-0357
# ThresholdSetting                        4023.88989258
# Saturation                              0
# FlatField                               Corrected
# BackgroundReductionExtra                0.02
# Detector                                0
# Monitor                                 0
# Pil_Roi0                                5.44421e+10
# SumForIntensity1                        5.44421e+10
# det                                     0
# mon                                     0
# pilai0                                  5.44421e+10
# pilai1                                  0
# pilct0                                  5.44421e+10
# pilct1                                  0
# pilroi0                                 5.44421e+10
# pilroi1                                 0
# sec                                     0.099
# title                                   10_10_2023_0_00029.edf
# usaxs0                                  0
# Operation                               Azimuthal average I(q)
# Error_model                             ErrorModel.poisson
# Geometrical_correction                  True
# Transmission_correction                 True
# Psi                                     0.0
# Omega                                   0.0
# TransmittedFlux_init_value              4.53684e+07
# TransmittedFlux                         45368104.46128486
# MaskInvalidPixels                       True
# DetectorEdge                            3
# PsiMin                                  80.0
# PsiMax                                  100.0
# Origin                                  subtracted
# Thickness_correction                    False
################################################################################
 q(A-1)                   I_subtracted(a.u.)         Sigma_I(a.u.)            
       0.001189               -181444.645                34.0575647           
       0.001528                 -128008.8                26.5723127           
       0.001868               -100826.805                24.4455753           
       0.002207               -76979.7206                21.9648979           
       0.002547               -45087.8872                19.2084417           
       0.002886                 -10620.53                13.3547317           
       0.003226                3918.73826                9.57672533           
       0.003566                9573.93849                7.74215825           
       0.003905                6910.73267                6.17764542           
       0.004245                3067.49311                4.92672677           
       0.004584               -1045.01146                3.71964945           
       0.004924                661.225825                2.60690205           
       0.005264                3762.86329                1.91585381           
       0.005603                5931.24642                1.42990279           
       0.005943                5068.53561                1.11333272           
       0.006282                3503.92666               0.888447651           
       0.006622                2114.89956               0.634404855           
       0.006961                1202.91666               0.477470404           
       0.007301                612.185169               0.318592646           
       0.007641                245.176831               0.201727561           
       0.007980                50.0319394              0.0913945687           
       0.008320                 7.2050178              0.0348762376           
       0.008659                1.94574345               0.017169967           
       0.008999               0.992027269              0.0117555703           
       0.009339               0.626828217             0.00941797938           
       0.009678               0.443166791             0.00795987027           
       0.010018                0.28925928             0.00653644701           
       0.010357               0.191104345             0.00541271354           
       0.010697               0.133367368             0.00423826833           
       0.011036               0.128884058              0.0041592652           
       0.011376               0.109888049              0.0037535987           
       0.011716              0.0963620668             0.00342324989           
       0.012055              0.0885104758             0.00334751603           
       0.012395              0.0749744738             0.00309322066           
       0.012734              0.0672568522             0.00282535657           
       0.013074               0.066450442             0.00272384721           
       0.013414              0.0586864411             0.00251270667           
       0.013753               0.049330813             0.00232366892           
       0.014093               0.047473669             0.00222475832           
       0.014432              0.0386694056             0.00206427874           
       0.014772              0.0357777523             0.00193449142           
       0.015111              0.0325850749             0.00176503808           
       0.015451              0.0299205117             0.00171722129           
       0.015791              0.0280901616             0.00163194045           
       0.016130              0.0260493782             0.00157984342           
       0.016470              0.0270507925             0.00156951593           
       0.016809              0.0271085278             0.00155323835           
       0.017149              0.0229271575             0.00137401491           
       0.017489              0.0205622013             0.00133475209           
       0.017828              0.0187974187             0.00130657005           
       0.018168              0.0146657044             0.00115684328           
       0.018507              0.0166394572             0.00116421161           
       0.018847              0.0155722429             0.00114381286           
       0.019186              0.0149108155             0.00106404233           
       0.019526              0.0145379185             0.00102331264           
       0.019866              0.0119730757             0.00094316824           
       0.020205              0.0128004032            0.000982712575           
       0.020545              0.0125865001            0.000951057152           
       0.020884              0.0101330671            0.000879208555           
       0.021224             0.00892785696            0.000802937076           
       0.021564              0.0101660907            0.000865077618           
       0.021903             0.00773777898            0.000757902228           
       0.022243             0.00941899265            0.000804095316           
       0.022582             0.00929226986            0.000777817289           
       0.022922             0.00768661495            0.000717921483           
       0.023261             0.00620440073            0.000640756865           
       0.023601             0.00811823938            0.000727227189           
       0.023941             0.00633318958            0.000670807085           
       0.024280             0.00657997139            0.000641062815           
       0.024620             0.00547587484            0.000598260479           
       0.024959             0.00590609066            0.000589210084           
       0.025299             0.00431867983             0.00055271264           
       0.025639             0.00622118216            0.000603997939           
       0.025978             0.00472932863            0.000532661633           
       0.026318             0.00527200476            0.000563855837           
       0.026657             0.00415490126            0.000503592656           
       0.026997             0.00443096105            0.000485393466           
       0.027336             0.00378888455            0.000483295505           
       0.027676             0.00421493391             0.00048491489           
       0.028016             0.00320141192            0.000455340039           
       0.028355             0.00333058247            0.000426538156           
       0.028695             0.00320478372            0.000430275231           
       0.029034             0.00421701307            0.000454418426           
       0.029374              0.0032435701            0.000411816531           
       0.029714             0.00364129638            0.000429044691           
       0.030053             0.00341963808            0.000428344541           
       0.030393             0.00261447106            0.000391891193           
       0.030732             0.00240695724            0.000361297904           
       0.031072             0.00274858552            0.000369799524           
       0.031411             0.00275377811            0.000390467224           
       0.031751             0.00310545948            0.000385890782           
       0.032091             0.00267322736            0.000353644371           
       0.032430             0.00252777214            0.000341054251           
       0.032770             0.00204961105            0.000316268902           
       0.033109             0.00200055323            0.000333295697           
       0.033449             0.00193225856            0.000328499503           
       0.033789             0.00193002974            0.000295311369           
       0.034128             0.00203935216            0.000329000304           
       0.034468             0.00193139647            0.000301169338           
       0.034807             0.00133078117            0.000288784756           
       0.035147             0.00161354179            0.000280450334           
       0.035486             0.00214336152            0.000327603827           
       0.035826             0.00180669864             0.00029199303           
       0.036166             0.00117689545             0.00026975062           
       0.036505             0.00170556461            0.000278689776           
       0.036845             0.00134557004            0.000255424445           
       0.037184             0.00131095102            0.000230152477           
       0.037524             0.00118284175            0.000256116985           
       0.037864             0.00108996803            0.000265050865           
       0.038203              0.0012184949            0.000249970636           
       0.038543             0.00128278167            0.000257979992           
       0.038882            0.000733645203            0.000220280331           
       0.039222             0.00161884374            0.000263141182           
       0.039561             0.00109444318            0.000218688673           
       0.039901            0.000995216371            0.000229414334           
       0.040241            0.000673754409            0.000189560256           
       0.040580             0.00149407137             0.00025378141           
       0.040920            0.000913091952              0.0002106522           
       0.041259              0.0010128558            0.000201916353           
       0.041599             0.00120763389             0.00024336467           
       0.041939             0.00114501198             0.00021660575           
       0.042278             0.00161719543            0.000246593818           
       0.042618            0.000620877206            0.000166397237           
       0.042957              0.0009579959            0.000188689023           
       0.043297            0.000872389096            0.000203029362           
       0.043636            0.000963622922             0.00019874905           
       0.043976            0.000921280745            0.000194047238           
       0.044316             0.00074189372            0.000183897419           
       0.044655            0.000955180576            0.000195031116           
       0.044995            0.000753017045            0.000174580321           
       0.045334            0.000486176001            0.000166503939           
       0.045674             0.00087335179            0.000187404353           
       0.046014            0.000493977828            0.000171550074           
       0.046353            0.000710828707            0.000176324256           
       0.046693            0.000747415307            0.000171859552           
       0.047032            0.000696235333            0.000171114325           
       0.047372            0.000373723808            0.000154146917           
       0.047711            0.000661437368            0.000174928092           
       0.048051            0.000247821795            0.000165775413           
       0.048391             0.00056599247            0.000157433206           
       0.048730            0.000733030273            0.000166223646           
       0.049070            0.000804826243            0.000180243692           
       0.049409            0.000788706838            0.000169556693           
       0.049749            0.000566954132            0.000164376622           
       0.050089            0.000585023517             0.00016817704           
       0.050428            0.000405430713               0.000165504           
       0.050768            0.000729871484            0.000164806167           
       0.051107            0.000467957213            0.000140458067           
       0.051447            0.000432504994            0.000129902399           
       0.051786            0.000100363516            0.000134148824           
       0.052126            0.000342363088            0.000138706229           
       0.052466            0.000458559241            0.000145364185           
       0.052805            0.000787115493            0.000153398505           
       0.053145            0.000643888029             0.00015718352           
       0.053484            0.000397916068            0.000135904762           
       0.053824            0.000367683791            0.000137545034           
       0.054164            0.000429719208            0.000129216943           
       0.054503            0.000427083752            0.000125881771           
       0.054843            0.000260811341            0.000127295252           
       0.055182             0.00022794428            0.000131989004           
       0.055522            0.000549284207            0.000144798374           
       0.055861            0.000397265903            0.000127311946           
       0.056201            0.000444746624             0.00013130495           
       0.056541            0.000206437423            0.000123174057           
       0.056880            0.000373436063            0.000121567909           
       0.057220            5.93619173e-05            0.000114388855           
       0.057559            0.000301686606            0.000129334088           
       0.057899            0.000368300936            0.000137707611           
       0.058239             8.7728047e-05            9.94243888e-05           
       0.058578            0.000386594951            0.000122958752           
       0.058918            0.000334802193            0.000113682053           
       0.059257            0.000242274941            0.000148909013           
       0.059597            0.000404028352            0.000110916296           
       0.059936            9.74837978e-05            0.000120278301           
       0.060276            0.000530156523            0.000123388988           
       0.060616            0.000310483646            0.000131993152           
       0.060955            0.000314751183            0.000116484322           
       0.061295             0.00013387332            0.000111306035           
       0.061634            0.000403438957            0.000118038808           
       0.061974            0.000636464359            0.000141286225           
       0.062314            0.000374987836             0.00011085904           
       0.062653            0.000205874297            0.000106461885           
       0.062993            0.000232448768            0.000118357703           
       0.063332            0.000284456943            0.000111055533           
       0.063672            0.000284513498            0.000116678113           
       0.064011            0.000198799259            0.000119001568           
       0.064351           -4.73982044e-05            0.000101015593           
       0.064691            0.000178395921            0.000103875197           
       0.065030            0.000298640822             0.00011464552           
       0.065370             0.00024434202            0.000100649812           
       0.065709            0.000456204823            0.000113812838           
       0.066049            0.000300306929            0.000116342983           
       0.066389            0.000296725109            0.000101199271           
       0.066728            0.000296259631            9.88242195e-05           
       0.067068            0.000367762078            0.000102595477           
       0.067407            0.000427790502            0.000112868925           
       0.067747            0.000324813208            0.000101958665           
       0.068086            0.000323340356            9.90911733e-05           
       0.068426            0.000181229458            9.07693737e-05           
       0.068766            0.000237417824            0.000111612405           
       0.069105            0.000187441075            0.000112750574           
       0.069445            0.000454281398            0.000111385277           
       0.069784            0.000236090711            9.97716571e-05           
       0.070124            0.000230285491            9.31429779e-05           
       0.070464            0.000244810718             0.00010455806           
       0.070803            0.000283661733            9.61803218e-05           
       0.071143            0.000234859506            8.48910463e-05           
       0.071482            0.000160421485            9.06272087e-05           
       0.071822            4.91900688e-05            9.72459057e-05           
       0.072161            0.000109478698            8.80234005e-05           
       0.072501             0.00015300594            9.98579903e-05           
       0.072841            7.90032855e-05            8.96488999e-05           
       0.073180            0.000100339066            9.97676173e-05           
       0.073520            6.13533829e-05            8.89912972e-05           
       0.073859            7.51376878e-05            9.01150077e-05           
       0.074199            5.96446979e-05            8.57687148e-05           
       0.074539            0.000177779934            9.23004888e-05           
       0.074878            0.000168931132            8.60395416e-05           
       0.075218            0.000222418267            0.000103067155           
       0.075557            8.56766663e-05            9.36324931e-05           
       0.075897            9.10452881e-05            8.68499172e-05           
       0.076236            0.000218406359            9.18185427e-05           
       0.076576            0.000227858852            8.56739189e-05           
       0.076916            0.000236623682            9.77689751e-05           
       0.077255            0.000124883947            8.79986804e-05           
       0.077595            9.24933297e-05            8.79292049e-05           
       0.077934            0.000221529394            8.34701806e-05           
       0.078274            0.000150273708            8.63053565e-05           
       0.078614             0.00018428285            0.000101564125           
       0.078953           -1.89228608e-05            8.13881828e-05           
       0.079293            0.000132335858            8.31535607e-05           
       0.079632            0.000197895841            9.50002928e-05           
       0.079972            0.000176481651            8.47102613e-05           
       0.080311             0.00018947548            8.74658658e-05           
       0.080651            0.000203514298            8.40716933e-05           
       0.080991            3.31890417e-05            8.46442852e-05           
       0.081330            0.000122267014            8.68221536e-05           
       0.081670            6.74503265e-05            7.64100285e-05           
       0.082009            0.000166612414            9.01914471e-05           
       0.082349            0.000285771631             8.6160449e-05           
       0.082689            0.000154637621            8.08353218e-05           
       0.083028            0.000228900907            8.67466232e-05           
       0.083368            0.000200481633            9.38465336e-05           
       0.083707           -1.13204698e-05            7.88439266e-05           
       0.084047            0.000170406571             8.5179356e-05           
       0.084386            9.73822283e-05            7.76912075e-05           
       0.084726            0.000115795101            8.44445512e-05           
       0.085066            0.000215832918            9.07227288e-05           
       0.085405            0.000101383839            7.02911716e-05           
       0.085745            0.000220945346            9.33512512e-05           
       0.086084            0.000230290394            8.80634423e-05           
       0.086424            0.000159187123            7.33392688e-05           
       0.086764            5.70888212e-05            7.86405803e-05           
       0.087103            0.000128176971            6.99950251e-05           
       0.087443            0.000140208677             8.2409791e-05           
       0.087782            0.000154047391            8.25241091e-05           
       0.088122            0.000216200936            7.80695928e-05           
       0.088461            0.000168475333            8.70031268e-05           
       0.088801            8.12546949e-05            6.87917406e-05           
       0.089141            0.000202959874            7.80054115e-05           
       0.089480            0.000113665431              7.131875e-05           
       0.089820            2.29710787e-05            7.01552758e-05           
       0.090159            0.000297053608            8.41613368e-05           
       0.090499            7.10525547e-05            6.89539943e-05           
       0.090839            0.000261634414            8.18517318e-05           
       0.091178            3.87124916e-05            7.31544909e-05           
       0.091518            0.000134753866            6.75587824e-05           
       0.091857            0.000106898666            7.92607356e-05           
       0.092197            7.54310693e-05            7.66211783e-05           
       0.092536            0.000269426516            8.69105809e-05           
       0.092876            0.000213969465            8.22495396e-05           
       0.093216            0.000139323241            7.51240086e-05           
       0.093555            0.000134272901            8.03656275e-05           
       0.093895            0.000148772639            8.25943123e-05           
       0.094234            0.000132907075            7.84931661e-05           
       0.094574            7.62475292e-05            7.46396851e-05           
       0.094914            4.77582709e-05            6.71465767e-05           
       0.095253             0.00015434596            7.69109232e-05           
       0.095593            0.000108989413            6.84169772e-05           
       0.095932            8.96705684e-05            7.30574314e-05           
       0.096272            2.68763211e-05            8.14303859e-05           
       0.096611            0.000181664339              7.134793e-05           
       0.096951            3.68449584e-05            6.84926134e-05           
       0.097291           -0.000101931172            7.24964493e-05           
       0.097630            0.000141564902             7.9652566e-05           
       0.097970            4.22990997e-05            7.85049383e-05           
       0.098309            0.000222722073             7.6389828e-05           
       0.098649            5.26069143e-05            7.28656418e-05           
       0.098989            0.000111196092            6.11684953e-05           
       0.099328            5.51588477e-05             6.5279411e-05           
       0.099668            3.15435369e-05            6.48890739e-05           
       0.100007            0.000151957218            6.72388288e-05           
       0.100347            8.52787528e-05            6.92514695e-05           
       0.100686            0.000155071053             6.8115527e-05           
       0.101026            0.000223969289            7.11067248e-05           
       0.101366            0.000120468017            6.08926652e-05           
       0.101705            1.78140333e-05             6.9697119e-05           
       0.102045            3.54101415e-05             7.4047853e-05           
       0.102384            0.000199547659            7.05347721e-05           
       0.102724           -3.76426601e-05            7.24930142e-05           
       0.103064            0.000118033768            7.06996113e-05           
       0.103403            6.83479773e-05            6.39928523e-05           
       0.103743            8.99057539e-05            6.42615595e-05           
       0.104082            0.000103893691             6.5223773e-05           
       0.104422             5.6368582e-05             7.4946304e-05           
       0.104761            0.000176886702            7.15935069e-05           
       0.105101            4.82420736e-05            6.64152731e-05           
       0.105441             5.5812957e-05            6.36697502e-05           
       0.105780             2.8721179e-05            6.78458177e-05           
       0.106120            0.000145941265            6.50570808e-05           
       0.106459             6.6468527e-05            6.60562624e-05           
       0.106799            6.42983938e-05            6.88608855e-05           
       0.107138            8.34989324e-05            7.01558674e-05           
       0.107478            6.97406103e-05            7.64249962e-05           
       0.107818           -6.17583885e-05            6.35207331e-05           
       0.108157            0.000133968306             6.6424743e-05           
       0.108497            4.66039426e-05            6.51253685e-05           
       0.108836           -6.10144305e-07            6.72762278e-05           
       0.109176           -9.44233584e-07            5.98963477e-05           
       0.109516            2.29366082e-05            6.14680119e-05           
       0.109855            7.68434576e-05            6.15503942e-05           
       0.110195            0.000162179992            7.34254907e-05           
       0.110534            5.06782286e-05            5.70869042e-05           
       0.110874            -7.8988294e-06             7.0453513e-05           
       0.111213            8.64391479e-05            6.14689802e-05           
       0.111553            0.000137611352            6.17627671e-05           
       0.111893             6.0805898e-05            5.77096477e-05           
       0.112232            0.000100516625             7.8622084e-05           
       0.112572            5.05980106e-05            6.59442177e-05           
       0.112911            7.90646205e-05            5.53610228e-05           
       0.113251            0.000163078728            5.79945521e-05           
       0.113591           -1.94488654e-05            5.93256721e-05           
       0.113930            9.42510039e-05            7.06387324e-05           
       0.114270            0.000108845813            6.73814982e-05           
       0.114609            5.14760931e-05            5.82191502e-05           
       0.114949            1.28038498e-05            5.94059395e-05           
       0.115288             2.2267821e-05            5.86146064e-05           
       0.115628            8.57390439e-05            7.06543651e-05           
       0.115968             2.1942066e-05            6.58582071e-05           
       0.116307            8.03661163e-05            6.49590071e-05           
       0.116647            0.000142399592            5.97342472e-05           
       0.116986              0.0001289825            6.58260974e-05           
       0.117326             2.6563123e-05            5.30559034e-05           
       0.117666             6.6823274e-05            6.34402476e-05           
       0.118005            8.19534226e-06            6.55474874e-05           
       0.118345            2.53880527e-05            5.89425235e-05           
       0.118684           -7.76135601e-05            5.48787479e-05           
       0.119024            7.62659068e-05            6.18317524e-05           
       0.119363           -8.32547049e-06            5.54831995e-05           
       0.119703             2.3174621e-06            5.79235693e-05           
       0.120043            3.71521251e-05            6.36860974e-05           
       0.120382            2.06969745e-05            5.62542569e-05           
       0.120722             0.00019981545             6.4495034e-05           
       0.121061            0.000161621229            6.10890321e-05           
       0.121401            7.80961617e-05            6.50765545e-05           
       0.121741             5.5391862e-06            6.65985127e-05           
       0.122080            6.87624543e-05            6.37789592e-05           
       0.122420            1.03296028e-05            6.26782484e-05           
       0.122759            3.91078213e-06            5.80436734e-05           
       0.123099            0.000153963722            6.50796352e-05           
       0.123438            3.49530241e-05            5.91031785e-05           
       0.123778            6.03245579e-05            5.85538748e-05           
       0.124118            2.54695061e-05            5.76417935e-05           
       0.124457           -4.45978104e-05            6.24593193e-05           
       0.124797            5.65180484e-05            6.12337775e-05           
       0.125136            4.94724608e-05            5.54439017e-05           
       0.125476            0.000106455624            6.45993621e-05           
       0.125816            6.15285142e-05            5.72534432e-05           
       0.126155           -8.00797507e-05            4.48391868e-05           
       0.126495           -6.71650346e-05            4.93722401e-05           
       0.126834            2.44076947e-05            5.79553763e-05           
       0.127174            6.51692972e-05              5.304987e-05           
       0.127513            2.64883258e-05            5.70674634e-05           
       0.127853            7.48547409e-05            6.83558443e-05           
       0.128193            7.11708923e-05            5.90509047e-05           
       0.128532            5.90697072e-05            5.74823221e-05           
       0.128872            0.000134686751            7.19529596e-05           
       0.129211            0.000135998656             5.2308186e-05           
       0.129551            3.32559319e-05            4.94289684e-05           
       0.129891            3.77250763e-05            6.15353037e-05           
       0.130230            8.23099201e-05            5.23319733e-05           
       0.130570            2.11341666e-06            5.89292373e-05           
       0.130909            5.69178426e-05             5.2355875e-05           
       0.131249            0.000118303534            6.03297217e-05           
       0.131588           -1.83969462e-05            5.74611063e-05           
       0.131928           -7.01592558e-06             6.0942747e-05           
       0.132268            3.67940226e-05            5.92426167e-05           
       0.132607             4.1242861e-05            5.39889915e-05           
       0.132947            0.000118643852            6.17926759e-05           
       0.133286            8.65780607e-05            5.71392218e-05           
       0.133626            0.000110928607            5.64588782e-05           
       0.133966            6.52611199e-05            5.74041444e-05           
       0.134305            6.41144278e-05            6.16856892e-05           
       0.134645           -1.59807278e-05            5.69570809e-05           
       0.134984            6.61656539e-05            5.41901369e-05           
       0.135324           -7.43608383e-05            5.68551287e-05           
       0.135663            9.00692945e-05            5.38884537e-05           
       0.136003             4.0890334e-05            5.28790775e-05           
       0.136343            5.02990114e-05             5.4841612e-05           
       0.136682             6.5442183e-05            5.36563094e-05           
       0.137022           -1.04271097e-05            5.46442917e-05           
       0.137361            8.62763451e-05            6.46000901e-05           
       0.137701           -4.51853388e-05            5.38634309e-05           
       0.138041            1.90656257e-05            5.64797876e-05           
       0.138380            0.000102265204            5.79271371e-05           
       0.138720            0.000142961202            6.11569591e-05           
       0.139059            3.22215864e-05            4.91396999e-05           
       0.139399            0.000161366318             6.2149374e-05           
       0.139738            2.61495191e-07            5.44549573e-05           
       0.140078            8.14536685e-05            5.65896292e-05           
       0.140418            4.31689134e-05            5.40261354e-05           
       0.140757            2.37883131e-05            5.32812407e-05           
       0.141097            4.94733322e-05            5.33994084e-05           
       0.141436            3.50659691e-05            5.22962763e-05           
       0.141776            5.16104503e-05            5.64954039e-05           
       0.142116           -4.41296762e-05            6.23690928e-05           
       0.142455            5.50741001e-05            5.22413284e-05           
       0.142795            5.50765413e-05            5.22346063e-05           
       0.143134            7.50979574e-05            4.91322256e-05           
       0.143474            0.000116279256            4.99547466e-05           
       0.143813            0.000167572803            5.07857648e-05           
       0.144153            6.56547554e-06            5.07300917e-05           
       0.144493           -2.91354401e-05            4.86539132e-05           
       0.144832            5.63921748e-06            5.43759062e-05           
       0.145172            0.000110505421            5.16179154e-05           
       0.145511            6.87683611e-05            4.23278086e-05           
       0.145851            7.86658829e-05             5.1377715e-05           
       0.146191             5.8122271e-05            4.76935398e-05           
       0.146530           -5.63020311e-05            5.16701507e-05           
       0.146870            2.08899029e-05            4.28245112e-05           
       0.147209            9.89407004e-05            5.64856406e-05           
       0.147549            1.44865271e-05            6.04181798e-05           
       0.147888            8.45175639e-05             5.0650822e-05           
       0.148228            1.33494298e-05            4.89602262e-05           
       0.148568            6.84649839e-05            5.01411675e-05           
       0.148907            6.17284449e-05            5.07167573e-05           
       0.149247             0.00010016778            5.06734143e-05           
       0.149586            8.47649571e-05            4.97819536e-05           
       0.149926            5.62373787e-05            4.61310481e-05           
       0.150266            0.000104122935            5.95052303e-05           
       0.150605           -5.85046571e-05            5.78105926e-05           
       0.150945            2.04255004e-05            5.42815876e-05           
       0.151284            2.43170973e-05            5.12756123e-05           
       0.151624            6.04200683e-05            5.58035819e-05           
       0.151963            5.75394074e-05            5.24508965e-05           
       0.152303              7.938465e-05            5.33680205e-05           
       0.152643             8.8442831e-06             4.4824894e-05           
       0.152982            6.31442925e-05            5.18189252e-05           
       0.153322            3.68649565e-05            5.47523115e-05           
       0.153661            2.16512778e-05            4.74914451e-05           
       0.154001            3.50694644e-05            5.42011035e-05           
       0.154341            3.68067039e-05            4.93063873e-05           
       0.154680             7.4258482e-05            5.49113695e-05           
       0.155020            8.41543873e-05            5.43505166e-05           
       0.155359           -2.69640765e-05            5.31717888e-05           
       0.155699            7.80201883e-05            5.16939566e-05           
       0.156038            0.000117971848            4.91133898e-05           
       0.156378            4.38814465e-05            4.91121868e-05           
       0.156718            0.000138437723             5.8934798e-05           
       0.157057           -7.30818608e-05            4.80489388e-05           
       0.157397            9.23803778e-05            6.01839736e-05           
       0.157736            8.19860085e-05             5.7856101e-05           
       0.158076           -1.74621118e-05            6.08558076e-05           
       0.158416           -6.16029353e-05            6.92763792e-05           
       0.158755            -5.2169571e-05            6.64632495e-05           
       0.159095            7.10300298e-05            7.99158806e-05           
       0.159434           -0.000127053398            6.22896054e-05           
       0.159774            8.72846535e-05            7.00327424e-05           
       0.160113            1.57374178e-05            7.01314138e-05           
       0.160453            0.000130214872            8.19819226e-05           
       0.160793            5.25036741e-05            6.28908085e-05           
       0.161132            2.64965455e-06             7.1376822e-05           
       0.161472             0.00015755623            8.19664339e-05           
       0.161811           -2.23375399e-05            7.36795379e-05           
       0.162151            0.000190790245             8.2463265e-05           
       0.162491            4.57200115e-05            6.70308262e-05           
       0.162830             3.7947789e-05            9.10311725e-05           
       0.163170           -8.54975176e-06            7.47428577e-05           
       0.163509            3.29361334e-05            7.05493522e-05           
       0.163849            0.000119921244            7.46879054e-05           
       0.164188            1.47447845e-05             6.8757914e-05           
       0.164528            2.53393178e-05            6.12177901e-05           
       0.164868           -8.47675469e-06            7.31951099e-05           
       0.165207            0.000201831921            8.25817622e-05           
       0.165547            0.000252002164             8.0146406e-05           
       0.165886            0.000109097971             7.7811045e-05           
       0.166226            -1.1632858e-05             6.7125253e-05           
       0.166566           -2.45711748e-05             6.8915643e-05           
       0.166905            3.11251926e-06            6.82778587e-05           
       0.167245            1.46406764e-05            6.48014477e-05           
       0.167584           -7.28721579e-05            5.94304085e-05           
       0.167924           -2.99587172e-05            6.44664496e-05           
       0.168263           -1.04266638e-05            8.16200593e-05           
       0.168603           -2.81942912e-05            6.49792997e-05           
       0.168943           -1.27063227e-06            6.19591733e-05           
       0.169282            4.40256016e-05            7.53933038e-05           
       0.169622           -8.15086245e-05             6.3124929e-05           
       0.169961            3.12577078e-05            6.53166785e-05           
       0.170301            8.55461838e-05            6.90715205e-05           
       0.170641             4.8642252e-05            7.23246659e-05           
       0.170980            0.000146375926            7.46550891e-05           
       0.171320            0.000132543461             7.5235465e-05           
       0.171659           -6.95650472e-05            6.13051821e-05           
       0.171999            6.69496584e-05            6.38792045e-05           
       0.172338            1.94184664e-05            8.45355197e-05           
       0.172678            4.95567293e-05             7.3686366e-05           
       0.173018            1.79074822e-05            7.67756793e-05           
       0.173357            0.000118101052             7.3731119e-05           
       0.173697            7.31015028e-05            6.84320405e-05           
       0.174036            6.67883925e-06            6.86885791e-05           
       0.174376           -5.66704912e-05               7.17995e-05           
       0.174716           -3.67947808e-05            6.64949147e-05           
       0.175055            0.000117701674            7.51551347e-05           
       0.175395            0.000168384785            7.52853102e-05           
       0.175734           -2.17095718e-05            6.49110567e-05           
       0.176074            1.39144156e-05            7.57141009e-05           
       0.176413            0.000140373456            8.46174055e-05           
       0.176753           -1.21796504e-05            8.51345477e-05           
       0.177093             2.3141488e-05            6.90076036e-05           
       0.177432           -3.68113864e-05            6.23628463e-05           
       0.177772            0.000149014656            8.33481941e-05           
       0.178111           -8.69251561e-05            5.07721411e-05           
       0.178451           -2.81553185e-05             7.3072398e-05           
       0.178791           -4.77972436e-05            6.57377033e-05           
       0.179130            2.45731009e-05            7.52312388e-05           
       0.179470             8.1801604e-05            7.65869928e-05           
       0.179809            5.36956841e-05            7.07870353e-05           
       0.180149            -2.2307893e-05            6.28628099e-05           
       0.180488           -1.66264292e-05            6.90010731e-05           
       0.180828            4.23055877e-05            6.32026114e-05           
       0.181168            8.30246087e-05            7.54313683e-05           
       0.181507            1.98485524e-05            5.46322194e-05           
       0.181847            8.13657089e-05            7.77596854e-05           
       0.182186            -9.1265576e-05            7.36833411e-05           
       0.182526             2.9253313e-05            7.70557153e-05           
       0.182866            5.02985797e-05            7.22948585e-05           
       0.183205           -4.83428967e-05            6.14127411e-05           
       0.183545            5.49650121e-05              6.048905e-05           
       0.183884             2.7045058e-05            7.38609344e-05           
       0.184224            8.36377866e-05            6.64360066e-05           
       0.184563            0.000159665519            6.80132171e-05           
       0.184903           -0.000121604998            7.25119941e-05           
       0.185243            3.60966455e-05            5.55600543e-05           
       0.185582            7.10603942e-05            6.70838792e-05           
       0.185922            0.000108346037            6.85110801e-05           
       0.186261             3.0365106e-05            6.50980641e-05           
       0.186601            1.92612263e-06             6.4220588e-05           
       0.186941            1.60961668e-05            6.02350986e-05           
       0.187280            1.16030465e-05            6.84667406e-05           
       0.187620           -2.53581289e-05            7.32982996e-05           
       0.187959            7.97207177e-05            7.32977832e-05           
       0.188299            3.00170224e-05            6.41309455e-05           
       0.188638            0.000120554168            6.66252681e-05           
       0.188978           -4.49430306e-05            4.30098765e-05           
       0.189318           -9.30319287e-05            7.09287614e-05           
       0.189657            6.97047347e-05            6.30285555e-05           
       0.189997           -3.31405415e-05            6.12554312e-05           
       0.190336           -2.13682704e-05            7.03880599e-05           
       0.190676            0.000148716586            7.75415082e-05           
       0.191016            1.86561679e-05            5.20994635e-05           
       0.191355            2.84197544e-05            7.25918033e-05           
       0.191695           -4.57470631e-05            5.91886869e-05           
       0.192034            6.66156177e-05            5.30101866e-05           
       0.192374            3.54360477e-05            6.95396356e-05           
       0.192713           -3.59526899e-05            7.21609716e-05           
       0.193053            2.01184416e-05            6.33668625e-05           
       0.193393             0.00016884145            6.86321301e-05           
       0.193732            2.38579662e-05            5.47527649e-05           
       0.194072            7.28256649e-05            6.63762577e-05           
       0.194411            1.58068042e-05            6.80996168e-05           
       0.194751           -3.89066473e-06            6.47892505e-05           
       0.195091           -5.91401809e-05            7.92886776e-05           
       0.195430             -6.715093e-06            6.93752895e-05           
       0.195770            3.24106434e-05            6.63291015e-05           
       0.196109           -4.00306006e-05            6.66899474e-05           
       0.196449            9.55009843e-05            6.59576478e-05           
       0.196788             1.1120269e-05            6.45107872e-05           
       0.197128           -9.44874008e-05            5.06772107e-05           
       0.197468            9.40234107e-05            6.57986567e-05           
       0.197807            1.79005381e-05            5.97897344e-05           
       0.198147             0.00010161749            6.45699243e-05           
       0.198486            3.31524458e-05            8.55340442e-05           
       0.198826            1.46699584e-05            5.68951907e-05           
       0.199166           -0.000167130516            5.96436931e-05           
       0.199505            3.09151128e-05            6.28322715e-05           
       0.199845           -3.48833047e-05            5.29780355e-05           
       0.200184            6.85297615e-06            7.39186423e-05           
       0.200524            5.84339884e-05            6.85545647e-05           
       0.200863           -9.66157765e-05            5.80903514e-05           
       0.201203           -1.11188507e-06            4.87106718e-05           
       0.201543            1.50721425e-05            5.83774186e-05           
       0.201882           -3.93169012e-05            5.00077469e-05           
       0.202222           -2.27760152e-05            6.61033347e-05           
       0.202561            5.38685702e-05             6.2406706e-05           
       0.202901             2.8062879e-05            4.78955201e-05           
       0.203241            4.41726984e-06            5.62874428e-05           
       0.203580            9.37144385e-05            6.76250879e-05           
       0.203920            5.81524449e-05            6.58163349e-05           
       0.204259            3.38759564e-06            7.77749333e-05           
       0.204599           -8.00625809e-05            5.01906248e-05           
       0.204938            2.75719025e-05            5.60895551e-05           
       0.205278            4.73181793e-05             5.4688499e-05           
       0.205618           -7.25439896e-05            5.74264538e-05           
       0.205957           -2.21496074e-05            6.72549665e-05           
       0.206297           -4.52705805e-05            6.45706418e-05           
       0.206636           -1.09583263e-05            6.59385622e-05           
       0.206976           -3.53558637e-05            6.34800199e-05           
       0.207316            0.000107727695            6.08849206e-05           
       0.207655           -4.11949921e-05            6.36693086e-05           
       0.207995            5.29514617e-06            7.45603875e-05           
       0.208334            2.96720669e-05            6.00515245e-05           
       0.208674           -6.30284371e-06             5.5413955e-05           
       0.209013            9.92241909e-05            6.44911912e-05           
       0.209353           -6.53984886e-05            5.37497798e-05           
       0.209693            8.81346837e-05             6.3753523e-05           
       0.210032            7.83699717e-05            6.60991918e-05           
       0.210372            5.68981802e-05            6.56210893e-05           
       0.210711           -0.000141255162            6.45119996e-05           
       0.211051           -6.48300203e-05            6.23729504e-05           
       0.211391            9.65544586e-05            5.86377859e-05           
       0.211730            7.76079334e-06            6.10078094e-05           
       0.212070            0.000101867872            6.22339691e-05           
       0.212409           -9.87757459e-05            5.07701909e-05           
       0.212749           -0.000111846128            6.72619446e-05           
       0.213088            9.33769086e-05            5.75478113e-05           
       0.213428            4.49362215e-05            5.24596441e-05           
       0.213768           -7.29252846e-05            7.75722918e-05           
       0.214107           -6.39553976e-05             5.9678881e-05           
       0.214447           -5.72666673e-05            5.83833816e-05           
       0.214786            2.86292002e-05             5.8251692e-05           
       0.215126            1.42953241e-05            6.19029546e-05           
       0.215466           -8.68901942e-05            5.91345392e-05           
       0.215805           -2.15218306e-05            6.40799548e-05           
       0.216145           -9.10187661e-05            6.53957795e-05           
       0.216484            4.11730898e-05            6.03472803e-05           
       0.216824            8.99310037e-05            5.67805461e-05           
       0.217163            7.32072433e-05            6.01963798e-05           
       0.217503            4.42898116e-05            5.13126849e-05           
       0.217843            4.80554198e-05            6.22379707e-05           
       0.218182            7.53901828e-05            6.17194882e-05           
       0.218522            0.000145946254            5.97762976e-05           
       0.218861           -3.68435564e-05            5.58175109e-05           
       0.219201             9.9533688e-05            6.55260986e-05           
       0.219541            0.000117979802            6.38582891e-05           
       0.219880           -9.81052255e-06            6.60863524e-05           
       0.220220              7.391486e-05            6.80196524e-05           
       0.220559            0.000119604502            7.44005336e-05           
       0.220899           -1.05584997e-05             9.6071403e-05           
       0.221238           -3.66342091e-05            9.51649864e-05           
       0.221578           -5.30092433e-05            0.000107636615           
       0.221918            0.000101649053             0.00016730484           
       0.222257           -6.09405265e-05            6.27452684e-05           
       0.222597           -0.000209121499            0.000151549523           
       0.222936           -0.000260573369            0.000267480975           
