################################################################################
# Data 1                                  10_10_2023_0_vd_00013-00014_azimAvg.dat
# Data 2                                  2023_10_26_0_vd_00006-00007_azimAvg.dat
# Transmission                            0.7384081565867593
# Weight                                  1.0018699158454611
# Smart_subtraction                       True
# Enhanced_transmission_correction        True
# EDF_DataBlockID                         0.Image.Psd
# EDF_BinarySize                          4637784
# EDF_HeaderSize                          3072
# ByteOrder                               LowByteFirst
# DataType                                FloatValue
# Dim_1                                   1038
# Dim_2                                   1117
# Image                                   0
# HeaderID                                EH:000000:000000:000000
# Size                                    4637784
# BIO_SYSTEM_CONF_TXT                     WAXSRES
# Center_1                                606.981
# Center_2                                651.016
# Comment                                 gamma_1X - gamma_1X_WAXS_HI_600s
# DDummy                                  0.6
# Date                                    2023-10-10T19:31:53
# Delta                                   0
# Dummy                                   -1.5
# ExposureTime                            600
# Force                                   9.91088
# Gamma                                   0
# Intensity1                              1.08521e-07
# JawsDistance                            4.54563
# JawsVelocity                            0.358589
# PSize_1                                 7.5e-05
# PSize_2                                 7.5e-05
# Pressure                                0.0967999
# SampleDistance                          0.0500003
# SampleEnvKind                           saxs
# SampleEnvPN                             Solids
# SampleEnvSN                             1012
# Strain                                  0
# Stress                                  0
# Thickness                               0
# Wavelength                              1.541891e-10
# Wavelength                              1.54189e-10
# anaB                                    0
# anaB_dial                               -0.0012015
# anaPark                                 -175.125
# anaPark_dial                            175.169
# anaXi                                   0
# anaXi_dial                              0
# anaZ                                    -9.13123e-08
# anaZ_dial                               6.2299
# aux                                     0
# aux_dial                                -0.000125
# b2c                                     0
# b2c_dial                                0
# beamx                                   603.62
# beamx_dial                              603.62
# beamz                                   653.016
# beamz_dial                              653.016
# bioZ                                    -2.90461e-08
# bioZ_dial                               -0.546695
# det0x                                   0
# det0x_dial                              6.05631
# det0xvd                                 0
# det0xvd_dial                            0
# det0y                                   50.0003
# det0y_dial                              893.512
# det0z                                   0
# det0z_dial                              6.3358
# det0zvd                                 0
# det0zvd_dial                            0
# distana                                 93.4
# distana_dial                            93.4
# mag                                     1.091
# mag_dial                                1.091
# mono1B                                  1.00136e-08
# mono1B_dial                             -0.277
# mono2B                                  1.75476e-07
# mono2B_dial                             -4.366
# mono2X                                  -1
# mono2X_dial                             3.96031
# mono2Xi                                 0
# mono2Xi_dial                            0
# monoZ                                   -11
# monoZ_dial                              -10.6609
# om                                      1.30741e-08
# om_dial                                 -0.939898
# phi                                     -4.9295e-08
# phi_dial                                -7.01716
# qana                                    0
# qana_dial                               0
# ry                                      0
# ry_dial                                 0.00149998
# s1bot                                   1.45
# s1bot_dial                              -2.02906
# s1hl                                    0.55
# s1hl_dial                               -0.47125
# s1hr                                    1.95
# s1hr_dial                               2.31625
# s1top                                   1.05
# s1top_dial                              1.23391
# s2bot                                   1.2
# s2bot_dial                              -2.09531
# s2hl                                    0.6
# s2hl_dial                               -1.365
# s2hr                                    0.8
# s2hr_dial                               -0.0153125
# s2top                                   0.2
# s2top_dial                              -1.18281
# ttdeg                                   0
# ttdeg_dial                              0
# wind                                    72.0045
# wind_dial                               72.0233
# x                                       -19.9
# x_dial                                  -19.1903
# z                                       -13.5
# z_dial                                  5.60906
# CountCutoff                             15302352
# DetectorModel                           Dectris EIGER2 Si 1M, S/N E-02-0357
# ThresholdSetting                        4023.88989258
# Saturation                              0
# FlatField                               Corrected
# BackgroundReductionExtra                0.02
# Detector                                0
# Monitor                                 0
# Pil_Roi0                                6.51142e+10
# SumForIntensity1                        6.51126e+10
# det                                     0
# mon                                     0
# pilai0                                  6.51126e+10
# pilai1                                  0
# pilct0                                  6.51147e+10
# pilct1                                  0
# pilroi0                                 6.51142e+10
# pilroi1                                 0
# sec                                     0.099
# title                                   10_10_2023_0_00013.edf
# usaxs0                                  0
# Operation                               Azimuthal average I(q)
# Error_model                             ErrorModel.poisson
# Geometrical_correction                  True
# Transmission_correction                 True
# Psi                                     0.0
# Omega                                   0.0
# TransmittedFlux_init_value              1.08521e+08
# TransmittedFlux                         108494213.19994636
# MaskInvalidPixels                       True
# DetectorEdge                            3
# Origin                                  subtracted
# Thickness_correction                    False
################################################################################
 q(A-1)                   I_subtracted(a.u.)         Sigma_I(a.u.)            
       0.009169               -247.279984              0.0547048749           
       0.015281               -182.738687              0.0340051916           
       0.021394               -123.762585               0.033109834           
       0.027506               -53.7315127              0.0269718514           
       0.033618                1.41312201              0.0240280497           
       0.039731                 3.4509535              0.0190908527           
       0.045843               -21.1563962              0.0156863079           
       0.051956               -56.2500689              0.0137796619           
       0.058068               -36.5483561              0.0105278763           
       0.064181                -14.007337             0.00794686971           
       0.070293                52.1835014             0.00635206414           
       0.076406                46.0100032             0.00419630084           
       0.082518                46.3552068             0.00308735634           
       0.088630                32.7555091             0.00201668551           
       0.094743                14.2497023             0.00119491904           
       0.100855                 7.2533734            0.000799535842           
       0.106968                1.39505019            0.000339851117           
       0.113080               0.318248353            0.000152150679           
       0.119193              0.0853660679            6.49569759e-05           
       0.125305             0.00595055692             1.8404686e-05           
       0.131418             0.00148410862            9.21782611e-06           
       0.137530            0.000674897819            6.20711354e-06           
       0.143642            0.000526869584             5.3670031e-06           
       0.149755            0.000461020905            4.60857299e-06           
       0.155867            0.000406275004            4.51369136e-06           
       0.161980            0.000372212546             4.1520552e-06           
       0.168092            0.000336957444            3.75976162e-06           
       0.174205            0.000308432485            3.61042791e-06           
       0.180317            0.000287735563            3.40278738e-06           
       0.186429            0.000267120871            3.23431962e-06           
       0.192542            0.000248895196            2.99550359e-06           
       0.198654            0.000236976684            2.90500871e-06           
       0.204767            0.000223088416            2.77307977e-06           
       0.210879            0.000213078911            2.76627637e-06           
       0.216992            0.000204470555            2.59689281e-06           
       0.223104            0.000191761651            2.39215447e-06           
       0.229217            0.000185787801            2.40610385e-06           
       0.235329            0.000178278308            2.29260452e-06           
       0.241441            0.000172886555            2.25518358e-06           
       0.247554            0.000172444344            2.18401734e-06           
       0.253666            0.000166142535            2.13884069e-06           
       0.259779            0.000158275464            2.09776962e-06           
       0.265891            0.000159344159            1.99582947e-06           
       0.272004            0.000156529013              2.004829e-06           
       0.278116            0.000151448222            1.92390381e-06           
       0.284229            0.000150459405            1.93834997e-06           
       0.290341            0.000145672982            1.87300071e-06           
       0.296453            0.000144915391            1.77521665e-06           
       0.302566            0.000144788362             1.8287278e-06           
       0.308678            0.000141006842            1.78146148e-06           
       0.314791            0.000142528546            1.77288859e-06           
       0.320903            0.000140823128            1.71545905e-06           
       0.327016             0.00014115152            1.71489931e-06           
       0.333128            0.000140877762            1.72845569e-06           
       0.339241            0.000138162386            1.64710744e-06           
       0.345353            0.000139531883            1.64161339e-06           
       0.351465            0.000138034852            1.63712431e-06           
       0.357578            0.000140086455            1.64937054e-06           
       0.363690            0.000140764237            1.60191841e-06           
       0.369803             0.00014058004            1.60526203e-06           
       0.375915            0.000137350354            1.61606764e-06           
       0.382028            0.000141551916            1.55326172e-06           
       0.388140            0.000138339077            1.55289775e-06           
       0.394253            0.000140349013            1.53020066e-06           
       0.400365            0.000141090659            1.55945823e-06           
       0.406477            0.000140037505            1.56325413e-06           
       0.412590            0.000144492694            1.52320438e-06           
       0.418702            0.000144259923            1.52781748e-06           
       0.424815            0.000147463811            1.51347889e-06           
       0.430927             0.00014626085            1.53945859e-06           
       0.437040            0.000147098656            1.47448756e-06           
       0.443152            0.000147593554            1.52630037e-06           
       0.449264            0.000151996813              1.499802e-06           
       0.455377             0.00015430073            1.50489358e-06           
       0.461489            0.000153626694            1.50486612e-06           
       0.467602            0.000156652322            1.48766185e-06           
       0.473714             0.00015956205            1.54967479e-06           
       0.479827            0.000162886492             1.4975419e-06           
       0.485939             0.00016241506            1.49191925e-06           
       0.492052            0.000165266494            1.49269907e-06           
       0.498164            0.000167063275            1.53879063e-06           
       0.504276             0.00017170708             1.4952413e-06           
       0.510389            0.000174128238            1.49539402e-06           
       0.516501             0.00017576124            1.53370888e-06           
       0.522614             0.00017933887            1.48818229e-06           
       0.528726             0.00018308868            1.52073281e-06           
       0.534839             0.00018812499            1.52669203e-06           
       0.540951            0.000188705288            1.54513362e-06           
       0.547064            0.000191297816            1.50794393e-06           
       0.553176             0.00019275288            1.53515982e-06           
       0.559288            0.000196737772            1.54826381e-06           
       0.565401            0.000197140365            1.51832205e-06           
       0.571513            0.000203070576            1.55656788e-06           
       0.577626            0.000200494508            1.50045781e-06           
       0.583738            0.000205356246            1.55852716e-06           
       0.589851            0.000206377834            1.50481994e-06           
       0.595963            0.000208248159            1.54493383e-06           
       0.602076            0.000209880795            1.52602988e-06           
       0.608188            0.000211919722            1.54199853e-06           
       0.614300            0.000213754234            1.50902359e-06           
       0.620413            0.000216568644            1.52951281e-06           
       0.626525            0.000216409861            1.55378379e-06           
       0.632638            0.000219823866             1.4990425e-06           
       0.638750            0.000218276571            1.51697426e-06           
       0.644863            0.000218913989             1.5077373e-06           
       0.650975            0.000220935846            1.52114152e-06           
       0.657088            0.000221804136            1.50015489e-06           
       0.663200            0.000218906447            1.47650505e-06           
       0.669312            0.000216312941            1.47668436e-06           
       0.675425            0.000219273213            1.48523839e-06           
       0.681537             0.00021922827            1.46014104e-06           
       0.687650            0.000214910565            1.45293591e-06           
       0.693762            0.000213221732            1.44530788e-06           
       0.699875            0.000212825258            1.42789194e-06           
       0.705987            0.000212986523            1.42696513e-06           
       0.712100            0.000210158569            1.37952243e-06           
       0.718212            0.000210578827            1.42636128e-06           
       0.724324            0.000208513777            1.39421028e-06           
       0.730437            0.000208543732            1.37175053e-06           
       0.736549            0.000201127623            1.33204345e-06           
       0.742662            0.000202709611            1.38139211e-06           
       0.748774            0.000200948532             1.3090944e-06           
       0.754887            0.000198237395            1.32506267e-06           
       0.760999            0.000195249378            1.32156505e-06           
       0.767111             0.00019785247            1.31055676e-06           
       0.773224            0.000193644784             1.2873489e-06           
       0.779336            0.000190890633            1.28396691e-06           
       0.785449            0.000188699276            1.27024724e-06           
       0.791561            0.000187116624            1.25151544e-06           
       0.797674            0.000187487347            1.26759664e-06           
       0.803786            0.000183725843            1.22505723e-06           
       0.809899            0.000186130051            1.24733101e-06           
       0.816011            0.000184118759            1.22763502e-06           
       0.822123            0.000181638839            1.23223422e-06           
       0.828236            0.000176295103             1.1767685e-06           
       0.834348             0.00018100623            1.22720015e-06           
       0.840461            0.000177730682            1.18118391e-06           
       0.846573            0.000176498239            1.19260678e-06           
       0.852686            0.000173849668            1.16478217e-06           
       0.858798            0.000177267318            1.18441314e-06           
       0.864911            0.000173992195            1.14932241e-06           
       0.871023            0.000171985058             1.1623038e-06           
       0.877135            0.000172559516            1.12729475e-06           
       0.883248            0.000173156625            1.15529832e-06           
       0.889360            0.000172560531            1.13164954e-06           
       0.895473            0.000171844901            1.13130824e-06           
       0.901585            0.000169955602            1.12189788e-06           
       0.907698            0.000170631488            1.12878524e-06           
       0.913810            0.000171940898            1.11883277e-06           
       0.919923            0.000171973098            1.13637314e-06           
       0.926035             0.00017383793            1.10009813e-06           
       0.932147            0.000172419743            1.13198913e-06           
       0.938260            0.000173765501            1.11544104e-06           
       0.944372            0.000175240809            1.11706401e-06           
       0.950485            0.000174038153            1.10499232e-06           
       0.956597            0.000174989159             1.1201611e-06           
       0.962710            0.000174339022            1.08963258e-06           
       0.968822            0.000177329996            1.12596318e-06           
       0.974935            0.000178092771            1.07969891e-06           
       0.981047            0.000176712841            1.10611966e-06           
       0.987159            0.000181391299            1.11510841e-06           
       0.993272            0.000181832731            1.09213109e-06           
       0.999384            0.000183148413            1.11097407e-06           
       1.005497            0.000184623091            1.11562214e-06           
       1.011609            0.000185821011            1.09906971e-06           
       1.017722            0.000185948608            1.12845669e-06           
       1.023834            0.000190459913            1.09211508e-06           
       1.029947            0.000192625299            1.14674812e-06           
       1.036059             0.00019418275            1.10614982e-06           
       1.042171            0.000194903254            1.13062444e-06           
       1.048284            0.000198525887            1.13683262e-06           
       1.054396            0.000200016421            1.11127908e-06           
       1.060509            0.000202223556            1.12568587e-06           
       1.066621            0.000203906827            1.11538297e-06           
       1.072734            0.000206801166            1.15112465e-06           
       1.078846            0.000209040153            1.12857216e-06           
       1.084958            0.000210941456            1.14150782e-06           
       1.091071            0.000215573477            1.16548068e-06           
       1.097183            0.000216987996            1.14411793e-06           
       1.103296             0.00022067355            1.15973393e-06           
       1.109408            0.000222752327            1.16323374e-06           
       1.115521            0.000225222316             1.1586233e-06           
       1.121633            0.000227579262            1.18131847e-06           
       1.127746            0.000232418283            1.14906398e-06           
       1.133858            0.000233794541            1.18126297e-06           
       1.139970            0.000238922339            1.16677092e-06           
       1.146083            0.000241599174            1.19787318e-06           
       1.152195            0.000247012149             1.1877492e-06           
       1.158308            0.000249447933            1.21568856e-06           
       1.164420            0.000254904294            1.20325459e-06           
       1.170533            0.000257173468            1.22174427e-06           
       1.176645            0.000261268722            1.21843464e-06           
       1.182758            0.000264188044            1.23036168e-06           
       1.188870            0.000270634047            1.22965295e-06           
       1.194982            0.000273310493             1.2248246e-06           
       1.201095            0.000276108193            1.23645705e-06           
       1.207207            0.000279541883            1.24445788e-06           
       1.213320             0.00028416193            1.25004846e-06           
       1.219432            0.000289172952            1.26938531e-06           
       1.225545             0.00029626648             1.2682871e-06           
       1.231657             0.00030222064            1.29188387e-06           
       1.237770            0.000305187968            1.28644291e-06           
       1.243882            0.000312158322            1.28382542e-06           
       1.249994            0.000314599686            1.29237198e-06           
       1.256107             0.00032252348            1.29806555e-06           
       1.262219             0.00032736015             1.3217353e-06           
       1.268332             0.00033232848            1.31799797e-06           
       1.274444            0.000340678045            1.35706369e-06           
       1.280557            0.000346628266              1.332046e-06           
       1.286669            0.000352938678            1.36520485e-06           
       1.292782            0.000361975029            1.36611025e-06           
       1.298894            0.000369554959            1.37144707e-06           
       1.305006            0.000378687595             1.3896139e-06           
       1.311119            0.000388656341            1.40692645e-06           
       1.317231              0.0004013012            1.41639117e-06           
       1.323344            0.000409992163            1.45660705e-06           
       1.329456            0.000424114144             1.4425142e-06           
       1.335569            0.000430180639            1.49009025e-06           
       1.341681             0.00044064969             1.4853551e-06           
       1.347793             0.00045245265             1.4666788e-06           
       1.353906            0.000459907316            1.51596308e-06           
       1.360018            0.000465967807            1.49537848e-06           
       1.366131            0.000472279905             1.5395262e-06           
       1.372243            0.000475577503            1.50960756e-06           
       1.378356            0.000479451585            1.54294472e-06           
       1.384468            0.000478787031            1.52509497e-06           
       1.390581            0.000477601292            1.48862468e-06           
       1.396693            0.000469695923            1.50075417e-06           
       1.402805            0.000464990262            1.48257314e-06           
       1.408918            0.000456280549            1.46362971e-06           
       1.415030            0.000447506511            1.46992951e-06           
       1.421143            0.000441691108            1.44729077e-06           
       1.427255            0.000431830263             1.4128388e-06           
       1.433368            0.000420370671            1.40071967e-06           
       1.439480            0.000412144923            1.36365243e-06           
       1.445593            0.000405052235            1.36805603e-06           
       1.451705            0.000394098224            1.35987509e-06           
       1.457817              0.0003905304            1.32865724e-06           
       1.463930            0.000380601349             1.3429655e-06           
       1.470042            0.000375569921            1.28501056e-06           
       1.476155            0.000371473228            1.28163196e-06           
       1.482267            0.000366209916            1.29706492e-06           
       1.488380            0.000361836809            1.27170857e-06           
       1.494492            0.000358194431            1.27417285e-06           
       1.500605            0.000354319325            1.26534654e-06           
       1.506717            0.000352470287            1.23030505e-06           
       1.512829            0.000348871325             1.2421888e-06           
       1.518942            0.000342564635              1.222892e-06           
       1.525054            0.000338045368            1.21866734e-06           
       1.531167            0.000336523045            1.21808858e-06           
       1.537279            0.000329846184            1.20475122e-06           
       1.543392             0.00032710164            1.17632168e-06           
       1.549504            0.000323077478             1.1768789e-06           
       1.555617            0.000318731662            1.17853453e-06           
       1.561729            0.000312820867            1.15621178e-06           
       1.567841            0.000311487259            1.15431356e-06           
       1.573954            0.000309724149            1.14133875e-06           
       1.580066            0.000302886452            1.12855746e-06           
       1.586179             0.00030077082            1.12063283e-06           
       1.592291            0.000298802934            1.12424972e-06           
       1.598404            0.000296042004            1.12125438e-06           
       1.604516            0.000295105751            1.09380116e-06           
       1.610629            0.000292373785            1.10010827e-06           
       1.616741            0.000292236877            1.10834991e-06           
       1.622853            0.000290171022            1.08943256e-06           
       1.628966            0.000288865418            1.09135528e-06           
       1.635078            0.000289147558              1.084043e-06           
       1.641191            0.000287836926            1.08225603e-06           
       1.647303            0.000288255374            1.07976236e-06           
       1.653416            0.000285283207            1.07727306e-06           
       1.659528            0.000285899666            1.08662829e-06           
       1.665640            0.000285680103            1.05044637e-06           
       1.671753            0.000285196935            1.06650932e-06           
       1.677865            0.000282384614            1.07166861e-06           
       1.683978            0.000281585539            1.06261037e-06           
       1.690090            0.000281406365            1.04015375e-06           
       1.696203            0.000279868405            1.04524197e-06           
       1.702315            0.000277654791            1.04969783e-06           
       1.708428            0.000276550925            1.04939382e-06           
       1.714540            0.000273479779            1.03193456e-06           
       1.720652            0.000270728696              1.015114e-06           
       1.726765            0.000265700884            1.01302025e-06           
       1.732877            0.000265565173            1.02424977e-06           
       1.738990            0.000263498319            1.00465645e-06           
       1.745102            0.000259050407            9.91843879e-07           
       1.751215            0.000258030232            9.88134994e-07           
       1.757327            0.000255611713            9.91016982e-07           
       1.763440            0.000249313633            9.72906716e-07           
       1.769552            0.000248579503             9.6217919e-07           
       1.775664            0.000244683525            9.61577473e-07           
       1.781777            0.000241829936            9.55032265e-07           
       1.787889            0.000240342871            9.52938795e-07           
       1.794002            0.000236255796            9.30410265e-07           
       1.800114            0.000232284223            9.28746309e-07           
       1.806227            0.000231270667            9.30665324e-07           
       1.812339            0.000228774447            9.21665354e-07           
       1.818452            0.000225904603            9.03691005e-07           
       1.824564            0.000223501852            9.06833869e-07           
       1.830676            0.000221646413            9.08114319e-07           
       1.836789            0.000219653577            8.96446595e-07           
       1.842901             0.00021797894            8.74214317e-07           
       1.849014            0.000216406233            8.89589393e-07           
       1.855126            0.000213909715            8.81751185e-07           
       1.861239            0.000212189708            8.79582266e-07           
       1.867351            0.000212103571            8.67491068e-07           
       1.873464            0.000211355001             8.6713692e-07           
       1.879576            0.000207530644            8.67457311e-07           
       1.885688            0.000207954434            8.48249731e-07           
       1.891801            0.000206336003            8.55677517e-07           
       1.897913             0.00020602379            8.58783357e-07           
       1.904026            0.000203990644            8.42075079e-07           
       1.910138            0.000200969849            8.34119673e-07           
       1.916251            0.000200505353            8.44587344e-07           
       1.922363            0.000199070115            8.33639915e-07           
       1.928476            0.000196653739            8.21824315e-07           
       1.934588            0.000196625118             8.3127477e-07           
       1.940700             0.00019446952            8.26845307e-07           
       1.946813            0.000192481361            7.97614337e-07           
       1.952925            0.000190532814            8.08654202e-07           
       1.959038            0.000190150752             8.1146554e-07           
       1.965150            0.000187717344            7.94920906e-07           
       1.971263            0.000184784092            7.93197369e-07           
       1.977375            0.000183223433            7.96687431e-07           
       1.983487            0.000180473388            7.71997149e-07           
       1.989600            0.000179014009            7.78989651e-07           
       1.995712             0.00017738839            7.74841949e-07           
       2.001825            0.000176363108            7.64274118e-07           
       2.007937            0.000175269158            7.64475477e-07           
       2.014050            0.000173859741            7.64493531e-07           
       2.020162             0.00017129746            7.49322709e-07           
       2.026275            0.000169452006              7.523169e-07           
       2.032387            0.000169920212            7.55143718e-07           
       2.038499            0.000167490263            7.35938503e-07           
       2.044612            0.000166630587            7.40209541e-07           
       2.050724            0.000164853107            7.39865681e-07           
       2.056837            0.000163587624             7.2132226e-07           
       2.062949            0.000162195189            7.28315227e-07           
       2.069062            0.000160914413            7.24358935e-07           
       2.075174            0.000160200208             7.1825106e-07           
       2.081287            0.000158141634            7.17650776e-07           
       2.087399            0.000156850694            7.09223935e-07           
       2.093511            0.000158894736            7.12468556e-07           
       2.099624            0.000155680055            7.09973303e-07           
       2.105736            0.000154727315            7.00596208e-07           
       2.111849            0.000155901017            7.06404761e-07           
       2.117961            0.000152315332            6.92954164e-07           
       2.124074            0.000151530466            6.92205144e-07           
       2.130186            0.000152942968            6.96234474e-07           
       2.136299            0.000150799083            6.86381891e-07           
       2.142411             0.00015028819            6.86785241e-07           
       2.148523            0.000149784107            6.88420698e-07           
       2.154636             0.00014817995            6.77297227e-07           
       2.160748             0.00014639568            6.76564012e-07           
       2.166861            0.000147525072            6.72189649e-07           
       2.172973            0.000147263593            6.70503785e-07           
       2.179086            0.000146213903             6.7565996e-07           
       2.185198            0.000145540857            6.65680588e-07           
       2.191311            0.000144723546            6.72253703e-07           
       2.197423            0.000144500174            6.61657495e-07           
       2.203535            0.000143454205            6.61845391e-07           
       2.209648            0.000144477571            6.60610751e-07           
       2.215760            0.000143174638            6.61562961e-07           
       2.221873            0.000142855784            6.58086628e-07           
       2.227985            0.000142420986            6.54555255e-07           
       2.234098            0.000142615631            6.56589359e-07           
       2.240210            0.000142133594            6.48294612e-07           
       2.246322            0.000141881965            6.53885663e-07           
       2.252435             0.00014131112            6.46953926e-07           
       2.258547            0.000141590385            6.49357769e-07           
       2.264660            0.000140489978            6.43913602e-07           
       2.270772            0.000139445006            6.45825036e-07           
       2.276885            0.000140484539            6.43978353e-07           
       2.282997             0.00014084763            6.42263217e-07           
       2.289110            0.000139362868            6.50632675e-07           
       2.295222            0.000139575473            6.38370974e-07           
       2.301334            0.000139759353            6.60417619e-07           
       2.307447            0.000139134695            6.48199033e-07           
       2.313559            0.000139340213            6.57851983e-07           
       2.319672            0.000138212321            6.51200486e-07           
       2.325784            0.000138016888            6.51484243e-07           
       2.331897            0.000138007442            6.48524088e-07           
       2.338009            0.000136768734            6.55911547e-07           
       2.344122            0.000137563113            6.47445436e-07           
       2.350234            0.000136670121             6.5680247e-07           
       2.356346            0.000135811971            6.49533289e-07           
       2.362459            0.000136302098            6.52765459e-07           
       2.368571            0.000134846968            6.49630875e-07           
       2.374684            0.000135034091            6.48155967e-07           
       2.380796            0.000135390642            6.47609822e-07           
       2.386909            0.000133636054            6.54132217e-07           
       2.393021            0.000134497013             6.4519116e-07           
       2.399134            0.000133204487             6.5148021e-07           
       2.405246            0.000131754239            6.40895512e-07           
       2.411358              0.0001322955            6.43283521e-07           
       2.417471            0.000131527524            6.44977935e-07           
       2.423583            0.000130367187            6.40283024e-07           
       2.429696            0.000131201867            6.46955672e-07           
       2.435808            0.000130669307            6.43170002e-07           
       2.441921            0.000130935417            6.53568291e-07           
       2.448033            0.000129674082            6.51975329e-07           
       2.454146            0.000129705839            6.60593623e-07           
       2.460258            0.000129852064            6.57383058e-07           
       2.466370            0.000129911881             6.6942994e-07           
       2.472483            0.000128768263            6.56261652e-07           
       2.478595            0.000129401075            6.66882461e-07           
       2.484708            0.000128291639            6.70801483e-07           
       2.490820             0.00012804559            6.66146048e-07           
       2.496933            0.000127581003            6.69009934e-07           
       2.503045            0.000126706547            6.63244792e-07           
       2.509158            0.000126236537            6.74579428e-07           
       2.515270            0.000127019553            6.72797548e-07           
       2.521382            0.000126928895            6.68458449e-07           
       2.527495            0.000127396613            6.78041182e-07           
       2.533607            0.000125870204            6.73809056e-07           
       2.539720            0.000124208706            6.72592306e-07           
       2.545832             0.00012540742            6.74779983e-07           
       2.551945            0.000124706864            6.73163817e-07           
       2.558057            0.000124534697            6.79665842e-07           
       2.564169            0.000125737246            6.78027675e-07           
       2.570282             0.00012506121            6.76969999e-07           
       2.576394            0.000124537943            6.85991237e-07           
       2.582507            0.000125652166            6.78710797e-07           
       2.588619            0.000124265057            6.80291276e-07           
       2.594732            0.000124605461            6.91615906e-07           
       2.600844            0.000123951046            6.77622499e-07           
       2.606957            0.000123724902            6.81839148e-07           
       2.613069            0.000125595192            6.91010955e-07           
       2.619181            0.000124260554            6.90144641e-07           
       2.625294            0.000123784417            6.85410198e-07           
       2.631406             0.00012303696            6.83146081e-07           
       2.637519             0.00012358602            6.92435601e-07           
       2.643631            0.000124348722            6.93279297e-07           
       2.649744            0.000123129715            6.86808887e-07           
       2.655856            0.000123499876            6.95763262e-07           
       2.661969            0.000123978188            6.88423296e-07           
       2.668081            0.000124607214            6.96496584e-07           
       2.674193             0.00012375354            6.97807316e-07           
       2.680306            0.000123926555            7.00940062e-07           
       2.686418            0.000124367034            6.99008293e-07           
       2.692531            0.000122060192            6.89785494e-07           
       2.698643            0.000122509519            7.02807691e-07           
       2.704756            0.000123894837             6.9647629e-07           
       2.710868            0.000124768043            7.04202084e-07           
       2.716981            0.000121273361            6.93913526e-07           
       2.723093            0.000121604425            7.03392056e-07           
       2.729205            0.000123923963            7.00551895e-07           
       2.735318            0.000123813413            7.05743727e-07           
       2.741430            0.000122740157            7.03519252e-07           
       2.747543             0.00012182143            7.03232069e-07           
       2.753655            0.000121155727            6.99441728e-07           
       2.759768            0.000122542276            7.08607045e-07           
       2.765880            0.000122743145            7.02669772e-07           
       2.771993            0.000122316657            7.10606097e-07           
       2.778105             0.00012188498             7.0568065e-07           
       2.784217            0.000122053732            7.09656708e-07           
       2.790330            0.000120630906            7.02503297e-07           
       2.796442            0.000121911918            7.07596704e-07           
       2.802555            0.000120014564            7.07431668e-07           
       2.808667            0.000120519157             7.0647349e-07           
       2.814780            0.000121210954            7.16611357e-07           
       2.820892            0.000119165558            7.00892619e-07           
       2.827005            0.000119465017            7.04095602e-07           
       2.833117            0.000119703296            7.08706847e-07           
       2.839229             0.00011975597            7.06994825e-07           
       2.845342            0.000120109155            7.12471829e-07           
       2.851454            0.000121002631            7.14472874e-07           
       2.857567             0.00012136436             7.1844273e-07           
       2.863679            0.000119688168            7.14898059e-07           
       2.869792             0.00011933421            7.08618915e-07           
       2.875904            0.000118448464            7.07475321e-07           
       2.882016            0.000118903632            7.15141455e-07           
       2.888129            0.000118382388            7.13286341e-07           
       2.894241            0.000118972657            7.10348433e-07           
       2.900354            0.000118760811            7.14304564e-07           
       2.906466            0.000116365058            7.12418383e-07           
       2.912579            0.000117694337            7.10185122e-07           
       2.918691            0.000116349974            7.08310227e-07           
       2.924804            0.000116632444            7.12386549e-07           
       2.930916            0.000115691957            7.13823496e-07           
       2.937028            0.000115906144            7.23975844e-07           
       2.943141            0.000114803423            7.34799954e-07           
       2.949253            0.000114587608            7.39277178e-07           
       2.955366            0.000113605192            7.51067812e-07           
       2.961478            0.000112404884            7.51478386e-07           
       2.967591            0.000115343636            7.65159625e-07           
       2.973703            0.000113183336            7.58199792e-07           
       2.979816            0.000112601253            7.60976453e-07           
       2.985928            0.000113514893            7.70039958e-07           
       2.992040            0.000113083046            7.74006654e-07           
       2.998153            0.000110514518            7.67539158e-07           
       3.004265            0.000111183507            7.73654754e-07           
       3.010378             0.00011126375            7.80067058e-07           
       3.016490            0.000110789604            7.84970103e-07           
       3.022603            0.000110079024            7.78525512e-07           
       3.028715            0.000111349022            7.94308148e-07           
       3.034828            0.000110565419            7.89219456e-07           
       3.040940             0.00010968141            7.93028039e-07           
       3.047052            0.000109351115            7.94058425e-07           
       3.053165            0.000107738619            7.90464968e-07           
       3.059277            0.000109662361            8.03026641e-07           
       3.065390             0.00010954939            8.13314662e-07           
       3.071502            0.000108731301            8.29918299e-07           
       3.077615            0.000108291626            8.49514846e-07           
       3.083727            0.000108644511            8.65418314e-07           
       3.089840            0.000107241315            8.70328469e-07           
       3.095952            0.000107093565            8.85548436e-07           
       3.102064            0.000106716645            8.93580357e-07           
       3.108177            0.000105696618            9.02262293e-07           
       3.114289            0.000106163699            9.19621748e-07           
       3.120402            0.000106564432            9.30257366e-07           
       3.126514            0.000108294438            9.48720854e-07           
       3.132627            0.000107128051            9.53788599e-07           
       3.138739            0.000106777943            9.67948208e-07           
       3.144851            0.000105152577            9.73908386e-07           
       3.150964            0.000104540013             9.8336422e-07           
       3.157076            0.000103885088            9.91252086e-07           
       3.163189            0.000104064022            1.00296295e-06           
       3.169301            0.000103428387            1.01332278e-06           
       3.175414            0.000100968541            1.01412727e-06           
       3.181526            0.000101466013            1.03162248e-06           
       3.187639            0.000101058597            1.04365129e-06           
       3.193751            0.000100566622            1.05294858e-06           
       3.199863            0.000100124264            1.06522527e-06           
       3.205976            0.000100594853            1.07915773e-06           
       3.212088            9.85848995e-05            1.09011966e-06           
       3.218201            9.92399259e-05            1.10775963e-06           
       3.224313            9.88162394e-05            1.11776338e-06           
       3.230426            9.59453284e-05            1.11230311e-06           
       3.236538            9.63200852e-05            1.13622893e-06           
       3.242651            9.60883921e-05            1.15298734e-06           
       3.248763            9.26761576e-05            1.15536654e-06           
       3.254875            9.52912846e-05            1.17759947e-06           
       3.260988            9.39744116e-05            1.19657641e-06           
       3.267100            9.19525418e-05            1.19497819e-06           
       3.273213            9.37891042e-05            1.23476437e-06           
       3.279325            9.30510766e-05            1.25221349e-06           
       3.285438            9.08924171e-05            1.26306856e-06           
       3.291550            9.00651846e-05            1.29652604e-06           
       3.297663            9.17580597e-05            1.32778777e-06           
       3.303775            9.00441284e-05            1.35083519e-06           
       3.309887            9.14252478e-05            1.39199018e-06           
       3.316000            9.01460122e-05            1.39892974e-06           
       3.322112             8.8803666e-05            1.43277461e-06           
       3.328225            8.86696261e-05            1.44460839e-06           
       3.334337            8.83538469e-05            1.49487123e-06           
       3.340450            8.23932281e-05            1.46179081e-06           
       3.346562            8.48800055e-05            1.54377262e-06           
       3.352675            8.06426368e-05            1.52157921e-06           
       3.358787            8.46933394e-05            1.60980585e-06           
       3.364899            8.36814579e-05            1.62972515e-06           
       3.371012            8.35672698e-05            1.64829059e-06           
       3.377124            8.34816203e-05            1.70604134e-06           
       3.383237            7.77448155e-05            1.66149913e-06           
       3.389349            8.50796506e-05            1.80182088e-06           
       3.395462            7.96209662e-05            1.78105383e-06           
       3.401574            7.96968183e-05            1.78590658e-06           
       3.407687            8.17406696e-05            1.85505468e-06           
       3.413799            8.01579891e-05            1.86534259e-06           
       3.419911            7.74116873e-05             1.8450313e-06           
       3.426024             7.9848584e-05            1.91084047e-06           
       3.432136            7.68549865e-05            1.92658183e-06           
       3.438249            7.51802813e-05            1.90742329e-06           
       3.444361            7.50839792e-05             1.9369061e-06           
       3.450474            7.29515303e-05            1.95025622e-06           
       3.456586            7.66372413e-05            2.04017851e-06           
       3.462698            7.48079917e-05             2.0606071e-06           
       3.468811            7.53770745e-05            2.09487326e-06           
       3.474923             7.3822139e-05            2.09995322e-06           
       3.481036            7.27864891e-05            2.13825805e-06           
       3.487148            7.76579424e-05            2.23915366e-06           
       3.493261            7.41386787e-05            2.24953831e-06           
       3.499373            7.51428027e-05            2.31226941e-06           
       3.505486             7.1897101e-05            2.33580162e-06           
       3.511598            7.18928976e-05            2.37140704e-06           
       3.517710            7.38613503e-05            2.47676703e-06           
       3.523823            7.15085834e-05            2.48685791e-06           
       3.529935            7.66614909e-05            2.66135339e-06           
       3.536048            7.53831399e-05            2.72577957e-06           
       3.542160            7.13978287e-05            2.72262128e-06           
       3.548273            7.07940189e-05            2.81691605e-06           
       3.554385            7.40026249e-05            2.98834941e-06           
       3.560498            7.68301399e-05            3.15968607e-06           
       3.566610            7.03540717e-05            3.18561387e-06           
       3.572722            7.24624164e-05            3.34957954e-06           
       3.578835            6.63330423e-05            3.36530725e-06           
       3.584947            7.32330843e-05            3.71042018e-06           
       3.591060             6.9537906e-05            3.86747983e-06           
       3.597172             7.3959153e-05              4.301053e-06           
       3.603285            7.35577358e-05            4.58064724e-06           
       3.609397            7.51467226e-05            5.19869994e-06           
       3.615510            6.79486695e-05            5.44246037e-06           
       3.621622            7.20594425e-05            6.53950504e-06           
       3.627734            5.87409416e-05              7.283046e-06           
       3.633847            6.37922858e-05            1.31276925e-05           
