################################################################################
# EDF_DataBlockID                   0.Image.Psd
# EDF_BinarySize                    4637784
# EDF_HeaderSize                    3072
# ByteOrder                         LowByteFirst
# DataType                          FloatValue
# Dim_1                             1038
# Dim_2                             1117
# Image                             0
# HeaderID                          EH:000000:000000:000000
# Size                              4637784
# BIO_SYSTEM_CONF_TXT               WAXSRES
# Center_1                          606.875
# Center_2                          651.034
# Comment                           alpha_0X - alpha_0X_SAXS_HI_1200s
# DDummy                            0.6
# Date                              2023-10-11T03:03:57
# Delta                             0
# Dummy                             -1.5
# ExposureTime                      1200
# Force                             9.91088
# Gamma                             0
# Intensity1                        4.46235e-08
# JawsDistance                      4.54563
# JawsVelocity                      0.358589
# PSize_1                           7.5e-05
# PSize_2                           7.5e-05
# Pressure                          0.0778961
# SampleDistance                    0.899998
# SampleEnvKind                     saxs
# SampleEnvPN                       Solids
# SampleEnvSN                       1012
# Strain                            0
# Stress                            0
# Thickness                         0
# Wavelength                        1.541891e-10
# Wavelength                        1.54189e-10
# anaB                              0
# anaB_dial                         -0.0012015
# anaPark                           -175.125
# anaPark_dial                      175.169
# anaXi                             0
# anaXi_dial                        0
# anaZ                              -9.13123e-08
# anaZ_dial                         6.2299
# aux                               0
# aux_dial                          -0.000125
# b2c                               0
# b2c_dial                          0
# beamx                             602.698
# beamx_dial                        602.698
# beamz                             651.159
# beamz_dial                        651.159
# bioZ                              -2.90461e-08
# bioZ_dial                         -0.546695
# det0x                             0
# det0x_dial                        3.98621
# det0xvd                           0
# det0xvd_dial                      0
# det0y                             899.998
# det0y_dial                        43.5135
# det0z                             0
# det0z_dial                        7.30833
# det0zvd                           0
# det0zvd_dial                      0
# distana                           93.4
# distana_dial                      93.4
# mag                               2.6365
# mag_dial                          2.6365
# mono1B                            1.00136e-08
# mono1B_dial                       -0.277
# mono2B                            1.75476e-07
# mono2B_dial                       -4.366
# mono2X                            -1
# mono2X_dial                       3.96031
# mono2Xi                           0
# mono2Xi_dial                      0
# monoZ                             -11
# monoZ_dial                        -10.6609
# om                                1.30741e-08
# om_dial                           -0.939898
# phi                               -4.9295e-08
# phi_dial                          -7.01716
# qana                              0
# qana_dial                         0
# ry                                0
# ry_dial                           0.00149998
# s1bot                             1
# s1bot_dial                        -1.57906
# s1hl                              0.1
# s1hl_dial                         -0.02125
# s1hr                              1.5
# s1hr_dial                         1.86625
# s1top                             0.6
# s1top_dial                        0.783906
# s2bot                             0.95
# s2bot_dial                        -1.84531
# s2hl                              0.35
# s2hl_dial                         -1.115
# s2hr                              0.55
# s2hr_dial                         -0.265313
# s2top                             -0.05
# s2top_dial                        -1.43281
# ttdeg                             0
# ttdeg_dial                        0
# wind                              72.0045
# wind_dial                         72.0233
# x                                 -41
# x_dial                            -40.2903
# z                                 -13.5
# z_dial                            5.60906
# CountCutoff                       15302352
# DetectorModel                     Dectris EIGER2 Si 1M, S/N E-02-0357
# ThresholdSetting                  4023.88989258
# Saturation                        0
# FlatField                         Corrected
# BackgroundReductionExtra          0.02
# Detector                          0
# Monitor                           0
# Pil_Roi0                          5.35482e+10
# SumForIntensity1                  5.35482e+10
# det                               0
# mon                               0
# pilai0                            5.35482e+10
# pilai1                            0
# pilct0                            5.35482e+10
# pilct1                            0
# pilroi0                           5.35482e+10
# pilroi1                           0
# sec                               0.099
# title                             10_10_2023_0_00041.edf
# usaxs0                            0
# Operation                         Azimuthal average I(q)
# Error_model                       ErrorModel.poisson
# Geometrical_correction            True
# Transmission_correction           True
# Thickness_correction              False
# Psi                               0.0
# Omega                             0.0
# TransmittedFlux_init_value        4.46235e+07
# TransmittedFlux                   44623188.616574995
# MaskInvalidPixels                 True
# DetectorEdge                      3
# PsiMin                            80.0
# PsiMax                            100.0
################################################################################
    q(A⁻¹)                Intensity(a.u.)            Sigma_I(a.u.)            
       0.000849                592875.198                28.2342344           
       0.001189                571529.934                27.7213182           
       0.001528                526790.107                18.8190724           
       0.001868                448159.207                17.3578365           
       0.002207                363680.496                15.6364969           
       0.002547                284137.873                13.8211459           
       0.002886                216073.133                9.84088785           
       0.003226                153353.707                7.17978948           
       0.003566                103536.448                5.89944622           
       0.003905                66209.7882                4.71765052           
       0.004245                41439.6425                3.73226714           
       0.004584                23679.7221                 2.6599705           
       0.004924                15533.5336                2.04383094           
       0.005264                10853.3084                1.55955378           
       0.005603                7811.44586                1.32307685           
       0.005943                5428.71512                1.10298082           
       0.006282                3595.31031               0.897610048           
       0.006622                2171.50248               0.645842134           
       0.006961                1244.77822               0.488981344           
       0.007301                638.327368               0.327545892           
       0.007641                259.941975               0.209020427           
       0.007980                53.9068399              0.0951858877           
       0.008320                7.19361742              0.0347715783           
       0.008659                1.66466644              0.0157702364           
       0.008999               0.768820865              0.0101673681           
       0.009339               0.445510997             0.00773972096           
       0.009678               0.268953296             0.00601360158           
       0.010018                0.15480283             0.00456232054           
       0.010357              0.0809623136             0.00329942255           
       0.010697              0.0556624067             0.00255110711           
       0.011036              0.0482359272             0.00237483351           
       0.011376              0.0454977757             0.00225788271           
       0.011716              0.0429652551              0.0021498134           
       0.012055              0.0384033121              0.0020743926           
       0.012395               0.037034526             0.00203708979           
       0.012734              0.0336260803             0.00186493632           
       0.013074              0.0335485923             0.00182796553           
       0.013414              0.0307969915             0.00171983996           
       0.013753              0.0288680363             0.00166510909           
       0.014093              0.0284382473             0.00162392395           
       0.014432              0.0241516457             0.00152302775           
       0.014772              0.0246727708              0.0014629914           
       0.015111              0.0224683868             0.00137412048           
       0.015451              0.0209045019             0.00132543666           
       0.015791              0.0192921068             0.00127329521           
       0.016130              0.0188221918             0.00123849029           
       0.016470              0.0181308069             0.00121553171           
       0.016809              0.0164728911             0.00114145914           
       0.017149              0.0157511956              0.0010847275           
       0.017489              0.0141834871             0.00101532719           
       0.017828              0.0160588681             0.00109527159           
       0.018168              0.0150334748             0.00105972769           
       0.018507              0.0149902049              0.0010166877           
       0.018847              0.0125536563            0.000942561421           
       0.019186              0.0108556265            0.000854307148           
       0.019526              0.0134057114            0.000949361867           
       0.019866              0.0115089658            0.000868847055           
       0.020205              0.0114553894            0.000877591308           
       0.020545             0.00884373029            0.000752507354           
       0.020884              0.0111253477            0.000824609587           
       0.021224              0.0103965339            0.000788235945           
       0.021564             0.00960070951            0.000766026543           
       0.021903              0.0100807212            0.000784943222           
       0.022243             0.00867081201            0.000711983691           
       0.022582             0.00815674298            0.000690555914           
       0.022922             0.00672816475            0.000613970306           
       0.023261             0.00884355704            0.000703903064           
       0.023601             0.00780057776            0.000654313141           
       0.023941              0.0104888811            0.000766592523           
       0.024280             0.00744010849            0.000632594728           
       0.024620             0.00877962213            0.000687185791           
       0.024959             0.00796135678            0.000641672551           
       0.025299             0.00631392764             0.00057143923           
       0.025639             0.00667379621            0.000581930071           
       0.025978             0.00564431784            0.000540289676           
       0.026318             0.00682222325            0.000582893271           
       0.026657             0.00668263149            0.000566504096           
       0.026997             0.00600251524            0.000532173051           
       0.027336             0.00543106039            0.000510707618           
       0.027676             0.00658790744            0.000562476173           
       0.028016             0.00645462731            0.000547074361           
       0.028355              0.0057472903            0.000516229384           
       0.028695             0.00600836436            0.000518953013           
       0.029034             0.00575381578            0.000507841592           
       0.029374              0.0059614974            0.000512671372           
       0.029714             0.00485542084            0.000466513821           
       0.030053             0.00656526391            0.000533651028           
       0.030393             0.00516416246             0.00047329466           
       0.030732             0.00552213248            0.000481716292           
       0.031072             0.00524294079            0.000469381329           
       0.031411             0.00472367886            0.000445532029           
       0.031751             0.00410442555            0.000415303277           
       0.032091             0.00490224414            0.000443598074           
       0.032430             0.00435498805            0.000415020021           
       0.032770             0.00414853306            0.000405063653           
       0.033109             0.00470621819            0.000431432108           
       0.033449             0.00384863248            0.000390148639           
       0.033789             0.00420045306            0.000404627414           
       0.034128             0.00450065595            0.000415835084           
       0.034468             0.00417336194            0.000397600159           
       0.034807              0.0038577973            0.000379609095           
       0.035147             0.00382748443            0.000375516399           
       0.035486             0.00395223174            0.000384228032           
       0.035826             0.00441975175            0.000403526515           
       0.036166             0.00426684973            0.000391163289           
       0.036505             0.00352236977            0.000357797371           
       0.036845             0.00342749248            0.000348271128           
       0.037184             0.00356995821            0.000355435886           
       0.037524             0.00397558482              0.0003726423           
       0.037864             0.00438172991             0.00039377987           
       0.038203             0.00358130443            0.000351407741           
       0.038543              0.0039473967            0.000362035694           
       0.038882             0.00451503276            0.000387192535           
       0.039222             0.00334228274            0.000333133755           
       0.039561             0.00332572956            0.000334378661           
       0.039901             0.00409924041            0.000371233629           
       0.040241             0.00441100724            0.000378068922           
       0.040580             0.00387932584            0.000352435919           
       0.040920             0.00353494071            0.000332494192           
       0.041259             0.00352914303            0.000336153596           
       0.041599             0.00408339072            0.000359454837           
       0.041939             0.00366755586             0.00033867491           
       0.042278              0.0034084024            0.000326490572           
       0.042618             0.00368129706            0.000331683742           
       0.042957             0.00342673981            0.000323627046           
       0.043297              0.0033030619            0.000317733621           
       0.043636             0.00327159242            0.000314435321           
       0.043976             0.00320043045            0.000309264633           
       0.044316             0.00327907447            0.000309620441           
       0.044655             0.00297742172            0.000293445324           
       0.044995             0.00345910573            0.000318007304           
       0.045334             0.00330419205              0.0003108053           
       0.045674             0.00342620147            0.000316492065           
       0.046014             0.00367916758            0.000322748242           
       0.046353             0.00297815832            0.000288861587           
       0.046693             0.00316384768            0.000296192498           
       0.047032             0.00349889525             0.00031148158           
       0.047372              0.0030498715            0.000292320013           
       0.047711             0.00282193626            0.000278300886           
       0.048051             0.00319392356            0.000293100748           
       0.048391             0.00309992696             0.00028732298           
       0.048730             0.00321599097            0.000294112428           
       0.049070             0.00313896918            0.000290569576           
       0.049409             0.00302950196            0.000284041764           
       0.049749             0.00335614395            0.000297493949           
       0.050089             0.00293564534            0.000274230492           
       0.050428             0.00318911806            0.000285824809           
       0.050768             0.00317950514            0.000286762952           
       0.051107             0.00265967007            0.000262275567           
       0.051447             0.00256014341            0.000257321918           
       0.051786             0.00283981758            0.000267187001           
       0.052126             0.00282466269               0.000265237           
       0.052466             0.00305765032             0.00027595954           
       0.052805             0.00274880245            0.000260448942           
       0.053145             0.00319567497            0.000282120218           
       0.053484             0.00279441541            0.000261405452           
       0.053824             0.00287179796             0.00026500057           
       0.054164             0.00250208951             0.00024405018           
       0.054503             0.00287667959            0.000261682201           
       0.054843             0.00263785377            0.000251700881           
       0.055182             0.00308345753            0.000270924877           
       0.055522             0.00287191379            0.000260317364           
       0.055861              0.0028708754            0.000258017275           
       0.056201             0.00268635679            0.000249588288           
       0.056541              0.0021894813            0.000222468868           
       0.056880             0.00325869717             0.00027489439           
       0.057220             0.00293435193             0.00026085594           
       0.057559             0.00231609255            0.000230759406           
       0.057899             0.00302153414            0.000260254524           
       0.058239             0.00232190517            0.000228143208           
       0.058578             0.00288917489            0.000254491332           
       0.058918             0.00279593427            0.000248291042           
       0.059257             0.00237472759            0.000230724946           
       0.059597             0.00240419781            0.000229303987           
       0.059936             0.00244525791            0.000232200034           
       0.060276             0.00227912201             0.00022146721           
       0.060616             0.00249357169             0.00023165271           
       0.060955             0.00242867237            0.000229538687           
       0.061295             0.00230132632            0.000222544661           
       0.061634             0.00256093511            0.000233828753           
       0.061974             0.00242173362            0.000224725858           
       0.062314             0.00251891473            0.000230084463           
       0.062653             0.00201581203            0.000205828924           
       0.062993             0.00248321969            0.000225818302           
       0.063332             0.00206164094            0.000208156315           
       0.063672             0.00216152719            0.000209885431           
       0.064011             0.00237015825            0.000218953863           
       0.064351             0.00175320792            0.000189025485           
       0.064691             0.00218476993            0.000210217326           
       0.065030             0.00238893382            0.000219820695           
       0.065370             0.00281198821            0.000236718975           
       0.065709             0.00249305593            0.000222891347           
       0.066049             0.00226182367            0.000210748285           
       0.066389             0.00228090844            0.000211635972           
       0.066728             0.00227503372            0.000212139331           
       0.067068             0.00210092732              0.0002031154           
       0.067407             0.00261275758            0.000225688032           
       0.067747              0.0023073738            0.000209820943           
       0.068086             0.00232944149            0.000210822358           
       0.068426             0.00218837521            0.000205068098           
       0.068766             0.00196730288            0.000193743971           
       0.069105              0.0020174513            0.000196897666           
       0.069445              0.0020875759            0.000198178756           
       0.069784             0.00214683534            0.000200273288           
       0.070124             0.00179982541            0.000182741432           
       0.070464             0.00202269053            0.000193725814           
       0.070803              0.0017951829            0.000183138992           
       0.071143              0.0019037597            0.000186662061           
       0.071482             0.00184839207            0.000183928061           
       0.071822             0.00203189404            0.000190271013           
       0.072161             0.00185596549             0.00018368159           
       0.072501             0.00179983682            0.000180883189           
       0.072841             0.00198750714            0.000189441306           
       0.073180             0.00199237875            0.000189040458           
       0.073520             0.00211266463            0.000192745826           
       0.073859             0.00179812397             0.00017724168           
       0.074199             0.00197204469            0.000186221601           
       0.074539             0.00175339932            0.000176172049           
       0.074878             0.00200638885             0.00018783703           
       0.075218             0.00155952369            0.000164532054           
       0.075557             0.00198527597            0.000185041667           
       0.075897             0.00176271789            0.000173805683           
       0.076236             0.00193879308            0.000182280123           
       0.076576             0.00177640954            0.000175038537           
       0.076916             0.00180535028            0.000175338644           
       0.077255             0.00168531953            0.000168347864           
       0.077595             0.00154813319            0.000161351008           
       0.077934             0.00196493083            0.000181778362           
       0.078274             0.00158217927            0.000163116327           
       0.078614             0.00157254938            0.000162113741           
       0.078953             0.00154931118            0.000160414453           
       0.079293             0.00163770612            0.000164420858           
       0.079632              0.0016214023            0.000162115721           
       0.079972             0.00157646242            0.000160825435           
       0.080311             0.00162857527            0.000161987536           
       0.080651             0.00167196424            0.000164625251           
       0.080991              0.0020058746            0.000181412849           
       0.081330              0.0016128764            0.000161206096           
       0.081670             0.00175219488             0.00016702754           
       0.082009             0.00168741308            0.000163911218           
       0.082349              0.0017901277            0.000168329398           
       0.082689             0.00130474953            0.000144133107           
       0.083028             0.00166029756            0.000161165979           
       0.083368             0.00135388121            0.000145961382           
       0.083707             0.00152097935            0.000154256788           
       0.084047             0.00180853076            0.000167721161           
       0.084386             0.00172739947            0.000163916407           
       0.084726              0.0016679094            0.000161069529           
       0.085066              0.0015228854            0.000153026247           
       0.085405             0.00160686226            0.000156742028           
       0.085745             0.00156802752            0.000154398762           
       0.086084             0.00155467955            0.000153740597           
       0.086424             0.00178316823              0.0001646514           
       0.086764             0.00149768181            0.000150472396           
       0.087103             0.00116600999            0.000132769815           
       0.087443             0.00119839853            0.000133114178           
       0.087782             0.00154155274            0.000151811085           
       0.088122             0.00145213374            0.000147342748           
       0.088461              0.0014275185            0.000144886598           
       0.088801             0.00139102473            0.000142633846           
       0.089141             0.00146613282            0.000147236752           
       0.089480             0.00148149583            0.000147199981           
       0.089820             0.00143751793            0.000144217447           
       0.090159             0.00114306832            0.000129299255           
       0.090499             0.00127658551            0.000135905967           
       0.090839             0.00161282651            0.000151542409           
       0.091178             0.00157728474            0.000150261805           
       0.091518             0.00123926347            0.000132838699           
       0.091857             0.00122553023            0.000132100975           
       0.092197             0.00118383202             0.00012983455           
       0.092536             0.00148997329            0.000145274642           
       0.092876             0.00140192124            0.000140917073           
       0.093216             0.00118655961            0.000128631096           
       0.093555             0.00150174585            0.000145087064           
       0.093895             0.00122196014            0.000130199701           
       0.094234             0.00141708086            0.000140938709           
       0.094574             0.00112181497            0.000124430874           
       0.094914             0.00131245387            0.000134589389           
       0.095253             0.00120997903            0.000128898617           
       0.095593             0.00111600461             0.00012316549           
       0.095932             0.00129421065            0.000133310502           
       0.096272             0.00121710321             0.00012895013           
       0.096611              0.0012410578            0.000129233019           
       0.096951             0.00143552443            0.000138643989           
       0.097291             0.00143736193            0.000138733107           
       0.097630             0.00106560596            0.000119156849           
       0.097970             0.00103237336            0.000117575828           
       0.098309             0.00120675453            0.000127118988           
       0.098649             0.00112449847            0.000121804871           
       0.098989            0.000845457924            0.000105616687           
       0.099328            0.000811261109            0.000102955527           
       0.099668            0.000863139727            0.000106196749           
       0.100007             0.00114822285            0.000123084571           
       0.100347             0.00118725004             0.00012424899           
       0.100686             0.00128997384            0.000129513058           
       0.101026            0.000933713859            0.000109922061           
       0.101366            0.000955527451            0.000110932656           
       0.101705             0.00133442364            0.000131409728           
       0.102045            0.000988996537            0.000112590413           
       0.102384            0.000889586615            0.000107037515           
       0.102724             0.00111676668            0.000119077496           
       0.103064             0.00108870009            0.000117295701           
       0.103403             0.00118843728            0.000122551174           
       0.103743              0.0011087521            0.000118094825           
       0.104082            0.000956075616            0.000109663259           
       0.104422            0.000917858667            0.000107449482           
       0.104761             0.00110454748            0.000117597385           
       0.105101             0.00101764466            0.000112355491           
       0.105441              0.0012255568            0.000123017237           
       0.105780            0.000968100698            0.000109587067           
       0.106120            0.000845411195            0.000102408132           
       0.106459            0.000925668139             0.00010618502           
       0.106799             0.00101259275            0.000111820727           
       0.107138            0.000838955236            0.000100861978           
       0.107478            0.000972346215            0.000108585037           
       0.107818            0.000976258632            0.000109049518           
       0.108157             0.00116511633            0.000118863097           
       0.108497            0.000935726629            0.000106521759           
       0.108836             0.00090619449            0.000103895863           
       0.109176            0.000975018606             0.00010824944           
       0.109516            0.000881582061             0.00010247592           
       0.109855            0.000932794681            0.000105644747           
       0.110195             0.00108193542            0.000113275333           
       0.110534            0.000883672777            0.000102598401           
       0.110874            0.000729864678            9.26304929e-05           
       0.111213            0.000961056302            0.000106062662           
       0.111553            0.000777305906            9.55942459e-05           
       0.111893            0.000858335847            0.000100453687           
       0.112232            0.000878892009            0.000100773488           
       0.112572            0.000783846636             9.5787673e-05           
       0.112911             0.00119570632            0.000117795244           
       0.113251            0.000836426353            9.78905829e-05           
       0.113591            0.000709396139            9.07325094e-05           
       0.113930            0.000783656535            9.49552473e-05           
       0.114270            0.000877816398            0.000100071725           
       0.114609             0.00110223407             0.00011189993           
       0.114949             0.00105738439            0.000109600081           
       0.115288             0.00093226623            0.000102911981           
       0.115628            0.000918501061            0.000101509313           
       0.115968            0.000852810797            9.84295278e-05           
       0.116307             0.00096184136              0.0001043129           
       0.116647            0.000860080893             9.8025135e-05           
       0.116986             0.00111583128            0.000111652543           
       0.117326            0.000711107578            8.89486593e-05           
       0.117666            0.000692523671            8.79609259e-05           
       0.118005            0.000719407751            8.92826335e-05           
       0.118345            0.000857688923            9.76880316e-05           
       0.118684            0.000775958997            9.19722123e-05           
       0.119024            0.000739206137            9.03181797e-05           
       0.119363            0.000947810231             0.00010227151           
       0.119703            0.000674426367            8.57450925e-05           
       0.120043            0.000900377531            9.88731956e-05           
       0.120382            0.000828102887            9.50139472e-05           
       0.120722            0.000857505877            9.59128924e-05           
       0.121061            0.000746697592            8.98606617e-05           
       0.121401            0.000624725479            8.20300793e-05           
       0.121741            0.000869471384            9.65808312e-05           
       0.122080            0.000674563247            8.50699665e-05           
       0.122420            0.000681341672            8.51580348e-05           
       0.122759            0.000658868884            8.37421842e-05           
       0.123099             0.00073163196            8.80716555e-05           
       0.123438            0.000627969226            8.17555505e-05           
       0.123778            0.000696817438            8.57826367e-05           
       0.124118            0.000780967112            9.08150669e-05           
       0.124457            0.000589004364            7.87141035e-05           
       0.124797            0.000751885084            8.85892079e-05           
       0.125136            0.000650711111            8.25741576e-05           
       0.125476            0.000683964988            8.48233105e-05           
       0.125816            0.000630536369            8.08143231e-05           
       0.126155            0.000572008959            7.71210893e-05           
       0.126495            0.000823101109            9.19812384e-05           
       0.126834             0.00072228171            8.63292658e-05           
       0.127174            0.000677388083            8.34439424e-05           
       0.127513            0.000519984044            7.28318657e-05           
       0.127853            0.000672791573            8.34802407e-05           
       0.128193            0.000624554516            7.99722087e-05           
       0.128532            0.000644240456            8.06124021e-05           
       0.128872            0.000563568965            7.53968366e-05           
       0.129211            0.000651566036            8.15293905e-05           
       0.129551            0.000747928703            8.70217759e-05           
       0.129891            0.000581393371            7.62955641e-05           
       0.130230            0.000664972114            8.19008128e-05           
       0.130570            0.000626803366            7.89268693e-05           
       0.130909            0.000764980566            8.76805787e-05           
       0.131249            0.000500610307            7.07980175e-05           
       0.131588            0.000648942677            8.04582124e-05           
       0.131928            0.000525365648            7.21268943e-05           
       0.132268            0.000652957633              8.041011e-05           
       0.132607             0.00074904004            8.59657702e-05           
       0.132947             0.00047150158            6.79565568e-05           
       0.133286            0.000514726645            7.12631335e-05           
       0.133626            0.000775191906            8.72949306e-05           
       0.133966            0.000551253123            7.32145039e-05           
       0.134305            0.000568779161            7.43695611e-05           
       0.134645            0.000605322086            7.65836246e-05           
       0.134984              0.0006915862            8.17123903e-05           
       0.135324            0.000573369127            7.46699616e-05           
       0.135663            0.000584717275            7.50005435e-05           
       0.136003            0.000520448105            7.08857415e-05           
       0.136343            0.000621329592            7.71759423e-05           
       0.136682            0.000648703483            7.87180741e-05           
       0.137022            0.000545149995            7.21624346e-05           
       0.137361            0.000790015044             8.6870572e-05           
       0.137701            0.000621781913            7.67964707e-05           
       0.138041            0.000605868429            7.60760279e-05           
       0.138380            0.000572448614            7.33014167e-05           
       0.138720            0.000549828306            7.18388737e-05           
       0.139059            0.000571486773            7.36262511e-05           
       0.139399            0.000619021068            7.63590145e-05           
       0.139738            0.000551910192            7.18506071e-05           
       0.140078             0.00060634799            7.51807047e-05           
       0.140418            0.000557595883            7.18471421e-05           
       0.140757             0.00042160546            6.25823987e-05           
       0.141097            0.000566191176            7.27755118e-05           
       0.141436            0.000587214389            7.37316054e-05           
       0.141776            0.000412468142            6.14787845e-05           
       0.142116             0.00049390738             6.7275158e-05           
       0.142455            0.000524075163            6.94177458e-05           
       0.142795             0.00050638625            6.82364721e-05           
       0.143134             0.00066045939            7.77966185e-05           
       0.143474            0.000499284532            6.72990719e-05           
       0.143813            0.000556934602            7.13191652e-05           
       0.144153            0.000500042205            6.74643822e-05           
       0.144493             0.00055923442             7.0987249e-05           
       0.144832            0.000477515961            6.55962905e-05           
       0.145172            0.000480346727            6.60118729e-05           
       0.145511            0.000530698584             6.9153341e-05           
       0.145851            0.000568883003            7.11241204e-05           
       0.146191            0.000474763719            6.51904838e-05           
       0.146530            0.000588512802            7.24611337e-05           
       0.146870            0.000528063192             6.8753101e-05           
       0.147209            0.000443898066            6.28282355e-05           
       0.147549            0.000391426418            5.89984045e-05           
       0.147888            0.000459270147            6.36975416e-05           
       0.148228            0.000484672417            6.53286814e-05           
       0.148568            0.000508590898            6.68124717e-05           
       0.148907            0.000564983643            7.05345085e-05           
       0.149247             0.00050911865            6.68477395e-05           
       0.149586             0.00055910816            6.98259861e-05           
       0.149926            0.000467965295            6.36761855e-05           
       0.150266            0.000428036138            6.10960862e-05           
       0.150605            0.000522246135            6.73769246e-05           
       0.150945            0.000636480626            7.45023162e-05           
       0.151284            0.000476546864            6.43621276e-05           
       0.151624            0.000499192672            6.55574993e-05           
       0.151963            0.000509284639            6.62171652e-05           
       0.152303            0.000532853977            6.77323934e-05           
       0.152643            0.000513693855            6.62923518e-05           
       0.152982            0.000402714559            5.87898563e-05           
       0.153322            0.000428114799            6.06158067e-05           
       0.153661            0.000508357139            6.56362171e-05           
       0.154001            0.000449266067            6.17039462e-05           
       0.154341            0.000408861024            5.89569444e-05           
       0.154680            0.000490282789             6.4358629e-05           
       0.155020            0.000414507743            5.92698232e-05           
       0.155359            0.000345032399            5.39060962e-05           
       0.155699            0.000541181907            6.71978516e-05           
       0.156038            0.000410326349            5.86947533e-05           
       0.156378            0.000531428003            6.65901714e-05           
       0.156718            0.000481364556              6.347466e-05           
       0.157057            0.000452303518            6.15290773e-05           
       0.157397            0.000556873377             7.4696033e-05           
       0.157736            0.000406542864            6.71502412e-05           
       0.158076             0.00025006019            5.48526876e-05           
       0.158416            0.000582835954            8.71143591e-05           
       0.158755            0.000575624317            9.01273792e-05           
       0.159095            0.000616308522            9.66039862e-05           
       0.159434            0.000619826115              9.942593e-05           
       0.159774            0.000422636669            8.28399402e-05           
       0.160113            0.000437508152            8.42852166e-05           
       0.160453            0.000426010722            8.34224252e-05           
       0.160793            0.000471608094            8.75091057e-05           
       0.161132             0.00043915433            8.44448864e-05           
       0.161472            0.000517107077            9.13593446e-05           
       0.161811            0.000503588154            9.04288134e-05           
       0.162151             0.00053507818            9.32137209e-05           
       0.162491            0.000518555743            9.17637383e-05           
       0.162830            0.000450944766            8.53164975e-05           
       0.163170            0.000465431571            8.64181626e-05           
       0.163509            0.000542462116            9.30197743e-05           
       0.163849             0.00042803176            8.23852853e-05           
       0.164188            0.000396164885            7.92595932e-05           
       0.164528             0.00051358441            9.07803336e-05           
       0.164868            0.000454527304            8.44031134e-05           
       0.165207            0.000446097115            8.43560549e-05           
       0.165547            0.000614939454            9.84612234e-05           
       0.165886            0.000472209959            8.62817265e-05           
       0.166226            0.000393998835            7.88135584e-05           
       0.166566            0.000460020158            8.54117662e-05           
       0.166905             0.00029497043            6.76037176e-05           
       0.167245            0.000551390508            9.32373198e-05           
       0.167584            0.000407604582            7.99310869e-05           
       0.167924            0.000397718814            7.80538617e-05           
       0.168263            0.000407932694            7.99640798e-05           
       0.168603            0.000514210473            8.95188626e-05           
       0.168943            0.000496727996            8.77312049e-05           
       0.169282            0.000415048203            7.99653605e-05           
       0.169622             0.00043354214            8.19624514e-05           
       0.169961            0.000495364384            8.76120652e-05           
       0.170301            0.000413172101            7.95586819e-05           
       0.170641            0.000306747264            6.85511452e-05           
       0.170980            0.000304518439            6.81087869e-05           
       0.171320            0.000318872996            6.94998949e-05           
       0.171659            0.000183186938            5.28260557e-05           
       0.171999            0.000411872006            7.92107926e-05           
       0.172338            0.000365958022            7.46657015e-05           
       0.172678            0.000453196364            8.26249385e-05           
       0.173018            0.000366325495            7.47039724e-05           
       0.173357            0.000393999945            7.72568746e-05           
       0.173697            0.000375092416            7.49608074e-05           
       0.174036            0.000436073184            8.10507172e-05           
       0.174376            0.000363835518             7.4241809e-05           
       0.174716            0.000360873992            7.35275108e-05           
       0.175055            0.000342933704             7.1478669e-05           
       0.175395            0.000515508098            8.71575887e-05           
       0.175734            0.000464757105            8.34434235e-05           
       0.176074            0.000433095629            8.03286182e-05           
       0.176413            0.000382809506            7.51079407e-05           
       0.176753            0.000450375054            8.21435202e-05           
       0.177093            0.000431361194            8.01689112e-05           
       0.177432            0.000635216499            9.67525511e-05           
       0.177772            0.000381140069            7.47416788e-05           
       0.178111            0.000336402039            7.02186112e-05           
       0.178451             0.00041321925            7.80367087e-05           
       0.178791            0.000554990532             8.9948416e-05           
       0.179130            0.000376944258            7.39300657e-05           
       0.179470            0.000410347014            7.75546984e-05           
       0.179809             0.00029358854             6.5600085e-05           
       0.180149            0.000361627678            7.22197856e-05           
       0.180488            0.000468788152             8.2894931e-05           
       0.180828            0.000319955775            6.82983281e-05           
       0.181168             0.00037693891             7.3931985e-05           
       0.181507            0.000383540547            7.37878105e-05           
       0.181847            0.000519553578            8.65670433e-05           
       0.182186            0.000343125539            6.99771538e-05           
       0.182526             0.00038959626            7.49634695e-05           
       0.182866            0.000429751229            7.85226885e-05           
       0.183205            0.000481865181            8.27092218e-05           
       0.183545            0.000471544341            8.20353009e-05           
       0.183884            0.000356973959             7.1377317e-05           
       0.184224            0.000370577349            7.27250177e-05           
       0.184563              0.0003277567            6.83947293e-05           
       0.184903            0.000367015308            7.19955433e-05           
       0.185243            0.000507614508            8.46706716e-05           
       0.185582            0.000282869332            6.33725623e-05           
       0.185922            0.000365583254            7.16688013e-05           
       0.186261            0.000423610689            7.73493843e-05           
       0.186601            0.000486796448            8.22745319e-05           
       0.186941             0.00037768078            7.26572354e-05           
       0.187280            0.000321017505             6.6985881e-05           
       0.187620            0.000399017308             7.4108482e-05           
       0.187959            0.000364240992            7.15395808e-05           
       0.188299            0.000375546003            7.22662978e-05           
       0.188638              0.0003758262            7.22936704e-05           
       0.188978            0.000305806281             6.5212741e-05           
       0.189318             0.00048065841            8.13397576e-05           
       0.189657            0.000333964347            6.81497621e-05           
       0.189997            0.000442363036            7.82329641e-05           
       0.190336            0.000415376585            7.58095468e-05           
       0.190676            0.000413080373            7.54070539e-05           
       0.191016             0.00041834526            7.51238299e-05           
       0.191355            0.000340371297            6.81038602e-05           
       0.191695            0.000465896041            7.98806904e-05           
       0.192034            0.000242839513            5.72371057e-05           
       0.192374            0.000327060053            6.67600602e-05           
       0.192713            0.000379348495            7.17184297e-05           
       0.193053            0.000392568802            7.29578531e-05           
       0.193393            0.000489410631            8.16671425e-05           
       0.193732            0.000423028766            7.59273378e-05           
       0.194072            0.000531804347            8.51317832e-05           
       0.194411            0.000350284175             6.8745809e-05           
       0.194751            0.000281779535            6.15049761e-05           
       0.195091            0.000398219121            7.27560648e-05           
       0.195430            0.000321988818            6.55848442e-05           
       0.195770            0.000334925936            6.68898312e-05           
       0.196109            0.000223503018            5.42411387e-05           
       0.196449            0.000388185558            7.21918733e-05           
       0.196788            0.000290343913            6.18228062e-05           
       0.197128            0.000400755088            7.31704529e-05           
       0.197468            0.000293666877            6.26363316e-05           
       0.197807            0.000400692883            7.31656545e-05           
       0.198147            0.000290291461            6.19700451e-05           
       0.198486            0.000513380982            8.22101359e-05           
       0.198826            0.000370543672            7.00147689e-05           
       0.199166            0.000376623344             6.9905228e-05           
       0.199505            0.000341476562            6.68863074e-05           
       0.199845             0.00036824006            6.96276323e-05           
       0.200184            0.000485504825            7.88045496e-05           
       0.200524            0.000335527246            6.58247488e-05           
       0.200863            0.000349415137            6.73349179e-05           
       0.201203               0.000546944            8.42448953e-05           
       0.201543            0.000363574139            6.86864937e-05           
       0.201882            0.000504672611            8.09249459e-05           
       0.202222            0.000387452481            7.07372206e-05           
       0.202561            0.000441033469            7.56517042e-05           
       0.202901            0.000318668236            6.36969705e-05           
       0.203241            0.000295528564            6.16325488e-05           
       0.203580            0.000386378183            7.04724569e-05           
       0.203920            0.000357131473            6.75924713e-05           
       0.204259            0.000448630088             7.5758469e-05           
       0.204599            0.000519411038             8.1132851e-05           
       0.204938            0.000397192199            7.12841236e-05           
       0.205278            0.000384712047             7.0155719e-05           
       0.205618            0.000303115521            6.19802674e-05           
       0.205957            0.000317322004            6.34164919e-05           
       0.206297            0.000432105435            7.40030706e-05           
       0.206636            0.000404788446            7.14586155e-05           
       0.206976            0.000377952148            6.90496872e-05           
       0.207316            0.000330990622            6.47695675e-05           
       0.207655            0.000341613802            6.56472498e-05           
       0.207995            0.000390510196            7.01887952e-05           
       0.208334            0.000415096933            7.23650937e-05           
       0.208674            0.000385347156            6.92405083e-05           
       0.209013            0.000421792231            7.22749641e-05           
       0.209353            0.000325283938            6.37637843e-05           
       0.209693            0.000350350143            6.61754225e-05           
       0.210032            0.000345655868             6.5428803e-05           
       0.210372             0.00034714148            6.55696817e-05           
       0.210711            0.000460827668            7.57216866e-05           
       0.211051            0.000371304743            6.78142064e-05           
       0.211391            0.000362264752            6.72934284e-05           
       0.211730            0.000432395684            7.31815715e-05           
       0.212070            0.000273296537            5.83148705e-05           
       0.212409            0.000366280966            6.68968985e-05           
       0.212749            0.000448771284            7.38811837e-05           
       0.213088            0.000463562505            7.52590407e-05           
       0.213428            0.000392813947            6.94361493e-05           
       0.213768            0.000426258916            7.20056587e-05           
       0.214107            0.000308339584            6.16597573e-05           
       0.214447            0.000436031254            7.26638591e-05           
       0.214786            0.000462331079            7.49920128e-05           
       0.215126            0.000344161276             6.4996126e-05           
       0.215466            0.000367072994            6.69731531e-05           
       0.215805            0.000372718497            6.70332087e-05           
       0.216145            0.000437522455             7.2954168e-05           
       0.216484            0.000393925605            6.86091748e-05           
       0.216824            0.000265613075            5.65891188e-05           
       0.217163             0.00029936941            5.99442555e-05           
       0.217503             0.00026539818            5.65669793e-05           
       0.217843            0.000301329104            6.02750332e-05           
       0.218182            0.000285542857            5.84151186e-05           
       0.218522            0.000236727339            5.30710931e-05           
       0.218861            0.000356334953            6.52566345e-05           
       0.219201            0.000248535236            5.46204562e-05           
       0.219541            0.000350757936            6.46020568e-05           
       0.219880            0.000389075218            7.30368381e-05           
       0.220220            0.000320444224             7.6215685e-05           
       0.220559            0.000389691326            9.28848049e-05           
       0.220899             0.00037838159            0.000102121957           
       0.221238            0.000400124363            0.000116964494           
       0.221578            0.000329101549            0.000117855003           
       0.221918             0.00049615416            0.000167095088           
       0.222257            0.000225043114            0.000131788562           
       0.222597            0.000347245324            0.000206485073           
       0.222936            0.000281145757              0.0002904886           
