################################################################################
# Data 1                                  10_10_2023_0_vd_00011-00012_azimAvg_20degree_horizontal.dat
# Data 2                                  2023_10_26_0_vd_00006-00007_azimAvg_20degree_horizontal.dat
# Transmission                            0.8306855157752372
# Weight                                  1.1272829138708527
# Smart_subtraction                       True
# Enhanced_transmission_correction        True
# EDF_DataBlockID                         0.Image.Psd
# EDF_BinarySize                          4637784
# EDF_HeaderSize                          3072
# ByteOrder                               LowByteFirst
# DataType                                FloatValue
# Dim_1                                   1038
# Dim_2                                   1117
# Image                                   0
# HeaderID                                EH:000000:000000:000000
# Size                                    4637784
# BIO_SYSTEM_CONF_TXT                     WAXSRES
# Center_1                                606.981
# Center_2                                651.016
# Comment                                 gamma_2X - gamma_2X_WAXS_HI_600s
# DDummy                                  0.6
# Date                                    2023-10-10T19:10:19
# Delta                                   0
# Dummy                                   -1.5
# ExposureTime                            600
# Force                                   9.91088
# Gamma                                   0
# Intensity1                              1.08503e-07
# JawsDistance                            4.54563
# JawsVelocity                            0.358589
# PSize_1                                 7.5e-05
# PSize_2                                 7.5e-05
# Pressure                                0.0995569
# SampleDistance                          0.0500003
# SampleEnvKind                           saxs
# SampleEnvPN                             Solids
# SampleEnvSN                             1012
# Strain                                  0
# Stress                                  0
# Thickness                               0
# Wavelength                              1.541891e-10
# Wavelength                              1.54189e-10
# anaB                                    0
# anaB_dial                               -0.0012015
# anaPark                                 -175.125
# anaPark_dial                            175.169
# anaXi                                   0
# anaXi_dial                              0
# anaZ                                    -9.13123e-08
# anaZ_dial                               6.2299
# aux                                     0
# aux_dial                                -0.000125
# b2c                                     0
# b2c_dial                                0
# beamx                                   603.62
# beamx_dial                              603.62
# beamz                                   653.016
# beamz_dial                              653.016
# bioZ                                    -2.90461e-08
# bioZ_dial                               -0.546695
# det0x                                   0
# det0x_dial                              6.05631
# det0xvd                                 0
# det0xvd_dial                            0
# det0y                                   50.0003
# det0y_dial                              893.512
# det0z                                   0
# det0z_dial                              6.3358
# det0zvd                                 0
# det0zvd_dial                            0
# distana                                 93.4
# distana_dial                            93.4
# mag                                     1.091
# mag_dial                                1.091
# mono1B                                  1.00136e-08
# mono1B_dial                             -0.277
# mono2B                                  1.75476e-07
# mono2B_dial                             -4.366
# mono2X                                  -1
# mono2X_dial                             3.96031
# mono2Xi                                 0
# mono2Xi_dial                            0
# monoZ                                   -11
# monoZ_dial                              -10.6609
# om                                      1.30741e-08
# om_dial                                 -0.939898
# phi                                     -4.9295e-08
# phi_dial                                -7.01716
# qana                                    0
# qana_dial                               0
# ry                                      0
# ry_dial                                 0.00149998
# s1bot                                   1.45
# s1bot_dial                              -2.02906
# s1hl                                    0.55
# s1hl_dial                               -0.47125
# s1hr                                    1.95
# s1hr_dial                               2.31625
# s1top                                   1.05
# s1top_dial                              1.23391
# s2bot                                   1.2
# s2bot_dial                              -2.09531
# s2hl                                    0.6
# s2hl_dial                               -1.365
# s2hr                                    0.8
# s2hr_dial                               -0.0153125
# s2top                                   0.2
# s2top_dial                              -1.18281
# ttdeg                                   0
# ttdeg_dial                              0
# wind                                    72.0045
# wind_dial                               72.0233
# x                                       0.4
# x_dial                                  1.10969
# z                                       -13.5
# z_dial                                  5.60906
# CountCutoff                             15302352
# DetectorModel                           Dectris EIGER2 Si 1M, S/N E-02-0357
# ThresholdSetting                        4023.88989258
# Saturation                              0
# FlatField                               Corrected
# BackgroundReductionExtra                0.02
# Detector                                0
# Monitor                                 0
# Pil_Roi0                                6.51033e+10
# SumForIntensity1                        6.51016e+10
# det                                     0
# mon                                     0
# pilai0                                  6.51016e+10
# pilai1                                  0
# pilct0                                  6.51038e+10
# pilct1                                  0
# pilroi0                                 6.51033e+10
# pilroi1                                 0
# sec                                     0.099
# title                                   10_10_2023_0_00011.edf
# usaxs0                                  0
# Operation                               Azimuthal average I(q)
# Error_model                             ErrorModel.poisson
# Geometrical_correction                  True
# Transmission_correction                 True
# Psi                                     0.0
# Omega                                   0.0
# TransmittedFlux_init_value              1.08503e+08
# TransmittedFlux                         108473870.98387484
# MaskInvalidPixels                       True
# DetectorEdge                            3
# PsiMin                                  -10.0
# PsiMax                                  10.0
# Origin                                  subtracted
# Thickness_correction                    False
################################################################################
 q(A-1)                   I_subtracted(a.u.)         Sigma_I(a.u.)            
       0.021394                17.2485755              0.0725913877           
       0.027506               -195.213705              0.0700488783           
       0.033618               -117.143939               0.064090705           
       0.039731               -77.1554692              0.0572398448           
       0.045843               -37.4841528              0.0498675627           
       0.051956                 36.839426              0.0335577363           
       0.058068                93.9835336              0.0231223107           
       0.064181                103.719367              0.0168440686           
       0.070293                60.9533712                0.01205879           
       0.076406               -4.11339781             0.00642537755           
       0.082518               -9.26568817             0.00315153943           
       0.088630               -2.27980071             0.00111589716           
       0.094743              -0.127008896            0.000267429256           
       0.100855            -0.00702293734            7.37571846e-05           
       0.106968            0.000368993195            3.28344857e-05           
       0.113080            0.000831695549            2.51372586e-05           
       0.119193            0.000807314685            2.32260877e-05           
       0.125305            0.000794307397            1.96030234e-05           
       0.131418            0.000759426514            1.88893563e-05           
       0.137530            0.000679330125            1.79183466e-05           
       0.143642            0.000655359192            1.74709892e-05           
       0.149755            0.000599284916            1.67214233e-05           
       0.155867            0.000546103982            1.48828859e-05           
       0.161980            0.000508754611            1.37198337e-05           
       0.168092            0.000460463571            1.30101189e-05           
       0.174205            0.000470589097            1.31012612e-05           
       0.180317            0.000436502492            1.25231005e-05           
       0.186429            0.000404981673            1.20102386e-05           
       0.192542            0.000366610614            1.05689396e-05           
       0.198654            0.000364112709             1.0495774e-05           
       0.204767            0.000326940553            9.91078086e-06           
       0.210879            0.000304842255            9.67817824e-06           
       0.216992            0.000271002835            9.00887184e-06           
       0.223104            0.000259200222            8.82860605e-06           
       0.229217            0.000254581024            8.35477402e-06           
       0.235329            0.000237878233            7.77939006e-06           
       0.241441            0.000220832375            7.22569348e-06           
       0.247554            0.000223576147            7.56368218e-06           
       0.253666            0.000206736731            7.17910549e-06           
       0.259779            0.000195105368            7.08313557e-06           
       0.265891            0.000192685144            6.79888775e-06           
       0.272004            0.000181641783            6.41358286e-06           
       0.278116            0.000190859928            6.49680803e-06           
       0.284229            0.000181320357             6.1512832e-06           
       0.290341            0.000173276555            6.19952261e-06           
       0.296453            0.000180371283            6.12347738e-06           
       0.302566            0.000168511224            5.77430361e-06           
       0.308678            0.000165982469            5.72384291e-06           
       0.314791            0.000176287391            5.88960591e-06           
       0.320903            0.000154837729            5.54623343e-06           
       0.327016            0.000171830968             5.8093723e-06           
       0.333128            0.000161132819            5.57048081e-06           
       0.339241            0.000154636762            5.19833154e-06           
       0.345353            0.000151426071            5.11872044e-06           
       0.351465            0.000153518267            5.12428079e-06           
       0.357578            0.000158498538            5.28836849e-06           
       0.363690            0.000153555927            5.20349687e-06           
       0.369803            0.000158941613            5.13128547e-06           
       0.375915            0.000155861478            5.00651013e-06           
       0.382028            0.000164341945              5.021923e-06           
       0.388140            0.000165482069            5.13267375e-06           
       0.394253            0.000161438853            4.98968841e-06           
       0.400365            0.000153099869            4.98998998e-06           
       0.406477            0.000167641288            4.95547333e-06           
       0.412590             0.00016581157            4.92359552e-06           
       0.418702            0.000167865852            4.99644244e-06           
       0.424815            0.000160222843            4.75953872e-06           
       0.430927            0.000170910488             4.9080185e-06           
       0.437040            0.000177027208            5.09332189e-06           
       0.443152            0.000187483112            5.02243583e-06           
       0.449264            0.000181774681            4.96381947e-06           
       0.455377            0.000189220901            5.04802929e-06           
       0.461489            0.000189829307            4.99016975e-06           
       0.467602            0.000193364237            5.04456074e-06           
       0.473714            0.000201661317            5.12624957e-06           
       0.479827             0.00020430851            5.08077822e-06           
       0.485939             0.00020668404             5.1134874e-06           
       0.492052            0.000202036987            4.96125034e-06           
       0.498164            0.000215006201            5.20277934e-06           
       0.504276            0.000209445825            4.97335963e-06           
       0.510389            0.000218783018            4.98835512e-06           
       0.516501            0.000220860287            4.93455376e-06           
       0.522614            0.000230762399             5.0894053e-06           
       0.528726            0.000228685118            4.98716451e-06           
       0.534839            0.000236997539            5.20633749e-06           
       0.540951            0.000245683809            5.21355835e-06           
       0.547064            0.000254123196            5.29592931e-06           
       0.553176            0.000249967649            5.10812949e-06           
       0.559288            0.000270422391            5.33964275e-06           
       0.565401            0.000267219335            5.30954331e-06           
       0.571513            0.000265036348            5.33338219e-06           
       0.577626            0.000274304851            5.46479134e-06           
       0.583738            0.000279799762            5.26152056e-06           
       0.589851            0.000274896434            5.21001925e-06           
       0.595963            0.000291764219            5.52840522e-06           
       0.602076            0.000295388799            5.46916828e-06           
       0.608188            0.000289420673            5.34960326e-06           
       0.614300            0.000290511389            5.21333373e-06           
       0.620413            0.000309051357            5.52695411e-06           
       0.626525            0.000307919177            5.44585341e-06           
       0.632638            0.000308898398            5.39065762e-06           
       0.638750            0.000313800697            5.49555013e-06           
       0.644863            0.000313497942            5.49671958e-06           
       0.650975            0.000325413554            5.45417054e-06           
       0.657088            0.000322219474            5.43908116e-06           
       0.663200            0.000317630205            5.31991697e-06           
       0.669312            0.000314031612            5.36578816e-06           
       0.675425            0.000321886843            5.50529591e-06           
       0.681537            0.000321389262            5.33084311e-06           
       0.687650            0.000325490571            5.27709901e-06           
       0.693762            0.000315496993            5.31463478e-06           
       0.699875            0.000324809401            5.33157432e-06           
       0.705987            0.000317256234            5.27041878e-06           
       0.712100            0.000314864266            5.16058946e-06           
       0.718212            0.000314377369            5.09536597e-06           
       0.724324            0.000317133347             5.2170344e-06           
       0.730437            0.000308024792            5.08740098e-06           
       0.736549            0.000305411068            4.89345671e-06           
       0.742662             0.00030905295            4.93108627e-06           
       0.748774            0.000295757347            4.76824579e-06           
       0.754887            0.000293842085             4.7577187e-06           
       0.760999            0.000300626021            4.86169207e-06           
       0.767111            0.000286250584            4.69846817e-06           
       0.773224            0.000283792782            4.73177192e-06           
       0.779336            0.000275465453            4.64183378e-06           
       0.785449             0.00027316289             4.4993843e-06           
       0.791561             0.00027784284            4.64145373e-06           
       0.797674            0.000265111447            4.48668674e-06           
       0.803786            0.000264171167            4.43651707e-06           
       0.809899            0.000265373436            4.54639638e-06           
       0.816011            0.000257044412            4.31294919e-06           
       0.822123            0.000258670366            4.37135074e-06           
       0.828236            0.000254608755            4.34103272e-06           
       0.834348            0.000242152977            4.19382762e-06           
       0.840461            0.000246358657            4.29419609e-06           
       0.846573            0.000243929843            4.23420237e-06           
       0.852686            0.000242450256            4.12017843e-06           
       0.858798            0.000240022513            4.16033176e-06           
       0.864911            0.000233585318             4.0125313e-06           
       0.871023            0.000228173861            3.93561748e-06           
       0.877135            0.000230876889            3.85135089e-06           
       0.883248            0.000227224301            3.90627856e-06           
       0.889360            0.000236637105             3.9254087e-06           
       0.895473            0.000221929905            3.86511346e-06           
       0.901585            0.000221733014            3.83165587e-06           
       0.907698            0.000231151213            3.98530429e-06           
       0.913810            0.000217410932            3.73441956e-06           
       0.919923            0.000219763476            3.85775901e-06           
       0.926035            0.000218057698            3.74450668e-06           
       0.932147            0.000219084249            3.84802452e-06           
       0.938260            0.000218832291            3.75419647e-06           
       0.944372            0.000223418694             3.8915018e-06           
       0.950485            0.000218752512             3.6960774e-06           
       0.956597            0.000220120514             3.8026136e-06           
       0.962710             0.00021796702            3.72015281e-06           
       0.968822            0.000217817958            3.72381599e-06           
       0.974935             0.00021853718            3.52532893e-06           
       0.981047            0.000218749217              3.644558e-06           
       0.987159            0.000215234601            3.53057418e-06           
       0.993272            0.000221797626            3.65286379e-06           
       0.999384            0.000222378866            3.66655175e-06           
       1.005497            0.000224435085            3.68619809e-06           
       1.011609            0.000220815305            3.67990249e-06           
       1.017722            0.000232080469            3.67430382e-06           
       1.023834            0.000223541069            3.65099561e-06           
       1.029947            0.000232424357            3.74117655e-06           
       1.036059            0.000233107523            3.71710808e-06           
       1.042171            0.000236328632            3.79251809e-06           
       1.048284            0.000230939886            3.68894851e-06           
       1.054396            0.000240919585            3.64860259e-06           
       1.060509            0.000231427135            3.49950203e-06           
       1.066621            0.000245922906            3.66305114e-06           
       1.072734            0.000242309765            3.71913189e-06           
       1.078846            0.000245569979            3.71961246e-06           
       1.084958            0.000247201441            3.64933986e-06           
       1.091071             0.00024970784            3.78383607e-06           
       1.097183              0.0002577226            3.76175751e-06           
       1.103296            0.000256432474            3.78212447e-06           
       1.109408            0.000255787328             3.7800966e-06           
       1.115521            0.000264777035            3.78935724e-06           
       1.121633            0.000263602853            3.83947309e-06           
       1.127746            0.000272398132            3.67088192e-06           
       1.133858            0.000275015794            3.73995789e-06           
       1.139970            0.000275351561             3.8240858e-06           
       1.146083            0.000275433246            3.76032813e-06           
       1.152195             0.00028382998             3.8523046e-06           
       1.158308            0.000290706508            3.93074451e-06           
       1.164420            0.000294534341            3.96485579e-06           
       1.170533            0.000301214051            3.95250278e-06           
       1.176645            0.000299048289            4.00251483e-06           
       1.182758            0.000305195918            3.98998432e-06           
       1.188870            0.000305864601            3.86747553e-06           
       1.194982            0.000313487887            3.82470194e-06           
       1.201095            0.000315840319            3.98560049e-06           
       1.207207            0.000323430811            3.98240607e-06           
       1.213320            0.000323476275            3.98747495e-06           
       1.219432            0.000320261848            4.04682209e-06           
       1.225545            0.000334634937            4.11687702e-06           
       1.231657             0.00033576735             4.1001974e-06           
       1.237770            0.000341874748            4.15308851e-06           
       1.243882            0.000347025968            4.08113894e-06           
       1.249994             0.00035428373            3.93202138e-06           
       1.256107            0.000357399438            4.07448661e-06           
       1.262219            0.000356866812            4.12662619e-06           
       1.268332            0.000366178575             4.2706185e-06           
       1.274444             0.00037705589            4.24577798e-06           
       1.280557            0.000381170646            4.29869983e-06           
       1.286669            0.000384722677            4.30786844e-06           
       1.292782            0.000388599505            4.33063057e-06           
       1.298894            0.000398504294            4.12612385e-06           
       1.305006             0.00040258148            4.20615651e-06           
       1.311119            0.000409919027            4.30776149e-06           
       1.317231            0.000422558615            4.38463686e-06           
       1.323344            0.000425303705             4.4553103e-06           
       1.329456            0.000437333301            4.54665666e-06           
       1.335569            0.000439910551            4.52614764e-06           
       1.341681            0.000438202529            4.52009922e-06           
       1.347793            0.000454146302            4.25175915e-06           
       1.353906            0.000454953125            4.46339684e-06           
       1.360018            0.000453805969            4.48322813e-06           
       1.366131            0.000452091999            4.50197379e-06           
       1.372243            0.000473574034            4.61188954e-06           
       1.378356            0.000469812248            4.62340461e-06           
       1.384468            0.000469669774            4.62323518e-06           
       1.390581            0.000471148836            4.33148201e-06           
       1.396693            0.000464156993            4.37078799e-06           
       1.402805            0.000468885825            4.46035544e-06           
       1.408918             0.00046693517            4.50373439e-06           
       1.415030            0.000462397802            4.47197518e-06           
       1.421143            0.000449282563            4.48366422e-06           
       1.427255              0.0004503768            4.41128686e-06           
       1.433368            0.000443732046            4.09332146e-06           
       1.439480            0.000440561321            4.24423128e-06           
       1.445593            0.000435261928            4.30544001e-06           
       1.451705            0.000429245607            4.26418941e-06           
       1.457817            0.000425299733            4.27250167e-06           
       1.463930            0.000422304866            4.23699736e-06           
       1.470042            0.000420106235            3.99489426e-06           
       1.476155            0.000409805747            4.01350413e-06           
       1.482267            0.000403124024            4.08270961e-06           
       1.488380            0.000397498886            4.03575603e-06           
       1.494492            0.000399416461            4.04811961e-06           
       1.500605            0.000391291628            4.03994434e-06           
       1.506717            0.000384212264            3.79014946e-06           
       1.512829            0.000381034377            3.85482062e-06           
       1.518942            0.000370563963            3.83445167e-06           
       1.525054            0.000369127846            3.84353992e-06           
       1.531167            0.000363194806            3.84987222e-06           
       1.537279            0.000363635497            3.81721204e-06           
       1.543392            0.000364188291            3.65240204e-06           
       1.549504            0.000359285614            3.70319753e-06           
       1.555617            0.000347705283            3.68888569e-06           
       1.561729            0.000347988311            3.71905132e-06           
       1.567841            0.000347431811            3.74662567e-06           
       1.573954            0.000345201913            3.51136281e-06           
       1.580066            0.000342452441              3.526654e-06           
       1.586179            0.000335932368            3.59685384e-06           
       1.592291            0.000329964204            3.61445056e-06           
       1.598404            0.000328298831            3.60295405e-06           
       1.604516            0.000326719337            3.38683488e-06           
       1.610629            0.000325608764            3.40715824e-06           
       1.616741            0.000320923251            3.50096337e-06           
       1.622853            0.000319600479            3.49964879e-06           
       1.628966             0.00031866968            3.52816984e-06           
       1.635078            0.000314832654            3.31657704e-06           
       1.641191            0.000316860045            3.32861839e-06           
       1.647303            0.000306976404            3.38035901e-06           
       1.653416            0.000311866596            3.45066835e-06           
       1.659528            0.000316357598            3.49522046e-06           
       1.665640            0.000307659636             3.1698072e-06           
       1.671753            0.000306017404            3.29951007e-06           
       1.677865            0.000301977964            3.31935656e-06           
       1.683978             0.00029634584            3.34506263e-06           
       1.690090            0.000293899474            3.19035267e-06           
       1.696203            0.000290374349            3.16384392e-06           
       1.702315            0.000300052905            3.22552736e-06           
       1.708428            0.000286558635            3.28062474e-06           
       1.714540            0.000294888226            3.30992228e-06           
       1.720652            0.000288211405            3.03231947e-06           
       1.726765              0.0002827685            3.11989293e-06           
       1.732877            0.000278942571            3.16426702e-06           
       1.738990            0.000281121653            3.21767566e-06           
       1.745102            0.000276192143             2.9874252e-06           
       1.751215             0.00027644069            3.04121608e-06           
       1.757327            0.000264995272            3.04780252e-06           
       1.763440            0.000263776798            3.10130723e-06           
       1.769552            0.000263909715            2.89341123e-06           
       1.775664            0.000267194826             3.0158632e-06           
       1.781777            0.000261952313            2.98072316e-06           
       1.787889            0.000253118295            2.98627767e-06           
       1.794002            0.000252609211            2.83715367e-06           
       1.800114            0.000250856384            2.88083625e-06           
       1.806227            0.000250864737            2.97077317e-06           
       1.812339            0.000246701823            2.92445571e-06           
       1.818452            0.000248338797            2.74939978e-06           
       1.824564            0.000242443353            2.83226133e-06           
       1.830676            0.000240605211            2.88908996e-06           
       1.836789            0.000238244092            2.82330123e-06           
       1.842901            0.000231667874            2.65267719e-06           
       1.849014            0.000238394307            2.81689076e-06           
       1.855126            0.000234701963            2.83600976e-06           
       1.861239            0.000226304183            2.63575744e-06           
       1.867351            0.000229777427            2.69330135e-06           
       1.873464             0.00022548617            2.74709156e-06           
       1.879576            0.000223850744            2.76270359e-06           
       1.885688            0.000221703022             2.5461159e-06           
       1.891801            0.000219880083            2.67243464e-06           
       1.897913            0.000221006491            2.71179132e-06           
       1.904026            0.000217237366             2.5550297e-06           
       1.910138            0.000209473754            2.56803693e-06           
       1.916251            0.000214470999            2.66771368e-06           
       1.922363            0.000206140091            2.51010861e-06           
       1.928476            0.000212098328            2.53250024e-06           
       1.934588            0.000208475344            2.58859642e-06           
       1.940700            0.000206021764            2.62103167e-06           
       1.946813            0.000204701147            2.39698668e-06           
       1.952925            0.000198403187            2.50459143e-06           
       1.959038            0.000205059706            2.59989351e-06           
       1.965150            0.000203865423            2.40458015e-06           
       1.971263            0.000200010917            2.50078522e-06           
       1.977375            0.000197408682            2.51951836e-06           
       1.983487            0.000193204719            2.33762185e-06           
       1.989600            0.000191757432            2.44384855e-06           
       1.995712            0.000190769736            2.47640844e-06           
       2.001825            0.000192586064            2.32902738e-06           
       2.007937            0.000185392119            2.36695739e-06           
       2.014050            0.000180709289            2.40621419e-06           
       2.020162            0.000187082101            2.29834732e-06           
       2.026275            0.000182017923             2.3165399e-06           
       2.032387             0.00017865697            2.38807243e-06           
       2.038499            0.000184140016            2.25750905e-06           
       2.044612            0.000181327113            2.33737601e-06           
       2.050724            0.000178530755            2.38230291e-06           
       2.056837            0.000176162177            2.16842813e-06           
       2.062949            0.000177696041            2.32295515e-06           
       2.069062            0.000174565935            2.28214478e-06           
       2.075174            0.000177205623            2.23260819e-06           
       2.081287            0.000173481863            2.27882748e-06           
       2.087399            0.000167909291            2.17426461e-06           
       2.093511            0.000170865833            2.21764455e-06           
       2.099624            0.000168413318             2.2765705e-06           
       2.105736            0.000169617855             2.1352744e-06           
       2.111849            0.000170533197             2.2327514e-06           
       2.117961            0.000168518898            2.20501756e-06           
       2.124074            0.000166204506            2.14333961e-06           
       2.130186            0.000165884977            2.22074065e-06           
       2.136299             0.00015979357            2.07796064e-06           
       2.142411            0.000164194904            2.17463506e-06           
       2.148523            0.000161688876             2.1760544e-06           
       2.154636            0.000162626675            2.07082771e-06           
       2.160748            0.000158756267            2.14208111e-06           
       2.166861            0.000160268255            2.07477736e-06           
       2.172973             0.00015814004            2.11258089e-06           
       2.179086            0.000156747929            2.10492663e-06           
       2.185198            0.000155746647            2.03568735e-06           
       2.191311            0.000158427089            2.14850977e-06           
       2.197423            0.000150286969            1.98455917e-06           
       2.203535             0.00015714572              2.107432e-06           
       2.209648            0.000155466627            2.02952008e-06           
       2.215760            0.000152925417             2.0622299e-06           
       2.221873            0.000154772995            2.10252599e-06           
       2.227985            0.000152137732            1.96951087e-06           
       2.234098            0.000152306837            2.09143562e-06           
       2.240210            0.000154392604            1.98047419e-06           
       2.246322            0.000154594907             2.0947938e-06           
       2.252435            0.000149847845            1.95989119e-06           
       2.258547            0.000151572412            2.03461073e-06           
       2.264660            0.000149742247            1.98002232e-06           
       2.270772            0.000147262136            1.99905536e-06           
       2.276885            0.000148122954            2.00230977e-06           
       2.282997            0.000150221334            2.01739367e-06           
       2.289110             0.00014844408            2.15303263e-06           
       2.295222            0.000145570911            2.07923787e-06           
       2.301334             0.00014931277            2.53130195e-06           
       2.307447            0.000151322906            2.53897166e-06           
       2.313559            0.000148751374            2.76698969e-06           
       2.319672            0.000143787509            2.63173323e-06           
       2.325784            0.000147408482            2.84417916e-06           
       2.331897            0.000148797339            2.70303705e-06           
       2.338009            0.000141582667            2.77560783e-06           
       2.344122            0.000144542611            2.66127719e-06           
       2.350234             0.00014771817            2.82480468e-06           
       2.356346            0.000142529828            2.63723818e-06           
       2.362459             0.00014489317            2.80866272e-06           
       2.368571            0.000148676746            2.69418299e-06           
       2.374684            0.000143194207            2.76900433e-06           
       2.380796            0.000143194402            2.62632976e-06           
       2.386909            0.000142571157            2.77893886e-06           
       2.393021            0.000144366894            2.63050807e-06           
       2.399134            0.000141317031            2.70477522e-06           
       2.405246            0.000145143326            2.67111472e-06           
       2.411358            0.000139103188            2.64392067e-06           
       2.417471            0.000142378402            2.68300907e-06           
       2.423583            0.000140165317            2.63394408e-06           
       2.429696            0.000139079655            2.66433354e-06           
       2.435808            0.000141931005             2.6088492e-06           
       2.441921            0.000136166346            2.67052129e-06           
       2.448033            0.000138134268            2.57075448e-06           
       2.454146            0.000134569486            2.64853677e-06           
       2.460258            0.000137004134            2.53782842e-06           
       2.466370            0.000138559705            2.59986671e-06           
       2.472483            0.000140717733            2.66899163e-06           
       2.478595            0.000140819999             2.5801908e-06           
       2.484708            0.000136877691             2.6451663e-06           
       2.490820            0.000138770236            2.55266154e-06           
       2.496933            0.000132657045            2.57240786e-06           
       2.503045            0.000138773223            2.56999049e-06           
       2.509158            0.000140369334            2.58663633e-06           
       2.515270            0.000136201661            2.62902141e-06           
       2.521382            0.000135922545            2.48455632e-06           
       2.527495            0.000136715708            2.58996611e-06           
       2.533607            0.000136305121            2.56316033e-06           
       2.539720            0.000135684593            2.52402118e-06           
       2.545832            0.000134596218            2.62066862e-06           
       2.551945            0.000138241795            2.49548608e-06           
       2.558057            0.000135879545            2.52402303e-06           
       2.564169            0.000135875959            2.58072122e-06           
       2.570282             0.00014224768            2.53507152e-06           
       2.576394            0.000131839094            2.51376696e-06           
       2.582507            0.000137902366            2.56606192e-06           
       2.588619            0.000131685288            2.44860172e-06           
       2.594732             0.00013232618            2.50913646e-06           
       2.600844            0.000131113693            2.48625714e-06           
       2.606957            0.000135917601            2.47431429e-06           
       2.613069            0.000129095509            2.48141551e-06           
       2.619181            0.000132821863            2.48013553e-06           
       2.625294            0.000137038956            2.49741714e-06           
       2.631406            0.000133121791             2.4843352e-06           
       2.637519            0.000132542162            2.50794569e-06           
       2.643631            0.000131191685            2.41976424e-06           
       2.649744             0.00013301221            2.45878141e-06           
       2.655856            0.000134897512            2.52716241e-06           
       2.661969            0.000133693985            2.42559782e-06           
       2.668081            0.000127497916             2.3923725e-06           
       2.674193            0.000130641984            2.44817719e-06           
       2.680306             0.00012597452            2.40457508e-06           
       2.686418            0.000134317287            2.43396509e-06           
       2.692531             0.00013031553             2.4128463e-06           
       2.698643            0.000128975163            2.48288921e-06           
       2.704756            0.000131557009            2.39349013e-06           
       2.710868             0.00013131687             2.4003694e-06           
       2.716981             0.00012820409            2.37160976e-06           
       2.723093            0.000128854793            2.47869654e-06           
       2.729205            0.000132340358            2.38575522e-06           
       2.735318             0.00013358707            2.42720833e-06           
       2.741430            0.000126482952            2.34514695e-06           
       2.747543            0.000130972805              2.421359e-06           
       2.753655            0.000128411099            2.41469686e-06           
       2.759768            0.000129326668            2.35280068e-06           
       2.765880            0.000126727402             2.3449555e-06           
       2.771993             0.00012670624            2.35801066e-06           
       2.778105            0.000134269428            2.44317604e-06           
       2.784217            0.000125990238            2.35172612e-06           
       2.790330            0.000128182826            2.34720004e-06           
       2.796442            0.000130510817            2.35710496e-06           
       2.802555             0.00012708948              2.342872e-06           
       2.808667            0.000122549997            2.31248909e-06           
       2.814780             0.00012740113            2.39437992e-06           
       2.820892            0.000125161547            2.30675592e-06           
       2.827005            0.000126170866             2.3076786e-06           
       2.833117            0.000127441512            2.32206009e-06           
       2.839229            0.000125859929            2.30169152e-06           
       2.845342            0.000123260971            2.31127792e-06           
       2.851454            0.000128028996            2.33242274e-06           
       2.857567            0.000127096593            2.35219873e-06           
       2.863679            0.000126387633            2.31381226e-06           
       2.869792            0.000127707778            2.32053337e-06           
       2.875904            0.000122346195            2.26154604e-06           
       2.882016            0.000122399704            2.28111768e-06           
       2.888129            0.000122153178            2.25389103e-06           
       2.894241            0.000123546269            2.25910796e-06           
       2.900354            0.000124549616            2.28086119e-06           
       2.906466            0.000122578139            2.26364872e-06           
       2.912579            0.000120929574            2.24174239e-06           
       2.918691            0.000119419551            2.24436951e-06           
       2.924804            0.000121308236            2.24923467e-06           
       2.930916            0.000119345787            2.26684823e-06           
       2.937028            0.000124054658            2.93073481e-06           
       2.943141            0.000120465295            3.69481999e-06           
       2.949253            0.000125394085            4.90584796e-06           
       2.955366            0.000122412324            7.87648185e-06           
