################################################################################
# EDF_DataBlockID                 0.Image.Psd
# EDF_BinarySize                  4637784
# EDF_HeaderSize                  3072
# ByteOrder                       LowByteFirst
# DataType                        FloatValue
# Dim_1                           1038
# Dim_2                           1117
# Image                           0
# HeaderID                        EH:000000:000000:000000
# Size                            4637784
# BIO_SYSTEM_CONF_TXT             WAXSRES
# Center_1                        606.875
# Center_2                        651.034
# Comment                         gamma_2X - gamma_2X_SAXS_HI_1200s
# DDummy                          0.6
# Date                            2023-10-11T01:38:21
# Delta                           0
# Dummy                           -1.5
# ExposureTime                    1200
# Force                           9.91088
# Gamma                           0
# Intensity1                      4.45223e-08
# JawsDistance                    4.54563
# JawsVelocity                    0.358589
# PSize_1                         7.5e-05
# PSize_2                         7.5e-05
# Pressure                        0.0790777
# SampleDistance                  0.899998
# SampleEnvKind                   saxs
# SampleEnvPN                     Solids
# SampleEnvSN                     1012
# Strain                          0
# Stress                          0
# Thickness                       0
# WaveLength                      1.541891e-10
# Wavelength                      1.54189e-10
# anaB                            0
# anaB_dial                       -0.0012015
# anaPark                         -175.125
# anaPark_dial                    175.169
# anaXi                           0
# anaXi_dial                      0
# anaZ                            -9.13123e-08
# anaZ_dial                       6.2299
# aux                             0
# aux_dial                        -0.000125
# b2c                             0
# b2c_dial                        0
# beamx                           602.698
# beamx_dial                      602.698
# beamz                           651.159
# beamz_dial                      651.159
# bioZ                            -2.90461e-08
# bioZ_dial                       -0.546695
# det0x                           0
# det0x_dial                      3.98621
# det0xvd                         0
# det0xvd_dial                    0
# det0y                           899.998
# det0y_dial                      43.5135
# det0z                           0
# det0z_dial                      7.30833
# det0zvd                         0
# det0zvd_dial                    0
# distana                         93.4
# distana_dial                    93.4
# mag                             2.6365
# mag_dial                        2.6365
# mono1B                          1.00136e-08
# mono1B_dial                     -0.277
# mono2B                          1.75476e-07
# mono2B_dial                     -4.366
# mono2X                          -1
# mono2X_dial                     3.96031
# mono2Xi                         0
# mono2Xi_dial                    0
# monoZ                           -11
# monoZ_dial                      -10.6609
# om                              1.30741e-08
# om_dial                         -0.939898
# phi                             -4.9295e-08
# phi_dial                        -7.01716
# qana                            0
# qana_dial                       0
# ry                              0
# ry_dial                         0.00149998
# s1bot                           1
# s1bot_dial                      -1.57906
# s1hl                            0.1
# s1hl_dial                       -0.02125
# s1hr                            1.5
# s1hr_dial                       1.86625
# s1top                           0.6
# s1top_dial                      0.783906
# s2bot                           0.95
# s2bot_dial                      -1.84531
# s2hl                            0.35
# s2hl_dial                       -1.115
# s2hr                            0.55
# s2hr_dial                       -0.265313
# s2top                           -0.05
# s2top_dial                      -1.43281
# ttdeg                           0
# ttdeg_dial                      0
# wind                            72.0045
# wind_dial                       72.0233
# x                               0.4
# x_dial                          1.10969
# z                               -13.5
# z_dial                          5.60906
# CountCutoff                     15302352
# DetectorModel                   Dectris EIGER2 Si 1M, S/N E-02-0357
# ThresholdSetting                4023.88989258
# Saturation                      0
# FlatField                       Corrected
# BackgroundReductionExtra        0.02
# Detector                        0
# Monitor                         0
# Pil_Roi0                        5.34268e+10
# SumForIntensity1                5.34268e+10
# TransmittedFlux                 4.45223e+07
# det                             0
# mon                             0
# pilai0                          5.34268e+10
# pilai1                          0
# pilct0                          5.34268e+10
# pilct1                          0
# pilroi0                         5.34268e+10
# pilroi1                         0
# sec                             0.099
# title                           10_10_2023_0_00037.edf
# usaxs0                          0
################################################################################
q(A-1)                    I(q)                      Sig(q)                    
0.00016979159920298188    613461.6162405962         20.33127266781486         
0.0005093747976089456     609269.4220742556         14.327174994327653        
0.0008489579960149094     580697.3876709379         9.595140807181084         
0.001188541194420873      579769.8440783789         8.242610617024765         
0.0015281243928268369     522135.286118115          7.357084718174658         
0.001867707591232801      463809.4557370891         5.812592383941532         
0.0022072907896387643     396872.52493393264        5.2371398668444735        
0.002546873988044728      327847.17397760326        4.203893554971067         
0.002886457186450692      259496.84938080062        3.6674601225683254        
0.003226040384856656      196745.33104913041        2.997969978864242         
0.0035656235832626196     138264.79080277373        2.341005624386175         
0.0039052067816685828     88351.33398615143         1.8186179415821209        
0.004244789980074546      52841.08880719433         1.3342650299639887        
0.004584373178480511      28933.343199132472        0.9873146741875515        
0.004923956376886474      16383.263195045716        0.6853897673497786        
0.005263539575292438      8250.867897784023         0.4788123646532949        
0.005603122773698402      4293.086897746451         0.33039494018267385       
0.005942705972104365      2427.9680132184917        0.24502465661518363       
0.00628228917051033       1555.4930045327956        0.19261781294695557       
0.0066218723689162925     839.9373868749385         0.1340416940361935        
0.006961455567322258      445.73749757558153        0.09650427345451373       
0.0073010387657282206     231.474901981326          0.06849013848766107       
0.007640621964134184      90.05224626075506         0.04148964579916738       
0.007980205162540149      34.18570346741169         0.02503604398150601       
0.008319788360946111      8.60752826146599          0.012004069844812235      
0.008659371559352074      2.3729678856633596        0.006508183539541844      
0.00899895475775804       0.7065571854045741        0.003327452675732329      
0.009338537956164003      0.3522330944083879        0.002349380884660964      
0.009678121154569966      0.26086470130029027       0.001976396647588419      
0.01001770435297593       0.2089404177271924        0.0017307531838564904     
0.010357287551381893      0.17239098449188048       0.0015934362709463588     
0.01069687074978786       0.1474573582014533        0.0013890015262937236     
0.011036453948193822      0.13135700293033886       0.0013304999786967846     
0.011376037146599785      0.11674779113645692       0.0012241033639855696     
0.01171562034500575       0.10397857953016747       0.0011261062276909407     
0.012055203543411714      0.09405285797282666       0.0010783542825786863     
0.012394786741817678      0.08563323389575521       0.0009910398546346259     
0.01273436994022364       0.08005762929193146       0.0009644093595753496     
0.013073953138629604      0.07104521952680797       0.0008969808433832144     
0.013413536337035568      0.06525673992230911       0.0008371055428269243     
0.013753119535441533      0.059909599929590183      0.0008020767397977151     
0.014092702733847497      0.05573304040841198       0.0007390856709722813     
0.01443228593225346       0.05062916588765351       0.0007344209850588943     
0.014771869130659422      0.045368782530924634      0.0006644217202177977     
0.015111452329065385      0.04242663605990902       0.0006379277326264071     
0.01545103552747135       0.038913167577734914      0.0006034726569323496     
0.015790618725877316      0.036877162025381965      0.0005804616013637788     
0.01613020192428328       0.03377345245465296       0.000560266556880619      
0.01646978512268924       0.031541840522781216      0.0005228408436401113     
0.016809368321095204      0.029850710848719864      0.000509451564735195      
0.017148951519501167      0.027818398576723767      0.0004871123672983688     
0.017488534717907133      0.026647242986939528      0.00047155433724462866    
0.017828117916313096      0.02409448832854535       0.0004442915000407178     
0.018167701114719062      0.022344456309759165      0.00042087465854356875    
0.018507284313125025      0.021431252983835646      0.00041340242042732826    
0.018846867511530987      0.019471406062588573      0.000387787472594173      
0.01918645070993695       0.019092070249941237      0.0003818099506117841     
0.019526033908342916      0.018335496873225623      0.00036948805123824836    
0.01986561710674888       0.016869358140762843      0.00034636841457634705    
0.020205200305154842      0.015654493970934734      0.0003404690985491508     
0.020544783503560805      0.014816128383603818      0.0003216494845760249     
0.02088436670196677       0.014184496122241708      0.0003159490046204236     
0.021223949900372737      0.013040268390189133      0.00029944008234342976    
0.0215635330987787        0.013132744575606847      0.00029785252517383284    
0.021903116297184663      0.012595110463471462      0.0002913273572155449     
0.022242699495590625      0.011640008244943247      0.0002729896397395895     
0.022582282693996588      0.011374623587182792      0.0002721317509165882     
0.022921865892402554      0.011058995536980113      0.0002639047034009715     
0.023261449090808517      0.010864828871608601      0.00026343088935648233    
0.02360103228921448       0.009983365853801229      0.00024814730555548813    
0.023940615487620442      0.00953988719685169       0.00023877863019961727    
0.02428019868602641       0.008927168259542108      0.00023305983075393313    
0.024619781884432375      0.008781096188964308      0.00022683402902273756    
0.024959365082838338      0.008762974353827148      0.00022734256452935198    
0.0252989482812443        0.0081753109023765        0.00021722365502024757    
0.025638531479650263      0.007991505468644085      0.00021052802958587913    
0.025978114678056226      0.008100261850046675      0.0002157631195000276     
0.02631769787646219       0.0069169477750188136     0.00019348933398869993    
0.026657281074868155      0.0070518082431023175     0.00019817203630695206    
0.026996864273274118      0.006724778552699977      0.00018945604522496107    
0.027336447471680087      0.007052353078213832      0.00019420807339244983    
0.02767603067008605       0.006315773920368665      0.00018288171566162222    
0.028015613868492013      0.005871967006508403      0.00017330167429380875    
0.02835519706689798       0.006043552828511429      0.00017802510044417257    
0.02869478026530394       0.005933443835710265      0.00017146322454418344    
0.029034363463709904      0.0053494596871328124     0.00016588484777676655    
0.029373946662115867      0.005398763078480735      0.00016416026382978186    
0.02971352986052183       0.0050654900021341156     0.00015559275199167997    
0.030053113058927793      0.0054532695031046415     0.0001639280983863923     
0.030392696257333755      0.00501449805786159       0.000153990983088487      
0.03073227945573972       0.0049452493588153295     0.00015428349773291493    
0.031071862654145688      0.004798235886854853      0.000149717543581208      
0.03141144585255165       0.004644784254265886      0.0001456723036011317     
0.03175102905095761       0.004558650127059731      0.00014656853838585892    
0.032090612249363576      0.004200067845125999      0.00013623362123926948    
0.03243019544776954       0.004150693196517597      0.00013805837657855912    
0.03276977864617551       0.00416928323539862       0.00013474333931076706    
0.03310936184458147       0.0037902427421944453     0.00012984330785937272    
0.033448945042987434      0.003940324366644227      0.00013109754611094335    
0.0337885282413934        0.0038909244040621336     0.00012872052530153006    
0.03412811143979936       0.003846124910160364      0.00012920806013399876    
0.03446769463820532       0.0036866335868615025     0.00012383735159090167    
0.03480727783661129       0.0036507541735414533     0.00012390445292996687    
0.035146861035017254      0.0033642816514467327     0.0001189439223513772     
0.03548644423342322       0.0035161195159206095     0.00011911573905514463    
0.03582602743182918       0.003157359652056789      0.00011407729032812128    
0.03616561063023514       0.0030790072763065826     0.00011047841239205759    
0.036505193828641105      0.0032344489362139623     0.00011382027422091847    
0.03684477702704707       0.003209452930600807      0.00011312788154191057    
0.03718436022545303       0.0032150643748810335     0.00011150810532271733    
0.037523943423858994      0.0033527797860015396     0.00011545590607190396    
0.037863526622264956      0.0029174545592940983     0.00010502344769148497    
0.03820310982067092       0.0028917403797937913     0.00010575301411097265    
0.03854269301907689       0.0028674424391006777     0.00010325434997308939    
0.03888227621748285       0.0029296547807658477     0.00010531706530778836    
0.039221859415888814      0.002831791496170633      0.00010268154488980687    
0.039561442614294784      0.0026297296116594136     9.794108139788789e-05     
0.03990102581270075       0.0027449052750660534     0.00010033491991574992    
0.04024060901110671       0.002818350673641254      0.00010051276647588561    
0.04058019220951267       0.0026674011333741995     9.850725809391362e-05     
0.040919775407918635      0.002669002751412181      9.73615172989417e-05      
0.0412593586063246        0.0025552449954871154     9.451991960020446e-05     
0.04159894180473056       0.0027248943842524474     9.81820653618696e-05      
0.04193852500313653       0.0024236649913801523     9.140464918611091e-05     
0.04227810820154249       0.002481933149461044      9.297377979499292e-05     
0.042617691399948456      0.0026110873435140907     9.36244810723032e-05      
0.04295727459835442       0.002419515248273117      9.074833375094448e-05     
0.04329685779676038       0.002239320801105962      8.724874819938946e-05     
0.043636440995166344      0.00230408496736031       8.74061901147824e-05      
0.043976024193572306      0.002390788418589169      8.958836267130259e-05     
0.04431560739197827       0.002285584710500234      8.574642903362777e-05     
0.04465519059038423       0.0022879150616707563     8.70457819466226e-05      
0.044994773788790195      0.002213162272600106      8.468091557721793e-05     
0.045334356987196164      0.002192532063839544      8.383322205944472e-05     
0.04567394018560213       0.002261167798551271      8.503434982578302e-05     
0.0460135233840081        0.0020915764895235948     8.097110183977211e-05     
0.04635310658241406       0.0021917834506903953     8.381926251033377e-05     
0.04669268978082002       0.0020885228357435076     8.044584470943306e-05     
0.047032272979225985      0.0020849602923818005     7.973830866148262e-05     
0.04737185617763195       0.002118107020101672      8.129465029194356e-05     
0.04771143937603791       0.0019765768061778773     7.74197002859984e-05      
0.04805102257444387       0.0019693159098877976     7.767164706615532e-05     
0.048390605772849836      0.0019375801893001879     7.572119428806245e-05     
0.0487301889712558        0.0019507103165643167     7.65680557048776e-05      
0.04906977216966177       0.0018945740059115642     7.541638606358312e-05     
0.04940935536806773       0.0018895321691456237     7.404880299077696e-05     
0.049748938566473694      0.0019933146111488524     7.688743992026315e-05     
0.05008852176487966       0.001725972360571074      7.031891950164506e-05     
0.05042810496328562       0.001779915953990009      7.198549718109668e-05     
0.05076768816169158       0.00166840495451602       6.921008239544531e-05     
0.051107271360097545      0.0017146895521047098     6.997756984734032e-05     
0.05144685455850351       0.0019206630668865473     7.36722939364897e-05      
0.05178643775690947       0.0017611050476227129     7.021549527305982e-05     
0.05212602095531544       0.001697096944822133      6.932486266878534e-05     
0.0524656041537214        0.0017506824072709725     6.946869138381173e-05     
0.05280518735212737       0.0017091952193364996     6.829248717480002e-05     
0.053144770550533335      0.0017467143042308136     6.960398113972265e-05     
0.0534843537489393        0.0017608539555943965     6.93873320711406e-05      
0.05382393694734526       0.0016851841636100085     6.774289896459136e-05     
0.054163520145751216      0.0015583963489743233     6.402291494658069e-05     
0.054503103344157186      0.001720254112799723      6.827220089218135e-05     
0.05484268654256314       0.001676575709220924      6.713066989894689e-05     
0.05518226974096911       0.0016996961611635013     6.650684769473696e-05     
0.05552185293937507       0.001569757539797684      6.444519360364218e-05     
0.05586143613778104       0.0017454495555455753     6.704129398831167e-05     
0.05620101933618699       0.001756887014784694      6.807839237314117e-05     
0.05654060253459296       0.001677946362077861      6.508291364268714e-05     
0.05688018573299892       0.0015414334583114444     6.312255522558955e-05     
0.05721976893140489       0.0016826162915171904     6.541912113306794e-05     
0.05755935212981085       0.001635674526554638      6.428832233328432e-05     
0.05789893532821682       0.0015910964503774436     6.340633779694525e-05     
0.05823851852662278       0.001534108826332248      6.148749886551417e-05     
0.058578101725028746      0.0015215969257467927     6.17177583433424e-05      
0.058917684923434716      0.0014431582554459972     5.9746531253534945e-05    
0.05925726812184067       0.0014920252737448832     6.052804848022057e-05     
0.05959685132024664       0.0015319521727118167     6.158560386881669e-05     
0.0599364345186526        0.0014675064027758703     5.914663460632748e-05     
0.060276017717058566      0.0014453188058188137     5.965500775912932e-05     
0.06061560091546452       0.0015097411115601704     6.001847566196321e-05     
0.06095518411387049       0.0015761804973687791     6.146111929850211e-05     
0.06129476731227645       0.0015045317292335888     5.991506280180957e-05     
0.06163435051068242       0.0015432401142324863     6.004671217619826e-05     
0.06197393370908839       0.0014529290485698434     5.9062051914409354e-05    
0.06231351690749434       0.0014111693584634548     5.68804393195268e-05      
0.06265310010590032       0.0015604978730690102     6.04342617568516e-05      
0.06299268330430627       0.0013979226837782263     5.690413045667994e-05     
0.06333226650271225       0.0014936544235571233     5.846984819402077e-05     
0.0636718497011182        0.0013008348893159515     5.489275010273941e-05     
0.06401143289952417       0.001473201846965892      5.734280119702668e-05     
0.06435101609793012       0.0013742518965475508     5.59421850753356e-05      
0.0646905992963361        0.0014621025053307285     5.741247685707524e-05     
0.06503018249474204       0.0012868942289439161     5.368364649472353e-05     
0.06536976569314802       0.0013780560365850487     5.5622003409889874e-05    
0.06570934889155398       0.0014561283616803971     5.64979695577408e-05      
0.06604893208995995       0.0013557996574770532     5.505674709314964e-05     
0.06638851528836591       0.0013946467808152465     5.4958486524760154e-05    
0.06672809848677187       0.0014470668015302917     5.6345153067052594e-05    
0.06706768168517784       0.001320443213891184      5.358436974854757e-05     
0.0674072648835838        0.0014184368090168977     5.505101391334891e-05     
0.06774684808198977       0.0013733564075643833     5.48025786146914e-05      
0.06808643128039572       0.0013329835898929414     5.3157022917983794e-05    
0.0684260144788017        0.0014114004466977558     5.484948809912503e-05     
0.06876559767720765       0.0013513045070609507     5.341642231992395e-05     
0.06910518087561363       0.0013809991670652398     5.404259130353883e-05     
0.06944476407401959       0.0013493010651717163     5.333528622264457e-05     
0.06978434727242555       0.001443993163582434      5.470667478523582e-05     
0.07012393047083151       0.0014458979062848439     5.49544699748715e-05      
0.07046351366923748       0.0013244164121027635     5.2232488968461455e-05    
0.07080309686764344       0.0013530818712172445     5.277467870325522e-05     
0.0711426800660494        0.001270728851950077      5.122182037868622e-05     
0.07148226326445536       0.0014390661223915749     5.387357205513815e-05     
0.07182184646286133       0.0013167209271828493     5.196202275383955e-05     
0.07216142966126729       0.0012976579186464506     5.081752165681602e-05     
0.07250101285967325       0.001236456837686198      4.997500333359915e-05     
0.07284059605807922       0.001269673502373497      5.04158602518926e-05      
0.07318017925648519       0.001271408365827951      5.004339151773766e-05     
0.07351976245489114       0.0013014410097143547     5.129100757960667e-05     
0.07385934565329712       0.0012358274632815283     4.9034887781286004e-05    
0.07419892885170308       0.0012349334150171902     4.941097851151112e-05     
0.07453851205010904       0.0012834804925946357     4.9792254450242e-05       
0.074878095248515         0.0012474373774958311     4.942574971721545e-05     
0.07521767844692097       0.0012558514758603373     4.934207770850661e-05     
0.07555726164532693       0.0012243377941579421     4.856232498078843e-05     
0.0758968448437329        0.0012896446489220224     4.996585666734013e-05     
0.07623642804213886       0.0012433008707841585     4.857423387270968e-05     
0.07657601124054482       0.0012648861704972003     4.91500848042257e-05      
0.0769155944389508        0.0012754008352104562     4.905961730752398e-05     
0.07725517763735675       0.0012706833628945192     4.871391443216592e-05     
0.07759476083576272       0.0012373556090904886     4.861260567511028e-05     
0.07793434403416867       0.0013298283280051904     4.957813207892345e-05     
0.07827392723257465       0.0013279600751338544     4.990385825223226e-05     
0.0786135104309806        0.0011663349809122542     4.633561612532836e-05     
0.07895309362938657       0.0012107064797147351     4.7241146139226965e-05    
0.07929267682779252       0.0011115265654106385     4.535804798813763e-05     
0.0796322600261985        0.001186531754026637      4.640401347008924e-05     
0.07997184322460446       0.0012157453546461786     4.725900908152034e-05     
0.08031142642301042       0.0012527131632597537     4.739464796135903e-05     
0.08065100962141639       0.0012549375818217549     4.778762352302237e-05     
0.08099059281982235       0.0012109735055790079     4.667626017955355e-05     
0.08133017601822833       0.001169001868838486      4.558746503757417e-05     
0.08166975921663427       0.0012987166927919654     4.840255988141204e-05     
0.08200934241504025       0.0011212521837162006     4.4588190199847985e-05    
0.0823489256134462        0.0011493099552631226     4.5113085174227344e-05    
0.08268850881185218       0.001230725367298085      4.651605701174099e-05     
0.08302809201025813       0.0012413078773601189     4.639921846251019e-05     
0.0833676752086641        0.0012704194718013162     4.74620158080855e-05      
0.08370725840707006       0.0011729625480904012     4.507503669640286e-05     
0.08404684160547603       0.0012646629805711893     4.687928569429059e-05     
0.08438642480388199       0.0012332536293105036     4.595433538132584e-05     
0.08472600800228795       0.0012204163170651153     4.5919192762323436e-05    
0.08506559120069392       0.0012662544929433995     4.666919320505047e-05     
0.08540517439909988       0.0011545705365593251     4.415722128166817e-05     
0.08574475759750584       0.0011834308022876706     4.500268540613447e-05     
0.0860843407959118        0.001211235794885124      4.517154318518379e-05     
0.08642392399431777       0.0011503096481216613     4.41729304298964e-05      
0.08676350719272373       0.0012275938773279639     4.536259395448932e-05     
0.0871030903911297        0.0012515944211612014     4.5620085001925393e-05    
0.08744267358953567       0.0012208173224542008     4.5195343754617446e-05    
0.08778225678794163       0.0012013169957803779     4.468086635463341e-05     
0.0881218399863476        0.0011981022221489296     4.460742223505745e-05     
0.08846142318475356       0.0012085422210776143     4.437989791379459e-05     
0.08880100638315952       0.0011994657309533257     4.427999067184086e-05     
0.08914058958156548       0.0011971146446521968     4.443915054109729e-05     
0.08948017277997145       0.0011210800045229927     4.2705516528911526e-05    
0.08981975597837741       0.0011098210999414642     4.260644412933944e-05     
0.09015933917678337       0.001182312024724652      4.33241148148855e-05      
0.09049892237518933       0.0011034535248073477     4.23050722310843e-05      
0.0908385055735953        0.0011741905799220794     4.341875868261519e-05     
0.09117808877200127       0.0011293057902118594     4.237959614794695e-05     
0.09151767197040722       0.0011561549028748575     4.30202805602796e-05      
0.0918572551688132        0.0011309799309823548     4.215107966236898e-05     
0.09219683836721915       0.001142669144386893      4.2819739180495876e-05    
0.09253642156562512       0.0011639330792468196     4.264935441737426e-05     
0.09287600476403109       0.001207800809056352      4.359757529515918e-05     
0.09321558796243705       0.0011474369986508059     4.226067919504002e-05     
0.09355517116084301       0.00103817191690573       4.017514702704798e-05     
0.09389475435924897       0.0011080427313923627     4.171002918658689e-05     
0.09423433755765494       0.0011874182792278253     4.257539283610384e-05     
0.0945739207560609        0.001072798658524191      4.064137542467187e-05     
0.09491350395446688       0.0010990039962640145     4.117013877742916e-05     
0.09525308715287283       0.001115698831662585      4.118845927539272e-05     
0.0955926703512788        0.0011067241428541726     4.1302924427392706e-05    
0.09593225354968475       0.0011491697862659254     4.1395604636753845e-05    
0.09627183674809073       0.0011566914036406086     4.2129083939107377e-05    
0.09661141994649668       0.0010738488719366217     4.0261808753446706e-05    
0.09695100314490265       0.001151322630751923      4.1423281453632745e-05    
0.0972905863433086        0.0010774911622054482     4.02515125285601e-05      
0.09763016954171458       0.0010943506126929955     4.0307757941249374e-05    
0.09796975274012054       0.0010748810722772013     4.024786558301474e-05     
0.0983093359385265        0.001115632297831193      4.047589203588982e-05     
0.09864891913693247       0.001069447016241614      3.962934051991566e-05     
0.09898850233533843       0.001076731253128725      3.997144278481456e-05     
0.09932808553374439       0.0010790164611525687     3.962356926228145e-05     
0.09966766873215036       0.0010917035122315608     4.01164560232855e-05      
0.10000725193055632       0.0011071809776981671     3.996553085553081e-05     
0.10034683512896228       0.00101918826564508       3.861403314306115e-05     
0.10068641832736826       0.0010792115703023603     3.9521197519200536e-05    
0.1010260015257742        0.0010652117667211912     3.9169694442567304e-05    
0.10136558472418018       0.0010241379647792162     3.8427734661406325e-05    
0.10170516792258615       0.0010518104031676165     3.865538893760543e-05     
0.10204475112099211       0.0010329901875052224     3.8604012678624106e-05    
0.10238433431939807       0.0011161832251736135     3.97686444871344e-05      
0.10272391751780403       0.0010968587485176897     3.943336503910087e-05     
0.10306350071621          0.0010315257974343574     3.81809155272049e-05      
0.10340308391461596       0.0010276610376688026     3.7950736745249966e-05    
0.10374266711302192       0.0010758155255648056     3.9094749195106996e-05    
0.10408225031142788       0.0010439573138259835     3.7917312743504565e-05    
0.10442183350983385       0.001107413451348523      3.9426933264356425e-05    
0.10476141670823981       0.001092207058106237      3.898340489893932e-05     
0.10510099990664577       0.0010751906513506626     3.8599114686445054e-05    
0.10544058310505175       0.0010656194261273095     3.8436924342971315e-05    
0.1057801663034577        0.0009753769466321005     3.648407174209949e-05     
0.10611974950186367       0.0009564805617553214     3.6471952211269114e-05    
0.10645933270026964       0.0010492214332713428     3.782107711095115e-05     
0.1067989158986756        0.0011266401305273295     3.921154072935478e-05     
0.10713849909708156       0.0009947609609847988     3.673398445900246e-05     
0.10747808229548753       0.001021128855974459      3.705050112703302e-05     
0.1078176654938935        0.001033344102161352      3.769657631256427e-05     
0.10815724869229947       0.0010380084695535536     3.714349735970063e-05     
0.10849683189070543       0.0010148434940315686     3.696430036613866e-05     
0.1088364150891114        0.001057998452735558      3.775159443107624e-05     
0.10917599828751737       0.0010587743799724753     3.750433387025218e-05     
0.10951558148592332       0.001004983362867225      3.6611511699790523e-05    
0.10985516468432928       0.0010326731183791778     3.682249021356552e-05     
0.11019474788273526       0.0010557559812462744     3.744199882891456e-05     
0.11053433108114122       0.0009047483526512956     3.466112181646439e-05     
0.11087391427954717       0.0010130747908652323     3.633938899439208e-05     
0.11121349747795313       0.0009784090598644942     3.5965181061852535e-05    
0.1115530806763591        0.0009995240034791073     3.586265232394571e-05     
0.11189266387476507       0.0010218062573912193     3.672741231569967e-05     
0.11223224707317102       0.000960587250104265      3.519101406876365e-05     
0.11257183027157701       0.0009810037282889262     3.56227681841036e-05      
0.11291141346998296       0.0008822918215985798     3.3799343121925966e-05    
0.11325099666838892       0.001019744081597331      3.6061207375535336e-05    
0.11359057986679488       0.0009388272317026505     3.494962106714867e-05     
0.11393016306520086       0.0009430133592173007     3.454783548652878e-05     
0.11426974626360681       0.0009479913374350357     3.479441044230036e-05     
0.11460932946201277       0.0009919131424155872     3.5515890169646655e-05    
0.11494891266041873       0.0010186902182024232     3.597525725672195e-05     
0.11528849585882471       0.0009503899602781181     3.463448242898976e-05     
0.11562807905723067       0.00093244980152858       3.42023304481859e-05      
0.11596766225563662       0.0009699399050103717     3.493200261325872e-05     
0.11630724545404261       0.000922354941032959      3.406447142852787e-05     
0.11664682865244856       0.0009364585078725712     3.4196739211832685e-05    
0.11698641185085452       0.0009512519055365809     3.448985878440542e-05     
0.11732599504926047       0.000878050156837282      3.282600100448912e-05     
0.11766557824766646       0.0009040221045209248     3.360741815163099e-05     
0.11800516144607241       0.0009434150409008633     3.397212512086489e-05     
0.11834474464447838       0.000887857781591484      3.318317236669106e-05     
0.11868432784288432       0.0009438258584006627     3.3979767736431904e-05    
0.11902391104129031       0.0009004416973146292     3.3212330989398195e-05    
0.11936349423969626       0.0008923520573654964     3.307794247240977e-05     
0.11970307743810223       0.0008715128821789516     3.2439946559981084e-05    
0.1200426606365082        0.0008754032575940774     3.268098258069945e-05     
0.12038224383491417       0.0009182278408930803     3.3194466552328497e-05    
0.12072182703332013       0.0009332489084543135     3.3698050171123917e-05    
0.12106141023172608       0.0009057637063118045     3.3056956658568196e-05    
0.12140099343013205       0.000904885632053502      3.2749551395180784e-05    
0.12174057662853802       0.0009162087846911596     3.3321823770771874e-05    
0.12208015982694398       0.0009209924155477265     3.304723785665728e-05     
0.12241974302534993       0.0008497488427770891     3.1947630294015166e-05    
0.12275932622375592       0.0009200858226545769     3.302396223563264e-05     
0.12309890942216187       0.0008496030461938221     3.156805969464638e-05     
0.12343849262056783       0.0008789659258176113     3.2391834898376456e-05    
0.1237780758189738        0.0008743662159025676     3.1914285414826274e-05    
0.12411765901737977       0.0009362077207307827     3.3268733252143235e-05    
0.12445724221578572       0.0008885137893769664     3.213011281743618e-05     
0.12479682541419168       0.0008730806929568714     3.199491514979265e-05     
0.12513640861259767       0.0008981525242066447     3.2458229533048865e-05    
0.1254759918110036        0.0008568140826982075     3.141715904424834e-05     
0.12581557500940957       0.0008418710871212272     3.124899417591658e-05     
0.12615515820781553       0.0008850280360624104     3.188289159773878e-05     
0.12649474140622152       0.0008522373214836181     3.1447796436190976e-05    
0.12683432460462746       0.0008445502095346661     3.11256377818098e-05      
0.12717390780303342       0.0007496263768276471     2.9212910901984423e-05    
0.1275134910014394        0.0008910559687538883     3.1978177982593817e-05    
0.12785307419984537       0.0008660656540859727     3.14266332801163e-05      
0.12819265739825134       0.0009047247006006232     3.206636270386097e-05     
0.12853224059665727       0.0008134375345742481     3.030381567535894e-05     
0.12887182379506326       0.0008357416482512204     3.074875365945628e-05     
0.12921140699346922       0.0008694458564987968     3.138909721191827e-05     
0.1295509901918752        0.0008269166333192474     3.0408317151649863e-05    
0.12989057339028112       0.0008301183890481102     3.060703881128761e-05     
0.1302301565886871        0.0008250991997903488     3.0268731617057432e-05    
0.13056973978709308       0.0007934403351662343     2.9867330825413563e-05    
0.13090932298549904       0.0007806993152363896     2.9431198082028132e-05    
0.131248906183905         0.0007854445614799561     2.955100593758357e-05     
0.13158848938231096       0.0007560577978487003     2.8886163743025636e-05    
0.13192807258071693       0.0007424011421103393     2.862420570686912e-05     
0.1322676557791229        0.0008185830436774376     3.0124926755243193e-05    
0.13260723897752885       0.0008398892925899378     3.0297613555919722e-05    
0.13294682217593481       0.0007653178946670013     2.8968403174694318e-05    
0.13328640537434078       0.0007693366138624614     2.900915277994763e-05     
0.13362598857274674       0.0007870569185483658     2.9229163086982335e-05    
0.1339655717711527        0.0007764730784095632     2.9137725108354903e-05    
0.13430515496955867       0.0007613046266445547     2.8564059586696186e-05    
0.13464473816796463       0.000810295010235645      2.9759777311147565e-05    
0.13498432136637062       0.0008362616498496063     3.003902280722041e-05     
0.13532390456477658       0.0007817485897667175     2.9003030853740813e-05    
0.13566348776318252       0.0007454594400856329     2.8367243008085183e-05    
0.13600307096158848       0.0007697430470237511     2.8575429901425168e-05    
0.13634265415999447       0.0007487269881049456     2.8452344886464824e-05    
0.13668223735840043       0.0007377544088725224     2.792626602023778e-05     
0.13702182055680637       0.0007634338717920131     2.8525768535958962e-05    
0.13736140375521233       0.0007467252278611889     2.8150941422334108e-05    
0.13770098695361832       0.0007682979825703654     2.8448766621092328e-05    
0.13804057015202428       0.000750577126946319      2.830726949466235e-05     
0.13838015335043022       0.0007405514594015126     2.7773889034205398e-05    
0.1387197365488362        0.0006714886270023346     2.651894875306435e-05     
0.13905931974724217       0.0007791815042836411     2.868924848022848e-05     
0.13939890294564813       0.0007853601526493341     2.8541676463032555e-05    
0.1397384861440541        0.0007761271816856997     2.851630388204397e-05     
0.14007806934246006       0.0007372297346491223     2.7611108725852815e-05    
0.14041765254086602       0.0007397327750930609     2.7802183395563075e-05    
0.14075723573927199       0.0007352120026035603     2.755243889390206e-05     
0.14109681893767795       0.000745673131406858      2.7737279579054852e-05    
0.1414364021360839        0.0008047658319087699     2.879351059178053e-05     
0.14177598533448987       0.0007176317764149226     2.714880930150512e-05     
0.14211556853289584       0.0006866999285702485     2.659788655540363e-05     
0.14245515173130183       0.0007070813096674656     2.681141163702066e-05     
0.14279473492970776       0.0007032720257162592     2.676946406553188e-05     
0.14313431812811372       0.0007134239422556658     2.6957016668149574e-05    
0.1434739013265197        0.0007878707535244816     2.8312732552256196e-05    
0.14381348452492568       0.0006940587699396875     2.6578848673833065e-05    
0.1441530677233316        0.0007097172224080208     2.6706527815191518e-05    
0.14449265092173758       0.0007183741196784069     2.7076400735292802e-05    
0.14483223412014354       0.0007060012787214137     2.673644602978718e-05     
0.14517181731854953       0.0006552257130300536     2.5781359447046156e-05    
0.14551140051695546       0.000703378152235692      2.67120196120826e-05      
0.14585098371536143       0.0006790641873581861     2.6167870677523073e-05    
0.14619056691376742       0.0007082129814870373     2.695623253004495e-05     
0.14653015011217338       0.0007154417711601689     2.6890016170589402e-05    
0.14686973331057934       0.0006860112144999572     2.672420087167744e-05     
0.14720931650898528       0.0006588948513196945     2.609043589800596e-05     
0.14754889970739127       0.0006595611648115337     2.6254836466549518e-05    
0.14788848290579723       0.000645915871939544      2.6007122506702445e-05    
0.1482280661042032        0.0006215488945018484     2.5350295926030496e-05    
0.14856764930260913       0.0006355987032063813     2.5783824262451845e-05    
0.14890723250101512       0.0006498913225222884     2.6016869677845783e-05    
0.14924681569942108       0.0007132736522199874     2.7219449285473888e-05    
0.14958639889782704       0.000650143372135056      2.608763012619774e-05     
0.149925982096233         0.0006681226314174851     2.6258393021223237e-05    
0.15026556529463897       0.0006103082968327905     2.5464243345148928e-05    
0.15060514849304493       0.0006453904876459473     2.5862469300877572e-05    
0.1509447316914509        0.0006269439679432432     2.5673213923112632e-05    
0.15128431488985686       0.0006486284423942803     2.6057820324720598e-05    
0.15162389808826282       0.0006913419140166464     2.6881416732058603e-05    
0.15196348128666878       0.0006288088664198354     2.584283364591766e-05     
0.15230306448507475       0.0006757083009258226     2.6504283200587634e-05    
0.1526426476834807        0.0006503544528409568     2.622543242243381e-05     
0.15298223088188667       0.000636698499893497      2.583269911246511e-05     
0.15332181408029263       0.0006499231510549213     2.6114929489611534e-05    
0.15366139727869862       0.0006374668925358612     2.597482638494999e-05     
0.1540009804771046        0.0006244662129364763     2.5568828956520106e-05    
0.15434056367551052       0.000613942607163817      2.5511291564356273e-05    
0.15468014687391649       0.000626791989094312      2.562657649120314e-05     
0.15501973007232248       0.0006225406944736342     2.5624268545983418e-05    
0.15535931327072844       0.0006089065980708943     2.5312606612149446e-05    
0.15569889646913437       0.0006382613135707349     2.5770536641544857e-05    
0.15603847966754036       0.000661636969299358      2.656262010077118e-05     
0.15637806286594633       0.0006283321049838562     2.5643737470932054e-05    
0.1567176460643523        0.0005791260520012969     2.4720050587938376e-05    
0.15705722926275822       0.0005554986415070068     2.407467109425133e-05     
0.15739681246116421       0.000587060035164777      2.4908513826779826e-05    
0.15773639565957018       0.0006109257349539308     2.5355393654291913e-05    
0.15807597885797614       0.0005959990108930265     2.5000058623518767e-05    
0.1584155620563821        0.0005832507816638599     2.5144727694654387e-05    
0.15875514525478807       0.0005203403973785742     2.3660058981595738e-05    
0.15909472845319403       0.0005571774050107311     2.4781216287404753e-05    
0.1594343116516           0.0005675660754518111     2.4985824194994387e-05    
0.15977389485000595       0.0006095364146985755     2.587750167427647e-05     
0.16011347804841192       0.0005749945714698577     2.5446066696690685e-05    
0.16045306124681788       0.0006262506626906275     2.6413397741261286e-05    
0.16079264444522384       0.0006206376021128571     2.650336473767056e-05     
0.16113222764362983       0.0005909719029240311     2.5738618038873636e-05    
0.16147181084203577       0.0005764946717412364     2.5490368863055712e-05    
0.16181139404044173       0.0005706106394964567     2.560152976934172e-05     
0.1621509772388477        0.0005575400331023828     2.5089007418979083e-05    
0.16249056043725368       0.0005350541219958515     2.491340432481752e-05     
0.16283014363565962       0.0005953546649902197     2.6018711887552715e-05    
0.16316972683406558       0.0005900995605231118     2.617506428432523e-05     
0.16350931003247157       0.0005747334246316291     2.5804439428242077e-05    
0.16384889323087753       0.0005690177766291056     2.5539405716235084e-05    
0.16418847642928347       0.0005577485258310698     2.556344724679093e-05     
0.16452805962768943       0.0005909270939943356     2.6177069860282415e-05    
0.16486764282609542       0.0005470915940543479     2.535130607681955e-05     
0.16520722602450139       0.0005433741157298947     2.5145183306290523e-05    
0.16554680922290735       0.0005750442473489998     2.5962936743247888e-05    
0.16588639242131328       0.000571379889194449      2.6038850979603374e-05    
0.16622597561971927       0.000560279965305344      2.5661150509186298e-05    
0.16656555881812524       0.000569702760925938      2.6046669069560624e-05    
0.1669051420165312        0.0005731577852117318     2.588717350805533e-05     
0.16724472521493716       0.000571419490881026      2.6219377849883886e-05    
0.16758430841334312       0.000525780367151113      2.5000829781128518e-05    
0.1679238916117491        0.0005376649623275452     2.5176929575425557e-05    
0.16826347481015505       0.0005747967334053296     2.631473250887588e-05     
0.168603058008561         0.0005376588315899534     2.5282054841051947e-05    
0.16894264120696698       0.0005548385786253615     2.5981844653991722e-05    
0.16928222440537294       0.0005328486272777004     2.5202252248208565e-05    
0.1696218076037789        0.0004933312414910344     2.4346696107311123e-05    
0.16996139080218486       0.0005544601182712098     2.596170076915624e-05     
0.17030097400059083       0.0005356880111444561     2.5370627846350016e-05    
0.1706405571989968        0.0005734392290728896     2.648011154913099e-05     
0.17098014039740278       0.000561629162212123      2.5846110585566796e-05    
0.17131972359580872       0.000523355896096596      2.5332006501437732e-05    
0.17165930679421468       0.0005511754398792371     2.6032158456411974e-05    
0.17199888999262064       0.0006033491858894765     2.6925949310494926e-05    
0.17233847319102663       0.000547332062640855      2.6024525006470254e-05    
0.17267805638943257       0.0005371496347897231     2.5400506142737542e-05    
0.17301763958783853       0.0005136757555955927     2.5304816112528164e-05    
0.1733572227862445        0.0005543608688712297     2.600171509217082e-05     
0.17369680598465048       0.0004974930777481712     2.4620998592952836e-05    
0.17403638918305644       0.0005496947494484275     2.6105245524170593e-05    
0.17437597238146238       0.0005021941928700619     2.4838310451353957e-05    
0.17471555557986837       0.0005211570956110622     2.5477354483006605e-05    
0.17505513877827433       0.0005221741174804629     2.5190830670217986e-05    
0.1753947219766803        0.0005155235772177542     2.5235108052793135e-05    
0.17573430517508623       0.0005117301452752974     2.5310520470530894e-05    
0.17607388837349222       0.0005378274177029911     2.5763724265644045e-05    
0.17641347157189818       0.0005199472312618917     2.5501388782487234e-05    
0.17675305477030415       0.0005081199419287473     2.4962683253923412e-05    
0.17709263796871008       0.0005239665159388931     2.569534302155072e-05     
0.17743222116711607       0.0004867064106616155     2.4627618240136446e-05    
0.17777180436552203       0.0005018785228779933     2.4979892101824984e-05    
0.178111387563928         0.0005176194729174782     2.5444933660579397e-05    
0.17845097076233396       0.0004986351160949645     2.490504604846058e-05     
0.17879055396073992       0.00048794479230538404    2.4866695416099135e-05    
0.17913013715914589       0.0004973420576878135     2.4804611096409114e-05    
0.17946972035755185       0.0005010586078695173     2.5110772531199776e-05    
0.1798093035559578        0.0005101190186811322     2.5354640295702948e-05    
0.18014888675436377       0.0004900422278133139     2.4850826575093694e-05    
0.18048846995276974       0.00048103600961232055    2.4638779997455724e-05    
0.1808280531511757        0.0004815371457023358     2.4503482707837e-05       
0.1811676363495817        0.0005314666783269718     2.6112636049875163e-05    
0.18150721954798762       0.00045426076538667586    2.3865778936454765e-05    
0.1818468027463936        0.0004835988675908664     2.472219630297978e-05     
0.18218638594479958       0.0004426768894046509     2.3703138801797553e-05    
0.18252596914320554       0.000464572658992527      2.4202994461269015e-05    
0.18286555234161148       0.00045595305331313477    2.4204398493631035e-05    
0.18320513554001744       0.0004447625316739617     2.3544738460435556e-05    
0.18354471873842343       0.000501510669084493      2.5367041743745297e-05    
0.1838843019368294        0.0004442070857055161     2.3789455268290666e-05    
0.18422388513523533       0.000449507756344617      2.3869321210782254e-05    
0.1845634683336413        0.0004419304805520869     2.394404236016253e-05     
0.18490305153204728       0.0004523131101193217     2.3821426475663938e-05    
0.18524263473045324       0.0004546222804101884     2.42450246069635e-05      
0.1855822179288592        0.00046074537460485916    2.4166392561533626e-05    
0.18592180112726517       0.0004947479643875465     2.513684845773439e-05     
0.18626138432567113       0.0004707404711479392     2.4665598410551646e-05    
0.1866009675240771        0.000474439822436004      2.4534830094335367e-05    
0.18694055072248306       0.00047846845042176717    2.4939152416056928e-05    
0.18728013392088902       0.0004815448371475114     2.4776344231774627e-05    
0.18761971711929498       0.00047080695112779875    2.463848021147422e-05     
0.18795930031770094       0.00046333975734930616    2.443662613788857e-05     
0.1882988835161069        0.00046823607915378484    2.4489788352002096e-05    
0.18863846671451287       0.00047189525987410613    2.482772103006648e-05     
0.18897804991291883       0.00044092166593110257    2.3669912282323682e-05    
0.1893176331113248        0.0004620626450553731     2.4508855773116002e-05    
0.1896572163097308        0.0004527331483500481     2.417329943355377e-05     
0.18999679950813672       0.00046513402419639556    2.4602293884081864e-05    
0.19033638270654268       0.00044958588830931495    2.4129756695445163e-05    
0.19067596590494865       0.0004418666302326521     2.3802452956002292e-05    
0.19101554910335464       0.00046711185504329195    2.4756451695821735e-05    
0.19135513230176057       0.0004204687520656586     2.3280034268546077e-05    
0.19169471550016653       0.00046235590627154404    2.461844588243588e-05     
0.1920342986985725        0.00045044632613892263    2.409591312681857e-05     
0.1923738818969785        0.00042358624782085254    2.3433704647364178e-05    
0.19271346509538445       0.00038866192266393267    2.2599199526415584e-05    
0.19305304829379039       0.0004250172647017189     2.3400728816625716e-05    
0.19339263149219638       0.0004348375046974495     2.3939204398936757e-05    
0.19373221469060234       0.00043948923765547743    2.3813101464637772e-05    
0.1940717978890083        0.0004385816202125318     2.4095230634690012e-05    
0.19441138108741424       0.00045233755217265073    2.4321966749573372e-05    
0.19475096428582023       0.00046927776663202705    2.4642631629008034e-05    
0.1950905474842262        0.0004295438741359332     2.382861448961143e-05     
0.19543013068263215       0.00045206674045958513    2.4169469258147573e-05    
0.19576971388103812       0.00047070206899106414    2.4999458150371447e-05    
0.19610929707944408       0.0004307420666371744     2.366073728810871e-05     
0.19644888027785004       0.0003925326204063809     2.2690906116179106e-05    
0.196788463476256         0.00043645363414872014    2.4037859099548127e-05    
0.19712804667466197       0.0004143904767842317     2.324124385773634e-05     
0.19746762987306793       0.00039060735892403053    2.2818933716490225e-05    
0.1978072130714739        0.00044544128675250925    2.404446812745271e-05     
0.19814679626987985       0.00044027143089894017    2.4167018866416348e-05    
0.19848637946828582       0.0003691260934717517     2.2090657283203163e-05    
0.19882596266669178       0.0004337377383649093     2.380127853458926e-05     
0.19916554586509774       0.00042312884894865404    2.369810509408938e-05     
0.19950512906350373       0.00043056802511183746    2.375462030069251e-05     
0.1998447122619097        0.000454129268769398      2.4629859829299883e-05    
0.20018429546031563       0.00043657295901156524    2.391419505562752e-05     
0.2005238786587216        0.0004230305183395427     2.3661128685180106e-05    
0.20086346185712758       0.00041182557411981044    2.3345810012232467e-05    
0.20120304505553355       0.00043619575691866686    2.3956567109258417e-05    
0.20154262825393948       0.00040784624063157734    2.342288001516563e-05     
0.20188221145234544       0.0004260466663712756     2.3556519964806877e-05    
0.20222179465075144       0.00040527514797705663    2.329138552062008e-05     
0.2025613778491574        0.00041562275235990966    2.3540453109853913e-05    
0.20290096104756333       0.0004484463370336728     2.4315065693993072e-05    
0.20324054424596932       0.0003537469683774928     2.1728567295974745e-05    
0.2035801274443753        0.0004498673271278576     2.4253605554458292e-05    
0.20391971064278125       0.0004617857385997505     2.5011991406159548e-05    
0.2042592938411872        0.0004364172430153132     2.4010750403835382e-05    
0.20459887703959317       0.00044106895085569905    2.4251282262202197e-05    
0.20493846023799914       0.00039446193530352444    2.2974030425080055e-05    
0.2052780434364051        0.0004515180308056669     2.445893997342338e-05     
0.20561762663481106       0.00042119065368818984    2.3912027168432777e-05    
0.20595720983321703       0.00044594998529838515    2.439172530080902e-05     
0.206296793031623         0.00039014580165484494    2.345985671741052e-05     
0.20663637623002895       0.00042493303997710534    2.4612236611144144e-05    
0.20697595942843494       0.0003959669970011335     2.3865843656703223e-05    
0.20731554262684088       0.0004490970334118511     2.565657688939251e-05     
0.20765512582524684       0.0003763372205286286     2.355046489165068e-05     
0.2079947090236528        0.00039491087600541924    2.4453288670226267e-05    
0.2083342922220588        0.00041228273409804655    2.4964554797480096e-05    
0.20867387542046473       0.00039133189523092316    2.4301777080467448e-05    
0.2090134586188707        0.00040101103458035014    2.475995697923381e-05     
0.20935304181727665       0.0003958212701263839     2.4648162578199904e-05    
0.20969262501568264       0.0003892847584459815     2.4626217886532145e-05    
0.21003220821408858       0.00036796779592332824    2.3718378502122123e-05    
0.21037179141249454       0.00041562128343546664    2.537300943003633e-05     
0.21071137461090053       0.000362434365535325      2.372129268754171e-05     
0.2110509578093065        0.0004105588640495408     2.540073646782127e-05     
0.21139054100771246       0.00042162784377982465    2.5651813909319006e-05    
0.2117301242061184        0.0004108109162559398     2.550531906307663e-05     
0.21206970740452438       0.0003870114422772105     2.4909172306942445e-05    
0.21240929060293035       0.0003954551498016142     2.500248545558186e-05     
0.2127488738013363        0.00037847492887502844    2.4691825876171668e-05    
0.21308845699974224       0.0004254580780704384     2.6048313358734328e-05    
0.21342804019814823       0.0003864258691792656     2.505477996014566e-05     
0.2137676233965542        0.0003689053175443282     2.470379288117295e-05     
0.21410720659496016       0.00039094543943014236    2.5140911856871135e-05    
0.21444678979336612       0.00037445751868793215    2.50042198209349e-05      
0.21478637299177208       0.00037925858390359387    2.4814545203558295e-05    
0.21512595619017802       0.00035470201000612845    2.4464645475655186e-05    
0.215465539388584         0.0003809441965374658     2.5173816061527152e-05    
0.21580512258698994       0.00041740082411173194    2.6375376842083713e-05    
0.2161447057853959        0.00038934909632908364    2.583428378389708e-05     
0.2164842889838019        0.00035933576918608826    2.4464949680545786e-05    
0.21682387218220783       0.00041535248225438846    2.6674945629997032e-05    
0.21716345538061382       0.0003326698054738494     2.3671475712782227e-05    
0.2175030385790198        0.00041279654809931593    2.6542750491186508e-05    
0.21784262177742572       0.0003852170050037535     2.584542372391038e-05     
0.2181822049758317        0.00040509570786925514    2.6203641581114295e-05    
0.21852178817423765       0.00031676171281562086    2.3512491444205834e-05    
0.2188613713726436        0.0003784426560475604     2.539895926550549e-05     
0.2192009545710496        0.0003387352059890104     2.4409276736852868e-05    
0.21954053776945553       0.0003770603146686848     2.555482433572303e-05     
0.21988012096786153       0.0003553673119335155     2.4888740538413864e-05    
0.2202197041662675        0.00034782992274189333    2.480793390167756e-05     
0.22055928736467342       0.0004081506701234991     2.6673518367632354e-05    
0.2208988705630794        0.00034321877462300534    2.5022301990625156e-05    
0.2212384537614854        0.0004541862914005877     2.883331551799325e-05     
0.22157803695989134       0.0003583147815943549     2.6257292338581747e-05    
0.2219176201582973        0.00042110178781082293    2.8638727724626713e-05    
0.22225720335670324       0.00035522096776484396    2.6523789592852676e-05    
0.22259678655510923       0.0004183259213998702     2.9104837494496196e-05    
0.22293636975351522       0.0003671786336960598     2.7156277278096197e-05    
0.22327595295192113       0.00033340870818197497    2.645288677221761e-05     
0.22361553615032712       0.0003484197964991861     2.6958548209636217e-05    
0.2239551193487331        0.0003637707724554807     2.7750068554219993e-05    
0.22429470254713904       0.0003741339654550821     2.8581902884100976e-05    
0.224634285745545         0.000383014822835871      2.878041311955711e-05     
0.224973868943951         0.00037418053815122714    2.9032387103269614e-05    
0.22531345214235693       0.000385378989361107      2.9102885359532304e-05    
0.22565303534076292       0.00033480801462115734    2.7428674585424517e-05    
0.22599261853916885       0.0003376109651361849     2.7880981200060198e-05    
0.22633220173757482       0.0003384679506025097     2.8023978450256505e-05    
0.2266717849359808        0.0003563393009546928     2.9029434132535614e-05    
0.22701136813438674       0.00040229398408818753    3.067114372224631e-05     
0.22735095133279273       0.00031487079510165983    2.7529951700440114e-05    
0.2276905345311987        0.00037500416716389895    3.011116747676555e-05     
0.22803011772960463       0.0003461575316696224     2.915215928152548e-05     
0.22836970092801062       0.000346737743793636      2.9309952486738316e-05    
0.22870928412641658       0.0003460525817843074     2.9402488587927773e-05    
0.22904886732482252       0.00040562943524932266    3.2131030239060294e-05    
0.2293884505232285        0.000359826619825224      3.026283610297733e-05     
0.22972803372163444       0.00032894953660817953    2.9100043433549698e-05    
0.23006761692004044       0.000415740158717629      3.287131554192606e-05     
0.2304072001184464        0.00030221456987649596    2.8340899569313045e-05    
0.23074678331685233       0.000410927579120129      3.3326895717218284e-05    
0.23108636651525832       0.00036342259029584087    3.115560157975487e-05     
0.23142594971366431       0.0003854981017161675     3.2409340267183225e-05    
0.23176553291207025       0.00037793617701235686    3.213866080987666e-05     
0.2321051161104762        0.0003397739285347623     3.1123732019329586e-05    
0.2324446993088822        0.00035149756635417735    3.1458292246393036e-05    
0.23278428250728814       0.00041203274589986157    3.3971699400480934e-05    
0.2331238657056941        0.0003199994132070526     3.0544603745051e-05       
0.23346344890410003       0.00040278605213618055    3.410410540351628e-05     
0.23380303210250603       0.00037070398917899593    3.309047137687989e-05     
0.23414261530091202       0.0003395185195054541     3.173755467911918e-05     
0.23448219849931795       0.00035096382449193814    3.244647671645202e-05     
0.2348217816977239        0.00043211725068718844    3.651210788270441e-05     
0.2351613648961299        0.000341133130592332      3.2131938614428674e-05    
0.23550094809453584       0.0003430385350145768     3.262526098902462e-05     
0.23584053129294183       0.0004529630336629042     3.77944128626987e-05      
0.2361801144913478        0.00034037077311801947    3.291601779334579e-05     
0.23651969768975373       0.00032290932015254675    3.223170937071511e-05     
0.23685928088815972       0.00034461605108272687    3.341695354684741e-05     
0.23719886408656565       0.0003398518097624772     3.330513262154733e-05     
0.23753844728497162       0.0003717043997284332     3.508575283845512e-05     
0.2378780304833776        0.0002912335481341531     3.144350939360915e-05     
0.23821761368178354       0.00039393423124154406    3.6343029064912716e-05    
0.23855719688018953       0.00037001564682051746    3.5666875328885364e-05    
0.2388967800785955        0.0003903076498532524     3.720301510970188e-05     
0.23923636327700143       0.000400791313344799      3.7215647920993396e-05    
0.23957594647540742       0.0003398862638010942     3.4808690857230855e-05    
0.2399155296738134        0.0003163928896350475     3.3496356836137427e-05    
0.24025511287221935       0.0003522737311454174     3.603550000547789e-05     
0.2405946960706253        0.000365282008251039      3.6670135972658534e-05    
0.24093427926903124       0.00031522979737731726    3.422869631619604e-05     
0.24127386246743723       0.00034500172118303424    3.605702544341531e-05     
0.2416134456658432        0.0003630404015967235     3.693658995020404e-05     
0.24195302886424913       0.0002994128792267169     3.441439294130826e-05     
0.24229261206265512       0.00032132648497116786    3.5092712531266054e-05    
0.2426321952610611        0.0003163056482243084     3.519306388196821e-05     
0.24297177845946705       0.0003100187247795243     3.551540204079669e-05     
0.243311361657873         0.0003096520919459277     3.5257233454826276e-05    
0.243650944856279         0.00034162525003061613    3.765171353761541e-05     
0.24399052805468494       0.00036145750127487       3.834962523777739e-05     
0.24433011125309093       0.00031565568626408964    3.6473229531868475e-05    
0.24466969445149686       0.00034797223697960396    3.8811575222323493e-05    
0.24500927764990282       0.00025296825592762757    3.2753821313211156e-05    
0.24534886084830881       0.0003572583660981844     3.9676771620105983e-05    
0.24568844404671475       0.0003257606843943055     3.773457326183372e-05     
0.2460280272451207        0.00033623617334410145    3.916681196561229e-05     
0.2463676104435267        0.00029613973337584297    3.642194901540482e-05     
0.24670719364193264       0.0003300776404032159     3.934050750575611e-05     
0.24704677684033863       0.000353387875735193      4.091917990076341e-05     
0.2473863600387446        0.0002739105726816317     3.621584199916266e-05     
0.24772594323715053       0.0003707137943033309     4.309495472876533e-05     
0.24806552643555652       0.0003272886612881459     4.008712787104497e-05     
0.24840510963396245       0.0003562840321728796     4.284672639227804e-05     
0.24874469283236844       0.0002851597461051213     3.847906721975044e-05     
0.2490842760307744        0.00031228910465587136    4.0940365924633636e-05    
0.24942385922918034       0.0003017968023030682     4.0984073861310215e-05    
0.24976344242758633       0.00037382046912885997    4.488209939155344e-05     
0.2501030256259923        0.0003372924909008921     4.3825697489959616e-05    
0.2504426088243982        0.0003185446878127861     4.2237171935867374e-05    
0.2507821920228042        0.0003500478534620334     4.5318799511798924e-05    
0.2511217752212102        0.0002889651806763158     4.131002225769251e-05     
0.25146135841961614       0.0003843797069180559     4.7541418904295215e-05    
0.25180094161802213       0.0003231025265661862     4.51842676844231e-05      
0.25214052481642807       0.0002884879146225259     4.159524238668256e-05     
0.25248010801483406       0.00027897019073859226    4.2232659203679346e-05    
0.25281969121324          0.0002847075021541698     4.2317174502355255e-05    
0.25315927441164593       0.0003132260849716077     4.545349309076174e-05     
0.2534988576100519        0.00032091142679426595    4.606417088820406e-05     
0.2538384408084579        0.00031568136585842537    4.5799463020699364e-05    
0.25417802400686385       0.0003468737023594161     4.968125583094164e-05     
0.25451760720526984       0.0003807773734087587     5.080170963490249e-05     
0.2548571904036758        0.00028171488399984497    4.543391853374745e-05     
0.25519677360208176       0.00021076229079856023    3.872697165301524e-05     
0.2555363568004877        0.00028307014084308715    4.598081889224262e-05     
0.25587593999889363       0.0003475497849113774     5.1813307965641405e-05    
0.2562155231972996        0.0002420780495352646     4.252204855041503e-05     
0.2565551063957056        0.0003827490923411205     5.557515389777721e-05     
0.25689468959411155       0.00036148592677743435    5.307044682150417e-05     
0.25723427279251754       0.0003546200632362048     5.4309142822596196e-05    
0.25757385599092353       0.0002678487482789818     4.6841882895322716e-05    
0.25791343918932946       0.00034889427691213985    5.4119355906916014e-05    
0.2582530223877354        0.0002848067355467043     4.9911962965757634e-05    
0.2585926055861414        0.00028562698673615983    4.85194109119488e-05      
0.2589321887845473        0.00027752626103966216    5.025291219931705e-05     
0.2592717719829533        0.0002852269832891319     4.971001821823501e-05     
0.25961135518135925       0.00033541441932216995    5.543311370152951e-05     
0.25995093837976524       0.0004073159166209225     6.160939090858691e-05     
0.26029052157817123       0.00031023495900425247    5.3222875386484966e-05    
0.26063010477657717       0.0003392399743311875     5.8372227727124e-05       
0.26096968797498316       0.0003078497100975353     5.3379398396260716e-05    
0.2613092711733891        0.00022943517180757164    4.800536256839794e-05     
0.261648854371795         0.0003155415837871263     5.619384843903084e-05     
0.261988437570201         0.0003040664661592463     5.567907846478944e-05     
0.262328020768607         0.00026859966078800066    5.3980235761861925e-05    
0.26266760396701294       0.00026568435245190157    5.1852671084983066e-05    
0.26300718716541893       0.0003918719613938797     6.533284071283473e-05     
0.26334677036382487       0.0004116439276743787     6.62989498594397e-05      
0.26368635356223086       0.0002836849573775568     5.650355400342773e-05     
0.2640259367606368        0.0002899713984774347     5.620145799576281e-05     
0.2643655199590427        0.00043661357737610784    7.009923601507736e-05     
0.2647051031574487        0.000370436162680436      6.580961835845897e-05     
0.2650446863558547        0.0003256624682926869     5.9561333970602266e-05    
0.26538426955426064       0.0003681583305292781     6.632666835888483e-05     
0.26572385275266663       0.0002797997476928595     5.611804147529765e-05     
0.2660634359510726        0.0003294888288128897     6.316656275750509e-05     
0.26640301914947856       0.00027215590160025447    5.715432462270579e-05     
0.2667426023478845        0.0003033265159943962     5.981212868747582e-05     
0.26708218554629043       0.00026177188204878855    5.720489488297376e-05     
0.2674217687446964        0.000318582625330705      6.143253815378104e-05     
0.2677613519431024        0.0003193993411759136     6.408177135617961e-05     
0.26810093514150835       0.0002457777781946388     5.505189617348225e-05     
0.26844051833991434       0.00017955933879294764    4.804836899419806e-05     
0.2687801015383203        0.0003452804188338757     6.826645380245345e-05     
0.26911968473672626       0.00030572496689259204    6.126216046908829e-05     
0.26945926793513225       0.00036242699278847475    6.994213715997275e-05     
0.2697988511335382        0.00029603997138025575    6.184374963493312e-05     
0.2701384343319441        0.00038202538399702735    7.235147798481475e-05     
0.2704780175303501        0.0002990024206299968     6.384815101411348e-05     
0.27081760072875605       0.00034933924263080976    6.901416781552274e-05     
0.27115718392716204       0.00023832653326198665    5.9606712182657586e-05    
0.27149676712556803       0.0003253320657619642     6.561978311659206e-05     
0.27183635032397396       0.0003291874891581617     6.967303523505829e-05     
0.27217593352237995       0.00036128824377665736    7.164169486916331e-05     
0.2725155167207859        0.00032211704205318214    6.929954588372212e-05     
0.2728550999191918        0.0002717832759463163     6.436713887652187e-05     
0.2731946831175978        0.00036318850912688515    7.259583697544356e-05     
0.2735342663160038        0.00023907341503355081    6.195728901234288e-05     
0.27387384951440974       0.00043259736766610167    7.944366234448296e-05     
0.27421343271281573       0.0003749673707370451     7.805774095759277e-05     
0.27455301591122167       0.00033494190590648937    7.186369971132596e-05     
0.27489259910962766       0.00032063623434474555    7.218266051951279e-05     
0.27523218230803365       0.000289373213462638      7.117897060772448e-05     
0.2755717655064395        0.00032179218713503604    7.02414025568177e-05      
0.2759113487048455        0.00017323599017090836    5.5252826438316516e-05    
0.2762509319032515        0.0002753120066530252     6.68888674004128e-05      
0.27659051510165744       0.0002691894039135379     6.865407931582935e-05     
0.27693009830006343       0.00037851069247120937    8.114910310361303e-05     
0.2772696814984694        0.00024174665714845776    6.506164170747013e-05     
0.27760926469687536       0.0001121959476499808     4.7145748408227064e-05    
0.27794884789528135       0.0002766317965178141     6.786958494099296e-05     
0.2782884310936873        0.00019157952861747923    6.116301677239666e-05     
0.2786280142920932        0.00023336261020639608    6.520005729288705e-05     
0.2789675974904992        0.00043879094583540803    9.256581161506448e-05     
0.27930718068890514       0.0005529261381329386     0.00010466613449642079    
0.27964676388731113       0.0001725616320940458     5.763670770967804e-05     
0.2799863470857171        0.0002127835116109519     6.743842801159212e-05     
0.28032593028412306       0.00032795766879969925    7.890144753534138e-05     
0.28066551348252905       0.0001900065013602831     6.44942888764179e-05      
0.281005096680935         0.00022375204008159063    6.757862111679894e-05     
0.2813446798793409        0.00014782762307703957    5.6660211181778915e-05    
0.2816842630777469        0.00019089060626975823    6.863646611666553e-05     
0.28202384627615285       0.0002561155724021776     7.123943327782589e-05     
0.28236342947455884       0.00019297782755668693    6.932773983850544e-05     
0.2827030126729648        0.0003175245644782595     8.206426384797458e-05     
0.28304259587137076       0.0002634039873004763     8.062858640488533e-05     
0.28338217906977675       0.0003210733587806691     8.668644351122139e-05     
0.28372176226818274       0.00044264554124066966    0.00010312659083792305    
0.2840613454665887        0.00016418682769329374    6.88637574143426e-05      
0.2844009286649946        0.00015851683688868328    5.9887518402299194e-05    
0.2847405118634006        0.0001570442199241726     6.664514240689794e-05     
0.28508009506180654       0.00016467066926300188    6.375419391776028e-05     
0.28541967826021253       0.00021629545661424235    7.862536636106949e-05     
0.28575926145861846       0.00040032327158913574    0.00010425816160529713    
0.28609884465702445       0.0001702439400916842     6.939187660487127e-05     
0.28643842785543044       0.00022374498254305834    8.454332913739977e-05     
0.2867780110538364        0.00029544944799349835    8.912445631723977e-05     
0.2871175942522423        0.0004570064447106834     0.00012227622290415333    
0.2874571774506483        0.0004157612268970253     0.00011018038682430815    
0.28779676064905424       0.00026069026779351094    9.348620110251128e-05     
0.28813634384746023       0.0002539895403241206     9.227771432604711e-05     
0.2884759270458662        0.0003858270493687245     0.00011168424655324085    
0.28881551024427216       0.00034114956859183286    0.00011423055242812337    
0.28915509344267815       0.0003131869295963486     0.00010003115604694128    
0.2894946766410841        0.00014988374481802785    7.625619817995721e-05     
0.28983425983949          0.0003536461002586517     0.00011316303725485144    
0.290173843037896         0.00013353360507568319    7.249789698475731e-05     
0.29051342623630194       0.00017326495263855556    8.856009790109198e-05     
0.29085300943470793       0.0002964293415552955     0.00010430544266189638    
0.2911925926331139        0.0001374937952009463     7.955761918891749e-05     
0.29153217583151986       0.00045539560613910444    0.00013794560562472528    
0.29187175902992585       0.0004217560566185316     0.0001417644243423674     
0.29221134222833184       0.00031290632577152147    0.00012210899149454817    
0.2925509254267378        0.00032573690370605636    0.00012458847506537999    
0.2928905086251437        0.0003106575126612947     0.00012990971572601455    
0.29323009182354964       0.000616238574212128      0.00017606264036876406    
0.29356967502195563       0.0003706981774220251     0.00014637094274257487    
0.2939092582203616        0.00034896043357823635    0.00014355113910725678    
0.29424884141876756       0.0002197477414332126     0.00011391597896049596    
0.29458842461717355       0.00045815262542781455    0.00017639260074657967    
0.29492800781557954       0.0003544832050737101     0.00014964865219039498    
0.2952675910139855        0.0005284274187542108     0.00019436322878707424    
0.2956071742123914        0.00013765832521209635    0.00010192182092452537    
0.2959467574107974        7.520011195314407e-05     7.533194313300694e-05     
0.29628634060920334       0.0002659375439645231     0.00015783957128813475    
0.2966259238076093        0.00015322677154472767    0.00011231542319212872    
0.29696550700601526       0.00010399662625526147    0.00010424517348926858    
0.29730509020442125       0.0002528483909857935     0.00015950900495030786    
0.29764467340282724       8.291437869475872e-05     9.68836016537091e-05      
0.2979842566012332        0.0008345275731703542     0.00032859097755915707    
0.29832383979963917       0.0005335993037747222     0.00026924118339368016    
0.2986634229980451        0.00039877634431427863    0.0002453473108934503     
0.29900300619645104       0.0003167973845036631     0.0002479610494861508     
0.29934258939485703       0.00015339934490216876    0.00016140335079136992    
0.299682172593263         0.0004461514733628387     0.00034818170904720195    
0.30002175579166895       0.0                       0.00023255040742855337    
0.30036133899007494       0.0                       0.0002906932660932579     
0.3007009221884809        0.0009316714642220405     0.0007955690005580043     
0.30104050538688687       0.0006957877653829416     0.0006149414835540419     
0.3013800885852928        0.0                       0.002325677074342427      
