################################################################################
# EDF_DataBlockID                 0.Image.Psd
# EDF_BinarySize                  4366944
# EDF_HeaderSize                  3072
# ByteOrder                       LowByteFirst
# DataType                        FloatValue
# Dim_1                           1028
# Dim_2                           1062
# Image                           0
# HeaderID                        EH:000000:000000:000000
# Size                            4366944
# BIO_SYSTEM_CONF_TXT             WAXSRES
# Center_1                        596.8750
# Center_2                        596.0340
# Comment                         SilkFilm_MeOH - SilkFilm_MeOH_SAXS_HI_1200s
# DDummy                          0.6
# Date                            2023-10-11T05:33:47
# Delta                           0
# Detector                        0
# Dummy                           -1.5
# ExposureTime                    1200
# Force                           9.91088
# Gamma                           0
# Intensity1                      4.31927e-08
# JawsDistance                    4.54563
# JawsVelocity                    0.358589
# Monitor                         0
# PSize_1                         7.5e-05
# PSize_2                         7.5e-05
# Pil_Roi0                        5.18312e+10
# Pressure                        0.0761147
# SampleDistance                  0.899998
# SampleEnvKind                   saxs
# SampleEnvPN                     Solids
# SampleEnvSN                     1012
# Strain                          0
# Stress                          0
# SumForIntensity1                5.18312e+10
# Thickness                       0
# TransmittedFlux                 4.31927e+07
# WaveLength                      1.541891e-10
# Wavelength                      1.54189e-10
# anaB                            0
# anaB_dial                       -0.0012015
# anaPark                         -175.125
# anaPark_dial                    175.169
# anaXi                           0
# anaXi_dial                      0
# anaZ                            -9.13123e-08
# anaZ_dial                       6.2299
# aux                             0
# aux_dial                        -0.000125
# b2c                             0
# b2c_dial                        0
# beamx                           592.697
# beamx_dial                      592.697
# beamz                           596.159
# beamz_dial                      596.159
# bioZ                            -2.90461e-08
# bioZ_dial                       -0.546695
# det                             0
# det0x                           0.750094
# det0x_dial                      3.23612
# det0xvd                         0.75
# det0xvd_dial                    0.75
# det0y                           899.998
# det0y_dial                      43.5135
# det0z                           -4.125
# det0z_dial                      11.4333
# det0zvd                         -4.125
# det0zvd_dial                    -4.125
# distana                         93.4
# distana_dial                    93.4
# mag                             2.6365
# mag_dial                        2.6365
# mon                             0
# mono1B                          1.00136e-08
# mono1B_dial                     -0.277
# mono2B                          1.75476e-07
# mono2B_dial                     -4.366
# mono2X                          -1
# mono2X_dial                     3.96031
# mono2Xi                         0
# mono2Xi_dial                    0
# monoZ                           -11
# monoZ_dial                      -10.6609
# om                              1.30741e-08
# om_dial                         -0.939898
# phi                             -4.9295e-08
# phi_dial                        -7.01716
# pilai0                          5.18312e+10
# pilai1                          0
# pilct0                          5.18313e+10
# pilct1                          0
# pilroi0                         5.18312e+10
# pilroi1                         0
# qana                            0
# qana_dial                       0
# ry                              0
# ry_dial                         0.00149998
# s1bot                           1
# s1bot_dial                      -1.57906
# s1hl                            0.1
# s1hl_dial                       -0.02125
# s1hr                            1.5
# s1hr_dial                       1.86625
# s1top                           0.6
# s1top_dial                      0.783906
# s2bot                           0.95
# s2bot_dial                      -1.84531
# s2hl                            0.35
# s2hl_dial                       -1.115
# s2hr                            0.55
# s2hr_dial                       -0.265313
# s2top                           -0.05
# s2top_dial                      -1.43281
# sec                             0.099
# title                           10_10_2023_0_00048.edf
# ttdeg                           0
# ttdeg_dial                      0
# usaxs0                          0
# wind                            72.0045
# wind_dial                       72.0233
# x                               37.5
# x_dial                          38.2097
# z                               12.5
# z_dial                          31.6091
# CountCutoff                     15302352
# DetectorModel                   Dectris EIGER2 Si 1M, S/N E-02-0357
# ThresholdSetting                4023.88989258
# Saturation                      0
# FlatField                       Corrected
# BackgroundReductionExtra        0.02
################################################################################
q(A-1)                    I(q)                      Sig(q)                    
0.00016979159920298188    628437.5050901393         20.892265434805964        
0.0005093747976089456     621514.6511502776         14.691467512742296        
0.0008489579960149094     593096.6336646749         9.845159695127093         
0.001188541194420873      583874.2011145045         8.398084408604761         
0.0015281243928268369     522857.9890775802         7.47463049851433          
0.001867707591232801      461799.71037050337        5.888579148908139         
0.0022072907896387643     392213.4435167108         5.285833909297803         
0.002546873988044728      324729.8802114147         4.247767465555307         
0.002886457186450692      255014.38788620578        3.6911807904596357        
0.003226040384856656      195887.18976957406        3.037118235652086         
0.0035656235832626196     138626.64890538552        2.37987221437658          
0.0039052067816685828     88680.35507212738         1.8498318245878433        
0.004244789980074546      53113.80627832542         1.3581369243956407        
0.004584373178480511      29462.84412761546         1.0115264327887772        
0.004923956376886474      16979.952040134547        0.7084174676700277        
0.005263539575292438      8347.97831746317          0.4889785581507217        
0.005603122773698402      4457.7870372968555        0.3418155579224407        
0.005942705972104365      2448.300377100874         0.24980681251753714       
0.00628228917051033       1626.2178118056836        0.19995643834279345       
0.0066218723689162925     872.8915057176204         0.13873313635251563       
0.006961455567322258      461.1498111576059         0.09965786917625896       
0.0073010387657282206     245.84665796793868        0.07166248498057519       
0.007640621964134184      93.41906113749073         0.042903608463913896      
0.007980205162540149      34.55202361787106         0.02555428938540707       
0.008319788360946111      8.376998197472245         0.01202311816403502       
0.008659371559352074      2.208479367951943         0.006374471067900161      
0.00899895475775804       0.5702161117317532        0.003034880466523918      
0.009338537956164003      0.18232379934297854       0.0017161041926547535     
0.009678121154569966      0.10342635570888188       0.0012634721710266393     
0.01001770435297593       0.07096696544078138       0.0010240841554935444     
0.010357287551381893      0.04920190348691274       0.0008642750890165655     
0.01069687074978786       0.03696095886945535       0.0007060325645761155     
0.011036453948193822      0.03393165160492467       0.0006865534841572344     
0.011376037146599785      0.0305655445567993        0.0006359067623656134     
0.01171562034500575       0.02922110368911336       0.0006060931102863274     
0.012055203543411714      0.026233235242383957      0.0005782092235482203     
0.012394786741817678      0.02601317530354371       0.000554562182969599      
0.01273436994022364       0.02502343998683954       0.0005474156122902723     
0.013073953138629604      0.02276791822846823       0.0005155383991295992     
0.013413536337035568      0.0226470827302491        0.0005006765874288874     
0.013753119535441533      0.022200342999645076      0.0004957139879407077     
0.014092702733847497      0.02072719854509216       0.0004576066612443906     
0.01443228593225346       0.02072753165391474       0.00047709196721499534    
0.014771869130659422      0.019806210370118482      0.0004457071200498794     
0.015111452329065385      0.018396626998596628      0.00042648612251734795    
0.01545103552747135       0.018561031582053123      0.00042314964346034414    
0.015790618725877316      0.018345458641220308      0.000425137200483994      
0.01613020192428328       0.01708446770615894       0.00042322116298830313    
0.01646978512268924       0.017136832270678533      0.00041162516351415094    
0.016809368321095204      0.015759270274183057      0.0004004762406224647     
0.017148951519501167      0.015637616675253797      0.0003996603665702551     
0.017488534717907133      0.01620072051415375       0.00040383420914745705    
0.017828117916313096      0.014789596479900314      0.00038514919637515707    
0.018167701114719062      0.014502924162273497      0.0003780020822679532     
0.018507284313125025      0.01513970206317585       0.00038968167396220637    
0.018846867511530987      0.014666217184306635      0.0003794523865207713     
0.01918645070993695       0.014308880486096767      0.0003734840852381459     
0.019526033908342916      0.0143208298275981        0.0003723360654388607     
0.01986561710674888       0.013484452852663864      0.00035397557581776166    
0.020205200305154842      0.013266421242154908      0.00036025516534094284    
0.020544783503560805      0.013002529255143454      0.00034529109001902176    
0.02088436670196677       0.012305060980472708      0.00034217123903501764    
0.021223949900372737      0.012855681438403606      0.000346204525485808      
0.0215635330987787        0.011891591439101082      0.0003313067966968214     
0.021903116297184663      0.011952778569757171      0.00033160789195459014    
0.022242699495590625      0.012599457668524397      0.0003328331478496796     
0.022582282693996588      0.011503999446893964      0.0003216175029698698     
0.022921865892402554      0.011137591650009028      0.0003129297821527452     
0.023261449090808517      0.011201766876499195      0.0003173650687078886     
0.02360103228921448       0.010436238572997114      0.00030101796706682576    
0.023940615487620442      0.010522052510307274      0.0002999192065031879     
0.02428019868602641       0.010032762418653227      0.0002942241902760734     
0.024619781884432375      0.00939261018913328       0.00028121116104673873    
0.024959365082838338      0.009631064151057658      0.00028562546186722607    
0.0252989482812443        0.009490698007645113      0.00028139993872774733    
0.025638531479650263      0.009057433774530874      0.0002716581711059549     
0.025978114678056226      0.008487852908487166      0.0002649274795411425     
0.02631769787646219       0.008319149421838121      0.00025771987624173385    
0.026657281074868155      0.008508200107069097      0.0002632934683911124     
0.026996864273274118      0.00788314034335094       0.00024944630924025397    
0.027336447471680087      0.0076492134091021855     0.000248197833688965      
0.02767603067008605       0.007450052542360944      0.00024181183162734452    
0.028015613868492013      0.007247235597608554      0.00023617420995917891    
0.02835519706689798       0.0072007020598569525     0.0002373960573766356     
0.02869478026530394       0.006946577515962639      0.00022246094742630975    
0.029034363463709904      0.006620635533132279      0.00021801952229084535    
0.029373946662115867      0.006671703694042672      0.00021263162421351764    
0.02971352986052183       0.0063189312343780914     0.0002030106490865826     
0.030053113058927793      0.006310500329368266      0.00020216476027676986    
0.030392696257333755      0.005612864275163492      0.00018699390406146555    
0.03073227945573972       0.00528207639084393       0.00018180836806902946    
0.031071862654145688      0.005422979702860013      0.00018098538188579113    
0.03141144585255165       0.005324047167084797      0.00017703282140333552    
0.03175102905095761       0.0050871104613501245     0.0001747227073023961     
0.032090612249363576      0.005135664825383136      0.0001701294751325332     
0.03243019544776954       0.005147059456486536      0.00017207237138589188    
0.03276977864617551       0.004672039291084436      0.00015954151355353422    
0.03310936184458147       0.0048214101973219755     0.00016417795383529853    
0.033448945042987434      0.004572222727637725      0.00015706033083968813    
0.0337885282413934        0.004425067678363767      0.00015303373910218544    
0.03412811143979936       0.00428136123881051       0.0001508160031785302     
0.03446769463820532       0.004505643618820676      0.00015212044185713037    
0.03480727783661129       0.004235233921661436      0.00014775853375727197    
0.035146861035017254      0.003952339703125304      0.00014195071982064093    
0.03548644423342322       0.0038053320911937832     0.00013704123753479307    
0.03582602743182918       0.003782521192661443      0.0001368733570298999     
0.03616561063023514       0.0035728638034982292     0.00013116877709029793    
0.036505193828641105      0.0037846568406964863     0.0001352352668959709     
0.03684477702704707       0.0034342359926583525     0.0001278261660447893     
0.03718436022545303       0.0034551076945006855     0.00012713033257633283    
0.037523943423858994      0.0034073082294697444     0.0001271068655734094     
0.037863526622264956      0.003361232084697098      0.0001234330950172174     
0.03820310982067092       0.003380233083701145      0.00012439189739930424    
0.03854269301907689       0.003112667363235794      0.00011754192946938727    
0.03888227621748285       0.0031186416573116896     0.00011812751823746595    
0.039221859415888814      0.002795367528116027      0.00011103600917899404    
0.039561442614294784      0.003100920887703098      0.00011548997058783976    
0.03990102581270075       0.002979958993174785      0.00011347896744006839    
0.04024060901110671       0.002603230832905996      0.0001048478781349598     
0.04058019220951267       0.002800547214374458      0.00010941618311486034    
0.040919775407918635      0.0029146791059825017     0.00011010941967570166    
0.0412593586063246        0.0027943075102402053     0.00010685639618825028    
0.04159894180473056       0.0025655572284039845     0.00010315063015053162    
0.04193852500313653       0.0026054453849163064     0.00010220999290167041    
0.04227810820154249       0.0025423864927042504     0.00010170211471935016    
0.042617691399948456      0.0026349217229881434     0.00010126395160125699    
0.04295727459835442       0.0026451736690635986     0.00010239736394836442    
0.04329685779676038       0.0023126838583921246     9.547393850953666e-05     
0.043636440995166344      0.002418864384865009      9.635146366401509e-05     
0.043976024193572306      0.002315483893302103      9.486156455771077e-05     
0.04431560739197827       0.002244290627113627      9.149227417101983e-05     
0.04465519059038423       0.0021597391249787243     9.066983451054202e-05     
0.044994773788790195      0.0022305230370907882     9.139566640651211e-05     
0.045334356987196164      0.001983016803924761      8.548744240510232e-05     
0.04567394018560213       0.0020385089098251138     8.656071140820096e-05     
0.0460135233840081        0.0020242637044340286     8.541465181290993e-05     
0.04635310658241406       0.0021528508371396315     8.907337919018092e-05     
0.04669268978082002       0.002140142977102032      8.709447616606028e-05     
0.047032272979225985      0.001978675164627632      8.311101683314349e-05     
0.04737185617763195       0.0019720785640978756     8.387294389967505e-05     
0.04771143937603791       0.001897078568970107      8.112515506111063e-05     
0.04805102257444387       0.0019419895827888492     8.249291109170201e-05     
0.048390605772849836      0.0019109649192440238     8.013163855806799e-05     
0.0487301889712558        0.0018790096507609762     8.02884487138713e-05      
0.04906977216966177       0.0017864224073048125     7.804498359036709e-05     
0.04940935536806773       0.0016816824700285255     7.4587273229987e-05       
0.049748938566473694      0.0016662107001863143     7.496083066797001e-05     
0.05008852176487966       0.0018229219402104615     7.68824699958587e-05      
0.05042810496328562       0.0017131927341751717     7.523838915522229e-05     
0.05076768816169158       0.001470313560847858      6.912847432720815e-05     
0.051107271360097545      0.0016007436929701413     7.196147252453417e-05     
0.05144685455850351       0.0016440186265850184     7.263247246212216e-05     
0.05178643775690947       0.0015572887957956772     7.012620530046276e-05     
0.05212602095531544       0.0016707150524499662     7.322005180400823e-05     
0.0524656041537214        0.001793427365178323      7.458068568035162e-05     
0.05280518735212737       0.0015741124104815406     6.956212553406823e-05     
0.053144770550533335      0.0015285002659272797     6.920075684204551e-05     
0.0534843537489393        0.001515716322434886      6.82598526274579e-05      
0.05382393694734526       0.0015958208068028797     7.00017798242213e-05      
0.054163520145751216      0.0014980489160586283     6.654893427828743e-05     
0.054503103344157186      0.001474633971018061      6.699609494285935e-05     
0.05484268654256314       0.0015624817152334802     6.862549569840921e-05     
0.05518226974096911       0.0013280425232758335     6.226324221014735e-05     
0.05552185293937507       0.0014218081342678083     6.493751409379193e-05     
0.05586143613778104       0.001379937485502168      6.323624897072688e-05     
0.05620101933618699       0.0013664089113144377     6.345720493908065e-05     
0.05654060253459296       0.0012867442822064095     6.034448378528554e-05     
0.05688018573299892       0.0014068849677992584     6.37182890624037e-05      
0.05721976893140489       0.0014262667617111879     6.37271044022796e-05      
0.05755935212981085       0.0013415214600958972     6.152196163608659e-05     
0.05789893532821682       0.00132866565658313       6.132002974664733e-05     
0.05823851852662278       0.0013030660902304393     5.9790133460949894e-05    
0.058578101725028746      0.001153195151710963      5.6781912489669935e-05    
0.058917684923434716      0.0013177434742463585     6.0275074672520827e-05    
0.05925726812184067       0.0012768218680929886     5.912695401826932e-05     
0.05959685132024664       0.0012328625927694862     5.8272803857089685e-05    
0.0599364345186526        0.0012181356132073386     5.686295671834487e-05     
0.060276017717058566      0.0012905037938023686     5.953126962475108e-05     
0.06061560091546452       0.0011250004834258986     5.454206265444854e-05     
0.06095518411387049       0.0012083651849119977     5.677048626315095e-05     
0.06129476731227645       0.0011873373117537208     5.6059677293954394e-05    
0.06163435051068242       0.0012000932023641133     5.580482600022845e-05     
0.06197393370908839       0.0010713530885549925     5.348115446160254e-05     
0.06231351690749434       0.0011732864009992613     5.459514336293083e-05     
0.06265310010590032       0.0010820672493162165     5.3014751108419755e-05    
0.06299268330430627       0.00118917498351179       5.521671502274348e-05     
0.06333226650271225       0.001110612932746069      5.299631641290611e-05     
0.0636718497011182        0.0012355189529153255     5.636063414637648e-05     
0.06401143289952417       0.0011388577014048945     5.3018861846291246e-05    
0.06435101609793012       0.00121191074726863       5.5285373166167566e-05    
0.0646905992963361        0.001102554794275556      5.242388947687592e-05     
0.06503018249474204       0.0011261279122857465     5.2768913253645105e-05    
0.06536976569314802       0.001131621790253522      5.296831491536827e-05     
0.06570934889155398       0.0010504827117558825     5.0364668504289774e-05    
0.06604893208995995       0.0011589553644725762     5.355666686840965e-05     
0.06638851528836591       0.001067371420958494      5.054900605023707e-05     
0.06672809848677187       0.0010794189964826444     5.107612505169252e-05     
0.06706768168517784       0.0010752597404040383     5.077941568847207e-05     
0.0674072648835838        0.0010209208578823273     4.897532078020698e-05     
0.06774684808198977       0.0010246811609038386     4.9742915594609996e-05    
0.06808643128039572       0.0010173629945003048     4.8664383899773685e-05    
0.0684260144788017        0.000919910055084961      4.64896897368212e-05      
0.06876559767720765       0.0010945723090989429     5.045631491867295e-05     
0.06910518087561363       0.0009919963819286551     4.803405597859269e-05     
0.06944476407401959       0.000996239386637497      4.805641312810743e-05     
0.06978434727242555       0.0010882386999487169     4.979229968444757e-05     
0.07012393047083151       0.0010083574544897088     4.810787064240348e-05     
0.07046351366923748       0.0010479853934810565     4.870351635402286e-05     
0.07080309686764344       0.001040465626818219      4.8469402889729316e-05    
0.0711426800660494        0.0009889817459783573     4.733208420232029e-05     
0.07148226326445536       0.00102591281374871       4.764804962993933e-05     
0.07182184646286133       0.0009187114193035208     4.5471758977263334e-05    
0.07216142966126729       0.0010367638795248022     4.757867728518496e-05     
0.07250101285967325       0.001001268549782377      4.7110110377088404e-05    
0.07284059605807922       0.0009230921201562343     4.496558842842037e-05     
0.07318017925648519       0.0009697652891936799     4.572949493038724e-05     
0.07351976245489114       0.0009923812488727118     4.684488289926683e-05     
0.07385934565329712       0.0009747037210950791     4.5546627394134225e-05    
0.07419892885170308       0.0009672734457747107     4.5759851924269804e-05    
0.07453851205010904       0.001018492802754377      4.64344282372284e-05      
0.074878095248515         0.0009459346454662553     4.504250576675246e-05     
0.07521767844692097       0.000919662339478316      4.412424772117876e-05     
0.07555726164532693       0.0009437585044802252     4.45294158041189e-05      
0.0758968448437329        0.0008792379054654965     4.3143793097354626e-05    
0.07623642804213886       0.0008574125184063135     4.212650250927307e-05     
0.07657601124054482       0.000959363575237433      4.476123941916087e-05     
0.0769155944389508        0.0009597919447578039     4.4488129480327385e-05    
0.07725517763735675       0.0009882689218452608     4.486139940743653e-05     
0.07759476083576272       0.000927428618590826      4.397722025335369e-05     
0.07793434403416867       0.0009368662577949672     4.3441307843274384e-05    
0.07827392723257465       0.0009358415482342286     4.378404835417582e-05     
0.0786135104309806        0.0008958298606910347     4.2372126511092286e-05    
0.07895309362938657       0.0008583502643224374     4.1536314376161046e-05    
0.07929267682779252       0.0009144175889541413     4.2918108313121965e-05    
0.0796322600261985        0.0009709448526034922     4.3829650395143345e-05    
0.07997184322460446       0.0008702454564508307     4.171799541715021e-05     
0.08031142642301042       0.000892179509693199      4.1733244312282775e-05    
0.08065100962141639       0.0009506994784260549     4.3447991223934935e-05    
0.08099059281982235       0.0008821812225228157     4.155735502156597e-05     
0.08133017601822833       0.0009419776794788229     4.2658360374940756e-05    
0.08166975921663427       0.000961859568039436      4.34243228744608e-05      
0.08200934241504025       0.0009050667226932819     4.172754148908609e-05     
0.0823489256134462        0.0009445607494867062     4.267267174247732e-05     
0.08268850881185218       0.0009322158748135109     4.2232234297691876e-05    
0.08302809201025813       0.0008670416049814644     4.043811964276233e-05     
0.0833676752086641        0.0008872883154976451     4.134471956840414e-05     
0.08370725840707006       0.0008013351949085048     3.881011803075665e-05     
0.08404684160547603       0.0008922659958859122     4.1036362595330454e-05    
0.08438642480388199       0.0008441409709955499     3.9606446600933935e-05    
0.08472600800228795       0.0008616648520220688     4.019054793209163e-05     
0.08506559120069392       0.0008305882555367302     3.940613590218281e-05     
0.08540517439909988       0.0008432401144369274     3.929771704788973e-05     
0.08574475759750584       0.0008964742002076359     4.078887357570011e-05     
0.0860843407959118        0.000905255895796993      4.0623807392473605e-05    
0.08642392399431777       0.000890113878197619      4.049572502328877e-05     
0.08676350719272373       0.0008634092333912217     3.962203402024255e-05     
0.0871030903911297        0.0008842268872110281     3.988879724863746e-05     
0.08744267358953567       0.0007891201427189309     3.782988126697264e-05     
0.08778225678794163       0.0008993126552127987     4.024086971852403e-05     
0.0881218399863476        0.0007825686249814038     3.751399301174884e-05     
0.08846142318475356       0.0008785529587324991     3.938054274671124e-05     
0.08880100638315952       0.0008030568488436722     3.7698514912767315e-05    
0.08914058958156548       0.0008559879544006839     3.909578112935795e-05     
0.08948017277997145       0.0008384258548423389     3.839794254856231e-05     
0.08981975597837741       0.0008706411016567276     3.926562417356302e-05     
0.09015933917678337       0.0008188880689111844     3.7465436884439495e-05    
0.09049892237518933       0.0007994271707870127     3.747090288473853e-05     
0.0908385055735953        0.000864123420512675      3.873812441773472e-05     
0.09117808877200127       0.0007937028401767429     3.696496358096499e-05     
0.09151767197040722       0.0009013380796366693     3.950207279000563e-05     
0.0918572551688132        0.0008706161378222501     3.8406885046849574e-05    
0.09219683836721915       0.0007904352263450928     3.701537937693174e-05     
0.09253642156562512       0.0007965210956801694     3.664719890628481e-05     
0.09287600476403109       0.0008520846413195427     3.8042647856188434e-05    
0.09321558796243705       0.0008905959060893109     3.871598168317125e-05     
0.09355517116084301       0.0009156384609760103     3.922104941274799e-05     
0.09389475435924897       0.0008292757739583614     3.750744226773547e-05     
0.09423433755765494       0.0008335961849288267     3.703336698214918e-05     
0.0945739207560609        0.0007835765725070613     3.6087160178197266e-05    
0.09491350395446688       0.0008484126947842173     3.756182297478056e-05     
0.09525308715287283       0.0008310516210997996     3.690078156437529e-05     
0.0955926703512788        0.000835812113797875      3.727092025301673e-05     
0.09593225354968475       0.0008079634439813153     3.603610467170994e-05     
0.09627183674809073       0.000786679583408846      3.61266963894097e-05      
0.09661141994649668       0.000773432177785621      3.545305850345229e-05     
0.09695100314490265       0.0007669213240272178     3.5088948082719015e-05    
0.0972905863433086        0.0008123370057746745     3.630219579580282e-05     
0.09763016954171458       0.0008381608373658187     3.6598268579372946e-05    
0.09796975274012054       0.0008261919246377207     3.661068423111449e-05     
0.0983093359385265        0.0008071123972432664     3.571973082911449e-05     
0.09864891913693247       0.0008709735729316721     3.711662345018361e-05     
0.09898850233533843       0.0008357229248077299     3.655595139996801e-05     
0.09932808553374439       0.0007833619807151702     3.501189156146551e-05     
0.09966766873215036       0.0007529062968121802     3.457854876286936e-05     
0.10000725193055632       0.0008007391045114216     3.523019131274512e-05     
0.10034683512896228       0.0007565214818048845     3.451416093541991e-05     
0.10068641832736826       0.0008597656125780317     3.6607998416632136e-05    
0.1010260015257742        0.0007766481890789801     3.467717542782274e-05     
0.10136558472418018       0.0008483446885398314     3.6283003775486113e-05    
0.10170516792258615       0.0008400233594319648     3.580625613194814e-05     
0.10204475112099211       0.0008691874149867645     3.67570220163371e-05      
0.10238433431939807       0.0008265854649602185     3.5460586943193385e-05    
0.10272391751780403       0.0008107672508158432     3.512936721330576e-05     
0.10306350071621          0.0007329586496760753     3.3364793497268985e-05    
0.10340308391461596       0.000748290157901637      3.356570879266062e-05     
0.10374266711302192       0.000835861410134134      3.5708321372836536e-05    
0.10408225031142788       0.0008741359002576231     3.5987722326350324e-05    
0.10442183350983385       0.0008237290224988928     3.52555851781081e-05      
0.10476141670823981       0.0008415872988662119     3.546305961246303e-05     
0.10510099990664577       0.0008232011800599064     3.498914960390051e-05     
0.10544058310505175       0.0007629783311275825     3.3694114931183575e-05    
0.1057801663034577        0.0008267072111809382     3.478588643682351e-05     
0.10611974950186367       0.0008038380077573557     3.463113586734698e-05     
0.10645933270026964       0.000782635967595764      3.383729810431169e-05     
0.1067989158986756        0.0008416087396131245     3.512608167844242e-05     
0.10713849909708156       0.0007406922677735925     3.2849262455009206e-05    
0.10747808229548753       0.000814313144003334      3.4255332283901156e-05    
0.1078176654938935        0.0008483040947358734     3.537794892935595e-05     
0.10815724869229947       0.0007721950615444659     3.316939775705266e-05     
0.10849683189070543       0.0008139078369854382     3.427379465548376e-05     
0.1088364150891114        0.000790323051678184      3.3773676913169564e-05    
0.10917599828751737       0.0007794494494468728     3.3299592862158815e-05    
0.10951558148592332       0.0008221523838755484     3.429634332704431e-05     
0.10985516468432928       0.0007717424236402015     3.298328419909956e-05     
0.11019474788273526       0.0007732038872018252     3.31577696249376e-05      
0.11053433108114122       0.0007746456043017216     3.319726726533593e-05     
0.11087391427954717       0.0007852147108333709     3.3111221718636013e-05    
0.11121349747795313       0.0007591766850253003     3.279732482419301e-05     
0.1115530806763591        0.000781546211933506      3.2796145259813275e-05    
0.11189266387476507       0.0008074469105185494     3.3789745960370214e-05    
0.11223224707317102       0.0007293691249000592     3.174559029037196e-05     
0.11257183027157701       0.0007545692201926593     3.2329634555239403e-05    
0.11291141346998296       0.000761465973171594      3.249334304315924e-05     
0.11325099666838892       0.0007746831620807009     3.250794846433753e-05     
0.11359057986679488       0.0007757799027051081     3.287960722816628e-05     
0.11393016306520086       0.0007698129950949084     3.2279429102598554e-05    
0.11426974626360681       0.0008661999635411912     3.4400191435062554e-05    
0.11460932946201277       0.0007986865468537061     3.295973566808944e-05     
0.11494891266041873       0.0007871984085622161     3.272194899395582e-05     
0.11528849585882471       0.0007866995220415047     3.258447280831903e-05     
0.11562807905723067       0.000799473334888604      3.278449805692267e-05     
0.11596766225563662       0.0007486660255399501     3.174879465407833e-05     
0.11630724545404261       0.0007727935843477076     3.224084158756173e-05     
0.11664682865244856       0.0007922325367801994     3.252618529695113e-05     
0.11698641185085452       0.0007967730995252764     3.2642893607032924e-05    
0.11732599504926047       0.0007645681446164847     3.1658472725187595e-05    
0.11766557824766646       0.0007863093318779395     3.242028244030699e-05     
0.11800516144607241       0.0007922010989335458     3.217270516436804e-05     
0.11834474464447838       0.0007924521653099669     3.240705554458792e-05     
0.11868432784288432       0.0008094733019229918     3.2521777729091126e-05    
0.11902391104129031       0.0007719480540174688     3.1774060650903175e-05    
0.11936349423969626       0.0008207401417966099     3.279380837857809e-05     
0.11970307743810223       0.000776121216365997      3.1623072623303996e-05    
0.1200426606365082        0.0007327399629117211     3.090615226902574e-05     
0.12038224383491417       0.0007635025056169866     3.13000050067512e-05      
0.12072182703332013       0.0007804918614706793     3.1837933615991225e-05    
0.12106141023172608       0.0008209701033585226     3.252440584289507e-05     
0.12140099343013205       0.0008234873945773358     3.22767282703653e-05      
0.12174057662853802       0.000799781535314026      3.215435612872852e-05     
0.12208015982694398       0.0007429785523804332     3.063076031084838e-05     
0.12241974302534993       0.000718041469483642      3.0326575202880512e-05    
0.12275932622375592       0.0007479481524559901     3.0754208312079396e-05    
0.12309890942216187       0.0007736329881007368     3.112269887958544e-05     
0.12343849262056783       0.00075372828535715       3.0985928970042745e-05    
0.1237780758189738        0.0007465982065749553     3.046481227925887e-05     
0.12411765901737977       0.0007467265259725665     3.068773008571595e-05     
0.12445724221578572       0.0007576380851286297     3.0641577084082384e-05    
0.12479682541419168       0.0007725311986013714     3.1073164400241276e-05    
0.12513640861259767       0.0007309152388302084     3.0231535722911794e-05    
0.1254759918110036        0.0007819046705369921     3.099788542826084e-05     
0.12581557500940957       0.0007060784642557511     2.954158495602691e-05     
0.12615515820781553       0.0007610009626189542     3.053379425396726e-05     
0.12649474140622152       0.0007954785123357995     3.1363273616406114e-05    
0.12683432460462746       0.0007685004267792614     3.065039198986859e-05     
0.12717390780303342       0.0007250355543662567     2.9667035144350306e-05    
0.1275134910014394        0.0007832428760215224     3.0956831076370916e-05    
0.12785307419984537       0.0008116679306978576     3.139654406842093e-05     
0.12819265739825134       0.0007773604872524944     3.067246281609147e-05     
0.12853224059665727       0.0008099937495073604     3.1201391032005226e-05    
0.12887182379506326       0.0007157689086108905     2.9375065763904257e-05    
0.12921140699346922       0.0007981787444693605     3.104035413259156e-05     
0.1295509901918752        0.0007292444782386874     2.9478603611647883e-05    
0.12989057339028112       0.000733686900032985      2.9695824554480422e-05    
0.1302301565886871        0.0007544331511494715     2.986237819597361e-05     
0.13056973978709308       0.0007715202352232501     3.0399611275310146e-05    
0.13090932298549904       0.0007703267041322271     3.0162723269414893e-05    
0.131248906183905         0.0007762509937713131     3.0310788287173546e-05    
0.13158848938231096       0.0007200124406368068     2.9075021437527943e-05    
0.13192807258071693       0.0007941062693189763     3.0534521249850116e-05    
0.1322676557791229        0.0007666200494313098     3.0071413875646086e-05    
0.13260723897752885       0.0007895456284734056     3.0312958578857218e-05    
0.13294682217593481       0.0007592243205868202     2.9762686603482488e-05    
0.13328640537434078       0.0007835786017891504     3.0211080026073932e-05    
0.13362598857274674       0.0007166030126204196     2.877105165469394e-05     
0.1339655717711527        0.0007465680246814274     2.9476879674480743e-05    
0.13430515496955867       0.0007476056117282615     2.9181858104422955e-05    
0.13464473816796463       0.0007409074964561915     2.935288790782684e-05     
0.13498432136637062       0.0007637830480264557     2.96054126172497e-05      
0.13532390456477658       0.0006872920737117739     2.803776523841788e-05     
0.13566348776318252       0.0007705675162599815     2.974299010223352e-05     
0.13600307096158848       0.0007897696643559026     2.9835758192575968e-05    
0.13634265415999447       0.0007462863654161057     2.9307165545412667e-05    
0.13668223735840043       0.0007453516118673603     2.89438505560016e-05      
0.13702182055680637       0.0007577710587021372     2.92967392039151e-05      
0.13736140375521233       0.000744369325060786      2.8989482049523186e-05    
0.13770098695361832       0.0007396939511914067     2.877610367354156e-05     
0.13804057015202428       0.0007210805815201369     2.8602334178221097e-05    
0.13838015335043022       0.0006906602134153272     2.765093206502055e-05     
0.1387197365488362        0.0007234125790248919     2.8366870413466772e-05    
0.13905931974724217       0.0006879143153020747     2.7795879561589365e-05    
0.13939890294564813       0.0007721327385088256     2.9161449932004408e-05    
0.1397384861440541        0.000801325182329423      2.9879669837229937e-05    
0.14007806934246006       0.0007225903991308336     2.8171648898766492e-05    
0.14041765254086602       0.0007404329273037644     2.866490076292894e-05     
0.14075723573927199       0.0007036252539170519     2.7772346734653113e-05    
0.14109681893767795       0.000749422161384282      2.8656391754128816e-05    
0.1414364021360839        0.0006902675063736893     2.7480659197118737e-05    
0.14177598533448987       0.0007597611454069881     2.8780080389551172e-05    
0.14211556853289584       0.0007090323991801101     2.786288138775228e-05     
0.14245515173130183       0.0007234742048922182     2.7948128126716164e-05    
0.14279473492970776       0.0006978680218466527     2.7481202262186173e-05    
0.14313431812811372       0.0007390589766989204     2.82752286056235e-05      
0.1434739013265197        0.0007169543986926523     2.782767559966787e-05     
0.14381348452492568       0.0006789326601289643     2.7079860710704382e-05    
0.1441530677233316        0.0006886445810254841     2.7048247375922954e-05    
0.14449265092173758       0.0007372909292243468     2.8176257340660838e-05    
0.14483223412014354       0.0007085980589557742     2.74690252700651e-05      
0.14517181731854953       0.0007477897662543886     2.8213171305716397e-05    
0.14551140051695546       0.0007136709070299406     2.7541093587552814e-05    
0.14585098371536143       0.0007359019053780287     2.7860707827650738e-05    
0.14619056691376742       0.0007212958590687444     2.782118013156894e-05     
0.14653015011217338       0.0006698788193887557     2.6612057734688245e-05    
0.14686973331057934       0.0007377629540230232     2.8351150969958726e-05    
0.14720931650898528       0.0007316781328164458     2.8129722952582732e-05    
0.14754889970739127       0.0007238012885214965     2.8131450689646856e-05    
0.14788848290579723       0.000723460439189207      2.8152610777135984e-05    
0.1482280661042032        0.0007220798175172386     2.7944987607344055e-05    
0.14856764930260913       0.00071759238562109       2.8027431502860283e-05    
0.14890723250101512       0.0007403653976686329     2.8401884300175984e-05    
0.14924681569942108       0.0006739800918431568     2.706172696387643e-05     
0.14958639889782704       0.000751784760360306      2.8699078831800135e-05    
0.149925982096233         0.0006483594441576846     2.646013144325062e-05     
0.15026556529463897       0.0007080437201132966     2.805694664323169e-05     
0.15060514849304493       0.0006952510537342699     2.7453824380549105e-05    
0.1509447316914509        0.0007451445631843494     2.8634628617666137e-05    
0.15128431488985686       0.000723036587811103      2.8145655487926256e-05    
0.15162389808826282       0.0007266028246058174     2.8187393905962068e-05    
0.15196348128666878       0.0006631815634565409     2.7159601871570502e-05    
0.15230306448507475       0.000683242230933703      2.7258816496912723e-05    
0.1526426476834807        0.000694405324594431      2.771997705221658e-05     
0.15298223088188667       0.0007327630605030537     2.834615344463075e-05     
0.15332181408029263       0.0006731083880097916     2.7189377429781527e-05    
0.15366139727869862       0.0006248428157396526     2.6310974627770874e-05    
0.1540009804771046        0.0006971425884316653     2.763267127402552e-05     
0.15434056367551052       0.0007134299819808618     2.8131358622215483e-05    
0.15468014687391649       0.0006489811464281786     2.6671849408645362e-05    
0.15501973007232248       0.0007708703298049578     2.9172532774462485e-05    
0.15535931327072844       0.000722016981343584      2.81940440714269e-05      
0.15569889646913437       0.0006426698786355177     2.645384309096298e-05     
0.15603847966754036       0.0006634482094620545     2.721012151506522e-05     
0.15637806286594633       0.0007084873281883488     2.7852050992774558e-05    
0.1567176460643523        0.0006621083102991915     2.704235455450337e-05     
0.15705722926275822       0.0007198688571818494     2.804208366644159e-05     
0.15739681246116421       0.0006594211554905666     2.7003756039821896e-05    
0.15773639565957018       0.0006763714144621498     2.7289206517974636e-05    
0.15807597885797614       0.00068176079693883       2.7349224048238412e-05    
0.1584155620563821        0.0006958887233335306     2.8100207723578344e-05    
0.15875514525478807       0.0006555512585452268     2.7168789951175705e-05    
0.15909472845319403       0.0007206015862728988     2.884297809907768e-05     
0.1594343116516           0.0007531914420904454     2.9451526263770026e-05    
0.15977389485000595       0.0006766302379427433     2.789739860344809e-05     
0.16011347804841192       0.0006412923760810772     2.7508035085946292e-05    
0.16045306124681788       0.0006845688231945142     2.8259990515024116e-05    
0.16079264444522384       0.0006771243561975837     2.8344543881502225e-05    
0.16113222764362983       0.0006565309434482397     2.7762860176573344e-05    
0.16147181084203577       0.0007200713123146458     2.9155459562109024e-05    
0.16181139404044173       0.0006654706670049383     2.830576546222391e-05     
0.1621509772388477        0.0007027488947156438     2.8827371824243636e-05    
0.16249056043725368       0.0006939285905582222     2.904339817142366e-05     
0.16283014363565962       0.0007287269267519046     2.9462181769711506e-05    
0.16316972683406558       0.0006494790509614373     2.811651478846042e-05     
0.16350931003247157       0.0006815219789930242     2.876420136143301e-05     
0.16384889323087753       0.0006812266836379925     2.8602680338403295e-05    
0.16418847642928347       0.0006754564677198522     2.8806228176436657e-05    
0.16452805962768943       0.0006964957796510043     2.9104300341626052e-05    
0.16486764282609542       0.000677613166125481      2.888434154194527e-05     
0.16520722602450139       0.0006543077949268781     2.8246396853198734e-05    
0.16554680922290735       0.000700928234629733      2.9344943989722486e-05    
0.16588639242131328       0.000663745260769795      2.8734136176652748e-05    
0.16622597561971927       0.000684676453432688      2.904792797512931e-05     
0.16656555881812524       0.0006852334027377979     2.9248148213581235e-05    
0.1669051420165312        0.0006994035823120715     2.928133622469306e-05     
0.16724472521493716       0.0006739879581471028     2.9158144681640306e-05    
0.16758430841334312       0.000673872543253161      2.8985638650459e-05       
0.1679238916117491        0.0006635856182551723     2.863580191132405e-05     
0.16826347481015505       0.0006896388912171987     2.952195727146572e-05     
0.168603058008561         0.0006414311439660136     2.8273434774500383e-05    
0.16894264120696698       0.0006895035707148393     2.9667806733259797e-05    
0.16928222440537294       0.0006794493086661009     2.9138708806474087e-05    
0.1696218076037789        0.0007140951572317942     2.9993886576886638e-05    
0.16996139080218486       0.0006073633664850891     2.782594422927405e-05     
0.17030097400059083       0.0006372007805983391     2.8333314169160523e-05    
0.1706405571989968        0.0006236709626978792     2.828158330008296e-05     
0.17098014039740278       0.0006284381436480309     2.800543544754147e-05     
0.17131972359580872       0.0006428309521882405     2.8766048306494996e-05    
0.17165930679421468       0.0006827632742543982     2.967364614481301e-05     
0.17199888999262064       0.0006529525950409479     2.868862235054968e-05     
0.17233847319102663       0.000620874224491506      2.8389272164322348e-05    
0.17267805638943257       0.0006476147059814481     2.8558500185849726e-05    
0.17301763958783853       0.0006016583724536952     2.806474365326361e-05     
0.1733572227862445        0.0006439469147117813     2.869923390380961e-05     
0.17369680598465048       0.0006354389597038669     2.849608544983767e-05     
0.17403638918305644       0.0006506269171330989     2.9089424810134005e-05    
0.17437597238146238       0.0006548488658506789     2.90552304435941e-05      
0.17471555557986837       0.000605103355556101      2.8119310636455126e-05    
0.17505513877827433       0.0006529613876585645     2.8853855918520548e-05    
0.1753947219766803        0.0006159744877424014     2.8252072624212972e-05    
0.17573430517508623       0.0006637873133082721     2.9541973965498408e-05    
0.17607388837349222       0.0007066843022748376     3.0247148461651007e-05    
0.17641347157189818       0.0007362835838374453     3.108441950511261e-05     
0.17675305477030415       0.0006365742141163734     2.861494106906273e-05     
0.17709263796871008       0.0006383299174562939     2.905295106757002e-05     
0.17743222116711607       0.0006580539716819644     2.933885972688625e-05     
0.17777180436552203       0.0006643478835269361     2.9437559046554105e-05    
0.178111387563928         0.0006892364757927369     3.00757282953024e-05      
0.17845097076233396       0.00063872812591011       2.887144250486819e-05     
0.17879055396073992       0.0006093646009504635     2.8468093068059755e-05    
0.17913013715914589       0.0006394530113730321     2.881400517557642e-05     
0.17946972035755185       0.0006586202002077165     2.9498219462308713e-05    
0.1798093035559578        0.0007006339267646923     3.043913298607232e-05     
0.18014888675436377       0.0006315142112299326     2.8898855978155164e-05    
0.18048846995276974       0.000650121120616613      2.9349537395710786e-05    
0.1808280531511757        0.000615678541223171      2.8380064907145216e-05    
0.1811676363495817        0.000644678404539794      2.946591282860929e-05     
0.18150721954798762       0.0006146135538440725     2.844275338135151e-05     
0.1818468027463936        0.0005854484164973465     2.7878636162299373e-05    
0.18218638594479958       0.0005667994019022817     2.74770249312634e-05      
0.18252596914320554       0.0006366493391957389     2.9024132721083213e-05    
0.18286555234161148       0.000631093063157321      2.9175765726387873e-05    
0.18320513554001744       0.0006070963388670642     2.8189290539365157e-05    
0.18354471873842343       0.0006041818041243697     2.852654649282035e-05     
0.1838843019368294        0.0005956101314001449     2.8221509999212918e-05    
0.18422388513523533       0.0006367119442085462     2.910248046909503e-05     
0.1845634683336413        0.0006228043745333825     2.9125673990086384e-05    
0.18490305153204728       0.0006578686955522497     2.9435215027832374e-05    
0.18524263473045324       0.0006319013709552642     2.9287889802694236e-05    
0.1855822179288592        0.0006217421407610839     2.8758982771407502e-05    
0.18592180112726517       0.000615748874671978      2.8737031914672937e-05    
0.18626138432567113       0.0006575579346294367     2.9869787963260234e-05    
0.1866009675240771        0.0006585958270205918     2.962077926081068e-05     
0.18694055072248306       0.0006204581786842791     2.9114644778570413e-05    
0.18728013392088902       0.0006285443556233997     2.8999876173813815e-05    
0.18761971711929498       0.0005946361107789224     2.8370878407996797e-05    
0.18795930031770094       0.0005966176891943713     2.8411376453162405e-05    
0.1882988835161069        0.0006312074686440788     2.9131761387296075e-05    
0.18863846671451287       0.000678360065723906      3.0503602082371365e-05    
0.18897804991291883       0.0005974647947654814     2.8227237514438055e-05    
0.1893176331113248        0.0006093116305056496     2.8846034964843166e-05    
0.1896572163097308        0.0006450439801349924     2.9564322821215513e-05    
0.18999679950813672       0.0006152702615767013     2.8994179145787276e-05    
0.19033638270654268       0.0006548926660505011     2.984760982560285e-05     
0.19067596590494865       0.00063441731882939       2.9221027880571658e-05    
0.19101554910335464       0.0006066020204386653     2.8924731616727083e-05    
0.19135513230176057       0.0006664850931375859     3.0037940928645997e-05    
0.19169471550016653       0.0005706209386930802     2.802637947312172e-05     
0.1920342986985725        0.0006318457562162757     2.9240187317330295e-05    
0.1923738818969785        0.0006430186105577221     2.9584047550291893e-05    
0.19271346509538445       0.0005859731483002164     2.8436525832535693e-05    
0.19305304829379039       0.0005723435338536402     2.7823088106227583e-05    
0.19339263149219638       0.0006494784673527385     2.998272897829308e-05     
0.19373221469060234       0.0006829052747088505     3.0421749574468713e-05    
0.1940717978890083        0.0005739455015527636     2.824891789499922e-05     
0.19441138108741424       0.0005885153462660535     2.843571334230018e-05     
0.19475096428582023       0.0006532322693551648     2.9797500944910393e-05    
0.1950905474842262        0.0006278315708001728     2.9531081188342323e-05    
0.19543013068263215       0.0005902301717053496     2.8296899829500376e-05    
0.19576971388103812       0.0006273430971073661     2.9578955856613228e-05    
0.19610929707944408       0.0006347420890686639     2.9438119722842773e-05    
0.19644888027785004       0.000644010705212248      2.9784012089925965e-05    
0.196788463476256         0.0006039806786893296     2.8980032216133607e-05    
0.19712804667466197       0.0005755632494968861     2.8067140378825434e-05    
0.19746762987306793       0.0006390182836906763     2.9913745247513694e-05    
0.1978072130714739        0.0006560700051455983     2.990024134988214e-05     
0.19814679626987985       0.0005957586526496405     2.8818756798059588e-05    
0.19848637946828582       0.0006526884998050702     3.011181902465102e-05     
0.19882596266669178       0.0006318130753929036     2.9443728267250053e-05    
0.19916554586509774       0.0006009987759333882     2.8945749927520505e-05    
0.19950512906350373       0.0005319847656574122     2.7057990931964274e-05    
0.1998447122619097        0.0005979437653356124     2.896673610227717e-05     
0.20018429546031563       0.0006805102404893657     3.0595774803991095e-05    
0.2005238786587216        0.0006045288188174794     2.899512517401999e-05     
0.20086346185712758       0.0006908943414818538     3.098965262898908e-05     
0.20120304505553355       0.000612881603728107      2.9100922264524457e-05    
0.20154262825393948       0.0005515333178049151     2.79192694521997e-05      
0.20188221145234544       0.0006078932498154422     2.883297541362097e-05     
0.20222179465075144       0.000616334053001968      2.9514242872856476e-05    
0.2025613778491574        0.0005948404906121168     2.963289435005828e-05     
0.20290096104756333       0.0005796753641842649     2.9647907740176492e-05    
0.20324054424596932       0.0006140136930290393     3.109388320316952e-05     
0.2035801274443753        0.0005913534706168311     3.041206071542349e-05     
0.20391971064278125       0.000631173075876203      3.232026707720806e-05     
0.2042592938411872        0.0006073298041497136     3.144394218129727e-05     
0.20459887703959317       0.0005963866891440213     3.155817174675773e-05     
0.20493846023799914       0.0006009059886913583     3.1995415640078536e-05    
0.2052780434364051        0.0005769607275256965     3.139002045303938e-05     
0.20561762663481106       0.000617804321946099      3.321232277438297e-05     
0.20595720983321703       0.0006235045404952077     3.282351541676545e-05     
0.206296793031623         0.0006024476038804321     3.314940303482893e-05     
0.20663637623002895       0.0006366101349605094     3.4154820041013595e-05    
0.20697595942843494       0.0006212371961759935     3.38403284736948e-05      
0.20731554262684088       0.0006202028159469044     3.4152647372514496e-05    
0.20765512582524684       0.0005723980004980438     3.285457260055534e-05     
0.2079947090236528        0.0005649331334607242     3.3240870082819195e-05    
0.2083342922220588        0.0005832827860383674     3.374114760534797e-05     
0.20867387542046473       0.0005602117166170739     3.313697178256861e-05     
0.2090134586188707        0.0005442973438289702     3.3048570938842684e-05    
0.20935304181727665       0.0005551541212020156     3.35583187262873e-05      
0.20969262501568264       0.0005410980162755119     3.359849379132249e-05     
0.21003220821408858       0.0006078711327944412     3.530909944287069e-05     
0.21037179141249454       0.0006076587810563064     3.577989443853302e-05     
0.21071137461090053       0.0005184630384469746     3.316286180140437e-05     
0.2110509578093065        0.0006147741827517888     3.6659897816551196e-05    
0.21139054100771246       0.0005782274844574734     3.5374027110750755e-05    
0.2117301242061184        0.0006677353263577339     3.844867048923886e-05     
0.21206970740452438       0.0006312434865103884     3.785207972147078e-05     
0.21240929060293035       0.0005725466466420726     3.578839919044304e-05     
0.2127488738013363        0.0005444900072192961     3.5474331844235385e-05    
0.21308845699974224       0.0005514714529386194     3.551054662773898e-05     
0.21342804019814823       0.0006380824067797519     3.8806837516647316e-05    
0.2137676233965542        0.0005614251941825357     3.687237739397524e-05     
0.21410720659496016       0.000506608959811329      3.4491532984240935e-05    
0.21444678979336612       0.0005840943308974789     3.805856311804329e-05     
0.21478637299177208       0.0005744455648002669     3.718542467475354e-05     
0.21512595619017802       0.0006219955546672954     3.971825808544502e-05     
0.215465539388584         0.0006491236967917867     4.030157909781811e-05     
0.21580512258698994       0.0005987873895555776     3.895303584699334e-05     
0.2161447057853959        0.0006063107089075904     3.987294576415352e-05     
0.2164842889838019        0.0005129415653303473     3.623473520402395e-05     
0.21682387218220783       0.0005646068018937397     3.871497529747903e-05     
0.21716345538061382       0.0005881528338644759     3.925368983267415e-05     
0.2175030385790198        0.0005791589116117526     3.93613350439097e-05      
0.21784262177742572       0.0005460879320022146     3.885990170783937e-05     
0.2181822049758317        0.0005929179242397699     3.986491229705474e-05     
0.21852178817423765       0.0005825702659821842     4.041889448674485e-05     
0.2188613713726436        0.0005688042313736978     3.942695864972132e-05     
0.2192009545710496        0.0005377434399939788     3.926981029998229e-05     
0.21954053776945553       0.0005937007651386927     4.09483042349146e-05      
0.21988012096786153       0.0006220818201616233     4.230302330517828e-05     
0.2202197041662675        0.0006000360122839916     4.195993922196757e-05     
0.22055928736467342       0.000576301445345218      4.099286447240192e-05     
0.2208988705630794        0.0006058461661765163     4.2705482457771696e-05    
0.2212384537614854        0.0005922686017450507     4.1600922167867155e-05    
0.22157803695989134       0.0004759288925502558     3.816118674756728e-05     
0.2219176201582973        0.0005653447800288811     4.166064180908139e-05     
0.22225720335670324       0.0005959978482523656     4.2941106589951845e-05    
0.22259678655510923       0.0005772004325512772     4.2735239059000646e-05    
0.22293636975351522       0.0006181978006487124     4.358940116192733e-05     
0.22327595295192113       0.0006135139008018406     4.461964030760065e-05     
0.22361553615032712       0.0005665227491390279     4.26544992558322e-05      
0.2239551193487331        0.0005828408515055339     4.344005934452702e-05     
0.22429470254713904       0.0005554711145303546     4.3140012814802215e-05    
0.224634285745545         0.0005533155862812256     4.2623784136373104e-05    
0.224973868943951         0.0005535933205098617     4.364786416352241e-05     
0.22531345214235693       0.0006045166330956949     4.487072914528661e-05     
0.22565303534076292       0.0004971538920378946     4.123674650523245e-05     
0.22599261853916885       0.0005429947981812437     4.3744383814958724e-05    
0.22633220173757482       0.000549316883373344      4.377806252019356e-05     
0.2266717849359808        0.0006346580540310488     4.771700528300624e-05     
0.22701136813438674       0.0006455422711614681     4.7848803852511634e-05    
0.22735095133279273       0.00048079787250894594    4.188414915139999e-05     
0.2276905345311987        0.0004458961762397316     4.041490617845342e-05     
0.22803011772960463       0.0005757264705599804     4.641345443702031e-05     
0.22836970092801062       0.0005866496448909761     4.697812724156083e-05     
0.22870928412641658       0.0005220077868778903     4.437454653977299e-05     
0.22904886732482252       0.0005321074593159569     4.5231992799597274e-05    
0.2293884505232285        0.0005801496622981711     4.742651322986607e-05     
0.22972803372163444       0.0006401225063614951     5.016754576834317e-05     
0.23006761692004044       0.0005153193723693568     4.513978111457056e-05     
0.2304072001184464        0.0006073694629618115     4.942803880453172e-05     
0.23074678331685233       0.0005665187671668907     4.819070750760382e-05     
0.23108636651525832       0.0006156210559468035     5.012581812896463e-05     
0.23142594971366431       0.0005250503778973558     4.7019672197401486e-05    
0.23176553291207025       0.0004951905912545667     4.539038919967322e-05     
0.2321051161104762        0.0005559342383569186     4.916842015398349e-05     
0.2324446993088822        0.0005002434479909211     4.649642708379428e-05     
0.23278428250728814       0.0006083979804126805     5.1080089740267245e-05    
0.2331238657056941        0.0005670833736938743     5.0656158521031484e-05    
0.23346344890410003       0.00046529261225421577    4.537356248042671e-05     
0.23380303210250603       0.00044939848866026454    4.524214399514203e-05     
0.23414261530091202       0.0005431729551817621     5.002573674555475e-05     
0.23448219849931795       0.0005119900754768652     4.877052058678819e-05     
0.2348217816977239        0.0005371611362375414     5.076422692407929e-05     
0.2351613648961299        0.0006030246600337491     5.306242160478433e-05     
0.23550094809453584       0.000530988509651247      5.095628949242424e-05     
0.23584053129294183       0.0004869865058311682     4.897149435979576e-05     
0.2361801144913478        0.0005067070571088851     5.017528879982002e-05     
0.23651969768975373       0.0005837935104774178     5.44416162329061e-05      
0.23685928088815972       0.0005877593480623674     5.487662330961409e-05     
0.23719886408656565       0.0004583391474947201     4.868392995874356e-05     
0.23753844728497162       0.0004610927859135741     4.905796070583469e-05     
0.2378780304833776        0.000569684148327347      5.5471150829569827e-05    
0.23821761368178354       0.0006196558901424371     5.768623338194368e-05     
0.23855719688018953       0.0005397486970500049     5.452473457709211e-05     
0.2388967800785955        0.0005304035266672651     5.492465742398191e-05     
0.23923636327700143       0.0005833151307447454     5.6683379665358355e-05    
0.23957594647540742       0.0006184576576799719     6.004799889692782e-05     
0.2399155296738134        0.0004875011555678672     5.287347614962411e-05     
0.24025511287221935       0.0004855576504922466     5.411873238899781e-05     
0.2405946960706253        0.000527424426132296      5.6101969412350046e-05    
0.24093427926903124       0.0005770886711492322     5.9451521976061235e-05    
0.24127386246743723       0.0005145800214110368     5.702202562375252e-05     
0.2416134456658432        0.0005380329953563601     5.740537892679455e-05     
0.24195302886424913       0.00048723242940335726    5.6519340592478746e-05    
0.24229261206265512       0.0004581379260090193     5.423635752228979e-05     
0.2426321952610611        0.0005717337680142332     6.151499114487996e-05     
0.24297177845946705       0.0005518366689622778     6.169092170871899e-05     
0.243311361657873         0.00047053532760788104    5.6073118118924963e-05    
0.243650944856279         0.0005939899117515285     6.522396853475849e-05     
0.24399052805468494       0.0006420649633327397     6.695958026457816e-05     
0.24433011125309093       0.0004646753144674277     5.8367192397275715e-05    
0.24466969445149686       0.0005631454988513153     6.44244099462454e-05      
0.24500927764990282       0.0005383424924244901     6.290723004965427e-05     
0.24534886084830881       0.0006662681717203192     7.271424472708955e-05     
0.24568844404671475       0.0005840406436506951     6.631383469794706e-05     
0.2460280272451207        0.0005159538961920448     6.491801841043681e-05     
0.2463676104435267        0.0005683076769229099     6.706262730191876e-05     
0.24670719364193264       0.00043802098795771755    6.0709668707031606e-05    
0.24704677684033863       0.0005878921809429327     7.076111071662627e-05     
0.2473863600387446        0.0006014245745422873     7.146257333305595e-05     
0.24772594323715053       0.0006910432237676457     7.942938401760712e-05     
0.24806552643555652       0.0004552787467643547     6.284972330666812e-05     
0.24840510963396245       0.0006096522522089214     7.560123976999427e-05     
0.24874469283236844       0.0004951540103145841     6.801956286843354e-05     
0.2490842760307744        0.0005685144598692115     7.400726504328098e-05     
0.24942385922918034       0.0005714880886039221     7.619792574719706e-05     
0.24976344242758633       0.0006264241835015415     7.76863114433315e-05      
0.2501030256259923        0.0005425785598139472     7.56346816943413e-05      
0.2504426088243982        0.0006610027297682162     8.165404355757945e-05     
0.2507821920228042        0.00047852795535663524    7.198849601188635e-05     
0.2511217752212102        0.0005464134288708639     7.662961459558234e-05     
0.25146135841961614       0.00056387223759332       7.784481219641704e-05     
0.25180094161802213       0.0006886272045629082     9.010465589452633e-05     
0.25214052481642807       0.00047409415565729553    7.138028911950344e-05     
0.25248010801483406       0.0004509519970073891     7.29167143716928e-05      
0.25281969121324          0.0004938559772934359     7.582877233346695e-05     
0.25315927441164593       0.00044412653293501603    7.394064830344008e-05     
0.2534988576100519        0.00040409639146211424    7.022163742598822e-05     
0.2538384408084579        0.0006200736825954743     8.698683300773314e-05     
0.25417802400686385       0.0005931523750059135     8.970207524455575e-05     
0.25451760720526984       0.0005365829296253107     8.109748229166286e-05     
0.2548571904036758        0.0006983363521537323     9.853580938384348e-05     
0.25519677360208176       0.0006179561403066218     9.046920894091668e-05     
0.2555363568004877        0.0005611905250998587     8.899982685570532e-05     
0.25587593999889363       0.0005447461823741161     9.022901639940499e-05     
0.2562155231972996        0.0005665391919229451     8.767075131395634e-05     
0.2565551063957056        0.0005572999535551857     9.328135024482772e-05     
0.25689468959411155       0.000571440613266525      9.07329386627482e-05      
0.25723427279251754       0.0006754178251879276     0.00010415865188000728    
0.25757385599092353       0.0005306078158386559     9.002195241610475e-05     
0.25791343918932946       0.00048011960900404895    8.65842309339123e-05      
0.2582530223877354        0.0006673588356111862     0.00010664776776655035    
0.2585926055861414        0.00050107003267373       8.724443535228007e-05     
0.2589321887845473        0.00039726821352471174    8.203532019028913e-05     
0.2592717719829533        0.00047085819671920847    8.697108312783042e-05     
0.25961135518135925       0.0006151943889886743     0.00010302830638639892    
0.25995093837976524       0.0005754979443086514     9.995862824347052e-05     
0.26029052157817123       0.0005806001091264893     9.858143220250097e-05     
0.26063010477657717       0.00033775968582287644    7.987139968587895e-05     
0.26096968797498316       0.0003726328013206246     7.87422181101793e-05      
0.2613092711733891        0.0005187391539930394     9.898489388626823e-05     
0.261648854371795         0.000549678789387697      9.924781648704824e-05     
0.261988437570201         0.0005049362602058982     9.799227550556126e-05     
0.262328020768607         0.0004893765577538474     9.99302351192338e-05      
0.26266760396701294       0.0005496945266568412     9.83108115497387e-05      
0.26300718716541893       0.0007103664526722562     0.00012039922063708083    
0.26334677036382487       0.0005245805555052188     9.954547544561545e-05     
0.26368635356223086       0.0006264124549071855     0.00011518422467514263    
0.2640259367606368        0.0005498015778407207     0.00010478335287331717    
0.2643655199590427        0.0005535499087907802     0.00010707013592432545    
0.2647051031574487        0.0005447355524775141     0.00011173088573475998    
0.2650446863558547        0.0005284739301283425     0.00010236843744066843    
0.26538426955426064       0.00043383849684651876    0.0001005404544368996     
0.26572385275266663       0.0005893803722668241     0.0001117331059770555     
0.2660634359510726        0.00038305458748120254    9.487054317928393e-05     
0.26640301914947856       0.0002951775199741005     8.328105790773438e-05     
0.2667426023478845        0.0003791170491398326     9.2835847124225e-05       
0.26708218554629043       0.0004471682901484342     0.00010710442235510838    
0.2674217687446964        0.0005694846632623429     0.00011378295500909808    
0.2677613519431024        0.0004595621561164396     0.00010908188057948979    
0.26810093514150835       0.00037234809367489027    9.68520975781618e-05      
0.26844051833991434       0.0005111088612429882     0.00011398819603638092    
0.2687801015383203        0.0005561960212196491     0.00013002384300901052    
0.26911968473672626       0.000538054822452951      0.00011292206606100819    
0.26945926793513225       0.0003906636046433587     0.00010897272499388478    
0.2697988511335382        0.0006854079119110162     0.0001326096689571672     
0.2701384343319441        0.0005860250690773013     0.0001334694053942181     
0.2704780175303501        0.0006500595504970377     0.00013761383747916943    
0.27081760072875605       0.0005250894829212985     0.0001249906349442295     
0.27115718392716204       0.0006424011200735026     0.00014986022337543477    
0.27149676712556803       0.0005251897709103837     0.00012059501006484911    
0.27183635032397396       0.0005451720132947043     0.00013981541712132191    
0.27217593352237995       0.000577625815574953      0.0001339804052500679     
0.2725155167207859        0.000577503340413895      0.00014299029376006322    
0.2728550999191918        0.0005423954775913526     0.00014128553428166982    
0.2731946831175978        0.0005406035505550155     0.00013416828297177136    
0.2735342663160038        0.00016875087557894201    8.45677435193557e-05      
0.27387384951440974       0.0006075152070361509     0.00014139254530656204    
0.27421343271281573       0.00029721236933139634    0.0001148746715915108     
0.27455301591122167       0.0003326422271126994     0.00011138400898177203    
0.27489259910962766       0.00021345588036976993    9.584420370606113e-05     
0.27523218230803365       0.0003744642386153035     0.00013800527840603894    
0.2755717655064395        0.0005922399619518069     0.0001496265175120434     
0.2759113487048455        0.0007035525783223285     0.00018916741137081937    
0.2762509319032515        0.0009255430997479062     0.00019958357970960346    
0.27659051510165744       0.0006033193537670872     0.00017517785081091675    
0.27693009830006343       0.0005282176276632687     0.00016857586893049284    
0.2772696814984694        0.00013191680337635921    7.976830061938698e-05     
0.27760926469687536       0.0003080348880263758     0.00015471999639829834    
0.27794884789528135       0.0006561270998844001     0.0001706967415135475     
0.2782884310936873        0.0004305810104214105     0.00018292856064280348    
0.2786280142920932        0.0006700465122672226     0.0001898715590766865     
0.2789675974904992        0.0007222661706061628     0.0002306054917087106     
0.27930718068890514       0.0006984796353120784     0.00022677836774817714    
0.27964676388731113       0.0005165835311738646     0.00018333957105279725    
0.2799863470857171        0.0005531557995022438     0.00024881552526528417    
0.28032593028412306       0.0003708089308249501     0.00014857775783586977    
0.28066551348252905       0.0007495272780223256     0.0003087549797720052     
0.281005096680935         0.0006598643540206354     0.00021484872874293745    
0.2813446798793409        0.0007738160744562969     0.0003290358512741566     
0.2816842630777469        0.0004208488520315065     0.0002557813719294241     
0.28202384627615285       0.0005327071730416735     0.00021253639255407175    
0.28236342947455884       0.0003598618584451114     0.0002591029030338853     
0.2827030126729648        0.000448047633693224      0.00021549347592435681    
0.28304259587137076       0.00017008818248082585    0.00019916103789751488    
0.28338217906977675       0.0                       0.00011035051013416627    
0.28372176226818274       0.0                       0.0002574893222395453     
0.2840613454665887        0.0005642517065449962     0.0004442833131065608     
0.2844009286649946        0.0004965339204494567     0.0003269454010503536     
0.2847405118634006        0.0                       0.00046350352647174997    
0.28508009506180654       0.0002741590499465803     0.0003310797685008955     
0.28541967826021253       0.0                       0.0011588016345304255     
0.28575926145861846       0.0                       0.0023176318789255527     
