################################################################################
# EDF_DataBlockID                 0.Image.Psd
# EDF_BinarySize                  4637784
# EDF_HeaderSize                  3072
# ByteOrder                       LowByteFirst
# DataType                        FloatValue
# Dim_1                           1038
# Dim_2                           1117
# Image                           0
# HeaderID                        EH:000000:000000:000000
# Size                            4637784
# BIO_SYSTEM_CONF_TXT             WAXSRES
# Center_1                        606.875
# Center_2                        651.034
# Comment                         alpha_0X - alpha_0X_SAXS_HI_1200s
# DDummy                          0.6
# Date                            2023-10-11T03:03:57
# Delta                           0
# Dummy                           -1.5
# ExposureTime                    1200
# Force                           9.91088
# Gamma                           0
# Intensity1                      4.46235e-08
# JawsDistance                    4.54563
# JawsVelocity                    0.358589
# PSize_1                         7.5e-05
# PSize_2                         7.5e-05
# Pressure                        0.0778961
# SampleDistance                  0.899998
# SampleEnvKind                   saxs
# SampleEnvPN                     Solids
# SampleEnvSN                     1012
# Strain                          0
# Stress                          0
# Thickness                       0
# WaveLength                      1.541891e-10
# Wavelength                      1.54189e-10
# anaB                            0
# anaB_dial                       -0.0012015
# anaPark                         -175.125
# anaPark_dial                    175.169
# anaXi                           0
# anaXi_dial                      0
# anaZ                            -9.13123e-08
# anaZ_dial                       6.2299
# aux                             0
# aux_dial                        -0.000125
# b2c                             0
# b2c_dial                        0
# beamx                           602.698
# beamx_dial                      602.698
# beamz                           651.159
# beamz_dial                      651.159
# bioZ                            -2.90461e-08
# bioZ_dial                       -0.546695
# det0x                           0
# det0x_dial                      3.98621
# det0xvd                         0
# det0xvd_dial                    0
# det0y                           899.998
# det0y_dial                      43.5135
# det0z                           0
# det0z_dial                      7.30833
# det0zvd                         0
# det0zvd_dial                    0
# distana                         93.4
# distana_dial                    93.4
# mag                             2.6365
# mag_dial                        2.6365
# mono1B                          1.00136e-08
# mono1B_dial                     -0.277
# mono2B                          1.75476e-07
# mono2B_dial                     -4.366
# mono2X                          -1
# mono2X_dial                     3.96031
# mono2Xi                         0
# mono2Xi_dial                    0
# monoZ                           -11
# monoZ_dial                      -10.6609
# om                              1.30741e-08
# om_dial                         -0.939898
# phi                             -4.9295e-08
# phi_dial                        -7.01716
# qana                            0
# qana_dial                       0
# ry                              0
# ry_dial                         0.00149998
# s1bot                           1
# s1bot_dial                      -1.57906
# s1hl                            0.1
# s1hl_dial                       -0.02125
# s1hr                            1.5
# s1hr_dial                       1.86625
# s1top                           0.6
# s1top_dial                      0.783906
# s2bot                           0.95
# s2bot_dial                      -1.84531
# s2hl                            0.35
# s2hl_dial                       -1.115
# s2hr                            0.55
# s2hr_dial                       -0.265313
# s2top                           -0.05
# s2top_dial                      -1.43281
# ttdeg                           0
# ttdeg_dial                      0
# wind                            72.0045
# wind_dial                       72.0233
# x                               -41
# x_dial                          -40.2903
# z                               -13.5
# z_dial                          5.60906
# CountCutoff                     15302352
# DetectorModel                   Dectris EIGER2 Si 1M, S/N E-02-0357
# ThresholdSetting                4023.88989258
# Saturation                      0
# FlatField                       Corrected
# BackgroundReductionExtra        0.02
# Detector                        0
# Monitor                         0
# Pil_Roi0                        5.35482e+10
# SumForIntensity1                5.35482e+10
# TransmittedFlux                 4.46235e+07
# det                             0
# mon                             0
# pilai0                          5.35482e+10
# pilai1                          0
# pilct0                          5.35482e+10
# pilct1                          0
# pilroi0                         5.35482e+10
# pilroi1                         0
# sec                             0.099
# title                           10_10_2023_0_00041.edf
# usaxs0                          0
################################################################################
q(A-1)                    I(q)                      Sig(q)                    
0.00016979159920298188    619790.8014259428         20.412698042622843        
0.0005093747976089456     615080.4005136009         14.379003816855215        
0.0008489579960149094     586240.6689392433         9.629890929736458         
0.001188541194420873      582148.7960205846         8.250133102241975         
0.0015281243928268369     523137.6111341529         7.355787728093027         
0.001867707591232801      462815.0477625207         5.799770187986964         
0.0022072907896387643     395017.0978812751         5.218955370143388         
0.002546873988044728      326213.6089493355         4.188649363732582         
0.002886457186450692      257243.88887780855        3.6473620018791966        
0.003226040384856656      196389.45690056626        2.9918590334742095        
0.0035656235832626196     138544.46334912875        2.340713309187417         
0.0039052067816685828     88484.1911783687          1.8179198799085508        
0.004244789980074546      52861.182060806226        1.3330045764691918        
0.004584373178480511      29103.194194157284        0.989084945452662         
0.004923956376886474      16633.413552913684        0.6898188938645585        
0.005263539575292438      8265.471754693466         0.47869219181529954       
0.005603122773698402      4356.695864787827         0.3324559808632788        
0.005942705972104365      2430.5103197357794        0.24487476033165506       
0.00628228917051033       1585.1984118100104        0.19422771950862708       
0.0066218723689162925     853.214850591535          0.13494370654858162       
0.006961455567322258      452.44124974039784        0.09711695057050496       
0.0073010387657282206     237.53940200296117        0.06930281887677087       
0.007640621964134184      91.02065769189427         0.04166481110224198       
0.007980205162540149      33.949932414750485        0.024921253492245287      
0.008319788360946111      8.269427382294142         0.011752600790337252      
0.008659371559352074      2.149178609074192         0.006186672075958278      
0.00899895475775804       0.5341061995672266        0.0028897416586140218     
0.009338537956164003      0.18420277815464814       0.001697045241257242      
0.009678121154569966      0.11014371312909194       0.0012827832698339612     
0.01001770435297593       0.07898008227018279       0.0010628933288331678     
0.010357287551381893      0.05899753435046222       0.00093111073790449       
0.01069687074978786       0.04755625734480175       0.000787916713975718      
0.011036453948193822      0.041229049790811226      0.0007445551977416805     
0.011376037146599785      0.03925008817241807       0.0007089588920945872     
0.01171562034500575       0.03503874356152468       0.0006529631355688977     
0.012055203543411714      0.033607226125596086      0.0006438708793493316     
0.012394786741817678      0.03173713592218973       0.0006026439399282541     
0.01273436994022364       0.030589172300811717      0.0005954576747684952     
0.013073953138629604      0.02932680345767087       0.0005756454582898201     
0.013413536337035568      0.026608961504675087      0.0005339351027792453     
0.013753119535441533      0.02443139379150192       0.0005116215329999787     
0.014092702733847497      0.023720618305209305      0.00048162430759043386    
0.01443228593225346       0.0225887840977882        0.0004900022781745173     
0.014771869130659422      0.020840430553636265      0.00044980635055128236    
0.015111452329065385      0.01927716230469918       0.00042951735423422765    
0.01545103552747135       0.01845462354170931       0.00041511543394569375    
0.015790618725877316      0.017349328904072665      0.00039768853471564816    
0.01613020192428328       0.016336397262908302      0.00038921726260678655    
0.01646978512268924       0.01567232118879391       0.00036812866270833055    
0.016809368321095204      0.01475361765387926       0.00035775178084054816    
0.017148951519501167      0.014477466017377117      0.0003510074634365648     
0.017488534717907133      0.013613679254825558      0.00033666683813045686    
0.017828117916313096      0.013210516985404097      0.000328606415421904      
0.018167701114719062      0.012886500808076714      0.0003192584231555754     
0.018507284313125025      0.012313782427004955      0.0003130054878019709     
0.018846867511530987      0.011325441950662346      0.0002954130509528338     
0.01918645070993695       0.01112380347669677       0.0002911081505093475     
0.019526033908342916      0.011179968866818631      0.00028819161070524314    
0.01986561710674888       0.010275699824322903      0.00027002357788480694    
0.020205200305154842      0.010023066711600198      0.000272123140860086      
0.020544783503560805      0.009524650288141515      0.0002576006730646953     
0.02088436670196677       0.009071051255220593      0.0002523747059531359     
0.021223949900372737      0.009260452279131779      0.0002520517679634554     
0.0215635330987787        0.008533767445377479      0.0002398285710812401     
0.021903116297184663      0.008316115190774635      0.00023645445853939142    
0.022242699495590625      0.00814585262856496       0.00022811023728134587    
0.022582282693996588      0.007686288697279801      0.00022344777054041602    
0.022921865892402554      0.0075754338712964876     0.00021817250857057328    
0.023261449090808517      0.007523538710945921      0.00021896430011805718    
0.02360103228921448       0.0069732665194643375     0.00020715536396840692    
0.023940615487620442      0.007405468691887576      0.00021013920857677732    
0.02428019868602641       0.006752521993008889      0.00020246527638035448    
0.024619781884432375      0.006803787158923387      0.0001994417974854436     
0.024959365082838338      0.006579091594737772      0.00019676367765022754    
0.0252989482812443        0.006445276020402         0.00019265607981600085    
0.025638531479650263      0.005998689948863412      0.0001821926335090998     
0.025978114678056226      0.0058724691609349415     0.00018350378911126183    
0.02631769787646219       0.005779991554002808      0.00017667307327936084    
0.026657281074868155      0.005681491685337546      0.00017767662375161672    
0.026996864273274118      0.005715045110149559      0.00017445615060610465    
0.027336447471680087      0.005584827094548083      0.0001726283433355284     
0.02767603067008605       0.00539886508416695       0.0001688943873028217     
0.028015613868492013      0.0053999976669750595     0.00016600253561123852    
0.02835519706689798       0.005051750386790453      0.00016257845805840729    
0.02869478026530394       0.005516270067811455      0.00016513810991746608    
0.029034363463709904      0.005080662523842859      0.00016148006432633647    
0.029373946662115867      0.005153087257429862      0.00016019967678796088    
0.02971352986052183       0.004784065842986002      0.0001510372903326327     
0.030053113058927793      0.0048911306821856956     0.00015507312332087604    
0.030392696257333755      0.004696293616859693      0.00014885593641271742    
0.03073227945573972       0.004526204520977143      0.00014743461022400408    
0.031071862654145688      0.00445850180332788       0.00014415620792195932    
0.03141144585255165       0.004543356535765451      0.0001439095465953997     
0.03175102905095761       0.004113313783628377      0.0001390674614398911     
0.032090612249363576      0.004412598844303811      0.00013947949035673097    
0.03243019544776954       0.0040746057783427525     0.00013663193675424293    
0.03276977864617551       0.004138069952160513      0.0001340857115164493     
0.03310936184458147       0.004278626766841495      0.00013779873822242263    
0.033448945042987434      0.004155387403856481      0.00013447492645039347    
0.0337885282413934        0.004118923148128785      0.00013228793334642226    
0.03412811143979936       0.004057740164460832      0.00013256443075502925    
0.03446769463820532       0.004026733425448295      0.00012927664960213166    
0.03480727783661129       0.004054374194304288      0.0001304261018260184     
0.035146861035017254      0.0038652057298619803     0.00012734719111655944    
0.03548644423342322       0.003934543498501263      0.00012586109079493568    
0.03582602743182918       0.004047398812203502      0.00012901260658860437    
0.03616561063023514       0.003822028713035808      0.0001229492886044884     
0.036505193828641105      0.003737096343031345      0.00012220630289624842    
0.03684477702704707       0.003669064882196072      0.00012081999834533961    
0.03718436022545303       0.003779243262483446      0.00012075941604533486    
0.037523943423858994      0.0037876597108571263     0.00012257618397060527    
0.037863526622264956      0.003673111766801992      0.00011770862134686233    
0.03820310982067092       0.0038109516659683112     0.00012126537254362414    
0.03854269301907689       0.0035212584487392972     0.00011429228990982427    
0.03888227621748285       0.0034300476096675225     0.00011382760012081795    
0.039221859415888814      0.00350547549350416       0.00011411486103404236    
0.039561442614294784      0.0031992141368726115     0.00010790410878557167    
0.03990102581270075       0.003428896982495195      0.00011201408267473528    
0.04024060901110671       0.003518073212255027      0.00011217165532970324    
0.04058019220951267       0.0035409825875891226     0.00011336864116284764    
0.040919775407918635      0.0032042167824487947     0.00010655669664237428    
0.0412593586063246        0.0034492179931962935     0.000109691852829639      
0.04159894180473056       0.0032901941330257876     0.00010776433890795658    
0.04193852500313653       0.003188538031024746      0.00010472123913329017    
0.04227810820154249       0.003259829044602897      0.00010643141605511358    
0.042617691399948456      0.0032390898164477654     0.00010415909541828512    
0.04295727459835442       0.003287051260532252      0.00010565369661348127    
0.04329685779676038       0.0033021128311416827     0.00010582882697086492    
0.043636440995166344      0.0031558329723851905     0.00010217789007047813    
0.043976024193572306      0.0031262149074947967     0.00010232869205118199    
0.04431560739197827       0.0030130362581083825     9.833917056687139e-05     
0.04465519059038423       0.0029921475738410946     9.943202115785523e-05     
0.044994773788790195      0.0030644689213774052     9.953217786449236e-05     
0.045334356987196164      0.0028831172949254037     9.60243371012655e-05      
0.04567394018560213       0.0028761508849798486     9.579455245102149e-05     
0.0460135233840081        0.002936213535000603      9.582834152421316e-05     
0.04635310658241406       0.002856125761019068      9.557419688375994e-05     
0.04669268978082002       0.0029200978762208923     9.501445615761734e-05     
0.047032272979225985      0.002907363305792133      9.405345598248391e-05     
0.04737185617763195       0.0029783274796954806     9.629000785144965e-05     
0.04771143937603791       0.0027677076116966078     9.150856032629711e-05     
0.04805102257444387       0.0027661930030896753     9.195027652011575e-05     
0.048390605772849836      0.002797244162777343      9.087821349913007e-05     
0.0487301889712558        0.0028555263754647146     9.253399174321171e-05     
0.04906977216966177       0.0027686907251494304     9.106555389749682e-05     
0.04940935536806773       0.0027905008975133826     8.988535979107902e-05     
0.049748938566473694      0.002833026958827797      9.15587404733364e-05      
0.05008852176487966       0.0026773597244426246     8.748137771900811e-05     
0.05042810496328562       0.0027648661637438903     8.961677228531028e-05     
0.05076768816169158       0.0025799468266239365     8.596684510703014e-05     
0.051107271360097545      0.002661281401400535      8.708001305848348e-05     
0.05144685455850351       0.0026131073129871778     8.583495884004452e-05     
0.05178643775690947       0.0026078039651119297     8.534631685541629e-05     
0.05212602095531544       0.002581817155489709      8.540934940614857e-05     
0.0524656041537214        0.002663877851942809      8.55952309695676e-05      
0.05280518735212737       0.0026024193944520755     8.41729831130576e-05      
0.053144770550533335      0.0026126607928546996     8.502989382020145e-05     
0.0534843537489393        0.0026331040768723304     8.47538653035381e-05      
0.05382393694734526       0.0025286846538040723     8.288852473451166e-05     
0.054163520145751216      0.0024602200676696615     8.035084370635749e-05     
0.054503103344157186      0.0025221056557255548     8.257264940886691e-05     
0.05484268654256314       0.002437692434722415      8.085480451353901e-05     
0.05518226974096911       0.002385407070545609      7.869895186572778e-05     
0.05552185293937507       0.002478675867132024      8.088930305476873e-05     
0.05586143613778104       0.002482424706374256      7.9860819073195e-05       
0.05620101933618699       0.002439665059108348      8.013264143341437e-05     
0.05654060253459296       0.0023659130763842772     7.719413820394625e-05     
0.05688018573299892       0.0023710124843450762     7.819807839474316e-05     
0.05721976893140489       0.0023479659249608007     7.719071006961396e-05     
0.05755935212981085       0.0023082593169194113     7.628390674218901e-05     
0.05789893532821682       0.002406661793851328      7.789308934240776e-05     
0.05823851852662278       0.0023269769153095323     7.564178367067259e-05     
0.058578101725028746      0.0022584820892911045     7.510617388906594e-05     
0.058917684923434716      0.0022782168939797756     7.498255446835492e-05     
0.05925726812184067       0.0022165356868147942     7.369074146310116e-05     
0.05959685132024664       0.0023271760309141807     7.581902561351936e-05     
0.0599364345186526        0.002189776594657242      7.216837417446498e-05     
0.060276017717058566      0.002137184368908837      7.245911991255138e-05     
0.06061560091546452       0.0022378424178235937     7.29886702730182e-05      
0.06095518411387049       0.0021449331436536358     7.161621278085535e-05     
0.06129476731227645       0.0022703580811035194     7.351729235631751e-05     
0.06163435051068242       0.002189976811629835      7.144950423163062e-05     
0.06197393370908839       0.0021724805380242884     7.213918896229326e-05     
0.06231351690749434       0.0022089415521647122     7.108409947807138e-05     
0.06265310010590032       0.0021286312968904477     7.050320059018498e-05     
0.06299268330430627       0.002129985326718433      7.01612796762996e-05      
0.06333226650271225       0.002110543745678489      6.942422833747656e-05     
0.0636718497011182        0.002121506460560747      7.002176616880635e-05     
0.06401143289952417       0.002127117968690096      6.882568551067898e-05     
0.06435101609793012       0.0020626778378957673     6.845874524953583e-05     
0.0646905992963361        0.0019712135604818123     6.658726732564315e-05     
0.06503018249474204       0.002082921859659128      6.822036687156658e-05     
0.06536976569314802       0.0020283715801827297     6.740528159654413e-05     
0.06570934889155398       0.0020392532971347144     6.678448431832147e-05     
0.06604893208995995       0.0019908837460506906     6.664118630341662e-05     
0.06638851528836591       0.0019637885970087395     6.514138641084422e-05     
0.06672809848677187       0.001958053088930022      6.54683634582933e-05      
0.06706768168517784       0.0018453795577568362     6.327440874263706e-05     
0.0674072648835838        0.0019950900594705658     6.521515915708773e-05     
0.06774684808198977       0.0019347958360056371     6.497314919567619e-05     
0.06808643128039572       0.0018602304561312994     6.272470166019124e-05     
0.0684260144788017        0.0020207437708709996     6.55556394952378e-05      
0.06876559767720765       0.0019333076608509666     6.381983111692078e-05     
0.06910518087561363       0.0018784907871282086     6.295800704359971e-05     
0.06944476407401959       0.0018301168907673686     6.204497209571414e-05     
0.06978434727242555       0.001965097794530848      6.37465688725722e-05      
0.07012393047083151       0.001892408785366252      6.279841281068177e-05     
0.07046351366923748       0.0018384902379375806     6.147040703037614e-05     
0.07080309686764344       0.001726826542241939      5.9551800759791184e-05    
0.0711426800660494        0.0018756047995441873     6.215931382689873e-05     
0.07148226326445536       0.001862129866737584      6.121352099809589e-05     
0.07182184646286133       0.0017517302367822429     5.986593549761194e-05     
0.07216142966126729       0.0017099049590139999     5.826749353900907e-05     
0.07250101285967325       0.0016890073455592455     5.834264323558677e-05     
0.07284059605807922       0.0017449390056314981     5.9036181574893334e-05    
0.07318017925648519       0.0017229916800310403     5.8190591677367505e-05    
0.07351976245489114       0.0017214773705163436     5.892324094888309e-05     
0.07385934565329712       0.0016774885716572406     5.7064107635461505e-05    
0.07419892885170308       0.0016151270933042155     5.6443250354850554e-05    
0.07453851205010904       0.001756481421540718      5.818297382207523e-05     
0.074878095248515         0.001722779983400948      5.801840405793506e-05     
0.07521767844692097       0.0016655809339559287     5.675944544497932e-05     
0.07555726164532693       0.0017123664609942915     5.736594866423673e-05     
0.0758968448437329        0.0016231858437240163     5.599244231661228e-05     
0.07623642804213886       0.0016880246402852304     5.653458544726474e-05     
0.07657601124054482       0.001632105338634019      5.576730052483953e-05     
0.0769155944389508        0.0015564992398329465     5.413551149671344e-05     
0.07725517763735675       0.001624952512999012      5.5025205664178026e-05    
0.07759476083576272       0.001575930642256128      5.479957180753709e-05     
0.07793434403416867       0.0016064857209417687     5.442993120857433e-05     
0.07827392723257465       0.0015644451158338803     5.410392358813812e-05     
0.0786135104309806        0.001512196886458765      5.270046434717864e-05     
0.07895309362938657       0.0015105459025004297     5.27078057063048e-05      
0.07929267682779252       0.0015716722722033674     5.3874395341206284e-05    
0.0796322600261985        0.0015587485648492288     5.312645963080652e-05     
0.07997184322460446       0.0015907074302044983     5.399647847690185e-05     
0.08031142642301042       0.0016001935012394915     5.3505288845407516e-05    
0.08065100962141639       0.0015301473598113475     5.2708175099726355e-05    
0.08099059281982235       0.0015960695543072434     5.352560913561616e-05     
0.08133017601822833       0.0014985586581469262     5.155629435757699e-05     
0.08166975921663427       0.0015483478221766018     5.279008531137543e-05     
0.08200934241504025       0.0014516201817069932     5.067592367001047e-05     
0.0823489256134462        0.0014010062211115048     4.975204728075363e-05     
0.08268850881185218       0.0014303967794344415     5.0090752993627286e-05    
0.08302809201025813       0.0014362266170607513     4.9852779351678024e-05    
0.0833676752086641        0.001393806704724955      4.965704409097807e-05     
0.08370725840707006       0.0014741705760023464     5.0474830116605715e-05    
0.08404684160547603       0.001450656088222536      5.015136935000379e-05     
0.08438642480388199       0.001454003567265564      4.984137384266723e-05     
0.08472600800228795       0.0014315805114666525     4.967697144695271e-05     
0.08506559120069392       0.0013273293342638231     4.772721798522344e-05     
0.08540517439909988       0.0014718856785929052     4.980070849983482e-05     
0.08574475759750584       0.0015815220686851276     5.196508046327728e-05     
0.0860843407959118        0.0013945252015303184     4.8413975176284943e-05    
0.08642392399431777       0.0014100057799034064     4.88501899763098e-05      
0.08676350719272373       0.0013416905767538604     4.737003320012514e-05     
0.0871030903911297        0.0013089330526542943     4.66004358383558e-05      
0.08744267358953567       0.0012981344432964697     4.6551659712368496e-05    
0.08778225678794163       0.0013512947353042494     4.7334173419947495e-05    
0.0881218399863476        0.001254145389294662      4.5587010562194866e-05    
0.08846142318475356       0.0012503354250580107     4.508952224682406e-05     
0.08880100638315952       0.001280738439055514      4.5703641140893556e-05    
0.08914058958156548       0.0013029636965765895     4.630959843788557e-05     
0.08948017277997145       0.0012497024874431745     4.503767611334346e-05     
0.08981975597837741       0.0012415516782716956     4.501302322434055e-05     
0.09015933917678337       0.0012399506439425185     4.4317252147830884e-05    
0.09049892237518933       0.0012263102175832372     4.45474215425926e-05      
0.0908385055735953        0.0012396997949489898     4.4562890437540106e-05    
0.09117808877200127       0.001292270419122465      4.528295071156537e-05     
0.09151767197040722       0.001223402485172871      4.420352316253537e-05     
0.0918572551688132        0.0011938660229927813     4.325795959326283e-05     
0.09219683836721915       0.0012441623154040389     4.463024484131947e-05     
0.09253642156562512       0.0012214597169303756     4.364103189248166e-05     
0.09287600476403109       0.0011657481073916443     4.278327422663126e-05     
0.09321558796243705       0.001203991306915092      4.324049967895155e-05     
0.09355517116084301       0.0011859167171660951     4.2890085542205234e-05    
0.09389475435924897       0.0011725705689209702     4.28586724193076e-05      
0.09423433755765494       0.001223288875208802      4.3164656807563404e-05    
0.0945739207560609        0.0011424326590733602     4.189204601275242e-05     
0.09491350395446688       0.0011959277303520692     4.289850363993283e-05     
0.09525308715287283       0.0012111859725295858     4.286614752233689e-05     
0.0955926703512788        0.001147747094952137      4.201372536648329e-05     
0.09593225354968475       0.0011496415987091147     4.1357125550685046e-05    
0.09627183674809073       0.0010857996934343385     4.077135073888504e-05     
0.09661141994649668       0.0010821820052272495     4.0371866964871526e-05    
0.09695100314490265       0.001158386071476386      4.1503012668515256e-05    
0.0972905863433086        0.0011025351235230407     4.067040933350491e-05     
0.09763016954171458       0.0010801726551461777     4.000036636029761e-05     
0.09796975274012054       0.0010737865966542494     4.018172860209198e-05     
0.0983093359385265        0.0011336946353225174     4.075594014015075e-05     
0.09864891913693247       0.0010433120950954246     3.9097709028963493e-05    
0.09898850233533843       0.001029802777323167      3.904632590958869e-05     
0.09932808553374439       0.0010525066969966942     3.908939720070806e-05     
0.09966766873215036       0.0010246997746171168     3.8821785578457706e-05    
0.10000725193055632       0.0010134481365837362     3.8193021989464284e-05    
0.10034683512896228       0.0010864734576791935     3.982304812456472e-05     
0.10068641832736826       0.0011091981868257045     4.00210386112622e-05      
0.1010260015257742        0.0009869753061050568     3.766104184059944e-05     
0.10136558472418018       0.0010499220169783577     3.886431812513557e-05     
0.10170516792258615       0.0010165867947922135     3.7959503981256684e-05    
0.10204475112099211       0.0009777348927434355     3.751473553019572e-05     
0.10238433431939807       0.0009744025555409569     3.711497995038409e-05     
0.10272391751780403       0.0010567132349454719     3.8661085280274285e-05    
0.10306350071621          0.0009757709341794351     3.709259437111525e-05     
0.10340308391461596       0.0009763439145075171     3.694908244771407e-05     
0.10374266711302192       0.0010156010352663873     3.794181267486222e-05     
0.10408225031142788       0.0009989486121274426     3.704885020877447e-05     
0.10442183350983385       0.0009638026447124663     3.6739998806782624e-05    
0.10476141670823981       0.0009350021000566585     3.6028033091568644e-05    
0.10510099990664577       0.0010212292318407844     3.757536459470678e-05     
0.10544058310505175       0.0010090190877050892     3.735977360352752e-05     
0.1057801663034577        0.000906364468026527      3.512978355697422e-05     
0.10611974950186367       0.000890233935280354      3.514633053683043e-05     
0.10645933270026964       0.0009063382305182047     3.5111747636051534e-05    
0.1067989158986756        0.000932712181138049      3.563707932533296e-05     
0.10713849909708156       0.0008526042912931919     3.3969519897082565e-05    
0.10747808229548753       0.0009021419379613202     3.4785498265375275e-05    
0.1078176654938935        0.0009080343569837962     3.5296979838875085e-05    
0.10815724869229947       0.0009203469336383999     3.493535095074566e-05     
0.10849683189070543       0.0009254777174856934     3.5259237687790933e-05    
0.1088364150891114        0.0008713083570871251     3.4220448930631115e-05    
0.10917599828751737       0.0008945703351041138     3.443451504106282e-05     
0.10951558148592332       0.0008723465861893315     3.40713811325539e-05      
0.10985516468432928       0.0008792363137977391     3.393841127716678e-05     
0.11019474788273526       0.0008909842970107299     3.435731807396088e-05     
0.11053433108114122       0.0008893308514583296     3.432553966174332e-05     
0.11087391427954717       0.0008402503864848587     3.305736305515685e-05     
0.11121349747795313       0.000830427437185941      3.309633041256563e-05     
0.1115530806763591        0.0008292754817299289     3.262888136967769e-05     
0.11189266387476507       0.0008565949906837186     3.358928793414914e-05     
0.11223224707317102       0.0008284674273684681     3.2644353508817916e-05    
0.11257183027157701       0.0007863521465030997     3.185721852199739e-05     
0.11291141346998296       0.0009056487454975057     3.4204953836539476e-05    
0.11325099666838892       0.0007749458883781243     3.14005558733831e-05      
0.11359057986679488       0.0007618784599418903     3.1448465574905866e-05    
0.11393016306520086       0.0007586314696717396     3.095168720738067e-05     
0.11426974626360681       0.0007720131131708993     3.1363651306368285e-05    
0.11460932946201277       0.0008253805863719014     3.2360854989067285e-05    
0.11494891266041873       0.0008544127397662563     3.290968143719641e-05     
0.11528849585882471       0.0007935226071196829     3.161144981537415e-05     
0.11562807905723067       0.0007661864780529876     3.096828750420519e-05     
0.11596766225563662       0.0007769046413690874     3.122783735780292e-05     
0.11630724545404261       0.0007986431828904168     3.166182834975032e-05     
0.11664682865244856       0.0007242710342610068     3.0039864230275605e-05    
0.11698641185085452       0.0008502779424760666     3.257099930354408e-05     
0.11732599504926047       0.0007317048155169846     2.9931828840942262e-05    
0.11766557824766646       0.0007541899605744951     3.0661470450522726e-05    
0.11800516144607241       0.0007158639050658266     2.9559258128578675e-05    
0.11834474464447838       0.0007819724369129344     3.1106339191424625e-05    
0.11868432784288432       0.0007182999372120569     2.9609724381644102e-05    
0.11902391104129031       0.0007426840291393406     3.012871306101507e-05     
0.11936349423969626       0.0007390043166624574     3.0067743794524824e-05    
0.11970307743810223       0.0007558098681387759     3.017563959447205e-05     
0.1200426606365082        0.0007086876564030853     2.9371453640780997e-05    
0.12038224383491417       0.0007514517295662721     2.9994939489430697e-05    
0.12072182703332013       0.0007234329518117087     2.9635492638639402e-05    
0.12106141023172608       0.0007020784323511872     2.907068112829442e-05     
0.12140099343013205       0.0006882580175658557     2.8529300878571868e-05    
0.12174057662853802       0.0007091495915825607     2.9282452432044752e-05    
0.12208015982694398       0.0007596466822906631     2.9979193313632235e-05    
0.12241974302534993       0.0006939664151080769     2.8838294070018354e-05    
0.12275932622375592       0.0007106232090902394     2.898956400885334e-05     
0.12309890942216187       0.0006588212733347692     2.7767107793232592e-05    
0.12343849262056783       0.0007082571229343129     2.904370295559922e-05     
0.1237780758189738        0.0007301409315151333     2.9130555642025928e-05    
0.12411765901737977       0.0007032377817081459     2.88010442118488e-05      
0.12445724221578572       0.0006451694317460465     2.7347903321201586e-05    
0.12479682541419168       0.0006829033554131203     2.826443928704919e-05     
0.12513640861259767       0.0006648254578479228     2.78939861443776e-05      
0.1254759918110036        0.0006294469004439684     2.689739016207222e-05     
0.12581557500940957       0.0006703118681410856     2.7852147130916358e-05    
0.12615515820781553       0.0006275637150073215     2.6817301912774055e-05    
0.12649474140622152       0.0006761861182157257     2.798015080408477e-05     
0.12683432460462746       0.0006223857505511059     2.6689615859643442e-05    
0.12717390780303342       0.0006326625662341121     2.6806829626661712e-05    
0.1275134910014394        0.0006327657805281426     2.691718853338254e-05     
0.12785307419984537       0.0006628208323033025     2.746170547877504e-05     
0.12819265739825134       0.0006235548091443487     2.6591067584086812e-05    
0.12853224059665727       0.0006538696568922339     2.7138621510150904e-05    
0.12887182379506326       0.0006417260732418199     2.6913694445663115e-05    
0.12921140699346922       0.0006447731467364336     2.7000263677501588e-05    
0.1295509901918752        0.0006686934284609123     2.7313794046915874e-05    
0.12989057339028112       0.0006376043826710031     2.679377611847026e-05     
0.1302301565886871        0.0006169827328305092     2.614475792609764e-05     
0.13056973978709308       0.0005549310407284405     2.4949725099100132e-05    
0.13090932298549904       0.0005992247392072328     2.575537576117908e-05     
0.131248906183905         0.0005835276969033586     2.5442056832413126e-05    
0.13158848938231096       0.0006539383027095108     2.683414354270421e-05     
0.13192807258071693       0.000577282902472645      2.5212473608860285e-05    
0.1322676557791229        0.0005610404163164039     2.491143136646809e-05     
0.13260723897752885       0.0006251253368721101     2.610886128303035e-05     
0.13294682217593481       0.000546696850953929      2.445591345368795e-05     
0.13328640537434078       0.00056100641090099       2.4743876366863833e-05    
0.13362598857274674       0.0005983582094288138     2.5456630415594505e-05    
0.1339655717711527        0.0005541993239705353     2.4588521568993072e-05    
0.13430515496955867       0.0005716719517802487     2.4724135704027733e-05    
0.13464473816796463       0.0005560297729611433     2.4624311630664524e-05    
0.13498432136637062       0.0005669974870323979     2.4706558676829666e-05    
0.13532390456477658       0.0005809775370984467     2.4974481608875578e-05    
0.13566348776318252       0.0005805481901991152     2.5005252129440012e-05    
0.13600307096158848       0.0005244849320037159     2.3560981261346688e-05    
0.13634265415999447       0.0005751818061413416     2.490954937971624e-05     
0.13668223735840043       0.0005962380956788001     2.507689750933812e-05     
0.13702182055680637       0.0005574382003970723     2.4347646380139428e-05    
0.13736140375521233       0.0005525354984982279     2.41879790683108e-05      
0.13770098695361832       0.0005953567977038588     2.501463872742674e-05     
0.13804057015202428       0.0005578794510695618     2.4376844090225682e-05    
0.13838015335043022       0.0005282449143891336     2.343061660525116e-05     
0.1387197365488362        0.0005562717402994962     2.410945829735564e-05     
0.13905931974724217       0.000576946375715438      2.465894884788914e-05     
0.13939890294564813       0.0005537173221678839     2.3938453109015142e-05    
0.1397384861440541        0.0005664479651262571     2.4334015381791274e-05    
0.14007806934246006       0.0005624873253278732     2.40904978616867e-05      
0.14041765254086602       0.0004952341866293339     2.2722377048078967e-05    
0.14075723573927199       0.0005064652105080256     2.2842074489906474e-05    
0.14109681893767795       0.0005149995316728488     2.302501990208374e-05     
0.1414364021360839        0.0004925582851330549     2.250068028527049e-05     
0.14177598533448987       0.0004965698626575404     2.2557819441495417e-05    
0.14211556853289584       0.0005198146992605995     2.3115052642344397e-05    
0.14245515173130183       0.0005248869838271518     2.3074106016683215e-05    
0.14279473492970776       0.0005101716425397081     2.27742006789475e-05      
0.14313431812811372       0.0005306801500695619     2.322316400721552e-05     
0.1434739013265197        0.0005112494991941606     2.278125918587007e-05     
0.14381348452492568       0.0004962903595962277     2.244982404304154e-05     
0.1441530677233316        0.0005077478222252163     2.2563463821991486e-05    
0.14449265092173758       0.00048658634339644524    2.2258840245435776e-05    
0.14483223412014354       0.0005002515926535512     2.2480302678159302e-05    
0.14517181731854953       0.0005003615623635502     2.250397819107388e-05     
0.14551140051695546       0.0005532673324505721     2.3663925108856006e-05    
0.14585098371536143       0.0005435736694883603     2.3385634487653217e-05    
0.14619056691376742       0.0004812999763801038     2.2196891191235133e-05    
0.14653015011217338       0.0005222079834113541     2.2947355875716095e-05    
0.14686973331057934       0.0005019367904397229     2.2833401583723618e-05    
0.14720931650898528       0.0004858101267202311     2.2377601734675643e-05    
0.14754889970739127       0.0004515907720234068     2.1700077717807415e-05    
0.14788848290579723       0.0004793796916551662     2.2379538244106407e-05    
0.1482280661042032        0.0004696745945078064     2.201156387074346e-05     
0.14856764930260913       0.0004976255557668897     2.27884165587264e-05      
0.14890723250101512       0.0005116292305556488     2.3057877483370683e-05    
0.14924681569942108       0.00042333921759057344    2.094606636021223e-05     
0.14958639889782704       0.00046648407005556034    2.2072699352184018e-05    
0.149925982096233         0.0004447757077410477     2.1400186738842924e-05    
0.15026556529463897       0.0004405753041914171     2.161091694385456e-05     
0.15060514849304493       0.0005070128773756234     2.289682071339594e-05     
0.1509447316914509        0.0005057941673671694     2.3033490944492353e-05    
0.15128431488985686       0.0004659329139452314     2.2060165516671684e-05    
0.15162389808826282       0.0004551682643659592     2.178706240416366e-05     
0.15196348128666878       0.0004651717846888699     2.2202121054824034e-05    
0.15230306448507475       0.0004752259395326956     2.220207092804431e-05     
0.1526426476834807        0.0004621751581261676     2.208299013871756e-05     
0.15298223088188667       0.00046792470718903817    2.2120647811418934e-05    
0.15332181408029263       0.0004065238741583983     2.0630410152156488e-05    
0.15366139727869862       0.00045538976538342905    2.192918289718531e-05     
0.1540009804771046        0.0004332113313746228     2.127224123984481e-05     
0.15434056367551052       0.0004548787401251239     2.193427880254754e-05     
0.15468014687391649       0.000437815057658734      2.1393468434136166e-05    
0.15501973007232248       0.0004184771620201491     2.0985072095621248e-05    
0.15535931327072844       0.00043816929065299784    2.144813222859094e-05     
0.15569889646913437       0.0004307283527897002     2.1146228077137272e-05    
0.15603847966754036       0.0004493553129564416     2.186567809408681e-05     
0.15637806286594633       0.0004645936324358338     2.2025729626037546e-05    
0.1567176460643523        0.0004652199762176243     2.2130894199215534e-05    
0.15705722926275822       0.00046611599311485166    2.202788723877281e-05     
0.15739681246116421       0.00041596135175807315    2.0943054784594453e-05    
0.15773639565957018       0.00044474599445696884    2.1609222971830777e-05    
0.15807597885797614       0.0003915248666023698     2.0239739250595455e-05    
0.1584155620563821        0.0004519546887584421     2.2109234226262763e-05    
0.15875514525478807       0.0004236684785715492     2.132515064823443e-05     
0.15909472845319403       0.000457553228858883      2.243125965924077e-05     
0.1594343116516           0.00040950897311821334    2.1199428687077645e-05    
0.15977389485000595       0.00039374938448148055    2.0774923903475875e-05    
0.16011347804841192       0.00043266149728291486    2.2048035211886185e-05    
0.16045306124681788       0.0004478447263367815     2.2311094960006442e-05    
0.16079264444522384       0.00041507566119328463    2.164973505129722e-05     
0.16113222764362983       0.00042602423464682833    2.1828602944371926e-05    
0.16147181084203577       0.00040488262261027537    2.1337818682355316e-05    
0.16181139404044173       0.00042902729387693614    2.2174070572428877e-05    
0.1621509772388477        0.0004331696198931756     2.2089273228649393e-05    
0.16249056043725368       0.0004204271756932268     2.2059039069077106e-05    
0.16283014363565962       0.0004457916505396113     2.2489036903902105e-05    
0.16316972683406558       0.000435011079677296      2.2448237633606517e-05    
0.16350931003247157       0.00043187737264769796    2.2343356102364304e-05    
0.16384889323087753       0.00043426879241199087    2.2286104424771178e-05    
0.16418847642928347       0.00041207925239974806    2.194813171050351e-05     
0.16452805962768943       0.0004046641680248553     2.1637567529771733e-05    
0.16486764282609542       0.00037039895058827083    2.0835895565330786e-05    
0.16520722602450139       0.0004080182460408342     2.1764670942182106e-05    
0.16554680922290735       0.0004128351652338785     2.19734629484913e-05      
0.16588639242131328       0.00041353868248533644    2.2127094531354366e-05    
0.16622597561971927       0.0004246257277380758     2.231432272980525e-05     
0.16656555881812524       0.00040141406707799534    2.1838927396883216e-05    
0.1669051420165312        0.00040929038008829155    2.185094811039414e-05     
0.16724472521493716       0.00043911926190441273    2.2958477362119647e-05    
0.16758430841334312       0.00045356243939932787    2.319411265408977e-05     
0.1679238916117491        0.0004448542604716207     2.2875087011493856e-05    
0.16826347481015505       0.0003809240785754906     2.139774498613851e-05     
0.168603058008561         0.0003967259176007952     2.1692581820784407e-05    
0.16894264120696698       0.0004017645575296637     2.2084086929330973e-05    
0.16928222440537294       0.00042717337654800695    2.2539615214540904e-05    
0.1696218076037789        0.0004139465007301747     2.2276646522587096e-05    
0.16996139080218486       0.00043755191168612975    2.3036672947070736e-05    
0.17030097400059083       0.0003785351715914481     2.130273431651996e-05     
0.1706405571989968        0.0003734025357737088     2.1343798995316102e-05    
0.17098014039740278       0.0003732975593355902     2.104771375523952e-05     
0.17131972359580872       0.0003834128839146585     2.1657651541411483e-05    
0.17165930679421468       0.00033393899121716275    2.023978041049324e-05     
0.17199888999262064       0.0003790382967144906     2.1317446646829594e-05    
0.17233847319102663       0.0003868428419781807     2.185403477412699e-05     
0.17267805638943257       0.00041087459284404153    2.2189951453950305e-05    
0.17301763958783853       0.00036470378248547287    2.1297850085095113e-05    
0.1733572227862445        0.0004069373843784218     2.225238098999816e-05     
0.17369680598465048       0.00039001912635457813    2.177519612225063e-05     
0.17403638918305644       0.00034915402905192543    2.0781768241634445e-05    
0.17437597238146238       0.00034779014693773954    2.064675599424825e-05     
0.17471555557986837       0.0004131222366751683     2.2657723289145404e-05    
0.17505513877827433       0.00038456903641790436    2.1593794072528443e-05    
0.1753947219766803        0.0004288724637614263     2.2990687817592153e-05    
0.17573430517508623       0.00042026120959613207    2.291116688255338e-05     
0.17607388837349222       0.0003711065983610954     2.1376839278593146e-05    
0.17641347157189818       0.0003732481806878061     2.1581917479569096e-05    
0.17675305477030415       0.00043152215375342654    2.297823544136459e-05     
0.17709263796871008       0.0003752062716327252     2.1719242661206945e-05    
0.17743222116711607       0.0004400413175924851     2.3390666032749675e-05    
0.17777180436552203       0.000354870090764363      2.098132600640104e-05     
0.178111387563928         0.0003539598114931691     2.101744782031608e-05     
0.17845097076233396       0.0003500357868565603     2.084294696120979e-05     
0.17879055396073992       0.0004203051694184149     2.3052714804445715e-05    
0.17913013715914589       0.000357473335971637      2.100552961364674e-05     
0.17946972035755185       0.00035809609599906733    2.120423378595349e-05     
0.1798093035559578        0.00036489682739696986    2.1419716577521715e-05    
0.18014888675436377       0.0003631212537665271     2.136765686451951e-05     
0.18048846995276974       0.0003776084234952694     2.18051070400499e-05      
0.1808280531511757        0.00039245232183507205    2.209598418094022e-05     
0.1811676363495817        0.0003852288048770118     2.2206445722116978e-05    
0.18150721954798762       0.0003522933826159285     2.0993373022357805e-05    
0.1818468027463936        0.000399273160730929      2.2438119275216773e-05    
0.18218638594479958       0.0003683148991697838     2.1596285445616777e-05    
0.18252596914320554       0.00033544497358689693    2.0542812519067772e-05    
0.18286555234161148       0.0003820984887223627     2.213241834913701e-05     
0.18320513554001744       0.00039874010092614496    2.2268025576166565e-05    
0.18354471873842343       0.00041549768626837093    2.3063277292968497e-05    
0.1838843019368294        0.00035580266072818425    2.126685808134129e-05     
0.18422388513523533       0.00032923714337057894    2.0404824638910407e-05    
0.1845634683336413        0.00034914952874873917    2.1258528735495147e-05    
0.18490305153204728       0.0003887764173693631     2.205997996235674e-05     
0.18524263473045324       0.00035434826743940855    2.1380576364862658e-05    
0.1855822179288592        0.00039153305425651265    2.2252178266000343e-05    
0.18592180112726517       0.000375700226158037      2.1879960198144362e-05    
0.18626138432567113       0.0003644845206715522     2.1679407684738904e-05    
0.1866009675240771        0.0003749894063157386     2.1787578623415285e-05    
0.18694055072248306       0.0003480796094589698     2.1247180545400355e-05    
0.18728013392088902       0.0003641283516869036     2.152053624868136e-05     
0.18761971711929498       0.00038521739267771785    2.2261396580405392e-05    
0.18795930031770094       0.0003540047829471764     2.1335508909963017e-05    
0.1882988835161069        0.0003740232353699689     2.1862955276613345e-05    
0.18863846671451287       0.000362095378250517      2.1723636176269838e-05    
0.18897804991291883       0.00036609539621287396    2.154368760235541e-05     
0.1893176331113248        0.00036913431348181176    2.1881233241037588e-05    
0.1896572163097308        0.0003303777961322744     2.062657836176294e-05     
0.18999679950813672       0.00038546641009013963    2.237107210444644e-05     
0.19033638270654268       0.00037620910856819525    2.2047951298856496e-05    
0.19067596590494865       0.0003639235048494099     2.1576855181947102e-05    
0.19101554910335464       0.00033417474456074516    2.0915668316072756e-05    
0.19135513230176057       0.00037117805413284594    2.1848160529352064e-05    
0.19169471550016653       0.0003498467074915835     2.1390370367438666e-05    
0.1920342986985725        0.0003391060681419103     2.0883179686593356e-05    
0.1923738818969785        0.0003470063690996515     2.1185842019736794e-05    
0.19271346509538445       0.0003405568734294688     2.1130455771701354e-05    
0.19305304829379039       0.00035149932095363657    2.1256674553794686e-05    
0.19339263149219638       0.00039699947561067783    2.2847998545379795e-05    
0.19373221469060234       0.00036543244432242516    2.1689641418003487e-05    
0.1940717978890083        0.0004037938753558494     2.3093657364838444e-05    
0.19441138108741424       0.00034498526691534103    2.1216543069160315e-05    
0.19475096428582023       0.0003347907236070173     2.079054069752041e-05     
0.1950905474842262        0.0003604569751304438     2.1803625985015815e-05    
0.19543013068263215       0.00035088214509837803    2.1269312432755214e-05    
0.19576971388103812       0.00035831471192316835    2.1786970359062346e-05    
0.19610929707944408       0.00032532689220189474    2.0539345125278468e-05    
0.19644888027785004       0.00032284608414096487    2.0555057888460324e-05    
0.196788463476256         0.0003343960198512182     2.1016687100981475e-05    
0.19712804667466197       0.0003429663338076862     2.1119674008731245e-05    
0.19746762987306793       0.00034847699213681765    2.1528767695044607e-05    
0.1978072130714739        0.00031120920709611164    2.0074888402643214e-05    
0.19814679626987985       0.00036333601818682164    2.1929262955475323e-05    
0.19848637946828582       0.0003803618481035755     2.239890148700156e-05     
0.19882596266669178       0.0003541025156432056     2.1481181665423637e-05    
0.19916554586509774       0.0003213739117909445     2.062954231386991e-05     
0.19950512906350373       0.00032524447146150176    2.0622397203072693e-05    
0.1998447122619097        0.00036049644754379686    2.1919450812935777e-05    
0.20018429546031563       0.00037188264523918866    2.2046379921939542e-05    
0.2005238786587216        0.0003573232129825899     2.172136950480016e-05     
0.20086346185712758       0.00031518179137650956    2.0400453924862323e-05    
0.20120304505553355       0.00035064394599990253    2.1454777746988257e-05    
0.20154262825393948       0.0003459831938410269     2.1548971369743546e-05    
0.20188221145234544       0.0003538207538665196     2.1442784375949123e-05    
0.20222179465075144       0.0003247001907261242     2.0824212637501105e-05    
0.2025613778491574        0.00035201240471533835    2.163969450611005e-05     
0.20290096104756333       0.0003046055192438454     2.001686551516666e-05     
0.20324054424596932       0.00037581477246730467    2.2370651500164256e-05    
0.2035801274443753        0.0003511490060028957     2.1403598030869354e-05    
0.20391971064278125       0.0003691094893954214     2.2336370169156308e-05    
0.2042592938411872        0.00037896842065603033    2.2349266482921696e-05    
0.20459887703959317       0.00036038949529051256    2.1896490112527238e-05    
0.20493846023799914       0.0003352835735056472     2.115669182846004e-05     
0.2052780434364051        0.00032423793235148644    2.0703271303070468e-05    
0.20561762663481106       0.0003022047818969277     2.023180726879195e-05     
0.20595720983321703       0.0003427754591314725     2.1360493614560703e-05    
0.206296793031623         0.00032571609373836547    2.141107514605403e-05     
0.20663637623002895       0.00034346960129872723    2.210252878640479e-05     
0.20697595942843494       0.00036703357638302145    2.295129391173059e-05     
0.20731554262684088       0.0003481029756283537     2.2562616793902233e-05    
0.20765512582524684       0.0003635752550871019     2.3121448460699746e-05    
0.2079947090236528        0.0003327872006984195     2.2422189321144566e-05    
0.2083342922220588        0.00035558245637678756    2.3158125071831307e-05    
0.20867387542046473       0.0003698117826586589     2.3597324360835274e-05    
0.2090134586188707        0.00038792645779106214    2.4325031147203413e-05    
0.20935304181727665       0.00033892571507744307    2.278212481430528e-05     
0.20969262501568264       0.00031628216544144       2.217217765895848e-05     
0.21003220821408858       0.0003554419045922171     2.328473950919281e-05     
0.21037179141249454       0.0003620675161348934     2.3655103528493066e-05    
0.21071137461090053       0.00032832961076494283    2.2552031705416826e-05    
0.2110509578093065        0.0003726977976743745     2.4173747743800245e-05    
0.21139054100771246       0.00031696009206354215    2.2215838601865002e-05    
0.2117301242061184        0.00039086999318976086    2.4850373422623296e-05    
0.21206970740452438       0.0003104352142991121     2.2283831426697272e-05    
0.21240929060293035       0.0003279939990879518     2.2744400548065613e-05    
0.2127488738013363        0.0003517340167346984     2.3776548667852292e-05    
0.21308845699974224       0.0003221020397790168     2.2638880071214586e-05    
0.21342804019814823       0.0003362657537533177     2.3345640692733663e-05    
0.2137676233965542        0.0003209633445889858     2.3016584549811568e-05    
0.21410720659496016       0.0003771982965629622     2.4666912409582015e-05    
0.21444678979336612       0.0003295646635995495     2.343091945340144e-05     
0.21478637299177208       0.00033126137471525797    2.3164929923787575e-05    
0.21512595619017802       0.0003191306811288135     2.3179195685431813e-05    
0.215465539388584         0.00032599614958872455    2.326117183219401e-05     
0.21580512258698994       0.0003406843750038527     2.380154290910376e-05     
0.2161447057853959        0.0003240093593401016     2.3540332810541704e-05    
0.2164842889838019        0.0003485530997699961     2.4067753616734167e-05    
0.21682387218220783       0.00032158484384355604    2.3444982044056797e-05    
0.21716345538061382       0.0003290883824284564     2.3516998806878554e-05    
0.2175030385790198        0.0003464259781178107     2.4287907628669792e-05    
0.21784262177742572       0.0003205323232566138     2.35490736306491e-05      
0.2181822049758317        0.0003048738528731506     2.270648446244826e-05     
0.21852178817423765       0.0003302643719765295     2.398115811512665e-05     
0.2188613713726436        0.00035032002306812477    2.4409300922733315e-05    
0.2192009545710496        0.00031533987189369183    2.3524541446309595e-05    
0.21954053776945553       0.00034654190647458963    2.4471035539911797e-05    
0.21988012096786153       0.00034018773266288976    2.4323747502125967e-05    
0.2202197041662675        0.00030850851573214724    2.333714284912981e-05     
0.22055928736467342       0.00032842542059644333    2.389986297105955e-05     
0.2208988705630794        0.0003409183792684026     2.4910011672601068e-05    
0.2212384537614854        0.00034389618481392984    2.5060990555549637e-05    
0.22157803695989134       0.0003463294974633861     2.578512843885818e-05     
0.2219176201582973        0.0003448789011293783     2.588811751926637e-05     
0.22225720335670324       0.0003237234696317646     2.5291835661041554e-05    
0.22259678655510923       0.0002998791480283717     2.4614323563575952e-05    
0.22293636975351522       0.0003493625367235309     2.645919824698317e-05     
0.22327595295192113       0.0003053883304292038     2.5288193320715053e-05    
0.22361553615032712       0.00037937469778080534    2.809870151115857e-05     
0.2239551193487331        0.0003650513850672346     2.7767331169681566e-05    
0.22429470254713904       0.00033332292715793413    2.6947417108789854e-05    
0.224634285745545         0.00032211496596559687    2.6363414922274525e-05    
0.224973868943951         0.00033406485140749054    2.7400880624301425e-05    
0.22531345214235693       0.0003612664225843281     2.814574907696702e-05     
0.22565303534076292       0.0003208512660265997     2.6820431355071054e-05    
0.22599261853916885       0.00033688389493945073    2.7819344148678047e-05    
0.22633220173757482       0.00034644831621787883    2.8320259102000865e-05    
0.2266717849359808        0.0003361385964603993     2.816260863962024e-05     
0.22701136813438674       0.0003262268914201945     2.7588307711915092e-05    
0.22735095133279273       0.000319779379118996      2.7712229500689992e-05    
0.2276905345311987        0.0002846830248672216     2.6205793461488517e-05    
0.22803011772960463       0.0002823119839501136     2.6296955593029114e-05    
0.22836970092801062       0.00034317501345498976    2.9125900739926775e-05    
0.22870928412641658       0.0003312442334711355     2.873387425992926e-05     
0.22904886732482252       0.00038574882525487116    3.129818879708994e-05     
0.2293884505232285        0.0003803671086361956     3.1079315081370925e-05    
0.22972803372163444       0.00029745517198441615    2.764055381759543e-05     
0.23006761692004044       0.0002899159577117169     2.7418843793313816e-05    
0.2304072001184464        0.0003440358137304245     3.0204019347630907e-05    
0.23074678331685233       0.0003096950604273964     2.889923439354735e-05     
0.23108636651525832       0.00033672789750600863    2.9955509551921176e-05    
0.23142594971366431       0.0003189153018787836     2.944446908161302e-05     
0.23176553291207025       0.00031686559123161835    2.939429608043346e-05     
0.2321051161104762        0.0002930239015923234     2.8870555835962906e-05    
0.2324446993088822        0.00029124681520686994    2.8602997915294427e-05    
0.23278428250728814       0.00028613823123442475    2.827784638295979e-05     
0.2331238657056941        0.00028051179790499175    2.8565540818707487e-05    
0.23346344890410003       0.00032163677565006564    3.044102562189368e-05     
0.23380303210250603       0.0003138579813781656     3.0413254283184544e-05    
0.23414261530091202       0.00034616732103990514    3.2010447232229596e-05    
0.23448219849931795       0.0003124469276375667     3.0579577269634045e-05    
0.2348217816977239        0.0003674359182301447     3.36305436784388e-05      
0.2351613648961299        0.00030520530979068753    3.0358338677927852e-05    
0.23550094809453584       0.00037683544563493044    3.4155873285119946e-05    
0.23584053129294183       0.00030300299031817823    3.087640013072005e-05     
0.2361801144913478        0.00037118841866417413    3.433486523082246e-05     
0.23651969768975373       0.0003219609609969626     3.2147828014702866e-05    
0.23685928088815972       0.0002999409738775973     3.114038540442839e-05     
0.23719886408656565       0.0003072726215206677     3.1632628955342856e-05    
0.23753844728497162       0.000353455925878233      3.4174845739383625e-05    
0.2378780304833776        0.0002941076400600325     3.156243088470581e-05     
0.23821761368178354       0.0002789382447594297     3.054712016635e-05        
0.23855719688018953       0.00027308049820671106    3.060605418119375e-05     
0.2388967800785955        0.00030236215900541867    3.270734607884318e-05     
0.23923636327700143       0.0003180341742710412     3.311389821685824e-05     
0.23957594647540742       0.00025425743632767937    3.007216499904604e-05     
0.2399155296738134        0.0003410232289009003     3.473626973259987e-05     
0.24025511287221935       0.00032769338101904975    3.471612455731717e-05     
0.2405946960706253        0.0003719230878976966     3.695999717453546e-05     
0.24093427926903124       0.00030975238240114536    3.3891519069539654e-05    
0.24127386246743723       0.0002786405395042158     3.2367443391359825e-05    
0.2416134456658432        0.00034091922401188583    3.5752963435740006e-05    
0.24195302886424913       0.0003172568596629441     3.538485052592017e-05     
0.24229261206265512       0.0002774273489969549     3.2570565096640144e-05    
0.2426321952610611        0.0002949195776963809     3.3943950577312404e-05    
0.24297177845946705       0.0003352560896619021     3.689080147527619e-05     
0.243311361657873         0.0003056482781110514     3.4988810593288094e-05    
0.243650944856279         0.0002892230651852218     3.4604550097625535e-05    
0.24399052805468494       0.0002498531217100912     3.1847978669996865e-05    
0.24433011125309093       0.0003356706247065881     3.756912324763057e-05     
0.24466969445149686       0.0003193894934152584     3.714122855980837e-05     
0.24500927764990282       0.0003087447942463815     3.6143962622429545e-05    
0.24534886084830881       0.00025935851662163117    3.376776844780731e-05     
0.24568844404671475       0.0003153930500827242     3.7087123338300665e-05    
0.2460280272451207        0.00027937896448075795    3.566151899723761e-05     
0.2463676104435267        0.00034739681641215314    3.940349451754274e-05     
0.24670719364193264       0.00027321587665643017    3.575130111963377e-05     
0.24704677684033863       0.0002534573821113907     3.4614698345299575e-05    
0.2473863600387446        0.0003248106292192798     3.939274871254548e-05     
0.24772594323715053       0.00031590197878402453    3.973655466932738e-05     
0.24806552643555652       0.00029458324300053333    3.7988352695151773e-05    
0.24840510963396245       0.0003063315668960295     3.9684628904358266e-05    
0.24874469283236844       0.00024358259122055727    3.5523073099479335e-05    
0.2490842760307744        0.0002862398902789734     3.9151225668730995e-05    
0.24942385922918034       0.0003055350476079686     4.119033333599316e-05     
0.24976344242758633       0.0002964400605929339     3.9922437642994755e-05    
0.2501030256259923        0.00035294597358064       4.478025854467911e-05     
0.2504426088243982        0.0002949351983000653     4.0595690353192465e-05    
0.2507821920228042        0.00032886951310641795    4.3876651419970325e-05    
0.2511217752212102        0.00034479569124385475    4.5073425714228586e-05    
0.25146135841961614       0.0002817545126790386     4.065690682834384e-05     
0.25180094161802213       0.000276412385704488      4.174484001952333e-05     
0.25214052481642807       0.0003778298013733015     4.754829326719825e-05     
0.25248010801483406       0.0002427330088159403     3.934965493542407e-05     
0.25281969121324          0.00034858595445512816    4.677126641189807e-05     
0.25315927441164593       0.0003023810880515321     4.4609011150491554e-05    
0.2534988576100519        0.0003171904471784731     4.574437497613144e-05     
0.2538384408084579        0.0003115533168417283     4.5447404182480406e-05    
0.25417802400686385       0.00033790227312746786    4.897894368156521e-05     
0.25451760720526984       0.00031989964643461385    4.6511101144678816e-05    
0.2548571904036758        0.00035861584595349167    5.1203189771007344e-05    
0.25519677360208176       0.0002882139371785321     4.523572466896546e-05     
0.2555363568004877        0.0001781541093954813     3.6436325550652836e-05    
0.25587593999889363       0.00032477038536794144    5.0029711556988615e-05    
0.2562155231972996        0.00026307068543429587    4.4277152360821865e-05    
0.2565551063957056        0.00022752777931831023    4.280039566142809e-05     
0.25689468959411155       0.00020079753296280893    3.950874312400206e-05     
0.25723427279251754       0.0002941265745152212     4.940437502850609e-05     
0.25757385599092353       0.00036054448843860165    5.4284512798056924e-05    
0.25791343918932946       0.0002810540650271667     4.851852756886036e-05     
0.2582530223877354        0.000309267749082234      5.1952185217150956e-05    
0.2585926055861414        0.000273995039758311      4.746726740961876e-05     
0.2589321887845473        0.0002642473867445999     4.89803092936494e-05      
0.2592717719829533        0.00018689864415757286    4.019376360022107e-05     
0.25961135518135925       0.00029582740082283567    5.200014908165655e-05     
0.25995093837976524       0.00030970867564433135    5.366175728686681e-05     
0.26029052157817123       0.00033974881208912296    5.5633825019716715e-05    
0.26063010477657717       0.00025370981677572157    5.04229642865784e-05      
0.26096968797498316       0.00028024986012193016    5.087260573174739e-05     
0.2613092711733891        0.0002806332852373673     5.3031795016968254e-05    
0.261648854371795         0.00033405914894585407    5.775361067904388e-05     
0.261988437570201         0.0003497495050539657     5.964764616616251e-05     
0.262328020768607         0.00022872731108189806    4.9756295658215076e-05    
0.26266760396701294       0.00031571762328732423    5.646047627324941e-05     
0.26300718716541893       0.00019311047502804479    4.581095477013981e-05     
0.26334677036382487       0.00038923755235007536    6.439618505140374e-05     
0.26368635356223086       0.00024185368370613786    5.2112384456941406e-05    
0.2640259367606368        0.00025798221878618326    5.29507197832521e-05      
0.2643655199590427        0.0003184849284383676     5.980205243236167e-05     
0.2647051031574487        0.00026431589393462033    5.5526628420699765e-05    
0.2650446863558547        0.0003089610992498675     5.794813218016186e-05     
0.26538426955426064       0.0002877018177376217     5.85664837394049e-05      
0.26572385275266663       0.00031832485023025354    5.978897369416734e-05     
0.2660634359510726        0.00033188733241482803    6.332412777683281e-05     
0.26640301914947856       0.00026218205004305246    5.603361953860742e-05     
0.2667426023478845        0.000298627164497828      5.927966031688272e-05     
0.26708218554629043       0.00023385367294256583    5.4007089379803844e-05    
0.2674217687446964        0.00022145625185826534    5.116092272758021e-05     
0.2677613519431024        0.00027747523080623866    5.966045912349598e-05     
0.26810093514150835       0.0003671861898988334     6.721266645205096e-05     
0.26844051833991434       0.00025725162635346585    5.744611937279353e-05     
0.2687801015383203        0.00042198350857764605    7.53834636844773e-05      
0.26911968473672626       0.0003222445570291229     6.282415138597718e-05     
0.26945926793513225       0.00028041655075179353    6.145219963242693e-05     
0.2697988511335382        0.00020035172838426415    5.0818771679908355e-05    
0.2701384343319441        0.0001879132297645098     5.068587588439586e-05     
0.2704780175303501        0.0002720440594316384     6.083276780766157e-05     
0.27081760072875605       0.0004585175580069832     7.897680023825898e-05     
0.27115718392716204       0.00035745015298317353    7.291614396009484e-05     
0.27149676712556803       0.0003499005288551358     6.797522208138479e-05     
0.27183635032397396       0.0003049157413074553     6.697920262465048e-05     
0.27217593352237995       0.00031193048613696367    6.649283165756817e-05     
0.2725155167207859        0.00022175879012864907    5.7434248082654916e-05    
0.2728550999191918        0.00037359751549486005    7.53809854689454e-05      
0.2731946831175978        0.00035379771896106016    7.156985901608937e-05     
0.2735342663160038        0.00020549720994841641    5.737685101114121e-05     
0.27387384951440974       0.00026072501226345057    6.16049556706087e-05      
0.27421343271281573       0.0002870534149725727     6.821935030021026e-05     
0.27455301591122167       0.0002245315897307665     5.877200872839213e-05     
0.27489259910962766       0.00030530548683200485    7.035595634490636e-05     
0.27523218230803365       0.0003407877652933248     7.715632205206631e-05     
0.2755717655064395        0.00019888252771098832    5.5158281006032736e-05    
0.2759113487048455        0.0004381645853557671     8.777302267962427e-05     
0.2762509319032515        0.0002603128745184735     6.496748738957206e-05     
0.27659051510165744       0.00029507076975106403    7.179718920139432e-05     
0.27693009830006343       0.00027049291919525593    6.852192874640306e-05     
0.2772696814984694        0.000275587100382266      6.938749389449471e-05     
0.27760926469687536       0.0002756567009964933     7.381509895954515e-05     
0.27794884789528135       0.00030186114118794133    7.08165442429435e-05      
0.2782884310936873        0.00021911420518943393    6.533660971407678e-05     
0.2786280142920932        0.00024764882156164033    6.708994777197864e-05     
0.2789675974904992        0.00029879600199977745    7.629852743212175e-05     
0.27930718068890514       0.0003658442595445191     8.504087652539836e-05     
0.27964676388731113       0.0003029912515265541     7.628674247624228e-05     
0.2799863470857171        0.00022875379692071908    6.984407797921528e-05     
0.28032593028412306       0.0003404851235483123     8.030306593774464e-05     
0.28066551348252905       0.0002623907329653934     7.570390022779775e-05     
0.281005096680935         0.0002987569338624502     7.799949691182665e-05     
0.2813446798793409        0.0003797917017730627     9.071520954427103e-05     
0.2816842630777469        0.000315886777388619      8.819324864840115e-05     
0.28202384627615285       0.00035378554283298355    8.363334836032787e-05     
0.28236342947455884       0.0003138334884317783     8.831001489779005e-05     
0.2827030126729648        0.0002845579560888478     7.75992922715308e-05      
0.28304259587137076       0.000220970889022797      7.376534624292909e-05     
0.28338217906977675       0.00024457490233533883    7.55721842469539e-05      
0.28372176226818274       0.00039998173549907087    9.791960993646875e-05     
0.2840613454665887        0.00025443132441783846    8.562761137095173e-05     
0.2844009286649946        0.00044994295390272503    0.00010078231419508893    
0.2847405118634006        0.00027220588770971143    8.764219778539807e-05     
0.28508009506180654       0.00022203082947182113    7.394592652910272e-05     
0.28541967826021253       0.00042519180952920935    0.00011011295286271444    
0.28575926145861846       0.00036382938639535563    9.92797126609318e-05      
0.28609884465702445       0.00036229217815516765    0.00010111352731931466    
0.28643842785543044       0.00031846920586140165    0.00010074961513721115    
0.2867780110538364        0.00015219062240500405    6.389343384022533e-05     
0.2871175942522423        0.00028985572161897285    9.726996776388833e-05     
0.2874571774506483        0.00034496521860222695    0.00010024828118707106    
0.28779676064905424       0.00015376455997882085    7.171668528485805e-05     
0.28813634384746023       0.00026558248300447273    9.42530920747342e-05      
0.2884759270458662        0.0002474590462657462     8.934170385240355e-05     
0.28881551024427216       0.00034321842649684506    0.00011444640162137817    
0.28915509344267815       8.72486660935389e-05      5.273753805877127e-05     
0.2894946766410841        0.0003104590023836737     0.00010962433981511547    
0.28983425983949          0.0003165136397728169     0.00010693585695634427    
0.290173843037896         0.00029659857637264196    0.00010792489462391818    
0.29051342623630194       0.0001689356891011936     8.734748607381732e-05     
0.29085300943470793       0.0005334658802430389     0.0001397676554819933     
0.2911925926331139        0.00016811149736345267    8.787107041878574e-05     
0.29153217583151986       0.0002878732153985873     0.0001095521895635236     
0.29187175902992585       0.00023720602252373467    0.00010619557746329387    
0.29221134222833184       0.00025771624755876636    0.00011069253997479481    
0.2925509254267378        8.664360121818121e-05     6.418294138773024e-05     
0.2928905086251437        0.0002491069086183402     0.00011619851254240805    
0.29323009182354964       0.0002975808674875894     0.00012220873643133644    
0.29356967502195563       0.00038830926742871067    0.00014963752036226068    
0.2939092582203616        0.000285345380490013      0.00012966147348089115    
0.29424884141876756       0.00032553285026251807    0.00013849268256612416    
0.29458842461717355       6.16153967679774e-05      6.461403743021022e-05     
0.29492800781557954       0.00029630590057037957    0.00013666336448969632    
0.2952675910139855        0.0002851638729871207     0.00014261843475965987    
0.2956071742123914        0.00035804244962757707    0.000164187531605698      
0.2959467574107974        0.0                       6.148448959154303e-05     
0.29628634060920334       0.00031885371289943183    0.00017263497474643468    
0.2966259238076093        0.0003893952279103769     0.00017884399607331417    
0.29696550700601526       0.00010543585058750005    0.0001048449373696633     
0.29730509020442125       0.00044666488075027994    0.0002117644198241384     
0.29764467340282724       0.00011001571944590426    0.00011147300329997062    
0.2979842566012332        0.0004378819356978342     0.0002377501415880193     
0.29832383979963917       0.0003553374026497418     0.00021946299709710353    
0.2986634229980451        0.0                       0.00012298692307457555    
0.29900300619645104       0.00044520324677830095    0.00029361538894782837    
0.29934258939485703       0.00045015737690324626    0.00027617855966079945    
0.299682172593263         0.0                       0.00022138862008902954    
0.30002175579166895       0.0002384013112112807     0.00025423191276872383    
0.30036133899007494       0.0                       0.0002767458490386391     
0.3007009221884809        0.0                       0.0005535012812358005     
0.30104050538688687       0.00036159987580470235    0.0004428090763157266     
0.3013800885852928        0.0                       0.0022140914551564174     
