################################################################################
# EDF_DataBlockID                   0.Image.Psd
# EDF_BinarySize                    4637784
# EDF_HeaderSize                    3072
# ByteOrder                         LowByteFirst
# DataType                          FloatValue
# Dim_1                             1038
# Dim_2                             1117
# Image                             0
# HeaderID                          EH:000000:000000:000000
# Size                              4637784
# BIO_SYSTEM_CONF_TXT               WAXSRES
# Center_1                          606.875
# Center_2                          651.034
# Comment                           gamma_3X - gamma_3X_SAXS_HI_1200s
# DDummy                            0.6
# Date                              2023-10-11T03:46:44
# Delta                             0
# Dummy                             -1.5
# ExposureTime                      1200
# Force                             9.91088
# Gamma                             0
# Intensity1                        4.47355e-08
# JawsDistance                      4.54563
# JawsVelocity                      0.358589
# PSize_1                           7.5e-05
# PSize_2                           7.5e-05
# Pressure                          0.0773306
# SampleDistance                    0.899998
# SampleEnvKind                     saxs
# SampleEnvPN                       Solids
# SampleEnvSN                       1012
# Strain                            0
# Stress                            0
# Thickness                         0
# Wavelength                        1.541891e-10
# Wavelength                        1.54189e-10
# anaB                              0
# anaB_dial                         -0.0012015
# anaPark                           -175.125
# anaPark_dial                      175.169
# anaXi                             0
# anaXi_dial                        0
# anaZ                              -9.13123e-08
# anaZ_dial                         6.2299
# aux                               0
# aux_dial                          -0.000125
# b2c                               0
# b2c_dial                          0
# beamx                             602.698
# beamx_dial                        602.698
# beamz                             651.159
# beamz_dial                        651.159
# bioZ                              -2.90461e-08
# bioZ_dial                         -0.546695
# det0x                             0
# det0x_dial                        3.98621
# det0xvd                           0
# det0xvd_dial                      0
# det0y                             899.998
# det0y_dial                        43.5135
# det0z                             0
# det0z_dial                        7.30833
# det0zvd                           0
# det0zvd_dial                      0
# distana                           93.4
# distana_dial                      93.4
# mag                               2.6365
# mag_dial                          2.6365
# mono1B                            1.00136e-08
# mono1B_dial                       -0.277
# mono2B                            1.75476e-07
# mono2B_dial                       -4.366
# mono2X                            -1
# mono2X_dial                       3.96031
# mono2Xi                           0
# mono2Xi_dial                      0
# monoZ                             -11
# monoZ_dial                        -10.6609
# om                                1.30741e-08
# om_dial                           -0.939898
# phi                               -4.9295e-08
# phi_dial                          -7.01716
# qana                              0
# qana_dial                         0
# ry                                0
# ry_dial                           0.00149998
# s1bot                             1
# s1bot_dial                        -1.57906
# s1hl                              0.1
# s1hl_dial                         -0.02125
# s1hr                              1.5
# s1hr_dial                         1.86625
# s1top                             0.6
# s1top_dial                        0.783906
# s2bot                             0.95
# s2bot_dial                        -1.84531
# s2hl                              0.35
# s2hl_dial                         -1.115
# s2hr                              0.55
# s2hr_dial                         -0.265313
# s2top                             -0.05
# s2top_dial                        -1.43281
# ttdeg                             0
# ttdeg_dial                        0
# wind                              72.0045
# wind_dial                         72.0233
# x                                 -25.1
# x_dial                            -24.3903
# z                                 3.05176e-07
# z_dial                            19.1091
# CountCutoff                       15302352
# DetectorModel                     Dectris EIGER2 Si 1M, S/N E-02-0357
# ThresholdSetting                  4023.88989258
# Saturation                        0
# FlatField                         Corrected
# BackgroundReductionExtra          0.02
# Detector                          0
# Monitor                           0
# Pil_Roi0                          5.36826e+10
# SumForIntensity1                  5.36826e+10
# det                               0
# mon                               0
# pilai0                            5.36826e+10
# pilai1                            0
# pilct0                            5.36827e+10
# pilct1                            0
# pilroi0                           5.36826e+10
# pilroi1                           0
# sec                               0.099
# title                             10_10_2023_0_00043.edf
# usaxs0                            0
# Operation                         Azimuthal average I(q)
# Error_model                       ErrorModel.poisson
# Geometrical_correction            True
# Transmission_correction           True
# Thickness_correction              False
# Psi                               0.0
# Omega                             0.0
# TransmittedFlux_init_value        4.47355e+07
# TransmittedFlux                   44735303.46082443
# MaskInvalidPixels                 True
# DetectorEdge                      3
# PsiMin                            80.0
# PsiMax                            100.0
################################################################################
    q(A⁻¹)                Intensity(a.u.)            Sigma_I(a.u.)            
       0.000849                593987.807                28.2252791           
       0.001189                572416.957                27.7080358           
       0.001528                527128.316                18.8015082           
       0.001868                448040.986                17.3337852           
       0.002207                363271.252                15.6081015           
       0.002547                283922.623                13.7985863           
       0.002886                 215679.91                9.81960121           
       0.003226                153062.894                 7.1639845           
       0.003566                103433.028                 5.8891056           
       0.003905                66167.7997                 4.7102409           
       0.004245                41412.6153                3.72637155           
       0.004584                23617.0099                2.65311504           
       0.004924                15537.9056                2.04155546           
       0.005264                10848.0676                1.55722219           
       0.005603                7810.70316                1.32135505           
       0.005943                5434.98545                1.10223382           
       0.006282                3604.70797               0.897655435           
       0.006622                2185.77131               0.647148094           
       0.006961                1254.59265               0.490289706           
       0.007301                645.084621               0.328862137           
       0.007641                264.876525               0.210730484           
       0.007980                55.5409474              0.0964966809           
       0.008320                7.35732094              0.0351209046           
       0.008659                1.68938382              0.0158669649           
       0.008999               0.734299481             0.00992402122           
       0.009339               0.431029653             0.00760334628           
       0.009678                0.26724368             0.00598694191           
       0.010018               0.143131271             0.00438145864           
       0.010357              0.0687664166             0.00303696499           
       0.010697              0.0375140531             0.00209170196           
       0.011036              0.0381158507              0.0021084134           
       0.011376              0.0311070549              0.0018646222           
       0.011716              0.0292109852             0.00177039542           
       0.012055              0.0244426221             0.00165285828           
       0.012395              0.0218247326             0.00156183931           
       0.012734              0.0214229021             0.00148668904           
       0.013074              0.0197519783             0.00140084878           
       0.013414              0.0148800558             0.00119396412           
       0.013753              0.0171268178             0.00128093625           
       0.014093              0.0147910718             0.00116968576           
       0.014432              0.0141078688             0.00116257308           
       0.014772              0.0117807386             0.00100965773           
       0.015111              0.0130504833              0.0010459412           
       0.015451               0.010521942            0.000939165491           
       0.015791             0.00925973298            0.000881035916           
       0.016130             0.00992296009            0.000898117663           
       0.016470             0.00830360984             0.00082157327           
       0.016809              0.0075850715            0.000773589209           
       0.017149             0.00820711445            0.000782013477           
       0.017489              0.0079070704            0.000757142137           
       0.017828             0.00565826623            0.000649323547           
       0.018168             0.00634637649            0.000687674022           
       0.018507             0.00563810651            0.000622738234           
       0.018847             0.00544418607            0.000619934961           
       0.019186             0.00577446852            0.000622297004           
       0.019526             0.00470512975            0.000561730183           
       0.019866             0.00564585686            0.000607778343           
       0.020205             0.00457645671            0.000553996691           
       0.020545             0.00453625967            0.000538266143           
       0.020884             0.00402833887            0.000495575342           
       0.021224             0.00482672325            0.000536405538           
       0.021564             0.00304817139             0.00043108901           
       0.021903             0.00261930796            0.000399614124           
       0.022243             0.00403189542            0.000484897445           
       0.022582              0.0036210552            0.000459529228           
       0.022922             0.00335898289            0.000433269443           
       0.023261             0.00290434257            0.000402882489           
       0.023601             0.00345355978            0.000434821343           
       0.023941             0.00296597662            0.000407135494           
       0.024280             0.00284993766            0.000391028778           
       0.024620             0.00278812445            0.000386765246           
       0.024959             0.00293951451            0.000389415137           
       0.025299             0.00279157715             0.00037948986           
       0.025639             0.00238790464            0.000347654556           
       0.025978             0.00213128213            0.000331586252           
       0.026318             0.00218451389            0.000329426544           
       0.026657             0.00191681442            0.000303022194           
       0.026997             0.00197328201            0.000304744536           
       0.027336             0.00158449177            0.000275505403           
       0.027676             0.00229861103            0.000331831977           
       0.028016             0.00226960058            0.000323996709           
       0.028355             0.00222302923            0.000320655613           
       0.028695             0.00156736279            0.000264721844           
       0.029034             0.00170566305            0.000276154432           
       0.029374             0.00162743973             0.00026752782           
       0.029714             0.00179225501            0.000283077977           
       0.030053             0.00138824617            0.000245086621           
       0.030393             0.00168663346            0.000270145115           
       0.030732             0.00113485863            0.000218104141           
       0.031072              0.0011687927            0.000221341162           
       0.031411             0.00210534733            0.000297067904           
       0.031751             0.00125229552            0.000229111921           
       0.032091             0.00151401736            0.000246213985           
       0.032430             0.00148531112            0.000242069118           
       0.032770             0.00132231623            0.000228401404           
       0.033109             0.00162489482            0.000253188612           
       0.033449             0.00134066604            0.000229981173           
       0.033789              0.0014311311            0.000235885937           
       0.034128             0.00168426723            0.000254064406           
       0.034468             0.00151069383            0.000238916892           
       0.034807             0.00144078308            0.000231697481           
       0.035147             0.00135711375            0.000223324013           
       0.035486             0.00152758264            0.000238575207           
       0.035826             0.00110109534            0.000201159574           
       0.036166             0.00103905549            0.000192787509           
       0.036505             0.00108733331            0.000198543707           
       0.036845             0.00116669396             0.00020293773           
       0.037184             0.00109524416            0.000196625702           
       0.037524             0.00135379506             0.00021718169           
       0.037864            0.000952028127            0.000183320362           
       0.038203             0.00113271127            0.000197381034           
       0.038543             0.00102542221            0.000184290297           
       0.038882             0.00132395503            0.000209405578           
       0.039222            0.000891128376            0.000171799656           
       0.039561            0.000940374726            0.000177582706           
       0.039901             0.00110631142            0.000192614696           
       0.040241             0.00100252513            0.000180013399           
       0.040580             0.00163080088            0.000228222053           
       0.040920            0.000936153687            0.000170891979           
       0.041259             0.00140832364            0.000212084765           
       0.041599             0.00119770734             0.00019443047           
       0.041939             0.00112225264            0.000187109173           
       0.042278             0.00100028345            0.000176649276           
       0.042618             0.00119632172            0.000188843853           
       0.042957            0.000578335039            0.000132785026           
       0.043297             0.00128267675             0.00019775093           
       0.043636             0.00108656776            0.000180981942           
       0.043976             0.00134269573            0.000200064471           
       0.044316            0.000583847639            0.000130484479           
       0.044655             0.00075057426            0.000147149556           
       0.044995             0.00096656844             0.00016789068           
       0.045334             0.00101864255            0.000172354167           
       0.045674            0.000584993055            0.000130613131           
       0.046014             0.00082016672             0.00015219321           
       0.046353            0.000812271474            0.000150668203           
       0.046693            0.000858783691            0.000154121516           
       0.047032              0.0009995326            0.000166272523           
       0.047372             0.00131174259            0.000191468439           
       0.047711             0.00101687481            0.000166851394           
       0.048051            0.000824786216            0.000148758048           
       0.048391            0.000985570386            0.000161805604           
       0.048730            0.000834238558            0.000149608477           
       0.049070             0.00086346134            0.000152206489           
       0.049409            0.000921288267            0.000156440595           
       0.049749            0.000680847218            0.000133825165           
       0.050089            0.000763321398            0.000139660237           
       0.050428            0.000891805011            0.000150957496           
       0.050768            0.000876197154             0.00015034857           
       0.051107            0.000802231967            0.000143862976           
       0.051447            0.000850845943            0.000148158033           
       0.051786            0.000828521848            0.000144137569           
       0.052126             0.00116037137            0.000169786994           
       0.052466             0.00086253814            0.000146384726           
       0.052805            0.000607028838            0.000122239229           
       0.053145            0.000929202065            0.000151936843           
       0.053484            0.000773380747            0.000137347558           
       0.053824             0.00075323081             0.00013554672           
       0.054164            0.000830993954            0.000140469407           
       0.054503            0.000735088224            0.000132115349           
       0.054843            0.000858486458            0.000143410585           
       0.055182            0.000780436446            0.000136129979           
       0.055522            0.000470012892            0.000105178611           
       0.055861             0.00106165266            0.000156706837           
       0.056201            0.000833081122            0.000138816506           
       0.056541            0.000697914203            0.000125445403           
       0.056880            0.000900911726            0.000144357749           
       0.057220            0.000737289377            0.000130592647           
       0.057559            0.000778680318            0.000133633752           
       0.057899            0.000736948091            0.000128368389           
       0.058239            0.000755845333            0.000130004049           
       0.058578            0.000847405389            0.000137653354           
       0.058918            0.000832600058            0.000135322775           
       0.059257            0.000670130222             0.00012241154           
       0.059597            0.000959710895            0.000144694434           
       0.059936              0.0007915767            0.000131947617           
       0.060276            0.000707554777            0.000123242582           
       0.060616            0.000987565121            0.000145601025           
       0.060955            0.000864821046            0.000136801122           
       0.061295            0.000728478647            0.000125052275           
       0.061634            0.000574543345            0.000110615282           
       0.061974            0.000705455179              0.0001211378           
       0.062314            0.000963716507            0.000142138037           
       0.062653            0.000734650409             0.00012410145           
       0.062993            0.000818779456            0.000129506075           
       0.063332             0.00088176488            0.000135961072           
       0.063672            0.000834718736            0.000130264815           
       0.064011             0.00098993567            0.000141326151           
       0.064351            0.000649560894            0.000114912875           
       0.064691            0.000786718113            0.000125988334           
       0.065030            0.000966846155            0.000139669093           
       0.065370            0.000934472751            0.000136290238           
       0.065709            0.000734387812            0.000120821726           
       0.066049            0.000726331166            0.000119277114           
       0.066389            0.000724288357            0.000119109505           
       0.066728            0.000689929634            0.000116676873           
       0.067068            0.000843575831            0.000128544798           
       0.067407            0.000698400611            0.000116537684           
       0.067747            0.000646709409             0.00011094291           
       0.068086            0.000780523146            0.000121881773           
       0.068426            0.000536226714            0.000101383327           
       0.068766            0.000875474717            0.000129083132           
       0.069105            0.000671856794            0.000113483443           
       0.069445            0.000844683868            0.000125903605           
       0.069784            0.000912357477            0.000130395104           
       0.070124            0.000776094331             0.00011984894           
       0.070464            0.000685012611            0.000112597089           
       0.070803            0.000819665528            0.000123594718           
       0.071143            0.000784885112            0.000119703857           
       0.071482            0.000839210118            0.000123777414           
       0.071822            0.000693342945            0.000111007228           
       0.072161            0.000889133018            0.000126975274           
       0.072501             0.00052651087             9.7710316e-05           
       0.072841            0.000792374016            0.000119464962           
       0.073180            0.000645443774            0.000107461556           
       0.073520            0.000738107684             0.00011378491           
       0.073859            0.000695973743            0.000110130491           
       0.074199            0.000772951813            0.000116440214           
       0.074539            0.000652478302            0.000107333362           
       0.074878            0.000878372284             0.00012412752           
       0.075218            0.000778169443            0.000116077147           
       0.075557            0.000534120423            9.58591971e-05           
       0.075897            0.000598562514            0.000101153853           
       0.076236            0.000530307224            9.52121694e-05           
       0.076576             0.00111805335            0.000138691069           
       0.076916            0.000526245379            9.45466527e-05           
       0.077255            0.000837901166            0.000118554485           
       0.077595            0.000905281976            0.000123229465           
       0.077934            0.000654000353            0.000104740019           
       0.078274             0.00063801051            0.000103451933           
       0.078614            0.000483185642            8.97490375e-05           
       0.078953            0.000663831218            0.000104871652           
       0.079293            0.000611314459            0.000100328973           
       0.079632            0.000663885588            0.000103605179           
       0.079972            0.000836591945            0.000117010509           
       0.080311            0.000661422997            0.000103103269           
       0.080651            0.000679820378            0.000104841965           
       0.080991            0.000589268427            9.82036993e-05           
       0.081330            0.000611199224            9.91122693e-05           
       0.081670            0.000764056848            0.000110157691           
       0.082009            0.000603938545             9.7937599e-05           
       0.082349            0.000695579673            0.000104796435           
       0.082689            0.000683413602            0.000104183055           
       0.083028            0.000609388838            9.75175451e-05           
       0.083368             0.00087948773             0.00011749454           
       0.083707            0.000592943318            9.61931886e-05           
       0.084047            0.000669018614            0.000101882389           
       0.084386             0.00073125057            0.000106515853           
       0.084726            0.000916487569            0.000119246477           
       0.085066            0.000521840016            8.94656068e-05           
       0.085405            0.000580750898            9.41122568e-05           
       0.085745            0.000665830026            0.000100485586           
       0.086084            0.000667398211            0.000100604115           
       0.086424            0.000759839468             0.00010734586           
       0.086764            0.000648895212            9.89212166e-05           
       0.087103            0.000619055523            9.66202422e-05           
       0.087443            0.000532092513             8.8587483e-05           
       0.087782             0.00062695646            9.66936799e-05           
       0.088122            0.000658666306             9.9109044e-05           
       0.088461            0.000675719114            9.95578598e-05           
       0.088801            0.000672612319            9.90587131e-05           
       0.089141            0.000650320835            9.79373865e-05           
       0.089480            0.000877251466            0.000113129194           
       0.089820            0.000882084193            0.000112829144           
       0.090159            0.000613387815            9.45981421e-05           
       0.090499            0.000666223632            9.80570208e-05           
       0.090839            0.000754596682            0.000103526829           
       0.091178            0.000672520861            9.79944633e-05           
       0.091518            0.000668254809            9.74246695e-05           
       0.091857            0.000811965145            0.000107390981           
       0.092197            0.000540357554            8.76074331e-05           
       0.092536            0.000552799129            8.83770198e-05           
       0.092876             0.00084934282            0.000109546479           
       0.093216            0.000598480596            9.12391716e-05           
       0.093555            0.000741560726             0.00010182606           
       0.093895            0.000762377025            0.000102712068           
       0.094234            0.000756090604            0.000102819384           
       0.094574            0.000662403685            9.54957433e-05           
       0.094914            0.000606042718            9.13430532e-05           
       0.095253            0.000724325808            9.96050645e-05           
       0.095593            0.000651566231            9.39919016e-05           
       0.095932            0.000699897134            9.79115881e-05           
       0.096272            0.000736512613            0.000100185133           
       0.096611            0.000619066338            9.11593432e-05           
       0.096951            0.000616777204            9.07642899e-05           
       0.097291            0.000656151997            9.36169263e-05           
       0.097630            0.000785410317            0.000102170165           
       0.097970            0.000669373965             9.4556016e-05           
       0.098309            0.000668766654            9.45133962e-05           
       0.098649            0.000565947937            8.63035317e-05           
       0.098989            0.000684582941            9.49193345e-05           
       0.099328            0.000705178661            9.58680785e-05           
       0.099668            0.000836414428            0.000104408662           
       0.100007            0.000700062173            9.59873353e-05           
       0.100347            0.000610455868             8.8982379e-05           
       0.100686            0.000584130499            8.70428607e-05           
       0.101026            0.000775751872             0.00010006783           
       0.101366            0.000617602519            8.90732836e-05           
       0.101705            0.000684894533            9.40259235e-05           
       0.102045            0.000704566525             9.4911784e-05           
       0.102384            0.000631626202             9.0079729e-05           
       0.102724            0.000786202676            9.97862807e-05           
       0.103064            0.000605391574            8.73577136e-05           
       0.103403            0.000680906865            9.26463477e-05           
       0.103743            0.000652419708            9.04757683e-05           
       0.104082            0.000539766686            8.22949474e-05           
       0.104422            0.000615531084            8.78813101e-05           
       0.104761            0.000575905583            8.48078824e-05           
       0.105101            0.000681891509            9.18563048e-05           
       0.105441             0.00061713629            8.71856273e-05           
       0.105780            0.000557086356            8.30262464e-05           
       0.106120            0.000521039706             8.0295455e-05           
       0.106459            0.000632359337            8.76541873e-05           
       0.106799            0.000579053383            8.44538231e-05           
       0.107138            0.000581561846            8.38708694e-05           
       0.107478            0.000594317116            8.47859216e-05           
       0.107818            0.000669593992            9.01990964e-05           
       0.108157            0.000666945324            8.98178425e-05           
       0.108497              0.0007270915            9.37807011e-05           
       0.108836            0.000606850395            8.49148158e-05           
       0.109176            0.000551665807            8.13228044e-05           
       0.109516            0.000582712414             8.3209458e-05           
       0.109855            0.000620234652             8.6037542e-05           
       0.110195            0.000616448652            8.53961392e-05           
       0.110534            0.000582888567            8.32228779e-05           
       0.110874            0.000634997578            8.62926771e-05           
       0.111213            0.000655700977            8.74975973e-05           
       0.111553            0.000728553576            9.24318449e-05           
       0.111893            0.000670493057            8.86726124e-05           
       0.112232            0.000461835458            7.29587315e-05           
       0.112572            0.000596082399            8.34261744e-05           
       0.112911            0.000591434012            8.27415679e-05           
       0.113251            0.000560562795            8.00376451e-05           
       0.113591              0.0007055634             9.0373612e-05           
       0.113930            0.000585584738             8.1979652e-05           
       0.114270             0.00053517077            7.80388462e-05           
       0.114609            0.000703139854            8.92624623e-05           
       0.114949            0.000736548684            9.13587743e-05           
       0.115288            0.000646433652             8.5588033e-05           
       0.115628            0.000615450039            8.29884334e-05           
       0.115968            0.000646457728             8.5590237e-05           
       0.116307            0.000824010282            9.64290118e-05           
       0.116647            0.000545245753            7.79505262e-05           
       0.116986             0.00060149571            8.18730042e-05           
       0.117326            0.000566082162            7.92622861e-05           
       0.117666            0.000591572724            8.11954435e-05           
       0.118005            0.000541228344            7.73436757e-05           
       0.118345            0.000477698446            7.28129252e-05           
       0.118684            0.000554826478            7.76731543e-05           
       0.119024            0.000550341669            7.78329872e-05           
       0.119363            0.000638794589             8.3855141e-05           
       0.119703            0.000533388966              7.615863e-05           
       0.120043            0.000606088895            8.10194921e-05           
       0.120382            0.000523133202            7.54234615e-05           
       0.120722            0.000492763249            7.26160625e-05           
       0.121061            0.000603896562             8.0711166e-05           
       0.121401            0.000527010866            7.52477317e-05           
       0.121741            0.000514025148            7.41669777e-05           
       0.122080            0.000460084259            7.01679386e-05           
       0.122420            0.000583894312            7.87345562e-05           
       0.122759            0.000456695933            6.96327366e-05           
       0.123099            0.000560602013            7.69967259e-05           
       0.123438            0.000382320891            6.37114057e-05           
       0.123778             0.00053703329            7.52134649e-05           
       0.124118            0.000589354906            7.87925384e-05           
       0.124457            0.000555134355            7.63215981e-05           
       0.124797             0.00051027655            7.28891685e-05           
       0.125136            0.000418182435             6.6113179e-05           
       0.125476            0.000399591889            6.47532724e-05           
       0.125816            0.000577737634            7.72598221e-05           
       0.126155            0.000476786103            7.03215832e-05           
       0.126495            0.000482039371             7.0302217e-05           
       0.126834            0.000565085598            7.62635406e-05           
       0.127174            0.000603955045            7.86925197e-05           
       0.127513            0.000600261848            7.81541247e-05           
       0.127853            0.000557561905            7.59005764e-05           
       0.128193            0.000500974061            7.15346803e-05           
       0.128532            0.000603399959            7.79176078e-05           
       0.128872            0.000552015919            7.45264607e-05           
       0.129211            0.000477951065             6.9739977e-05           
       0.129551            0.000595817427            7.75728145e-05           
       0.129891            0.000528892788            7.26780354e-05           
       0.130230            0.000472767999            6.89708595e-05           
       0.130570            0.000496529401             7.0159552e-05           
       0.130909            0.000550958838            7.43178077e-05           
       0.131249            0.000568949229            7.53812033e-05           
       0.131588            0.000617503025            7.83866063e-05           
       0.131928            0.000562800195            7.45587507e-05           
       0.132268            0.000464599123            6.77426925e-05           
       0.132607            0.000491797532            6.95698906e-05           
       0.132947            0.000479527446            6.84465608e-05           
       0.133286            0.000504115995            7.04363649e-05           
       0.133626            0.000420448067            6.42089689e-05           
       0.133966            0.000578907292            7.49343956e-05           
       0.134305            0.000480800562            6.82906065e-05           
       0.134645            0.000459314755            6.66274147e-05           
       0.134984            0.000547282452            7.25981616e-05           
       0.135324            0.000541764324            7.24918333e-05           
       0.135663            0.000526367904            7.10708081e-05           
       0.136003            0.000480496743            6.80253055e-05           
       0.136343            0.000429936719            6.41177534e-05           
       0.136682             0.00034378853            5.72337422e-05           
       0.137022            0.000448464754            6.53690894e-05           
       0.137361            0.000466104804            6.66425945e-05           
       0.137701            0.000470223933            6.67005923e-05           
       0.138041            0.000461909178            6.63425361e-05           
       0.138380            0.000543342084             7.1324033e-05           
       0.138720            0.000392145171            6.05932867e-05           
       0.139059            0.000551875806            7.22612349e-05           
       0.139399            0.000507824937             6.9074813e-05           
       0.139738            0.000527883933            7.01811633e-05           
       0.140078            0.000466546922            6.58640135e-05           
       0.140418            0.000420511047            6.23151335e-05           
       0.140757             0.00051691867            6.92094356e-05           
       0.141097            0.000375278594            5.91746534e-05           
       0.141436            0.000499902874            6.79443376e-05           
       0.141776            0.000447952394            6.39883784e-05           
       0.142116            0.000393450121            5.99697055e-05           
       0.142455            0.000532658371            6.98961415e-05           
       0.142795            0.000394342773            6.01405869e-05           
       0.143134            0.000365397703            5.77930578e-05           
       0.143474            0.000344297822             5.5815814e-05           
       0.143813            0.000529700394             6.9466338e-05           
       0.144153            0.000507647763            6.78902739e-05           
       0.144493            0.000476723065            6.54593348e-05           
       0.144832            0.000511980439            6.78370767e-05           
       0.145172            0.000634310073            7.57618459e-05           
       0.145511            0.000440275594            6.29081067e-05           
       0.145851            0.000558556751            7.03872809e-05           
       0.146191            0.000446119434            6.31140603e-05           
       0.146530            0.000497659271            6.65500403e-05           
       0.146870            0.000517119854            6.79516576e-05           
       0.147209            0.000469343672            6.45228922e-05           
       0.147549            0.000337139627            5.46858803e-05           
       0.147888            0.000485489902            6.54084368e-05           
       0.148228            0.000360774363            5.62927779e-05           
       0.148568            0.000428393654            6.12420708e-05           
       0.148907            0.000456606818             6.3330076e-05           
       0.149247             0.00038589697            5.81256755e-05           
       0.149586            0.000487770525            6.51376438e-05           
       0.149926            0.000397360578            5.86027116e-05           
       0.150266            0.000452718448            6.27541388e-05           
       0.150605            0.000450698637            6.25132093e-05           
       0.150945            0.000443262743            6.20958964e-05           
       0.151284            0.000424263495            6.06527537e-05           
       0.151624            0.000396147339            5.83272843e-05           
       0.151963            0.000431011043            6.08400554e-05           
       0.152303            0.000429542757            6.07366205e-05           
       0.152643            0.000426881067            6.03559088e-05           
       0.152982            0.000453536038            6.23110028e-05           
       0.153322            0.000539488048            6.79597526e-05           
       0.153661            0.000379630328            5.66493115e-05           
       0.154001            0.000372421123            5.61091113e-05           
       0.154341            0.000458583059            6.23607344e-05           
       0.154680            0.000428909181            6.01203136e-05           
       0.155020            0.000472010459            6.31681598e-05           
       0.155359            0.000386142955            5.69556886e-05           
       0.155699            0.000455965468            6.16034219e-05           
       0.156038            0.000441765378            6.08254769e-05           
       0.156378             0.00041414792            5.87111738e-05           
       0.156718            0.000487862258            6.38215057e-05           
       0.157057            0.000402708908            5.79850645e-05           
       0.157397            0.000477469201            6.90791679e-05           
       0.157736            0.000514917665            7.54776565e-05           
       0.158076            0.000536104723            8.02149941e-05           
       0.158416             0.00038344138            7.05701717e-05           
       0.158755            0.000377564526            7.29017366e-05           
       0.159095            0.000375908941            7.53515855e-05           
       0.159434            0.000412653954            8.10238431e-05           
       0.159774            0.000420100298            8.24874334e-05           
       0.160113            0.000388740781            7.93493714e-05           
       0.160453            0.000390499831            7.97697218e-05           
       0.160793            0.000292122203            6.87859929e-05           
       0.161132            0.000469238881            8.71800015e-05           
       0.161472            0.000435452241            8.37313524e-05           
       0.161811            0.000485575684            8.86855065e-05           
       0.162151            0.000695782317            0.000106160517           
       0.162491            0.000404438287            8.09383992e-05           
       0.162830            0.000515722481            9.11243577e-05           
       0.163170             0.00046408468            8.61848304e-05           
       0.163509            0.000366654353            7.63790238e-05           
       0.163849            0.000396813883            7.92246243e-05           
       0.164188            0.000300787808            6.89761692e-05           
       0.164528            0.000384604404            7.84599616e-05           
       0.164868            0.000344746338            7.34147654e-05           
       0.165207            0.000318201386            7.11553719e-05           
       0.165547            0.000392049725            7.85189949e-05           
       0.165886            0.000439712871            8.31554947e-05           
       0.166226            0.000455784501            8.46619661e-05           
       0.166566             0.00039606845            7.91533868e-05           
       0.166905            0.000479620326            8.60964481e-05           
       0.167245            0.000329745577            7.20119769e-05           
       0.167584            0.000311705723            6.98109719e-05           
       0.167924            0.000259864568             6.3013698e-05           
       0.168263            0.000468471136            8.55849128e-05           
       0.168603            0.000310992634            6.95303241e-05           
       0.168943            0.000294114829            6.74230418e-05           
       0.169282            0.000476819106            8.56021281e-05           
       0.169622            0.000401574611            7.87839063e-05           
       0.169961            0.000493966674            8.73786759e-05           
       0.170301            0.000442614629            8.22413201e-05           
       0.170641            0.000367155379            7.49038981e-05           
       0.170980            0.000411637219            7.90876683e-05           
       0.171320            0.000302520652            6.76095269e-05           
       0.171659            0.000442240844            8.19757625e-05           
       0.171999            0.000227977252            5.88578081e-05           
       0.172338             0.00048548701            8.58913497e-05           
       0.172678            0.000421094382            7.95449788e-05           
       0.173018            0.000426267189            8.04833755e-05           
       0.173357            0.000180761174            5.22632891e-05           
       0.173697            0.000373015627             7.4659269e-05           
       0.174036            0.000375973732            7.51641983e-05           
       0.174376            0.000378157429            7.55940168e-05           
       0.174716            0.000434691014            8.05967462e-05           
       0.175055            0.000327811677            6.97973104e-05           
       0.175395            0.000235942414            5.88905454e-05           
       0.175734            0.000449096998            8.19227039e-05           
       0.176074            0.000327134395            6.97262978e-05           
       0.176413             0.00039794771             7.6482594e-05           
       0.176753            0.000552240125            9.08458793e-05           
       0.177093            0.000326615741            6.96721337e-05           
       0.177432            0.000397665914            7.64567494e-05           
       0.177772             0.00049674284             8.5219986e-05           
       0.178111            0.000321678049            6.85786206e-05           
       0.178451             0.00029402006            6.57434148e-05           
       0.178791            0.000306129503            6.67203678e-05           
       0.179130            0.000304654459            6.63806349e-05           
       0.179470            0.000306691654            6.69635639e-05           
       0.179809            0.000351205002            7.16589276e-05           
       0.180149            0.000403137357            7.61565027e-05           
       0.180488            0.000365587478             7.3112296e-05           
       0.180828            0.000334437572             6.9739324e-05           
       0.181168            0.000317737751             6.7793241e-05           
       0.181507            0.000382904322            7.36341406e-05           
       0.181847            0.000302436591            6.59644108e-05           
       0.182186            0.000313378064             6.6791186e-05           
       0.182526            0.000330556004            6.89635994e-05           
       0.182866             0.00034364546            7.01288971e-05           
       0.183205            0.000351976037            7.05996936e-05           
       0.183545            0.000413638886            7.67370841e-05           
       0.183884            0.000328083855            6.83422837e-05           
       0.184224            0.000397470597            7.52232357e-05           
       0.184563            0.000469749775            8.17777661e-05           
       0.184903            0.000407643677             7.5780765e-05           
       0.185243            0.000351121436            7.03314821e-05           
       0.185582            0.000367948699            7.21866814e-05           
       0.185922            0.000364056882             7.1429354e-05           
       0.186261            0.000464499302            8.08948819e-05           
       0.186601            0.000249824865            5.88660177e-05           
       0.186941            0.000348361081            6.96925488e-05           
       0.187280            0.000250167035            5.90594044e-05           
       0.187620            0.000343121906            6.86359073e-05           
       0.187959            0.000448484415            7.92831259e-05           
       0.188299            0.000443541899            7.84380279e-05           
       0.188638            0.000402321718            7.47048147e-05           
       0.188978            0.000194118223             5.1891654e-05           
       0.189318            0.000315474949            6.58145849e-05           
       0.189657            0.000263762585            6.04889426e-05           
       0.189997            0.000235360586            5.69931085e-05           
       0.190336            0.000400487215            7.43450965e-05           
       0.190676            0.000247192264             5.8259565e-05           
       0.191016            0.000309920888             6.4578927e-05           
       0.191355            0.000352749818            6.92442585e-05           
       0.191695            0.000258833474            5.94651647e-05           
       0.192034            0.000322709086            6.58989798e-05           
       0.192374            0.000327328775            6.67037372e-05           
       0.192713            0.000432841864            7.65123119e-05           
       0.193053            0.000337698478            6.75824315e-05           
       0.193393            0.000285521814            6.22996224e-05           
       0.193732            0.000231065928             5.6044924e-05           
       0.194072            0.000421165867            7.56654255e-05           
       0.194411            0.000337330085            6.73780771e-05           
       0.194751            0.000361047892            6.95333323e-05           
       0.195091            0.000436439582            7.60720847e-05           
       0.195430            0.000479220145            7.99108472e-05           
       0.195770            0.000372805583            7.04826169e-05           
       0.196109            0.000354217854            6.81989099e-05           
       0.196449            0.000294608599            6.28125522e-05           
       0.196788            0.000288642999            6.15641618e-05           
       0.197128            0.000319749007              6.527636e-05           
       0.197468            0.000239284625             5.6469161e-05           
       0.197807            0.000319504662            6.52521992e-05           
       0.198147            0.000368978541            6.97782933e-05           
       0.198486            0.000288533623             6.1554357e-05           
       0.198826            0.000487755576            8.02280409e-05           
       0.199166            0.000284672236            6.06993025e-05           
       0.199505            0.000352723496            6.78936367e-05           
       0.199845            0.000210068039            5.25232037e-05           
       0.200184            0.000281736026            5.99557465e-05           
       0.200524            0.000283096906            6.03876295e-05           
       0.200863            0.000285459614            6.07850699e-05           
       0.201203            0.000310577963             6.3403406e-05           
       0.201543            0.000387661265            7.08363483e-05           
       0.201882            0.000335613794            6.59101891e-05           
       0.202222            0.000385613119            7.04806296e-05           
       0.202561            0.000271842092            5.93193521e-05           
       0.202901            0.000393095391            7.06567196e-05           
       0.203241            0.000345876215            6.65925817e-05           
       0.203580            0.000334187639            6.54581025e-05           
       0.203920            0.000280558658            5.98344368e-05           
       0.204259            0.000369507711            6.86679134e-05           
       0.204599            0.000303435066            6.19340016e-05           
       0.204938            0.000242823794            5.56664064e-05           
       0.205278            0.000241318089             5.5493898e-05           
       0.205618            0.000315713569            6.31758491e-05           
       0.205957            0.000392568804            7.04474241e-05           
       0.206297            0.000315360523            6.31413183e-05           
       0.206636            0.000315174734            6.29754599e-05           
       0.206976            0.000226188907            5.33499558e-05           
       0.207316            0.000341592612            6.57162076e-05           
       0.207655            0.000365727945            6.78395583e-05           
       0.207995            0.000226815705            5.34248444e-05           
       0.208334            0.000339892862            6.54004136e-05           
       0.208674            0.000297879001            6.08007895e-05           
       0.209013            0.000407187388            7.09236148e-05           
       0.209353            0.000250556372            5.58921231e-05           
       0.209693            0.000298961217            6.10531542e-05           
       0.210032            0.000259859299            5.66593054e-05           
       0.210372            0.000358480249            6.65483884e-05           
       0.210711            0.000371841369            6.79336524e-05           
       0.211051            0.000309283913            6.18143358e-05           
       0.211391            0.000299925981            6.11535629e-05           
       0.211730            0.000407385863            7.09445665e-05           
       0.212070            0.000323130482            6.33295383e-05           
       0.212409            0.000305376885            6.10059219e-05           
       0.212749            0.000279141217            5.81953662e-05           
       0.213088            0.000231934141             5.3166978e-05           
       0.213428            0.000366635715            6.69984367e-05           
       0.213768            0.000375560416             6.7503284e-05           
       0.214107            0.000344402258            6.50841551e-05           
       0.214447            0.000217610908            5.12690283e-05           
       0.214786            0.000351941796            6.53475026e-05           
       0.215126            0.000220243484            5.19293768e-05           
       0.215466            0.000352963171             6.5591012e-05           
       0.215805            0.000288039202            5.88546039e-05           
       0.216145            0.000339083152            6.41443114e-05           
       0.216484            0.000262287108            5.59137562e-05           
       0.216824            0.000384817466            6.80284695e-05           
       0.217163            0.000310810268            6.10023611e-05           
       0.217503            0.000349083656            6.47938642e-05           
       0.217843             0.00036002703            6.58020735e-05           
       0.218182            0.000308998253            6.06907816e-05           
       0.218522            0.000379013425            6.70681347e-05           
       0.218861            0.000367496646            6.61876949e-05           
       0.219201            0.000307236146            6.06530436e-05           
       0.219541            0.000223645742            5.15202563e-05           
       0.219880            0.000321052026            6.62625267e-05           
       0.220220            0.000392095538            8.42013762e-05           
       0.220559            0.000408055726            9.49290529e-05           
       0.220899            0.000217389675            7.73087572e-05           
       0.221238            0.000300106205            0.000101169392           
       0.221578            0.000327469973            0.000117415088           
       0.221918            0.000160152348            9.48150167e-05           
       0.222257            0.000368871819            0.000168514665           
       0.222597            0.000235856203            0.000169960976           
       0.222936            0.000567480093            0.000412186486           
