################################################################################
# Data 1                                  10_10_2023_0_vd_00017-00018_azimAvg.dat
# Data 2                                  2023_10_26_0_vd_00006-00007_azimAvg.dat
# Transmission                            0.7403534552143566
# Weight                                  1.001837468241797
# Smart_subtraction                       True
# Enhanced_transmission_correction        True
# EDF_DataBlockID                         0.Image.Psd
# EDF_BinarySize                          4637784
# EDF_HeaderSize                          3072
# ByteOrder                               LowByteFirst
# DataType                                FloatValue
# Dim_1                                   1038
# Dim_2                                   1117
# Image                                   0
# HeaderID                                EH:000000:000000:000000
# Size                                    4637784
# BIO_SYSTEM_CONF_TXT                     WAXSRES
# Center_1                                606.981
# Center_2                                651.016
# Comment                                 gamma_3X - gamma_3X_WAXS_HI_600s
# DDummy                                  0.6
# Date                                    2023-10-10T20:15:00
# Delta                                   0
# Dummy                                   -1.5
# ExposureTime                            600
# Force                                   9.91088
# Gamma                                   0
# Intensity1                              1.08806e-07
# JawsDistance                            4.54563
# JawsVelocity                            0.358589
# PSize_1                                 7.5e-05
# PSize_2                                 7.5e-05
# Pressure                                0.0927181
# SampleDistance                          0.0500003
# SampleEnvKind                           saxs
# SampleEnvPN                             Solids
# SampleEnvSN                             1012
# Strain                                  0
# Stress                                  0
# Thickness                               0
# Wavelength                              1.541891e-10
# Wavelength                              1.54189e-10
# anaB                                    0
# anaB_dial                               -0.0012015
# anaPark                                 -175.125
# anaPark_dial                            175.169
# anaXi                                   0
# anaXi_dial                              0
# anaZ                                    -9.13123e-08
# anaZ_dial                               6.2299
# aux                                     0
# aux_dial                                -0.000125
# b2c                                     0
# b2c_dial                                0
# beamx                                   603.62
# beamx_dial                              603.62
# beamz                                   653.016
# beamz_dial                              653.016
# bioZ                                    -2.90461e-08
# bioZ_dial                               -0.546695
# det0x                                   0
# det0x_dial                              6.05631
# det0xvd                                 0
# det0xvd_dial                            0
# det0y                                   50.0003
# det0y_dial                              893.512
# det0z                                   0
# det0z_dial                              6.3358
# det0zvd                                 0
# det0zvd_dial                            0
# distana                                 93.4
# distana_dial                            93.4
# mag                                     1.091
# mag_dial                                1.091
# mono1B                                  1.00136e-08
# mono1B_dial                             -0.277
# mono2B                                  1.75476e-07
# mono2B_dial                             -4.366
# mono2X                                  -1
# mono2X_dial                             3.96031
# mono2Xi                                 0
# mono2Xi_dial                            0
# monoZ                                   -11
# monoZ_dial                              -10.6609
# om                                      1.30741e-08
# om_dial                                 -0.939898
# phi                                     -4.9295e-08
# phi_dial                                -7.01716
# qana                                    0
# qana_dial                               0
# ry                                      0
# ry_dial                                 0.00149998
# s1bot                                   1.45
# s1bot_dial                              -2.02906
# s1hl                                    0.55
# s1hl_dial                               -0.47125
# s1hr                                    1.95
# s1hr_dial                               2.31625
# s1top                                   1.05
# s1top_dial                              1.23391
# s2bot                                   1.2
# s2bot_dial                              -2.09531
# s2hl                                    0.6
# s2hl_dial                               -1.365
# s2hr                                    0.8
# s2hr_dial                               -0.0153125
# s2top                                   0.2
# s2top_dial                              -1.18281
# ttdeg                                   0
# ttdeg_dial                              0
# wind                                    72.0045
# wind_dial                               72.0233
# x                                       -25.1
# x_dial                                  -24.3903
# z                                       3.05176e-07
# z_dial                                  19.1091
# CountCutoff                             15302352
# DetectorModel                           Dectris EIGER2 Si 1M, S/N E-02-0357
# ThresholdSetting                        4023.88989258
# Saturation                              0
# FlatField                               Corrected
# BackgroundReductionExtra                0.02
# Detector                                0
# Monitor                                 0
# Pil_Roi0                                6.52848e+10
# SumForIntensity1                        6.52835e+10
# det                                     0
# mon                                     0
# pilai0                                  6.52835e+10
# pilai1                                  0
# pilct0                                  6.52853e+10
# pilct1                                  0
# pilroi0                                 6.52848e+10
# pilroi1                                 0
# sec                                     0.099
# title                                   10_10_2023_0_00017.edf
# usaxs0                                  0
# Operation                               Azimuthal average I(q)
# Error_model                             ErrorModel.poisson
# Geometrical_correction                  True
# Transmission_correction                 True
# Psi                                     0.0
# Omega                                   0.0
# TransmittedFlux_init_value              1.08806e+08
# TransmittedFlux                         108783558.84886286
# MaskInvalidPixels                       True
# DetectorEdge                            3
# Origin                                  subtracted
# Thickness_correction                    False
################################################################################
 q(A-1)                   I_subtracted(a.u.)         Sigma_I(a.u.)            
       0.009169               -253.855321               0.054612622           
       0.015281               -187.213698              0.0339569502           
       0.021394               -127.119474              0.0330671445           
       0.027506               -55.8864839              0.0269411257           
       0.033618                1.20787322              0.0240081902           
       0.039731                5.22531081              0.0190829841           
       0.045843                -17.586715              0.0156889446           
       0.051956               -52.9569164              0.0137860717           
       0.058068               -33.6089836              0.0105356389           
       0.064181               -13.0141925             0.00794701888           
       0.070293                51.5643462             0.00634182837           
       0.076406                45.1037325              0.0041841072           
       0.082518                45.3965897             0.00307042468           
       0.088630                32.0194879             0.00200173286           
       0.094743                 13.861945             0.00118217818           
       0.100855                6.97915148            0.000786529458           
       0.106968                 1.3329732            0.000333730996           
       0.113080               0.303858437            0.000148820061           
       0.119193              0.0813916657              6.340494e-05           
       0.125305             0.00548925117            1.76941206e-05           
       0.131418               0.001264634            8.57305882e-06           
       0.137530            0.000539764451             5.6348871e-06           
       0.143642            0.000439365315            4.95255693e-06           
       0.149755            0.000402496021            4.33518227e-06           
       0.155867             0.00036597212            4.30394591e-06           
       0.161980            0.000331227092            3.93570467e-06           
       0.168092            0.000315859905            3.64684521e-06           
       0.174205            0.000297052209            3.54474726e-06           
       0.180317            0.000276734078            3.33812016e-06           
       0.186429            0.000255561646            3.16481749e-06           
       0.192542            0.000244701689            2.96830688e-06           
       0.198654            0.000231518166            2.86986991e-06           
       0.204767            0.000216499042            2.73085706e-06           
       0.210879             0.00021126647             2.7516763e-06           
       0.216992            0.000197394369             2.5509586e-06           
       0.223104            0.000183222561             2.3386247e-06           
       0.229217            0.000176268743            2.34409149e-06           
       0.235329            0.000172631595            2.25490768e-06           
       0.241441             0.00016005634            2.17153983e-06           
       0.247554            0.000159270792            2.10012995e-06           
       0.253666            0.000153682548            2.05777591e-06           
       0.259779             0.00014850923            2.03218997e-06           
       0.265891            0.000143631993            1.89642213e-06           
       0.272004            0.000140238802            1.89924079e-06           
       0.278116            0.000136950199            1.83063964e-06           
       0.284229            0.000134586868            1.83448281e-06           
       0.290341            0.000132118477            1.78488109e-06           
       0.296453            0.000126730917            1.66210837e-06           
       0.302566            0.000126123976            1.70822228e-06           
       0.308678            0.000125441297            1.68103135e-06           
       0.314791             0.00012414689            1.65609629e-06           
       0.320903            0.000121608917            1.59582297e-06           
       0.327016            0.000121659193            1.59341183e-06           
       0.333128            0.000121794696            1.60832794e-06           
       0.339241            0.000116597594            1.51485993e-06           
       0.345353            0.000117167045            1.50571679e-06           
       0.351465            0.000116044188            1.50198211e-06           
       0.357578            0.000120877849            1.53255511e-06           
       0.363690            0.000115896698            1.45483696e-06           
       0.369803            0.000116924072            1.46470106e-06           
       0.375915            0.000116821942            1.49102435e-06           
       0.382028            0.000117004191            1.41284687e-06           
       0.388140            0.000118514734            1.43720164e-06           
       0.394253            0.000118249188            1.40517998e-06           
       0.400365            0.000121170921            1.44562183e-06           
       0.406477            0.000118356396            1.43748679e-06           
       0.412590            0.000119035401            1.38278717e-06           
       0.418702            0.000123103795             1.4115104e-06           
       0.424815            0.000122626683            1.38054515e-06           
       0.430927             0.00012178664            1.40501197e-06           
       0.437040            0.000123011026            1.34851914e-06           
       0.443152            0.000125371691            1.40643676e-06           
       0.449264            0.000126333422             1.3673173e-06           
       0.455377            0.000129961781            1.38116738e-06           
       0.461489            0.000128257729            1.37512428e-06           
       0.467602            0.000131836017            1.36475464e-06           
       0.473714              0.0001344293            1.42223209e-06           
       0.479827             0.00013364272            1.35659461e-06           
       0.485939            0.000136052223             1.3652189e-06           
       0.492052            0.000139497346            1.37111417e-06           
       0.498164            0.000142203047            1.41913798e-06           
       0.504276            0.000141497216            1.35726179e-06           
       0.510389            0.000144311182            1.36099415e-06           
       0.516501            0.000148508288            1.40948418e-06           
       0.522614            0.000147940645            1.35142083e-06           
       0.528726            0.000153759164            1.39332774e-06           
       0.534839            0.000154644151            1.38377778e-06           
       0.540951            0.000154757096             1.3990028e-06           
       0.547064            0.000157304896            1.36704075e-06           
       0.553176            0.000159443185            1.39584691e-06           
       0.559288            0.000161637096            1.40294744e-06           
       0.565401            0.000169412835            1.40657441e-06           
       0.571513             0.00016689209            1.41041078e-06           
       0.577626            0.000167079232            1.36905133e-06           
       0.583738            0.000171821754            1.42501855e-06           
       0.589851              0.0001731989            1.37790794e-06           
       0.595963            0.000173750337            1.41060732e-06           
       0.602076            0.000180395554            1.41381745e-06           
       0.608188            0.000180723514            1.42319811e-06           
       0.614300            0.000180088732            1.38418348e-06           
       0.620413            0.000183825005            1.40831618e-06           
       0.626525            0.000183442919            1.42980759e-06           
       0.632638            0.000182990993            1.36713938e-06           
       0.638750            0.000190269481            1.41534323e-06           
       0.644863            0.000186793898            1.39196674e-06           
       0.650975             0.00019067365            1.41215302e-06           
       0.657088            0.000189085313             1.3841322e-06           
       0.663200            0.000187325979            1.36491501e-06           
       0.669312            0.000188861901            1.37875875e-06           
       0.675425            0.000189682266            1.38040152e-06           
       0.681537            0.000188978067            1.35469527e-06           
       0.687650            0.000187651173            1.35672477e-06           
       0.693762            0.000188768432              1.358811e-06           
       0.699875            0.000187557078            1.33937339e-06           
       0.705987            0.000191068749            1.35034556e-06           
       0.712100            0.000187107143            1.30058805e-06           
       0.718212            0.000189013469            1.35011195e-06           
       0.724324            0.000183789842            1.30798119e-06           
       0.730437            0.000184121282            1.28782246e-06           
       0.736549            0.000182272876            1.26685863e-06           
       0.742662            0.000180937375            1.30401857e-06           
       0.748774            0.000180226974             1.2386599e-06           
       0.754887            0.000178140189            1.25504442e-06           
       0.760999             0.00017635504            1.25493854e-06           
       0.767111            0.000174810893            1.23094407e-06           
       0.773224            0.000172887676            1.21543108e-06           
       0.779336            0.000172927842            1.22092549e-06           
       0.785449            0.000171904296             1.2112323e-06           
       0.791561            0.000170823874            1.19461939e-06           
       0.797674             0.00017066256            1.20825074e-06           
       0.803786            0.000167600458            1.16903962e-06           
       0.809899            0.000166202076            1.17765522e-06           
       0.816011            0.000164577265             1.1597087e-06           
       0.822123            0.000164842657            1.17282037e-06           
       0.828236            0.000163348295             1.1316474e-06           
       0.834348             0.00016220473            1.16075365e-06           
       0.840461            0.000161351823            1.12445737e-06           
       0.846573            0.000160658169            1.13678205e-06           
       0.852686             0.00015908922            1.11320247e-06           
       0.858798            0.000159386463            1.12215089e-06           
       0.864911            0.000156062986            1.08763736e-06           
       0.871023            0.000158926273            1.11628465e-06           
       0.877135            0.000156619783            1.07299907e-06           
       0.883248             0.00015708786            1.09944294e-06           
       0.889360            0.000154409761            1.06969155e-06           
       0.895473             0.00015500295            1.07345691e-06           
       0.901585            0.000155054482            1.07067603e-06           
       0.907698            0.000155676149            1.07727904e-06           
       0.913810            0.000154025836            1.05812441e-06           
       0.919923            0.000155096454            1.07830832e-06           
       0.926035            0.000153779629            1.03395635e-06           
       0.932147            0.000154158551            1.06946822e-06           
       0.938260            0.000154064399             1.0495854e-06           
       0.944372            0.000156365914            1.05437406e-06           
       0.950485            0.000155708904            1.04442794e-06           
       0.956597             0.00015502506            1.05348826e-06           
       0.962710            0.000156213337            1.03059064e-06           
       0.968822            0.000160539028            1.07035019e-06           
       0.974935            0.000159470265            1.02085612e-06           
       0.981047            0.000159707043            1.05066704e-06           
       0.987159            0.000161852127            1.05245974e-06           
       0.993272            0.000161271718              1.027715e-06           
       0.999384            0.000161544309             1.0427363e-06           
       1.005497             0.00016369261            1.04967461e-06           
       1.011609            0.000164607358            1.03365108e-06           
       1.017722            0.000169162664            1.07525723e-06           
       1.023834            0.000169498378            1.02935293e-06           
       1.029947            0.000171132138             1.0799708e-06           
       1.036059            0.000173565242            1.04486715e-06           
       1.042171             0.00017374547            1.06662869e-06           
       1.048284            0.000174504026             1.0650403e-06           
       1.054396             0.00017825525            1.04822838e-06           
       1.060509            0.000178932699              1.057914e-06           
       1.066621            0.000182186227            1.05338574e-06           
       1.072734            0.000183309819             1.0828903e-06           
       1.078846              0.0001857177             1.0628652e-06           
       1.084958            0.000190348863             1.0833136e-06           
       1.091071            0.000190443213            1.09446731e-06           
       1.097183            0.000194522641            1.08226174e-06           
       1.103296            0.000196108989             1.0923192e-06           
       1.109408            0.000198140752             1.0961307e-06           
       1.115521            0.000199329942            1.08900783e-06           
       1.121633            0.000203848037            1.11700405e-06           
       1.127746            0.000207070932            1.08358815e-06           
       1.133858            0.000208735835            1.11515773e-06           
       1.139970            0.000210744964            1.09485742e-06           
       1.146083            0.000213782173            1.12578334e-06           
       1.152195             0.00021682643            1.11184052e-06           
       1.158308            0.000220384231            1.14166453e-06           
       1.164420            0.000223625843            1.12602596e-06           
       1.170533            0.000228706744            1.15110418e-06           
       1.176645            0.000232301329            1.14783453e-06           
       1.182758            0.000231259894            1.15010353e-06           
       1.188870            0.000236798556            1.14914326e-06           
       1.194982            0.000241009977            1.14912355e-06           
       1.201095            0.000243133792            1.15919195e-06           
       1.207207            0.000247395536            1.16959344e-06           
       1.213320            0.000249295583            1.16983808e-06           
       1.219432            0.000252221303            1.18450265e-06           
       1.225545            0.000261242446             1.1898319e-06           
       1.231657            0.000263229938            1.20453925e-06           
       1.237770            0.000267541892            1.20337228e-06           
       1.243882            0.000271619411            1.19644869e-06           
       1.249994            0.000277949149            1.21362863e-06           
       1.256107            0.000280515433            1.20948975e-06           
       1.262219            0.000285915958            1.23409501e-06           
       1.268332            0.000290310136            1.23069399e-06           
       1.274444            0.000299214713            1.27058848e-06           
       1.280557            0.000303001807            1.24423123e-06           
       1.286669            0.000313158172            1.28467707e-06           
       1.292782            0.000316790319            1.27677061e-06           
       1.298894            0.000321144707            1.27728399e-06           
       1.305006            0.000331549263              1.299054e-06           
       1.311119            0.000337101335            1.30904193e-06           
       1.317231            0.000345096276            1.31222987e-06           
       1.323344            0.000353947713            1.35206596e-06           
       1.329456            0.000359964662            1.32778258e-06           
       1.335569            0.000369291386            1.37928264e-06           
       1.341681            0.000374150058            1.36742351e-06           
       1.347793            0.000380141472            1.34311366e-06           
       1.353906            0.000386496962            1.38843301e-06           
       1.360018            0.000392550142             1.3711857e-06           
       1.366131            0.000394665745            1.40605328e-06           
       1.372243            0.000397112796            1.37815096e-06           
       1.378356            0.000394528327            1.39834904e-06           
       1.384468            0.000396530459            1.38660559e-06           
       1.390581            0.000393333157            1.34965591e-06           
       1.396693              0.0003870547            1.36109547e-06           
       1.402805            0.000384897061            1.34756213e-06           
       1.408918            0.000382813672            1.33931644e-06           
       1.415030            0.000372182015            1.33921057e-06           
       1.421143            0.000367066272            1.31817506e-06           
       1.427255            0.000359668451             1.2881979e-06           
       1.433368            0.000353890922            1.28398488e-06           
       1.439480            0.000348213184            1.25227489e-06           
       1.445593            0.000338870148            1.25020424e-06           
       1.451705            0.000333768069            1.25023038e-06           
       1.457817            0.000326204164            1.21322574e-06           
       1.463930            0.000325569788            1.24085295e-06           
       1.470042            0.000317310894            1.18007891e-06           
       1.476155            0.000310063954            1.16986235e-06           
       1.482267            0.000308111925            1.18870842e-06           
       1.488380            0.000300895802            1.15869733e-06           
       1.494492            0.000295413256            1.15617521e-06           
       1.500605            0.000292726181            1.14916511e-06           
       1.506717            0.000288889169            1.11289769e-06           
       1.512829            0.000284618012            1.12105672e-06           
       1.518942             0.00028289739             1.1104195e-06           
       1.525054            0.000276217492            1.10068865e-06           
       1.531167            0.000273473599            1.09726986e-06           
       1.537279            0.000272457287            1.09412746e-06           
       1.543392            0.000267463113            1.06282386e-06           
       1.549504            0.000264873933            1.06479423e-06           
       1.555617            0.000262903086            1.06950908e-06           
       1.561729            0.000259600771            1.05244239e-06           
       1.567841            0.000258536417              1.050812e-06           
       1.573954            0.000254685234            1.03422894e-06           
       1.580066            0.000251836001            1.02827083e-06           
       1.586179             0.00024996045            1.02078254e-06           
       1.592291            0.000247494592             1.0223224e-06           
       1.598404            0.000246929232             1.0232128e-06           
       1.604516            0.000244559523            9.94917043e-07           
       1.610629            0.000242008273            1.00012634e-06           
       1.616741            0.000242242695            1.00835531e-06           
       1.622853            0.000241221948                9.9251e-07           
       1.628966            0.000238157353            9.90183067e-07           
       1.635078            0.000236138702            9.79009465e-07           
       1.641191            0.000237428254             9.8217834e-07           
       1.647303            0.000236472297            9.77317605e-07           
       1.653416            0.000235247067             9.7758109e-07           
       1.659528            0.000235174723            9.84746048e-07           
       1.665640            0.000231678324            9.45313625e-07           
       1.671753            0.000231639897            9.60607257e-07           
       1.677865            0.000229851021            9.66189811e-07           
       1.683978            0.000227290346            9.54109452e-07           
       1.690090            0.000227325059            9.34261714e-07           
       1.696203             0.00022431446            9.35208124e-07           
       1.702315            0.000223053548            9.40269962e-07           
       1.708428            0.000221173739            9.37915756e-07           
       1.714540            0.000218052484            9.20855257e-07           
       1.720652             0.00021546104            9.05083679e-07           
       1.726765            0.000213298997            9.07045278e-07           
       1.732877            0.000212247461             9.1507358e-07           
       1.738990            0.000208920903             8.9410236e-07           
       1.745102            0.000203906683             8.7952815e-07           
       1.751215            0.000204558066            8.79357995e-07           
       1.757327             0.00020257819            8.81769336e-07           
       1.763440            0.000200250596             8.7142853e-07           
       1.769552            0.000198931533            8.60275711e-07           
       1.775664            0.000195111406            8.58186747e-07           
       1.781777            0.000192376522            8.51423347e-07           
       1.787889            0.000190265176            8.47466428e-07           
       1.794002            0.000188873069            8.31490257e-07           
       1.800114            0.000185475791            8.29604431e-07           
       1.806227            0.000185421457            8.32911788e-07           
       1.812339            0.000180998303             8.1939095e-07           
       1.818452            0.000180801686            8.08159974e-07           
       1.824564            0.000180511964            8.14547157e-07           
       1.830676             0.00017783807            8.13070099e-07           
       1.836789            0.000176229543             8.0252801e-07           
       1.842901            0.000173919288            7.80590749e-07           
       1.849014            0.000173294769            7.95785912e-07           
       1.855126            0.000171784138            7.89854539e-07           
       1.861239             0.00016978962            7.86517624e-07           
       1.867351            0.000168436407            7.72690302e-07           
       1.873464            0.000168153225            7.73123692e-07           
       1.879576            0.000166562452             7.7676269e-07           
       1.885688            0.000165572601            7.56665195e-07           
       1.891801            0.000162601335            7.59419898e-07           
       1.897913             0.00016224434            7.61862398e-07           
       1.904026            0.000161316968            7.48609547e-07           
       1.910138            0.000160022761             7.4405738e-07           
       1.916251            0.000160495883            7.55370951e-07           
       1.922363            0.000157776394            7.41962976e-07           
       1.928476            0.000155714608            7.31102142e-07           
       1.934588            0.000155113673            7.38092607e-07           
       1.940700            0.000153619656            7.34693378e-07           
       1.946813            0.000150803716            7.05869582e-07           
       1.952925            0.000150309741            7.18203098e-07           
       1.959038            0.000149302592            7.18880704e-07           
       1.965150            0.000146548821            7.02201937e-07           
       1.971263             0.00014554535            7.03809591e-07           
       1.977375            0.000144231682            7.06708298e-07           
       1.983487            0.000143030827            6.87149726e-07           
       1.989600            0.000139968883            6.88823762e-07           
       1.995712            0.000140620447             6.8976896e-07           
       2.001825            0.000139206284            6.78968898e-07           
       2.007937            0.000137817267            6.77868735e-07           
       2.014050            0.000137177969            6.79032918e-07           
       2.020162            0.000135840424            6.67237019e-07           
       2.026275              0.0001359177            6.73639782e-07           
       2.032387            0.000134707372            6.72349528e-07           
       2.038499            0.000133703416            6.57443529e-07           
       2.044612             0.00013243496            6.59871864e-07           
       2.050724            0.000130396684            6.57997378e-07           
       2.056837            0.000129436929            6.41615926e-07           
       2.062949            0.000129025312            6.49560226e-07           
       2.069062            0.000127494508            6.44786303e-07           
       2.075174            0.000128151682            6.42438001e-07           
       2.081287            0.000127481772            6.44315178e-07           
       2.087399            0.000125573095            6.34570735e-07           
       2.093511            0.000124153994            6.29864141e-07           
       2.099624            0.000124885575            6.35916909e-07           
       2.105736            0.000125448956            6.30808794e-07           
       2.111849            0.000123990927            6.30075956e-07           
       2.117961            0.000122621078            6.21726635e-07           
       2.124074            0.000122588831            6.22558906e-07           
       2.130186            0.000121868605            6.21576055e-07           
       2.136299            0.000121204276            6.15322955e-07           
       2.142411            0.000121084304            6.16357035e-07           
       2.148523            0.000120160508            6.16589563e-07           
       2.154636            0.000119762792            6.08862195e-07           
       2.160748            0.000118984615            6.09865322e-07           
       2.166861            0.000119433871            6.04821671e-07           
       2.172973            0.000118263063            6.00934157e-07           
       2.179086            0.000117963409             6.0688941e-07           
       2.185198            0.000117556538            5.98276041e-07           
       2.191311            0.000117397521            6.05484479e-07           
       2.197423            0.000117345632            5.96175318e-07           
       2.203535            0.000116377314            5.96160135e-07           
       2.209648             0.00011596236            5.91941068e-07           
       2.215760            0.000114904174            5.92710197e-07           
       2.221873             0.00011586784            5.92659543e-07           
       2.227985            0.000114741791            5.87524134e-07           
       2.234098            0.000114818512            5.89246514e-07           
       2.240210            0.000113953759            5.80529445e-07           
       2.246322            0.000114079507            5.86397939e-07           
       2.252435            0.000114719617            5.82996039e-07           
       2.258547            0.000113254111            5.80785705e-07           
       2.264660            0.000113375618            5.78475174e-07           
       2.270772            0.000113101249            5.81622899e-07           
       2.276885            0.000113144141            5.77961469e-07           
       2.282997            0.000112857708            5.75029584e-07           
       2.289110             0.00011290924            5.85680898e-07           
       2.295222            0.000112211272            5.72432741e-07           
       2.301334            0.000111910742            5.91028661e-07           
       2.307447            0.000111733244            5.80899874e-07           
       2.313559            0.000110661357             5.8647816e-07           
       2.319672            0.000110964401            5.83658603e-07           
       2.325784             0.00011014311            5.82055409e-07           
       2.331897            0.000109736784            5.78457208e-07           
       2.338009            0.000110349656            5.89249729e-07           
       2.344122            0.000110686755            5.80899648e-07           
       2.350234            0.000109359052            5.87655059e-07           
       2.356346            0.000109069892            5.82201378e-07           
       2.362459            0.000108156216             5.8165437e-07           
       2.368571            0.000108434538            5.82667235e-07           
       2.374684            0.000108080761            5.80029626e-07           
       2.380796            0.000106476086            5.74520758e-07           
       2.386909            0.000106131379            5.83139305e-07           
       2.393021            0.000105481942            5.71652268e-07           
       2.399134            0.000105137121            5.79051357e-07           
       2.405246            0.000105759913            5.74323379e-07           
       2.411358            0.000104946932            5.73108139e-07           
       2.417471            0.000103715809            5.73061088e-07           
       2.423583            0.000104100211            5.72385355e-07           
       2.429696            0.000103974722            5.76171228e-07           
       2.435808            0.000102940847             5.7111715e-07           
       2.441921            0.000103238036            5.80615062e-07           
       2.448033            0.000103124889            5.81702019e-07           
       2.454146            0.000102533182            5.87620433e-07           
       2.460258            0.000102790855             5.8513053e-07           
       2.466370              0.0001024078             5.9466245e-07           
       2.472483            0.000102033394            5.84406256e-07           
       2.478595            0.000101279202              5.902905e-07           
       2.484708            0.000101890935            5.98101536e-07           
       2.490820            0.000101496294            5.93302565e-07           
       2.496933            0.000101346264            5.96601349e-07           
       2.503045            0.000101355553            5.93381475e-07           
       2.509158            0.000100061555            6.00912958e-07           
       2.515270            0.000100312483            5.98199953e-07           
       2.521382             0.00010051696            5.95064611e-07           
       2.527495            0.000100727858             6.0317787e-07           
       2.533607            0.000100577856            6.02691285e-07           
       2.539720            9.97089313e-05            6.02776421e-07           
       2.545832            9.91735067e-05            6.00380877e-07           
       2.551945            0.000100093259            6.03244905e-07           
       2.558057            9.96435496e-05             6.0826451e-07           
       2.564169            9.87030473e-05            6.01064629e-07           
       2.570282            9.90264613e-05            6.02627674e-07           
       2.576394            9.86528502e-05            6.10833082e-07           
       2.582507            9.88956725e-05            6.02439747e-07           
       2.588619            9.84779562e-05            6.05940278e-07           
       2.594732            9.91988655e-05            6.17263553e-07           
       2.600844            9.79329522e-05            6.02543617e-07           
       2.606957            9.93952399e-05            6.11398465e-07           
       2.613069            9.87841541e-05            6.13023206e-07           
       2.619181            9.81288673e-05            6.13504345e-07           
       2.625294            9.87687651e-05            6.12480064e-07           
       2.631406            9.90038314e-05            6.12960789e-07           
       2.637519             9.8150219e-05            6.17341967e-07           
       2.643631            9.80829348e-05            6.15958224e-07           
       2.649744            9.85408475e-05            6.14721836e-07           
       2.655856            9.78701625e-05            6.19563576e-07           
       2.661969            9.83748098e-05            6.13444052e-07           
       2.668081            9.81261078e-05            6.18379434e-07           
       2.674193            9.74313021e-05            6.19475874e-07           
       2.680306            9.83536919e-05            6.24758631e-07           
       2.686418            9.90147555e-05             6.2400384e-07           
       2.692531            9.83534292e-05            6.19494215e-07           
       2.698643            9.86812486e-05            6.30952373e-07           
       2.704756            9.82604004e-05            6.20460538e-07           
       2.710868            9.77265373e-05             6.2356178e-07           
       2.716981            9.94721602e-05            6.28559033e-07           
       2.723093            9.83214652e-05            6.32630316e-07           
       2.729205            9.79765765e-05            6.23154911e-07           
       2.735318            9.78547371e-05            6.27879408e-07           
       2.741430             9.8949686e-05            6.31901869e-07           
       2.747543            9.80456538e-05            6.30990879e-07           
       2.753655            9.81566222e-05            6.29668858e-07           
       2.759768            9.94644851e-05            6.38676395e-07           
       2.765880             9.7505578e-05            6.26588227e-07           
       2.771993            9.84183431e-05            6.37703156e-07           
       2.778105            9.89427997e-05            6.35974438e-07           
       2.784217            9.88263245e-05             6.3879013e-07           
       2.790330            9.87896551e-05            6.35905486e-07           
       2.796442            9.86478926e-05            6.36739137e-07           
       2.802555            9.93656459e-05            6.43697378e-07           
       2.808667            9.87364192e-05             6.3958784e-07           
       2.814780            9.76755838e-05            6.43601113e-07           
       2.820892            9.79080575e-05            6.35428618e-07           
       2.827005            9.80305669e-05            6.37944755e-07           
       2.833117            9.79171741e-05            6.41080128e-07           
       2.839229            9.83324581e-05            6.40783553e-07           
       2.845342              9.791772e-05            6.43470899e-07           
       2.851454            9.86876409e-05            6.45418908e-07           
       2.857567             9.8644721e-05            6.47856384e-07           
       2.863679            9.80215583e-05            6.47147334e-07           
       2.869792            9.78707728e-05            6.42010869e-07           
       2.875904            9.67556765e-05            6.39639904e-07           
       2.882016            9.63156116e-05            6.44006873e-07           
       2.888129            9.67559174e-05            6.44970885e-07           
       2.894241            9.60025776e-05            6.38312234e-07           
       2.900354            9.65307555e-05             6.4426582e-07           
       2.906466            9.75830374e-05             6.5244977e-07           
       2.912579             9.5944535e-05            6.41465428e-07           
       2.918691            9.58877798e-05            6.43137432e-07           
       2.924804            9.65404205e-05            6.48248989e-07           
       2.930916            9.62199458e-05            6.51118948e-07           
       2.937028            9.60546791e-05            6.59191199e-07           
       2.943141            9.37902031e-05            6.64411659e-07           
       2.949253            9.39057047e-05            6.69398995e-07           
       2.955366            9.28970049e-05            6.79453085e-07           
       2.961478            9.38918087e-05            6.87021216e-07           
       2.967591            9.41681842e-05            6.91736708e-07           
       2.973703              9.265677e-05            6.86311386e-07           
       2.979816            9.19691144e-05             6.8795001e-07           
       2.985928            9.24873378e-05             6.9548268e-07           
       2.992040            9.35068853e-05            7.04086059e-07           
       2.998153             9.2044966e-05            7.00649186e-07           
       3.004265            9.08561316e-05            6.99591635e-07           
       3.010378            9.14433431e-05            7.07675694e-07           
       3.016490            9.20272919e-05            7.15730151e-07           
       3.022603            9.06667456e-05            7.06847329e-07           
       3.028715            9.06584647e-05            7.16992496e-07           
       3.034828            9.01878255e-05             7.1327344e-07           
       3.040940            8.77878641e-05            7.10165361e-07           
       3.047052            8.91189459e-05            7.17196197e-07           
       3.053165             8.8664092e-05            7.17475178e-07           
       3.059277            8.84163254e-05            7.21449966e-07           
       3.065390            8.94513422e-05            7.35397192e-07           
       3.071502            8.91068977e-05            7.51852377e-07           
       3.077615            8.88563231e-05            7.69734746e-07           
       3.083727            8.73312601e-05            7.76423725e-07           
       3.089840            8.74872535e-05            7.86427406e-07           
       3.095952            8.78906707e-05            8.02646156e-07           
       3.102064            8.74873128e-05            8.09796418e-07           
       3.108177            8.84378815e-05            8.25718032e-07           
       3.114289            8.73067184e-05            8.34382539e-07           
       3.120402            8.83973829e-05            8.47652805e-07           
       3.126514            8.75213537e-05            8.53308909e-07           
       3.132627            8.53190569e-05            8.51997405e-07           
       3.138739            8.64711574e-05            8.71738304e-07           
       3.144851            8.60549729e-05            8.81674121e-07           
       3.150964            8.61245065e-05            8.93372549e-07           
       3.157076            8.68480609e-05            9.06687632e-07           
       3.163189            8.45248234e-05            9.04526177e-07           
       3.169301            8.69076162e-05            9.29138537e-07           
       3.175414            8.54963346e-05            9.33599181e-07           
       3.181526            8.43572189e-05            9.41073375e-07           
       3.187639            8.17422748e-05            9.39519572e-07           
       3.193751            8.12703655e-05            9.47733928e-07           
       3.199863            8.04541019e-05            9.55411793e-07           
       3.205976            7.88213204e-05            9.56572179e-07           
       3.212088            7.95048139e-05            9.79985505e-07           
       3.218201            8.02428588e-05            9.96884502e-07           
       3.224313            7.90093564e-05            1.00069454e-06           
       3.230426            7.87465026e-05            1.00841761e-06           
       3.236538            7.75347734e-05            1.02076345e-06           
       3.242651            7.51350414e-05            1.02088875e-06           
       3.248763            7.50489536e-05            1.04128046e-06           
       3.254875            7.47551364e-05            1.04433453e-06           
       3.260988            7.33952525e-05            1.05918832e-06           
       3.267100            7.51664731e-05            1.08143025e-06           
       3.273213            7.41094684e-05            1.09898415e-06           
       3.279325            7.26448035e-05            1.10849893e-06           
       3.285438            7.17853006e-05             1.1249211e-06           
       3.291550            7.28541797e-05             1.1674775e-06           
       3.297663            7.16568515e-05            1.17485604e-06           
       3.303775            6.96179214e-05            1.19011134e-06           
       3.309887            7.04711973e-05            1.22439606e-06           
       3.316000              7.108752e-05            1.24347687e-06           
       3.322112            6.88152199e-05            1.26335238e-06           
       3.328225            7.00434085e-05            1.28550656e-06           
       3.334337            6.63139131e-05            1.29773794e-06           
       3.340450            6.38093831e-05            1.28875064e-06           
       3.346562            6.76883226e-05            1.37961994e-06           
       3.352675            6.65784564e-05            1.38412382e-06           
       3.358787            6.83295005e-05            1.44838424e-06           
       3.364899             6.5878264e-05            1.44807668e-06           
       3.371012            6.49100527e-05            1.45445817e-06           
       3.377124            6.71242539e-05            1.53126341e-06           
       3.383237            6.37463388e-05            1.50625848e-06           
       3.389349             6.3967258e-05            1.56643722e-06           
       3.395462            6.59080651e-05            1.62312138e-06           
       3.401574            6.72398495e-05            1.64121858e-06           
       3.407687            6.26440548e-05             1.6273139e-06           
       3.413799            6.31913008e-05            1.65924974e-06           
       3.419911            6.33451541e-05            1.67183764e-06           
       3.426024            6.32344373e-05            1.70397417e-06           
       3.432136            6.13119424e-05            1.72412743e-06           
       3.438249            6.12167109e-05            1.72501824e-06           
       3.444361            5.87509879e-05            1.71670402e-06           
       3.450474            6.41123081e-05            1.82957052e-06           
       3.456586            6.16764531e-05            1.83279308e-06           
       3.462698             5.9867633e-05            1.84675191e-06           
       3.468811            6.26328431e-05             1.9124165e-06           
       3.474923            5.89363312e-05            1.88039029e-06           
       3.481036            6.10387289e-05            1.96061346e-06           
       3.487148            6.10092555e-05            1.98761566e-06           
       3.493261            6.13224047e-05            2.04730799e-06           
       3.499373             5.9534005e-05            2.06134663e-06           
       3.505486            6.05690693e-05             2.1481492e-06           
       3.511598            5.94267469e-05            2.15805332e-06           
       3.517710            5.94638057e-05            2.22730299e-06           
       3.523823            6.19740031e-05            2.31552165e-06           
       3.529935            5.64198063e-05            2.29192498e-06           
       3.536048            5.91884671e-05            2.42241642e-06           
       3.542160            5.82228692e-05            2.46229771e-06           
       3.548273            6.01606858e-05            2.59819058e-06           
       3.554385            5.60884275e-05            2.61026264e-06           
       3.560498            5.71525407e-05            2.73329251e-06           
       3.566610            5.50867403e-05            2.83263105e-06           
       3.572722            5.72024279e-05            2.98046218e-06           
       3.578835            5.03237557e-05            2.94187555e-06           
       3.584947            5.40551248e-05            3.20548608e-06           
       3.591060            5.16381707e-05            3.35349934e-06           
       3.597172            5.73809246e-05            3.80518394e-06           
       3.603285            5.65586146e-05            4.02282982e-06           
       3.609397            5.13984188e-05            4.32148694e-06           
       3.615510            5.42438931e-05            4.87964292e-06           
       3.621622            5.19008253e-05            5.56438223e-06           
       3.627734            4.98980525e-05            6.71460924e-06           
       3.633847            2.60864046e-05            9.38396526e-06           
