Created as New Dataset,Sample 762 By YargerLab Date Friday, March 20 2026
cm-1,A
4000.00,0.0184
3999.00,0.0183
3998.00,0.0183
3997.00,0.0183
3996.00,0.0182
3995.00,0.0182
3994.00,0.0182
3993.00,0.0183
3992.00,0.0183
3991.00,0.0183
3990.00,0.0182
3989.00,0.0182
3988.00,0.0182
3987.00,0.0182
3986.00,0.0182
3985.00,0.0182
3984.00,0.0182
3983.00,0.0182
3982.00,0.0182
3981.00,0.0182
3980.00,0.0182
3979.00,0.0182
3978.00,0.0182
3977.00,0.0182
3976.00,0.0182
3975.00,0.0182
3974.00,0.0182
3973.00,0.0182
3972.00,0.0181
3971.00,0.0181
3970.00,0.0181
3969.00,0.0181
3968.00,0.0181
3967.00,0.0181
3966.00,0.0181
3965.00,0.0181
3964.00,0.0181
3963.00,0.0181
3962.00,0.0181
3961.00,0.0181
3960.00,0.0181
3959.00,0.0181
3958.00,0.0181
3957.00,0.0181
3956.00,0.0181
3955.00,0.0181
3954.00,0.0181
3953.00,0.0181
3952.00,0.0181
3951.00,0.0181
3950.00,0.0181
3949.00,0.0181
3948.00,0.0181
3947.00,0.0181
3946.00,0.0181
3945.00,0.0181
3944.00,0.0181
3943.00,0.0181
3942.00,0.0181
3941.00,0.0181
3940.00,0.0181
3939.00,0.0181
3938.00,0.0180
3937.00,0.0180
3936.00,0.0180
3935.00,0.0180
3934.00,0.0180
3933.00,0.0180
3932.00,0.0180
3931.00,0.0181
3930.00,0.0181
3929.00,0.0181
3928.00,0.0180
3927.00,0.0180
3926.00,0.0180
3925.00,0.0180
3924.00,0.0179
3923.00,0.0179
3922.00,0.0179
3921.00,0.0179
3920.00,0.0179
3919.00,0.0179
3918.00,0.0179
3917.00,0.0179
3916.00,0.0179
3915.00,0.0178
3914.00,0.0178
3913.00,0.0178
3912.00,0.0178
3911.00,0.0178
3910.00,0.0178
3909.00,0.0178
3908.00,0.0178
3907.00,0.0178
3906.00,0.0179
3905.00,0.0179
3904.00,0.0179
3903.00,0.0179
3902.00,0.0179
3901.00,0.0179
3900.00,0.0180
3899.00,0.0179
3898.00,0.0179
3897.00,0.0178
3896.00,0.0178
3895.00,0.0178
3894.00,0.0178
3893.00,0.0178
3892.00,0.0177
3891.00,0.0177
3890.00,0.0177
3889.00,0.0177
3888.00,0.0177
3887.00,0.0177
3886.00,0.0177
3885.00,0.0177
3884.00,0.0177
3883.00,0.0177
3882.00,0.0177
3881.00,0.0176
3880.00,0.0176
3879.00,0.0176
3878.00,0.0176
3877.00,0.0176
3876.00,0.0176
3875.00,0.0176
3874.00,0.0175
3873.00,0.0175
3872.00,0.0175
3871.00,0.0176
3870.00,0.0176
3869.00,0.0176
3868.00,0.0176
3867.00,0.0176
3866.00,0.0176
3865.00,0.0176
3864.00,0.0175
3863.00,0.0175
3862.00,0.0174
3861.00,0.0174
3860.00,0.0174
3859.00,0.0174
3858.00,0.0175
3857.00,0.0176
3856.00,0.0177
3855.00,0.0178
3854.00,0.0177
3853.00,0.0177
3852.00,0.0177
3851.00,0.0176
3850.00,0.0176
3849.00,0.0175
3848.00,0.0175
3847.00,0.0174
3846.00,0.0173
3845.00,0.0173
3844.00,0.0173
3843.00,0.0173
3842.00,0.0173
3841.00,0.0173
3840.00,0.0173
3839.00,0.0174
3838.00,0.0174
3837.00,0.0174
3836.00,0.0174
3835.00,0.0174
3834.00,0.0173
3833.00,0.0173
3832.00,0.0172
3831.00,0.0172
3830.00,0.0172
3829.00,0.0171
3828.00,0.0171
3827.00,0.0171
3826.00,0.0171
3825.00,0.0170
3824.00,0.0171
3823.00,0.0171
3822.00,0.0171
3821.00,0.0171
3820.00,0.0171
3819.00,0.0171
3818.00,0.0171
3817.00,0.0172
3816.00,0.0171
3815.00,0.0171
3814.00,0.0171
3813.00,0.0171
3812.00,0.0171
3811.00,0.0170
3810.00,0.0170
3809.00,0.0170
3808.00,0.0170
3807.00,0.0169
3806.00,0.0169
3805.00,0.0169
3804.00,0.0169
3803.00,0.0170
3802.00,0.0170
3801.00,0.0169
3800.00,0.0169
3799.00,0.0169
3798.00,0.0169
3797.00,0.0169
3796.00,0.0169
3795.00,0.0169
3794.00,0.0169
3793.00,0.0169
3792.00,0.0169
3791.00,0.0168
3790.00,0.0168
3789.00,0.0168
3788.00,0.0168
3787.00,0.0168
3786.00,0.0168
3785.00,0.0168
3784.00,0.0168
3783.00,0.0168
3782.00,0.0168
3781.00,0.0168
3780.00,0.0168
3779.00,0.0168
3778.00,0.0167
3777.00,0.0167
3776.00,0.0167
3775.00,0.0167
3774.00,0.0167
3773.00,0.0167
3772.00,0.0167
3771.00,0.0166
3770.00,0.0166
3769.00,0.0166
3768.00,0.0166
3767.00,0.0166
3766.00,0.0166
3765.00,0.0166
3764.00,0.0165
3763.00,0.0165
3762.00,0.0165
3761.00,0.0165
3760.00,0.0165
3759.00,0.0165
3758.00,0.0165
3757.00,0.0165
3756.00,0.0165
3755.00,0.0165
3754.00,0.0165
3753.00,0.0165
3752.00,0.0165
3751.00,0.0166
3750.00,0.0166
3749.00,0.0166
3748.00,0.0166
3747.00,0.0167
3746.00,0.0167
3745.00,0.0167
3744.00,0.0166
3743.00,0.0166
3742.00,0.0165
3741.00,0.0165
3740.00,0.0164
3739.00,0.0163
3738.00,0.0162
3737.00,0.0162
3736.00,0.0163
3735.00,0.0163
3734.00,0.0163
3733.00,0.0163
3732.00,0.0163
3731.00,0.0163
3730.00,0.0163
3729.00,0.0163
3728.00,0.0163
3727.00,0.0162
3726.00,0.0162
3725.00,0.0161
3724.00,0.0161
3723.00,0.0162
3722.00,0.0162
3721.00,0.0162
3720.00,0.0162
3719.00,0.0162
3718.00,0.0161
3717.00,0.0161
3716.00,0.0161
3715.00,0.0161
3714.00,0.0161
3713.00,0.0162
3712.00,0.0161
3711.00,0.0161
3710.00,0.0161
3709.00,0.0161
3708.00,0.0161
3707.00,0.0161
3706.00,0.0161
3705.00,0.0160
3704.00,0.0160
3703.00,0.0160
3702.00,0.0160
3701.00,0.0160
3700.00,0.0159
3699.00,0.0159
3698.00,0.0159
3697.00,0.0159
3696.00,0.0159
3695.00,0.0159
3694.00,0.0159
3693.00,0.0159
3692.00,0.0159
3691.00,0.0159
3690.00,0.0159
3689.00,0.0160
3688.00,0.0160
3687.00,0.0160
3686.00,0.0160
3685.00,0.0160
3684.00,0.0159
3683.00,0.0158
3682.00,0.0158
3681.00,0.0157
3680.00,0.0158
3679.00,0.0158
3678.00,0.0159
3677.00,0.0159
3676.00,0.0160
3675.00,0.0160
3674.00,0.0160
3673.00,0.0160
3672.00,0.0161
3671.00,0.0161
3670.00,0.0160
3669.00,0.0159
3668.00,0.0159
3667.00,0.0159
3666.00,0.0158
3665.00,0.0158
3664.00,0.0157
3663.00,0.0157
3662.00,0.0157
3661.00,0.0157
3660.00,0.0157
3659.00,0.0157
3658.00,0.0157
3657.00,0.0157
3656.00,0.0157
3655.00,0.0157
3654.00,0.0157
3653.00,0.0156
3652.00,0.0156
3651.00,0.0156
3650.00,0.0156
3649.00,0.0156
3648.00,0.0156
3647.00,0.0157
3646.00,0.0157
3645.00,0.0157
3644.00,0.0156
3643.00,0.0156
3642.00,0.0155
3641.00,0.0155
3640.00,0.0154
3639.00,0.0154
3638.00,0.0154
3637.00,0.0154
3636.00,0.0154
3635.00,0.0153
3634.00,0.0153
3633.00,0.0153
3632.00,0.0154
3631.00,0.0154
3630.00,0.0154
3629.00,0.0154
3628.00,0.0154
3627.00,0.0154
3626.00,0.0154
3625.00,0.0154
3624.00,0.0154
3623.00,0.0153
3622.00,0.0153
3621.00,0.0153
3620.00,0.0153
3619.00,0.0153
3618.00,0.0153
3617.00,0.0153
3616.00,0.0153
3615.00,0.0153
3614.00,0.0153
3613.00,0.0152
3612.00,0.0152
3611.00,0.0152
3610.00,0.0152
3609.00,0.0152
3608.00,0.0152
3607.00,0.0151
3606.00,0.0151
3605.00,0.0151
3604.00,0.0151
3603.00,0.0150
3602.00,0.0150
3601.00,0.0150
3600.00,0.0149
3599.00,0.0149
3598.00,0.0149
3597.00,0.0150
3596.00,0.0150
3595.00,0.0150
3594.00,0.0149
3593.00,0.0149
3592.00,0.0149
3591.00,0.0149
3590.00,0.0149
3589.00,0.0149
3588.00,0.0150
3587.00,0.0150
3586.00,0.0150
3585.00,0.0150
3584.00,0.0150
3583.00,0.0150
3582.00,0.0149
3581.00,0.0149
3580.00,0.0149
3579.00,0.0149
3578.00,0.0149
3577.00,0.0149
3576.00,0.0149
3575.00,0.0149
3574.00,0.0149
3573.00,0.0148
3572.00,0.0148
3571.00,0.0148
3570.00,0.0148
3569.00,0.0148
3568.00,0.0148
3567.00,0.0149
3566.00,0.0149
3565.00,0.0149
3564.00,0.0149
3563.00,0.0149
3562.00,0.0148
3561.00,0.0148
3560.00,0.0148
3559.00,0.0147
3558.00,0.0147
3557.00,0.0147
3556.00,0.0147
3555.00,0.0147
3554.00,0.0147
3553.00,0.0147
3552.00,0.0147
3551.00,0.0147
3550.00,0.0147
3549.00,0.0147
3548.00,0.0147
3547.00,0.0147
3546.00,0.0146
3545.00,0.0146
3544.00,0.0146
3543.00,0.0146
3542.00,0.0146
3541.00,0.0146
3540.00,0.0146
3539.00,0.0146
3538.00,0.0146
3537.00,0.0146
3536.00,0.0146
3535.00,0.0146
3534.00,0.0146
3533.00,0.0146
3532.00,0.0146
3531.00,0.0146
3530.00,0.0146
3529.00,0.0146
3528.00,0.0146
3527.00,0.0146
3526.00,0.0146
3525.00,0.0146
3524.00,0.0146
3523.00,0.0146
3522.00,0.0146
3521.00,0.0146
3520.00,0.0146
3519.00,0.0146
3518.00,0.0145
3517.00,0.0145
3516.00,0.0145
3515.00,0.0145
3514.00,0.0145
3513.00,0.0145
3512.00,0.0145
3511.00,0.0146
3510.00,0.0146
3509.00,0.0146
3508.00,0.0146
3507.00,0.0146
3506.00,0.0145
3505.00,0.0145
3504.00,0.0145
3503.00,0.0145
3502.00,0.0145
3501.00,0.0145
3500.00,0.0145
3499.00,0.0146
3498.00,0.0146
3497.00,0.0146
3496.00,0.0145
3495.00,0.0146
3494.00,0.0146
3493.00,0.0146
3492.00,0.0146
3491.00,0.0146
3490.00,0.0147
3489.00,0.0147
3488.00,0.0147
3487.00,0.0147
3486.00,0.0147
3485.00,0.0147
3484.00,0.0148
3483.00,0.0148
3482.00,0.0148
3481.00,0.0148
3480.00,0.0148
3479.00,0.0148
3478.00,0.0148
3477.00,0.0149
3476.00,0.0149
3475.00,0.0149
3474.00,0.0149
3473.00,0.0150
3472.00,0.0150
3471.00,0.0150
3470.00,0.0151
3469.00,0.0151
3468.00,0.0151
3467.00,0.0151
3466.00,0.0152
3465.00,0.0152
3464.00,0.0153
3463.00,0.0153
3462.00,0.0153
3461.00,0.0153
3460.00,0.0154
3459.00,0.0154
3458.00,0.0155
3457.00,0.0155
3456.00,0.0156
3455.00,0.0156
3454.00,0.0156
3453.00,0.0157
3452.00,0.0157
3451.00,0.0158
3450.00,0.0158
3449.00,0.0159
3448.00,0.0160
3447.00,0.0160
3446.00,0.0161
3445.00,0.0162
3444.00,0.0162
3443.00,0.0163
3442.00,0.0163
3441.00,0.0164
3440.00,0.0164
3439.00,0.0165
3438.00,0.0166
3437.00,0.0166
3436.00,0.0167
3435.00,0.0168
3434.00,0.0169
3433.00,0.0170
3432.00,0.0171
3431.00,0.0172
3430.00,0.0173
3429.00,0.0174
3428.00,0.0175
3427.00,0.0176
3426.00,0.0177
3425.00,0.0179
3424.00,0.0180
3423.00,0.0181
3422.00,0.0182
3421.00,0.0184
3420.00,0.0185
3419.00,0.0187
3418.00,0.0188
3417.00,0.0190
3416.00,0.0192
3415.00,0.0194
3414.00,0.0196
3413.00,0.0198
3412.00,0.0200
3411.00,0.0202
3410.00,0.0205
3409.00,0.0207
3408.00,0.0210
3407.00,0.0213
3406.00,0.0216
3405.00,0.0218
3404.00,0.0221
3403.00,0.0224
3402.00,0.0227
3401.00,0.0231
3400.00,0.0235
3399.00,0.0240
3398.00,0.0245
3397.00,0.0250
3396.00,0.0255
3395.00,0.0261
3394.00,0.0266
3393.00,0.0272
3392.00,0.0279
3391.00,0.0286
3390.00,0.0294
3389.00,0.0302
3388.00,0.0311
3387.00,0.0321
3386.00,0.0331
3385.00,0.0342
3384.00,0.0353
3383.00,0.0366
3382.00,0.0379
3381.00,0.0392
3380.00,0.0407
3379.00,0.0422
3378.00,0.0437
3377.00,0.0453
3376.00,0.0470
3375.00,0.0486
3374.00,0.0501
3373.00,0.0517
3372.00,0.0531
3371.00,0.0544
3370.00,0.0557
3369.00,0.0569
3368.00,0.0579
3367.00,0.0589
3366.00,0.0597
3365.00,0.0604
3364.00,0.0609
3363.00,0.0612
3362.00,0.0614
3361.00,0.0616
3360.00,0.0616
3359.00,0.0616
3358.00,0.0615
3357.00,0.0613
3356.00,0.0611
3355.00,0.0609
3354.00,0.0606
3353.00,0.0604
3352.00,0.0601
3351.00,0.0600
3350.00,0.0598
3349.00,0.0598
3348.00,0.0598
3347.00,0.0599
3346.00,0.0600
3345.00,0.0601
3344.00,0.0604
3343.00,0.0607
3342.00,0.0612
3341.00,0.0618
3340.00,0.0626
3339.00,0.0635
3338.00,0.0647
3337.00,0.0660
3336.00,0.0676
3335.00,0.0694
3334.00,0.0713
3333.00,0.0735
3332.00,0.0758
3331.00,0.0781
3330.00,0.0804
3329.00,0.0826
3328.00,0.0846
3327.00,0.0864
3326.00,0.0877
3325.00,0.0887
3324.00,0.0893
3323.00,0.0893
3322.00,0.0890
3321.00,0.0882
3320.00,0.0871
3319.00,0.0857
3318.00,0.0842
3317.00,0.0825
3316.00,0.0808
3315.00,0.0791
3314.00,0.0774
3313.00,0.0758
3312.00,0.0742
3311.00,0.0727
3310.00,0.0713
3309.00,0.0699
3308.00,0.0687
3307.00,0.0677
3306.00,0.0668
3305.00,0.0662
3304.00,0.0657
3303.00,0.0652
3302.00,0.0649
3301.00,0.0646
3300.00,0.0643
3299.00,0.0641
3298.00,0.0639
3297.00,0.0638
3296.00,0.0637
3295.00,0.0636
3294.00,0.0635
3293.00,0.0634
3292.00,0.0633
3291.00,0.0632
3290.00,0.0630
3289.00,0.0628
3288.00,0.0625
3287.00,0.0621
3286.00,0.0617
3285.00,0.0613
3284.00,0.0610
3283.00,0.0606
3282.00,0.0603
3281.00,0.0600
3280.00,0.0597
3279.00,0.0595
3278.00,0.0593
3277.00,0.0591
3276.00,0.0589
3275.00,0.0588
3274.00,0.0588
3273.00,0.0588
3272.00,0.0589
3271.00,0.0590
3270.00,0.0592
3269.00,0.0595
3268.00,0.0598
3267.00,0.0600
3266.00,0.0603
3265.00,0.0606
3264.00,0.0609
3263.00,0.0611
3262.00,0.0613
3261.00,0.0615
3260.00,0.0617
3259.00,0.0618
3258.00,0.0619
3257.00,0.0620
3256.00,0.0620
3255.00,0.0620
3254.00,0.0621
3253.00,0.0621
3252.00,0.0621
3251.00,0.0621
3250.00,0.0621
3249.00,0.0621
3248.00,0.0621
3247.00,0.0622
3246.00,0.0624
3245.00,0.0625
3244.00,0.0627
3243.00,0.0629
3242.00,0.0631
3241.00,0.0633
3240.00,0.0636
3239.00,0.0638
3238.00,0.0641
3237.00,0.0643
3236.00,0.0646
3235.00,0.0648
3234.00,0.0651
3233.00,0.0655
3232.00,0.0660
3231.00,0.0664
3230.00,0.0669
3229.00,0.0674
3228.00,0.0678
3227.00,0.0683
3226.00,0.0688
3225.00,0.0693
3224.00,0.0698
3223.00,0.0703
3222.00,0.0709
3221.00,0.0714
3220.00,0.0720
3219.00,0.0726
3218.00,0.0732
3217.00,0.0739
3216.00,0.0745
3215.00,0.0751
3214.00,0.0758
3213.00,0.0764
3212.00,0.0771
3211.00,0.0777
3210.00,0.0783
3209.00,0.0789
3208.00,0.0794
3207.00,0.0799
3206.00,0.0804
3205.00,0.0809
3204.00,0.0813
3203.00,0.0817
3202.00,0.0821
3201.00,0.0825
3200.00,0.0829
3199.00,0.0832
3198.00,0.0836
3197.00,0.0840
3196.00,0.0844
3195.00,0.0848
3194.00,0.0852
3193.00,0.0857
3192.00,0.0861
3191.00,0.0866
3190.00,0.0871
3189.00,0.0877
3188.00,0.0883
3187.00,0.0888
3186.00,0.0894
3185.00,0.0900
3184.00,0.0906
3183.00,0.0912
3182.00,0.0918
3181.00,0.0924
3180.00,0.0930
3179.00,0.0936
3178.00,0.0943
3177.00,0.0950
3176.00,0.0957
3175.00,0.0964
3174.00,0.0971
3173.00,0.0978
3172.00,0.0985
3171.00,0.0993
3170.00,0.1000
3169.00,0.1008
3168.00,0.1015
3167.00,0.1022
3166.00,0.1029
3165.00,0.1036
3164.00,0.1041
3163.00,0.1046
3162.00,0.1049
3161.00,0.1051
3160.00,0.1052
3159.00,0.1052
3158.00,0.1051
3157.00,0.1050
3156.00,0.1048
3155.00,0.1046
3154.00,0.1044
3153.00,0.1041
3152.00,0.1039
3151.00,0.1037
3150.00,0.1034
3149.00,0.1031
3148.00,0.1028
3147.00,0.1024
3146.00,0.1021
3145.00,0.1017
3144.00,0.1013
3143.00,0.1008
3142.00,0.1004
3141.00,0.0999
3140.00,0.0994
3139.00,0.0990
3138.00,0.0986
3137.00,0.0982
3136.00,0.0978
3135.00,0.0975
3134.00,0.0971
3133.00,0.0967
3132.00,0.0963
3131.00,0.0959
3130.00,0.0955
3129.00,0.0952
3128.00,0.0950
3127.00,0.0947
3126.00,0.0944
3125.00,0.0942
3124.00,0.0939
3123.00,0.0936
3122.00,0.0934
3121.00,0.0932
3120.00,0.0931
3119.00,0.0930
3118.00,0.0931
3117.00,0.0932
3116.00,0.0933
3115.00,0.0936
3114.00,0.0938
3113.00,0.0940
3112.00,0.0941
3111.00,0.0941
3110.00,0.0940
3109.00,0.0939
3108.00,0.0937
3107.00,0.0934
3106.00,0.0929
3105.00,0.0923
3104.00,0.0915
3103.00,0.0907
3102.00,0.0899
3101.00,0.0891
3100.00,0.0883
3099.00,0.0877
3098.00,0.0871
3097.00,0.0865
3096.00,0.0860
3095.00,0.0854
3094.00,0.0848
3093.00,0.0843
3092.00,0.0837
3091.00,0.0830
3090.00,0.0824
3089.00,0.0818
3088.00,0.0811
3087.00,0.0805
3086.00,0.0799
3085.00,0.0793
3084.00,0.0787
3083.00,0.0782
3082.00,0.0776
3081.00,0.0771
3080.00,0.0766
3079.00,0.0761
3078.00,0.0757
3077.00,0.0753
3076.00,0.0749
3075.00,0.0746
3074.00,0.0743
3073.00,0.0741
3072.00,0.0739
3071.00,0.0737
3070.00,0.0736
3069.00,0.0735
3068.00,0.0735
3067.00,0.0734
3066.00,0.0734
3065.00,0.0733
3064.00,0.0732
3063.00,0.0730
3062.00,0.0728
3061.00,0.0725
3060.00,0.0722
3059.00,0.0717
3058.00,0.0712
3057.00,0.0706
3056.00,0.0701
3055.00,0.0696
3054.00,0.0690
3053.00,0.0685
3052.00,0.0681
3051.00,0.0676
3050.00,0.0672
3049.00,0.0667
3048.00,0.0663
3047.00,0.0659
3046.00,0.0656
3045.00,0.0653
3044.00,0.0651
3043.00,0.0651
3042.00,0.0652
3041.00,0.0654
3040.00,0.0657
3039.00,0.0661
3038.00,0.0663
3037.00,0.0665
3036.00,0.0665
3035.00,0.0664
3034.00,0.0661
3033.00,0.0658
3032.00,0.0654
3031.00,0.0649
3030.00,0.0645
3029.00,0.0639
3028.00,0.0634
3027.00,0.0629
3026.00,0.0624
3025.00,0.0619
3024.00,0.0614
3023.00,0.0610
3022.00,0.0606
3021.00,0.0601
3020.00,0.0598
3019.00,0.0594
3018.00,0.0590
3017.00,0.0587
3016.00,0.0583
3015.00,0.0580
3014.00,0.0578
3013.00,0.0576
3012.00,0.0575
3011.00,0.0574
3010.00,0.0573
3009.00,0.0572
3008.00,0.0571
3007.00,0.0569
3006.00,0.0567
3005.00,0.0564
3004.00,0.0562
3003.00,0.0560
3002.00,0.0558
3001.00,0.0555
3000.00,0.0553
2999.00,0.0550
2998.00,0.0548
2997.00,0.0545
2996.00,0.0543
2995.00,0.0541
2994.00,0.0538
2993.00,0.0536
2992.00,0.0534
2991.00,0.0533
2990.00,0.0531
2989.00,0.0530
2988.00,0.0529
2987.00,0.0528
2986.00,0.0527
2985.00,0.0526
2984.00,0.0525
2983.00,0.0524
2982.00,0.0523
2981.00,0.0521
2980.00,0.0519
2979.00,0.0517
2978.00,0.0514
2977.00,0.0511
2976.00,0.0508
2975.00,0.0505
2974.00,0.0503
2973.00,0.0500
2972.00,0.0497
2971.00,0.0494
2970.00,0.0491
2969.00,0.0488
2968.00,0.0484
2967.00,0.0481
2966.00,0.0477
2965.00,0.0474
2964.00,0.0471
2963.00,0.0468
2962.00,0.0465
2961.00,0.0463
2960.00,0.0461
2959.00,0.0458
2958.00,0.0456
2957.00,0.0454
2956.00,0.0452
2955.00,0.0450
2954.00,0.0447
2953.00,0.0445
2952.00,0.0443
2951.00,0.0441
2950.00,0.0439
2949.00,0.0437
2948.00,0.0435
2947.00,0.0434
2946.00,0.0432
2945.00,0.0431
2944.00,0.0431
2943.00,0.0430
2942.00,0.0430
2941.00,0.0431
2940.00,0.0431
2939.00,0.0432
2938.00,0.0432
2937.00,0.0433
2936.00,0.0434
2935.00,0.0435
2934.00,0.0436
2933.00,0.0437
2932.00,0.0437
2931.00,0.0437
2930.00,0.0437
2929.00,0.0436
2928.00,0.0435
2927.00,0.0434
2926.00,0.0432
2925.00,0.0430
2924.00,0.0428
2923.00,0.0425
2922.00,0.0422
2921.00,0.0419
2920.00,0.0416
2919.00,0.0412
2918.00,0.0409
2917.00,0.0406
2916.00,0.0403
2915.00,0.0400
2914.00,0.0397
2913.00,0.0395
2912.00,0.0393
2911.00,0.0391
2910.00,0.0389
2909.00,0.0388
2908.00,0.0386
2907.00,0.0385
2906.00,0.0383
2905.00,0.0382
2904.00,0.0381
2903.00,0.0380
2902.00,0.0379
2901.00,0.0379
2900.00,0.0380
2899.00,0.0380
2898.00,0.0380
2897.00,0.0381
2896.00,0.0382
2895.00,0.0383
2894.00,0.0385
2893.00,0.0387
2892.00,0.0389
2891.00,0.0391
2890.00,0.0393
2889.00,0.0395
2888.00,0.0397
2887.00,0.0399
2886.00,0.0400
2885.00,0.0401
2884.00,0.0402
2883.00,0.0403
2882.00,0.0403
2881.00,0.0403
2880.00,0.0402
2879.00,0.0401
2878.00,0.0400
2877.00,0.0397
2876.00,0.0395
2875.00,0.0391
2874.00,0.0388
2873.00,0.0386
2872.00,0.0384
2871.00,0.0382
2870.00,0.0379
2869.00,0.0376
2868.00,0.0373
2867.00,0.0369
2866.00,0.0365
2865.00,0.0361
2864.00,0.0358
2863.00,0.0354
2862.00,0.0350
2861.00,0.0347
2860.00,0.0344
2859.00,0.0341
2858.00,0.0339
2857.00,0.0337
2856.00,0.0336
2855.00,0.0334
2854.00,0.0333
2853.00,0.0332
2852.00,0.0331
2851.00,0.0330
2850.00,0.0329
2849.00,0.0328
2848.00,0.0328
2847.00,0.0328
2846.00,0.0328
2845.00,0.0328
2844.00,0.0329
2843.00,0.0328
2842.00,0.0328
2841.00,0.0328
2840.00,0.0327
2839.00,0.0327
2838.00,0.0327
2837.00,0.0327
2836.00,0.0327
2835.00,0.0327
2834.00,0.0327
2833.00,0.0327
2832.00,0.0326
2831.00,0.0326
2830.00,0.0325
2829.00,0.0325
2828.00,0.0325
2827.00,0.0324
2826.00,0.0324
2825.00,0.0324
2824.00,0.0324
2823.00,0.0324
2822.00,0.0325
2821.00,0.0325
2820.00,0.0326
2819.00,0.0327
2818.00,0.0327
2817.00,0.0328
2816.00,0.0329
2815.00,0.0331
2814.00,0.0332
2813.00,0.0334
2812.00,0.0336
2811.00,0.0337
2810.00,0.0340
2809.00,0.0342
2808.00,0.0345
2807.00,0.0348
2806.00,0.0351
2805.00,0.0354
2804.00,0.0357
2803.00,0.0360
2802.00,0.0363
2801.00,0.0366
2800.00,0.0369
2799.00,0.0373
2798.00,0.0376
2797.00,0.0378
2796.00,0.0381
2795.00,0.0383
2794.00,0.0384
2793.00,0.0385
2792.00,0.0386
2791.00,0.0386
2790.00,0.0385
2789.00,0.0384
2788.00,0.0383
2787.00,0.0382
2786.00,0.0379
2785.00,0.0377
2784.00,0.0374
2783.00,0.0371
2782.00,0.0367
2781.00,0.0364
2780.00,0.0361
2779.00,0.0357
2778.00,0.0354
2777.00,0.0351
2776.00,0.0347
2775.00,0.0344
2774.00,0.0342
2773.00,0.0339
2772.00,0.0337
2771.00,0.0335
2770.00,0.0332
2769.00,0.0330
2768.00,0.0328
2767.00,0.0325
2766.00,0.0323
2765.00,0.0321
2764.00,0.0318
2763.00,0.0316
2762.00,0.0314
2761.00,0.0312
2760.00,0.0309
2759.00,0.0307
2758.00,0.0306
2757.00,0.0304
2756.00,0.0303
2755.00,0.0301
2754.00,0.0300
2753.00,0.0299
2752.00,0.0298
2751.00,0.0296
2750.00,0.0295
2749.00,0.0295
2748.00,0.0294
2747.00,0.0294
2746.00,0.0294
2745.00,0.0294
2744.00,0.0294
2743.00,0.0294
2742.00,0.0294
2741.00,0.0294
2740.00,0.0294
2739.00,0.0295
2738.00,0.0295
2737.00,0.0296
2736.00,0.0297
2735.00,0.0298
2734.00,0.0299
2733.00,0.0299
2732.00,0.0300
2731.00,0.0301
2730.00,0.0302
2729.00,0.0302
2728.00,0.0303
2727.00,0.0303
2726.00,0.0304
2725.00,0.0304
2724.00,0.0305
2723.00,0.0306
2722.00,0.0307
2721.00,0.0307
2720.00,0.0308
2719.00,0.0308
2718.00,0.0308
2717.00,0.0308
2716.00,0.0308
2715.00,0.0308
2714.00,0.0307
2713.00,0.0307
2712.00,0.0306
2711.00,0.0305
2710.00,0.0304
2709.00,0.0303
2708.00,0.0302
2707.00,0.0301
2706.00,0.0300
2705.00,0.0299
2704.00,0.0298
2703.00,0.0297
2702.00,0.0296
2701.00,0.0295
2700.00,0.0294
2699.00,0.0294
2698.00,0.0293
2697.00,0.0292
2696.00,0.0291
2695.00,0.0290
2694.00,0.0289
2693.00,0.0289
2692.00,0.0288
2691.00,0.0287
2690.00,0.0287
2689.00,0.0286
2688.00,0.0286
2687.00,0.0285
2686.00,0.0285
2685.00,0.0285
2684.00,0.0285
2683.00,0.0285
2682.00,0.0286
2681.00,0.0286
2680.00,0.0286
2679.00,0.0287
2678.00,0.0287
2677.00,0.0288
2676.00,0.0289
2675.00,0.0289
2674.00,0.0290
2673.00,0.0290
2672.00,0.0291
2671.00,0.0291
2670.00,0.0292
2669.00,0.0292
2668.00,0.0292
2667.00,0.0292
2666.00,0.0291
2665.00,0.0291
2664.00,0.0290
2663.00,0.0289
2662.00,0.0287
2661.00,0.0286
2660.00,0.0284
2659.00,0.0282
2658.00,0.0280
2657.00,0.0279
2656.00,0.0277
2655.00,0.0275
2654.00,0.0273
2653.00,0.0271
2652.00,0.0269
2651.00,0.0267
2650.00,0.0265
2649.00,0.0263
2648.00,0.0262
2647.00,0.0260
2646.00,0.0259
2645.00,0.0257
2644.00,0.0256
2643.00,0.0255
2642.00,0.0254
2641.00,0.0252
2640.00,0.0251
2639.00,0.0250
2638.00,0.0249
2637.00,0.0248
2636.00,0.0248
2635.00,0.0247
2634.00,0.0247
2633.00,0.0247
2632.00,0.0247
2631.00,0.0247
2630.00,0.0247
2629.00,0.0247
2628.00,0.0248
2627.00,0.0248
2626.00,0.0248
2625.00,0.0249
2624.00,0.0249
2623.00,0.0250
2622.00,0.0251
2621.00,0.0251
2620.00,0.0252
2619.00,0.0253
2618.00,0.0253
2617.00,0.0254
2616.00,0.0254
2615.00,0.0255
2614.00,0.0256
2613.00,0.0256
2612.00,0.0257
2611.00,0.0257
2610.00,0.0258
2609.00,0.0259
2608.00,0.0260
2607.00,0.0261
2606.00,0.0262
2605.00,0.0263
2604.00,0.0264
2603.00,0.0265
2602.00,0.0266
2601.00,0.0267
2600.00,0.0268
2599.00,0.0270
2598.00,0.0271
2597.00,0.0272
2596.00,0.0273
2595.00,0.0274
2594.00,0.0274
2593.00,0.0275
2592.00,0.0276
2591.00,0.0276
2590.00,0.0276
2589.00,0.0276
2588.00,0.0277
2587.00,0.0277
2586.00,0.0276
2585.00,0.0276
2584.00,0.0275
2583.00,0.0274
2582.00,0.0273
2581.00,0.0272
2580.00,0.0270
2579.00,0.0269
2578.00,0.0268
2577.00,0.0267
2576.00,0.0265
2575.00,0.0264
2574.00,0.0263
2573.00,0.0261
2572.00,0.0259
2571.00,0.0258
2570.00,0.0257
2569.00,0.0255
2568.00,0.0254
2567.00,0.0253
2566.00,0.0252
2565.00,0.0250
2564.00,0.0249
2563.00,0.0248
2562.00,0.0246
2561.00,0.0245
2560.00,0.0243
2559.00,0.0242
2558.00,0.0240
2557.00,0.0239
2556.00,0.0238
2555.00,0.0237
2554.00,0.0235
2553.00,0.0234
2552.00,0.0233
2551.00,0.0232
2550.00,0.0231
2549.00,0.0230
2548.00,0.0228
2547.00,0.0227
2546.00,0.0226
2545.00,0.0225
2544.00,0.0224
2543.00,0.0223
2542.00,0.0222
2541.00,0.0222
2540.00,0.0221
2539.00,0.0221
2538.00,0.0220
2537.00,0.0220
2536.00,0.0220
2535.00,0.0220
2534.00,0.0219
2533.00,0.0219
2532.00,0.0218
2531.00,0.0218
2530.00,0.0217
2529.00,0.0217
2528.00,0.0217
2527.00,0.0217
2526.00,0.0217
2525.00,0.0216
2524.00,0.0216
2523.00,0.0216
2522.00,0.0217
2521.00,0.0217
2520.00,0.0218
2519.00,0.0218
2518.00,0.0219
2517.00,0.0219
2516.00,0.0220
2515.00,0.0220
2514.00,0.0220
2513.00,0.0220
2512.00,0.0220
2511.00,0.0220
2510.00,0.0220
2509.00,0.0220
2508.00,0.0220
2507.00,0.0220
2506.00,0.0220
2505.00,0.0221
2504.00,0.0221
2503.00,0.0222
2502.00,0.0224
2501.00,0.0225
2500.00,0.0226
2499.00,0.0228
2498.00,0.0229
2497.00,0.0230
2496.00,0.0230
2495.00,0.0230
2494.00,0.0230
2493.00,0.0230
2492.00,0.0229
2491.00,0.0229
2490.00,0.0228
2489.00,0.0228
2488.00,0.0228
2487.00,0.0228
2486.00,0.0228
2485.00,0.0228
2484.00,0.0227
2483.00,0.0227
2482.00,0.0227
2481.00,0.0226
2480.00,0.0226
2479.00,0.0226
2478.00,0.0226
2477.00,0.0225
2476.00,0.0225
2475.00,0.0224
2474.00,0.0223
2473.00,0.0223
2472.00,0.0222
2471.00,0.0222
2470.00,0.0221
2469.00,0.0221
2468.00,0.0221
2467.00,0.0221
2466.00,0.0220
2465.00,0.0220
2464.00,0.0219
2463.00,0.0219
2462.00,0.0218
2461.00,0.0218
2460.00,0.0217
2459.00,0.0217
2458.00,0.0216
2457.00,0.0215
2456.00,0.0215
2455.00,0.0214
2454.00,0.0213
2453.00,0.0212
2452.00,0.0212
2451.00,0.0211
2450.00,0.0210
2449.00,0.0209
2448.00,0.0208
2447.00,0.0207
2446.00,0.0206
2445.00,0.0204
2444.00,0.0203
2443.00,0.0202
2442.00,0.0200
2441.00,0.0199
2440.00,0.0198
2439.00,0.0198
2438.00,0.0197
2437.00,0.0195
2436.00,0.0195
2435.00,0.0194
2434.00,0.0193
2433.00,0.0193
2432.00,0.0192
2431.00,0.0192
2430.00,0.0191
2429.00,0.0191
2428.00,0.0191
2427.00,0.0190
2426.00,0.0190
2425.00,0.0190
2424.00,0.0190
2423.00,0.0190
2422.00,0.0190
2421.00,0.0190
2420.00,0.0189
2419.00,0.0189
2418.00,0.0189
2417.00,0.0189
2416.00,0.0189
2415.00,0.0189
2414.00,0.0189
2413.00,0.0189
2412.00,0.0189
2411.00,0.0189
2410.00,0.0188
2409.00,0.0187
2408.00,0.0186
2407.00,0.0186
2406.00,0.0185
2405.00,0.0185
2404.00,0.0185
2403.00,0.0185
2402.00,0.0184
2401.00,0.0184
2400.00,0.0184
2399.00,0.0183
2398.00,0.0183
2397.00,0.0183
2396.00,0.0182
2395.00,0.0181
2394.00,0.0181
2393.00,0.0180
2392.00,0.0179
2391.00,0.0179
2390.00,0.0178
2389.00,0.0178
2388.00,0.0177
2387.00,0.0177
2386.00,0.0176
2385.00,0.0175
2384.00,0.0175
2383.00,0.0175
2382.00,0.0174
2381.00,0.0174
2380.00,0.0174
2379.00,0.0175
2378.00,0.0175
2377.00,0.0175
2376.00,0.0175
2375.00,0.0174
2374.00,0.0174
2373.00,0.0174
2372.00,0.0175
2371.00,0.0175
2370.00,0.0175
2369.00,0.0174
2368.00,0.0174
2367.00,0.0173
2366.00,0.0173
2365.00,0.0173
2364.00,0.0173
2363.00,0.0173
2362.00,0.0172
2361.00,0.0172
2360.00,0.0172
2359.00,0.0171
2358.00,0.0171
2357.00,0.0172
2356.00,0.0172
2355.00,0.0173
2354.00,0.0173
2353.00,0.0173
2352.00,0.0173
2351.00,0.0172
2350.00,0.0171
2349.00,0.0171
2348.00,0.0171
2347.00,0.0170
2346.00,0.0169
2345.00,0.0168
2344.00,0.0168
2343.00,0.0169
2342.00,0.0169
2341.00,0.0169
2340.00,0.0170
2339.00,0.0170
2338.00,0.0170
2337.00,0.0171
2336.00,0.0170
2335.00,0.0170
2334.00,0.0169
2333.00,0.0169
2332.00,0.0169
2331.00,0.0169
2330.00,0.0169
2329.00,0.0170
2328.00,0.0171
2327.00,0.0172
2326.00,0.0171
2325.00,0.0170
2324.00,0.0169
2323.00,0.0168
2322.00,0.0168
2321.00,0.0168
2320.00,0.0169
2319.00,0.0169
2318.00,0.0169
2317.00,0.0168
2316.00,0.0168
2315.00,0.0168
2314.00,0.0168
2313.00,0.0168
2312.00,0.0168
2311.00,0.0168
2310.00,0.0168
2309.00,0.0168
2308.00,0.0168
2307.00,0.0168
2306.00,0.0168
2305.00,0.0167
2304.00,0.0167
2303.00,0.0166
2302.00,0.0166
2301.00,0.0166
2300.00,0.0165
2299.00,0.0165
2298.00,0.0165
2297.00,0.0166
2296.00,0.0166
2295.00,0.0166
2294.00,0.0167
2293.00,0.0167
2292.00,0.0167
2291.00,0.0167
2290.00,0.0166
2289.00,0.0166
2288.00,0.0166
2287.00,0.0165
2286.00,0.0165
2285.00,0.0164
2284.00,0.0164
2283.00,0.0164
2282.00,0.0164
2281.00,0.0164
2280.00,0.0164
2279.00,0.0164
2278.00,0.0164
2277.00,0.0164
2276.00,0.0164
2275.00,0.0164
2274.00,0.0163
2273.00,0.0163
2272.00,0.0163
2271.00,0.0163
2270.00,0.0162
2269.00,0.0162
2268.00,0.0161
2267.00,0.0160
2266.00,0.0160
2265.00,0.0160
2264.00,0.0160
2263.00,0.0160
2262.00,0.0159
2261.00,0.0159
2260.00,0.0159
2259.00,0.0159
2258.00,0.0158
2257.00,0.0157
2256.00,0.0157
2255.00,0.0157
2254.00,0.0157
2253.00,0.0157
2252.00,0.0157
2251.00,0.0157
2250.00,0.0157
2249.00,0.0157
2248.00,0.0157
2247.00,0.0157
2246.00,0.0157
2245.00,0.0157
2244.00,0.0157
2243.00,0.0157
2242.00,0.0156
2241.00,0.0156
2240.00,0.0156
2239.00,0.0156
2238.00,0.0155
2237.00,0.0154
2236.00,0.0154
2235.00,0.0153
2234.00,0.0154
2233.00,0.0154
2232.00,0.0154
2231.00,0.0154
2230.00,0.0153
2229.00,0.0153
2228.00,0.0152
2227.00,0.0152
2226.00,0.0152
2225.00,0.0151
2224.00,0.0151
2223.00,0.0149
2222.00,0.0148
2221.00,0.0148
2220.00,0.0148
2219.00,0.0149
2218.00,0.0149
2217.00,0.0150
2216.00,0.0150
2215.00,0.0150
2214.00,0.0149
2213.00,0.0149
2212.00,0.0149
2211.00,0.0149
2210.00,0.0149
2209.00,0.0149
2208.00,0.0149
2207.00,0.0150
2206.00,0.0149
2205.00,0.0148
2204.00,0.0147
2203.00,0.0146
2202.00,0.0145
2201.00,0.0145
2200.00,0.0146
2199.00,0.0148
2198.00,0.0149
2197.00,0.0150
2196.00,0.0150
2195.00,0.0150
2194.00,0.0149
2193.00,0.0149
2192.00,0.0149
2191.00,0.0149
2190.00,0.0148
2189.00,0.0148
2188.00,0.0147
2187.00,0.0147
2186.00,0.0146
2185.00,0.0146
2184.00,0.0146
2183.00,0.0146
2182.00,0.0146
2181.00,0.0146
2180.00,0.0146
2179.00,0.0145
2178.00,0.0143
2177.00,0.0142
2176.00,0.0143
2175.00,0.0143
2174.00,0.0144
2173.00,0.0145
2172.00,0.0146
2171.00,0.0146
2170.00,0.0145
2169.00,0.0144
2168.00,0.0143
2167.00,0.0143
2166.00,0.0143
2165.00,0.0143
2164.00,0.0143
2163.00,0.0141
2162.00,0.0138
2161.00,0.0135
2160.00,0.0134
2159.00,0.0133
2158.00,0.0134
2157.00,0.0137
2156.00,0.0139
2155.00,0.0139
2154.00,0.0138
2153.00,0.0137
2152.00,0.0136
2151.00,0.0136
2150.00,0.0136
2149.00,0.0137
2148.00,0.0137
2147.00,0.0137
2146.00,0.0137
2145.00,0.0136
2144.00,0.0136
2143.00,0.0135
2142.00,0.0135
2141.00,0.0135
2140.00,0.0135
2139.00,0.0135
2138.00,0.0134
2137.00,0.0133
2136.00,0.0133
2135.00,0.0133
2134.00,0.0134
2133.00,0.0135
2132.00,0.0136
2131.00,0.0136
2130.00,0.0136
2129.00,0.0136
2128.00,0.0137
2127.00,0.0137
2126.00,0.0137
2125.00,0.0136
2124.00,0.0137
2123.00,0.0137
2122.00,0.0137
2121.00,0.0138
2120.00,0.0138
2119.00,0.0139
2118.00,0.0139
2117.00,0.0139
2116.00,0.0139
2115.00,0.0138
2114.00,0.0137
2113.00,0.0137
2112.00,0.0136
2111.00,0.0136
2110.00,0.0135
2109.00,0.0135
2108.00,0.0135
2107.00,0.0134
2106.00,0.0134
2105.00,0.0133
2104.00,0.0133
2103.00,0.0133
2102.00,0.0132
2101.00,0.0132
2100.00,0.0132
2099.00,0.0131
2098.00,0.0130
2097.00,0.0130
2096.00,0.0130
2095.00,0.0131
2094.00,0.0131
2093.00,0.0132
2092.00,0.0133
2091.00,0.0133
2090.00,0.0133
2089.00,0.0133
2088.00,0.0134
2087.00,0.0133
2086.00,0.0133
2085.00,0.0134
2084.00,0.0134
2083.00,0.0134
2082.00,0.0134
2081.00,0.0134
2080.00,0.0134
2079.00,0.0134
2078.00,0.0134
2077.00,0.0133
2076.00,0.0133
2075.00,0.0133
2074.00,0.0132
2073.00,0.0131
2072.00,0.0131
2071.00,0.0131
2070.00,0.0131
2069.00,0.0131
2068.00,0.0130
2067.00,0.0129
2066.00,0.0128
2065.00,0.0127
2064.00,0.0126
2063.00,0.0125
2062.00,0.0124
2061.00,0.0123
2060.00,0.0124
2059.00,0.0124
2058.00,0.0123
2057.00,0.0123
2056.00,0.0124
2055.00,0.0125
2054.00,0.0127
2053.00,0.0129
2052.00,0.0130
2051.00,0.0128
2050.00,0.0127
2049.00,0.0126
2048.00,0.0126
2047.00,0.0127
2046.00,0.0127
2045.00,0.0128
2044.00,0.0129
2043.00,0.0129
2042.00,0.0129
2041.00,0.0128
2040.00,0.0128
2039.00,0.0128
2038.00,0.0128
2037.00,0.0128
2036.00,0.0127
2035.00,0.0126
2034.00,0.0124
2033.00,0.0124
2032.00,0.0124
2031.00,0.0123
2030.00,0.0122
2029.00,0.0121
2028.00,0.0122
2027.00,0.0122
2026.00,0.0120
2025.00,0.0120
2024.00,0.0120
2023.00,0.0120
2022.00,0.0121
2021.00,0.0121
2020.00,0.0122
2019.00,0.0122
2018.00,0.0120
2017.00,0.0119
2016.00,0.0118
2015.00,0.0117
2014.00,0.0116
2013.00,0.0117
2012.00,0.0118
2011.00,0.0119
2010.00,0.0118
2009.00,0.0118
2008.00,0.0118
2007.00,0.0117
2006.00,0.0117
2005.00,0.0117
2004.00,0.0119
2003.00,0.0120
2002.00,0.0120
2001.00,0.0120
2000.00,0.0121
1999.00,0.0121
1998.00,0.0121
1997.00,0.0121
1996.00,0.0121
1995.00,0.0121
1994.00,0.0121
1993.00,0.0122
1992.00,0.0123
1991.00,0.0124
1990.00,0.0124
1989.00,0.0126
1988.00,0.0128
1987.00,0.0128
1986.00,0.0128
1985.00,0.0128
1984.00,0.0128
1983.00,0.0128
1982.00,0.0127
1981.00,0.0126
1980.00,0.0124
1979.00,0.0122
1978.00,0.0120
1977.00,0.0121
1976.00,0.0123
1975.00,0.0123
1974.00,0.0122
1973.00,0.0123
1972.00,0.0124
1971.00,0.0124
1970.00,0.0125
1969.00,0.0126
1968.00,0.0129
1967.00,0.0129
1966.00,0.0128
1965.00,0.0128
1964.00,0.0128
1963.00,0.0127
1962.00,0.0126
1961.00,0.0126
1960.00,0.0126
1959.00,0.0125
1958.00,0.0125
1957.00,0.0124
1956.00,0.0124
1955.00,0.0124
1954.00,0.0122
1953.00,0.0122
1952.00,0.0122
1951.00,0.0121
1950.00,0.0120
1949.00,0.0120
1948.00,0.0120
1947.00,0.0119
1946.00,0.0117
1945.00,0.0118
1944.00,0.0120
1943.00,0.0120
1942.00,0.0119
1941.00,0.0118
1940.00,0.0118
1939.00,0.0119
1938.00,0.0119
1937.00,0.0120
1936.00,0.0120
1935.00,0.0121
1934.00,0.0120
1933.00,0.0121
1932.00,0.0121
1931.00,0.0122
1930.00,0.0122
1929.00,0.0123
1928.00,0.0124
1927.00,0.0124
1926.00,0.0123
1925.00,0.0123
1924.00,0.0124
1923.00,0.0123
1922.00,0.0120
1921.00,0.0117
1920.00,0.0117
1919.00,0.0118
1918.00,0.0119
1917.00,0.0118
1916.00,0.0119
1915.00,0.0120
1914.00,0.0121
1913.00,0.0123
1912.00,0.0125
1911.00,0.0127
1910.00,0.0129
1909.00,0.0132
1908.00,0.0134
1907.00,0.0137
1906.00,0.0139
1905.00,0.0142
1904.00,0.0144
1903.00,0.0144
1902.00,0.0143
1901.00,0.0141
1900.00,0.0138
1899.00,0.0134
1898.00,0.0131
1897.00,0.0128
1896.00,0.0126
1895.00,0.0124
1894.00,0.0121
1893.00,0.0119
1892.00,0.0119
1891.00,0.0120
1890.00,0.0120
1889.00,0.0120
1888.00,0.0119
1887.00,0.0120
1886.00,0.0122
1885.00,0.0125
1884.00,0.0128
1883.00,0.0130
1882.00,0.0133
1881.00,0.0136
1880.00,0.0138
1879.00,0.0140
1878.00,0.0140
1877.00,0.0141
1876.00,0.0140
1875.00,0.0139
1874.00,0.0135
1873.00,0.0132
1872.00,0.0129
1871.00,0.0127
1870.00,0.0126
1869.00,0.0124
1868.00,0.0121
1867.00,0.0118
1866.00,0.0115
1865.00,0.0114
1864.00,0.0114
1863.00,0.0113
1862.00,0.0113
1861.00,0.0113
1860.00,0.0114
1859.00,0.0114
1858.00,0.0115
1857.00,0.0116
1856.00,0.0118
1855.00,0.0120
1854.00,0.0122
1853.00,0.0124
1852.00,0.0125
1851.00,0.0125
1850.00,0.0124
1849.00,0.0121
1848.00,0.0117
1847.00,0.0111
1846.00,0.0107
1845.00,0.0105
1844.00,0.0103
1843.00,0.0102
1842.00,0.0102
1841.00,0.0104
1840.00,0.0107
1839.00,0.0108
1838.00,0.0108
1837.00,0.0108
1836.00,0.0108
1835.00,0.0108
1834.00,0.0106
1833.00,0.0106
1832.00,0.0108
1831.00,0.0111
1830.00,0.0111
1829.00,0.0108
1828.00,0.0107
1827.00,0.0108
1826.00,0.0109
1825.00,0.0110
1824.00,0.0108
1823.00,0.0106
1822.00,0.0105
1821.00,0.0105
1820.00,0.0105
1819.00,0.0104
1818.00,0.0104
1817.00,0.0103
1816.00,0.0103
1815.00,0.0102
1814.00,0.0102
1813.00,0.0103
1812.00,0.0104
1811.00,0.0105
1810.00,0.0104
1809.00,0.0103
1808.00,0.0103
1807.00,0.0104
1806.00,0.0103
1805.00,0.0103
1804.00,0.0104
1803.00,0.0105
1802.00,0.0106
1801.00,0.0106
1800.00,0.0106
1799.00,0.0105
1798.00,0.0103
1797.00,0.0102
1796.00,0.0100
1795.00,0.0098
1794.00,0.0097
1793.00,0.0097
1792.00,0.0098
1791.00,0.0098
1790.00,0.0098
1789.00,0.0099
1788.00,0.0101
1787.00,0.0102
1786.00,0.0102
1785.00,0.0102
1784.00,0.0101
1783.00,0.0101
1782.00,0.0102
1781.00,0.0103
1780.00,0.0102
1779.00,0.0101
1778.00,0.0100
1777.00,0.0099
1776.00,0.0096
1775.00,0.0092
1774.00,0.0089
1773.00,0.0090
1772.00,0.0092
1771.00,0.0094
1770.00,0.0097
1769.00,0.0101
1768.00,0.0105
1767.00,0.0107
1766.00,0.0107
1765.00,0.0107
1764.00,0.0109
1763.00,0.0110
1762.00,0.0109
1761.00,0.0107
1760.00,0.0106
1759.00,0.0106
1758.00,0.0108
1757.00,0.0108
1756.00,0.0105
1755.00,0.0100
1754.00,0.0096
1753.00,0.0093
1752.00,0.0093
1751.00,0.0094
1750.00,0.0096
1749.00,0.0099
1748.00,0.0101
1747.00,0.0101
1746.00,0.0102
1745.00,0.0103
1744.00,0.0103
1743.00,0.0102
1742.00,0.0101
1741.00,0.0101
1740.00,0.0102
1739.00,0.0100
1738.00,0.0094
1737.00,0.0088
1736.00,0.0084
1735.00,0.0083
1734.00,0.0081
1733.00,0.0083
1732.00,0.0093
1731.00,0.0105
1730.00,0.0113
1729.00,0.0116
1728.00,0.0116
1727.00,0.0116
1726.00,0.0116
1725.00,0.0117
1724.00,0.0118
1723.00,0.0116
1722.00,0.0113
1721.00,0.0108
1720.00,0.0104
1719.00,0.0101
1718.00,0.0097
1717.00,0.0097
1716.00,0.0105
1715.00,0.0117
1714.00,0.0126
1713.00,0.0134
1712.00,0.0142
1711.00,0.0150
1710.00,0.0157
1709.00,0.0166
1708.00,0.0180
1707.00,0.0199
1706.00,0.0224
1705.00,0.0252
1704.00,0.0281
1703.00,0.0311
1702.00,0.0354
1701.00,0.0418
1700.00,0.0484
1699.00,0.0528
1698.00,0.0548
1697.00,0.0554
1696.00,0.0551
1695.00,0.0546
1694.00,0.0546
1693.00,0.0555
1692.00,0.0568
1691.00,0.0584
1690.00,0.0606
1689.00,0.0630
1688.00,0.0650
1687.00,0.0668
1686.00,0.0696
1685.00,0.0746
1684.00,0.0807
1683.00,0.0863
1682.00,0.0908
1681.00,0.0945
1680.00,0.0973
1679.00,0.0992
1678.00,0.1003
1677.00,0.1011
1676.00,0.1016
1675.00,0.1015
1674.00,0.1010
1673.00,0.1006
1672.00,0.1002
1671.00,0.1000
1670.00,0.1001
1669.00,0.1009
1668.00,0.1026
1667.00,0.1051
1666.00,0.1085
1665.00,0.1128
1664.00,0.1187
1663.00,0.1259
1662.00,0.1339
1661.00,0.1419
1660.00,0.1496
1659.00,0.1568
1658.00,0.1632
1657.00,0.1684
1656.00,0.1723
1655.00,0.1758
1654.00,0.1795
1653.00,0.1822
1652.00,0.1833
1651.00,0.1839
1650.00,0.1835
1649.00,0.1806
1648.00,0.1745
1647.00,0.1657
1646.00,0.1562
1645.00,0.1486
1644.00,0.1432
1643.00,0.1390
1642.00,0.1349
1641.00,0.1309
1640.00,0.1271
1639.00,0.1235
1638.00,0.1202
1637.00,0.1169
1636.00,0.1134
1635.00,0.1100
1634.00,0.1076
1633.00,0.1064
1632.00,0.1056
1631.00,0.1051
1630.00,0.1049
1629.00,0.1056
1628.00,0.1071
1627.00,0.1093
1626.00,0.1121
1625.00,0.1152
1624.00,0.1185
1623.00,0.1213
1622.00,0.1234
1621.00,0.1251
1620.00,0.1268
1619.00,0.1290
1618.00,0.1330
1617.00,0.1399
1616.00,0.1494
1615.00,0.1597
1614.00,0.1696
1613.00,0.1786
1612.00,0.1865
1611.00,0.1920
1610.00,0.1940
1609.00,0.1918
1608.00,0.1857
1607.00,0.1767
1606.00,0.1660
1605.00,0.1549
1604.00,0.1441
1603.00,0.1342
1602.00,0.1252
1601.00,0.1174
1600.00,0.1106
1599.00,0.1050
1598.00,0.1007
1597.00,0.0981
1596.00,0.0972
1595.00,0.0974
1594.00,0.0976
1593.00,0.0963
1592.00,0.0928
1591.00,0.0874
1590.00,0.0812
1589.00,0.0752
1588.00,0.0700
1587.00,0.0659
1586.00,0.0628
1585.00,0.0605
1584.00,0.0587
1583.00,0.0576
1582.00,0.0575
1581.00,0.0583
1580.00,0.0600
1579.00,0.0628
1578.00,0.0675
1577.00,0.0751
1576.00,0.0848
1575.00,0.0945
1574.00,0.1027
1573.00,0.1097
1572.00,0.1167
1571.00,0.1251
1570.00,0.1352
1569.00,0.1460
1568.00,0.1559
1567.00,0.1644
1566.00,0.1717
1565.00,0.1775
1564.00,0.1813
1563.00,0.1825
1562.00,0.1813
1561.00,0.1786
1560.00,0.1737
1559.00,0.1646
1558.00,0.1543
1557.00,0.1472
1556.00,0.1421
1555.00,0.1366
1554.00,0.1302
1553.00,0.1238
1552.00,0.1183
1551.00,0.1132
1550.00,0.1078
1549.00,0.1023
1548.00,0.0974
1547.00,0.0932
1546.00,0.0893
1545.00,0.0852
1544.00,0.0810
1543.00,0.0769
1542.00,0.0730
1541.00,0.0693
1540.00,0.0659
1539.00,0.0633
1538.00,0.0621
1537.00,0.0619
1536.00,0.0617
1535.00,0.0611
1534.00,0.0600
1533.00,0.0585
1532.00,0.0572
1531.00,0.0564
1530.00,0.0558
1529.00,0.0553
1528.00,0.0550
1527.00,0.0549
1526.00,0.0550
1525.00,0.0555
1524.00,0.0565
1523.00,0.0590
1522.00,0.0641
1521.00,0.0722
1520.00,0.0824
1519.00,0.0942
1518.00,0.1074
1517.00,0.1208
1516.00,0.1317
1515.00,0.1383
1514.00,0.1413
1513.00,0.1430
1512.00,0.1452
1511.00,0.1494
1510.00,0.1561
1509.00,0.1654
1508.00,0.1769
1507.00,0.1878
1506.00,0.1930
1505.00,0.1917
1504.00,0.1867
1503.00,0.1798
1502.00,0.1714
1501.00,0.1617
1500.00,0.1512
1499.00,0.1403
1498.00,0.1293
1497.00,0.1188
1496.00,0.1097
1495.00,0.1026
1494.00,0.0975
1493.00,0.0936
1492.00,0.0904
1491.00,0.0876
1490.00,0.0853
1489.00,0.0836
1488.00,0.0826
1487.00,0.0815
1486.00,0.0798
1485.00,0.0775
1484.00,0.0747
1483.00,0.0716
1482.00,0.0685
1481.00,0.0657
1480.00,0.0633
1479.00,0.0615
1478.00,0.0601
1477.00,0.0589
1476.00,0.0577
1475.00,0.0565
1474.00,0.0557
1473.00,0.0553
1472.00,0.0551
1471.00,0.0551
1470.00,0.0553
1469.00,0.0555
1468.00,0.0556
1467.00,0.0557
1466.00,0.0559
1465.00,0.0562
1464.00,0.0567
1463.00,0.0574
1462.00,0.0581
1461.00,0.0589
1460.00,0.0596
1459.00,0.0605
1458.00,0.0623
1457.00,0.0654
1456.00,0.0697
1455.00,0.0748
1454.00,0.0803
1453.00,0.0862
1452.00,0.0928
1451.00,0.0999
1450.00,0.1075
1449.00,0.1161
1448.00,0.1253
1447.00,0.1341
1446.00,0.1421
1445.00,0.1492
1444.00,0.1555
1443.00,0.1608
1442.00,0.1650
1441.00,0.1681
1440.00,0.1701
1439.00,0.1713
1438.00,0.1720
1437.00,0.1723
1436.00,0.1723
1435.00,0.1720
1434.00,0.1718
1433.00,0.1714
1432.00,0.1705
1431.00,0.1692
1430.00,0.1679
1429.00,0.1672
1428.00,0.1677
1427.00,0.1694
1426.00,0.1723
1425.00,0.1753
1424.00,0.1771
1423.00,0.1761
1422.00,0.1722
1421.00,0.1657
1420.00,0.1567
1419.00,0.1462
1418.00,0.1364
1417.00,0.1289
1416.00,0.1233
1415.00,0.1187
1414.00,0.1152
1413.00,0.1129
1412.00,0.1119
1411.00,0.1120
1410.00,0.1131
1409.00,0.1150
1408.00,0.1175
1407.00,0.1204
1406.00,0.1235
1405.00,0.1265
1404.00,0.1289
1403.00,0.1305
1402.00,0.1316
1401.00,0.1325
1400.00,0.1331
1399.00,0.1337
1398.00,0.1342
1397.00,0.1349
1396.00,0.1356
1395.00,0.1360
1394.00,0.1360
1393.00,0.1352
1392.00,0.1338
1391.00,0.1319
1390.00,0.1296
1389.00,0.1274
1388.00,0.1253
1387.00,0.1238
1386.00,0.1230
1385.00,0.1230
1384.00,0.1238
1383.00,0.1252
1382.00,0.1273
1381.00,0.1300
1380.00,0.1333
1379.00,0.1368
1378.00,0.1402
1377.00,0.1433
1376.00,0.1460
1375.00,0.1481
1374.00,0.1495
1373.00,0.1503
1372.00,0.1505
1371.00,0.1502
1370.00,0.1491
1369.00,0.1472
1368.00,0.1443
1367.00,0.1406
1366.00,0.1366
1365.00,0.1326
1364.00,0.1285
1363.00,0.1242
1362.00,0.1199
1361.00,0.1156
1360.00,0.1116
1359.00,0.1076
1358.00,0.1038
1357.00,0.1002
1356.00,0.0968
1355.00,0.0936
1354.00,0.0906
1353.00,0.0877
1352.00,0.0850
1351.00,0.0824
1350.00,0.0799
1349.00,0.0777
1348.00,0.0759
1347.00,0.0747
1346.00,0.0745
1345.00,0.0756
1344.00,0.0783
1343.00,0.0822
1342.00,0.0867
1341.00,0.0905
1340.00,0.0925
1339.00,0.0924
1338.00,0.0910
1337.00,0.0897
1336.00,0.0895
1335.00,0.0908
1334.00,0.0940
1333.00,0.0991
1332.00,0.1058
1331.00,0.1133
1330.00,0.1205
1329.00,0.1261
1328.00,0.1288
1327.00,0.1284
1326.00,0.1253
1325.00,0.1206
1324.00,0.1152
1323.00,0.1100
1322.00,0.1052
1321.00,0.1009
1320.00,0.0969
1319.00,0.0930
1318.00,0.0892
1317.00,0.0856
1316.00,0.0823
1315.00,0.0793
1314.00,0.0766
1313.00,0.0742
1312.00,0.0721
1311.00,0.0703
1310.00,0.0689
1309.00,0.0678
1308.00,0.0669
1307.00,0.0664
1306.00,0.0661
1305.00,0.0661
1304.00,0.0661
1303.00,0.0661
1302.00,0.0658
1301.00,0.0653
1300.00,0.0644
1299.00,0.0633
1298.00,0.0620
1297.00,0.0607
1296.00,0.0594
1295.00,0.0582
1294.00,0.0571
1293.00,0.0561
1292.00,0.0552
1291.00,0.0544
1290.00,0.0537
1289.00,0.0532
1288.00,0.0528
1287.00,0.0526
1286.00,0.0526
1285.00,0.0530
1284.00,0.0536
1283.00,0.0543
1282.00,0.0549
1281.00,0.0549
1280.00,0.0542
1279.00,0.0530
1278.00,0.0516
1277.00,0.0504
1276.00,0.0495
1275.00,0.0491
1274.00,0.0489
1273.00,0.0489
1272.00,0.0493
1271.00,0.0500
1270.00,0.0515
1269.00,0.0539
1268.00,0.0579
1267.00,0.0642
1266.00,0.0736
1265.00,0.0865
1264.00,0.1029
1263.00,0.1216
1262.00,0.1402
1261.00,0.1563
1260.00,0.1673
1259.00,0.1722
1258.00,0.1716
1257.00,0.1668
1256.00,0.1601
1255.00,0.1529
1254.00,0.1465
1253.00,0.1415
1252.00,0.1379
1251.00,0.1358
1250.00,0.1351
1249.00,0.1361
1248.00,0.1387
1247.00,0.1428
1246.00,0.1481
1245.00,0.1535
1244.00,0.1580
1243.00,0.1606
1242.00,0.1614
1241.00,0.1609
1240.00,0.1598
1239.00,0.1584
1238.00,0.1568
1237.00,0.1551
1236.00,0.1539
1235.00,0.1542
1234.00,0.1567
1233.00,0.1615
1232.00,0.1682
1231.00,0.1762
1230.00,0.1845
1229.00,0.1924
1228.00,0.1990
1227.00,0.2037
1226.00,0.2057
1225.00,0.2047
1224.00,0.2009
1223.00,0.1948
1222.00,0.1873
1221.00,0.1794
1220.00,0.1719
1219.00,0.1650
1218.00,0.1589
1217.00,0.1532
1216.00,0.1479
1215.00,0.1426
1214.00,0.1373
1213.00,0.1321
1212.00,0.1271
1211.00,0.1224
1210.00,0.1183
1209.00,0.1148
1208.00,0.1124
1207.00,0.1115
1206.00,0.1123
1205.00,0.1145
1204.00,0.1169
1203.00,0.1177
1202.00,0.1157
1201.00,0.1107
1200.00,0.1041
1199.00,0.0972
1198.00,0.0911
1197.00,0.0861
1196.00,0.0819
1195.00,0.0784
1194.00,0.0755
1193.00,0.0730
1192.00,0.0708
1191.00,0.0690
1190.00,0.0674
1189.00,0.0659
1188.00,0.0645
1187.00,0.0633
1186.00,0.0621
1185.00,0.0609
1184.00,0.0598
1183.00,0.0587
1182.00,0.0578
1181.00,0.0570
1180.00,0.0563
1179.00,0.0561
1178.00,0.0567
1177.00,0.0589
1176.00,0.0639
1175.00,0.0725
1174.00,0.0832
1173.00,0.0924
1172.00,0.0958
1171.00,0.0921
1170.00,0.0839
1169.00,0.0749
1168.00,0.0677
1167.00,0.0627
1166.00,0.0594
1165.00,0.0571
1164.00,0.0556
1163.00,0.0545
1162.00,0.0539
1161.00,0.0537
1160.00,0.0540
1159.00,0.0546
1158.00,0.0555
1157.00,0.0566
1156.00,0.0576
1155.00,0.0582
1154.00,0.0581
1153.00,0.0573
1152.00,0.0559
1151.00,0.0540
1150.00,0.0520
1149.00,0.0500
1148.00,0.0482
1147.00,0.0467
1146.00,0.0453
1145.00,0.0442
1144.00,0.0433
1143.00,0.0425
1142.00,0.0418
1141.00,0.0412
1140.00,0.0406
1139.00,0.0401
1138.00,0.0397
1137.00,0.0395
1136.00,0.0394
1135.00,0.0394
1134.00,0.0397
1133.00,0.0403
1132.00,0.0414
1131.00,0.0430
1130.00,0.0452
1129.00,0.0481
1128.00,0.0515
1127.00,0.0551
1126.00,0.0584
1125.00,0.0605
1124.00,0.0612
1123.00,0.0603
1122.00,0.0581
1121.00,0.0554
1120.00,0.0527
1119.00,0.0504
1118.00,0.0488
1117.00,0.0479
1116.00,0.0479
1115.00,0.0490
1114.00,0.0514
1113.00,0.0553
1112.00,0.0607
1111.00,0.0671
1110.00,0.0735
1109.00,0.0784
1108.00,0.0804
1107.00,0.0790
1106.00,0.0747
1105.00,0.0688
1104.00,0.0627
1103.00,0.0573
1102.00,0.0529
1101.00,0.0496
1100.00,0.0471
1099.00,0.0454
1098.00,0.0442
1097.00,0.0435
1096.00,0.0430
1095.00,0.0428
1094.00,0.0426
1093.00,0.0425
1092.00,0.0424
1091.00,0.0420
1090.00,0.0415
1089.00,0.0407
1088.00,0.0398
1087.00,0.0388
1086.00,0.0376
1085.00,0.0365
1084.00,0.0355
1083.00,0.0346
1082.00,0.0339
1081.00,0.0332
1080.00,0.0326
1079.00,0.0321
1078.00,0.0316
1077.00,0.0312
1076.00,0.0308
1075.00,0.0305
1074.00,0.0302
1073.00,0.0299
1072.00,0.0296
1071.00,0.0293
1070.00,0.0291
1069.00,0.0288
1068.00,0.0286
1067.00,0.0284
1066.00,0.0282
1065.00,0.0280
1064.00,0.0279
1063.00,0.0277
1062.00,0.0275
1061.00,0.0274
1060.00,0.0273
1059.00,0.0272
1058.00,0.0271
1057.00,0.0271
1056.00,0.0270
1055.00,0.0270
1054.00,0.0271
1053.00,0.0271
1052.00,0.0273
1051.00,0.0275
1050.00,0.0278
1049.00,0.0281
1048.00,0.0286
1047.00,0.0293
1046.00,0.0300
1045.00,0.0308
1044.00,0.0319
1043.00,0.0332
1042.00,0.0350
1041.00,0.0375
1040.00,0.0404
1039.00,0.0434
1038.00,0.0458
1037.00,0.0474
1036.00,0.0487
1035.00,0.0509
1034.00,0.0554
1033.00,0.0633
1032.00,0.0745
1031.00,0.0869
1030.00,0.0965
1029.00,0.0999
1028.00,0.0963
1027.00,0.0883
1026.00,0.0796
1025.00,0.0727
1024.00,0.0681
1023.00,0.0657
1022.00,0.0649
1021.00,0.0652
1020.00,0.0661
1019.00,0.0673
1018.00,0.0683
1017.00,0.0689
1016.00,0.0689
1015.00,0.0680
1014.00,0.0663
1013.00,0.0638
1012.00,0.0610
1011.00,0.0582
1010.00,0.0560
1009.00,0.0544
1008.00,0.0531
1007.00,0.0517
1006.00,0.0500
1005.00,0.0482
1004.00,0.0464
1003.00,0.0447
1002.00,0.0432
1001.00,0.0419
1000.00,0.0409
999.00,0.0401
998.00,0.0396
997.00,0.0392
996.00,0.0386
995.00,0.0376
994.00,0.0364
993.00,0.0352
992.00,0.0340
991.00,0.0330
990.00,0.0322
989.00,0.0314
988.00,0.0308
987.00,0.0302
986.00,0.0297
985.00,0.0293
984.00,0.0290
983.00,0.0288
982.00,0.0286
981.00,0.0285
980.00,0.0286
979.00,0.0289
978.00,0.0294
977.00,0.0305
976.00,0.0322
975.00,0.0350
974.00,0.0393
973.00,0.0455
972.00,0.0533
971.00,0.0616
970.00,0.0683
969.00,0.0716
968.00,0.0708
967.00,0.0664
966.00,0.0600
965.00,0.0530
964.00,0.0467
963.00,0.0414
962.00,0.0374
961.00,0.0344
960.00,0.0322
959.00,0.0306
958.00,0.0294
957.00,0.0286
956.00,0.0283
955.00,0.0281
954.00,0.0278
953.00,0.0273
952.00,0.0264
951.00,0.0255
950.00,0.0248
949.00,0.0243
948.00,0.0239
947.00,0.0235
946.00,0.0233
945.00,0.0231
944.00,0.0231
943.00,0.0231
942.00,0.0234
941.00,0.0240
940.00,0.0251
939.00,0.0266
938.00,0.0282
937.00,0.0295
936.00,0.0298
935.00,0.0292
934.00,0.0279
933.00,0.0264
932.00,0.0253
931.00,0.0245
930.00,0.0242
929.00,0.0242
928.00,0.0245
927.00,0.0250
926.00,0.0254
925.00,0.0256
924.00,0.0254
923.00,0.0248
922.00,0.0240
921.00,0.0232
920.00,0.0227
919.00,0.0223
918.00,0.0220
917.00,0.0219
916.00,0.0218
915.00,0.0217
914.00,0.0216
913.00,0.0215
912.00,0.0214
911.00,0.0213
910.00,0.0213
909.00,0.0212
908.00,0.0211
907.00,0.0209
906.00,0.0208
905.00,0.0206
904.00,0.0205
903.00,0.0204
902.00,0.0202
901.00,0.0201
900.00,0.0200
899.00,0.0199
898.00,0.0198
897.00,0.0197
896.00,0.0197
895.00,0.0196
894.00,0.0196
893.00,0.0196
892.00,0.0196
891.00,0.0195
890.00,0.0195
889.00,0.0196
888.00,0.0196
887.00,0.0197
886.00,0.0197
885.00,0.0197
884.00,0.0197
883.00,0.0197
882.00,0.0197
881.00,0.0198
880.00,0.0198
879.00,0.0198
878.00,0.0198
877.00,0.0199
876.00,0.0200
875.00,0.0201
874.00,0.0203
873.00,0.0205
872.00,0.0208
871.00,0.0211
870.00,0.0216
869.00,0.0222
868.00,0.0228
867.00,0.0236
866.00,0.0244
865.00,0.0255
864.00,0.0269
863.00,0.0288
862.00,0.0314
861.00,0.0350
860.00,0.0392
859.00,0.0432
858.00,0.0460
857.00,0.0466
856.00,0.0449
855.00,0.0418
854.00,0.0383
853.00,0.0351
852.00,0.0327
851.00,0.0311
850.00,0.0301
849.00,0.0298
848.00,0.0302
847.00,0.0313
846.00,0.0333
845.00,0.0369
844.00,0.0428
843.00,0.0520
842.00,0.0655
841.00,0.0835
840.00,0.1044
839.00,0.1253
838.00,0.1428
837.00,0.1535
836.00,0.1552
835.00,0.1479
834.00,0.1345
833.00,0.1197
832.00,0.1074
831.00,0.0990
830.00,0.0936
829.00,0.0890
828.00,0.0836
827.00,0.0772
826.00,0.0705
825.00,0.0646
824.00,0.0600
823.00,0.0569
822.00,0.0549
821.00,0.0538
820.00,0.0534
819.00,0.0538
818.00,0.0548
817.00,0.0566
816.00,0.0593
815.00,0.0633
814.00,0.0692
813.00,0.0781
812.00,0.0910
811.00,0.1086
810.00,0.1294
809.00,0.1493
808.00,0.1624
807.00,0.1645
806.00,0.1556
805.00,0.1402
804.00,0.1241
803.00,0.1115
802.00,0.1045
801.00,0.1035
800.00,0.1078
799.00,0.1158
798.00,0.1253
797.00,0.1332
796.00,0.1370
795.00,0.1355
794.00,0.1294
793.00,0.1206
792.00,0.1112
791.00,0.1025
790.00,0.0954
789.00,0.0898
788.00,0.0856
787.00,0.0826
786.00,0.0804
785.00,0.0789
784.00,0.0778
783.00,0.0772
782.00,0.0768
781.00,0.0767
780.00,0.0768
779.00,0.0769
778.00,0.0768
777.00,0.0765
776.00,0.0760
775.00,0.0754
774.00,0.0749
773.00,0.0745
772.00,0.0742
771.00,0.0737
770.00,0.0732
769.00,0.0729
768.00,0.0726
767.00,0.0722
766.00,0.0717
765.00,0.0711
764.00,0.0707
763.00,0.0704
762.00,0.0703
761.00,0.0703
760.00,0.0703
759.00,0.0704
758.00,0.0707
757.00,0.0711
756.00,0.0716
755.00,0.0722
754.00,0.0729
753.00,0.0738
752.00,0.0749
751.00,0.0761
750.00,0.0774
749.00,0.0789
748.00,0.0806
747.00,0.0824
746.00,0.0843
745.00,0.0863
744.00,0.0885
743.00,0.0908
742.00,0.0931
741.00,0.0955
740.00,0.0978
739.00,0.1001
738.00,0.1023
737.00,0.1044
736.00,0.1063
735.00,0.1082
734.00,0.1098
733.00,0.1113
732.00,0.1127
731.00,0.1138
730.00,0.1147
729.00,0.1155
728.00,0.1161
727.00,0.1166
726.00,0.1170
725.00,0.1175
724.00,0.1180
723.00,0.1187
722.00,0.1197
721.00,0.1211
720.00,0.1231
719.00,0.1257
718.00,0.1290
717.00,0.1326
716.00,0.1362
715.00,0.1393
714.00,0.1415
713.00,0.1430
712.00,0.1440
711.00,0.1439
710.00,0.1424
709.00,0.1401
708.00,0.1388
707.00,0.1403
706.00,0.1454
705.00,0.1530
704.00,0.1613
703.00,0.1682
702.00,0.1722
701.00,0.1729
700.00,0.1709
699.00,0.1675
698.00,0.1640
697.00,0.1611
696.00,0.1593
695.00,0.1586
694.00,0.1589
693.00,0.1600
692.00,0.1619
691.00,0.1641
690.00,0.1666
689.00,0.1691
688.00,0.1715
687.00,0.1735
686.00,0.1751
685.00,0.1761
684.00,0.1764
683.00,0.1761
682.00,0.1752
681.00,0.1738
680.00,0.1718
679.00,0.1695
678.00,0.1669
677.00,0.1640
676.00,0.1610
675.00,0.1579
674.00,0.1548
673.00,0.1517
672.00,0.1487
671.00,0.1460
670.00,0.1433
669.00,0.1403
668.00,0.1368
667.00,0.1335
666.00,0.1307
665.00,0.1283
664.00,0.1260
663.00,0.1237
662.00,0.1215
661.00,0.1193
660.00,0.1174
659.00,0.1156
658.00,0.1141
657.00,0.1127
656.00,0.1117
655.00,0.1113
654.00,0.1117
653.00,0.1133
652.00,0.1160
651.00,0.1193
650.00,0.1225
649.00,0.1255
648.00,0.1288
647.00,0.1329
646.00,0.1364
645.00,0.1370
644.00,0.1335
643.00,0.1271
642.00,0.1202
641.00,0.1149
640.00,0.1115
639.00,0.1095
638.00,0.1085
637.00,0.1082
636.00,0.1085
635.00,0.1095
634.00,0.1112
633.00,0.1139
632.00,0.1179
631.00,0.1237
630.00,0.1318
629.00,0.1427
628.00,0.1560
627.00,0.1701
626.00,0.1820
625.00,0.1892
624.00,0.1914
623.00,0.1902
622.00,0.1875
621.00,0.1836
620.00,0.1777
619.00,0.1695
618.00,0.1605
617.00,0.1530
616.00,0.1481
615.00,0.1458
614.00,0.1455
613.00,0.1468
612.00,0.1494
611.00,0.1535
610.00,0.1595
609.00,0.1680
608.00,0.1794
607.00,0.1932
606.00,0.2076
605.00,0.2200
604.00,0.2282
603.00,0.2309
602.00,0.2288
601.00,0.2238
600.00,0.2177
599.00,0.2114
598.00,0.2055
597.00,0.2002
596.00,0.1954
595.00,0.1909
594.00,0.1864
593.00,0.1820
592.00,0.1778
591.00,0.1737
590.00,0.1698
589.00,0.1661
588.00,0.1625
587.00,0.1590
586.00,0.1556
585.00,0.1522
584.00,0.1489
583.00,0.1457
582.00,0.1426
581.00,0.1394
580.00,0.1364
579.00,0.1333
578.00,0.1304
577.00,0.1276
576.00,0.1249
575.00,0.1222
574.00,0.1195
573.00,0.1170
572.00,0.1144
571.00,0.1119
570.00,0.1093
569.00,0.1069
568.00,0.1045
567.00,0.1021
566.00,0.0997
565.00,0.0973
564.00,0.0949
563.00,0.0926
562.00,0.0905
561.00,0.0884
560.00,0.0864
559.00,0.0843
558.00,0.0824
557.00,0.0805
556.00,0.0788
555.00,0.0771
554.00,0.0755
553.00,0.0740
552.00,0.0724
551.00,0.0708
550.00,0.0692
549.00,0.0677
548.00,0.0661
547.00,0.0647
546.00,0.0634
545.00,0.0621
544.00,0.0608
543.00,0.0595
542.00,0.0582
541.00,0.0569
540.00,0.0555
539.00,0.0544
538.00,0.0533
537.00,0.0523
536.00,0.0514
535.00,0.0505
534.00,0.0498
533.00,0.0492
532.00,0.0489
531.00,0.0489
530.00,0.0492
529.00,0.0499
528.00,0.0513
527.00,0.0540
526.00,0.0588
525.00,0.0670
524.00,0.0803
523.00,0.1004
522.00,0.1272
521.00,0.1583
520.00,0.1891
519.00,0.2137
518.00,0.2258
517.00,0.2224
516.00,0.2060
515.00,0.1836
514.00,0.1624
513.00,0.1454
512.00,0.1327
511.00,0.1239
510.00,0.1192
509.00,0.1195
508.00,0.1266
507.00,0.1426
506.00,0.1672
505.00,0.1960
504.00,0.2204
503.00,0.2304
502.00,0.2218
501.00,0.2003
500.00,0.1751
499.00,0.1522
498.00,0.1333
497.00,0.1187
496.00,0.1074
495.00,0.0985
494.00,0.0914
493.00,0.0855
492.00,0.0806
491.00,0.0764
490.00,0.0729
489.00,0.0699
488.00,0.0673
487.00,0.0649
486.00,0.0627
485.00,0.0609
484.00,0.0593
483.00,0.0578
482.00,0.0563
481.00,0.0552
480.00,0.0542
479.00,0.0535
478.00,0.0528
477.00,0.0524
476.00,0.0521
475.00,0.0519
474.00,0.0522
473.00,0.0530
472.00,0.0544
471.00,0.0564
470.00,0.0592
469.00,0.0630
468.00,0.0674
467.00,0.0716
466.00,0.0749
465.00,0.0768
464.00,0.0774
463.00,0.0762
462.00,0.0732
461.00,0.0688
460.00,0.0637
459.00,0.0587
458.00,0.0545
457.00,0.0514
456.00,0.0494
455.00,0.0480
454.00,0.0467
453.00,0.0452
452.00,0.0433
451.00,0.0415
450.00,0.0401
449.00,0.0390
448.00,0.0383
447.00,0.0375
446.00,0.0367
445.00,0.0357
444.00,0.0345
443.00,0.0333
442.00,0.0324
441.00,0.0316
440.00,0.0310
439.00,0.0307
438.00,0.0306
437.00,0.0304
436.00,0.0301
435.00,0.0295
434.00,0.0289
433.00,0.0285
432.00,0.0281
431.00,0.0277
430.00,0.0274
429.00,0.0272
428.00,0.0270
427.00,0.0270
426.00,0.0271
425.00,0.0273
424.00,0.0274
423.00,0.0274
422.00,0.0273
421.00,0.0275
420.00,0.0286
419.00,0.0313
418.00,0.0362
417.00,0.0429
416.00,0.0512
415.00,0.0607
414.00,0.0698
413.00,0.0757
412.00,0.0760
411.00,0.0705
410.00,0.0618
409.00,0.0530
408.00,0.0459
407.00,0.0409
406.00,0.0378
405.00,0.0360
404.00,0.0350
403.00,0.0345
402.00,0.0345
401.00,0.0351
400.00,0.0363
