Created as New Dataset,Sample 717 By YargerLab Date Thursday, March 19 2026
cm-1,A
4000.00,0.0073
3999.00,0.0073
3998.00,0.0073
3997.00,0.0073
3996.00,0.0073
3995.00,0.0073
3994.00,0.0073
3993.00,0.0073
3992.00,0.0073
3991.00,0.0073
3990.00,0.0073
3989.00,0.0073
3988.00,0.0073
3987.00,0.0073
3986.00,0.0073
3985.00,0.0073
3984.00,0.0073
3983.00,0.0073
3982.00,0.0073
3981.00,0.0073
3980.00,0.0073
3979.00,0.0073
3978.00,0.0073
3977.00,0.0074
3976.00,0.0074
3975.00,0.0074
3974.00,0.0074
3973.00,0.0074
3972.00,0.0074
3971.00,0.0074
3970.00,0.0074
3969.00,0.0075
3968.00,0.0075
3967.00,0.0074
3966.00,0.0074
3965.00,0.0075
3964.00,0.0075
3963.00,0.0075
3962.00,0.0075
3961.00,0.0075
3960.00,0.0075
3959.00,0.0075
3958.00,0.0075
3957.00,0.0075
3956.00,0.0075
3955.00,0.0075
3954.00,0.0075
3953.00,0.0075
3952.00,0.0075
3951.00,0.0076
3950.00,0.0076
3949.00,0.0076
3948.00,0.0076
3947.00,0.0076
3946.00,0.0076
3945.00,0.0076
3944.00,0.0076
3943.00,0.0076
3942.00,0.0076
3941.00,0.0076
3940.00,0.0076
3939.00,0.0076
3938.00,0.0076
3937.00,0.0076
3936.00,0.0076
3935.00,0.0076
3934.00,0.0076
3933.00,0.0076
3932.00,0.0076
3931.00,0.0076
3930.00,0.0077
3929.00,0.0077
3928.00,0.0077
3927.00,0.0077
3926.00,0.0077
3925.00,0.0077
3924.00,0.0077
3923.00,0.0077
3922.00,0.0078
3921.00,0.0078
3920.00,0.0078
3919.00,0.0077
3918.00,0.0077
3917.00,0.0077
3916.00,0.0077
3915.00,0.0076
3914.00,0.0076
3913.00,0.0076
3912.00,0.0076
3911.00,0.0075
3910.00,0.0075
3909.00,0.0075
3908.00,0.0075
3907.00,0.0075
3906.00,0.0075
3905.00,0.0075
3904.00,0.0075
3903.00,0.0076
3902.00,0.0076
3901.00,0.0076
3900.00,0.0076
3899.00,0.0075
3898.00,0.0075
3897.00,0.0075
3896.00,0.0075
3895.00,0.0075
3894.00,0.0074
3893.00,0.0074
3892.00,0.0074
3891.00,0.0074
3890.00,0.0074
3889.00,0.0074
3888.00,0.0075
3887.00,0.0075
3886.00,0.0075
3885.00,0.0075
3884.00,0.0075
3883.00,0.0075
3882.00,0.0075
3881.00,0.0075
3880.00,0.0074
3879.00,0.0074
3878.00,0.0074
3877.00,0.0074
3876.00,0.0074
3875.00,0.0074
3874.00,0.0074
3873.00,0.0073
3872.00,0.0074
3871.00,0.0074
3870.00,0.0074
3869.00,0.0074
3868.00,0.0074
3867.00,0.0074
3866.00,0.0074
3865.00,0.0074
3864.00,0.0074
3863.00,0.0074
3862.00,0.0074
3861.00,0.0074
3860.00,0.0074
3859.00,0.0074
3858.00,0.0073
3857.00,0.0072
3856.00,0.0072
3855.00,0.0072
3854.00,0.0072
3853.00,0.0073
3852.00,0.0074
3851.00,0.0074
3850.00,0.0074
3849.00,0.0074
3848.00,0.0074
3847.00,0.0074
3846.00,0.0073
3845.00,0.0073
3844.00,0.0073
3843.00,0.0073
3842.00,0.0073
3841.00,0.0073
3840.00,0.0073
3839.00,0.0073
3838.00,0.0073
3837.00,0.0073
3836.00,0.0073
3835.00,0.0073
3834.00,0.0073
3833.00,0.0073
3832.00,0.0073
3831.00,0.0073
3830.00,0.0072
3829.00,0.0072
3828.00,0.0072
3827.00,0.0072
3826.00,0.0072
3825.00,0.0071
3824.00,0.0072
3823.00,0.0072
3822.00,0.0072
3821.00,0.0072
3820.00,0.0072
3819.00,0.0072
3818.00,0.0073
3817.00,0.0073
3816.00,0.0073
3815.00,0.0072
3814.00,0.0072
3813.00,0.0072
3812.00,0.0071
3811.00,0.0071
3810.00,0.0071
3809.00,0.0071
3808.00,0.0071
3807.00,0.0071
3806.00,0.0071
3805.00,0.0071
3804.00,0.0071
3803.00,0.0072
3802.00,0.0072
3801.00,0.0072
3800.00,0.0072
3799.00,0.0072
3798.00,0.0072
3797.00,0.0072
3796.00,0.0071
3795.00,0.0070
3794.00,0.0070
3793.00,0.0070
3792.00,0.0070
3791.00,0.0070
3790.00,0.0070
3789.00,0.0070
3788.00,0.0070
3787.00,0.0070
3786.00,0.0070
3785.00,0.0070
3784.00,0.0070
3783.00,0.0070
3782.00,0.0070
3781.00,0.0070
3780.00,0.0070
3779.00,0.0070
3778.00,0.0070
3777.00,0.0069
3776.00,0.0070
3775.00,0.0070
3774.00,0.0070
3773.00,0.0069
3772.00,0.0069
3771.00,0.0069
3770.00,0.0069
3769.00,0.0069
3768.00,0.0069
3767.00,0.0070
3766.00,0.0070
3765.00,0.0070
3764.00,0.0070
3763.00,0.0069
3762.00,0.0069
3761.00,0.0070
3760.00,0.0070
3759.00,0.0070
3758.00,0.0070
3757.00,0.0070
3756.00,0.0070
3755.00,0.0070
3754.00,0.0070
3753.00,0.0070
3752.00,0.0071
3751.00,0.0071
3750.00,0.0071
3749.00,0.0071
3748.00,0.0071
3747.00,0.0071
3746.00,0.0071
3745.00,0.0072
3744.00,0.0071
3743.00,0.0071
3742.00,0.0071
3741.00,0.0071
3740.00,0.0071
3739.00,0.0071
3738.00,0.0071
3737.00,0.0072
3736.00,0.0072
3735.00,0.0071
3734.00,0.0071
3733.00,0.0071
3732.00,0.0071
3731.00,0.0070
3730.00,0.0070
3729.00,0.0069
3728.00,0.0069
3727.00,0.0069
3726.00,0.0069
3725.00,0.0068
3724.00,0.0068
3723.00,0.0068
3722.00,0.0068
3721.00,0.0067
3720.00,0.0067
3719.00,0.0067
3718.00,0.0067
3717.00,0.0067
3716.00,0.0067
3715.00,0.0067
3714.00,0.0067
3713.00,0.0068
3712.00,0.0068
3711.00,0.0068
3710.00,0.0068
3709.00,0.0068
3708.00,0.0068
3707.00,0.0068
3706.00,0.0067
3705.00,0.0067
3704.00,0.0067
3703.00,0.0066
3702.00,0.0066
3701.00,0.0066
3700.00,0.0066
3699.00,0.0066
3698.00,0.0066
3697.00,0.0066
3696.00,0.0066
3695.00,0.0066
3694.00,0.0066
3693.00,0.0066
3692.00,0.0066
3691.00,0.0066
3690.00,0.0067
3689.00,0.0067
3688.00,0.0067
3687.00,0.0067
3686.00,0.0067
3685.00,0.0067
3684.00,0.0067
3683.00,0.0066
3682.00,0.0066
3681.00,0.0066
3680.00,0.0065
3679.00,0.0065
3678.00,0.0066
3677.00,0.0066
3676.00,0.0067
3675.00,0.0067
3674.00,0.0067
3673.00,0.0067
3672.00,0.0068
3671.00,0.0068
3670.00,0.0067
3669.00,0.0067
3668.00,0.0066
3667.00,0.0066
3666.00,0.0066
3665.00,0.0066
3664.00,0.0065
3663.00,0.0065
3662.00,0.0065
3661.00,0.0064
3660.00,0.0064
3659.00,0.0064
3658.00,0.0065
3657.00,0.0065
3656.00,0.0065
3655.00,0.0065
3654.00,0.0065
3653.00,0.0066
3652.00,0.0066
3651.00,0.0067
3650.00,0.0067
3649.00,0.0068
3648.00,0.0068
3647.00,0.0068
3646.00,0.0068
3645.00,0.0067
3644.00,0.0067
3643.00,0.0066
3642.00,0.0066
3641.00,0.0065
3640.00,0.0065
3639.00,0.0065
3638.00,0.0065
3637.00,0.0065
3636.00,0.0065
3635.00,0.0065
3634.00,0.0065
3633.00,0.0065
3632.00,0.0065
3631.00,0.0065
3630.00,0.0066
3629.00,0.0066
3628.00,0.0067
3627.00,0.0067
3626.00,0.0067
3625.00,0.0068
3624.00,0.0067
3623.00,0.0067
3622.00,0.0066
3621.00,0.0066
3620.00,0.0066
3619.00,0.0066
3618.00,0.0066
3617.00,0.0067
3616.00,0.0067
3615.00,0.0068
3614.00,0.0068
3613.00,0.0068
3612.00,0.0068
3611.00,0.0068
3610.00,0.0068
3609.00,0.0068
3608.00,0.0068
3607.00,0.0068
3606.00,0.0068
3605.00,0.0068
3604.00,0.0068
3603.00,0.0068
3602.00,0.0067
3601.00,0.0067
3600.00,0.0067
3599.00,0.0068
3598.00,0.0068
3597.00,0.0068
3596.00,0.0068
3595.00,0.0068
3594.00,0.0068
3593.00,0.0068
3592.00,0.0068
3591.00,0.0068
3590.00,0.0069
3589.00,0.0069
3588.00,0.0069
3587.00,0.0069
3586.00,0.0069
3585.00,0.0070
3584.00,0.0070
3583.00,0.0070
3582.00,0.0070
3581.00,0.0070
3580.00,0.0070
3579.00,0.0071
3578.00,0.0071
3577.00,0.0071
3576.00,0.0072
3575.00,0.0072
3574.00,0.0072
3573.00,0.0073
3572.00,0.0073
3571.00,0.0074
3570.00,0.0076
3569.00,0.0077
3568.00,0.0078
3567.00,0.0078
3566.00,0.0079
3565.00,0.0080
3564.00,0.0080
3563.00,0.0081
3562.00,0.0082
3561.00,0.0083
3560.00,0.0083
3559.00,0.0084
3558.00,0.0085
3557.00,0.0087
3556.00,0.0088
3555.00,0.0090
3554.00,0.0091
3553.00,0.0093
3552.00,0.0095
3551.00,0.0097
3550.00,0.0100
3549.00,0.0103
3548.00,0.0106
3547.00,0.0109
3546.00,0.0112
3545.00,0.0117
3544.00,0.0121
3543.00,0.0126
3542.00,0.0131
3541.00,0.0137
3540.00,0.0144
3539.00,0.0151
3538.00,0.0160
3537.00,0.0170
3536.00,0.0181
3535.00,0.0194
3534.00,0.0209
3533.00,0.0227
3532.00,0.0248
3531.00,0.0273
3530.00,0.0303
3529.00,0.0337
3528.00,0.0374
3527.00,0.0413
3526.00,0.0453
3525.00,0.0492
3524.00,0.0527
3523.00,0.0557
3522.00,0.0579
3521.00,0.0592
3520.00,0.0596
3519.00,0.0591
3518.00,0.0579
3517.00,0.0561
3516.00,0.0538
3515.00,0.0512
3514.00,0.0484
3513.00,0.0455
3512.00,0.0428
3511.00,0.0401
3510.00,0.0377
3509.00,0.0356
3508.00,0.0337
3507.00,0.0322
3506.00,0.0309
3505.00,0.0298
3504.00,0.0288
3503.00,0.0281
3502.00,0.0275
3501.00,0.0270
3500.00,0.0267
3499.00,0.0264
3498.00,0.0262
3497.00,0.0261
3496.00,0.0260
3495.00,0.0260
3494.00,0.0261
3493.00,0.0261
3492.00,0.0262
3491.00,0.0264
3490.00,0.0266
3489.00,0.0268
3488.00,0.0270
3487.00,0.0273
3486.00,0.0276
3485.00,0.0279
3484.00,0.0283
3483.00,0.0286
3482.00,0.0291
3481.00,0.0295
3480.00,0.0299
3479.00,0.0304
3478.00,0.0309
3477.00,0.0314
3476.00,0.0319
3475.00,0.0325
3474.00,0.0331
3473.00,0.0337
3472.00,0.0344
3471.00,0.0351
3470.00,0.0358
3469.00,0.0365
3468.00,0.0372
3467.00,0.0380
3466.00,0.0387
3465.00,0.0395
3464.00,0.0403
3463.00,0.0411
3462.00,0.0420
3461.00,0.0428
3460.00,0.0437
3459.00,0.0445
3458.00,0.0453
3457.00,0.0462
3456.00,0.0470
3455.00,0.0478
3454.00,0.0486
3453.00,0.0494
3452.00,0.0502
3451.00,0.0510
3450.00,0.0518
3449.00,0.0526
3448.00,0.0534
3447.00,0.0542
3446.00,0.0549
3445.00,0.0557
3444.00,0.0564
3443.00,0.0572
3442.00,0.0579
3441.00,0.0586
3440.00,0.0594
3439.00,0.0601
3438.00,0.0608
3437.00,0.0616
3436.00,0.0623
3435.00,0.0629
3434.00,0.0636
3433.00,0.0643
3432.00,0.0649
3431.00,0.0656
3430.00,0.0663
3429.00,0.0669
3428.00,0.0676
3427.00,0.0683
3426.00,0.0691
3425.00,0.0699
3424.00,0.0707
3423.00,0.0717
3422.00,0.0727
3421.00,0.0739
3420.00,0.0750
3419.00,0.0762
3418.00,0.0775
3417.00,0.0788
3416.00,0.0801
3415.00,0.0814
3414.00,0.0826
3413.00,0.0838
3412.00,0.0848
3411.00,0.0856
3410.00,0.0861
3409.00,0.0864
3408.00,0.0864
3407.00,0.0861
3406.00,0.0855
3405.00,0.0845
3404.00,0.0833
3403.00,0.0817
3402.00,0.0798
3401.00,0.0776
3400.00,0.0752
3399.00,0.0726
3398.00,0.0700
3397.00,0.0673
3396.00,0.0647
3395.00,0.0621
3394.00,0.0597
3393.00,0.0573
3392.00,0.0551
3391.00,0.0529
3390.00,0.0509
3389.00,0.0491
3388.00,0.0473
3387.00,0.0457
3386.00,0.0442
3385.00,0.0428
3384.00,0.0415
3383.00,0.0403
3382.00,0.0392
3381.00,0.0381
3380.00,0.0371
3379.00,0.0361
3378.00,0.0352
3377.00,0.0343
3376.00,0.0335
3375.00,0.0327
3374.00,0.0319
3373.00,0.0312
3372.00,0.0305
3371.00,0.0298
3370.00,0.0292
3369.00,0.0286
3368.00,0.0280
3367.00,0.0274
3366.00,0.0268
3365.00,0.0262
3364.00,0.0257
3363.00,0.0252
3362.00,0.0247
3361.00,0.0243
3360.00,0.0238
3359.00,0.0234
3358.00,0.0229
3357.00,0.0225
3356.00,0.0221
3355.00,0.0217
3354.00,0.0214
3353.00,0.0210
3352.00,0.0207
3351.00,0.0203
3350.00,0.0200
3349.00,0.0197
3348.00,0.0194
3347.00,0.0191
3346.00,0.0189
3345.00,0.0186
3344.00,0.0183
3343.00,0.0181
3342.00,0.0178
3341.00,0.0176
3340.00,0.0173
3339.00,0.0171
3338.00,0.0169
3337.00,0.0167
3336.00,0.0165
3335.00,0.0163
3334.00,0.0161
3333.00,0.0159
3332.00,0.0158
3331.00,0.0156
3330.00,0.0154
3329.00,0.0153
3328.00,0.0151
3327.00,0.0150
3326.00,0.0148
3325.00,0.0147
3324.00,0.0145
3323.00,0.0144
3322.00,0.0142
3321.00,0.0141
3320.00,0.0140
3319.00,0.0139
3318.00,0.0137
3317.00,0.0136
3316.00,0.0135
3315.00,0.0134
3314.00,0.0133
3313.00,0.0132
3312.00,0.0130
3311.00,0.0129
3310.00,0.0128
3309.00,0.0127
3308.00,0.0126
3307.00,0.0125
3306.00,0.0124
3305.00,0.0123
3304.00,0.0123
3303.00,0.0122
3302.00,0.0121
3301.00,0.0119
3300.00,0.0118
3299.00,0.0117
3298.00,0.0116
3297.00,0.0115
3296.00,0.0114
3295.00,0.0113
3294.00,0.0112
3293.00,0.0112
3292.00,0.0111
3291.00,0.0111
3290.00,0.0111
3289.00,0.0110
3288.00,0.0110
3287.00,0.0109
3286.00,0.0108
3285.00,0.0107
3284.00,0.0106
3283.00,0.0105
3282.00,0.0104
3281.00,0.0104
3280.00,0.0103
3279.00,0.0102
3278.00,0.0101
3277.00,0.0101
3276.00,0.0100
3275.00,0.0100
3274.00,0.0099
3273.00,0.0098
3272.00,0.0098
3271.00,0.0098
3270.00,0.0097
3269.00,0.0097
3268.00,0.0098
3267.00,0.0098
3266.00,0.0097
3265.00,0.0097
3264.00,0.0097
3263.00,0.0097
3262.00,0.0097
3261.00,0.0096
3260.00,0.0096
3259.00,0.0096
3258.00,0.0095
3257.00,0.0095
3256.00,0.0095
3255.00,0.0094
3254.00,0.0094
3253.00,0.0094
3252.00,0.0094
3251.00,0.0094
3250.00,0.0093
3249.00,0.0093
3248.00,0.0092
3247.00,0.0092
3246.00,0.0092
3245.00,0.0092
3244.00,0.0092
3243.00,0.0092
3242.00,0.0092
3241.00,0.0091
3240.00,0.0091
3239.00,0.0090
3238.00,0.0090
3237.00,0.0089
3236.00,0.0088
3235.00,0.0087
3234.00,0.0087
3233.00,0.0087
3232.00,0.0087
3231.00,0.0087
3230.00,0.0087
3229.00,0.0087
3228.00,0.0087
3227.00,0.0087
3226.00,0.0086
3225.00,0.0086
3224.00,0.0086
3223.00,0.0085
3222.00,0.0085
3221.00,0.0085
3220.00,0.0085
3219.00,0.0085
3218.00,0.0085
3217.00,0.0085
3216.00,0.0085
3215.00,0.0085
3214.00,0.0085
3213.00,0.0084
3212.00,0.0084
3211.00,0.0084
3210.00,0.0084
3209.00,0.0084
3208.00,0.0084
3207.00,0.0084
3206.00,0.0083
3205.00,0.0083
3204.00,0.0083
3203.00,0.0083
3202.00,0.0083
3201.00,0.0083
3200.00,0.0083
3199.00,0.0083
3198.00,0.0082
3197.00,0.0082
3196.00,0.0082
3195.00,0.0082
3194.00,0.0082
3193.00,0.0081
3192.00,0.0081
3191.00,0.0081
3190.00,0.0081
3189.00,0.0081
3188.00,0.0081
3187.00,0.0081
3186.00,0.0081
3185.00,0.0081
3184.00,0.0081
3183.00,0.0081
3182.00,0.0081
3181.00,0.0081
3180.00,0.0081
3179.00,0.0081
3178.00,0.0081
3177.00,0.0082
3176.00,0.0082
3175.00,0.0082
3174.00,0.0082
3173.00,0.0083
3172.00,0.0083
3171.00,0.0083
3170.00,0.0083
3169.00,0.0083
3168.00,0.0083
3167.00,0.0083
3166.00,0.0083
3165.00,0.0083
3164.00,0.0083
3163.00,0.0083
3162.00,0.0083
3161.00,0.0083
3160.00,0.0083
3159.00,0.0083
3158.00,0.0083
3157.00,0.0082
3156.00,0.0081
3155.00,0.0080
3154.00,0.0080
3153.00,0.0079
3152.00,0.0079
3151.00,0.0079
3150.00,0.0080
3149.00,0.0080
3148.00,0.0080
3147.00,0.0080
3146.00,0.0079
3145.00,0.0079
3144.00,0.0079
3143.00,0.0079
3142.00,0.0078
3141.00,0.0078
3140.00,0.0078
3139.00,0.0078
3138.00,0.0078
3137.00,0.0078
3136.00,0.0078
3135.00,0.0078
3134.00,0.0078
3133.00,0.0078
3132.00,0.0078
3131.00,0.0078
3130.00,0.0078
3129.00,0.0077
3128.00,0.0077
3127.00,0.0077
3126.00,0.0077
3125.00,0.0077
3124.00,0.0077
3123.00,0.0077
3122.00,0.0077
3121.00,0.0076
3120.00,0.0076
3119.00,0.0076
3118.00,0.0076
3117.00,0.0076
3116.00,0.0076
3115.00,0.0076
3114.00,0.0076
3113.00,0.0076
3112.00,0.0076
3111.00,0.0076
3110.00,0.0076
3109.00,0.0076
3108.00,0.0076
3107.00,0.0076
3106.00,0.0077
3105.00,0.0077
3104.00,0.0077
3103.00,0.0077
3102.00,0.0077
3101.00,0.0077
3100.00,0.0078
3099.00,0.0078
3098.00,0.0078
3097.00,0.0079
3096.00,0.0079
3095.00,0.0079
3094.00,0.0080
3093.00,0.0080
3092.00,0.0080
3091.00,0.0081
3090.00,0.0081
3089.00,0.0082
3088.00,0.0083
3087.00,0.0085
3086.00,0.0087
3085.00,0.0089
3084.00,0.0092
3083.00,0.0096
3082.00,0.0102
3081.00,0.0110
3080.00,0.0121
3079.00,0.0135
3078.00,0.0151
3077.00,0.0166
3076.00,0.0180
3075.00,0.0187
3074.00,0.0188
3073.00,0.0182
3072.00,0.0170
3071.00,0.0156
3070.00,0.0142
3069.00,0.0129
3068.00,0.0119
3067.00,0.0111
3066.00,0.0106
3065.00,0.0101
3064.00,0.0098
3063.00,0.0096
3062.00,0.0094
3061.00,0.0092
3060.00,0.0091
3059.00,0.0090
3058.00,0.0089
3057.00,0.0088
3056.00,0.0087
3055.00,0.0086
3054.00,0.0086
3053.00,0.0086
3052.00,0.0086
3051.00,0.0087
3050.00,0.0087
3049.00,0.0088
3048.00,0.0089
3047.00,0.0091
3046.00,0.0092
3045.00,0.0093
3044.00,0.0094
3043.00,0.0096
3042.00,0.0097
3041.00,0.0098
3040.00,0.0100
3039.00,0.0101
3038.00,0.0103
3037.00,0.0105
3036.00,0.0108
3035.00,0.0110
3034.00,0.0112
3033.00,0.0113
3032.00,0.0114
3031.00,0.0113
3030.00,0.0112
3029.00,0.0110
3028.00,0.0108
3027.00,0.0105
3026.00,0.0103
3025.00,0.0101
3024.00,0.0099
3023.00,0.0097
3022.00,0.0096
3021.00,0.0096
3020.00,0.0095
3019.00,0.0095
3018.00,0.0095
3017.00,0.0095
3016.00,0.0095
3015.00,0.0095
3014.00,0.0096
3013.00,0.0097
3012.00,0.0099
3011.00,0.0100
3010.00,0.0102
3009.00,0.0103
3008.00,0.0105
3007.00,0.0106
3006.00,0.0107
3005.00,0.0108
3004.00,0.0109
3003.00,0.0111
3002.00,0.0112
3001.00,0.0114
3000.00,0.0116
2999.00,0.0118
2998.00,0.0120
2997.00,0.0122
2996.00,0.0124
2995.00,0.0126
2994.00,0.0129
2993.00,0.0132
2992.00,0.0137
2991.00,0.0141
2990.00,0.0145
2989.00,0.0149
2988.00,0.0152
2987.00,0.0155
2986.00,0.0157
2985.00,0.0160
2984.00,0.0163
2983.00,0.0168
2982.00,0.0174
2981.00,0.0182
2980.00,0.0192
2979.00,0.0204
2978.00,0.0218
2977.00,0.0235
2976.00,0.0254
2975.00,0.0277
2974.00,0.0303
2973.00,0.0331
2972.00,0.0362
2971.00,0.0393
2970.00,0.0423
2969.00,0.0450
2968.00,0.0474
2967.00,0.0493
2966.00,0.0505
2965.00,0.0511
2964.00,0.0512
2963.00,0.0510
2962.00,0.0507
2961.00,0.0502
2960.00,0.0494
2959.00,0.0483
2958.00,0.0470
2957.00,0.0455
2956.00,0.0439
2955.00,0.0423
2954.00,0.0408
2953.00,0.0395
2952.00,0.0385
2951.00,0.0379
2950.00,0.0378
2949.00,0.0382
2948.00,0.0393
2947.00,0.0410
2946.00,0.0432
2945.00,0.0458
2944.00,0.0486
2943.00,0.0513
2942.00,0.0538
2941.00,0.0560
2940.00,0.0581
2939.00,0.0602
2938.00,0.0623
2937.00,0.0647
2936.00,0.0673
2935.00,0.0701
2934.00,0.0732
2933.00,0.0764
2932.00,0.0797
2931.00,0.0830
2930.00,0.0864
2929.00,0.0897
2928.00,0.0926
2927.00,0.0951
2926.00,0.0969
2925.00,0.0977
2924.00,0.0978
2923.00,0.0972
2922.00,0.0963
2921.00,0.0952
2920.00,0.0942
2919.00,0.0934
2918.00,0.0926
2917.00,0.0918
2916.00,0.0907
2915.00,0.0894
2914.00,0.0876
2913.00,0.0853
2912.00,0.0827
2911.00,0.0798
2910.00,0.0768
2909.00,0.0737
2908.00,0.0708
2907.00,0.0680
2906.00,0.0655
2905.00,0.0633
2904.00,0.0614
2903.00,0.0597
2902.00,0.0583
2901.00,0.0570
2900.00,0.0557
2899.00,0.0542
2898.00,0.0525
2897.00,0.0508
2896.00,0.0489
2895.00,0.0471
2894.00,0.0455
2893.00,0.0441
2892.00,0.0428
2891.00,0.0419
2890.00,0.0411
2889.00,0.0405
2888.00,0.0400
2887.00,0.0397
2886.00,0.0395
2885.00,0.0393
2884.00,0.0392
2883.00,0.0392
2882.00,0.0392
2881.00,0.0393
2880.00,0.0396
2879.00,0.0400
2878.00,0.0405
2877.00,0.0412
2876.00,0.0420
2875.00,0.0428
2874.00,0.0436
2873.00,0.0443
2872.00,0.0448
2871.00,0.0449
2870.00,0.0446
2869.00,0.0441
2868.00,0.0435
2867.00,0.0431
2866.00,0.0431
2865.00,0.0437
2864.00,0.0450
2863.00,0.0471
2862.00,0.0500
2861.00,0.0537
2860.00,0.0581
2859.00,0.0629
2858.00,0.0674
2857.00,0.0709
2856.00,0.0728
2855.00,0.0726
2854.00,0.0706
2853.00,0.0670
2852.00,0.0624
2851.00,0.0575
2850.00,0.0527
2849.00,0.0481
2848.00,0.0440
2847.00,0.0402
2846.00,0.0370
2845.00,0.0342
2844.00,0.0319
2843.00,0.0300
2842.00,0.0285
2841.00,0.0274
2840.00,0.0266
2839.00,0.0261
2838.00,0.0260
2837.00,0.0263
2836.00,0.0271
2835.00,0.0284
2834.00,0.0303
2833.00,0.0326
2832.00,0.0352
2831.00,0.0375
2830.00,0.0390
2829.00,0.0393
2828.00,0.0381
2827.00,0.0359
2826.00,0.0330
2825.00,0.0299
2824.00,0.0270
2823.00,0.0245
2822.00,0.0225
2821.00,0.0210
2820.00,0.0197
2819.00,0.0187
2818.00,0.0179
2817.00,0.0173
2816.00,0.0167
2815.00,0.0163
2814.00,0.0159
2813.00,0.0156
2812.00,0.0152
2811.00,0.0150
2810.00,0.0147
2809.00,0.0145
2808.00,0.0143
2807.00,0.0141
2806.00,0.0139
2805.00,0.0137
2804.00,0.0136
2803.00,0.0134
2802.00,0.0132
2801.00,0.0130
2800.00,0.0128
2799.00,0.0127
2798.00,0.0125
2797.00,0.0124
2796.00,0.0123
2795.00,0.0122
2794.00,0.0121
2793.00,0.0120
2792.00,0.0119
2791.00,0.0118
2790.00,0.0117
2789.00,0.0116
2788.00,0.0115
2787.00,0.0114
2786.00,0.0113
2785.00,0.0112
2784.00,0.0111
2783.00,0.0110
2782.00,0.0109
2781.00,0.0109
2780.00,0.0108
2779.00,0.0107
2778.00,0.0107
2777.00,0.0106
2776.00,0.0106
2775.00,0.0105
2774.00,0.0105
2773.00,0.0104
2772.00,0.0104
2771.00,0.0103
2770.00,0.0103
2769.00,0.0102
2768.00,0.0101
2767.00,0.0101
2766.00,0.0100
2765.00,0.0100
2764.00,0.0099
2763.00,0.0099
2762.00,0.0098
2761.00,0.0098
2760.00,0.0097
2759.00,0.0097
2758.00,0.0097
2757.00,0.0097
2756.00,0.0097
2755.00,0.0097
2754.00,0.0097
2753.00,0.0097
2752.00,0.0097
2751.00,0.0097
2750.00,0.0097
2749.00,0.0097
2748.00,0.0097
2747.00,0.0097
2746.00,0.0097
2745.00,0.0098
2744.00,0.0098
2743.00,0.0099
2742.00,0.0099
2741.00,0.0100
2740.00,0.0101
2739.00,0.0101
2738.00,0.0102
2737.00,0.0103
2736.00,0.0104
2735.00,0.0106
2734.00,0.0108
2733.00,0.0110
2732.00,0.0112
2731.00,0.0114
2730.00,0.0116
2729.00,0.0117
2728.00,0.0117
2727.00,0.0116
2726.00,0.0114
2725.00,0.0112
2724.00,0.0110
2723.00,0.0108
2722.00,0.0106
2721.00,0.0105
2720.00,0.0104
2719.00,0.0102
2718.00,0.0101
2717.00,0.0100
2716.00,0.0099
2715.00,0.0098
2714.00,0.0097
2713.00,0.0097
2712.00,0.0096
2711.00,0.0095
2710.00,0.0095
2709.00,0.0094
2708.00,0.0094
2707.00,0.0094
2706.00,0.0093
2705.00,0.0093
2704.00,0.0093
2703.00,0.0093
2702.00,0.0092
2701.00,0.0092
2700.00,0.0092
2699.00,0.0091
2698.00,0.0091
2697.00,0.0091
2696.00,0.0091
2695.00,0.0091
2694.00,0.0091
2693.00,0.0091
2692.00,0.0091
2691.00,0.0091
2690.00,0.0092
2689.00,0.0092
2688.00,0.0092
2687.00,0.0092
2686.00,0.0093
2685.00,0.0093
2684.00,0.0093
2683.00,0.0094
2682.00,0.0094
2681.00,0.0094
2680.00,0.0095
2679.00,0.0096
2678.00,0.0096
2677.00,0.0097
2676.00,0.0097
2675.00,0.0097
2674.00,0.0098
2673.00,0.0098
2672.00,0.0098
2671.00,0.0099
2670.00,0.0099
2669.00,0.0099
2668.00,0.0099
2667.00,0.0099
2666.00,0.0099
2665.00,0.0099
2664.00,0.0099
2663.00,0.0099
2662.00,0.0098
2661.00,0.0098
2660.00,0.0098
2659.00,0.0097
2658.00,0.0097
2657.00,0.0096
2656.00,0.0096
2655.00,0.0096
2654.00,0.0095
2653.00,0.0095
2652.00,0.0095
2651.00,0.0094
2650.00,0.0094
2649.00,0.0094
2648.00,0.0093
2647.00,0.0093
2646.00,0.0092
2645.00,0.0092
2644.00,0.0092
2643.00,0.0091
2642.00,0.0091
2641.00,0.0091
2640.00,0.0091
2639.00,0.0090
2638.00,0.0090
2637.00,0.0090
2636.00,0.0090
2635.00,0.0090
2634.00,0.0090
2633.00,0.0090
2632.00,0.0090
2631.00,0.0090
2630.00,0.0090
2629.00,0.0090
2628.00,0.0090
2627.00,0.0090
2626.00,0.0090
2625.00,0.0090
2624.00,0.0090
2623.00,0.0090
2622.00,0.0090
2621.00,0.0090
2620.00,0.0090
2619.00,0.0090
2618.00,0.0090
2617.00,0.0090
2616.00,0.0090
2615.00,0.0090
2614.00,0.0090
2613.00,0.0089
2612.00,0.0089
2611.00,0.0089
2610.00,0.0089
2609.00,0.0089
2608.00,0.0089
2607.00,0.0089
2606.00,0.0089
2605.00,0.0089
2604.00,0.0089
2603.00,0.0089
2602.00,0.0089
2601.00,0.0089
2600.00,0.0089
2599.00,0.0088
2598.00,0.0088
2597.00,0.0088
2596.00,0.0088
2595.00,0.0088
2594.00,0.0088
2593.00,0.0088
2592.00,0.0088
2591.00,0.0088
2590.00,0.0088
2589.00,0.0088
2588.00,0.0088
2587.00,0.0088
2586.00,0.0088
2585.00,0.0088
2584.00,0.0088
2583.00,0.0087
2582.00,0.0087
2581.00,0.0087
2580.00,0.0087
2579.00,0.0087
2578.00,0.0087
2577.00,0.0087
2576.00,0.0088
2575.00,0.0088
2574.00,0.0088
2573.00,0.0088
2572.00,0.0088
2571.00,0.0088
2570.00,0.0089
2569.00,0.0089
2568.00,0.0089
2567.00,0.0088
2566.00,0.0088
2565.00,0.0088
2564.00,0.0088
2563.00,0.0088
2562.00,0.0088
2561.00,0.0088
2560.00,0.0089
2559.00,0.0088
2558.00,0.0088
2557.00,0.0088
2556.00,0.0088
2555.00,0.0088
2554.00,0.0088
2553.00,0.0088
2552.00,0.0088
2551.00,0.0088
2550.00,0.0088
2549.00,0.0088
2548.00,0.0087
2547.00,0.0087
2546.00,0.0087
2545.00,0.0087
2544.00,0.0087
2543.00,0.0087
2542.00,0.0087
2541.00,0.0087
2540.00,0.0087
2539.00,0.0087
2538.00,0.0087
2537.00,0.0087
2536.00,0.0087
2535.00,0.0087
2534.00,0.0086
2533.00,0.0087
2532.00,0.0087
2531.00,0.0087
2530.00,0.0087
2529.00,0.0087
2528.00,0.0088
2527.00,0.0087
2526.00,0.0087
2525.00,0.0087
2524.00,0.0087
2523.00,0.0087
2522.00,0.0087
2521.00,0.0087
2520.00,0.0087
2519.00,0.0087
2518.00,0.0087
2517.00,0.0087
2516.00,0.0087
2515.00,0.0087
2514.00,0.0087
2513.00,0.0087
2512.00,0.0087
2511.00,0.0087
2510.00,0.0087
2509.00,0.0087
2508.00,0.0087
2507.00,0.0087
2506.00,0.0087
2505.00,0.0087
2504.00,0.0087
2503.00,0.0087
2502.00,0.0087
2501.00,0.0087
2500.00,0.0087
2499.00,0.0087
2498.00,0.0087
2497.00,0.0087
2496.00,0.0087
2495.00,0.0087
2494.00,0.0087
2493.00,0.0087
2492.00,0.0087
2491.00,0.0088
2490.00,0.0088
2489.00,0.0088
2488.00,0.0088
2487.00,0.0088
2486.00,0.0088
2485.00,0.0088
2484.00,0.0088
2483.00,0.0088
2482.00,0.0089
2481.00,0.0089
2480.00,0.0089
2479.00,0.0089
2478.00,0.0089
2477.00,0.0089
2476.00,0.0089
2475.00,0.0089
2474.00,0.0089
2473.00,0.0089
2472.00,0.0089
2471.00,0.0089
2470.00,0.0089
2469.00,0.0089
2468.00,0.0089
2467.00,0.0088
2466.00,0.0088
2465.00,0.0088
2464.00,0.0088
2463.00,0.0088
2462.00,0.0088
2461.00,0.0089
2460.00,0.0089
2459.00,0.0089
2458.00,0.0089
2457.00,0.0089
2456.00,0.0090
2455.00,0.0090
2454.00,0.0090
2453.00,0.0091
2452.00,0.0091
2451.00,0.0091
2450.00,0.0090
2449.00,0.0090
2448.00,0.0090
2447.00,0.0089
2446.00,0.0089
2445.00,0.0088
2444.00,0.0088
2443.00,0.0087
2442.00,0.0087
2441.00,0.0086
2440.00,0.0085
2439.00,0.0085
2438.00,0.0084
2437.00,0.0084
2436.00,0.0083
2435.00,0.0083
2434.00,0.0083
2433.00,0.0082
2432.00,0.0082
2431.00,0.0082
2430.00,0.0081
2429.00,0.0081
2428.00,0.0081
2427.00,0.0081
2426.00,0.0081
2425.00,0.0081
2424.00,0.0080
2423.00,0.0080
2422.00,0.0080
2421.00,0.0079
2420.00,0.0079
2419.00,0.0079
2418.00,0.0079
2417.00,0.0080
2416.00,0.0080
2415.00,0.0080
2414.00,0.0080
2413.00,0.0079
2412.00,0.0079
2411.00,0.0079
2410.00,0.0079
2409.00,0.0079
2408.00,0.0079
2407.00,0.0079
2406.00,0.0078
2405.00,0.0078
2404.00,0.0078
2403.00,0.0078
2402.00,0.0078
2401.00,0.0078
2400.00,0.0078
2399.00,0.0078
2398.00,0.0078
2397.00,0.0078
2396.00,0.0079
2395.00,0.0079
2394.00,0.0079
2393.00,0.0079
2392.00,0.0079
2391.00,0.0079
2390.00,0.0080
2389.00,0.0080
2388.00,0.0080
2387.00,0.0080
2386.00,0.0080
2385.00,0.0080
2384.00,0.0080
2383.00,0.0080
2382.00,0.0080
2381.00,0.0080
2380.00,0.0080
2379.00,0.0080
2378.00,0.0081
2377.00,0.0081
2376.00,0.0081
2375.00,0.0081
2374.00,0.0081
2373.00,0.0081
2372.00,0.0081
2371.00,0.0081
2370.00,0.0081
2369.00,0.0081
2368.00,0.0082
2367.00,0.0082
2366.00,0.0082
2365.00,0.0083
2364.00,0.0083
2363.00,0.0084
2362.00,0.0084
2361.00,0.0083
2360.00,0.0083
2359.00,0.0083
2358.00,0.0083
2357.00,0.0082
2356.00,0.0082
2355.00,0.0082
2354.00,0.0082
2353.00,0.0082
2352.00,0.0081
2351.00,0.0081
2350.00,0.0081
2349.00,0.0081
2348.00,0.0082
2347.00,0.0083
2346.00,0.0083
2345.00,0.0082
2344.00,0.0081
2343.00,0.0081
2342.00,0.0080
2341.00,0.0080
2340.00,0.0080
2339.00,0.0080
2338.00,0.0080
2337.00,0.0080
2336.00,0.0080
2335.00,0.0080
2334.00,0.0080
2333.00,0.0080
2332.00,0.0080
2331.00,0.0080
2330.00,0.0080
2329.00,0.0081
2328.00,0.0082
2327.00,0.0082
2326.00,0.0082
2325.00,0.0081
2324.00,0.0080
2323.00,0.0079
2322.00,0.0078
2321.00,0.0078
2320.00,0.0077
2319.00,0.0077
2318.00,0.0078
2317.00,0.0078
2316.00,0.0078
2315.00,0.0078
2314.00,0.0078
2313.00,0.0078
2312.00,0.0077
2311.00,0.0077
2310.00,0.0076
2309.00,0.0076
2308.00,0.0076
2307.00,0.0076
2306.00,0.0076
2305.00,0.0076
2304.00,0.0076
2303.00,0.0076
2302.00,0.0076
2301.00,0.0076
2300.00,0.0076
2299.00,0.0076
2298.00,0.0075
2297.00,0.0075
2296.00,0.0075
2295.00,0.0075
2294.00,0.0076
2293.00,0.0076
2292.00,0.0076
2291.00,0.0077
2290.00,0.0077
2289.00,0.0077
2288.00,0.0077
2287.00,0.0076
2286.00,0.0076
2285.00,0.0076
2284.00,0.0076
2283.00,0.0076
2282.00,0.0076
2281.00,0.0076
2280.00,0.0075
2279.00,0.0075
2278.00,0.0075
2277.00,0.0075
2276.00,0.0075
2275.00,0.0075
2274.00,0.0075
2273.00,0.0074
2272.00,0.0075
2271.00,0.0075
2270.00,0.0074
2269.00,0.0074
2268.00,0.0074
2267.00,0.0074
2266.00,0.0074
2265.00,0.0074
2264.00,0.0073
2263.00,0.0073
2262.00,0.0073
2261.00,0.0074
2260.00,0.0075
2259.00,0.0075
2258.00,0.0076
2257.00,0.0076
2256.00,0.0075
2255.00,0.0075
2254.00,0.0074
2253.00,0.0074
2252.00,0.0075
2251.00,0.0075
2250.00,0.0075
2249.00,0.0075
2248.00,0.0075
2247.00,0.0075
2246.00,0.0075
2245.00,0.0074
2244.00,0.0074
2243.00,0.0074
2242.00,0.0074
2241.00,0.0074
2240.00,0.0074
2239.00,0.0075
2238.00,0.0075
2237.00,0.0075
2236.00,0.0075
2235.00,0.0075
2234.00,0.0075
2233.00,0.0075
2232.00,0.0075
2231.00,0.0075
2230.00,0.0076
2229.00,0.0076
2228.00,0.0075
2227.00,0.0075
2226.00,0.0074
2225.00,0.0074
2224.00,0.0075
2223.00,0.0075
2222.00,0.0075
2221.00,0.0075
2220.00,0.0075
2219.00,0.0074
2218.00,0.0074
2217.00,0.0074
2216.00,0.0075
2215.00,0.0075
2214.00,0.0074
2213.00,0.0074
2212.00,0.0073
2211.00,0.0073
2210.00,0.0072
2209.00,0.0072
2208.00,0.0072
2207.00,0.0072
2206.00,0.0071
2205.00,0.0072
2204.00,0.0073
2203.00,0.0073
2202.00,0.0073
2201.00,0.0073
2200.00,0.0074
2199.00,0.0074
2198.00,0.0074
2197.00,0.0074
2196.00,0.0074
2195.00,0.0074
2194.00,0.0073
2193.00,0.0073
2192.00,0.0073
2191.00,0.0072
2190.00,0.0073
2189.00,0.0073
2188.00,0.0074
2187.00,0.0075
2186.00,0.0074
2185.00,0.0073
2184.00,0.0072
2183.00,0.0071
2182.00,0.0071
2181.00,0.0072
2180.00,0.0073
2179.00,0.0073
2178.00,0.0072
2177.00,0.0071
2176.00,0.0071
2175.00,0.0071
2174.00,0.0071
2173.00,0.0072
2172.00,0.0072
2171.00,0.0073
2170.00,0.0073
2169.00,0.0073
2168.00,0.0073
2167.00,0.0073
2166.00,0.0073
2165.00,0.0074
2164.00,0.0075
2163.00,0.0074
2162.00,0.0071
2161.00,0.0066
2160.00,0.0062
2159.00,0.0061
2158.00,0.0062
2157.00,0.0063
2156.00,0.0064
2155.00,0.0065
2154.00,0.0064
2153.00,0.0064
2152.00,0.0065
2151.00,0.0065
2150.00,0.0065
2149.00,0.0066
2148.00,0.0066
2147.00,0.0067
2146.00,0.0067
2145.00,0.0067
2144.00,0.0067
2143.00,0.0068
2142.00,0.0068
2141.00,0.0068
2140.00,0.0068
2139.00,0.0068
2138.00,0.0068
2137.00,0.0067
2136.00,0.0066
2135.00,0.0066
2134.00,0.0066
2133.00,0.0066
2132.00,0.0068
2131.00,0.0068
2130.00,0.0069
2129.00,0.0069
2128.00,0.0069
2127.00,0.0068
2126.00,0.0068
2125.00,0.0068
2124.00,0.0068
2123.00,0.0069
2122.00,0.0069
2121.00,0.0069
2120.00,0.0070
2119.00,0.0070
2118.00,0.0070
2117.00,0.0070
2116.00,0.0070
2115.00,0.0070
2114.00,0.0070
2113.00,0.0069
2112.00,0.0068
2111.00,0.0068
2110.00,0.0067
2109.00,0.0067
2108.00,0.0068
2107.00,0.0068
2106.00,0.0068
2105.00,0.0068
2104.00,0.0068
2103.00,0.0067
2102.00,0.0067
2101.00,0.0066
2100.00,0.0066
2099.00,0.0066
2098.00,0.0066
2097.00,0.0065
2096.00,0.0065
2095.00,0.0065
2094.00,0.0066
2093.00,0.0066
2092.00,0.0067
2091.00,0.0068
2090.00,0.0068
2089.00,0.0068
2088.00,0.0068
2087.00,0.0068
2086.00,0.0068
2085.00,0.0068
2084.00,0.0068
2083.00,0.0068
2082.00,0.0068
2081.00,0.0068
2080.00,0.0068
2079.00,0.0068
2078.00,0.0067
2077.00,0.0067
2076.00,0.0067
2075.00,0.0067
2074.00,0.0067
2073.00,0.0067
2072.00,0.0066
2071.00,0.0065
2070.00,0.0064
2069.00,0.0064
2068.00,0.0064
2067.00,0.0063
2066.00,0.0063
2065.00,0.0062
2064.00,0.0062
2063.00,0.0062
2062.00,0.0062
2061.00,0.0063
2060.00,0.0063
2059.00,0.0064
2058.00,0.0064
2057.00,0.0064
2056.00,0.0064
2055.00,0.0064
2054.00,0.0064
2053.00,0.0065
2052.00,0.0065
2051.00,0.0064
2050.00,0.0063
2049.00,0.0063
2048.00,0.0062
2047.00,0.0061
2046.00,0.0060
2045.00,0.0059
2044.00,0.0059
2043.00,0.0058
2042.00,0.0056
2041.00,0.0055
2040.00,0.0055
2039.00,0.0054
2038.00,0.0053
2037.00,0.0052
2036.00,0.0053
2035.00,0.0053
2034.00,0.0053
2033.00,0.0054
2032.00,0.0055
2031.00,0.0056
2030.00,0.0056
2029.00,0.0058
2028.00,0.0059
2027.00,0.0060
2026.00,0.0061
2025.00,0.0061
2024.00,0.0060
2023.00,0.0060
2022.00,0.0060
2021.00,0.0060
2020.00,0.0062
2019.00,0.0062
2018.00,0.0063
2017.00,0.0062
2016.00,0.0061
2015.00,0.0060
2014.00,0.0058
2013.00,0.0058
2012.00,0.0058
2011.00,0.0059
2010.00,0.0058
2009.00,0.0058
2008.00,0.0057
2007.00,0.0055
2006.00,0.0054
2005.00,0.0055
2004.00,0.0056
2003.00,0.0057
2002.00,0.0057
2001.00,0.0058
2000.00,0.0059
1999.00,0.0059
1998.00,0.0059
1997.00,0.0059
1996.00,0.0060
1995.00,0.0060
1994.00,0.0061
1993.00,0.0062
1992.00,0.0063
1991.00,0.0065
1990.00,0.0066
1989.00,0.0067
1988.00,0.0068
1987.00,0.0067
1986.00,0.0066
1985.00,0.0065
1984.00,0.0066
1983.00,0.0067
1982.00,0.0067
1981.00,0.0067
1980.00,0.0066
1979.00,0.0064
1978.00,0.0061
1977.00,0.0059
1976.00,0.0059
1975.00,0.0060
1974.00,0.0060
1973.00,0.0061
1972.00,0.0060
1971.00,0.0059
1970.00,0.0059
1969.00,0.0058
1968.00,0.0059
1967.00,0.0059
1966.00,0.0059
1965.00,0.0060
1964.00,0.0061
1963.00,0.0061
1962.00,0.0061
1961.00,0.0061
1960.00,0.0062
1959.00,0.0062
1958.00,0.0063
1957.00,0.0063
1956.00,0.0063
1955.00,0.0063
1954.00,0.0063
1953.00,0.0063
1952.00,0.0064
1951.00,0.0065
1950.00,0.0065
1949.00,0.0065
1948.00,0.0065
1947.00,0.0064
1946.00,0.0064
1945.00,0.0064
1944.00,0.0065
1943.00,0.0065
1942.00,0.0064
1941.00,0.0064
1940.00,0.0064
1939.00,0.0064
1938.00,0.0064
1937.00,0.0064
1936.00,0.0064
1935.00,0.0065
1934.00,0.0064
1933.00,0.0064
1932.00,0.0064
1931.00,0.0065
1930.00,0.0065
1929.00,0.0066
1928.00,0.0066
1927.00,0.0067
1926.00,0.0066
1925.00,0.0066
1924.00,0.0066
1923.00,0.0066
1922.00,0.0066
1921.00,0.0066
1920.00,0.0066
1919.00,0.0066
1918.00,0.0066
1917.00,0.0066
1916.00,0.0066
1915.00,0.0067
1914.00,0.0067
1913.00,0.0068
1912.00,0.0068
1911.00,0.0069
1910.00,0.0069
1909.00,0.0068
1908.00,0.0068
1907.00,0.0068
1906.00,0.0069
1905.00,0.0069
1904.00,0.0070
1903.00,0.0070
1902.00,0.0070
1901.00,0.0069
1900.00,0.0069
1899.00,0.0070
1898.00,0.0070
1897.00,0.0070
1896.00,0.0070
1895.00,0.0070
1894.00,0.0070
1893.00,0.0070
1892.00,0.0070
1891.00,0.0070
1890.00,0.0070
1889.00,0.0070
1888.00,0.0070
1887.00,0.0070
1886.00,0.0071
1885.00,0.0071
1884.00,0.0071
1883.00,0.0070
1882.00,0.0071
1881.00,0.0071
1880.00,0.0071
1879.00,0.0071
1878.00,0.0071
1877.00,0.0071
1876.00,0.0072
1875.00,0.0072
1874.00,0.0072
1873.00,0.0072
1872.00,0.0072
1871.00,0.0072
1870.00,0.0072
1869.00,0.0072
1868.00,0.0071
1867.00,0.0071
1866.00,0.0071
1865.00,0.0071
1864.00,0.0071
1863.00,0.0071
1862.00,0.0070
1861.00,0.0070
1860.00,0.0070
1859.00,0.0070
1858.00,0.0070
1857.00,0.0071
1856.00,0.0071
1855.00,0.0071
1854.00,0.0071
1853.00,0.0071
1852.00,0.0071
1851.00,0.0071
1850.00,0.0071
1849.00,0.0072
1848.00,0.0072
1847.00,0.0071
1846.00,0.0071
1845.00,0.0071
1844.00,0.0071
1843.00,0.0071
1842.00,0.0071
1841.00,0.0071
1840.00,0.0072
1839.00,0.0072
1838.00,0.0072
1837.00,0.0072
1836.00,0.0072
1835.00,0.0072
1834.00,0.0072
1833.00,0.0073
1832.00,0.0073
1831.00,0.0073
1830.00,0.0073
1829.00,0.0073
1828.00,0.0073
1827.00,0.0073
1826.00,0.0073
1825.00,0.0073
1824.00,0.0074
1823.00,0.0074
1822.00,0.0074
1821.00,0.0075
1820.00,0.0075
1819.00,0.0074
1818.00,0.0074
1817.00,0.0074
1816.00,0.0075
1815.00,0.0075
1814.00,0.0076
1813.00,0.0076
1812.00,0.0077
1811.00,0.0078
1810.00,0.0079
1809.00,0.0080
1808.00,0.0081
1807.00,0.0082
1806.00,0.0083
1805.00,0.0084
1804.00,0.0084
1803.00,0.0085
1802.00,0.0085
1801.00,0.0085
1800.00,0.0085
1799.00,0.0085
1798.00,0.0085
1797.00,0.0084
1796.00,0.0084
1795.00,0.0083
1794.00,0.0082
1793.00,0.0081
1792.00,0.0080
1791.00,0.0079
1790.00,0.0078
1789.00,0.0078
1788.00,0.0079
1787.00,0.0079
1786.00,0.0079
1785.00,0.0079
1784.00,0.0079
1783.00,0.0079
1782.00,0.0080
1781.00,0.0080
1780.00,0.0081
1779.00,0.0081
1778.00,0.0082
1777.00,0.0083
1776.00,0.0085
1775.00,0.0086
1774.00,0.0088
1773.00,0.0089
1772.00,0.0090
1771.00,0.0090
1770.00,0.0090
1769.00,0.0088
1768.00,0.0087
1767.00,0.0085
1766.00,0.0083
1765.00,0.0082
1764.00,0.0081
1763.00,0.0081
1762.00,0.0080
1761.00,0.0079
1760.00,0.0079
1759.00,0.0079
1758.00,0.0079
1757.00,0.0079
1756.00,0.0079
1755.00,0.0079
1754.00,0.0079
1753.00,0.0079
1752.00,0.0079
1751.00,0.0079
1750.00,0.0079
1749.00,0.0078
1748.00,0.0078
1747.00,0.0079
1746.00,0.0079
1745.00,0.0079
1744.00,0.0079
1743.00,0.0079
1742.00,0.0078
1741.00,0.0078
1740.00,0.0079
1739.00,0.0079
1738.00,0.0079
1737.00,0.0079
1736.00,0.0080
1735.00,0.0080
1734.00,0.0081
1733.00,0.0081
1732.00,0.0082
1731.00,0.0082
1730.00,0.0082
1729.00,0.0082
1728.00,0.0082
1727.00,0.0083
1726.00,0.0083
1725.00,0.0084
1724.00,0.0085
1723.00,0.0085
1722.00,0.0085
1721.00,0.0086
1720.00,0.0086
1719.00,0.0087
1718.00,0.0087
1717.00,0.0087
1716.00,0.0088
1715.00,0.0088
1714.00,0.0089
1713.00,0.0089
1712.00,0.0090
1711.00,0.0090
1710.00,0.0091
1709.00,0.0091
1708.00,0.0092
1707.00,0.0092
1706.00,0.0093
1705.00,0.0093
1704.00,0.0093
1703.00,0.0093
1702.00,0.0094
1701.00,0.0095
1700.00,0.0096
1699.00,0.0097
1698.00,0.0097
1697.00,0.0098
1696.00,0.0098
1695.00,0.0098
1694.00,0.0098
1693.00,0.0098
1692.00,0.0098
1691.00,0.0098
1690.00,0.0098
1689.00,0.0097
1688.00,0.0096
1687.00,0.0096
1686.00,0.0096
1685.00,0.0096
1684.00,0.0096
1683.00,0.0095
1682.00,0.0095
1681.00,0.0096
1680.00,0.0096
1679.00,0.0096
1678.00,0.0096
1677.00,0.0096
1676.00,0.0097
1675.00,0.0098
1674.00,0.0099
1673.00,0.0100
1672.00,0.0102
1671.00,0.0104
1670.00,0.0105
1669.00,0.0107
1668.00,0.0110
1667.00,0.0114
1666.00,0.0117
1665.00,0.0120
1664.00,0.0124
1663.00,0.0127
1662.00,0.0129
1661.00,0.0129
1660.00,0.0129
1659.00,0.0129
1658.00,0.0128
1657.00,0.0127
1656.00,0.0128
1655.00,0.0130
1654.00,0.0138
1653.00,0.0151
1652.00,0.0166
1651.00,0.0181
1650.00,0.0195
1649.00,0.0215
1648.00,0.0252
1647.00,0.0311
1646.00,0.0380
1645.00,0.0436
1644.00,0.0468
1643.00,0.0475
1642.00,0.0463
1641.00,0.0441
1640.00,0.0421
1639.00,0.0409
1638.00,0.0413
1637.00,0.0439
1636.00,0.0493
1635.00,0.0563
1634.00,0.0624
1633.00,0.0669
1632.00,0.0703
1631.00,0.0729
1630.00,0.0751
1629.00,0.0772
1628.00,0.0798
1627.00,0.0832
1626.00,0.0873
1625.00,0.0919
1624.00,0.0962
1623.00,0.0985
1622.00,0.0971
1621.00,0.0922
1620.00,0.0853
1619.00,0.0772
1618.00,0.0682
1617.00,0.0587
1616.00,0.0504
1615.00,0.0443
1614.00,0.0400
1613.00,0.0366
1612.00,0.0336
1611.00,0.0309
1610.00,0.0286
1609.00,0.0267
1608.00,0.0251
1607.00,0.0238
1606.00,0.0229
1605.00,0.0222
1604.00,0.0216
1603.00,0.0213
1602.00,0.0213
1601.00,0.0214
1600.00,0.0219
1599.00,0.0226
1598.00,0.0235
1597.00,0.0249
1596.00,0.0268
1595.00,0.0293
1594.00,0.0326
1593.00,0.0370
1592.00,0.0427
1591.00,0.0499
1590.00,0.0585
1589.00,0.0681
1588.00,0.0781
1587.00,0.0878
1586.00,0.0967
1585.00,0.1046
1584.00,0.1115
1583.00,0.1168
1582.00,0.1196
1581.00,0.1193
1580.00,0.1161
1579.00,0.1104
1578.00,0.1023
1577.00,0.0921
1576.00,0.0810
1575.00,0.0714
1574.00,0.0641
1573.00,0.0584
1572.00,0.0532
1571.00,0.0481
1570.00,0.0430
1569.00,0.0383
1568.00,0.0345
1567.00,0.0315
1566.00,0.0290
1565.00,0.0266
1564.00,0.0246
1563.00,0.0230
1562.00,0.0218
1561.00,0.0208
1560.00,0.0199
1559.00,0.0189
1558.00,0.0181
1557.00,0.0177
1556.00,0.0174
1555.00,0.0171
1554.00,0.0168
1553.00,0.0164
1552.00,0.0161
1551.00,0.0158
1550.00,0.0154
1549.00,0.0151
1548.00,0.0149
1547.00,0.0147
1546.00,0.0146
1545.00,0.0144
1544.00,0.0142
1543.00,0.0140
1542.00,0.0139
1541.00,0.0139
1540.00,0.0138
1539.00,0.0138
1538.00,0.0139
1537.00,0.0140
1536.00,0.0140
1535.00,0.0140
1534.00,0.0141
1533.00,0.0141
1532.00,0.0141
1531.00,0.0142
1530.00,0.0143
1529.00,0.0145
1528.00,0.0146
1527.00,0.0149
1526.00,0.0152
1525.00,0.0157
1524.00,0.0163
1523.00,0.0172
1522.00,0.0187
1521.00,0.0208
1520.00,0.0230
1519.00,0.0251
1518.00,0.0272
1517.00,0.0294
1516.00,0.0313
1515.00,0.0325
1514.00,0.0329
1513.00,0.0325
1512.00,0.0314
1511.00,0.0298
1510.00,0.0281
1509.00,0.0264
1508.00,0.0248
1507.00,0.0232
1506.00,0.0219
1505.00,0.0212
1504.00,0.0209
1503.00,0.0205
1502.00,0.0201
1501.00,0.0197
1500.00,0.0192
1499.00,0.0186
1498.00,0.0180
1497.00,0.0174
1496.00,0.0168
1495.00,0.0162
1494.00,0.0158
1493.00,0.0154
1492.00,0.0150
1491.00,0.0147
1490.00,0.0143
1489.00,0.0140
1488.00,0.0137
1487.00,0.0135
1486.00,0.0134
1485.00,0.0134
1484.00,0.0135
1483.00,0.0135
1482.00,0.0135
1481.00,0.0137
1480.00,0.0138
1479.00,0.0141
1478.00,0.0144
1477.00,0.0148
1476.00,0.0154
1475.00,0.0160
1474.00,0.0170
1473.00,0.0187
1472.00,0.0212
1471.00,0.0244
1470.00,0.0280
1469.00,0.0319
1468.00,0.0358
1467.00,0.0390
1466.00,0.0413
1465.00,0.0431
1464.00,0.0445
1463.00,0.0459
1462.00,0.0473
1461.00,0.0487
1460.00,0.0499
1459.00,0.0510
1458.00,0.0525
1457.00,0.0550
1456.00,0.0584
1455.00,0.0619
1454.00,0.0659
1453.00,0.0712
1452.00,0.0779
1451.00,0.0858
1450.00,0.0949
1449.00,0.1054
1448.00,0.1169
1447.00,0.1277
1446.00,0.1365
1445.00,0.1429
1444.00,0.1467
1443.00,0.1480
1442.00,0.1475
1441.00,0.1458
1440.00,0.1432
1439.00,0.1398
1438.00,0.1359
1437.00,0.1313
1436.00,0.1262
1435.00,0.1208
1434.00,0.1156
1433.00,0.1105
1432.00,0.1047
1431.00,0.0981
1430.00,0.0902
1429.00,0.0813
1428.00,0.0719
1427.00,0.0630
1426.00,0.0550
1425.00,0.0478
1424.00,0.0416
1423.00,0.0368
1422.00,0.0333
1421.00,0.0305
1420.00,0.0280
1419.00,0.0258
1418.00,0.0241
1417.00,0.0228
1416.00,0.0217
1415.00,0.0208
1414.00,0.0200
1413.00,0.0193
1412.00,0.0186
1411.00,0.0181
1410.00,0.0176
1409.00,0.0172
1408.00,0.0168
1407.00,0.0166
1406.00,0.0164
1405.00,0.0162
1404.00,0.0160
1403.00,0.0158
1402.00,0.0157
1401.00,0.0155
1400.00,0.0153
1399.00,0.0152
1398.00,0.0151
1397.00,0.0150
1396.00,0.0148
1395.00,0.0146
1394.00,0.0145
1393.00,0.0144
1392.00,0.0142
1391.00,0.0143
1390.00,0.0144
1389.00,0.0146
1388.00,0.0149
1387.00,0.0155
1386.00,0.0165
1385.00,0.0177
1384.00,0.0193
1383.00,0.0215
1382.00,0.0247
1381.00,0.0288
1380.00,0.0341
1379.00,0.0407
1378.00,0.0479
1377.00,0.0546
1376.00,0.0595
1375.00,0.0618
1374.00,0.0609
1373.00,0.0578
1372.00,0.0538
1371.00,0.0499
1370.00,0.0463
1369.00,0.0430
1368.00,0.0401
1367.00,0.0378
1366.00,0.0357
1365.00,0.0338
1364.00,0.0318
1363.00,0.0300
1362.00,0.0284
1361.00,0.0272
1360.00,0.0263
1359.00,0.0257
1358.00,0.0253
1357.00,0.0251
1356.00,0.0250
1355.00,0.0250
1354.00,0.0252
1353.00,0.0254
1352.00,0.0256
1351.00,0.0259
1350.00,0.0263
1349.00,0.0269
1348.00,0.0276
1347.00,0.0286
1346.00,0.0296
1345.00,0.0306
1344.00,0.0315
1343.00,0.0323
1342.00,0.0327
1341.00,0.0326
1340.00,0.0319
1339.00,0.0307
1338.00,0.0294
1337.00,0.0283
1336.00,0.0276
1335.00,0.0275
1334.00,0.0280
1333.00,0.0289
1332.00,0.0300
1331.00,0.0315
1330.00,0.0330
1329.00,0.0344
1328.00,0.0357
1327.00,0.0370
1326.00,0.0383
1325.00,0.0395
1324.00,0.0402
1323.00,0.0401
1322.00,0.0391
1321.00,0.0376
1320.00,0.0362
1319.00,0.0355
1318.00,0.0360
1317.00,0.0379
1316.00,0.0413
1315.00,0.0459
1314.00,0.0510
1313.00,0.0558
1312.00,0.0592
1311.00,0.0607
1310.00,0.0604
1309.00,0.0589
1308.00,0.0570
1307.00,0.0559
1306.00,0.0558
1305.00,0.0568
1304.00,0.0584
1303.00,0.0602
1302.00,0.0615
1301.00,0.0621
1300.00,0.0619
1299.00,0.0612
1298.00,0.0601
1297.00,0.0586
1296.00,0.0569
1295.00,0.0550
1294.00,0.0530
1293.00,0.0511
1292.00,0.0492
1291.00,0.0476
1290.00,0.0462
1289.00,0.0454
1288.00,0.0452
1287.00,0.0459
1286.00,0.0475
1285.00,0.0498
1284.00,0.0524
1283.00,0.0552
1282.00,0.0578
1281.00,0.0600
1280.00,0.0615
1279.00,0.0623
1278.00,0.0624
1277.00,0.0616
1276.00,0.0601
1275.00,0.0580
1274.00,0.0552
1273.00,0.0520
1272.00,0.0483
1271.00,0.0445
1270.00,0.0407
1269.00,0.0371
1268.00,0.0338
1267.00,0.0311
1266.00,0.0288
1265.00,0.0269
1264.00,0.0254
1263.00,0.0242
1262.00,0.0232
1261.00,0.0224
1260.00,0.0216
1259.00,0.0210
1258.00,0.0206
1257.00,0.0203
1256.00,0.0202
1255.00,0.0204
1254.00,0.0209
1253.00,0.0216
1252.00,0.0228
1251.00,0.0243
1250.00,0.0260
1249.00,0.0275
1248.00,0.0286
1247.00,0.0294
1246.00,0.0303
1245.00,0.0317
1244.00,0.0342
1243.00,0.0380
1242.00,0.0433
1241.00,0.0498
1240.00,0.0571
1239.00,0.0644
1238.00,0.0704
1237.00,0.0743
1236.00,0.0760
1235.00,0.0759
1234.00,0.0746
1233.00,0.0724
1232.00,0.0695
1231.00,0.0666
1230.00,0.0646
1229.00,0.0643
1228.00,0.0663
1227.00,0.0706
1226.00,0.0765
1225.00,0.0833
1224.00,0.0905
1223.00,0.0981
1222.00,0.1066
1221.00,0.1165
1220.00,0.1284
1219.00,0.1424
1218.00,0.1576
1217.00,0.1722
1216.00,0.1840
1215.00,0.1907
1214.00,0.1914
1213.00,0.1862
1212.00,0.1764
1211.00,0.1639
1210.00,0.1505
1209.00,0.1377
1208.00,0.1262
1207.00,0.1163
1206.00,0.1078
1205.00,0.1001
1204.00,0.0926
1203.00,0.0850
1202.00,0.0774
1201.00,0.0701
1200.00,0.0634
1199.00,0.0574
1198.00,0.0525
1197.00,0.0485
1196.00,0.0454
1195.00,0.0432
1194.00,0.0418
1193.00,0.0411
1192.00,0.0411
1191.00,0.0416
1190.00,0.0425
1189.00,0.0435
1188.00,0.0447
1187.00,0.0461
1186.00,0.0475
1185.00,0.0491
1184.00,0.0506
1183.00,0.0519
1182.00,0.0531
1181.00,0.0539
1180.00,0.0546
1179.00,0.0552
1178.00,0.0558
1177.00,0.0563
1176.00,0.0570
1175.00,0.0584
1174.00,0.0607
1173.00,0.0632
1172.00,0.0643
1171.00,0.0626
1170.00,0.0580
1169.00,0.0516
1168.00,0.0451
1167.00,0.0396
1166.00,0.0352
1165.00,0.0318
1164.00,0.0293
1163.00,0.0275
1162.00,0.0262
1161.00,0.0255
1160.00,0.0251
1159.00,0.0253
1158.00,0.0260
1157.00,0.0275
1156.00,0.0303
1155.00,0.0350
1154.00,0.0420
1153.00,0.0511
1152.00,0.0605
1151.00,0.0674
1150.00,0.0689
1149.00,0.0644
1148.00,0.0557
1147.00,0.0461
1146.00,0.0380
1145.00,0.0321
1144.00,0.0282
1143.00,0.0257
1142.00,0.0242
1141.00,0.0233
1140.00,0.0230
1139.00,0.0232
1138.00,0.0238
1137.00,0.0246
1136.00,0.0253
1135.00,0.0257
1134.00,0.0256
1133.00,0.0250
1132.00,0.0239
1131.00,0.0226
1130.00,0.0213
1129.00,0.0201
1128.00,0.0191
1127.00,0.0182
1126.00,0.0176
1125.00,0.0171
1124.00,0.0167
1123.00,0.0164
1122.00,0.0163
1121.00,0.0162
1120.00,0.0162
1119.00,0.0163
1118.00,0.0165
1117.00,0.0167
1116.00,0.0170
1115.00,0.0173
1114.00,0.0176
1113.00,0.0179
1112.00,0.0182
1111.00,0.0187
1110.00,0.0193
1109.00,0.0200
1108.00,0.0209
1107.00,0.0219
1106.00,0.0231
1105.00,0.0245
1104.00,0.0259
1103.00,0.0274
1102.00,0.0293
1101.00,0.0312
1100.00,0.0329
1099.00,0.0339
1098.00,0.0337
1097.00,0.0324
1096.00,0.0302
1095.00,0.0278
1094.00,0.0258
1093.00,0.0242
1092.00,0.0230
1091.00,0.0221
1090.00,0.0214
1089.00,0.0208
1088.00,0.0205
1087.00,0.0207
1086.00,0.0213
1085.00,0.0225
1084.00,0.0242
1083.00,0.0266
1082.00,0.0293
1081.00,0.0318
1080.00,0.0335
1079.00,0.0340
1078.00,0.0332
1077.00,0.0314
1076.00,0.0292
1075.00,0.0271
1074.00,0.0254
1073.00,0.0240
1072.00,0.0229
1071.00,0.0221
1070.00,0.0214
1069.00,0.0208
1068.00,0.0204
1067.00,0.0202
1066.00,0.0201
1065.00,0.0203
1064.00,0.0206
1063.00,0.0212
1062.00,0.0221
1061.00,0.0234
1060.00,0.0253
1059.00,0.0280
1058.00,0.0322
1057.00,0.0381
1056.00,0.0459
1055.00,0.0551
1054.00,0.0641
1053.00,0.0713
1052.00,0.0758
1051.00,0.0774
1050.00,0.0761
1049.00,0.0722
1048.00,0.0660
1047.00,0.0588
1046.00,0.0520
1045.00,0.0468
1044.00,0.0435
1043.00,0.0420
1042.00,0.0421
1041.00,0.0430
1040.00,0.0447
1039.00,0.0470
1038.00,0.0504
1037.00,0.0551
1036.00,0.0614
1035.00,0.0692
1034.00,0.0775
1033.00,0.0847
1032.00,0.0890
1031.00,0.0892
1030.00,0.0859
1029.00,0.0804
1028.00,0.0747
1027.00,0.0704
1026.00,0.0686
1025.00,0.0697
1024.00,0.0740
1023.00,0.0813
1022.00,0.0909
1021.00,0.1010
1020.00,0.1092
1019.00,0.1132
1018.00,0.1119
1017.00,0.1063
1016.00,0.0981
1015.00,0.0894
1014.00,0.0812
1013.00,0.0739
1012.00,0.0679
1011.00,0.0635
1010.00,0.0610
1009.00,0.0600
1008.00,0.0602
1007.00,0.0616
1006.00,0.0643
1005.00,0.0679
1004.00,0.0717
1003.00,0.0747
1002.00,0.0762
1001.00,0.0753
1000.00,0.0721
999.00,0.0668
998.00,0.0602
997.00,0.0535
996.00,0.0475
995.00,0.0429
994.00,0.0397
993.00,0.0377
992.00,0.0368
991.00,0.0369
990.00,0.0379
989.00,0.0393
988.00,0.0409
987.00,0.0423
986.00,0.0435
985.00,0.0439
984.00,0.0434
983.00,0.0418
982.00,0.0396
981.00,0.0370
980.00,0.0349
979.00,0.0333
978.00,0.0324
977.00,0.0317
976.00,0.0310
975.00,0.0304
974.00,0.0299
973.00,0.0297
972.00,0.0299
971.00,0.0307
970.00,0.0319
969.00,0.0336
968.00,0.0355
967.00,0.0375
966.00,0.0398
965.00,0.0424
964.00,0.0455
963.00,0.0486
962.00,0.0510
961.00,0.0519
960.00,0.0506
959.00,0.0474
958.00,0.0430
957.00,0.0384
956.00,0.0341
955.00,0.0307
954.00,0.0280
953.00,0.0260
952.00,0.0245
951.00,0.0234
950.00,0.0225
949.00,0.0218
948.00,0.0213
947.00,0.0208
946.00,0.0205
945.00,0.0202
944.00,0.0199
943.00,0.0196
942.00,0.0194
941.00,0.0192
940.00,0.0189
939.00,0.0188
938.00,0.0187
937.00,0.0187
936.00,0.0187
935.00,0.0188
934.00,0.0192
933.00,0.0196
932.00,0.0201
931.00,0.0207
930.00,0.0214
929.00,0.0218
928.00,0.0220
927.00,0.0220
926.00,0.0219
925.00,0.0219
924.00,0.0217
923.00,0.0217
922.00,0.0217
921.00,0.0219
920.00,0.0223
919.00,0.0232
918.00,0.0243
917.00,0.0255
916.00,0.0265
915.00,0.0272
914.00,0.0273
913.00,0.0271
912.00,0.0266
911.00,0.0265
910.00,0.0269
909.00,0.0278
908.00,0.0295
907.00,0.0319
906.00,0.0351
905.00,0.0389
904.00,0.0434
903.00,0.0486
902.00,0.0553
901.00,0.0640
900.00,0.0751
899.00,0.0884
898.00,0.1020
897.00,0.1124
896.00,0.1167
895.00,0.1139
894.00,0.1056
893.00,0.0949
892.00,0.0845
891.00,0.0761
890.00,0.0710
889.00,0.0700
888.00,0.0739
887.00,0.0831
886.00,0.0972
885.00,0.1134
884.00,0.1269
883.00,0.1325
882.00,0.1279
881.00,0.1150
880.00,0.0984
879.00,0.0825
878.00,0.0699
877.00,0.0607
876.00,0.0546
875.00,0.0511
874.00,0.0497
873.00,0.0501
872.00,0.0520
871.00,0.0547
870.00,0.0568
869.00,0.0572
868.00,0.0560
867.00,0.0545
866.00,0.0541
865.00,0.0560
864.00,0.0599
863.00,0.0648
862.00,0.0688
861.00,0.0709
860.00,0.0709
859.00,0.0699
858.00,0.0694
857.00,0.0700
856.00,0.0718
855.00,0.0744
854.00,0.0771
853.00,0.0796
852.00,0.0815
851.00,0.0826
850.00,0.0823
849.00,0.0802
848.00,0.0767
847.00,0.0728
846.00,0.0695
845.00,0.0671
844.00,0.0655
843.00,0.0642
842.00,0.0628
841.00,0.0612
840.00,0.0596
839.00,0.0586
838.00,0.0585
837.00,0.0593
836.00,0.0607
835.00,0.0628
834.00,0.0656
833.00,0.0687
832.00,0.0718
831.00,0.0749
830.00,0.0777
829.00,0.0799
828.00,0.0810
827.00,0.0807
826.00,0.0785
825.00,0.0747
824.00,0.0696
823.00,0.0640
822.00,0.0585
821.00,0.0530
820.00,0.0479
819.00,0.0434
818.00,0.0398
817.00,0.0371
816.00,0.0351
815.00,0.0337
814.00,0.0326
813.00,0.0318
812.00,0.0311
811.00,0.0311
810.00,0.0322
809.00,0.0350
808.00,0.0401
807.00,0.0478
806.00,0.0565
805.00,0.0636
804.00,0.0663
803.00,0.0640
802.00,0.0583
801.00,0.0515
800.00,0.0452
799.00,0.0403
798.00,0.0366
797.00,0.0339
796.00,0.0319
795.00,0.0306
794.00,0.0300
793.00,0.0298
792.00,0.0295
791.00,0.0292
790.00,0.0288
789.00,0.0285
788.00,0.0284
787.00,0.0286
786.00,0.0289
785.00,0.0288
784.00,0.0281
783.00,0.0271
782.00,0.0261
781.00,0.0253
780.00,0.0249
779.00,0.0248
778.00,0.0248
777.00,0.0247
776.00,0.0243
775.00,0.0239
774.00,0.0237
773.00,0.0237
772.00,0.0238
771.00,0.0240
770.00,0.0241
769.00,0.0239
768.00,0.0232
767.00,0.0222
766.00,0.0212
765.00,0.0204
764.00,0.0196
763.00,0.0190
762.00,0.0187
761.00,0.0186
760.00,0.0185
759.00,0.0187
758.00,0.0191
757.00,0.0198
756.00,0.0209
755.00,0.0226
754.00,0.0250
753.00,0.0274
752.00,0.0294
751.00,0.0308
750.00,0.0319
749.00,0.0325
748.00,0.0322
747.00,0.0308
746.00,0.0286
745.00,0.0261
744.00,0.0238
743.00,0.0221
742.00,0.0209
741.00,0.0201
740.00,0.0195
739.00,0.0194
738.00,0.0196
737.00,0.0201
736.00,0.0208
735.00,0.0220
734.00,0.0238
733.00,0.0261
732.00,0.0282
731.00,0.0296
730.00,0.0296
729.00,0.0284
728.00,0.0265
727.00,0.0249
726.00,0.0239
725.00,0.0234
724.00,0.0229
723.00,0.0225
722.00,0.0223
721.00,0.0222
720.00,0.0221
719.00,0.0218
718.00,0.0212
717.00,0.0204
716.00,0.0195
715.00,0.0186
714.00,0.0181
713.00,0.0179
712.00,0.0179
711.00,0.0178
710.00,0.0177
709.00,0.0174
708.00,0.0169
707.00,0.0163
706.00,0.0159
705.00,0.0155
704.00,0.0152
703.00,0.0150
702.00,0.0150
701.00,0.0149
700.00,0.0149
699.00,0.0148
698.00,0.0148
697.00,0.0148
696.00,0.0147
695.00,0.0146
694.00,0.0147
693.00,0.0148
692.00,0.0148
691.00,0.0148
690.00,0.0149
689.00,0.0151
688.00,0.0151
687.00,0.0152
686.00,0.0154
685.00,0.0156
684.00,0.0157
683.00,0.0159
682.00,0.0162
681.00,0.0165
680.00,0.0168
679.00,0.0171
678.00,0.0177
677.00,0.0182
676.00,0.0188
675.00,0.0196
674.00,0.0208
673.00,0.0221
672.00,0.0236
671.00,0.0252
670.00,0.0268
669.00,0.0282
668.00,0.0293
667.00,0.0302
666.00,0.0311
665.00,0.0318
664.00,0.0324
663.00,0.0329
662.00,0.0332
661.00,0.0332
660.00,0.0331
659.00,0.0330
658.00,0.0329
657.00,0.0327
656.00,0.0321
655.00,0.0316
654.00,0.0315
653.00,0.0318
652.00,0.0326
651.00,0.0337
650.00,0.0349
649.00,0.0356
648.00,0.0355
647.00,0.0347
646.00,0.0333
645.00,0.0315
644.00,0.0296
643.00,0.0280
642.00,0.0267
641.00,0.0258
640.00,0.0250
639.00,0.0246
638.00,0.0245
637.00,0.0246
636.00,0.0247
635.00,0.0249
634.00,0.0254
633.00,0.0259
632.00,0.0265
631.00,0.0271
630.00,0.0279
629.00,0.0288
628.00,0.0295
627.00,0.0303
626.00,0.0311
625.00,0.0318
624.00,0.0322
623.00,0.0323
622.00,0.0319
621.00,0.0309
620.00,0.0294
619.00,0.0276
618.00,0.0260
617.00,0.0249
616.00,0.0247
615.00,0.0258
614.00,0.0283
613.00,0.0318
612.00,0.0351
611.00,0.0373
610.00,0.0380
609.00,0.0373
608.00,0.0363
607.00,0.0357
606.00,0.0360
605.00,0.0367
604.00,0.0375
603.00,0.0384
602.00,0.0396
601.00,0.0410
600.00,0.0426
599.00,0.0439
598.00,0.0447
597.00,0.0448
596.00,0.0443
595.00,0.0441
594.00,0.0448
593.00,0.0462
592.00,0.0483
591.00,0.0511
590.00,0.0544
589.00,0.0577
588.00,0.0604
587.00,0.0622
586.00,0.0627
585.00,0.0617
584.00,0.0595
583.00,0.0566
582.00,0.0535
581.00,0.0504
580.00,0.0475
579.00,0.0452
578.00,0.0437
577.00,0.0429
576.00,0.0424
575.00,0.0424
574.00,0.0430
573.00,0.0438
572.00,0.0445
571.00,0.0453
570.00,0.0462
569.00,0.0470
568.00,0.0476
567.00,0.0482
566.00,0.0490
565.00,0.0496
564.00,0.0497
563.00,0.0497
562.00,0.0499
561.00,0.0499
560.00,0.0498
559.00,0.0498
558.00,0.0499
557.00,0.0500
556.00,0.0499
555.00,0.0499
554.00,0.0503
553.00,0.0513
552.00,0.0527
551.00,0.0544
550.00,0.0563
549.00,0.0578
548.00,0.0589
547.00,0.0604
546.00,0.0624
545.00,0.0642
544.00,0.0653
543.00,0.0658
542.00,0.0664
541.00,0.0675
540.00,0.0697
539.00,0.0732
538.00,0.0777
537.00,0.0820
536.00,0.0849
535.00,0.0858
534.00,0.0850
533.00,0.0832
532.00,0.0810
531.00,0.0792
530.00,0.0782
529.00,0.0780
528.00,0.0791
527.00,0.0825
526.00,0.0880
525.00,0.0944
524.00,0.1006
523.00,0.1057
522.00,0.1087
521.00,0.1074
520.00,0.1015
519.00,0.0926
518.00,0.0835
517.00,0.0759
516.00,0.0703
515.00,0.0666
514.00,0.0646
513.00,0.0638
512.00,0.0635
511.00,0.0641
510.00,0.0656
509.00,0.0677
508.00,0.0701
507.00,0.0732
506.00,0.0770
505.00,0.0812
504.00,0.0856
503.00,0.0904
502.00,0.0957
501.00,0.1009
500.00,0.1052
499.00,0.1089
498.00,0.1123
497.00,0.1151
496.00,0.1170
495.00,0.1182
494.00,0.1189
493.00,0.1189
492.00,0.1180
491.00,0.1168
490.00,0.1158
489.00,0.1150
488.00,0.1141
487.00,0.1134
486.00,0.1132
485.00,0.1127
484.00,0.1116
483.00,0.1100
482.00,0.1080
481.00,0.1055
480.00,0.1022
479.00,0.0989
478.00,0.0965
477.00,0.0949
476.00,0.0938
475.00,0.0937
474.00,0.0947
473.00,0.0961
472.00,0.0975
471.00,0.0991
470.00,0.1013
469.00,0.1036
468.00,0.1054
467.00,0.1067
466.00,0.1078
465.00,0.1083
464.00,0.1080
463.00,0.1076
462.00,0.1073
461.00,0.1066
460.00,0.1055
459.00,0.1046
458.00,0.1044
457.00,0.1046
456.00,0.1045
455.00,0.1044
454.00,0.1045
453.00,0.1042
452.00,0.1029
451.00,0.1012
450.00,0.0995
449.00,0.0976
448.00,0.0953
447.00,0.0931
446.00,0.0915
445.00,0.0898
444.00,0.0878
443.00,0.0860
442.00,0.0850
441.00,0.0842
440.00,0.0833
439.00,0.0828
438.00,0.0831
437.00,0.0831
436.00,0.0823
435.00,0.0815
434.00,0.0813
433.00,0.0813
432.00,0.0815
431.00,0.0827
430.00,0.0857
429.00,0.0897
428.00,0.0939
427.00,0.0986
426.00,0.1036
425.00,0.1073
424.00,0.1084
423.00,0.1079
422.00,0.1071
421.00,0.1058
420.00,0.1036
419.00,0.1016
418.00,0.1011
417.00,0.1009
416.00,0.1001
415.00,0.0998
414.00,0.1008
413.00,0.1023
412.00,0.1037
411.00,0.1060
410.00,0.1097
409.00,0.1132
408.00,0.1152
407.00,0.1169
406.00,0.1195
405.00,0.1217
404.00,0.1224
403.00,0.1233
402.00,0.1260
401.00,0.1290
400.00,0.1305
