Created as New Dataset,Sample 767 By YargerLab Date Friday, March 20 2026
cm-1,A
4000.00,0.0045
3999.00,0.0045
3998.00,0.0045
3997.00,0.0045
3996.00,0.0045
3995.00,0.0045
3994.00,0.0045
3993.00,0.0045
3992.00,0.0045
3991.00,0.0045
3990.00,0.0045
3989.00,0.0045
3988.00,0.0045
3987.00,0.0045
3986.00,0.0045
3985.00,0.0045
3984.00,0.0045
3983.00,0.0045
3982.00,0.0045
3981.00,0.0045
3980.00,0.0045
3979.00,0.0046
3978.00,0.0046
3977.00,0.0046
3976.00,0.0046
3975.00,0.0046
3974.00,0.0046
3973.00,0.0046
3972.00,0.0046
3971.00,0.0046
3970.00,0.0046
3969.00,0.0046
3968.00,0.0046
3967.00,0.0046
3966.00,0.0046
3965.00,0.0046
3964.00,0.0046
3963.00,0.0046
3962.00,0.0046
3961.00,0.0046
3960.00,0.0046
3959.00,0.0047
3958.00,0.0047
3957.00,0.0047
3956.00,0.0047
3955.00,0.0047
3954.00,0.0047
3953.00,0.0047
3952.00,0.0047
3951.00,0.0046
3950.00,0.0046
3949.00,0.0046
3948.00,0.0047
3947.00,0.0047
3946.00,0.0047
3945.00,0.0047
3944.00,0.0046
3943.00,0.0046
3942.00,0.0046
3941.00,0.0046
3940.00,0.0046
3939.00,0.0046
3938.00,0.0046
3937.00,0.0046
3936.00,0.0046
3935.00,0.0046
3934.00,0.0046
3933.00,0.0046
3932.00,0.0046
3931.00,0.0046
3930.00,0.0046
3929.00,0.0046
3928.00,0.0046
3927.00,0.0046
3926.00,0.0046
3925.00,0.0046
3924.00,0.0046
3923.00,0.0046
3922.00,0.0046
3921.00,0.0046
3920.00,0.0046
3919.00,0.0046
3918.00,0.0046
3917.00,0.0046
3916.00,0.0046
3915.00,0.0046
3914.00,0.0045
3913.00,0.0045
3912.00,0.0045
3911.00,0.0045
3910.00,0.0045
3909.00,0.0045
3908.00,0.0045
3907.00,0.0045
3906.00,0.0045
3905.00,0.0045
3904.00,0.0045
3903.00,0.0045
3902.00,0.0046
3901.00,0.0046
3900.00,0.0046
3899.00,0.0046
3898.00,0.0046
3897.00,0.0045
3896.00,0.0045
3895.00,0.0045
3894.00,0.0044
3893.00,0.0044
3892.00,0.0044
3891.00,0.0044
3890.00,0.0044
3889.00,0.0044
3888.00,0.0044
3887.00,0.0044
3886.00,0.0044
3885.00,0.0044
3884.00,0.0044
3883.00,0.0044
3882.00,0.0044
3881.00,0.0044
3880.00,0.0044
3879.00,0.0043
3878.00,0.0043
3877.00,0.0043
3876.00,0.0043
3875.00,0.0043
3874.00,0.0043
3873.00,0.0043
3872.00,0.0043
3871.00,0.0043
3870.00,0.0043
3869.00,0.0044
3868.00,0.0044
3867.00,0.0044
3866.00,0.0044
3865.00,0.0043
3864.00,0.0043
3863.00,0.0043
3862.00,0.0042
3861.00,0.0042
3860.00,0.0042
3859.00,0.0043
3858.00,0.0043
3857.00,0.0043
3856.00,0.0044
3855.00,0.0045
3854.00,0.0045
3853.00,0.0044
3852.00,0.0044
3851.00,0.0044
3850.00,0.0044
3849.00,0.0044
3848.00,0.0043
3847.00,0.0042
3846.00,0.0042
3845.00,0.0041
3844.00,0.0041
3843.00,0.0041
3842.00,0.0041
3841.00,0.0041
3840.00,0.0042
3839.00,0.0042
3838.00,0.0042
3837.00,0.0042
3836.00,0.0042
3835.00,0.0042
3834.00,0.0042
3833.00,0.0042
3832.00,0.0042
3831.00,0.0041
3830.00,0.0041
3829.00,0.0040
3828.00,0.0040
3827.00,0.0040
3826.00,0.0040
3825.00,0.0040
3824.00,0.0040
3823.00,0.0040
3822.00,0.0040
3821.00,0.0040
3820.00,0.0040
3819.00,0.0040
3818.00,0.0040
3817.00,0.0041
3816.00,0.0041
3815.00,0.0041
3814.00,0.0040
3813.00,0.0040
3812.00,0.0040
3811.00,0.0040
3810.00,0.0040
3809.00,0.0040
3808.00,0.0039
3807.00,0.0039
3806.00,0.0039
3805.00,0.0039
3804.00,0.0039
3803.00,0.0039
3802.00,0.0039
3801.00,0.0039
3800.00,0.0039
3799.00,0.0039
3798.00,0.0039
3797.00,0.0039
3796.00,0.0039
3795.00,0.0039
3794.00,0.0039
3793.00,0.0039
3792.00,0.0039
3791.00,0.0039
3790.00,0.0038
3789.00,0.0038
3788.00,0.0038
3787.00,0.0038
3786.00,0.0038
3785.00,0.0038
3784.00,0.0038
3783.00,0.0038
3782.00,0.0039
3781.00,0.0039
3780.00,0.0039
3779.00,0.0038
3778.00,0.0038
3777.00,0.0038
3776.00,0.0038
3775.00,0.0038
3774.00,0.0038
3773.00,0.0038
3772.00,0.0038
3771.00,0.0038
3770.00,0.0037
3769.00,0.0037
3768.00,0.0038
3767.00,0.0038
3766.00,0.0038
3765.00,0.0038
3764.00,0.0037
3763.00,0.0037
3762.00,0.0037
3761.00,0.0037
3760.00,0.0037
3759.00,0.0037
3758.00,0.0037
3757.00,0.0037
3756.00,0.0037
3755.00,0.0037
3754.00,0.0037
3753.00,0.0037
3752.00,0.0037
3751.00,0.0037
3750.00,0.0038
3749.00,0.0038
3748.00,0.0038
3747.00,0.0039
3746.00,0.0039
3745.00,0.0039
3744.00,0.0039
3743.00,0.0039
3742.00,0.0038
3741.00,0.0038
3740.00,0.0037
3739.00,0.0036
3738.00,0.0036
3737.00,0.0036
3736.00,0.0036
3735.00,0.0037
3734.00,0.0037
3733.00,0.0037
3732.00,0.0037
3731.00,0.0037
3730.00,0.0037
3729.00,0.0037
3728.00,0.0037
3727.00,0.0037
3726.00,0.0036
3725.00,0.0036
3724.00,0.0036
3723.00,0.0036
3722.00,0.0036
3721.00,0.0036
3720.00,0.0036
3719.00,0.0036
3718.00,0.0035
3717.00,0.0035
3716.00,0.0035
3715.00,0.0035
3714.00,0.0035
3713.00,0.0035
3712.00,0.0035
3711.00,0.0035
3710.00,0.0035
3709.00,0.0035
3708.00,0.0036
3707.00,0.0036
3706.00,0.0035
3705.00,0.0035
3704.00,0.0035
3703.00,0.0036
3702.00,0.0036
3701.00,0.0035
3700.00,0.0035
3699.00,0.0035
3698.00,0.0035
3697.00,0.0035
3696.00,0.0035
3695.00,0.0035
3694.00,0.0035
3693.00,0.0035
3692.00,0.0035
3691.00,0.0035
3690.00,0.0036
3689.00,0.0036
3688.00,0.0037
3687.00,0.0037
3686.00,0.0037
3685.00,0.0036
3684.00,0.0036
3683.00,0.0035
3682.00,0.0035
3681.00,0.0035
3680.00,0.0035
3679.00,0.0036
3678.00,0.0036
3677.00,0.0036
3676.00,0.0037
3675.00,0.0037
3674.00,0.0038
3673.00,0.0038
3672.00,0.0039
3671.00,0.0039
3670.00,0.0039
3669.00,0.0039
3668.00,0.0039
3667.00,0.0038
3666.00,0.0038
3665.00,0.0038
3664.00,0.0038
3663.00,0.0037
3662.00,0.0037
3661.00,0.0038
3660.00,0.0038
3659.00,0.0038
3658.00,0.0038
3657.00,0.0038
3656.00,0.0038
3655.00,0.0038
3654.00,0.0038
3653.00,0.0038
3652.00,0.0038
3651.00,0.0037
3650.00,0.0037
3649.00,0.0038
3648.00,0.0038
3647.00,0.0039
3646.00,0.0039
3645.00,0.0039
3644.00,0.0038
3643.00,0.0038
3642.00,0.0038
3641.00,0.0038
3640.00,0.0037
3639.00,0.0037
3638.00,0.0037
3637.00,0.0037
3636.00,0.0037
3635.00,0.0037
3634.00,0.0037
3633.00,0.0037
3632.00,0.0037
3631.00,0.0037
3630.00,0.0038
3629.00,0.0038
3628.00,0.0038
3627.00,0.0039
3626.00,0.0039
3625.00,0.0039
3624.00,0.0038
3623.00,0.0038
3622.00,0.0038
3621.00,0.0038
3620.00,0.0039
3619.00,0.0039
3618.00,0.0040
3617.00,0.0040
3616.00,0.0040
3615.00,0.0040
3614.00,0.0041
3613.00,0.0040
3612.00,0.0040
3611.00,0.0040
3610.00,0.0040
3609.00,0.0040
3608.00,0.0040
3607.00,0.0040
3606.00,0.0040
3605.00,0.0040
3604.00,0.0040
3603.00,0.0040
3602.00,0.0040
3601.00,0.0039
3600.00,0.0039
3599.00,0.0039
3598.00,0.0040
3597.00,0.0040
3596.00,0.0040
3595.00,0.0041
3594.00,0.0041
3593.00,0.0041
3592.00,0.0041
3591.00,0.0041
3590.00,0.0042
3589.00,0.0042
3588.00,0.0043
3587.00,0.0044
3586.00,0.0045
3585.00,0.0045
3584.00,0.0045
3583.00,0.0045
3582.00,0.0045
3581.00,0.0046
3580.00,0.0046
3579.00,0.0047
3578.00,0.0047
3577.00,0.0048
3576.00,0.0048
3575.00,0.0049
3574.00,0.0049
3573.00,0.0049
3572.00,0.0050
3571.00,0.0050
3570.00,0.0051
3569.00,0.0052
3568.00,0.0053
3567.00,0.0054
3566.00,0.0055
3565.00,0.0056
3564.00,0.0057
3563.00,0.0058
3562.00,0.0058
3561.00,0.0059
3560.00,0.0059
3559.00,0.0060
3558.00,0.0061
3557.00,0.0063
3556.00,0.0064
3555.00,0.0065
3554.00,0.0067
3553.00,0.0068
3552.00,0.0069
3551.00,0.0071
3550.00,0.0073
3549.00,0.0075
3548.00,0.0077
3547.00,0.0079
3546.00,0.0082
3545.00,0.0085
3544.00,0.0088
3543.00,0.0092
3542.00,0.0095
3541.00,0.0099
3540.00,0.0104
3539.00,0.0109
3538.00,0.0114
3537.00,0.0120
3536.00,0.0128
3535.00,0.0136
3534.00,0.0145
3533.00,0.0156
3532.00,0.0169
3531.00,0.0184
3530.00,0.0201
3529.00,0.0221
3528.00,0.0243
3527.00,0.0266
3526.00,0.0289
3525.00,0.0311
3524.00,0.0331
3523.00,0.0347
3522.00,0.0359
3521.00,0.0366
3520.00,0.0368
3519.00,0.0365
3518.00,0.0358
3517.00,0.0348
3516.00,0.0336
3515.00,0.0322
3514.00,0.0308
3513.00,0.0293
3512.00,0.0280
3511.00,0.0267
3510.00,0.0256
3509.00,0.0246
3508.00,0.0237
3507.00,0.0231
3506.00,0.0225
3505.00,0.0221
3504.00,0.0218
3503.00,0.0217
3502.00,0.0216
3501.00,0.0215
3500.00,0.0216
3499.00,0.0217
3498.00,0.0218
3497.00,0.0220
3496.00,0.0222
3495.00,0.0225
3494.00,0.0228
3493.00,0.0231
3492.00,0.0235
3491.00,0.0239
3490.00,0.0243
3489.00,0.0248
3488.00,0.0253
3487.00,0.0258
3486.00,0.0263
3485.00,0.0268
3484.00,0.0274
3483.00,0.0280
3482.00,0.0287
3481.00,0.0294
3480.00,0.0301
3479.00,0.0308
3478.00,0.0315
3477.00,0.0323
3476.00,0.0332
3475.00,0.0341
3474.00,0.0352
3473.00,0.0363
3472.00,0.0375
3471.00,0.0388
3470.00,0.0402
3469.00,0.0417
3468.00,0.0434
3467.00,0.0452
3466.00,0.0471
3465.00,0.0491
3464.00,0.0513
3463.00,0.0537
3462.00,0.0562
3461.00,0.0589
3460.00,0.0617
3459.00,0.0647
3458.00,0.0678
3457.00,0.0709
3456.00,0.0741
3455.00,0.0771
3454.00,0.0800
3453.00,0.0825
3452.00,0.0846
3451.00,0.0859
3450.00,0.0866
3449.00,0.0866
3448.00,0.0859
3447.00,0.0846
3446.00,0.0828
3445.00,0.0807
3444.00,0.0785
3443.00,0.0761
3442.00,0.0738
3441.00,0.0717
3440.00,0.0697
3439.00,0.0679
3438.00,0.0663
3437.00,0.0649
3436.00,0.0636
3435.00,0.0625
3434.00,0.0615
3433.00,0.0608
3432.00,0.0601
3431.00,0.0596
3430.00,0.0592
3429.00,0.0589
3428.00,0.0587
3427.00,0.0585
3426.00,0.0585
3425.00,0.0585
3424.00,0.0586
3423.00,0.0587
3422.00,0.0590
3421.00,0.0593
3420.00,0.0597
3419.00,0.0602
3418.00,0.0606
3417.00,0.0611
3416.00,0.0617
3415.00,0.0622
3414.00,0.0627
3413.00,0.0632
3412.00,0.0636
3411.00,0.0639
3410.00,0.0641
3409.00,0.0641
3408.00,0.0639
3407.00,0.0636
3406.00,0.0631
3405.00,0.0624
3404.00,0.0615
3403.00,0.0605
3402.00,0.0594
3401.00,0.0580
3400.00,0.0566
3399.00,0.0551
3398.00,0.0535
3397.00,0.0520
3396.00,0.0505
3395.00,0.0490
3394.00,0.0476
3393.00,0.0463
3392.00,0.0450
3391.00,0.0438
3390.00,0.0427
3389.00,0.0417
3388.00,0.0407
3387.00,0.0399
3386.00,0.0391
3385.00,0.0383
3384.00,0.0376
3383.00,0.0369
3382.00,0.0363
3381.00,0.0358
3380.00,0.0352
3379.00,0.0347
3378.00,0.0343
3377.00,0.0339
3376.00,0.0334
3375.00,0.0330
3374.00,0.0326
3373.00,0.0323
3372.00,0.0319
3371.00,0.0316
3370.00,0.0312
3369.00,0.0309
3368.00,0.0306
3367.00,0.0303
3366.00,0.0301
3365.00,0.0298
3364.00,0.0295
3363.00,0.0293
3362.00,0.0290
3361.00,0.0288
3360.00,0.0285
3359.00,0.0283
3358.00,0.0281
3357.00,0.0279
3356.00,0.0277
3355.00,0.0275
3354.00,0.0274
3353.00,0.0272
3352.00,0.0270
3351.00,0.0269
3350.00,0.0267
3349.00,0.0266
3348.00,0.0265
3347.00,0.0264
3346.00,0.0264
3345.00,0.0263
3344.00,0.0262
3343.00,0.0262
3342.00,0.0262
3341.00,0.0261
3340.00,0.0262
3339.00,0.0262
3338.00,0.0263
3337.00,0.0264
3336.00,0.0265
3335.00,0.0266
3334.00,0.0268
3333.00,0.0270
3332.00,0.0271
3331.00,0.0273
3330.00,0.0275
3329.00,0.0276
3328.00,0.0278
3327.00,0.0279
3326.00,0.0279
3325.00,0.0280
3324.00,0.0279
3323.00,0.0278
3322.00,0.0277
3321.00,0.0275
3320.00,0.0273
3319.00,0.0271
3318.00,0.0269
3317.00,0.0267
3316.00,0.0264
3315.00,0.0263
3314.00,0.0261
3313.00,0.0259
3312.00,0.0258
3311.00,0.0256
3310.00,0.0255
3309.00,0.0254
3308.00,0.0253
3307.00,0.0252
3306.00,0.0251
3305.00,0.0251
3304.00,0.0251
3303.00,0.0252
3302.00,0.0252
3301.00,0.0252
3300.00,0.0253
3299.00,0.0253
3298.00,0.0252
3297.00,0.0252
3296.00,0.0252
3295.00,0.0252
3294.00,0.0253
3293.00,0.0253
3292.00,0.0254
3291.00,0.0255
3290.00,0.0256
3289.00,0.0256
3288.00,0.0257
3287.00,0.0258
3286.00,0.0258
3285.00,0.0258
3284.00,0.0259
3283.00,0.0259
3282.00,0.0260
3281.00,0.0261
3280.00,0.0261
3279.00,0.0262
3278.00,0.0262
3277.00,0.0263
3276.00,0.0263
3275.00,0.0264
3274.00,0.0264
3273.00,0.0265
3272.00,0.0266
3271.00,0.0267
3270.00,0.0269
3269.00,0.0271
3268.00,0.0273
3267.00,0.0275
3266.00,0.0277
3265.00,0.0278
3264.00,0.0280
3263.00,0.0281
3262.00,0.0282
3261.00,0.0283
3260.00,0.0284
3259.00,0.0285
3258.00,0.0285
3257.00,0.0286
3256.00,0.0286
3255.00,0.0288
3254.00,0.0289
3253.00,0.0290
3252.00,0.0291
3251.00,0.0292
3250.00,0.0292
3249.00,0.0292
3248.00,0.0292
3247.00,0.0293
3246.00,0.0295
3245.00,0.0297
3244.00,0.0299
3243.00,0.0300
3242.00,0.0302
3241.00,0.0303
3240.00,0.0304
3239.00,0.0305
3238.00,0.0306
3237.00,0.0306
3236.00,0.0307
3235.00,0.0307
3234.00,0.0308
3233.00,0.0309
3232.00,0.0311
3231.00,0.0313
3230.00,0.0315
3229.00,0.0316
3228.00,0.0318
3227.00,0.0319
3226.00,0.0321
3225.00,0.0322
3224.00,0.0324
3223.00,0.0325
3222.00,0.0326
3221.00,0.0328
3220.00,0.0329
3219.00,0.0331
3218.00,0.0332
3217.00,0.0334
3216.00,0.0336
3215.00,0.0337
3214.00,0.0339
3213.00,0.0341
3212.00,0.0343
3211.00,0.0344
3210.00,0.0346
3209.00,0.0348
3208.00,0.0350
3207.00,0.0352
3206.00,0.0353
3205.00,0.0355
3204.00,0.0356
3203.00,0.0357
3202.00,0.0359
3201.00,0.0360
3200.00,0.0361
3199.00,0.0362
3198.00,0.0364
3197.00,0.0365
3196.00,0.0366
3195.00,0.0367
3194.00,0.0367
3193.00,0.0368
3192.00,0.0368
3191.00,0.0369
3190.00,0.0370
3189.00,0.0371
3188.00,0.0371
3187.00,0.0372
3186.00,0.0373
3185.00,0.0374
3184.00,0.0375
3183.00,0.0376
3182.00,0.0376
3181.00,0.0377
3180.00,0.0378
3179.00,0.0379
3178.00,0.0380
3177.00,0.0380
3176.00,0.0381
3175.00,0.0382
3174.00,0.0383
3173.00,0.0384
3172.00,0.0384
3171.00,0.0385
3170.00,0.0385
3169.00,0.0386
3168.00,0.0386
3167.00,0.0386
3166.00,0.0387
3165.00,0.0387
3164.00,0.0387
3163.00,0.0387
3162.00,0.0387
3161.00,0.0387
3160.00,0.0386
3159.00,0.0386
3158.00,0.0385
3157.00,0.0384
3156.00,0.0383
3155.00,0.0381
3154.00,0.0380
3153.00,0.0380
3152.00,0.0380
3151.00,0.0381
3150.00,0.0383
3149.00,0.0384
3148.00,0.0385
3147.00,0.0386
3146.00,0.0386
3145.00,0.0387
3144.00,0.0387
3143.00,0.0387
3142.00,0.0387
3141.00,0.0387
3140.00,0.0387
3139.00,0.0387
3138.00,0.0388
3137.00,0.0390
3136.00,0.0391
3135.00,0.0391
3134.00,0.0392
3133.00,0.0392
3132.00,0.0392
3131.00,0.0392
3130.00,0.0392
3129.00,0.0392
3128.00,0.0393
3127.00,0.0393
3126.00,0.0394
3125.00,0.0394
3124.00,0.0394
3123.00,0.0393
3122.00,0.0393
3121.00,0.0393
3120.00,0.0393
3119.00,0.0393
3118.00,0.0394
3117.00,0.0395
3116.00,0.0396
3115.00,0.0398
3114.00,0.0399
3113.00,0.0401
3112.00,0.0402
3111.00,0.0402
3110.00,0.0403
3109.00,0.0404
3108.00,0.0405
3107.00,0.0405
3106.00,0.0406
3105.00,0.0406
3104.00,0.0407
3103.00,0.0406
3102.00,0.0406
3101.00,0.0406
3100.00,0.0407
3099.00,0.0407
3098.00,0.0407
3097.00,0.0407
3096.00,0.0407
3095.00,0.0407
3094.00,0.0407
3093.00,0.0407
3092.00,0.0407
3091.00,0.0407
3090.00,0.0407
3089.00,0.0408
3088.00,0.0408
3087.00,0.0409
3086.00,0.0410
3085.00,0.0412
3084.00,0.0414
3083.00,0.0418
3082.00,0.0422
3081.00,0.0428
3080.00,0.0436
3079.00,0.0446
3078.00,0.0458
3077.00,0.0470
3076.00,0.0482
3075.00,0.0490
3074.00,0.0495
3073.00,0.0495
3072.00,0.0491
3071.00,0.0485
3070.00,0.0477
3069.00,0.0470
3068.00,0.0462
3067.00,0.0455
3066.00,0.0448
3065.00,0.0441
3064.00,0.0435
3063.00,0.0429
3062.00,0.0422
3061.00,0.0416
3060.00,0.0410
3059.00,0.0404
3058.00,0.0399
3057.00,0.0395
3056.00,0.0391
3055.00,0.0388
3054.00,0.0385
3053.00,0.0382
3052.00,0.0380
3051.00,0.0378
3050.00,0.0376
3049.00,0.0375
3048.00,0.0374
3047.00,0.0373
3046.00,0.0372
3045.00,0.0372
3044.00,0.0371
3043.00,0.0371
3042.00,0.0372
3041.00,0.0372
3040.00,0.0373
3039.00,0.0374
3038.00,0.0375
3037.00,0.0376
3036.00,0.0376
3035.00,0.0376
3034.00,0.0376
3033.00,0.0376
3032.00,0.0375
3031.00,0.0373
3030.00,0.0371
3029.00,0.0368
3028.00,0.0365
3027.00,0.0361
3026.00,0.0358
3025.00,0.0355
3024.00,0.0352
3023.00,0.0349
3022.00,0.0347
3021.00,0.0345
3020.00,0.0343
3019.00,0.0342
3018.00,0.0340
3017.00,0.0339
3016.00,0.0339
3015.00,0.0339
3014.00,0.0339
3013.00,0.0340
3012.00,0.0341
3011.00,0.0343
3010.00,0.0345
3009.00,0.0347
3008.00,0.0349
3007.00,0.0351
3006.00,0.0353
3005.00,0.0355
3004.00,0.0357
3003.00,0.0359
3002.00,0.0362
3001.00,0.0365
3000.00,0.0369
2999.00,0.0372
2998.00,0.0376
2997.00,0.0380
2996.00,0.0385
2995.00,0.0390
2994.00,0.0395
2993.00,0.0402
2992.00,0.0409
2991.00,0.0416
2990.00,0.0424
2989.00,0.0430
2988.00,0.0436
2987.00,0.0442
2986.00,0.0448
2985.00,0.0454
2984.00,0.0462
2983.00,0.0472
2982.00,0.0481
2981.00,0.0492
2980.00,0.0502
2979.00,0.0513
2978.00,0.0526
2977.00,0.0539
2976.00,0.0554
2975.00,0.0571
2974.00,0.0589
2973.00,0.0609
2972.00,0.0630
2971.00,0.0650
2970.00,0.0670
2969.00,0.0689
2968.00,0.0706
2967.00,0.0722
2966.00,0.0735
2965.00,0.0747
2964.00,0.0758
2963.00,0.0770
2962.00,0.0782
2961.00,0.0795
2960.00,0.0806
2959.00,0.0815
2958.00,0.0821
2957.00,0.0824
2956.00,0.0824
2955.00,0.0821
2954.00,0.0816
2953.00,0.0809
2952.00,0.0800
2951.00,0.0789
2950.00,0.0778
2949.00,0.0768
2948.00,0.0761
2947.00,0.0760
2946.00,0.0765
2945.00,0.0777
2944.00,0.0795
2943.00,0.0818
2942.00,0.0843
2941.00,0.0870
2940.00,0.0898
2939.00,0.0928
2938.00,0.0960
2937.00,0.0994
2936.00,0.1031
2935.00,0.1072
2934.00,0.1116
2933.00,0.1163
2932.00,0.1213
2931.00,0.1265
2930.00,0.1317
2929.00,0.1366
2928.00,0.1410
2927.00,0.1445
2926.00,0.1470
2925.00,0.1483
2924.00,0.1486
2923.00,0.1479
2922.00,0.1465
2921.00,0.1446
2920.00,0.1425
2919.00,0.1402
2918.00,0.1377
2917.00,0.1351
2916.00,0.1323
2915.00,0.1292
2914.00,0.1258
2913.00,0.1221
2912.00,0.1181
2911.00,0.1140
2910.00,0.1098
2909.00,0.1058
2908.00,0.1018
2907.00,0.0982
2906.00,0.0948
2905.00,0.0918
2904.00,0.0892
2903.00,0.0869
2902.00,0.0849
2901.00,0.0831
2900.00,0.0813
2899.00,0.0795
2898.00,0.0777
2897.00,0.0759
2896.00,0.0741
2895.00,0.0724
2894.00,0.0709
2893.00,0.0696
2892.00,0.0685
2891.00,0.0676
2890.00,0.0668
2889.00,0.0662
2888.00,0.0657
2887.00,0.0654
2886.00,0.0650
2885.00,0.0648
2884.00,0.0645
2883.00,0.0644
2882.00,0.0642
2881.00,0.0643
2880.00,0.0645
2879.00,0.0649
2878.00,0.0656
2877.00,0.0665
2876.00,0.0677
2875.00,0.0691
2874.00,0.0705
2873.00,0.0719
2872.00,0.0729
2871.00,0.0733
2870.00,0.0731
2869.00,0.0722
2868.00,0.0710
2867.00,0.0699
2866.00,0.0693
2865.00,0.0695
2864.00,0.0706
2863.00,0.0726
2862.00,0.0756
2861.00,0.0794
2860.00,0.0837
2859.00,0.0880
2858.00,0.0919
2857.00,0.0946
2856.00,0.0958
2855.00,0.0952
2854.00,0.0929
2853.00,0.0893
2852.00,0.0849
2851.00,0.0800
2850.00,0.0752
2849.00,0.0706
2848.00,0.0665
2847.00,0.0628
2846.00,0.0596
2845.00,0.0570
2844.00,0.0549
2843.00,0.0531
2842.00,0.0515
2841.00,0.0501
2840.00,0.0490
2839.00,0.0482
2838.00,0.0479
2837.00,0.0482
2836.00,0.0489
2835.00,0.0500
2834.00,0.0513
2833.00,0.0527
2832.00,0.0539
2831.00,0.0547
2830.00,0.0546
2829.00,0.0536
2828.00,0.0517
2827.00,0.0491
2826.00,0.0462
2825.00,0.0434
2824.00,0.0408
2823.00,0.0386
2822.00,0.0368
2821.00,0.0354
2820.00,0.0343
2819.00,0.0333
2818.00,0.0325
2817.00,0.0318
2816.00,0.0313
2815.00,0.0308
2814.00,0.0304
2813.00,0.0300
2812.00,0.0296
2811.00,0.0293
2810.00,0.0290
2809.00,0.0287
2808.00,0.0285
2807.00,0.0283
2806.00,0.0281
2805.00,0.0279
2804.00,0.0277
2803.00,0.0276
2802.00,0.0274
2801.00,0.0272
2800.00,0.0270
2799.00,0.0269
2798.00,0.0267
2797.00,0.0266
2796.00,0.0265
2795.00,0.0264
2794.00,0.0263
2793.00,0.0261
2792.00,0.0260
2791.00,0.0259
2790.00,0.0258
2789.00,0.0257
2788.00,0.0256
2787.00,0.0256
2786.00,0.0255
2785.00,0.0254
2784.00,0.0254
2783.00,0.0253
2782.00,0.0253
2781.00,0.0253
2780.00,0.0252
2779.00,0.0252
2778.00,0.0252
2777.00,0.0252
2776.00,0.0252
2775.00,0.0252
2774.00,0.0252
2773.00,0.0252
2772.00,0.0252
2771.00,0.0252
2770.00,0.0253
2769.00,0.0253
2768.00,0.0253
2767.00,0.0253
2766.00,0.0253
2765.00,0.0253
2764.00,0.0253
2763.00,0.0253
2762.00,0.0253
2761.00,0.0253
2760.00,0.0253
2759.00,0.0253
2758.00,0.0253
2757.00,0.0254
2756.00,0.0254
2755.00,0.0254
2754.00,0.0254
2753.00,0.0254
2752.00,0.0254
2751.00,0.0254
2750.00,0.0253
2749.00,0.0253
2748.00,0.0254
2747.00,0.0254
2746.00,0.0255
2745.00,0.0255
2744.00,0.0256
2743.00,0.0256
2742.00,0.0257
2741.00,0.0257
2740.00,0.0258
2739.00,0.0259
2738.00,0.0261
2737.00,0.0262
2736.00,0.0264
2735.00,0.0266
2734.00,0.0268
2733.00,0.0269
2732.00,0.0271
2731.00,0.0273
2730.00,0.0274
2729.00,0.0275
2728.00,0.0275
2727.00,0.0274
2726.00,0.0273
2725.00,0.0272
2724.00,0.0270
2723.00,0.0269
2722.00,0.0268
2721.00,0.0267
2720.00,0.0266
2719.00,0.0265
2718.00,0.0264
2717.00,0.0264
2716.00,0.0263
2715.00,0.0262
2714.00,0.0262
2713.00,0.0261
2712.00,0.0261
2711.00,0.0261
2710.00,0.0261
2709.00,0.0260
2708.00,0.0260
2707.00,0.0260
2706.00,0.0260
2705.00,0.0260
2704.00,0.0260
2703.00,0.0260
2702.00,0.0260
2701.00,0.0260
2700.00,0.0260
2699.00,0.0260
2698.00,0.0260
2697.00,0.0261
2696.00,0.0261
2695.00,0.0261
2694.00,0.0261
2693.00,0.0261
2692.00,0.0262
2691.00,0.0262
2690.00,0.0262
2689.00,0.0262
2688.00,0.0263
2687.00,0.0263
2686.00,0.0263
2685.00,0.0263
2684.00,0.0263
2683.00,0.0264
2682.00,0.0264
2681.00,0.0264
2680.00,0.0264
2679.00,0.0264
2678.00,0.0264
2677.00,0.0265
2676.00,0.0265
2675.00,0.0265
2674.00,0.0266
2673.00,0.0266
2672.00,0.0267
2671.00,0.0267
2670.00,0.0267
2669.00,0.0268
2668.00,0.0268
2667.00,0.0268
2666.00,0.0268
2665.00,0.0268
2664.00,0.0268
2663.00,0.0267
2662.00,0.0266
2661.00,0.0265
2660.00,0.0264
2659.00,0.0263
2658.00,0.0262
2657.00,0.0261
2656.00,0.0260
2655.00,0.0259
2654.00,0.0258
2653.00,0.0257
2652.00,0.0256
2651.00,0.0255
2650.00,0.0254
2649.00,0.0253
2648.00,0.0252
2647.00,0.0252
2646.00,0.0251
2645.00,0.0250
2644.00,0.0250
2643.00,0.0249
2642.00,0.0248
2641.00,0.0248
2640.00,0.0247
2639.00,0.0247
2638.00,0.0246
2637.00,0.0246
2636.00,0.0245
2635.00,0.0245
2634.00,0.0244
2633.00,0.0244
2632.00,0.0244
2631.00,0.0244
2630.00,0.0244
2629.00,0.0244
2628.00,0.0244
2627.00,0.0243
2626.00,0.0243
2625.00,0.0243
2624.00,0.0243
2623.00,0.0242
2622.00,0.0242
2621.00,0.0242
2620.00,0.0242
2619.00,0.0241
2618.00,0.0241
2617.00,0.0241
2616.00,0.0241
2615.00,0.0240
2614.00,0.0240
2613.00,0.0240
2612.00,0.0240
2611.00,0.0239
2610.00,0.0239
2609.00,0.0239
2608.00,0.0239
2607.00,0.0238
2606.00,0.0238
2605.00,0.0237
2604.00,0.0237
2603.00,0.0236
2602.00,0.0236
2601.00,0.0235
2600.00,0.0235
2599.00,0.0234
2598.00,0.0234
2597.00,0.0233
2596.00,0.0232
2595.00,0.0232
2594.00,0.0231
2593.00,0.0231
2592.00,0.0230
2591.00,0.0229
2590.00,0.0229
2589.00,0.0228
2588.00,0.0228
2587.00,0.0227
2586.00,0.0227
2585.00,0.0227
2584.00,0.0226
2583.00,0.0225
2582.00,0.0225
2581.00,0.0224
2580.00,0.0224
2579.00,0.0223
2578.00,0.0223
2577.00,0.0223
2576.00,0.0222
2575.00,0.0222
2574.00,0.0223
2573.00,0.0223
2572.00,0.0223
2571.00,0.0223
2570.00,0.0223
2569.00,0.0223
2568.00,0.0223
2567.00,0.0223
2566.00,0.0223
2565.00,0.0224
2564.00,0.0224
2563.00,0.0224
2562.00,0.0225
2561.00,0.0226
2560.00,0.0226
2559.00,0.0226
2558.00,0.0226
2557.00,0.0226
2556.00,0.0226
2555.00,0.0226
2554.00,0.0226
2553.00,0.0226
2552.00,0.0225
2551.00,0.0225
2550.00,0.0224
2549.00,0.0224
2548.00,0.0223
2547.00,0.0223
2546.00,0.0222
2545.00,0.0221
2544.00,0.0220
2543.00,0.0219
2542.00,0.0218
2541.00,0.0217
2540.00,0.0217
2539.00,0.0216
2538.00,0.0216
2537.00,0.0215
2536.00,0.0214
2535.00,0.0214
2534.00,0.0213
2533.00,0.0212
2532.00,0.0212
2531.00,0.0211
2530.00,0.0211
2529.00,0.0211
2528.00,0.0211
2527.00,0.0211
2526.00,0.0211
2525.00,0.0211
2524.00,0.0211
2523.00,0.0210
2522.00,0.0209
2521.00,0.0209
2520.00,0.0208
2519.00,0.0208
2518.00,0.0208
2517.00,0.0207
2516.00,0.0206
2515.00,0.0206
2514.00,0.0205
2513.00,0.0204
2512.00,0.0204
2511.00,0.0203
2510.00,0.0203
2509.00,0.0203
2508.00,0.0202
2507.00,0.0201
2506.00,0.0201
2505.00,0.0200
2504.00,0.0199
2503.00,0.0199
2502.00,0.0198
2501.00,0.0198
2500.00,0.0197
2499.00,0.0197
2498.00,0.0197
2497.00,0.0197
2496.00,0.0196
2495.00,0.0196
2494.00,0.0196
2493.00,0.0195
2492.00,0.0195
2491.00,0.0195
2490.00,0.0195
2489.00,0.0196
2488.00,0.0196
2487.00,0.0196
2486.00,0.0195
2485.00,0.0196
2484.00,0.0196
2483.00,0.0196
2482.00,0.0195
2481.00,0.0195
2480.00,0.0195
2479.00,0.0195
2478.00,0.0195
2477.00,0.0195
2476.00,0.0194
2475.00,0.0194
2474.00,0.0194
2473.00,0.0193
2472.00,0.0193
2471.00,0.0193
2470.00,0.0192
2469.00,0.0192
2468.00,0.0192
2467.00,0.0192
2466.00,0.0192
2465.00,0.0192
2464.00,0.0192
2463.00,0.0192
2462.00,0.0192
2461.00,0.0192
2460.00,0.0192
2459.00,0.0193
2458.00,0.0193
2457.00,0.0194
2456.00,0.0194
2455.00,0.0194
2454.00,0.0195
2453.00,0.0195
2452.00,0.0195
2451.00,0.0195
2450.00,0.0195
2449.00,0.0195
2448.00,0.0195
2447.00,0.0194
2446.00,0.0194
2445.00,0.0194
2444.00,0.0193
2443.00,0.0193
2442.00,0.0192
2441.00,0.0192
2440.00,0.0191
2439.00,0.0191
2438.00,0.0191
2437.00,0.0190
2436.00,0.0190
2435.00,0.0190
2434.00,0.0189
2433.00,0.0189
2432.00,0.0189
2431.00,0.0189
2430.00,0.0188
2429.00,0.0188
2428.00,0.0188
2427.00,0.0188
2426.00,0.0187
2425.00,0.0187
2424.00,0.0187
2423.00,0.0186
2422.00,0.0186
2421.00,0.0186
2420.00,0.0185
2419.00,0.0185
2418.00,0.0184
2417.00,0.0183
2416.00,0.0183
2415.00,0.0183
2414.00,0.0182
2413.00,0.0182
2412.00,0.0182
2411.00,0.0181
2410.00,0.0180
2409.00,0.0179
2408.00,0.0178
2407.00,0.0177
2406.00,0.0176
2405.00,0.0176
2404.00,0.0175
2403.00,0.0174
2402.00,0.0174
2401.00,0.0173
2400.00,0.0172
2399.00,0.0171
2398.00,0.0171
2397.00,0.0170
2396.00,0.0169
2395.00,0.0168
2394.00,0.0167
2393.00,0.0166
2392.00,0.0165
2391.00,0.0164
2390.00,0.0164
2389.00,0.0163
2388.00,0.0163
2387.00,0.0162
2386.00,0.0161
2385.00,0.0160
2384.00,0.0160
2383.00,0.0159
2382.00,0.0158
2381.00,0.0158
2380.00,0.0157
2379.00,0.0156
2378.00,0.0155
2377.00,0.0154
2376.00,0.0154
2375.00,0.0153
2374.00,0.0152
2373.00,0.0152
2372.00,0.0151
2371.00,0.0151
2370.00,0.0150
2369.00,0.0149
2368.00,0.0148
2367.00,0.0147
2366.00,0.0146
2365.00,0.0146
2364.00,0.0145
2363.00,0.0145
2362.00,0.0144
2361.00,0.0143
2360.00,0.0142
2359.00,0.0141
2358.00,0.0140
2357.00,0.0140
2356.00,0.0139
2355.00,0.0139
2354.00,0.0138
2353.00,0.0138
2352.00,0.0137
2351.00,0.0136
2350.00,0.0135
2349.00,0.0134
2348.00,0.0134
2347.00,0.0133
2346.00,0.0132
2345.00,0.0131
2344.00,0.0130
2343.00,0.0130
2342.00,0.0129
2341.00,0.0128
2340.00,0.0127
2339.00,0.0127
2338.00,0.0126
2337.00,0.0126
2336.00,0.0125
2335.00,0.0124
2334.00,0.0122
2333.00,0.0121
2332.00,0.0121
2331.00,0.0120
2330.00,0.0120
2329.00,0.0120
2328.00,0.0120
2327.00,0.0120
2326.00,0.0119
2325.00,0.0117
2324.00,0.0116
2323.00,0.0114
2322.00,0.0113
2321.00,0.0113
2320.00,0.0113
2319.00,0.0112
2318.00,0.0112
2317.00,0.0111
2316.00,0.0111
2315.00,0.0110
2314.00,0.0110
2313.00,0.0109
2312.00,0.0109
2311.00,0.0109
2310.00,0.0109
2309.00,0.0109
2308.00,0.0108
2307.00,0.0108
2306.00,0.0107
2305.00,0.0107
2304.00,0.0106
2303.00,0.0105
2302.00,0.0104
2301.00,0.0103
2300.00,0.0103
2299.00,0.0102
2298.00,0.0102
2297.00,0.0101
2296.00,0.0101
2295.00,0.0101
2294.00,0.0101
2293.00,0.0100
2292.00,0.0100
2291.00,0.0099
2290.00,0.0099
2289.00,0.0098
2288.00,0.0098
2287.00,0.0097
2286.00,0.0096
2285.00,0.0096
2284.00,0.0095
2283.00,0.0095
2282.00,0.0094
2281.00,0.0093
2280.00,0.0093
2279.00,0.0093
2278.00,0.0093
2277.00,0.0093
2276.00,0.0093
2275.00,0.0092
2274.00,0.0092
2273.00,0.0091
2272.00,0.0091
2271.00,0.0091
2270.00,0.0090
2269.00,0.0090
2268.00,0.0089
2267.00,0.0089
2266.00,0.0088
2265.00,0.0088
2264.00,0.0088
2263.00,0.0088
2262.00,0.0088
2261.00,0.0087
2260.00,0.0087
2259.00,0.0086
2258.00,0.0086
2257.00,0.0085
2256.00,0.0085
2255.00,0.0085
2254.00,0.0085
2253.00,0.0085
2252.00,0.0084
2251.00,0.0084
2250.00,0.0083
2249.00,0.0083
2248.00,0.0083
2247.00,0.0082
2246.00,0.0082
2245.00,0.0083
2244.00,0.0083
2243.00,0.0083
2242.00,0.0083
2241.00,0.0083
2240.00,0.0083
2239.00,0.0082
2238.00,0.0081
2237.00,0.0080
2236.00,0.0079
2235.00,0.0079
2234.00,0.0080
2233.00,0.0080
2232.00,0.0081
2231.00,0.0080
2230.00,0.0079
2229.00,0.0078
2228.00,0.0078
2227.00,0.0077
2226.00,0.0077
2225.00,0.0076
2224.00,0.0075
2223.00,0.0075
2222.00,0.0074
2221.00,0.0074
2220.00,0.0074
2219.00,0.0074
2218.00,0.0074
2217.00,0.0074
2216.00,0.0074
2215.00,0.0073
2214.00,0.0073
2213.00,0.0072
2212.00,0.0072
2211.00,0.0071
2210.00,0.0070
2209.00,0.0070
2208.00,0.0071
2207.00,0.0071
2206.00,0.0071
2205.00,0.0071
2204.00,0.0071
2203.00,0.0070
2202.00,0.0069
2201.00,0.0068
2200.00,0.0069
2199.00,0.0070
2198.00,0.0070
2197.00,0.0071
2196.00,0.0071
2195.00,0.0070
2194.00,0.0070
2193.00,0.0069
2192.00,0.0069
2191.00,0.0068
2190.00,0.0067
2189.00,0.0067
2188.00,0.0067
2187.00,0.0066
2186.00,0.0066
2185.00,0.0066
2184.00,0.0066
2183.00,0.0065
2182.00,0.0064
2181.00,0.0065
2180.00,0.0065
2179.00,0.0065
2178.00,0.0064
2177.00,0.0064
2176.00,0.0064
2175.00,0.0063
2174.00,0.0063
2173.00,0.0063
2172.00,0.0064
2171.00,0.0064
2170.00,0.0064
2169.00,0.0065
2168.00,0.0066
2167.00,0.0065
2166.00,0.0064
2165.00,0.0062
2164.00,0.0060
2163.00,0.0057
2162.00,0.0054
2161.00,0.0052
2160.00,0.0050
2159.00,0.0050
2158.00,0.0052
2157.00,0.0055
2156.00,0.0057
2155.00,0.0057
2154.00,0.0056
2153.00,0.0055
2152.00,0.0055
2151.00,0.0055
2150.00,0.0055
2149.00,0.0056
2148.00,0.0056
2147.00,0.0056
2146.00,0.0056
2145.00,0.0055
2144.00,0.0055
2143.00,0.0054
2142.00,0.0053
2141.00,0.0053
2140.00,0.0054
2139.00,0.0054
2138.00,0.0053
2137.00,0.0053
2136.00,0.0052
2135.00,0.0052
2134.00,0.0052
2133.00,0.0052
2132.00,0.0052
2131.00,0.0052
2130.00,0.0052
2129.00,0.0051
2128.00,0.0051
2127.00,0.0051
2126.00,0.0051
2125.00,0.0051
2124.00,0.0051
2123.00,0.0051
2122.00,0.0050
2121.00,0.0050
2120.00,0.0050
2119.00,0.0050
2118.00,0.0050
2117.00,0.0050
2116.00,0.0050
2115.00,0.0049
2114.00,0.0048
2113.00,0.0047
2112.00,0.0047
2111.00,0.0046
2110.00,0.0045
2109.00,0.0045
2108.00,0.0045
2107.00,0.0045
2106.00,0.0045
2105.00,0.0045
2104.00,0.0045
2103.00,0.0045
2102.00,0.0044
2101.00,0.0043
2100.00,0.0043
2099.00,0.0042
2098.00,0.0042
2097.00,0.0041
2096.00,0.0042
2095.00,0.0042
2094.00,0.0042
2093.00,0.0043
2092.00,0.0044
2091.00,0.0044
2090.00,0.0044
2089.00,0.0044
2088.00,0.0044
2087.00,0.0044
2086.00,0.0044
2085.00,0.0043
2084.00,0.0043
2083.00,0.0043
2082.00,0.0042
2081.00,0.0042
2080.00,0.0042
2079.00,0.0042
2078.00,0.0041
2077.00,0.0041
2076.00,0.0040
2075.00,0.0040
2074.00,0.0039
2073.00,0.0038
2072.00,0.0038
2071.00,0.0037
2070.00,0.0036
2069.00,0.0036
2068.00,0.0035
2067.00,0.0034
2066.00,0.0033
2065.00,0.0032
2064.00,0.0032
2063.00,0.0032
2062.00,0.0032
2061.00,0.0032
2060.00,0.0033
2059.00,0.0033
2058.00,0.0033
2057.00,0.0032
2056.00,0.0032
2055.00,0.0032
2054.00,0.0032
2053.00,0.0033
2052.00,0.0033
2051.00,0.0031
2050.00,0.0028
2049.00,0.0028
2048.00,0.0029
2047.00,0.0030
2046.00,0.0030
2045.00,0.0030
2044.00,0.0030
2043.00,0.0030
2042.00,0.0028
2041.00,0.0027
2040.00,0.0027
2039.00,0.0026
2038.00,0.0025
2037.00,0.0025
2036.00,0.0026
2035.00,0.0026
2034.00,0.0027
2033.00,0.0027
2032.00,0.0028
2031.00,0.0028
2030.00,0.0028
2029.00,0.0029
2028.00,0.0030
2027.00,0.0031
2026.00,0.0031
2025.00,0.0030
2024.00,0.0030
2023.00,0.0030
2022.00,0.0029
2021.00,0.0030
2020.00,0.0032
2019.00,0.0032
2018.00,0.0031
2017.00,0.0030
2016.00,0.0030
2015.00,0.0030
2014.00,0.0029
2013.00,0.0029
2012.00,0.0030
2011.00,0.0031
2010.00,0.0031
2009.00,0.0031
2008.00,0.0031
2007.00,0.0030
2006.00,0.0030
2005.00,0.0032
2004.00,0.0033
2003.00,0.0033
2002.00,0.0033
2001.00,0.0032
2000.00,0.0031
1999.00,0.0031
1998.00,0.0031
1997.00,0.0033
1996.00,0.0034
1995.00,0.0035
1994.00,0.0035
1993.00,0.0036
1992.00,0.0036
1991.00,0.0037
1990.00,0.0037
1989.00,0.0038
1988.00,0.0038
1987.00,0.0038
1986.00,0.0037
1985.00,0.0037
1984.00,0.0038
1983.00,0.0038
1982.00,0.0037
1981.00,0.0036
1980.00,0.0035
1979.00,0.0033
1978.00,0.0032
1977.00,0.0033
1976.00,0.0034
1975.00,0.0034
1974.00,0.0033
1973.00,0.0033
1972.00,0.0034
1971.00,0.0034
1970.00,0.0035
1969.00,0.0036
1968.00,0.0037
1967.00,0.0037
1966.00,0.0036
1965.00,0.0035
1964.00,0.0035
1963.00,0.0035
1962.00,0.0034
1961.00,0.0035
1960.00,0.0036
1959.00,0.0036
1958.00,0.0036
1957.00,0.0037
1956.00,0.0039
1955.00,0.0040
1954.00,0.0040
1953.00,0.0040
1952.00,0.0040
1951.00,0.0039
1950.00,0.0039
1949.00,0.0039
1948.00,0.0040
1947.00,0.0041
1946.00,0.0040
1945.00,0.0040
1944.00,0.0041
1943.00,0.0041
1942.00,0.0039
1941.00,0.0039
1940.00,0.0039
1939.00,0.0039
1938.00,0.0039
1937.00,0.0040
1936.00,0.0040
1935.00,0.0041
1934.00,0.0040
1933.00,0.0040
1932.00,0.0040
1931.00,0.0040
1930.00,0.0039
1929.00,0.0039
1928.00,0.0040
1927.00,0.0040
1926.00,0.0040
1925.00,0.0040
1924.00,0.0041
1923.00,0.0042
1922.00,0.0041
1921.00,0.0041
1920.00,0.0041
1919.00,0.0041
1918.00,0.0040
1917.00,0.0040
1916.00,0.0041
1915.00,0.0041
1914.00,0.0041
1913.00,0.0041
1912.00,0.0041
1911.00,0.0042
1910.00,0.0042
1909.00,0.0042
1908.00,0.0042
1907.00,0.0042
1906.00,0.0042
1905.00,0.0042
1904.00,0.0042
1903.00,0.0042
1902.00,0.0041
1901.00,0.0041
1900.00,0.0042
1899.00,0.0042
1898.00,0.0042
1897.00,0.0042
1896.00,0.0043
1895.00,0.0042
1894.00,0.0041
1893.00,0.0041
1892.00,0.0042
1891.00,0.0043
1890.00,0.0042
1889.00,0.0042
1888.00,0.0042
1887.00,0.0042
1886.00,0.0042
1885.00,0.0042
1884.00,0.0042
1883.00,0.0042
1882.00,0.0042
1881.00,0.0042
1880.00,0.0043
1879.00,0.0043
1878.00,0.0042
1877.00,0.0043
1876.00,0.0043
1875.00,0.0043
1874.00,0.0043
1873.00,0.0044
1872.00,0.0046
1871.00,0.0046
1870.00,0.0046
1869.00,0.0046
1868.00,0.0045
1867.00,0.0044
1866.00,0.0043
1865.00,0.0043
1864.00,0.0043
1863.00,0.0043
1862.00,0.0043
1861.00,0.0043
1860.00,0.0043
1859.00,0.0043
1858.00,0.0042
1857.00,0.0042
1856.00,0.0042
1855.00,0.0043
1854.00,0.0042
1853.00,0.0042
1852.00,0.0043
1851.00,0.0043
1850.00,0.0044
1849.00,0.0045
1848.00,0.0046
1847.00,0.0046
1846.00,0.0046
1845.00,0.0045
1844.00,0.0044
1843.00,0.0043
1842.00,0.0044
1841.00,0.0045
1840.00,0.0045
1839.00,0.0046
1838.00,0.0046
1837.00,0.0046
1836.00,0.0046
1835.00,0.0045
1834.00,0.0045
1833.00,0.0046
1832.00,0.0048
1831.00,0.0048
1830.00,0.0047
1829.00,0.0046
1828.00,0.0047
1827.00,0.0048
1826.00,0.0048
1825.00,0.0047
1824.00,0.0047
1823.00,0.0047
1822.00,0.0046
1821.00,0.0046
1820.00,0.0046
1819.00,0.0046
1818.00,0.0046
1817.00,0.0046
1816.00,0.0047
1815.00,0.0048
1814.00,0.0048
1813.00,0.0049
1812.00,0.0050
1811.00,0.0050
1810.00,0.0050
1809.00,0.0051
1808.00,0.0051
1807.00,0.0052
1806.00,0.0053
1805.00,0.0054
1804.00,0.0055
1803.00,0.0057
1802.00,0.0057
1801.00,0.0057
1800.00,0.0057
1799.00,0.0057
1798.00,0.0057
1797.00,0.0058
1796.00,0.0059
1795.00,0.0059
1794.00,0.0058
1793.00,0.0058
1792.00,0.0057
1791.00,0.0057
1790.00,0.0058
1789.00,0.0059
1788.00,0.0061
1787.00,0.0063
1786.00,0.0064
1785.00,0.0065
1784.00,0.0066
1783.00,0.0066
1782.00,0.0066
1781.00,0.0065
1780.00,0.0065
1779.00,0.0065
1778.00,0.0065
1777.00,0.0067
1776.00,0.0070
1775.00,0.0072
1774.00,0.0073
1773.00,0.0072
1772.00,0.0071
1771.00,0.0070
1770.00,0.0069
1769.00,0.0068
1768.00,0.0067
1767.00,0.0065
1766.00,0.0064
1765.00,0.0063
1764.00,0.0064
1763.00,0.0063
1762.00,0.0062
1761.00,0.0061
1760.00,0.0062
1759.00,0.0062
1758.00,0.0062
1757.00,0.0061
1756.00,0.0060
1755.00,0.0060
1754.00,0.0061
1753.00,0.0062
1752.00,0.0063
1751.00,0.0064
1750.00,0.0064
1749.00,0.0064
1748.00,0.0063
1747.00,0.0063
1746.00,0.0063
1745.00,0.0063
1744.00,0.0063
1743.00,0.0063
1742.00,0.0061
1741.00,0.0060
1740.00,0.0060
1739.00,0.0060
1738.00,0.0061
1737.00,0.0062
1736.00,0.0064
1735.00,0.0064
1734.00,0.0063
1733.00,0.0064
1732.00,0.0067
1731.00,0.0068
1730.00,0.0068
1729.00,0.0067
1728.00,0.0068
1727.00,0.0068
1726.00,0.0069
1725.00,0.0071
1724.00,0.0072
1723.00,0.0072
1722.00,0.0073
1721.00,0.0074
1720.00,0.0076
1719.00,0.0078
1718.00,0.0078
1717.00,0.0079
1716.00,0.0080
1715.00,0.0080
1714.00,0.0080
1713.00,0.0080
1712.00,0.0082
1711.00,0.0083
1710.00,0.0084
1709.00,0.0086
1708.00,0.0088
1707.00,0.0091
1706.00,0.0093
1705.00,0.0095
1704.00,0.0098
1703.00,0.0101
1702.00,0.0102
1701.00,0.0104
1700.00,0.0109
1699.00,0.0116
1698.00,0.0122
1697.00,0.0125
1696.00,0.0127
1695.00,0.0131
1694.00,0.0135
1693.00,0.0141
1692.00,0.0146
1691.00,0.0151
1690.00,0.0157
1689.00,0.0162
1688.00,0.0168
1687.00,0.0174
1686.00,0.0179
1685.00,0.0186
1684.00,0.0193
1683.00,0.0202
1682.00,0.0210
1681.00,0.0217
1680.00,0.0222
1679.00,0.0225
1678.00,0.0227
1677.00,0.0229
1676.00,0.0233
1675.00,0.0239
1674.00,0.0245
1673.00,0.0252
1672.00,0.0259
1671.00,0.0266
1670.00,0.0274
1669.00,0.0287
1668.00,0.0303
1667.00,0.0322
1666.00,0.0342
1665.00,0.0364
1664.00,0.0392
1663.00,0.0422
1662.00,0.0448
1661.00,0.0467
1660.00,0.0479
1659.00,0.0485
1658.00,0.0485
1657.00,0.0484
1656.00,0.0482
1655.00,0.0482
1654.00,0.0483
1653.00,0.0492
1652.00,0.0512
1651.00,0.0534
1650.00,0.0555
1649.00,0.0585
1648.00,0.0636
1647.00,0.0716
1646.00,0.0815
1645.00,0.0916
1644.00,0.1002
1643.00,0.1073
1642.00,0.1129
1641.00,0.1175
1640.00,0.1216
1639.00,0.1255
1638.00,0.1300
1637.00,0.1363
1636.00,0.1455
1635.00,0.1557
1634.00,0.1639
1633.00,0.1691
1632.00,0.1720
1631.00,0.1729
1630.00,0.1721
1629.00,0.1700
1628.00,0.1670
1627.00,0.1640
1626.00,0.1613
1625.00,0.1588
1624.00,0.1560
1623.00,0.1518
1622.00,0.1458
1621.00,0.1386
1620.00,0.1306
1619.00,0.1222
1618.00,0.1135
1617.00,0.1052
1616.00,0.0983
1615.00,0.0933
1614.00,0.0897
1613.00,0.0866
1612.00,0.0835
1611.00,0.0802
1610.00,0.0769
1609.00,0.0738
1608.00,0.0709
1607.00,0.0683
1606.00,0.0663
1605.00,0.0648
1604.00,0.0637
1603.00,0.0631
1602.00,0.0629
1601.00,0.0633
1600.00,0.0641
1599.00,0.0654
1598.00,0.0673
1597.00,0.0700
1596.00,0.0736
1595.00,0.0783
1594.00,0.0843
1593.00,0.0918
1592.00,0.1010
1591.00,0.1117
1590.00,0.1237
1589.00,0.1366
1588.00,0.1496
1587.00,0.1621
1586.00,0.1737
1585.00,0.1844
1584.00,0.1941
1583.00,0.2025
1582.00,0.2088
1581.00,0.2127
1580.00,0.2141
1579.00,0.2129
1578.00,0.2094
1577.00,0.2042
1576.00,0.1984
1575.00,0.1930
1574.00,0.1880
1573.00,0.1833
1572.00,0.1788
1571.00,0.1739
1570.00,0.1686
1569.00,0.1631
1568.00,0.1579
1567.00,0.1526
1566.00,0.1467
1565.00,0.1405
1564.00,0.1345
1563.00,0.1291
1562.00,0.1241
1561.00,0.1189
1560.00,0.1130
1559.00,0.1061
1558.00,0.1001
1557.00,0.0961
1556.00,0.0926
1555.00,0.0889
1554.00,0.0851
1553.00,0.0817
1552.00,0.0786
1551.00,0.0758
1550.00,0.0729
1549.00,0.0701
1548.00,0.0676
1547.00,0.0656
1546.00,0.0637
1545.00,0.0620
1544.00,0.0603
1543.00,0.0588
1542.00,0.0573
1541.00,0.0558
1540.00,0.0542
1539.00,0.0530
1538.00,0.0523
1537.00,0.0517
1536.00,0.0512
1535.00,0.0507
1534.00,0.0503
1533.00,0.0501
1532.00,0.0503
1531.00,0.0507
1530.00,0.0512
1529.00,0.0521
1528.00,0.0532
1527.00,0.0545
1526.00,0.0556
1525.00,0.0566
1524.00,0.0573
1523.00,0.0579
1522.00,0.0586
1521.00,0.0595
1520.00,0.0606
1519.00,0.0617
1518.00,0.0627
1517.00,0.0634
1516.00,0.0637
1515.00,0.0632
1514.00,0.0621
1513.00,0.0605
1512.00,0.0590
1511.00,0.0579
1510.00,0.0572
1509.00,0.0570
1508.00,0.0565
1507.00,0.0544
1506.00,0.0508
1505.00,0.0475
1504.00,0.0449
1503.00,0.0427
1502.00,0.0407
1501.00,0.0389
1500.00,0.0372
1499.00,0.0357
1498.00,0.0342
1497.00,0.0329
1496.00,0.0319
1495.00,0.0312
1494.00,0.0305
1493.00,0.0301
1492.00,0.0298
1491.00,0.0296
1490.00,0.0293
1489.00,0.0290
1488.00,0.0287
1487.00,0.0285
1486.00,0.0284
1485.00,0.0285
1484.00,0.0288
1483.00,0.0293
1482.00,0.0299
1481.00,0.0308
1480.00,0.0319
1479.00,0.0331
1478.00,0.0345
1477.00,0.0362
1476.00,0.0380
1475.00,0.0397
1474.00,0.0417
1473.00,0.0445
1472.00,0.0486
1471.00,0.0533
1470.00,0.0583
1469.00,0.0629
1468.00,0.0667
1467.00,0.0690
1466.00,0.0701
1465.00,0.0708
1464.00,0.0721
1463.00,0.0743
1462.00,0.0772
1461.00,0.0807
1460.00,0.0848
1459.00,0.0896
1458.00,0.0958
1457.00,0.1040
1456.00,0.1130
1455.00,0.1212
1454.00,0.1293
1453.00,0.1390
1452.00,0.1507
1451.00,0.1637
1450.00,0.1777
1449.00,0.1927
1448.00,0.2080
1447.00,0.2218
1446.00,0.2330
1445.00,0.2414
1444.00,0.2468
1443.00,0.2488
1442.00,0.2476
1441.00,0.2439
1440.00,0.2382
1439.00,0.2309
1438.00,0.2226
1437.00,0.2139
1436.00,0.2052
1435.00,0.1970
1434.00,0.1893
1433.00,0.1815
1432.00,0.1730
1431.00,0.1634
1430.00,0.1528
1429.00,0.1417
1428.00,0.1308
1427.00,0.1207
1426.00,0.1116
1425.00,0.1034
1424.00,0.0963
1423.00,0.0905
1422.00,0.0861
1421.00,0.0826
1420.00,0.0797
1419.00,0.0775
1418.00,0.0758
1417.00,0.0746
1416.00,0.0736
1415.00,0.0730
1414.00,0.0726
1413.00,0.0724
1412.00,0.0724
1411.00,0.0726
1410.00,0.0729
1409.00,0.0732
1408.00,0.0736
1407.00,0.0742
1406.00,0.0749
1405.00,0.0756
1404.00,0.0762
1403.00,0.0768
1402.00,0.0772
1401.00,0.0774
1400.00,0.0775
1399.00,0.0776
1398.00,0.0774
1397.00,0.0770
1396.00,0.0762
1395.00,0.0752
1394.00,0.0741
1393.00,0.0730
1392.00,0.0719
1391.00,0.0710
1390.00,0.0702
1389.00,0.0697
1388.00,0.0694
1387.00,0.0696
1386.00,0.0703
1385.00,0.0717
1384.00,0.0741
1383.00,0.0778
1382.00,0.0832
1381.00,0.0900
1380.00,0.0981
1379.00,0.1066
1378.00,0.1145
1377.00,0.1205
1376.00,0.1239
1375.00,0.1238
1374.00,0.1207
1373.00,0.1158
1372.00,0.1109
1371.00,0.1070
1370.00,0.1041
1369.00,0.1021
1368.00,0.1004
1367.00,0.0986
1366.00,0.0964
1365.00,0.0937
1364.00,0.0906
1363.00,0.0876
1362.00,0.0850
1361.00,0.0829
1360.00,0.0816
1359.00,0.0809
1358.00,0.0810
1357.00,0.0818
1356.00,0.0833
1355.00,0.0855
1354.00,0.0881
1353.00,0.0907
1352.00,0.0930
1351.00,0.0950
1350.00,0.0963
1349.00,0.0969
1348.00,0.0965
1347.00,0.0954
1346.00,0.0938
1345.00,0.0920
1344.00,0.0904
1343.00,0.0892
1342.00,0.0885
1341.00,0.0882
1340.00,0.0881
1339.00,0.0883
1338.00,0.0886
1337.00,0.0889
1336.00,0.0892
1335.00,0.0890
1334.00,0.0883
1333.00,0.0872
1332.00,0.0861
1331.00,0.0855
1330.00,0.0855
1329.00,0.0862
1328.00,0.0878
1327.00,0.0903
1326.00,0.0938
1325.00,0.0981
1324.00,0.1029
1323.00,0.1079
1322.00,0.1126
1321.00,0.1165
1320.00,0.1194
1319.00,0.1206
1318.00,0.1202
1317.00,0.1184
1316.00,0.1160
1315.00,0.1136
1314.00,0.1117
1313.00,0.1099
1312.00,0.1080
1311.00,0.1058
1310.00,0.1034
1309.00,0.1013
1308.00,0.0999
1307.00,0.0997
1306.00,0.1003
1305.00,0.1011
1304.00,0.1017
1303.00,0.1015
1302.00,0.1007
1301.00,0.0995
1300.00,0.0983
1299.00,0.0976
1298.00,0.0973
1297.00,0.0970
1296.00,0.0967
1295.00,0.0961
1294.00,0.0955
1293.00,0.0953
1292.00,0.0957
1291.00,0.0967
1290.00,0.0984
1289.00,0.1005
1288.00,0.1030
1287.00,0.1059
1286.00,0.1093
1285.00,0.1132
1284.00,0.1177
1283.00,0.1225
1282.00,0.1268
1281.00,0.1300
1280.00,0.1313
1279.00,0.1304
1278.00,0.1272
1277.00,0.1221
1276.00,0.1158
1275.00,0.1088
1274.00,0.1016
1273.00,0.0946
1272.00,0.0880
1271.00,0.0819
1270.00,0.0763
1269.00,0.0712
1268.00,0.0669
1267.00,0.0634
1266.00,0.0608
1265.00,0.0591
1264.00,0.0581
1263.00,0.0577
1262.00,0.0574
1261.00,0.0570
1260.00,0.0564
1259.00,0.0560
1258.00,0.0562
1257.00,0.0571
1256.00,0.0589
1255.00,0.0615
1254.00,0.0646
1253.00,0.0676
1252.00,0.0704
1251.00,0.0731
1250.00,0.0759
1249.00,0.0793
1248.00,0.0836
1247.00,0.0887
1246.00,0.0941
1245.00,0.0991
1244.00,0.1031
1243.00,0.1058
1242.00,0.1076
1241.00,0.1087
1240.00,0.1095
1239.00,0.1101
1238.00,0.1101
1237.00,0.1090
1236.00,0.1069
1235.00,0.1043
1234.00,0.1016
1233.00,0.0994
1232.00,0.0979
1231.00,0.0974
1230.00,0.0978
1229.00,0.0994
1228.00,0.1017
1227.00,0.1044
1226.00,0.1072
1225.00,0.1101
1224.00,0.1132
1223.00,0.1170
1222.00,0.1220
1221.00,0.1288
1220.00,0.1374
1219.00,0.1475
1218.00,0.1580
1217.00,0.1673
1216.00,0.1741
1215.00,0.1769
1214.00,0.1757
1213.00,0.1709
1212.00,0.1640
1211.00,0.1567
1210.00,0.1508
1209.00,0.1474
1208.00,0.1466
1207.00,0.1472
1206.00,0.1472
1205.00,0.1445
1204.00,0.1382
1203.00,0.1287
1202.00,0.1174
1201.00,0.1057
1200.00,0.0946
1199.00,0.0848
1198.00,0.0766
1197.00,0.0700
1196.00,0.0648
1195.00,0.0610
1194.00,0.0585
1193.00,0.0572
1192.00,0.0568
1191.00,0.0572
1190.00,0.0579
1189.00,0.0586
1188.00,0.0592
1187.00,0.0598
1186.00,0.0603
1185.00,0.0611
1184.00,0.0619
1183.00,0.0629
1182.00,0.0641
1181.00,0.0658
1180.00,0.0682
1179.00,0.0717
1178.00,0.0761
1177.00,0.0813
1176.00,0.0871
1175.00,0.0938
1174.00,0.1012
1173.00,0.1084
1172.00,0.1132
1171.00,0.1135
1170.00,0.1088
1169.00,0.1005
1168.00,0.0906
1167.00,0.0810
1166.00,0.0725
1165.00,0.0654
1164.00,0.0596
1163.00,0.0550
1162.00,0.0516
1161.00,0.0490
1160.00,0.0473
1159.00,0.0464
1158.00,0.0463
1157.00,0.0472
1156.00,0.0493
1155.00,0.0532
1154.00,0.0596
1153.00,0.0687
1152.00,0.0798
1151.00,0.0908
1150.00,0.0986
1149.00,0.1002
1148.00,0.0948
1147.00,0.0842
1146.00,0.0714
1145.00,0.0593
1144.00,0.0495
1143.00,0.0424
1142.00,0.0378
1141.00,0.0349
1140.00,0.0334
1139.00,0.0329
1138.00,0.0329
1137.00,0.0333
1136.00,0.0335
1135.00,0.0334
1134.00,0.0328
1133.00,0.0316
1132.00,0.0301
1131.00,0.0283
1130.00,0.0265
1129.00,0.0249
1128.00,0.0235
1127.00,0.0224
1126.00,0.0215
1125.00,0.0207
1124.00,0.0201
1123.00,0.0197
1122.00,0.0193
1121.00,0.0191
1120.00,0.0189
1119.00,0.0189
1118.00,0.0190
1117.00,0.0192
1116.00,0.0194
1115.00,0.0198
1114.00,0.0204
1113.00,0.0210
1112.00,0.0218
1111.00,0.0228
1110.00,0.0239
1109.00,0.0252
1108.00,0.0265
1107.00,0.0279
1106.00,0.0294
1105.00,0.0310
1104.00,0.0329
1103.00,0.0351
1102.00,0.0376
1101.00,0.0400
1100.00,0.0419
1099.00,0.0427
1098.00,0.0422
1097.00,0.0404
1096.00,0.0379
1095.00,0.0354
1094.00,0.0332
1093.00,0.0316
1092.00,0.0303
1091.00,0.0294
1090.00,0.0287
1089.00,0.0283
1088.00,0.0283
1087.00,0.0287
1086.00,0.0294
1085.00,0.0306
1084.00,0.0320
1083.00,0.0337
1082.00,0.0355
1081.00,0.0369
1080.00,0.0377
1079.00,0.0374
1078.00,0.0362
1077.00,0.0342
1076.00,0.0320
1075.00,0.0300
1074.00,0.0284
1073.00,0.0272
1072.00,0.0263
1071.00,0.0256
1070.00,0.0251
1069.00,0.0250
1068.00,0.0250
1067.00,0.0255
1066.00,0.0263
1065.00,0.0276
1064.00,0.0294
1063.00,0.0318
1062.00,0.0349
1061.00,0.0390
1060.00,0.0441
1059.00,0.0507
1058.00,0.0593
1057.00,0.0700
1056.00,0.0827
1055.00,0.0958
1054.00,0.1067
1053.00,0.1130
1052.00,0.1135
1051.00,0.1094
1050.00,0.1021
1049.00,0.0935
1048.00,0.0847
1047.00,0.0769
1046.00,0.0709
1045.00,0.0672
1044.00,0.0658
1043.00,0.0665
1042.00,0.0688
1041.00,0.0726
1040.00,0.0778
1039.00,0.0845
1038.00,0.0930
1037.00,0.1033
1036.00,0.1151
1035.00,0.1274
1034.00,0.1389
1033.00,0.1478
1032.00,0.1525
1031.00,0.1524
1030.00,0.1479
1029.00,0.1402
1028.00,0.1311
1027.00,0.1221
1026.00,0.1145
1025.00,0.1094
1024.00,0.1071
1023.00,0.1078
1022.00,0.1109
1021.00,0.1152
1020.00,0.1187
1019.00,0.1194
1018.00,0.1165
1017.00,0.1103
1016.00,0.1024
1015.00,0.0940
1014.00,0.0863
1013.00,0.0795
1012.00,0.0740
1011.00,0.0699
1010.00,0.0673
1009.00,0.0657
1008.00,0.0650
1007.00,0.0649
1006.00,0.0657
1005.00,0.0673
1004.00,0.0695
1003.00,0.0718
1002.00,0.0738
1001.00,0.0750
1000.00,0.0747
999.00,0.0724
998.00,0.0679
997.00,0.0620
996.00,0.0558
995.00,0.0505
994.00,0.0467
993.00,0.0443
992.00,0.0431
991.00,0.0431
990.00,0.0440
989.00,0.0454
988.00,0.0470
987.00,0.0486
986.00,0.0498
985.00,0.0502
984.00,0.0497
983.00,0.0479
982.00,0.0454
981.00,0.0427
980.00,0.0402
979.00,0.0383
978.00,0.0370
977.00,0.0359
976.00,0.0350
975.00,0.0344
974.00,0.0341
973.00,0.0342
972.00,0.0348
971.00,0.0358
970.00,0.0370
969.00,0.0384
968.00,0.0400
967.00,0.0417
966.00,0.0438
965.00,0.0466
964.00,0.0500
963.00,0.0537
962.00,0.0571
961.00,0.0591
960.00,0.0592
959.00,0.0574
958.00,0.0544
957.00,0.0508
956.00,0.0472
955.00,0.0441
954.00,0.0417
953.00,0.0400
952.00,0.0387
951.00,0.0378
950.00,0.0371
949.00,0.0366
948.00,0.0361
947.00,0.0357
946.00,0.0353
945.00,0.0350
944.00,0.0348
943.00,0.0345
942.00,0.0342
941.00,0.0336
940.00,0.0328
939.00,0.0319
938.00,0.0309
937.00,0.0300
936.00,0.0293
935.00,0.0289
934.00,0.0289
933.00,0.0292
932.00,0.0299
931.00,0.0309
930.00,0.0320
929.00,0.0331
928.00,0.0341
927.00,0.0350
926.00,0.0357
925.00,0.0362
924.00,0.0368
923.00,0.0375
922.00,0.0385
921.00,0.0400
920.00,0.0419
919.00,0.0440
918.00,0.0463
917.00,0.0485
916.00,0.0505
915.00,0.0520
914.00,0.0526
913.00,0.0520
912.00,0.0502
911.00,0.0480
910.00,0.0463
909.00,0.0455
908.00,0.0462
907.00,0.0483
906.00,0.0519
905.00,0.0568
904.00,0.0624
903.00,0.0685
902.00,0.0748
901.00,0.0815
900.00,0.0889
899.00,0.0971
898.00,0.1051
897.00,0.1112
896.00,0.1143
895.00,0.1148
894.00,0.1148
893.00,0.1168
892.00,0.1218
891.00,0.1281
890.00,0.1327
889.00,0.1340
888.00,0.1341
887.00,0.1370
886.00,0.1449
885.00,0.1560
884.00,0.1644
883.00,0.1639
882.00,0.1529
881.00,0.1353
880.00,0.1166
879.00,0.1007
878.00,0.0888
877.00,0.0805
876.00,0.0750
875.00,0.0715
874.00,0.0698
873.00,0.0696
872.00,0.0709
871.00,0.0731
870.00,0.0753
869.00,0.0769
868.00,0.0781
867.00,0.0799
866.00,0.0837
865.00,0.0903
864.00,0.0992
863.00,0.1089
862.00,0.1171
861.00,0.1220
860.00,0.1236
859.00,0.1234
858.00,0.1231
857.00,0.1237
856.00,0.1248
855.00,0.1256
854.00,0.1253
853.00,0.1242
852.00,0.1226
851.00,0.1209
850.00,0.1190
849.00,0.1167
848.00,0.1142
847.00,0.1119
846.00,0.1104
845.00,0.1097
844.00,0.1095
843.00,0.1093
842.00,0.1091
841.00,0.1091
840.00,0.1096
839.00,0.1105
838.00,0.1109
837.00,0.1099
836.00,0.1077
835.00,0.1051
834.00,0.1030
833.00,0.1020
832.00,0.1024
831.00,0.1038
830.00,0.1058
829.00,0.1075
828.00,0.1078
827.00,0.1060
826.00,0.1016
825.00,0.0953
824.00,0.0882
823.00,0.0812
822.00,0.0749
821.00,0.0692
820.00,0.0641
819.00,0.0596
818.00,0.0560
817.00,0.0532
816.00,0.0514
815.00,0.0504
814.00,0.0500
813.00,0.0502
812.00,0.0508
811.00,0.0522
810.00,0.0545
809.00,0.0582
808.00,0.0640
807.00,0.0721
806.00,0.0818
805.00,0.0903
804.00,0.0949
803.00,0.0943
802.00,0.0900
801.00,0.0845
800.00,0.0801
799.00,0.0778
798.00,0.0773
797.00,0.0779
796.00,0.0788
795.00,0.0790
794.00,0.0779
793.00,0.0755
792.00,0.0720
791.00,0.0682
790.00,0.0646
789.00,0.0617
788.00,0.0598
787.00,0.0585
786.00,0.0576
785.00,0.0565
784.00,0.0549
783.00,0.0531
782.00,0.0513
781.00,0.0499
780.00,0.0490
779.00,0.0486
778.00,0.0485
777.00,0.0484
776.00,0.0483
775.00,0.0484
774.00,0.0489
773.00,0.0497
772.00,0.0506
771.00,0.0513
770.00,0.0516
769.00,0.0513
768.00,0.0505
767.00,0.0493
766.00,0.0477
765.00,0.0460
764.00,0.0446
763.00,0.0435
762.00,0.0427
761.00,0.0422
760.00,0.0418
759.00,0.0418
758.00,0.0421
757.00,0.0427
756.00,0.0436
755.00,0.0449
754.00,0.0464
753.00,0.0475
752.00,0.0479
751.00,0.0478
750.00,0.0474
749.00,0.0471
748.00,0.0465
747.00,0.0454
746.00,0.0438
745.00,0.0422
744.00,0.0409
743.00,0.0401
742.00,0.0398
741.00,0.0400
740.00,0.0406
739.00,0.0417
738.00,0.0434
737.00,0.0455
736.00,0.0481
735.00,0.0511
734.00,0.0540
733.00,0.0564
732.00,0.0575
731.00,0.0570
730.00,0.0548
729.00,0.0518
728.00,0.0487
727.00,0.0463
726.00,0.0447
725.00,0.0436
724.00,0.0428
723.00,0.0422
722.00,0.0418
721.00,0.0415
720.00,0.0413
719.00,0.0411
718.00,0.0408
717.00,0.0405
716.00,0.0401
715.00,0.0398
714.00,0.0397
713.00,0.0397
712.00,0.0399
711.00,0.0399
710.00,0.0397
709.00,0.0394
708.00,0.0390
707.00,0.0387
706.00,0.0386
705.00,0.0386
704.00,0.0387
703.00,0.0388
702.00,0.0389
701.00,0.0390
700.00,0.0392
699.00,0.0393
698.00,0.0395
697.00,0.0397
696.00,0.0399
695.00,0.0401
694.00,0.0404
693.00,0.0408
692.00,0.0412
691.00,0.0417
690.00,0.0423
689.00,0.0430
688.00,0.0437
687.00,0.0446
686.00,0.0456
685.00,0.0466
684.00,0.0477
683.00,0.0489
682.00,0.0500
681.00,0.0510
680.00,0.0520
679.00,0.0527
678.00,0.0533
677.00,0.0536
676.00,0.0538
675.00,0.0540
674.00,0.0543
673.00,0.0549
672.00,0.0557
671.00,0.0567
670.00,0.0576
669.00,0.0581
668.00,0.0580
667.00,0.0570
666.00,0.0557
665.00,0.0544
664.00,0.0532
663.00,0.0522
662.00,0.0515
661.00,0.0511
660.00,0.0508
659.00,0.0507
658.00,0.0505
657.00,0.0503
656.00,0.0500
655.00,0.0499
654.00,0.0502
653.00,0.0510
652.00,0.0524
651.00,0.0543
650.00,0.0562
649.00,0.0576
648.00,0.0581
647.00,0.0579
646.00,0.0572
645.00,0.0562
644.00,0.0551
643.00,0.0543
642.00,0.0537
641.00,0.0533
640.00,0.0531
639.00,0.0529
638.00,0.0529
637.00,0.0530
636.00,0.0530
635.00,0.0530
634.00,0.0530
633.00,0.0530
632.00,0.0528
631.00,0.0527
630.00,0.0525
629.00,0.0524
628.00,0.0522
627.00,0.0520
626.00,0.0517
625.00,0.0512
624.00,0.0505
623.00,0.0497
622.00,0.0487
621.00,0.0475
620.00,0.0462
619.00,0.0452
618.00,0.0447
617.00,0.0450
616.00,0.0460
615.00,0.0476
614.00,0.0496
613.00,0.0518
612.00,0.0537
611.00,0.0548
610.00,0.0549
609.00,0.0541
608.00,0.0532
607.00,0.0526
606.00,0.0526
605.00,0.0529
604.00,0.0533
603.00,0.0535
602.00,0.0539
601.00,0.0545
600.00,0.0554
599.00,0.0562
598.00,0.0568
597.00,0.0570
596.00,0.0570
595.00,0.0572
594.00,0.0577
593.00,0.0586
592.00,0.0598
591.00,0.0613
590.00,0.0631
589.00,0.0649
588.00,0.0665
587.00,0.0674
586.00,0.0676
585.00,0.0672
584.00,0.0667
583.00,0.0668
582.00,0.0681
581.00,0.0709
580.00,0.0746
579.00,0.0776
578.00,0.0784
577.00,0.0760
576.00,0.0713
575.00,0.0659
574.00,0.0611
573.00,0.0577
572.00,0.0554
571.00,0.0541
570.00,0.0533
569.00,0.0528
568.00,0.0525
567.00,0.0524
566.00,0.0524
565.00,0.0525
564.00,0.0527
563.00,0.0531
562.00,0.0538
561.00,0.0546
560.00,0.0555
559.00,0.0567
558.00,0.0584
557.00,0.0608
556.00,0.0644
555.00,0.0695
554.00,0.0755
553.00,0.0813
552.00,0.0854
551.00,0.0865
550.00,0.0846
549.00,0.0810
548.00,0.0774
547.00,0.0751
546.00,0.0745
545.00,0.0750
544.00,0.0758
543.00,0.0766
542.00,0.0773
541.00,0.0787
540.00,0.0813
539.00,0.0857
538.00,0.0917
537.00,0.0985
536.00,0.1042
535.00,0.1071
534.00,0.1064
533.00,0.1027
532.00,0.0975
531.00,0.0924
530.00,0.0891
529.00,0.0886
528.00,0.0912
527.00,0.0962
526.00,0.1021
525.00,0.1071
524.00,0.1112
523.00,0.1143
522.00,0.1158
521.00,0.1138
520.00,0.1074
519.00,0.0979
518.00,0.0879
517.00,0.0795
516.00,0.0734
515.00,0.0694
514.00,0.0671
513.00,0.0661
512.00,0.0660
511.00,0.0668
510.00,0.0683
509.00,0.0705
508.00,0.0734
507.00,0.0770
506.00,0.0811
505.00,0.0856
504.00,0.0903
503.00,0.0952
502.00,0.1004
501.00,0.1057
500.00,0.1108
499.00,0.1158
498.00,0.1209
497.00,0.1258
496.00,0.1305
495.00,0.1348
494.00,0.1386
493.00,0.1419
492.00,0.1446
491.00,0.1466
490.00,0.1479
489.00,0.1489
488.00,0.1497
487.00,0.1501
486.00,0.1503
485.00,0.1500
484.00,0.1494
483.00,0.1483
482.00,0.1471
481.00,0.1458
480.00,0.1445
479.00,0.1432
478.00,0.1421
477.00,0.1413
476.00,0.1411
475.00,0.1412
474.00,0.1414
473.00,0.1417
472.00,0.1421
471.00,0.1426
470.00,0.1433
469.00,0.1444
468.00,0.1457
467.00,0.1466
466.00,0.1466
465.00,0.1459
464.00,0.1450
463.00,0.1437
462.00,0.1418
461.00,0.1394
460.00,0.1369
459.00,0.1350
458.00,0.1340
457.00,0.1339
456.00,0.1345
455.00,0.1353
454.00,0.1360
453.00,0.1363
452.00,0.1360
451.00,0.1351
450.00,0.1337
449.00,0.1321
448.00,0.1302
447.00,0.1278
446.00,0.1248
445.00,0.1215
444.00,0.1180
443.00,0.1146
442.00,0.1114
441.00,0.1087
440.00,0.1069
439.00,0.1059
438.00,0.1055
437.00,0.1052
436.00,0.1046
435.00,0.1034
434.00,0.1020
433.00,0.1005
432.00,0.0992
431.00,0.0985
430.00,0.0986
429.00,0.0997
428.00,0.1017
427.00,0.1043
426.00,0.1068
425.00,0.1085
424.00,0.1089
423.00,0.1080
422.00,0.1066
421.00,0.1053
420.00,0.1042
419.00,0.1030
418.00,0.1016
417.00,0.1006
416.00,0.1001
415.00,0.0999
414.00,0.0996
413.00,0.0996
412.00,0.1001
411.00,0.1014
410.00,0.1033
409.00,0.1052
408.00,0.1067
407.00,0.1079
406.00,0.1092
405.00,0.1110
404.00,0.1132
403.00,0.1154
402.00,0.1169
401.00,0.1177
400.00,0.1186
