Created as New Dataset,Sample 711 By YargerLab Date Thursday, March 19 2026
cm-1,A
4000.00,0.0178
3999.00,0.0178
3998.00,0.0178
3997.00,0.0178
3996.00,0.0178
3995.00,0.0178
3994.00,0.0178
3993.00,0.0178
3992.00,0.0178
3991.00,0.0178
3990.00,0.0178
3989.00,0.0178
3988.00,0.0178
3987.00,0.0178
3986.00,0.0177
3985.00,0.0177
3984.00,0.0177
3983.00,0.0178
3982.00,0.0178
3981.00,0.0178
3980.00,0.0177
3979.00,0.0177
3978.00,0.0177
3977.00,0.0177
3976.00,0.0177
3975.00,0.0177
3974.00,0.0177
3973.00,0.0177
3972.00,0.0177
3971.00,0.0177
3970.00,0.0177
3969.00,0.0177
3968.00,0.0177
3967.00,0.0177
3966.00,0.0177
3965.00,0.0177
3964.00,0.0177
3963.00,0.0177
3962.00,0.0178
3961.00,0.0178
3960.00,0.0178
3959.00,0.0178
3958.00,0.0177
3957.00,0.0177
3956.00,0.0177
3955.00,0.0177
3954.00,0.0177
3953.00,0.0177
3952.00,0.0177
3951.00,0.0177
3950.00,0.0177
3949.00,0.0177
3948.00,0.0177
3947.00,0.0177
3946.00,0.0177
3945.00,0.0177
3944.00,0.0177
3943.00,0.0177
3942.00,0.0177
3941.00,0.0177
3940.00,0.0177
3939.00,0.0177
3938.00,0.0176
3937.00,0.0176
3936.00,0.0176
3935.00,0.0176
3934.00,0.0177
3933.00,0.0177
3932.00,0.0177
3931.00,0.0177
3930.00,0.0177
3929.00,0.0177
3928.00,0.0177
3927.00,0.0177
3926.00,0.0177
3925.00,0.0177
3924.00,0.0177
3923.00,0.0177
3922.00,0.0176
3921.00,0.0176
3920.00,0.0176
3919.00,0.0176
3918.00,0.0176
3917.00,0.0176
3916.00,0.0176
3915.00,0.0176
3914.00,0.0175
3913.00,0.0175
3912.00,0.0175
3911.00,0.0175
3910.00,0.0175
3909.00,0.0175
3908.00,0.0175
3907.00,0.0175
3906.00,0.0175
3905.00,0.0175
3904.00,0.0176
3903.00,0.0176
3902.00,0.0176
3901.00,0.0176
3900.00,0.0176
3899.00,0.0176
3898.00,0.0175
3897.00,0.0175
3896.00,0.0175
3895.00,0.0175
3894.00,0.0175
3893.00,0.0175
3892.00,0.0175
3891.00,0.0175
3890.00,0.0174
3889.00,0.0174
3888.00,0.0174
3887.00,0.0175
3886.00,0.0175
3885.00,0.0175
3884.00,0.0175
3883.00,0.0175
3882.00,0.0175
3881.00,0.0176
3880.00,0.0176
3879.00,0.0175
3878.00,0.0175
3877.00,0.0175
3876.00,0.0175
3875.00,0.0175
3874.00,0.0175
3873.00,0.0174
3872.00,0.0174
3871.00,0.0174
3870.00,0.0174
3869.00,0.0174
3868.00,0.0174
3867.00,0.0174
3866.00,0.0174
3865.00,0.0174
3864.00,0.0174
3863.00,0.0174
3862.00,0.0174
3861.00,0.0174
3860.00,0.0174
3859.00,0.0174
3858.00,0.0173
3857.00,0.0171
3856.00,0.0169
3855.00,0.0168
3854.00,0.0169
3853.00,0.0169
3852.00,0.0169
3851.00,0.0170
3850.00,0.0171
3849.00,0.0172
3848.00,0.0173
3847.00,0.0174
3846.00,0.0174
3845.00,0.0174
3844.00,0.0173
3843.00,0.0173
3842.00,0.0173
3841.00,0.0173
3840.00,0.0173
3839.00,0.0172
3838.00,0.0172
3837.00,0.0172
3836.00,0.0172
3835.00,0.0172
3834.00,0.0173
3833.00,0.0173
3832.00,0.0173
3831.00,0.0173
3830.00,0.0173
3829.00,0.0173
3828.00,0.0173
3827.00,0.0173
3826.00,0.0173
3825.00,0.0173
3824.00,0.0172
3823.00,0.0172
3822.00,0.0172
3821.00,0.0172
3820.00,0.0172
3819.00,0.0171
3818.00,0.0171
3817.00,0.0171
3816.00,0.0171
3815.00,0.0171
3814.00,0.0171
3813.00,0.0171
3812.00,0.0171
3811.00,0.0171
3810.00,0.0171
3809.00,0.0171
3808.00,0.0171
3807.00,0.0170
3806.00,0.0170
3805.00,0.0170
3804.00,0.0170
3803.00,0.0170
3802.00,0.0170
3801.00,0.0170
3800.00,0.0171
3799.00,0.0171
3798.00,0.0171
3797.00,0.0172
3796.00,0.0172
3795.00,0.0171
3794.00,0.0171
3793.00,0.0171
3792.00,0.0171
3791.00,0.0171
3790.00,0.0172
3789.00,0.0172
3788.00,0.0172
3787.00,0.0172
3786.00,0.0172
3785.00,0.0171
3784.00,0.0171
3783.00,0.0170
3782.00,0.0170
3781.00,0.0170
3780.00,0.0170
3779.00,0.0170
3778.00,0.0170
3777.00,0.0170
3776.00,0.0170
3775.00,0.0170
3774.00,0.0169
3773.00,0.0169
3772.00,0.0169
3771.00,0.0169
3770.00,0.0169
3769.00,0.0169
3768.00,0.0169
3767.00,0.0169
3766.00,0.0169
3765.00,0.0169
3764.00,0.0169
3763.00,0.0169
3762.00,0.0169
3761.00,0.0169
3760.00,0.0169
3759.00,0.0169
3758.00,0.0169
3757.00,0.0169
3756.00,0.0169
3755.00,0.0168
3754.00,0.0167
3753.00,0.0167
3752.00,0.0166
3751.00,0.0166
3750.00,0.0166
3749.00,0.0165
3748.00,0.0165
3747.00,0.0165
3746.00,0.0165
3745.00,0.0165
3744.00,0.0166
3743.00,0.0166
3742.00,0.0166
3741.00,0.0167
3740.00,0.0168
3739.00,0.0168
3738.00,0.0169
3737.00,0.0169
3736.00,0.0170
3735.00,0.0170
3734.00,0.0169
3733.00,0.0168
3732.00,0.0167
3731.00,0.0166
3730.00,0.0166
3729.00,0.0166
3728.00,0.0166
3727.00,0.0167
3726.00,0.0167
3725.00,0.0167
3724.00,0.0167
3723.00,0.0167
3722.00,0.0166
3721.00,0.0166
3720.00,0.0166
3719.00,0.0165
3718.00,0.0165
3717.00,0.0165
3716.00,0.0165
3715.00,0.0164
3714.00,0.0164
3713.00,0.0165
3712.00,0.0165
3711.00,0.0165
3710.00,0.0165
3709.00,0.0164
3708.00,0.0164
3707.00,0.0164
3706.00,0.0164
3705.00,0.0164
3704.00,0.0164
3703.00,0.0164
3702.00,0.0164
3701.00,0.0164
3700.00,0.0163
3699.00,0.0163
3698.00,0.0163
3697.00,0.0163
3696.00,0.0163
3695.00,0.0163
3694.00,0.0162
3693.00,0.0162
3692.00,0.0162
3691.00,0.0162
3690.00,0.0162
3689.00,0.0162
3688.00,0.0162
3687.00,0.0162
3686.00,0.0162
3685.00,0.0163
3684.00,0.0163
3683.00,0.0163
3682.00,0.0163
3681.00,0.0163
3680.00,0.0163
3679.00,0.0162
3678.00,0.0162
3677.00,0.0161
3676.00,0.0162
3675.00,0.0162
3674.00,0.0161
3673.00,0.0161
3672.00,0.0161
3671.00,0.0161
3670.00,0.0162
3669.00,0.0162
3668.00,0.0162
3667.00,0.0162
3666.00,0.0162
3665.00,0.0162
3664.00,0.0162
3663.00,0.0162
3662.00,0.0162
3661.00,0.0162
3660.00,0.0162
3659.00,0.0162
3658.00,0.0162
3657.00,0.0162
3656.00,0.0162
3655.00,0.0162
3654.00,0.0161
3653.00,0.0161
3652.00,0.0161
3651.00,0.0161
3650.00,0.0162
3649.00,0.0162
3648.00,0.0162
3647.00,0.0162
3646.00,0.0161
3645.00,0.0161
3644.00,0.0161
3643.00,0.0161
3642.00,0.0161
3641.00,0.0161
3640.00,0.0161
3639.00,0.0161
3638.00,0.0161
3637.00,0.0161
3636.00,0.0161
3635.00,0.0161
3634.00,0.0161
3633.00,0.0160
3632.00,0.0159
3631.00,0.0159
3630.00,0.0159
3629.00,0.0159
3628.00,0.0159
3627.00,0.0159
3626.00,0.0159
3625.00,0.0159
3624.00,0.0159
3623.00,0.0159
3622.00,0.0159
3621.00,0.0159
3620.00,0.0160
3619.00,0.0160
3618.00,0.0160
3617.00,0.0160
3616.00,0.0160
3615.00,0.0160
3614.00,0.0160
3613.00,0.0160
3612.00,0.0159
3611.00,0.0159
3610.00,0.0159
3609.00,0.0160
3608.00,0.0160
3607.00,0.0159
3606.00,0.0159
3605.00,0.0158
3604.00,0.0158
3603.00,0.0158
3602.00,0.0158
3601.00,0.0158
3600.00,0.0158
3599.00,0.0158
3598.00,0.0158
3597.00,0.0158
3596.00,0.0158
3595.00,0.0158
3594.00,0.0158
3593.00,0.0157
3592.00,0.0157
3591.00,0.0157
3590.00,0.0157
3589.00,0.0158
3588.00,0.0158
3587.00,0.0158
3586.00,0.0157
3585.00,0.0156
3584.00,0.0156
3583.00,0.0156
3582.00,0.0156
3581.00,0.0156
3580.00,0.0156
3579.00,0.0156
3578.00,0.0156
3577.00,0.0155
3576.00,0.0155
3575.00,0.0155
3574.00,0.0155
3573.00,0.0155
3572.00,0.0155
3571.00,0.0155
3570.00,0.0156
3569.00,0.0157
3568.00,0.0158
3567.00,0.0158
3566.00,0.0157
3565.00,0.0156
3564.00,0.0156
3563.00,0.0155
3562.00,0.0155
3561.00,0.0155
3560.00,0.0154
3559.00,0.0154
3558.00,0.0154
3557.00,0.0153
3556.00,0.0153
3555.00,0.0153
3554.00,0.0154
3553.00,0.0154
3552.00,0.0154
3551.00,0.0153
3550.00,0.0153
3549.00,0.0154
3548.00,0.0154
3547.00,0.0154
3546.00,0.0154
3545.00,0.0154
3544.00,0.0154
3543.00,0.0153
3542.00,0.0153
3541.00,0.0153
3540.00,0.0153
3539.00,0.0153
3538.00,0.0153
3537.00,0.0152
3536.00,0.0152
3535.00,0.0152
3534.00,0.0152
3533.00,0.0152
3532.00,0.0152
3531.00,0.0152
3530.00,0.0152
3529.00,0.0152
3528.00,0.0152
3527.00,0.0152
3526.00,0.0151
3525.00,0.0151
3524.00,0.0151
3523.00,0.0151
3522.00,0.0151
3521.00,0.0151
3520.00,0.0151
3519.00,0.0151
3518.00,0.0150
3517.00,0.0150
3516.00,0.0150
3515.00,0.0150
3514.00,0.0150
3513.00,0.0150
3512.00,0.0150
3511.00,0.0150
3510.00,0.0150
3509.00,0.0150
3508.00,0.0150
3507.00,0.0150
3506.00,0.0150
3505.00,0.0150
3504.00,0.0150
3503.00,0.0150
3502.00,0.0150
3501.00,0.0150
3500.00,0.0150
3499.00,0.0150
3498.00,0.0150
3497.00,0.0150
3496.00,0.0150
3495.00,0.0149
3494.00,0.0149
3493.00,0.0149
3492.00,0.0149
3491.00,0.0150
3490.00,0.0150
3489.00,0.0150
3488.00,0.0150
3487.00,0.0150
3486.00,0.0150
3485.00,0.0150
3484.00,0.0150
3483.00,0.0150
3482.00,0.0151
3481.00,0.0151
3480.00,0.0151
3479.00,0.0151
3478.00,0.0151
3477.00,0.0151
3476.00,0.0152
3475.00,0.0152
3474.00,0.0152
3473.00,0.0151
3472.00,0.0151
3471.00,0.0151
3470.00,0.0151
3469.00,0.0151
3468.00,0.0152
3467.00,0.0152
3466.00,0.0152
3465.00,0.0153
3464.00,0.0153
3463.00,0.0153
3462.00,0.0153
3461.00,0.0153
3460.00,0.0154
3459.00,0.0154
3458.00,0.0154
3457.00,0.0154
3456.00,0.0154
3455.00,0.0155
3454.00,0.0155
3453.00,0.0155
3452.00,0.0156
3451.00,0.0156
3450.00,0.0157
3449.00,0.0157
3448.00,0.0157
3447.00,0.0158
3446.00,0.0158
3445.00,0.0159
3444.00,0.0159
3443.00,0.0160
3442.00,0.0160
3441.00,0.0159
3440.00,0.0159
3439.00,0.0158
3438.00,0.0157
3437.00,0.0157
3436.00,0.0157
3435.00,0.0158
3434.00,0.0159
3433.00,0.0159
3432.00,0.0160
3431.00,0.0160
3430.00,0.0161
3429.00,0.0161
3428.00,0.0162
3427.00,0.0163
3426.00,0.0163
3425.00,0.0164
3424.00,0.0164
3423.00,0.0165
3422.00,0.0165
3421.00,0.0166
3420.00,0.0166
3419.00,0.0167
3418.00,0.0167
3417.00,0.0167
3416.00,0.0168
3415.00,0.0168
3414.00,0.0168
3413.00,0.0168
3412.00,0.0169
3411.00,0.0170
3410.00,0.0171
3409.00,0.0172
3408.00,0.0173
3407.00,0.0175
3406.00,0.0176
3405.00,0.0176
3404.00,0.0176
3403.00,0.0176
3402.00,0.0177
3401.00,0.0178
3400.00,0.0180
3399.00,0.0183
3398.00,0.0185
3397.00,0.0188
3396.00,0.0190
3395.00,0.0192
3394.00,0.0194
3393.00,0.0196
3392.00,0.0198
3391.00,0.0202
3390.00,0.0207
3389.00,0.0211
3388.00,0.0216
3387.00,0.0220
3386.00,0.0225
3385.00,0.0229
3384.00,0.0234
3383.00,0.0240
3382.00,0.0245
3381.00,0.0251
3380.00,0.0257
3379.00,0.0264
3378.00,0.0271
3377.00,0.0278
3376.00,0.0285
3375.00,0.0293
3374.00,0.0300
3373.00,0.0306
3372.00,0.0312
3371.00,0.0318
3370.00,0.0323
3369.00,0.0329
3368.00,0.0334
3367.00,0.0340
3366.00,0.0345
3365.00,0.0349
3364.00,0.0353
3363.00,0.0355
3362.00,0.0357
3361.00,0.0358
3360.00,0.0359
3359.00,0.0359
3358.00,0.0359
3357.00,0.0359
3356.00,0.0359
3355.00,0.0357
3354.00,0.0356
3353.00,0.0354
3352.00,0.0352
3351.00,0.0351
3350.00,0.0350
3349.00,0.0349
3348.00,0.0347
3347.00,0.0346
3346.00,0.0344
3345.00,0.0341
3344.00,0.0339
3343.00,0.0337
3342.00,0.0334
3341.00,0.0332
3340.00,0.0329
3339.00,0.0326
3338.00,0.0324
3337.00,0.0322
3336.00,0.0319
3335.00,0.0317
3334.00,0.0315
3333.00,0.0312
3332.00,0.0309
3331.00,0.0307
3330.00,0.0304
3329.00,0.0302
3328.00,0.0299
3327.00,0.0297
3326.00,0.0294
3325.00,0.0292
3324.00,0.0291
3323.00,0.0290
3322.00,0.0288
3321.00,0.0287
3320.00,0.0286
3319.00,0.0285
3318.00,0.0284
3317.00,0.0283
3316.00,0.0282
3315.00,0.0282
3314.00,0.0281
3313.00,0.0280
3312.00,0.0279
3311.00,0.0278
3310.00,0.0277
3309.00,0.0277
3308.00,0.0276
3307.00,0.0275
3306.00,0.0275
3305.00,0.0275
3304.00,0.0275
3303.00,0.0276
3302.00,0.0276
3301.00,0.0276
3300.00,0.0275
3299.00,0.0275
3298.00,0.0275
3297.00,0.0274
3296.00,0.0274
3295.00,0.0274
3294.00,0.0274
3293.00,0.0274
3292.00,0.0275
3291.00,0.0275
3290.00,0.0276
3289.00,0.0276
3288.00,0.0277
3287.00,0.0277
3286.00,0.0277
3285.00,0.0277
3284.00,0.0277
3283.00,0.0277
3282.00,0.0278
3281.00,0.0278
3280.00,0.0278
3279.00,0.0278
3278.00,0.0278
3277.00,0.0278
3276.00,0.0278
3275.00,0.0278
3274.00,0.0278
3273.00,0.0278
3272.00,0.0278
3271.00,0.0278
3270.00,0.0279
3269.00,0.0280
3268.00,0.0281
3267.00,0.0281
3266.00,0.0282
3265.00,0.0282
3264.00,0.0283
3263.00,0.0283
3262.00,0.0284
3261.00,0.0284
3260.00,0.0285
3259.00,0.0285
3258.00,0.0286
3257.00,0.0286
3256.00,0.0287
3255.00,0.0288
3254.00,0.0289
3253.00,0.0290
3252.00,0.0291
3251.00,0.0292
3250.00,0.0293
3249.00,0.0293
3248.00,0.0294
3247.00,0.0295
3246.00,0.0296
3245.00,0.0298
3244.00,0.0299
3243.00,0.0300
3242.00,0.0301
3241.00,0.0303
3240.00,0.0304
3239.00,0.0305
3238.00,0.0305
3237.00,0.0306
3236.00,0.0307
3235.00,0.0307
3234.00,0.0308
3233.00,0.0309
3232.00,0.0311
3231.00,0.0312
3230.00,0.0314
3229.00,0.0315
3228.00,0.0316
3227.00,0.0317
3226.00,0.0318
3225.00,0.0319
3224.00,0.0320
3223.00,0.0321
3222.00,0.0322
3221.00,0.0323
3220.00,0.0325
3219.00,0.0326
3218.00,0.0328
3217.00,0.0329
3216.00,0.0331
3215.00,0.0332
3214.00,0.0334
3213.00,0.0335
3212.00,0.0337
3211.00,0.0338
3210.00,0.0339
3209.00,0.0341
3208.00,0.0342
3207.00,0.0344
3206.00,0.0345
3205.00,0.0347
3204.00,0.0348
3203.00,0.0350
3202.00,0.0352
3201.00,0.0354
3200.00,0.0356
3199.00,0.0358
3198.00,0.0360
3197.00,0.0362
3196.00,0.0365
3195.00,0.0367
3194.00,0.0369
3193.00,0.0372
3192.00,0.0374
3191.00,0.0377
3190.00,0.0379
3189.00,0.0382
3188.00,0.0385
3187.00,0.0387
3186.00,0.0390
3185.00,0.0392
3184.00,0.0395
3183.00,0.0397
3182.00,0.0399
3181.00,0.0401
3180.00,0.0403
3179.00,0.0405
3178.00,0.0408
3177.00,0.0410
3176.00,0.0412
3175.00,0.0414
3174.00,0.0416
3173.00,0.0418
3172.00,0.0420
3171.00,0.0422
3170.00,0.0424
3169.00,0.0427
3168.00,0.0429
3167.00,0.0430
3166.00,0.0432
3165.00,0.0434
3164.00,0.0435
3163.00,0.0437
3162.00,0.0439
3161.00,0.0440
3160.00,0.0442
3159.00,0.0444
3158.00,0.0446
3157.00,0.0447
3156.00,0.0449
3155.00,0.0450
3154.00,0.0452
3153.00,0.0453
3152.00,0.0455
3151.00,0.0456
3150.00,0.0457
3149.00,0.0458
3148.00,0.0458
3147.00,0.0459
3146.00,0.0459
3145.00,0.0460
3144.00,0.0460
3143.00,0.0460
3142.00,0.0460
3141.00,0.0461
3140.00,0.0461
3139.00,0.0462
3138.00,0.0462
3137.00,0.0463
3136.00,0.0463
3135.00,0.0464
3134.00,0.0465
3133.00,0.0466
3132.00,0.0467
3131.00,0.0468
3130.00,0.0469
3129.00,0.0470
3128.00,0.0472
3127.00,0.0473
3126.00,0.0475
3125.00,0.0476
3124.00,0.0477
3123.00,0.0479
3122.00,0.0480
3121.00,0.0482
3120.00,0.0483
3119.00,0.0485
3118.00,0.0486
3117.00,0.0486
3116.00,0.0487
3115.00,0.0488
3114.00,0.0489
3113.00,0.0490
3112.00,0.0491
3111.00,0.0492
3110.00,0.0493
3109.00,0.0494
3108.00,0.0495
3107.00,0.0496
3106.00,0.0496
3105.00,0.0497
3104.00,0.0498
3103.00,0.0498
3102.00,0.0499
3101.00,0.0500
3100.00,0.0501
3099.00,0.0502
3098.00,0.0503
3097.00,0.0504
3096.00,0.0505
3095.00,0.0506
3094.00,0.0507
3093.00,0.0508
3092.00,0.0509
3091.00,0.0509
3090.00,0.0510
3089.00,0.0509
3088.00,0.0509
3087.00,0.0507
3086.00,0.0506
3085.00,0.0504
3084.00,0.0501
3083.00,0.0499
3082.00,0.0496
3081.00,0.0494
3080.00,0.0491
3079.00,0.0489
3078.00,0.0487
3077.00,0.0485
3076.00,0.0483
3075.00,0.0482
3074.00,0.0482
3073.00,0.0481
3072.00,0.0482
3071.00,0.0482
3070.00,0.0483
3069.00,0.0484
3068.00,0.0485
3067.00,0.0486
3066.00,0.0487
3065.00,0.0489
3064.00,0.0491
3063.00,0.0493
3062.00,0.0495
3061.00,0.0497
3060.00,0.0499
3059.00,0.0501
3058.00,0.0503
3057.00,0.0505
3056.00,0.0508
3055.00,0.0511
3054.00,0.0515
3053.00,0.0520
3052.00,0.0527
3051.00,0.0534
3050.00,0.0541
3049.00,0.0548
3048.00,0.0553
3047.00,0.0556
3046.00,0.0558
3045.00,0.0558
3044.00,0.0556
3043.00,0.0553
3042.00,0.0549
3041.00,0.0545
3040.00,0.0541
3039.00,0.0538
3038.00,0.0536
3037.00,0.0534
3036.00,0.0533
3035.00,0.0532
3034.00,0.0531
3033.00,0.0531
3032.00,0.0531
3031.00,0.0532
3030.00,0.0533
3029.00,0.0534
3028.00,0.0537
3027.00,0.0540
3026.00,0.0544
3025.00,0.0550
3024.00,0.0559
3023.00,0.0569
3022.00,0.0579
3021.00,0.0586
3020.00,0.0590
3019.00,0.0589
3018.00,0.0585
3017.00,0.0580
3016.00,0.0574
3015.00,0.0569
3014.00,0.0566
3013.00,0.0564
3012.00,0.0562
3011.00,0.0561
3010.00,0.0561
3009.00,0.0560
3008.00,0.0559
3007.00,0.0559
3006.00,0.0559
3005.00,0.0559
3004.00,0.0558
3003.00,0.0557
3002.00,0.0556
3001.00,0.0554
3000.00,0.0552
2999.00,0.0550
2998.00,0.0551
2997.00,0.0554
2996.00,0.0562
2995.00,0.0573
2994.00,0.0587
2993.00,0.0600
2992.00,0.0607
2991.00,0.0606
2990.00,0.0597
2989.00,0.0585
2988.00,0.0572
2987.00,0.0563
2986.00,0.0558
2985.00,0.0560
2984.00,0.0566
2983.00,0.0576
2982.00,0.0586
2981.00,0.0593
2980.00,0.0596
2979.00,0.0593
2978.00,0.0585
2977.00,0.0575
2976.00,0.0566
2975.00,0.0559
2974.00,0.0556
2973.00,0.0558
2972.00,0.0566
2971.00,0.0579
2970.00,0.0597
2969.00,0.0621
2968.00,0.0647
2967.00,0.0673
2966.00,0.0695
2965.00,0.0712
2964.00,0.0727
2963.00,0.0743
2962.00,0.0763
2961.00,0.0790
2960.00,0.0827
2959.00,0.0871
2958.00,0.0919
2957.00,0.0965
2956.00,0.1001
2955.00,0.1022
2954.00,0.1026
2953.00,0.1017
2952.00,0.1002
2951.00,0.0985
2950.00,0.0970
2949.00,0.0957
2948.00,0.0941
2947.00,0.0922
2946.00,0.0899
2945.00,0.0875
2944.00,0.0854
2943.00,0.0837
2942.00,0.0824
2941.00,0.0814
2940.00,0.0807
2939.00,0.0800
2938.00,0.0794
2937.00,0.0790
2936.00,0.0787
2935.00,0.0786
2934.00,0.0788
2933.00,0.0791
2932.00,0.0798
2931.00,0.0808
2930.00,0.0821
2929.00,0.0837
2928.00,0.0855
2927.00,0.0874
2926.00,0.0893
2925.00,0.0910
2924.00,0.0923
2923.00,0.0930
2922.00,0.0931
2921.00,0.0926
2920.00,0.0917
2919.00,0.0906
2918.00,0.0893
2917.00,0.0880
2916.00,0.0867
2915.00,0.0854
2914.00,0.0841
2913.00,0.0829
2912.00,0.0817
2911.00,0.0807
2910.00,0.0797
2909.00,0.0789
2908.00,0.0781
2907.00,0.0774
2906.00,0.0767
2905.00,0.0761
2904.00,0.0756
2903.00,0.0751
2902.00,0.0747
2901.00,0.0743
2900.00,0.0739
2899.00,0.0735
2898.00,0.0730
2897.00,0.0725
2896.00,0.0718
2895.00,0.0711
2894.00,0.0704
2893.00,0.0695
2892.00,0.0688
2891.00,0.0680
2890.00,0.0674
2889.00,0.0669
2888.00,0.0666
2887.00,0.0664
2886.00,0.0663
2885.00,0.0665
2884.00,0.0669
2883.00,0.0675
2882.00,0.0685
2881.00,0.0700
2880.00,0.0720
2879.00,0.0745
2878.00,0.0771
2877.00,0.0796
2876.00,0.0816
2875.00,0.0830
2874.00,0.0838
2873.00,0.0844
2872.00,0.0851
2871.00,0.0859
2870.00,0.0868
2869.00,0.0872
2868.00,0.0869
2867.00,0.0858
2866.00,0.0838
2865.00,0.0813
2864.00,0.0786
2863.00,0.0760
2862.00,0.0736
2861.00,0.0716
2860.00,0.0700
2859.00,0.0688
2858.00,0.0680
2857.00,0.0675
2856.00,0.0674
2855.00,0.0676
2854.00,0.0680
2853.00,0.0684
2852.00,0.0688
2851.00,0.0689
2850.00,0.0686
2849.00,0.0679
2848.00,0.0671
2847.00,0.0661
2846.00,0.0652
2845.00,0.0643
2844.00,0.0636
2843.00,0.0629
2842.00,0.0623
2841.00,0.0618
2840.00,0.0614
2839.00,0.0611
2838.00,0.0607
2837.00,0.0605
2836.00,0.0602
2835.00,0.0599
2834.00,0.0597
2833.00,0.0593
2832.00,0.0590
2831.00,0.0587
2830.00,0.0584
2829.00,0.0580
2828.00,0.0577
2827.00,0.0573
2826.00,0.0569
2825.00,0.0566
2824.00,0.0562
2823.00,0.0558
2822.00,0.0555
2821.00,0.0551
2820.00,0.0547
2819.00,0.0543
2818.00,0.0539
2817.00,0.0535
2816.00,0.0531
2815.00,0.0528
2814.00,0.0524
2813.00,0.0521
2812.00,0.0518
2811.00,0.0515
2810.00,0.0512
2809.00,0.0510
2808.00,0.0507
2807.00,0.0504
2806.00,0.0502
2805.00,0.0499
2804.00,0.0497
2803.00,0.0494
2802.00,0.0492
2801.00,0.0489
2800.00,0.0487
2799.00,0.0485
2798.00,0.0484
2797.00,0.0483
2796.00,0.0482
2795.00,0.0481
2794.00,0.0480
2793.00,0.0479
2792.00,0.0478
2791.00,0.0477
2790.00,0.0476
2789.00,0.0475
2788.00,0.0475
2787.00,0.0474
2786.00,0.0472
2785.00,0.0471
2784.00,0.0470
2783.00,0.0468
2782.00,0.0467
2781.00,0.0465
2780.00,0.0463
2779.00,0.0461
2778.00,0.0459
2777.00,0.0457
2776.00,0.0455
2775.00,0.0454
2774.00,0.0452
2773.00,0.0451
2772.00,0.0450
2771.00,0.0449
2770.00,0.0447
2769.00,0.0446
2768.00,0.0445
2767.00,0.0444
2766.00,0.0443
2765.00,0.0443
2764.00,0.0442
2763.00,0.0442
2762.00,0.0442
2761.00,0.0442
2760.00,0.0442
2759.00,0.0443
2758.00,0.0443
2757.00,0.0444
2756.00,0.0445
2755.00,0.0445
2754.00,0.0446
2753.00,0.0446
2752.00,0.0446
2751.00,0.0447
2750.00,0.0447
2749.00,0.0448
2748.00,0.0450
2747.00,0.0452
2746.00,0.0455
2745.00,0.0458
2744.00,0.0462
2743.00,0.0466
2742.00,0.0470
2741.00,0.0474
2740.00,0.0478
2739.00,0.0482
2738.00,0.0485
2737.00,0.0488
2736.00,0.0490
2735.00,0.0492
2734.00,0.0494
2733.00,0.0495
2732.00,0.0496
2731.00,0.0497
2730.00,0.0497
2729.00,0.0498
2728.00,0.0498
2727.00,0.0498
2726.00,0.0497
2725.00,0.0496
2724.00,0.0494
2723.00,0.0492
2722.00,0.0489
2721.00,0.0487
2720.00,0.0484
2719.00,0.0482
2718.00,0.0480
2717.00,0.0477
2716.00,0.0474
2715.00,0.0471
2714.00,0.0468
2713.00,0.0465
2712.00,0.0462
2711.00,0.0459
2710.00,0.0457
2709.00,0.0454
2708.00,0.0452
2707.00,0.0450
2706.00,0.0448
2705.00,0.0446
2704.00,0.0444
2703.00,0.0443
2702.00,0.0442
2701.00,0.0441
2700.00,0.0440
2699.00,0.0440
2698.00,0.0439
2697.00,0.0439
2696.00,0.0439
2695.00,0.0438
2694.00,0.0438
2693.00,0.0437
2692.00,0.0437
2691.00,0.0437
2690.00,0.0436
2689.00,0.0435
2688.00,0.0434
2687.00,0.0433
2686.00,0.0433
2685.00,0.0432
2684.00,0.0431
2683.00,0.0429
2682.00,0.0428
2681.00,0.0426
2680.00,0.0425
2679.00,0.0424
2678.00,0.0422
2677.00,0.0421
2676.00,0.0420
2675.00,0.0418
2674.00,0.0417
2673.00,0.0416
2672.00,0.0415
2671.00,0.0414
2670.00,0.0414
2669.00,0.0413
2668.00,0.0412
2667.00,0.0412
2666.00,0.0412
2665.00,0.0412
2664.00,0.0413
2663.00,0.0414
2662.00,0.0415
2661.00,0.0416
2660.00,0.0417
2659.00,0.0418
2658.00,0.0420
2657.00,0.0422
2656.00,0.0424
2655.00,0.0426
2654.00,0.0427
2653.00,0.0429
2652.00,0.0431
2651.00,0.0432
2650.00,0.0433
2649.00,0.0434
2648.00,0.0435
2647.00,0.0436
2646.00,0.0437
2645.00,0.0439
2644.00,0.0441
2643.00,0.0443
2642.00,0.0447
2641.00,0.0451
2640.00,0.0455
2639.00,0.0459
2638.00,0.0463
2637.00,0.0467
2636.00,0.0471
2635.00,0.0474
2634.00,0.0476
2633.00,0.0478
2632.00,0.0478
2631.00,0.0478
2630.00,0.0476
2629.00,0.0474
2628.00,0.0471
2627.00,0.0468
2626.00,0.0465
2625.00,0.0461
2624.00,0.0458
2623.00,0.0455
2622.00,0.0452
2621.00,0.0448
2620.00,0.0445
2619.00,0.0442
2618.00,0.0439
2617.00,0.0436
2616.00,0.0433
2615.00,0.0431
2614.00,0.0429
2613.00,0.0427
2612.00,0.0426
2611.00,0.0425
2610.00,0.0425
2609.00,0.0425
2608.00,0.0425
2607.00,0.0426
2606.00,0.0427
2605.00,0.0428
2604.00,0.0429
2603.00,0.0430
2602.00,0.0430
2601.00,0.0430
2600.00,0.0430
2599.00,0.0429
2598.00,0.0427
2597.00,0.0425
2596.00,0.0422
2595.00,0.0420
2594.00,0.0417
2593.00,0.0414
2592.00,0.0412
2591.00,0.0410
2590.00,0.0409
2589.00,0.0408
2588.00,0.0407
2587.00,0.0406
2586.00,0.0404
2585.00,0.0402
2584.00,0.0400
2583.00,0.0398
2582.00,0.0395
2581.00,0.0393
2580.00,0.0391
2579.00,0.0389
2578.00,0.0387
2577.00,0.0386
2576.00,0.0385
2575.00,0.0384
2574.00,0.0383
2573.00,0.0382
2572.00,0.0381
2571.00,0.0380
2570.00,0.0379
2569.00,0.0377
2568.00,0.0376
2567.00,0.0375
2566.00,0.0373
2565.00,0.0373
2564.00,0.0372
2563.00,0.0372
2562.00,0.0372
2561.00,0.0373
2560.00,0.0373
2559.00,0.0373
2558.00,0.0373
2557.00,0.0374
2556.00,0.0374
2555.00,0.0375
2554.00,0.0375
2553.00,0.0376
2552.00,0.0378
2551.00,0.0379
2550.00,0.0380
2549.00,0.0381
2548.00,0.0382
2547.00,0.0384
2546.00,0.0385
2545.00,0.0387
2544.00,0.0388
2543.00,0.0389
2542.00,0.0390
2541.00,0.0390
2540.00,0.0389
2539.00,0.0388
2538.00,0.0387
2537.00,0.0384
2536.00,0.0382
2535.00,0.0379
2534.00,0.0376
2533.00,0.0373
2532.00,0.0370
2531.00,0.0368
2530.00,0.0365
2529.00,0.0363
2528.00,0.0361
2527.00,0.0359
2526.00,0.0357
2525.00,0.0355
2524.00,0.0354
2523.00,0.0352
2522.00,0.0350
2521.00,0.0349
2520.00,0.0348
2519.00,0.0347
2518.00,0.0346
2517.00,0.0345
2516.00,0.0344
2515.00,0.0343
2514.00,0.0341
2513.00,0.0339
2512.00,0.0337
2511.00,0.0336
2510.00,0.0334
2509.00,0.0332
2508.00,0.0331
2507.00,0.0330
2506.00,0.0329
2505.00,0.0328
2504.00,0.0328
2503.00,0.0328
2502.00,0.0328
2501.00,0.0327
2500.00,0.0327
2499.00,0.0327
2498.00,0.0326
2497.00,0.0325
2496.00,0.0324
2495.00,0.0323
2494.00,0.0322
2493.00,0.0321
2492.00,0.0319
2491.00,0.0318
2490.00,0.0317
2489.00,0.0315
2488.00,0.0314
2487.00,0.0312
2486.00,0.0310
2485.00,0.0308
2484.00,0.0307
2483.00,0.0305
2482.00,0.0303
2481.00,0.0301
2480.00,0.0300
2479.00,0.0298
2478.00,0.0297
2477.00,0.0296
2476.00,0.0295
2475.00,0.0293
2474.00,0.0292
2473.00,0.0291
2472.00,0.0290
2471.00,0.0289
2470.00,0.0288
2469.00,0.0287
2468.00,0.0287
2467.00,0.0286
2466.00,0.0286
2465.00,0.0285
2464.00,0.0284
2463.00,0.0284
2462.00,0.0283
2461.00,0.0283
2460.00,0.0284
2459.00,0.0284
2458.00,0.0284
2457.00,0.0285
2456.00,0.0286
2455.00,0.0287
2454.00,0.0288
2453.00,0.0288
2452.00,0.0288
2451.00,0.0287
2450.00,0.0287
2449.00,0.0286
2448.00,0.0285
2447.00,0.0285
2446.00,0.0283
2445.00,0.0282
2444.00,0.0281
2443.00,0.0279
2442.00,0.0277
2441.00,0.0276
2440.00,0.0274
2439.00,0.0273
2438.00,0.0271
2437.00,0.0270
2436.00,0.0269
2435.00,0.0267
2434.00,0.0266
2433.00,0.0265
2432.00,0.0264
2431.00,0.0263
2430.00,0.0262
2429.00,0.0261
2428.00,0.0261
2427.00,0.0260
2426.00,0.0260
2425.00,0.0259
2424.00,0.0259
2423.00,0.0259
2422.00,0.0258
2421.00,0.0258
2420.00,0.0258
2419.00,0.0258
2418.00,0.0258
2417.00,0.0259
2416.00,0.0260
2415.00,0.0260
2414.00,0.0260
2413.00,0.0261
2412.00,0.0261
2411.00,0.0261
2410.00,0.0261
2409.00,0.0261
2408.00,0.0261
2407.00,0.0261
2406.00,0.0260
2405.00,0.0260
2404.00,0.0259
2403.00,0.0258
2402.00,0.0257
2401.00,0.0256
2400.00,0.0256
2399.00,0.0255
2398.00,0.0254
2397.00,0.0254
2396.00,0.0253
2395.00,0.0253
2394.00,0.0252
2393.00,0.0251
2392.00,0.0250
2391.00,0.0249
2390.00,0.0248
2389.00,0.0247
2388.00,0.0246
2387.00,0.0245
2386.00,0.0244
2385.00,0.0243
2384.00,0.0242
2383.00,0.0242
2382.00,0.0241
2381.00,0.0240
2380.00,0.0239
2379.00,0.0238
2378.00,0.0237
2377.00,0.0236
2376.00,0.0235
2375.00,0.0234
2374.00,0.0233
2373.00,0.0232
2372.00,0.0231
2371.00,0.0231
2370.00,0.0231
2369.00,0.0230
2368.00,0.0230
2367.00,0.0230
2366.00,0.0229
2365.00,0.0229
2364.00,0.0229
2363.00,0.0229
2362.00,0.0228
2361.00,0.0228
2360.00,0.0228
2359.00,0.0228
2358.00,0.0227
2357.00,0.0227
2356.00,0.0227
2355.00,0.0226
2354.00,0.0226
2353.00,0.0227
2352.00,0.0227
2351.00,0.0226
2350.00,0.0225
2349.00,0.0224
2348.00,0.0225
2347.00,0.0225
2346.00,0.0225
2345.00,0.0223
2344.00,0.0221
2343.00,0.0220
2342.00,0.0220
2341.00,0.0221
2340.00,0.0223
2339.00,0.0223
2338.00,0.0223
2337.00,0.0223
2336.00,0.0224
2335.00,0.0224
2334.00,0.0224
2333.00,0.0225
2332.00,0.0225
2331.00,0.0226
2330.00,0.0226
2329.00,0.0226
2328.00,0.0226
2327.00,0.0227
2326.00,0.0227
2325.00,0.0226
2324.00,0.0225
2323.00,0.0225
2322.00,0.0224
2321.00,0.0223
2320.00,0.0223
2319.00,0.0223
2318.00,0.0223
2317.00,0.0223
2316.00,0.0224
2315.00,0.0224
2314.00,0.0224
2313.00,0.0224
2312.00,0.0223
2311.00,0.0222
2310.00,0.0222
2309.00,0.0221
2308.00,0.0221
2307.00,0.0220
2306.00,0.0219
2305.00,0.0219
2304.00,0.0218
2303.00,0.0217
2302.00,0.0217
2301.00,0.0216
2300.00,0.0216
2299.00,0.0215
2298.00,0.0215
2297.00,0.0214
2296.00,0.0214
2295.00,0.0214
2294.00,0.0213
2293.00,0.0213
2292.00,0.0213
2291.00,0.0213
2290.00,0.0212
2289.00,0.0212
2288.00,0.0212
2287.00,0.0212
2286.00,0.0211
2285.00,0.0211
2284.00,0.0211
2283.00,0.0212
2282.00,0.0212
2281.00,0.0211
2280.00,0.0211
2279.00,0.0210
2278.00,0.0210
2277.00,0.0209
2276.00,0.0209
2275.00,0.0209
2274.00,0.0208
2273.00,0.0208
2272.00,0.0207
2271.00,0.0206
2270.00,0.0206
2269.00,0.0205
2268.00,0.0205
2267.00,0.0205
2266.00,0.0204
2265.00,0.0204
2264.00,0.0204
2263.00,0.0204
2262.00,0.0204
2261.00,0.0204
2260.00,0.0203
2259.00,0.0203
2258.00,0.0202
2257.00,0.0201
2256.00,0.0201
2255.00,0.0200
2254.00,0.0199
2253.00,0.0199
2252.00,0.0199
2251.00,0.0199
2250.00,0.0199
2249.00,0.0199
2248.00,0.0199
2247.00,0.0198
2246.00,0.0198
2245.00,0.0198
2244.00,0.0198
2243.00,0.0198
2242.00,0.0197
2241.00,0.0197
2240.00,0.0197
2239.00,0.0196
2238.00,0.0196
2237.00,0.0195
2236.00,0.0195
2235.00,0.0195
2234.00,0.0194
2233.00,0.0194
2232.00,0.0194
2231.00,0.0194
2230.00,0.0193
2229.00,0.0193
2228.00,0.0192
2227.00,0.0191
2226.00,0.0191
2225.00,0.0191
2224.00,0.0191
2223.00,0.0192
2222.00,0.0192
2221.00,0.0192
2220.00,0.0193
2219.00,0.0193
2218.00,0.0192
2217.00,0.0192
2216.00,0.0193
2215.00,0.0192
2214.00,0.0192
2213.00,0.0191
2212.00,0.0191
2211.00,0.0191
2210.00,0.0191
2209.00,0.0191
2208.00,0.0192
2207.00,0.0192
2206.00,0.0192
2205.00,0.0192
2204.00,0.0193
2203.00,0.0194
2202.00,0.0194
2201.00,0.0194
2200.00,0.0194
2199.00,0.0194
2198.00,0.0193
2197.00,0.0193
2196.00,0.0193
2195.00,0.0194
2194.00,0.0194
2193.00,0.0193
2192.00,0.0193
2191.00,0.0193
2190.00,0.0192
2189.00,0.0192
2188.00,0.0193
2187.00,0.0193
2186.00,0.0193
2185.00,0.0192
2184.00,0.0192
2183.00,0.0192
2182.00,0.0192
2181.00,0.0193
2180.00,0.0193
2179.00,0.0194
2178.00,0.0193
2177.00,0.0192
2176.00,0.0191
2175.00,0.0192
2174.00,0.0192
2173.00,0.0192
2172.00,0.0193
2171.00,0.0192
2170.00,0.0191
2169.00,0.0189
2168.00,0.0189
2167.00,0.0188
2166.00,0.0187
2165.00,0.0187
2164.00,0.0188
2163.00,0.0188
2162.00,0.0187
2161.00,0.0184
2160.00,0.0181
2159.00,0.0179
2158.00,0.0177
2157.00,0.0177
2156.00,0.0177
2155.00,0.0177
2154.00,0.0177
2153.00,0.0177
2152.00,0.0177
2151.00,0.0177
2150.00,0.0175
2149.00,0.0174
2148.00,0.0174
2147.00,0.0174
2146.00,0.0174
2145.00,0.0174
2144.00,0.0175
2143.00,0.0176
2142.00,0.0176
2141.00,0.0176
2140.00,0.0176
2139.00,0.0177
2138.00,0.0176
2137.00,0.0175
2136.00,0.0175
2135.00,0.0176
2134.00,0.0177
2133.00,0.0178
2132.00,0.0179
2131.00,0.0179
2130.00,0.0178
2129.00,0.0178
2128.00,0.0178
2127.00,0.0178
2126.00,0.0178
2125.00,0.0179
2124.00,0.0180
2123.00,0.0180
2122.00,0.0180
2121.00,0.0181
2120.00,0.0181
2119.00,0.0180
2118.00,0.0180
2117.00,0.0179
2116.00,0.0179
2115.00,0.0180
2114.00,0.0179
2113.00,0.0178
2112.00,0.0178
2111.00,0.0178
2110.00,0.0177
2109.00,0.0178
2108.00,0.0178
2107.00,0.0179
2106.00,0.0179
2105.00,0.0179
2104.00,0.0179
2103.00,0.0179
2102.00,0.0179
2101.00,0.0179
2100.00,0.0179
2099.00,0.0180
2098.00,0.0179
2097.00,0.0179
2096.00,0.0179
2095.00,0.0179
2094.00,0.0179
2093.00,0.0180
2092.00,0.0181
2091.00,0.0182
2090.00,0.0182
2089.00,0.0181
2088.00,0.0182
2087.00,0.0182
2086.00,0.0182
2085.00,0.0182
2084.00,0.0183
2083.00,0.0183
2082.00,0.0183
2081.00,0.0183
2080.00,0.0184
2079.00,0.0184
2078.00,0.0184
2077.00,0.0184
2076.00,0.0184
2075.00,0.0184
2074.00,0.0183
2073.00,0.0183
2072.00,0.0182
2071.00,0.0182
2070.00,0.0182
2069.00,0.0181
2068.00,0.0181
2067.00,0.0181
2066.00,0.0180
2065.00,0.0179
2064.00,0.0179
2063.00,0.0178
2062.00,0.0177
2061.00,0.0176
2060.00,0.0176
2059.00,0.0175
2058.00,0.0174
2057.00,0.0173
2056.00,0.0173
2055.00,0.0173
2054.00,0.0173
2053.00,0.0174
2052.00,0.0175
2051.00,0.0175
2050.00,0.0174
2049.00,0.0173
2048.00,0.0173
2047.00,0.0172
2046.00,0.0170
2045.00,0.0170
2044.00,0.0170
2043.00,0.0170
2042.00,0.0169
2041.00,0.0169
2040.00,0.0170
2039.00,0.0171
2038.00,0.0170
2037.00,0.0170
2036.00,0.0170
2035.00,0.0170
2034.00,0.0169
2033.00,0.0169
2032.00,0.0170
2031.00,0.0170
2030.00,0.0169
2029.00,0.0169
2028.00,0.0171
2027.00,0.0171
2026.00,0.0171
2025.00,0.0170
2024.00,0.0170
2023.00,0.0169
2022.00,0.0168
2021.00,0.0168
2020.00,0.0169
2019.00,0.0170
2018.00,0.0170
2017.00,0.0168
2016.00,0.0167
2015.00,0.0166
2014.00,0.0164
2013.00,0.0164
2012.00,0.0165
2011.00,0.0166
2010.00,0.0166
2009.00,0.0166
2008.00,0.0166
2007.00,0.0167
2006.00,0.0168
2005.00,0.0169
2004.00,0.0170
2003.00,0.0170
2002.00,0.0170
2001.00,0.0169
2000.00,0.0170
1999.00,0.0171
1998.00,0.0172
1997.00,0.0172
1996.00,0.0173
1995.00,0.0173
1994.00,0.0173
1993.00,0.0173
1992.00,0.0175
1991.00,0.0177
1990.00,0.0178
1989.00,0.0178
1988.00,0.0178
1987.00,0.0178
1986.00,0.0177
1985.00,0.0177
1984.00,0.0178
1983.00,0.0179
1982.00,0.0179
1981.00,0.0179
1980.00,0.0179
1979.00,0.0179
1978.00,0.0177
1977.00,0.0176
1976.00,0.0176
1975.00,0.0176
1974.00,0.0175
1973.00,0.0175
1972.00,0.0176
1971.00,0.0177
1970.00,0.0176
1969.00,0.0176
1968.00,0.0177
1967.00,0.0178
1966.00,0.0178
1965.00,0.0178
1964.00,0.0179
1963.00,0.0180
1962.00,0.0179
1961.00,0.0179
1960.00,0.0180
1959.00,0.0181
1958.00,0.0181
1957.00,0.0180
1956.00,0.0180
1955.00,0.0179
1954.00,0.0178
1953.00,0.0178
1952.00,0.0179
1951.00,0.0179
1950.00,0.0178
1949.00,0.0178
1948.00,0.0178
1947.00,0.0179
1946.00,0.0180
1945.00,0.0180
1944.00,0.0182
1943.00,0.0182
1942.00,0.0182
1941.00,0.0184
1940.00,0.0186
1939.00,0.0189
1938.00,0.0192
1937.00,0.0194
1936.00,0.0195
1935.00,0.0196
1934.00,0.0195
1933.00,0.0193
1932.00,0.0192
1931.00,0.0191
1930.00,0.0190
1929.00,0.0189
1928.00,0.0189
1927.00,0.0189
1926.00,0.0188
1925.00,0.0188
1924.00,0.0188
1923.00,0.0188
1922.00,0.0188
1921.00,0.0188
1920.00,0.0189
1919.00,0.0190
1918.00,0.0190
1917.00,0.0191
1916.00,0.0193
1915.00,0.0196
1914.00,0.0199
1913.00,0.0201
1912.00,0.0204
1911.00,0.0206
1910.00,0.0206
1909.00,0.0205
1908.00,0.0203
1907.00,0.0201
1906.00,0.0198
1905.00,0.0195
1904.00,0.0194
1903.00,0.0192
1902.00,0.0190
1901.00,0.0189
1900.00,0.0188
1899.00,0.0188
1898.00,0.0188
1897.00,0.0187
1896.00,0.0188
1895.00,0.0188
1894.00,0.0187
1893.00,0.0187
1892.00,0.0187
1891.00,0.0187
1890.00,0.0187
1889.00,0.0187
1888.00,0.0187
1887.00,0.0187
1886.00,0.0187
1885.00,0.0186
1884.00,0.0185
1883.00,0.0184
1882.00,0.0183
1881.00,0.0182
1880.00,0.0182
1879.00,0.0182
1878.00,0.0181
1877.00,0.0181
1876.00,0.0182
1875.00,0.0182
1874.00,0.0182
1873.00,0.0183
1872.00,0.0183
1871.00,0.0183
1870.00,0.0181
1869.00,0.0180
1868.00,0.0179
1867.00,0.0178
1866.00,0.0177
1865.00,0.0177
1864.00,0.0177
1863.00,0.0177
1862.00,0.0177
1861.00,0.0176
1860.00,0.0177
1859.00,0.0177
1858.00,0.0176
1857.00,0.0176
1856.00,0.0177
1855.00,0.0177
1854.00,0.0177
1853.00,0.0176
1852.00,0.0177
1851.00,0.0177
1850.00,0.0176
1849.00,0.0176
1848.00,0.0176
1847.00,0.0176
1846.00,0.0175
1845.00,0.0174
1844.00,0.0174
1843.00,0.0173
1842.00,0.0173
1841.00,0.0174
1840.00,0.0176
1839.00,0.0177
1838.00,0.0177
1837.00,0.0177
1836.00,0.0178
1835.00,0.0177
1834.00,0.0177
1833.00,0.0177
1832.00,0.0178
1831.00,0.0179
1830.00,0.0179
1829.00,0.0179
1828.00,0.0180
1827.00,0.0181
1826.00,0.0182
1825.00,0.0182
1824.00,0.0182
1823.00,0.0183
1822.00,0.0184
1821.00,0.0185
1820.00,0.0187
1819.00,0.0188
1818.00,0.0189
1817.00,0.0190
1816.00,0.0192
1815.00,0.0193
1814.00,0.0193
1813.00,0.0194
1812.00,0.0196
1811.00,0.0197
1810.00,0.0199
1809.00,0.0200
1808.00,0.0203
1807.00,0.0205
1806.00,0.0208
1805.00,0.0210
1804.00,0.0211
1803.00,0.0211
1802.00,0.0210
1801.00,0.0207
1800.00,0.0205
1799.00,0.0202
1798.00,0.0200
1797.00,0.0199
1796.00,0.0197
1795.00,0.0196
1794.00,0.0194
1793.00,0.0192
1792.00,0.0190
1791.00,0.0189
1790.00,0.0187
1789.00,0.0188
1788.00,0.0189
1787.00,0.0190
1786.00,0.0189
1785.00,0.0188
1784.00,0.0188
1783.00,0.0188
1782.00,0.0188
1781.00,0.0189
1780.00,0.0190
1779.00,0.0190
1778.00,0.0190
1777.00,0.0190
1776.00,0.0191
1775.00,0.0192
1774.00,0.0192
1773.00,0.0192
1772.00,0.0192
1771.00,0.0192
1770.00,0.0192
1769.00,0.0192
1768.00,0.0192
1767.00,0.0192
1766.00,0.0192
1765.00,0.0193
1764.00,0.0194
1763.00,0.0194
1762.00,0.0193
1761.00,0.0192
1760.00,0.0192
1759.00,0.0193
1758.00,0.0194
1757.00,0.0195
1756.00,0.0195
1755.00,0.0196
1754.00,0.0198
1753.00,0.0200
1752.00,0.0202
1751.00,0.0204
1750.00,0.0206
1749.00,0.0209
1748.00,0.0213
1747.00,0.0216
1746.00,0.0219
1745.00,0.0222
1744.00,0.0227
1743.00,0.0232
1742.00,0.0238
1741.00,0.0246
1740.00,0.0258
1739.00,0.0271
1738.00,0.0285
1737.00,0.0300
1736.00,0.0318
1735.00,0.0341
1734.00,0.0367
1733.00,0.0393
1732.00,0.0418
1731.00,0.0445
1730.00,0.0477
1729.00,0.0516
1728.00,0.0567
1727.00,0.0632
1726.00,0.0712
1725.00,0.0808
1724.00,0.0916
1723.00,0.1027
1722.00,0.1128
1721.00,0.1214
1720.00,0.1289
1719.00,0.1357
1718.00,0.1419
1717.00,0.1468
1716.00,0.1503
1715.00,0.1529
1714.00,0.1553
1713.00,0.1576
1712.00,0.1597
1711.00,0.1616
1710.00,0.1631
1709.00,0.1642
1708.00,0.1648
1707.00,0.1652
1706.00,0.1656
1705.00,0.1659
1704.00,0.1662
1703.00,0.1669
1702.00,0.1680
1701.00,0.1698
1700.00,0.1717
1699.00,0.1727
1698.00,0.1726
1697.00,0.1709
1696.00,0.1672
1695.00,0.1619
1694.00,0.1567
1693.00,0.1520
1692.00,0.1477
1691.00,0.1437
1690.00,0.1402
1689.00,0.1375
1688.00,0.1357
1687.00,0.1343
1686.00,0.1332
1685.00,0.1320
1684.00,0.1303
1683.00,0.1284
1682.00,0.1264
1681.00,0.1245
1680.00,0.1224
1679.00,0.1203
1678.00,0.1183
1677.00,0.1161
1676.00,0.1138
1675.00,0.1115
1674.00,0.1094
1673.00,0.1074
1672.00,0.1052
1671.00,0.1029
1670.00,0.1003
1669.00,0.0976
1668.00,0.0950
1667.00,0.0926
1666.00,0.0904
1665.00,0.0881
1664.00,0.0855
1663.00,0.0828
1662.00,0.0804
1661.00,0.0782
1660.00,0.0762
1659.00,0.0745
1658.00,0.0728
1657.00,0.0711
1656.00,0.0694
1655.00,0.0675
1654.00,0.0656
1653.00,0.0638
1652.00,0.0623
1651.00,0.0614
1650.00,0.0610
1649.00,0.0604
1648.00,0.0596
1647.00,0.0587
1646.00,0.0580
1645.00,0.0573
1644.00,0.0567
1643.00,0.0564
1642.00,0.0560
1641.00,0.0557
1640.00,0.0554
1639.00,0.0551
1638.00,0.0549
1637.00,0.0546
1636.00,0.0545
1635.00,0.0544
1634.00,0.0545
1633.00,0.0548
1632.00,0.0551
1631.00,0.0556
1630.00,0.0561
1629.00,0.0568
1628.00,0.0575
1627.00,0.0584
1626.00,0.0592
1625.00,0.0600
1624.00,0.0611
1623.00,0.0623
1622.00,0.0635
1621.00,0.0645
1620.00,0.0653
1619.00,0.0658
1618.00,0.0663
1617.00,0.0666
1616.00,0.0667
1615.00,0.0665
1614.00,0.0660
1613.00,0.0653
1612.00,0.0644
1611.00,0.0635
1610.00,0.0626
1609.00,0.0614
1608.00,0.0602
1607.00,0.0589
1606.00,0.0576
1605.00,0.0564
1604.00,0.0553
1603.00,0.0543
1602.00,0.0535
1601.00,0.0528
1600.00,0.0523
1599.00,0.0520
1598.00,0.0521
1597.00,0.0527
1596.00,0.0541
1595.00,0.0561
1594.00,0.0579
1593.00,0.0589
1592.00,0.0585
1591.00,0.0570
1590.00,0.0548
1589.00,0.0524
1588.00,0.0502
1587.00,0.0484
1586.00,0.0470
1585.00,0.0456
1584.00,0.0444
1583.00,0.0433
1582.00,0.0425
1581.00,0.0420
1580.00,0.0421
1579.00,0.0428
1578.00,0.0443
1577.00,0.0467
1576.00,0.0490
1575.00,0.0501
1574.00,0.0499
1573.00,0.0488
1572.00,0.0474
1571.00,0.0458
1570.00,0.0444
1569.00,0.0433
1568.00,0.0425
1567.00,0.0421
1566.00,0.0418
1565.00,0.0414
1564.00,0.0410
1563.00,0.0406
1562.00,0.0400
1561.00,0.0392
1560.00,0.0383
1559.00,0.0376
1558.00,0.0371
1557.00,0.0367
1556.00,0.0365
1555.00,0.0362
1554.00,0.0358
1553.00,0.0354
1552.00,0.0351
1551.00,0.0348
1550.00,0.0345
1549.00,0.0341
1548.00,0.0338
1547.00,0.0335
1546.00,0.0333
1545.00,0.0330
1544.00,0.0328
1543.00,0.0325
1542.00,0.0324
1541.00,0.0323
1540.00,0.0321
1539.00,0.0320
1538.00,0.0318
1537.00,0.0318
1536.00,0.0318
1535.00,0.0318
1534.00,0.0317
1533.00,0.0316
1532.00,0.0315
1531.00,0.0314
1530.00,0.0314
1529.00,0.0314
1528.00,0.0312
1527.00,0.0311
1526.00,0.0310
1525.00,0.0309
1524.00,0.0310
1523.00,0.0313
1522.00,0.0319
1521.00,0.0325
1520.00,0.0333
1519.00,0.0341
1518.00,0.0352
1517.00,0.0364
1516.00,0.0377
1515.00,0.0393
1514.00,0.0414
1513.00,0.0447
1512.00,0.0492
1511.00,0.0550
1510.00,0.0617
1509.00,0.0686
1508.00,0.0741
1507.00,0.0751
1506.00,0.0704
1505.00,0.0634
1504.00,0.0574
1503.00,0.0526
1502.00,0.0484
1501.00,0.0447
1500.00,0.0413
1499.00,0.0385
1498.00,0.0362
1497.00,0.0345
1496.00,0.0332
1495.00,0.0324
1494.00,0.0321
1493.00,0.0319
1492.00,0.0320
1491.00,0.0323
1490.00,0.0329
1489.00,0.0338
1488.00,0.0347
1487.00,0.0354
1486.00,0.0356
1485.00,0.0353
1484.00,0.0346
1483.00,0.0336
1482.00,0.0326
1481.00,0.0318
1480.00,0.0312
1479.00,0.0308
1478.00,0.0306
1477.00,0.0306
1476.00,0.0308
1475.00,0.0311
1474.00,0.0315
1473.00,0.0322
1472.00,0.0331
1471.00,0.0343
1470.00,0.0358
1469.00,0.0379
1468.00,0.0409
1467.00,0.0453
1466.00,0.0520
1465.00,0.0614
1464.00,0.0714
1463.00,0.0787
1462.00,0.0817
1461.00,0.0805
1460.00,0.0761
1459.00,0.0698
1458.00,0.0630
1457.00,0.0575
1456.00,0.0549
1455.00,0.0552
1454.00,0.0575
1453.00,0.0607
1452.00,0.0637
1451.00,0.0652
1450.00,0.0644
1449.00,0.0613
1448.00,0.0572
1447.00,0.0539
1446.00,0.0523
1445.00,0.0523
1444.00,0.0532
1443.00,0.0541
1442.00,0.0543
1441.00,0.0533
1440.00,0.0514
1439.00,0.0492
1438.00,0.0470
1437.00,0.0455
1436.00,0.0449
1435.00,0.0454
1434.00,0.0467
1433.00,0.0486
1432.00,0.0512
1431.00,0.0549
1430.00,0.0599
1429.00,0.0664
1428.00,0.0743
1427.00,0.0834
1426.00,0.0937
1425.00,0.1050
1424.00,0.1163
1423.00,0.1258
1422.00,0.1326
1421.00,0.1373
1420.00,0.1400
1419.00,0.1402
1418.00,0.1374
1417.00,0.1324
1416.00,0.1258
1415.00,0.1182
1414.00,0.1104
1413.00,0.1031
1412.00,0.0965
1411.00,0.0906
1410.00,0.0859
1409.00,0.0823
1408.00,0.0796
1407.00,0.0776
1406.00,0.0762
1405.00,0.0752
1404.00,0.0744
1403.00,0.0738
1402.00,0.0733
1401.00,0.0730
1400.00,0.0727
1399.00,0.0726
1398.00,0.0727
1397.00,0.0729
1396.00,0.0732
1395.00,0.0734
1394.00,0.0734
1393.00,0.0732
1392.00,0.0727
1391.00,0.0720
1390.00,0.0711
1389.00,0.0702
1388.00,0.0695
1387.00,0.0694
1386.00,0.0703
1385.00,0.0728
1384.00,0.0771
1383.00,0.0832
1382.00,0.0899
1381.00,0.0961
1380.00,0.1002
1379.00,0.1009
1378.00,0.0975
1377.00,0.0906
1376.00,0.0817
1375.00,0.0728
1374.00,0.0657
1373.00,0.0610
1372.00,0.0582
1371.00,0.0569
1370.00,0.0569
1369.00,0.0585
1368.00,0.0617
1367.00,0.0655
1366.00,0.0686
1365.00,0.0694
1364.00,0.0673
1363.00,0.0630
1362.00,0.0582
1361.00,0.0542
1360.00,0.0515
1359.00,0.0497
1358.00,0.0486
1357.00,0.0478
1356.00,0.0472
1355.00,0.0467
1354.00,0.0465
1353.00,0.0463
1352.00,0.0460
1351.00,0.0458
1350.00,0.0456
1349.00,0.0455
1348.00,0.0455
1347.00,0.0458
1346.00,0.0466
1345.00,0.0483
1344.00,0.0509
1343.00,0.0545
1342.00,0.0587
1341.00,0.0631
1340.00,0.0668
1339.00,0.0693
1338.00,0.0710
1337.00,0.0723
1336.00,0.0736
1335.00,0.0750
1334.00,0.0764
1333.00,0.0781
1332.00,0.0800
1331.00,0.0820
1330.00,0.0834
1329.00,0.0833
1328.00,0.0819
1327.00,0.0800
1326.00,0.0795
1325.00,0.0816
1324.00,0.0864
1323.00,0.0927
1322.00,0.0982
1321.00,0.1008
1320.00,0.0995
1319.00,0.0946
1318.00,0.0876
1317.00,0.0802
1316.00,0.0734
1315.00,0.0676
1314.00,0.0630
1313.00,0.0594
1312.00,0.0569
1311.00,0.0551
1310.00,0.0541
1309.00,0.0538
1308.00,0.0540
1307.00,0.0545
1306.00,0.0550
1305.00,0.0550
1304.00,0.0544
1303.00,0.0532
1302.00,0.0518
1301.00,0.0504
1300.00,0.0491
1299.00,0.0481
1298.00,0.0474
1297.00,0.0468
1296.00,0.0463
1295.00,0.0459
1294.00,0.0454
1293.00,0.0450
1292.00,0.0446
1291.00,0.0443
1290.00,0.0441
1289.00,0.0440
1288.00,0.0441
1287.00,0.0444
1286.00,0.0450
1285.00,0.0457
1284.00,0.0463
1283.00,0.0467
1282.00,0.0468
1281.00,0.0468
1280.00,0.0470
1279.00,0.0478
1278.00,0.0494
1277.00,0.0519
1276.00,0.0552
1275.00,0.0592
1274.00,0.0637
1273.00,0.0688
1272.00,0.0745
1271.00,0.0807
1270.00,0.0864
1269.00,0.0905
1268.00,0.0917
1267.00,0.0895
1266.00,0.0847
1265.00,0.0785
1264.00,0.0720
1263.00,0.0662
1262.00,0.0614
1261.00,0.0576
1260.00,0.0547
1259.00,0.0526
1258.00,0.0510
1257.00,0.0500
1256.00,0.0491
1255.00,0.0483
1254.00,0.0475
1253.00,0.0466
1252.00,0.0457
1251.00,0.0449
1250.00,0.0444
1249.00,0.0444
1248.00,0.0448
1247.00,0.0458
1246.00,0.0471
1245.00,0.0487
1244.00,0.0502
1243.00,0.0518
1242.00,0.0537
1241.00,0.0562
1240.00,0.0599
1239.00,0.0652
1238.00,0.0727
1237.00,0.0825
1236.00,0.0947
1235.00,0.1083
1234.00,0.1224
1233.00,0.1351
1232.00,0.1448
1231.00,0.1505
1230.00,0.1520
1229.00,0.1499
1228.00,0.1454
1227.00,0.1394
1226.00,0.1327
1225.00,0.1257
1224.00,0.1185
1223.00,0.1112
1222.00,0.1041
1221.00,0.0976
1220.00,0.0920
1219.00,0.0874
1218.00,0.0836
1217.00,0.0802
1216.00,0.0767
1215.00,0.0729
1214.00,0.0691
1213.00,0.0655
1212.00,0.0625
1211.00,0.0603
1210.00,0.0590
1209.00,0.0588
1208.00,0.0593
1207.00,0.0601
1206.00,0.0613
1205.00,0.0625
1204.00,0.0636
1203.00,0.0638
1202.00,0.0629
1201.00,0.0606
1200.00,0.0575
1199.00,0.0543
1198.00,0.0515
1197.00,0.0493
1196.00,0.0477
1195.00,0.0466
1194.00,0.0459
1193.00,0.0459
1192.00,0.0465
1191.00,0.0482
1190.00,0.0514
1189.00,0.0570
1188.00,0.0657
1187.00,0.0779
1186.00,0.0922
1185.00,0.1051
1184.00,0.1127
1183.00,0.1127
1182.00,0.1061
1181.00,0.0961
1180.00,0.0858
1179.00,0.0768
1178.00,0.0696
1177.00,0.0641
1176.00,0.0602
1175.00,0.0575
1174.00,0.0561
1173.00,0.0558
1172.00,0.0568
1171.00,0.0586
1170.00,0.0609
1169.00,0.0627
1168.00,0.0632
1167.00,0.0620
1166.00,0.0594
1165.00,0.0561
1164.00,0.0528
1163.00,0.0499
1162.00,0.0475
1161.00,0.0458
1160.00,0.0446
1159.00,0.0439
1158.00,0.0437
1157.00,0.0438
1156.00,0.0440
1155.00,0.0441
1154.00,0.0440
1153.00,0.0435
1152.00,0.0427
1151.00,0.0415
1150.00,0.0401
1149.00,0.0388
1148.00,0.0375
1147.00,0.0362
1146.00,0.0352
1145.00,0.0343
1144.00,0.0335
1143.00,0.0329
1142.00,0.0323
1141.00,0.0319
1140.00,0.0315
1139.00,0.0311
1138.00,0.0309
1137.00,0.0307
1136.00,0.0307
1135.00,0.0307
1134.00,0.0309
1133.00,0.0314
1132.00,0.0322
1131.00,0.0334
1130.00,0.0354
1129.00,0.0383
1128.00,0.0425
1127.00,0.0484
1126.00,0.0557
1125.00,0.0633
1124.00,0.0688
1123.00,0.0705
1122.00,0.0678
1121.00,0.0623
1120.00,0.0563
1119.00,0.0514
1118.00,0.0479
1117.00,0.0456
1116.00,0.0438
1115.00,0.0420
1114.00,0.0402
1113.00,0.0386
1112.00,0.0371
1111.00,0.0361
1110.00,0.0354
1109.00,0.0349
1108.00,0.0345
1107.00,0.0343
1106.00,0.0342
1105.00,0.0342
1104.00,0.0343
1103.00,0.0345
1102.00,0.0349
1101.00,0.0354
1100.00,0.0362
1099.00,0.0373
1098.00,0.0389
1097.00,0.0412
1096.00,0.0443
1095.00,0.0482
1094.00,0.0524
1093.00,0.0558
1092.00,0.0575
1091.00,0.0569
1090.00,0.0545
1089.00,0.0511
1088.00,0.0477
1087.00,0.0448
1086.00,0.0425
1085.00,0.0408
1084.00,0.0398
1083.00,0.0394
1082.00,0.0398
1081.00,0.0411
1080.00,0.0436
1079.00,0.0478
1078.00,0.0538
1077.00,0.0613
1076.00,0.0694
1075.00,0.0764
1074.00,0.0807
1073.00,0.0818
1072.00,0.0803
1071.00,0.0781
1070.00,0.0764
1069.00,0.0758
1068.00,0.0755
1067.00,0.0741
1066.00,0.0708
1065.00,0.0657
1064.00,0.0599
1063.00,0.0546
1062.00,0.0503
1061.00,0.0470
1060.00,0.0445
1059.00,0.0425
1058.00,0.0408
1057.00,0.0393
1056.00,0.0379
1055.00,0.0366
1054.00,0.0354
1053.00,0.0343
1052.00,0.0333
1051.00,0.0324
1050.00,0.0316
1049.00,0.0309
1048.00,0.0304
1047.00,0.0299
1046.00,0.0296
1045.00,0.0294
1044.00,0.0293
1043.00,0.0293
1042.00,0.0297
1041.00,0.0304
1040.00,0.0314
1039.00,0.0325
1038.00,0.0332
1037.00,0.0332
1036.00,0.0329
1035.00,0.0331
1034.00,0.0348
1033.00,0.0386
1032.00,0.0446
1031.00,0.0515
1030.00,0.0574
1029.00,0.0605
1028.00,0.0602
1027.00,0.0574
1026.00,0.0537
1025.00,0.0504
1024.00,0.0485
1023.00,0.0478
1022.00,0.0481
1021.00,0.0484
1020.00,0.0480
1019.00,0.0468
1018.00,0.0454
1017.00,0.0443
1016.00,0.0440
1015.00,0.0446
1014.00,0.0463
1013.00,0.0492
1012.00,0.0532
1011.00,0.0580
1010.00,0.0626
1009.00,0.0659
1008.00,0.0670
1007.00,0.0654
1006.00,0.0616
1005.00,0.0565
1004.00,0.0513
1003.00,0.0467
1002.00,0.0430
1001.00,0.0402
1000.00,0.0383
999.00,0.0371
998.00,0.0364
997.00,0.0360
996.00,0.0358
995.00,0.0354
994.00,0.0349
993.00,0.0344
992.00,0.0340
991.00,0.0337
990.00,0.0335
989.00,0.0335
988.00,0.0335
987.00,0.0336
986.00,0.0337
985.00,0.0339
984.00,0.0340
983.00,0.0343
982.00,0.0345
981.00,0.0348
980.00,0.0352
979.00,0.0357
978.00,0.0364
977.00,0.0372
976.00,0.0384
975.00,0.0400
974.00,0.0426
973.00,0.0464
972.00,0.0515
971.00,0.0568
970.00,0.0601
969.00,0.0599
968.00,0.0558
967.00,0.0499
966.00,0.0443
965.00,0.0404
964.00,0.0383
963.00,0.0377
962.00,0.0380
961.00,0.0387
960.00,0.0398
959.00,0.0412
958.00,0.0428
957.00,0.0447
956.00,0.0470
955.00,0.0498
954.00,0.0533
953.00,0.0578
952.00,0.0630
951.00,0.0686
950.00,0.0738
949.00,0.0778
948.00,0.0806
947.00,0.0826
946.00,0.0842
945.00,0.0853
944.00,0.0857
943.00,0.0859
942.00,0.0866
941.00,0.0888
940.00,0.0926
939.00,0.0972
938.00,0.1019
937.00,0.1055
936.00,0.1075
935.00,0.1075
934.00,0.1061
933.00,0.1036
932.00,0.1007
931.00,0.0975
930.00,0.0941
929.00,0.0908
928.00,0.0875
927.00,0.0844
926.00,0.0815
925.00,0.0789
924.00,0.0768
923.00,0.0751
922.00,0.0739
921.00,0.0731
920.00,0.0723
919.00,0.0710
918.00,0.0690
917.00,0.0664
916.00,0.0635
915.00,0.0607
914.00,0.0581
913.00,0.0559
912.00,0.0539
911.00,0.0522
910.00,0.0506
909.00,0.0492
908.00,0.0480
907.00,0.0468
906.00,0.0458
905.00,0.0449
904.00,0.0442
903.00,0.0434
902.00,0.0427
901.00,0.0421
900.00,0.0414
899.00,0.0408
898.00,0.0403
897.00,0.0398
896.00,0.0393
895.00,0.0389
894.00,0.0386
893.00,0.0383
892.00,0.0380
891.00,0.0378
890.00,0.0377
889.00,0.0378
888.00,0.0379
887.00,0.0383
886.00,0.0389
885.00,0.0400
884.00,0.0418
883.00,0.0443
882.00,0.0470
881.00,0.0489
880.00,0.0492
879.00,0.0477
878.00,0.0453
877.00,0.0429
876.00,0.0414
875.00,0.0410
874.00,0.0418
873.00,0.0441
872.00,0.0483
871.00,0.0548
870.00,0.0639
869.00,0.0746
868.00,0.0850
867.00,0.0928
866.00,0.0960
865.00,0.0942
864.00,0.0882
863.00,0.0797
862.00,0.0706
861.00,0.0624
860.00,0.0557
859.00,0.0506
858.00,0.0470
857.00,0.0444
856.00,0.0429
855.00,0.0424
854.00,0.0432
853.00,0.0455
852.00,0.0494
851.00,0.0535
850.00,0.0562
849.00,0.0559
848.00,0.0526
847.00,0.0477
846.00,0.0428
845.00,0.0391
844.00,0.0365
843.00,0.0348
842.00,0.0338
841.00,0.0333
840.00,0.0333
839.00,0.0339
838.00,0.0351
837.00,0.0367
836.00,0.0383
835.00,0.0397
834.00,0.0411
833.00,0.0425
832.00,0.0441
831.00,0.0460
830.00,0.0478
829.00,0.0487
828.00,0.0481
827.00,0.0462
826.00,0.0435
825.00,0.0412
824.00,0.0399
823.00,0.0398
822.00,0.0407
821.00,0.0418
820.00,0.0421
819.00,0.0411
818.00,0.0393
817.00,0.0374
816.00,0.0361
815.00,0.0355
814.00,0.0357
813.00,0.0363
812.00,0.0371
811.00,0.0377
810.00,0.0378
809.00,0.0376
808.00,0.0371
807.00,0.0367
806.00,0.0363
805.00,0.0361
804.00,0.0362
803.00,0.0363
802.00,0.0366
801.00,0.0370
800.00,0.0375
799.00,0.0381
798.00,0.0388
797.00,0.0396
796.00,0.0405
795.00,0.0414
794.00,0.0423
793.00,0.0432
792.00,0.0441
791.00,0.0450
790.00,0.0460
789.00,0.0473
788.00,0.0491
787.00,0.0518
786.00,0.0563
785.00,0.0641
784.00,0.0770
783.00,0.0971
782.00,0.1239
781.00,0.1525
780.00,0.1732
779.00,0.1775
778.00,0.1646
777.00,0.1419
776.00,0.1184
775.00,0.0990
774.00,0.0847
773.00,0.0744
772.00,0.0669
771.00,0.0613
770.00,0.0572
769.00,0.0539
768.00,0.0514
767.00,0.0494
766.00,0.0476
765.00,0.0461
764.00,0.0446
763.00,0.0432
762.00,0.0418
761.00,0.0405
760.00,0.0393
759.00,0.0383
758.00,0.0374
757.00,0.0367
756.00,0.0362
755.00,0.0359
754.00,0.0358
753.00,0.0361
752.00,0.0372
751.00,0.0393
750.00,0.0425
749.00,0.0462
748.00,0.0494
747.00,0.0506
746.00,0.0495
745.00,0.0467
744.00,0.0434
743.00,0.0405
742.00,0.0383
741.00,0.0367
740.00,0.0356
739.00,0.0348
738.00,0.0342
737.00,0.0338
736.00,0.0335
735.00,0.0333
734.00,0.0333
733.00,0.0332
732.00,0.0333
731.00,0.0334
730.00,0.0335
729.00,0.0336
728.00,0.0338
727.00,0.0339
726.00,0.0341
725.00,0.0342
724.00,0.0344
723.00,0.0345
722.00,0.0345
721.00,0.0346
720.00,0.0347
719.00,0.0347
718.00,0.0347
717.00,0.0347
716.00,0.0347
715.00,0.0347
714.00,0.0349
713.00,0.0352
712.00,0.0359
711.00,0.0368
710.00,0.0383
709.00,0.0403
708.00,0.0432
707.00,0.0469
706.00,0.0512
705.00,0.0558
704.00,0.0602
703.00,0.0636
702.00,0.0655
701.00,0.0658
700.00,0.0647
699.00,0.0626
698.00,0.0602
697.00,0.0580
696.00,0.0569
695.00,0.0570
694.00,0.0581
693.00,0.0597
692.00,0.0605
691.00,0.0599
690.00,0.0576
689.00,0.0543
688.00,0.0511
687.00,0.0485
686.00,0.0464
685.00,0.0450
684.00,0.0442
683.00,0.0437
682.00,0.0435
681.00,0.0437
680.00,0.0444
679.00,0.0458
678.00,0.0477
677.00,0.0506
676.00,0.0549
675.00,0.0609
674.00,0.0688
673.00,0.0790
672.00,0.0906
671.00,0.1022
670.00,0.1124
669.00,0.1200
668.00,0.1223
667.00,0.1184
666.00,0.1108
665.00,0.1016
664.00,0.0917
663.00,0.0820
662.00,0.0735
661.00,0.0664
660.00,0.0606
659.00,0.0560
658.00,0.0524
657.00,0.0496
656.00,0.0472
655.00,0.0454
654.00,0.0441
653.00,0.0432
652.00,0.0425
651.00,0.0421
650.00,0.0422
649.00,0.0428
648.00,0.0444
647.00,0.0471
646.00,0.0500
645.00,0.0516
644.00,0.0511
643.00,0.0492
642.00,0.0477
641.00,0.0491
640.00,0.0551
639.00,0.0655
638.00,0.0765
637.00,0.0825
636.00,0.0808
635.00,0.0737
634.00,0.0661
633.00,0.0611
632.00,0.0590
631.00,0.0586
630.00,0.0594
629.00,0.0613
628.00,0.0643
627.00,0.0678
626.00,0.0712
625.00,0.0738
624.00,0.0753
623.00,0.0762
622.00,0.0772
621.00,0.0781
620.00,0.0782
619.00,0.0771
618.00,0.0750
617.00,0.0729
616.00,0.0715
615.00,0.0709
614.00,0.0712
613.00,0.0722
612.00,0.0735
611.00,0.0750
610.00,0.0766
609.00,0.0785
608.00,0.0805
607.00,0.0824
606.00,0.0841
605.00,0.0859
604.00,0.0877
603.00,0.0895
602.00,0.0914
601.00,0.0934
600.00,0.0955
599.00,0.0975
598.00,0.0996
597.00,0.1019
596.00,0.1046
595.00,0.1079
594.00,0.1120
593.00,0.1174
592.00,0.1238
591.00,0.1303
590.00,0.1355
589.00,0.1381
588.00,0.1371
587.00,0.1327
586.00,0.1258
585.00,0.1180
584.00,0.1104
583.00,0.1036
582.00,0.0980
581.00,0.0934
580.00,0.0898
579.00,0.0869
578.00,0.0845
577.00,0.0825
576.00,0.0807
575.00,0.0790
574.00,0.0776
573.00,0.0764
572.00,0.0754
571.00,0.0744
570.00,0.0733
569.00,0.0723
568.00,0.0714
567.00,0.0705
566.00,0.0696
565.00,0.0687
564.00,0.0677
563.00,0.0665
562.00,0.0654
561.00,0.0643
560.00,0.0632
559.00,0.0622
558.00,0.0612
557.00,0.0604
556.00,0.0596
555.00,0.0588
554.00,0.0579
553.00,0.0570
552.00,0.0562
551.00,0.0554
550.00,0.0547
549.00,0.0542
548.00,0.0536
547.00,0.0530
546.00,0.0523
545.00,0.0517
544.00,0.0512
543.00,0.0508
542.00,0.0505
541.00,0.0503
540.00,0.0502
539.00,0.0502
538.00,0.0503
537.00,0.0505
536.00,0.0507
535.00,0.0512
534.00,0.0519
533.00,0.0529
532.00,0.0545
531.00,0.0567
530.00,0.0598
529.00,0.0641
528.00,0.0698
527.00,0.0777
526.00,0.0878
525.00,0.0996
524.00,0.1114
523.00,0.1212
522.00,0.1269
521.00,0.1275
520.00,0.1231
519.00,0.1149
518.00,0.1052
517.00,0.0962
516.00,0.0890
515.00,0.0837
514.00,0.0800
513.00,0.0774
512.00,0.0754
511.00,0.0735
510.00,0.0715
509.00,0.0694
508.00,0.0672
507.00,0.0648
506.00,0.0625
505.00,0.0604
504.00,0.0584
503.00,0.0563
502.00,0.0543
501.00,0.0524
500.00,0.0508
499.00,0.0493
498.00,0.0480
497.00,0.0470
496.00,0.0462
495.00,0.0456
494.00,0.0451
493.00,0.0448
492.00,0.0445
491.00,0.0443
490.00,0.0443
489.00,0.0444
488.00,0.0448
487.00,0.0453
486.00,0.0461
485.00,0.0472
484.00,0.0483
483.00,0.0493
482.00,0.0501
481.00,0.0507
480.00,0.0508
479.00,0.0503
478.00,0.0494
477.00,0.0481
476.00,0.0465
475.00,0.0447
474.00,0.0429
473.00,0.0411
472.00,0.0395
471.00,0.0381
470.00,0.0370
469.00,0.0362
468.00,0.0355
467.00,0.0349
466.00,0.0343
465.00,0.0337
464.00,0.0332
463.00,0.0328
462.00,0.0325
461.00,0.0323
460.00,0.0320
459.00,0.0316
458.00,0.0314
457.00,0.0314
456.00,0.0316
455.00,0.0318
454.00,0.0319
453.00,0.0317
452.00,0.0315
451.00,0.0312
450.00,0.0312
449.00,0.0315
448.00,0.0317
447.00,0.0317
446.00,0.0316
445.00,0.0315
444.00,0.0314
443.00,0.0316
442.00,0.0320
441.00,0.0325
440.00,0.0330
439.00,0.0335
438.00,0.0342
437.00,0.0350
436.00,0.0358
435.00,0.0369
434.00,0.0383
433.00,0.0402
432.00,0.0427
431.00,0.0463
430.00,0.0509
429.00,0.0563
428.00,0.0618
427.00,0.0667
426.00,0.0706
425.00,0.0741
424.00,0.0776
423.00,0.0812
422.00,0.0842
421.00,0.0861
420.00,0.0858
419.00,0.0827
418.00,0.0780
417.00,0.0745
416.00,0.0730
415.00,0.0731
414.00,0.0745
413.00,0.0760
412.00,0.0760
411.00,0.0733
410.00,0.0685
409.00,0.0633
408.00,0.0589
407.00,0.0555
406.00,0.0530
405.00,0.0512
404.00,0.0497
403.00,0.0488
402.00,0.0493
401.00,0.0520
400.00,0.0571
