Created as New Dataset,Sample 750 By YargerLab Date Friday, March 20 2026
cm-1,A
4000.00,0.0058
3999.00,0.0058
3998.00,0.0057
3997.00,0.0057
3996.00,0.0057
3995.00,0.0057
3994.00,0.0057
3993.00,0.0057
3992.00,0.0058
3991.00,0.0057
3990.00,0.0057
3989.00,0.0057
3988.00,0.0057
3987.00,0.0057
3986.00,0.0057
3985.00,0.0057
3984.00,0.0056
3983.00,0.0056
3982.00,0.0056
3981.00,0.0056
3980.00,0.0057
3979.00,0.0057
3978.00,0.0057
3977.00,0.0057
3976.00,0.0057
3975.00,0.0057
3974.00,0.0057
3973.00,0.0056
3972.00,0.0056
3971.00,0.0056
3970.00,0.0056
3969.00,0.0056
3968.00,0.0056
3967.00,0.0056
3966.00,0.0056
3965.00,0.0056
3964.00,0.0056
3963.00,0.0056
3962.00,0.0055
3961.00,0.0055
3960.00,0.0055
3959.00,0.0055
3958.00,0.0055
3957.00,0.0055
3956.00,0.0055
3955.00,0.0055
3954.00,0.0055
3953.00,0.0055
3952.00,0.0055
3951.00,0.0055
3950.00,0.0055
3949.00,0.0055
3948.00,0.0055
3947.00,0.0055
3946.00,0.0055
3945.00,0.0055
3944.00,0.0056
3943.00,0.0056
3942.00,0.0056
3941.00,0.0056
3940.00,0.0056
3939.00,0.0056
3938.00,0.0055
3937.00,0.0055
3936.00,0.0055
3935.00,0.0055
3934.00,0.0054
3933.00,0.0055
3932.00,0.0055
3931.00,0.0055
3930.00,0.0055
3929.00,0.0055
3928.00,0.0055
3927.00,0.0055
3926.00,0.0055
3925.00,0.0055
3924.00,0.0055
3923.00,0.0055
3922.00,0.0055
3921.00,0.0055
3920.00,0.0055
3919.00,0.0055
3918.00,0.0055
3917.00,0.0055
3916.00,0.0055
3915.00,0.0055
3914.00,0.0055
3913.00,0.0055
3912.00,0.0055
3911.00,0.0054
3910.00,0.0054
3909.00,0.0054
3908.00,0.0055
3907.00,0.0055
3906.00,0.0055
3905.00,0.0055
3904.00,0.0055
3903.00,0.0055
3902.00,0.0055
3901.00,0.0056
3900.00,0.0056
3899.00,0.0056
3898.00,0.0055
3897.00,0.0055
3896.00,0.0055
3895.00,0.0054
3894.00,0.0054
3893.00,0.0055
3892.00,0.0055
3891.00,0.0055
3890.00,0.0055
3889.00,0.0055
3888.00,0.0054
3887.00,0.0054
3886.00,0.0054
3885.00,0.0054
3884.00,0.0055
3883.00,0.0055
3882.00,0.0055
3881.00,0.0055
3880.00,0.0055
3879.00,0.0055
3878.00,0.0055
3877.00,0.0055
3876.00,0.0054
3875.00,0.0054
3874.00,0.0054
3873.00,0.0054
3872.00,0.0055
3871.00,0.0055
3870.00,0.0055
3869.00,0.0055
3868.00,0.0055
3867.00,0.0056
3866.00,0.0056
3865.00,0.0055
3864.00,0.0055
3863.00,0.0054
3862.00,0.0054
3861.00,0.0054
3860.00,0.0054
3859.00,0.0054
3858.00,0.0054
3857.00,0.0055
3856.00,0.0056
3855.00,0.0057
3854.00,0.0057
3853.00,0.0057
3852.00,0.0057
3851.00,0.0057
3850.00,0.0056
3849.00,0.0055
3848.00,0.0055
3847.00,0.0054
3846.00,0.0053
3845.00,0.0053
3844.00,0.0053
3843.00,0.0053
3842.00,0.0053
3841.00,0.0054
3840.00,0.0054
3839.00,0.0054
3838.00,0.0054
3837.00,0.0054
3836.00,0.0055
3835.00,0.0055
3834.00,0.0055
3833.00,0.0054
3832.00,0.0054
3831.00,0.0054
3830.00,0.0053
3829.00,0.0053
3828.00,0.0053
3827.00,0.0053
3826.00,0.0053
3825.00,0.0053
3824.00,0.0053
3823.00,0.0053
3822.00,0.0053
3821.00,0.0053
3820.00,0.0054
3819.00,0.0054
3818.00,0.0054
3817.00,0.0054
3816.00,0.0054
3815.00,0.0054
3814.00,0.0054
3813.00,0.0053
3812.00,0.0053
3811.00,0.0053
3810.00,0.0052
3809.00,0.0052
3808.00,0.0052
3807.00,0.0052
3806.00,0.0052
3805.00,0.0052
3804.00,0.0053
3803.00,0.0053
3802.00,0.0053
3801.00,0.0053
3800.00,0.0052
3799.00,0.0053
3798.00,0.0053
3797.00,0.0052
3796.00,0.0052
3795.00,0.0052
3794.00,0.0052
3793.00,0.0052
3792.00,0.0052
3791.00,0.0052
3790.00,0.0052
3789.00,0.0052
3788.00,0.0052
3787.00,0.0051
3786.00,0.0051
3785.00,0.0051
3784.00,0.0052
3783.00,0.0052
3782.00,0.0052
3781.00,0.0052
3780.00,0.0052
3779.00,0.0052
3778.00,0.0051
3777.00,0.0051
3776.00,0.0051
3775.00,0.0051
3774.00,0.0051
3773.00,0.0051
3772.00,0.0051
3771.00,0.0051
3770.00,0.0051
3769.00,0.0051
3768.00,0.0051
3767.00,0.0051
3766.00,0.0051
3765.00,0.0051
3764.00,0.0051
3763.00,0.0051
3762.00,0.0051
3761.00,0.0051
3760.00,0.0051
3759.00,0.0051
3758.00,0.0051
3757.00,0.0051
3756.00,0.0051
3755.00,0.0051
3754.00,0.0052
3753.00,0.0052
3752.00,0.0052
3751.00,0.0052
3750.00,0.0053
3749.00,0.0053
3748.00,0.0053
3747.00,0.0053
3746.00,0.0053
3745.00,0.0053
3744.00,0.0053
3743.00,0.0052
3742.00,0.0052
3741.00,0.0051
3740.00,0.0050
3739.00,0.0049
3738.00,0.0049
3737.00,0.0049
3736.00,0.0049
3735.00,0.0049
3734.00,0.0050
3733.00,0.0050
3732.00,0.0050
3731.00,0.0050
3730.00,0.0050
3729.00,0.0050
3728.00,0.0050
3727.00,0.0050
3726.00,0.0049
3725.00,0.0049
3724.00,0.0050
3723.00,0.0050
3722.00,0.0050
3721.00,0.0051
3720.00,0.0051
3719.00,0.0050
3718.00,0.0050
3717.00,0.0049
3716.00,0.0049
3715.00,0.0049
3714.00,0.0049
3713.00,0.0049
3712.00,0.0049
3711.00,0.0049
3710.00,0.0049
3709.00,0.0049
3708.00,0.0050
3707.00,0.0049
3706.00,0.0049
3705.00,0.0049
3704.00,0.0049
3703.00,0.0049
3702.00,0.0049
3701.00,0.0049
3700.00,0.0048
3699.00,0.0048
3698.00,0.0048
3697.00,0.0048
3696.00,0.0048
3695.00,0.0048
3694.00,0.0048
3693.00,0.0048
3692.00,0.0049
3691.00,0.0049
3690.00,0.0049
3689.00,0.0050
3688.00,0.0050
3687.00,0.0050
3686.00,0.0050
3685.00,0.0050
3684.00,0.0049
3683.00,0.0049
3682.00,0.0049
3681.00,0.0049
3680.00,0.0049
3679.00,0.0049
3678.00,0.0049
3677.00,0.0050
3676.00,0.0050
3675.00,0.0050
3674.00,0.0051
3673.00,0.0051
3672.00,0.0052
3671.00,0.0052
3670.00,0.0052
3669.00,0.0051
3668.00,0.0051
3667.00,0.0051
3666.00,0.0050
3665.00,0.0050
3664.00,0.0050
3663.00,0.0049
3662.00,0.0049
3661.00,0.0049
3660.00,0.0049
3659.00,0.0050
3658.00,0.0050
3657.00,0.0050
3656.00,0.0050
3655.00,0.0050
3654.00,0.0050
3653.00,0.0050
3652.00,0.0050
3651.00,0.0050
3650.00,0.0050
3649.00,0.0050
3648.00,0.0051
3647.00,0.0051
3646.00,0.0051
3645.00,0.0051
3644.00,0.0051
3643.00,0.0050
3642.00,0.0049
3641.00,0.0049
3640.00,0.0048
3639.00,0.0048
3638.00,0.0048
3637.00,0.0048
3636.00,0.0048
3635.00,0.0048
3634.00,0.0048
3633.00,0.0048
3632.00,0.0048
3631.00,0.0049
3630.00,0.0049
3629.00,0.0049
3628.00,0.0049
3627.00,0.0049
3626.00,0.0049
3625.00,0.0049
3624.00,0.0048
3623.00,0.0048
3622.00,0.0048
3621.00,0.0048
3620.00,0.0048
3619.00,0.0048
3618.00,0.0048
3617.00,0.0048
3616.00,0.0048
3615.00,0.0048
3614.00,0.0048
3613.00,0.0048
3612.00,0.0048
3611.00,0.0048
3610.00,0.0048
3609.00,0.0048
3608.00,0.0048
3607.00,0.0048
3606.00,0.0047
3605.00,0.0047
3604.00,0.0047
3603.00,0.0047
3602.00,0.0046
3601.00,0.0046
3600.00,0.0046
3599.00,0.0046
3598.00,0.0046
3597.00,0.0046
3596.00,0.0046
3595.00,0.0046
3594.00,0.0046
3593.00,0.0046
3592.00,0.0046
3591.00,0.0046
3590.00,0.0046
3589.00,0.0047
3588.00,0.0047
3587.00,0.0047
3586.00,0.0048
3585.00,0.0048
3584.00,0.0048
3583.00,0.0048
3582.00,0.0047
3581.00,0.0047
3580.00,0.0047
3579.00,0.0047
3578.00,0.0047
3577.00,0.0047
3576.00,0.0047
3575.00,0.0047
3574.00,0.0047
3573.00,0.0047
3572.00,0.0047
3571.00,0.0047
3570.00,0.0048
3569.00,0.0048
3568.00,0.0048
3567.00,0.0049
3566.00,0.0049
3565.00,0.0050
3564.00,0.0049
3563.00,0.0049
3562.00,0.0049
3561.00,0.0048
3560.00,0.0048
3559.00,0.0048
3558.00,0.0048
3557.00,0.0048
3556.00,0.0048
3555.00,0.0048
3554.00,0.0048
3553.00,0.0048
3552.00,0.0048
3551.00,0.0048
3550.00,0.0048
3549.00,0.0048
3548.00,0.0048
3547.00,0.0048
3546.00,0.0048
3545.00,0.0048
3544.00,0.0048
3543.00,0.0048
3542.00,0.0049
3541.00,0.0048
3540.00,0.0048
3539.00,0.0048
3538.00,0.0048
3537.00,0.0048
3536.00,0.0048
3535.00,0.0048
3534.00,0.0049
3533.00,0.0049
3532.00,0.0049
3531.00,0.0049
3530.00,0.0049
3529.00,0.0049
3528.00,0.0049
3527.00,0.0049
3526.00,0.0049
3525.00,0.0049
3524.00,0.0049
3523.00,0.0049
3522.00,0.0049
3521.00,0.0049
3520.00,0.0049
3519.00,0.0049
3518.00,0.0049
3517.00,0.0049
3516.00,0.0049
3515.00,0.0049
3514.00,0.0050
3513.00,0.0050
3512.00,0.0050
3511.00,0.0050
3510.00,0.0050
3509.00,0.0051
3508.00,0.0051
3507.00,0.0051
3506.00,0.0051
3505.00,0.0051
3504.00,0.0051
3503.00,0.0051
3502.00,0.0052
3501.00,0.0052
3500.00,0.0052
3499.00,0.0052
3498.00,0.0052
3497.00,0.0053
3496.00,0.0053
3495.00,0.0053
3494.00,0.0054
3493.00,0.0054
3492.00,0.0055
3491.00,0.0055
3490.00,0.0056
3489.00,0.0056
3488.00,0.0056
3487.00,0.0057
3486.00,0.0057
3485.00,0.0058
3484.00,0.0058
3483.00,0.0059
3482.00,0.0060
3481.00,0.0060
3480.00,0.0061
3479.00,0.0061
3478.00,0.0062
3477.00,0.0062
3476.00,0.0063
3475.00,0.0064
3474.00,0.0064
3473.00,0.0065
3472.00,0.0066
3471.00,0.0066
3470.00,0.0067
3469.00,0.0068
3468.00,0.0069
3467.00,0.0070
3466.00,0.0072
3465.00,0.0073
3464.00,0.0074
3463.00,0.0075
3462.00,0.0077
3461.00,0.0078
3460.00,0.0080
3459.00,0.0081
3458.00,0.0083
3457.00,0.0085
3456.00,0.0087
3455.00,0.0088
3454.00,0.0090
3453.00,0.0093
3452.00,0.0095
3451.00,0.0097
3450.00,0.0100
3449.00,0.0102
3448.00,0.0105
3447.00,0.0107
3446.00,0.0110
3445.00,0.0113
3444.00,0.0115
3443.00,0.0118
3442.00,0.0120
3441.00,0.0123
3440.00,0.0125
3439.00,0.0128
3438.00,0.0131
3437.00,0.0134
3436.00,0.0138
3435.00,0.0142
3434.00,0.0146
3433.00,0.0151
3432.00,0.0156
3431.00,0.0161
3430.00,0.0167
3429.00,0.0174
3428.00,0.0181
3427.00,0.0189
3426.00,0.0198
3425.00,0.0207
3424.00,0.0217
3423.00,0.0229
3422.00,0.0242
3421.00,0.0256
3420.00,0.0273
3419.00,0.0291
3418.00,0.0310
3417.00,0.0332
3416.00,0.0356
3415.00,0.0384
3414.00,0.0414
3413.00,0.0448
3412.00,0.0487
3411.00,0.0529
3410.00,0.0576
3409.00,0.0626
3408.00,0.0679
3407.00,0.0733
3406.00,0.0788
3405.00,0.0840
3404.00,0.0890
3403.00,0.0934
3402.00,0.0972
3401.00,0.1004
3400.00,0.1027
3399.00,0.1042
3398.00,0.1047
3397.00,0.1043
3396.00,0.1030
3395.00,0.1009
3394.00,0.0982
3393.00,0.0951
3392.00,0.0918
3391.00,0.0885
3390.00,0.0852
3389.00,0.0820
3388.00,0.0789
3387.00,0.0760
3386.00,0.0733
3385.00,0.0708
3384.00,0.0685
3383.00,0.0663
3382.00,0.0643
3381.00,0.0624
3380.00,0.0607
3379.00,0.0590
3378.00,0.0573
3377.00,0.0558
3376.00,0.0542
3375.00,0.0527
3374.00,0.0512
3373.00,0.0497
3372.00,0.0481
3371.00,0.0466
3370.00,0.0452
3369.00,0.0439
3368.00,0.0428
3367.00,0.0418
3366.00,0.0408
3365.00,0.0398
3364.00,0.0389
3363.00,0.0380
3362.00,0.0371
3361.00,0.0362
3360.00,0.0354
3359.00,0.0347
3358.00,0.0340
3357.00,0.0333
3356.00,0.0326
3355.00,0.0319
3354.00,0.0312
3353.00,0.0305
3352.00,0.0298
3351.00,0.0292
3350.00,0.0287
3349.00,0.0284
3348.00,0.0280
3347.00,0.0276
3346.00,0.0272
3345.00,0.0268
3344.00,0.0264
3343.00,0.0260
3342.00,0.0257
3341.00,0.0254
3340.00,0.0251
3339.00,0.0249
3338.00,0.0247
3337.00,0.0246
3336.00,0.0246
3335.00,0.0246
3334.00,0.0246
3333.00,0.0246
3332.00,0.0246
3331.00,0.0246
3330.00,0.0246
3329.00,0.0247
3328.00,0.0247
3327.00,0.0249
3326.00,0.0250
3325.00,0.0253
3324.00,0.0256
3323.00,0.0260
3322.00,0.0263
3321.00,0.0265
3320.00,0.0268
3319.00,0.0270
3318.00,0.0272
3317.00,0.0273
3316.00,0.0274
3315.00,0.0273
3314.00,0.0272
3313.00,0.0270
3312.00,0.0268
3311.00,0.0264
3310.00,0.0260
3309.00,0.0255
3308.00,0.0251
3307.00,0.0247
3306.00,0.0243
3305.00,0.0241
3304.00,0.0238
3303.00,0.0236
3302.00,0.0234
3301.00,0.0232
3300.00,0.0229
3299.00,0.0226
3298.00,0.0222
3297.00,0.0220
3296.00,0.0217
3295.00,0.0215
3294.00,0.0213
3293.00,0.0212
3292.00,0.0211
3291.00,0.0210
3290.00,0.0210
3289.00,0.0209
3288.00,0.0209
3287.00,0.0208
3286.00,0.0208
3285.00,0.0207
3284.00,0.0207
3283.00,0.0206
3282.00,0.0205
3281.00,0.0204
3280.00,0.0203
3279.00,0.0203
3278.00,0.0201
3277.00,0.0200
3276.00,0.0200
3275.00,0.0199
3274.00,0.0199
3273.00,0.0198
3272.00,0.0198
3271.00,0.0199
3270.00,0.0200
3269.00,0.0201
3268.00,0.0202
3267.00,0.0204
3266.00,0.0205
3265.00,0.0207
3264.00,0.0208
3263.00,0.0210
3262.00,0.0211
3261.00,0.0213
3260.00,0.0215
3259.00,0.0216
3258.00,0.0218
3257.00,0.0220
3256.00,0.0222
3255.00,0.0224
3254.00,0.0227
3253.00,0.0229
3252.00,0.0232
3251.00,0.0234
3250.00,0.0236
3249.00,0.0238
3248.00,0.0240
3247.00,0.0243
3246.00,0.0246
3245.00,0.0249
3244.00,0.0252
3243.00,0.0255
3242.00,0.0258
3241.00,0.0260
3240.00,0.0262
3239.00,0.0264
3238.00,0.0265
3237.00,0.0266
3236.00,0.0267
3235.00,0.0267
3234.00,0.0269
3233.00,0.0270
3232.00,0.0273
3231.00,0.0276
3230.00,0.0278
3229.00,0.0281
3228.00,0.0284
3227.00,0.0288
3226.00,0.0292
3225.00,0.0296
3224.00,0.0301
3223.00,0.0306
3222.00,0.0311
3221.00,0.0316
3220.00,0.0322
3219.00,0.0327
3218.00,0.0333
3217.00,0.0338
3216.00,0.0344
3215.00,0.0350
3214.00,0.0356
3213.00,0.0362
3212.00,0.0368
3211.00,0.0375
3210.00,0.0382
3209.00,0.0390
3208.00,0.0398
3207.00,0.0407
3206.00,0.0416
3205.00,0.0426
3204.00,0.0436
3203.00,0.0446
3202.00,0.0457
3201.00,0.0468
3200.00,0.0478
3199.00,0.0489
3198.00,0.0500
3197.00,0.0510
3196.00,0.0520
3195.00,0.0530
3194.00,0.0539
3193.00,0.0548
3192.00,0.0556
3191.00,0.0565
3190.00,0.0573
3189.00,0.0581
3188.00,0.0588
3187.00,0.0595
3186.00,0.0602
3185.00,0.0608
3184.00,0.0613
3183.00,0.0618
3182.00,0.0621
3181.00,0.0623
3180.00,0.0625
3179.00,0.0625
3178.00,0.0624
3177.00,0.0622
3176.00,0.0620
3175.00,0.0618
3174.00,0.0615
3173.00,0.0612
3172.00,0.0609
3171.00,0.0605
3170.00,0.0601
3169.00,0.0595
3168.00,0.0589
3167.00,0.0582
3166.00,0.0573
3165.00,0.0564
3164.00,0.0554
3163.00,0.0543
3162.00,0.0531
3161.00,0.0519
3160.00,0.0507
3159.00,0.0494
3158.00,0.0482
3157.00,0.0469
3156.00,0.0457
3155.00,0.0445
3154.00,0.0433
3153.00,0.0422
3152.00,0.0412
3151.00,0.0403
3150.00,0.0394
3149.00,0.0386
3148.00,0.0378
3147.00,0.0370
3146.00,0.0363
3145.00,0.0356
3144.00,0.0350
3143.00,0.0344
3142.00,0.0338
3141.00,0.0332
3140.00,0.0327
3139.00,0.0323
3138.00,0.0319
3137.00,0.0315
3136.00,0.0312
3135.00,0.0309
3134.00,0.0306
3133.00,0.0303
3132.00,0.0300
3131.00,0.0297
3130.00,0.0294
3129.00,0.0292
3128.00,0.0290
3127.00,0.0287
3126.00,0.0285
3125.00,0.0283
3124.00,0.0281
3123.00,0.0279
3122.00,0.0277
3121.00,0.0275
3120.00,0.0274
3119.00,0.0273
3118.00,0.0272
3117.00,0.0271
3116.00,0.0270
3115.00,0.0270
3114.00,0.0269
3113.00,0.0268
3112.00,0.0268
3111.00,0.0267
3110.00,0.0266
3109.00,0.0266
3108.00,0.0265
3107.00,0.0265
3106.00,0.0264
3105.00,0.0263
3104.00,0.0263
3103.00,0.0262
3102.00,0.0261
3101.00,0.0261
3100.00,0.0261
3099.00,0.0261
3098.00,0.0262
3097.00,0.0263
3096.00,0.0263
3095.00,0.0264
3094.00,0.0264
3093.00,0.0265
3092.00,0.0266
3091.00,0.0268
3090.00,0.0271
3089.00,0.0276
3088.00,0.0283
3087.00,0.0292
3086.00,0.0300
3085.00,0.0306
3084.00,0.0309
3083.00,0.0307
3082.00,0.0301
3081.00,0.0294
3080.00,0.0286
3079.00,0.0279
3078.00,0.0272
3077.00,0.0267
3076.00,0.0264
3075.00,0.0260
3074.00,0.0258
3073.00,0.0255
3072.00,0.0253
3071.00,0.0252
3070.00,0.0250
3069.00,0.0249
3068.00,0.0248
3067.00,0.0248
3066.00,0.0248
3065.00,0.0248
3064.00,0.0249
3063.00,0.0250
3062.00,0.0251
3061.00,0.0253
3060.00,0.0255
3059.00,0.0258
3058.00,0.0261
3057.00,0.0265
3056.00,0.0268
3055.00,0.0272
3054.00,0.0276
3053.00,0.0278
3052.00,0.0280
3051.00,0.0281
3050.00,0.0280
3049.00,0.0278
3048.00,0.0276
3047.00,0.0274
3046.00,0.0271
3045.00,0.0269
3044.00,0.0267
3043.00,0.0265
3042.00,0.0265
3041.00,0.0265
3040.00,0.0266
3039.00,0.0268
3038.00,0.0271
3037.00,0.0274
3036.00,0.0279
3035.00,0.0284
3034.00,0.0289
3033.00,0.0293
3032.00,0.0295
3031.00,0.0296
3030.00,0.0297
3029.00,0.0299
3028.00,0.0304
3027.00,0.0310
3026.00,0.0316
3025.00,0.0322
3024.00,0.0324
3023.00,0.0322
3022.00,0.0318
3021.00,0.0311
3020.00,0.0304
3019.00,0.0299
3018.00,0.0295
3017.00,0.0292
3016.00,0.0291
3015.00,0.0291
3014.00,0.0291
3013.00,0.0292
3012.00,0.0293
3011.00,0.0293
3010.00,0.0293
3009.00,0.0291
3008.00,0.0288
3007.00,0.0285
3006.00,0.0281
3005.00,0.0277
3004.00,0.0273
3003.00,0.0271
3002.00,0.0269
3001.00,0.0267
3000.00,0.0267
2999.00,0.0268
2998.00,0.0269
2997.00,0.0272
2996.00,0.0276
2995.00,0.0282
2994.00,0.0290
2993.00,0.0300
2992.00,0.0311
2991.00,0.0325
2990.00,0.0342
2989.00,0.0361
2988.00,0.0382
2987.00,0.0406
2986.00,0.0430
2985.00,0.0452
2984.00,0.0471
2983.00,0.0487
2982.00,0.0497
2981.00,0.0502
2980.00,0.0498
2979.00,0.0486
2978.00,0.0464
2977.00,0.0438
2976.00,0.0412
2975.00,0.0390
2974.00,0.0377
2973.00,0.0371
2972.00,0.0375
2971.00,0.0387
2970.00,0.0408
2969.00,0.0439
2968.00,0.0479
2967.00,0.0527
2966.00,0.0579
2965.00,0.0629
2964.00,0.0670
2963.00,0.0698
2962.00,0.0710
2961.00,0.0709
2960.00,0.0702
2959.00,0.0694
2958.00,0.0691
2957.00,0.0698
2956.00,0.0712
2955.00,0.0731
2954.00,0.0748
2953.00,0.0759
2952.00,0.0760
2951.00,0.0752
2950.00,0.0736
2949.00,0.0715
2948.00,0.0689
2947.00,0.0660
2946.00,0.0629
2945.00,0.0597
2944.00,0.0568
2943.00,0.0542
2942.00,0.0522
2941.00,0.0507
2940.00,0.0497
2939.00,0.0490
2938.00,0.0487
2937.00,0.0487
2936.00,0.0492
2935.00,0.0502
2934.00,0.0518
2933.00,0.0538
2932.00,0.0561
2931.00,0.0582
2930.00,0.0598
2929.00,0.0609
2928.00,0.0615
2927.00,0.0617
2926.00,0.0619
2925.00,0.0621
2924.00,0.0624
2923.00,0.0627
2922.00,0.0628
2921.00,0.0627
2920.00,0.0622
2919.00,0.0616
2918.00,0.0608
2917.00,0.0599
2916.00,0.0593
2915.00,0.0588
2914.00,0.0585
2913.00,0.0585
2912.00,0.0585
2911.00,0.0586
2910.00,0.0586
2909.00,0.0585
2908.00,0.0583
2907.00,0.0579
2906.00,0.0573
2905.00,0.0566
2904.00,0.0560
2903.00,0.0553
2902.00,0.0548
2901.00,0.0542
2900.00,0.0538
2899.00,0.0533
2898.00,0.0529
2897.00,0.0525
2896.00,0.0521
2895.00,0.0516
2894.00,0.0512
2893.00,0.0508
2892.00,0.0503
2891.00,0.0499
2890.00,0.0494
2889.00,0.0489
2888.00,0.0485
2887.00,0.0480
2886.00,0.0476
2885.00,0.0474
2884.00,0.0472
2883.00,0.0472
2882.00,0.0472
2881.00,0.0473
2880.00,0.0475
2879.00,0.0476
2878.00,0.0477
2877.00,0.0477
2876.00,0.0478
2875.00,0.0479
2874.00,0.0481
2873.00,0.0486
2872.00,0.0493
2871.00,0.0505
2870.00,0.0522
2869.00,0.0544
2868.00,0.0570
2867.00,0.0599
2866.00,0.0626
2865.00,0.0645
2864.00,0.0652
2863.00,0.0645
2862.00,0.0625
2861.00,0.0597
2860.00,0.0565
2859.00,0.0535
2858.00,0.0508
2857.00,0.0486
2856.00,0.0470
2855.00,0.0459
2854.00,0.0452
2853.00,0.0449
2852.00,0.0450
2851.00,0.0454
2850.00,0.0460
2849.00,0.0470
2848.00,0.0481
2847.00,0.0492
2846.00,0.0501
2845.00,0.0507
2844.00,0.0508
2843.00,0.0505
2842.00,0.0496
2841.00,0.0485
2840.00,0.0472
2839.00,0.0459
2838.00,0.0447
2837.00,0.0437
2836.00,0.0428
2835.00,0.0420
2834.00,0.0414
2833.00,0.0408
2832.00,0.0402
2831.00,0.0397
2830.00,0.0391
2829.00,0.0386
2828.00,0.0382
2827.00,0.0378
2826.00,0.0375
2825.00,0.0373
2824.00,0.0371
2823.00,0.0369
2822.00,0.0368
2821.00,0.0367
2820.00,0.0367
2819.00,0.0366
2818.00,0.0366
2817.00,0.0365
2816.00,0.0365
2815.00,0.0366
2814.00,0.0366
2813.00,0.0366
2812.00,0.0367
2811.00,0.0367
2810.00,0.0368
2809.00,0.0370
2808.00,0.0372
2807.00,0.0374
2806.00,0.0376
2805.00,0.0378
2804.00,0.0380
2803.00,0.0382
2802.00,0.0384
2801.00,0.0386
2800.00,0.0388
2799.00,0.0390
2798.00,0.0393
2797.00,0.0395
2796.00,0.0398
2795.00,0.0401
2794.00,0.0404
2793.00,0.0406
2792.00,0.0408
2791.00,0.0411
2790.00,0.0413
2789.00,0.0415
2788.00,0.0417
2787.00,0.0419
2786.00,0.0421
2785.00,0.0422
2784.00,0.0423
2783.00,0.0423
2782.00,0.0423
2781.00,0.0423
2780.00,0.0423
2779.00,0.0422
2778.00,0.0421
2777.00,0.0420
2776.00,0.0419
2775.00,0.0418
2774.00,0.0417
2773.00,0.0416
2772.00,0.0415
2771.00,0.0415
2770.00,0.0413
2769.00,0.0412
2768.00,0.0411
2767.00,0.0409
2766.00,0.0407
2765.00,0.0405
2764.00,0.0403
2763.00,0.0401
2762.00,0.0399
2761.00,0.0396
2760.00,0.0394
2759.00,0.0392
2758.00,0.0390
2757.00,0.0388
2756.00,0.0386
2755.00,0.0384
2754.00,0.0383
2753.00,0.0381
2752.00,0.0380
2751.00,0.0378
2750.00,0.0377
2749.00,0.0376
2748.00,0.0375
2747.00,0.0374
2746.00,0.0373
2745.00,0.0372
2744.00,0.0372
2743.00,0.0371
2742.00,0.0370
2741.00,0.0370
2740.00,0.0369
2739.00,0.0369
2738.00,0.0368
2737.00,0.0368
2736.00,0.0367
2735.00,0.0367
2734.00,0.0367
2733.00,0.0367
2732.00,0.0367
2731.00,0.0366
2730.00,0.0366
2729.00,0.0366
2728.00,0.0365
2727.00,0.0365
2726.00,0.0365
2725.00,0.0365
2724.00,0.0365
2723.00,0.0365
2722.00,0.0364
2721.00,0.0364
2720.00,0.0364
2719.00,0.0364
2718.00,0.0364
2717.00,0.0364
2716.00,0.0365
2715.00,0.0367
2714.00,0.0368
2713.00,0.0370
2712.00,0.0372
2711.00,0.0373
2710.00,0.0374
2709.00,0.0374
2708.00,0.0374
2707.00,0.0374
2706.00,0.0374
2705.00,0.0374
2704.00,0.0375
2703.00,0.0376
2702.00,0.0376
2701.00,0.0377
2700.00,0.0378
2699.00,0.0379
2698.00,0.0380
2697.00,0.0381
2696.00,0.0382
2695.00,0.0383
2694.00,0.0384
2693.00,0.0384
2692.00,0.0385
2691.00,0.0385
2690.00,0.0386
2689.00,0.0387
2688.00,0.0387
2687.00,0.0388
2686.00,0.0388
2685.00,0.0388
2684.00,0.0389
2683.00,0.0389
2682.00,0.0389
2681.00,0.0388
2680.00,0.0388
2679.00,0.0388
2678.00,0.0388
2677.00,0.0387
2676.00,0.0386
2675.00,0.0385
2674.00,0.0383
2673.00,0.0382
2672.00,0.0380
2671.00,0.0379
2670.00,0.0377
2669.00,0.0375
2668.00,0.0374
2667.00,0.0373
2666.00,0.0372
2665.00,0.0370
2664.00,0.0369
2663.00,0.0368
2662.00,0.0367
2661.00,0.0366
2660.00,0.0366
2659.00,0.0365
2658.00,0.0364
2657.00,0.0363
2656.00,0.0363
2655.00,0.0362
2654.00,0.0361
2653.00,0.0360
2652.00,0.0360
2651.00,0.0359
2650.00,0.0358
2649.00,0.0357
2648.00,0.0356
2647.00,0.0356
2646.00,0.0355
2645.00,0.0354
2644.00,0.0354
2643.00,0.0354
2642.00,0.0354
2641.00,0.0354
2640.00,0.0354
2639.00,0.0354
2638.00,0.0355
2637.00,0.0355
2636.00,0.0356
2635.00,0.0357
2634.00,0.0358
2633.00,0.0359
2632.00,0.0360
2631.00,0.0360
2630.00,0.0361
2629.00,0.0361
2628.00,0.0362
2627.00,0.0362
2626.00,0.0363
2625.00,0.0363
2624.00,0.0363
2623.00,0.0364
2622.00,0.0364
2621.00,0.0365
2620.00,0.0366
2619.00,0.0367
2618.00,0.0368
2617.00,0.0369
2616.00,0.0370
2615.00,0.0372
2614.00,0.0374
2613.00,0.0376
2612.00,0.0377
2611.00,0.0379
2610.00,0.0380
2609.00,0.0382
2608.00,0.0384
2607.00,0.0385
2606.00,0.0386
2605.00,0.0387
2604.00,0.0388
2603.00,0.0389
2602.00,0.0390
2601.00,0.0391
2600.00,0.0393
2599.00,0.0395
2598.00,0.0396
2597.00,0.0398
2596.00,0.0400
2595.00,0.0402
2594.00,0.0404
2593.00,0.0405
2592.00,0.0407
2591.00,0.0409
2590.00,0.0410
2589.00,0.0412
2588.00,0.0414
2587.00,0.0415
2586.00,0.0417
2585.00,0.0418
2584.00,0.0420
2583.00,0.0421
2582.00,0.0422
2581.00,0.0423
2580.00,0.0424
2579.00,0.0424
2578.00,0.0425
2577.00,0.0426
2576.00,0.0427
2575.00,0.0428
2574.00,0.0429
2573.00,0.0430
2572.00,0.0430
2571.00,0.0431
2570.00,0.0432
2569.00,0.0432
2568.00,0.0433
2567.00,0.0433
2566.00,0.0433
2565.00,0.0433
2564.00,0.0434
2563.00,0.0434
2562.00,0.0434
2561.00,0.0434
2560.00,0.0434
2559.00,0.0433
2558.00,0.0433
2557.00,0.0433
2556.00,0.0433
2555.00,0.0432
2554.00,0.0431
2553.00,0.0431
2552.00,0.0430
2551.00,0.0429
2550.00,0.0429
2549.00,0.0428
2548.00,0.0428
2547.00,0.0428
2546.00,0.0428
2545.00,0.0428
2544.00,0.0429
2543.00,0.0430
2542.00,0.0430
2541.00,0.0432
2540.00,0.0433
2539.00,0.0435
2538.00,0.0437
2537.00,0.0438
2536.00,0.0440
2535.00,0.0443
2534.00,0.0445
2533.00,0.0447
2532.00,0.0449
2531.00,0.0452
2530.00,0.0454
2529.00,0.0457
2528.00,0.0459
2527.00,0.0461
2526.00,0.0463
2525.00,0.0465
2524.00,0.0467
2523.00,0.0469
2522.00,0.0470
2521.00,0.0472
2520.00,0.0473
2519.00,0.0475
2518.00,0.0476
2517.00,0.0478
2516.00,0.0479
2515.00,0.0480
2514.00,0.0480
2513.00,0.0481
2512.00,0.0482
2511.00,0.0482
2510.00,0.0483
2509.00,0.0483
2508.00,0.0484
2507.00,0.0485
2506.00,0.0486
2505.00,0.0487
2504.00,0.0488
2503.00,0.0488
2502.00,0.0489
2501.00,0.0490
2500.00,0.0491
2499.00,0.0493
2498.00,0.0494
2497.00,0.0495
2496.00,0.0496
2495.00,0.0497
2494.00,0.0498
2493.00,0.0499
2492.00,0.0500
2491.00,0.0501
2490.00,0.0501
2489.00,0.0502
2488.00,0.0503
2487.00,0.0504
2486.00,0.0505
2485.00,0.0506
2484.00,0.0506
2483.00,0.0507
2482.00,0.0507
2481.00,0.0507
2480.00,0.0507
2479.00,0.0507
2478.00,0.0507
2477.00,0.0507
2476.00,0.0506
2475.00,0.0505
2474.00,0.0504
2473.00,0.0503
2472.00,0.0502
2471.00,0.0500
2470.00,0.0499
2469.00,0.0498
2468.00,0.0497
2467.00,0.0496
2466.00,0.0495
2465.00,0.0494
2464.00,0.0493
2463.00,0.0492
2462.00,0.0492
2461.00,0.0491
2460.00,0.0491
2459.00,0.0491
2458.00,0.0490
2457.00,0.0490
2456.00,0.0490
2455.00,0.0490
2454.00,0.0489
2453.00,0.0489
2452.00,0.0488
2451.00,0.0488
2450.00,0.0487
2449.00,0.0486
2448.00,0.0485
2447.00,0.0484
2446.00,0.0482
2445.00,0.0481
2444.00,0.0479
2443.00,0.0477
2442.00,0.0476
2441.00,0.0474
2440.00,0.0472
2439.00,0.0471
2438.00,0.0469
2437.00,0.0467
2436.00,0.0466
2435.00,0.0464
2434.00,0.0463
2433.00,0.0461
2432.00,0.0460
2431.00,0.0458
2430.00,0.0457
2429.00,0.0455
2428.00,0.0453
2427.00,0.0451
2426.00,0.0450
2425.00,0.0448
2424.00,0.0447
2423.00,0.0446
2422.00,0.0444
2421.00,0.0443
2420.00,0.0441
2419.00,0.0440
2418.00,0.0438
2417.00,0.0437
2416.00,0.0436
2415.00,0.0435
2414.00,0.0434
2413.00,0.0433
2412.00,0.0432
2411.00,0.0431
2410.00,0.0429
2409.00,0.0427
2408.00,0.0425
2407.00,0.0424
2406.00,0.0422
2405.00,0.0421
2404.00,0.0419
2403.00,0.0418
2402.00,0.0416
2401.00,0.0414
2400.00,0.0413
2399.00,0.0410
2398.00,0.0408
2397.00,0.0406
2396.00,0.0404
2395.00,0.0401
2394.00,0.0399
2393.00,0.0397
2392.00,0.0395
2391.00,0.0393
2390.00,0.0390
2389.00,0.0388
2388.00,0.0386
2387.00,0.0383
2386.00,0.0381
2385.00,0.0378
2384.00,0.0375
2383.00,0.0373
2382.00,0.0370
2381.00,0.0368
2380.00,0.0367
2379.00,0.0365
2378.00,0.0364
2377.00,0.0363
2376.00,0.0361
2375.00,0.0360
2374.00,0.0358
2373.00,0.0356
2372.00,0.0355
2371.00,0.0353
2370.00,0.0351
2369.00,0.0348
2368.00,0.0346
2367.00,0.0344
2366.00,0.0342
2365.00,0.0341
2364.00,0.0340
2363.00,0.0338
2362.00,0.0336
2361.00,0.0335
2360.00,0.0333
2359.00,0.0332
2358.00,0.0330
2357.00,0.0329
2356.00,0.0329
2355.00,0.0329
2354.00,0.0328
2353.00,0.0327
2352.00,0.0325
2351.00,0.0321
2350.00,0.0318
2349.00,0.0315
2348.00,0.0312
2347.00,0.0310
2346.00,0.0308
2345.00,0.0307
2344.00,0.0306
2343.00,0.0306
2342.00,0.0305
2341.00,0.0305
2340.00,0.0304
2339.00,0.0303
2338.00,0.0302
2337.00,0.0300
2336.00,0.0299
2335.00,0.0297
2334.00,0.0295
2333.00,0.0293
2332.00,0.0291
2331.00,0.0290
2330.00,0.0289
2329.00,0.0289
2328.00,0.0289
2327.00,0.0288
2326.00,0.0287
2325.00,0.0285
2324.00,0.0283
2323.00,0.0281
2322.00,0.0279
2321.00,0.0278
2320.00,0.0278
2319.00,0.0277
2318.00,0.0276
2317.00,0.0275
2316.00,0.0274
2315.00,0.0272
2314.00,0.0271
2313.00,0.0269
2312.00,0.0268
2311.00,0.0267
2310.00,0.0265
2309.00,0.0264
2308.00,0.0263
2307.00,0.0261
2306.00,0.0260
2305.00,0.0259
2304.00,0.0258
2303.00,0.0257
2302.00,0.0255
2301.00,0.0254
2300.00,0.0253
2299.00,0.0252
2298.00,0.0251
2297.00,0.0250
2296.00,0.0250
2295.00,0.0249
2294.00,0.0249
2293.00,0.0248
2292.00,0.0248
2291.00,0.0247
2290.00,0.0247
2289.00,0.0246
2288.00,0.0246
2287.00,0.0245
2286.00,0.0244
2285.00,0.0244
2284.00,0.0243
2283.00,0.0243
2282.00,0.0242
2281.00,0.0241
2280.00,0.0241
2279.00,0.0241
2278.00,0.0240
2277.00,0.0240
2276.00,0.0240
2275.00,0.0241
2274.00,0.0240
2273.00,0.0240
2272.00,0.0240
2271.00,0.0240
2270.00,0.0239
2269.00,0.0238
2268.00,0.0238
2267.00,0.0237
2266.00,0.0236
2265.00,0.0236
2264.00,0.0236
2263.00,0.0236
2262.00,0.0235
2261.00,0.0235
2260.00,0.0234
2259.00,0.0232
2258.00,0.0230
2257.00,0.0229
2256.00,0.0228
2255.00,0.0227
2254.00,0.0226
2253.00,0.0226
2252.00,0.0225
2251.00,0.0224
2250.00,0.0223
2249.00,0.0222
2248.00,0.0222
2247.00,0.0221
2246.00,0.0221
2245.00,0.0220
2244.00,0.0220
2243.00,0.0220
2242.00,0.0220
2241.00,0.0220
2240.00,0.0220
2239.00,0.0220
2238.00,0.0220
2237.00,0.0220
2236.00,0.0220
2235.00,0.0220
2234.00,0.0220
2233.00,0.0221
2232.00,0.0222
2231.00,0.0222
2230.00,0.0221
2229.00,0.0220
2228.00,0.0220
2227.00,0.0221
2226.00,0.0221
2225.00,0.0221
2224.00,0.0221
2223.00,0.0220
2222.00,0.0219
2221.00,0.0218
2220.00,0.0218
2219.00,0.0219
2218.00,0.0219
2217.00,0.0220
2216.00,0.0220
2215.00,0.0220
2214.00,0.0219
2213.00,0.0219
2212.00,0.0219
2211.00,0.0218
2210.00,0.0218
2209.00,0.0219
2208.00,0.0220
2207.00,0.0221
2206.00,0.0221
2205.00,0.0220
2204.00,0.0220
2203.00,0.0220
2202.00,0.0219
2201.00,0.0220
2200.00,0.0221
2199.00,0.0223
2198.00,0.0223
2197.00,0.0224
2196.00,0.0226
2195.00,0.0226
2194.00,0.0225
2193.00,0.0225
2192.00,0.0225
2191.00,0.0225
2190.00,0.0225
2189.00,0.0225
2188.00,0.0226
2187.00,0.0226
2186.00,0.0226
2185.00,0.0227
2184.00,0.0228
2183.00,0.0228
2182.00,0.0228
2181.00,0.0229
2180.00,0.0231
2179.00,0.0231
2178.00,0.0230
2177.00,0.0230
2176.00,0.0231
2175.00,0.0232
2174.00,0.0232
2173.00,0.0232
2172.00,0.0233
2171.00,0.0232
2170.00,0.0231
2169.00,0.0231
2168.00,0.0232
2167.00,0.0233
2166.00,0.0233
2165.00,0.0232
2164.00,0.0232
2163.00,0.0230
2162.00,0.0226
2161.00,0.0223
2160.00,0.0223
2159.00,0.0224
2158.00,0.0227
2157.00,0.0230
2156.00,0.0233
2155.00,0.0233
2154.00,0.0232
2153.00,0.0232
2152.00,0.0233
2151.00,0.0235
2150.00,0.0235
2149.00,0.0236
2148.00,0.0238
2147.00,0.0239
2146.00,0.0240
2145.00,0.0241
2144.00,0.0242
2143.00,0.0242
2142.00,0.0243
2141.00,0.0244
2140.00,0.0245
2139.00,0.0246
2138.00,0.0245
2137.00,0.0245
2136.00,0.0246
2135.00,0.0247
2134.00,0.0248
2133.00,0.0249
2132.00,0.0251
2131.00,0.0253
2130.00,0.0254
2129.00,0.0256
2128.00,0.0258
2127.00,0.0259
2126.00,0.0261
2125.00,0.0262
2124.00,0.0265
2123.00,0.0267
2122.00,0.0268
2121.00,0.0269
2120.00,0.0270
2119.00,0.0272
2118.00,0.0272
2117.00,0.0274
2116.00,0.0276
2115.00,0.0277
2114.00,0.0278
2113.00,0.0279
2112.00,0.0280
2111.00,0.0281
2110.00,0.0281
2109.00,0.0282
2108.00,0.0283
2107.00,0.0284
2106.00,0.0285
2105.00,0.0286
2104.00,0.0287
2103.00,0.0288
2102.00,0.0289
2101.00,0.0289
2100.00,0.0290
2099.00,0.0290
2098.00,0.0290
2097.00,0.0291
2096.00,0.0293
2095.00,0.0295
2094.00,0.0297
2093.00,0.0299
2092.00,0.0302
2091.00,0.0304
2090.00,0.0305
2089.00,0.0307
2088.00,0.0310
2087.00,0.0313
2086.00,0.0315
2085.00,0.0318
2084.00,0.0320
2083.00,0.0323
2082.00,0.0324
2081.00,0.0325
2080.00,0.0327
2079.00,0.0329
2078.00,0.0331
2077.00,0.0333
2076.00,0.0335
2075.00,0.0337
2074.00,0.0337
2073.00,0.0338
2072.00,0.0339
2071.00,0.0340
2070.00,0.0340
2069.00,0.0340
2068.00,0.0341
2067.00,0.0342
2066.00,0.0342
2065.00,0.0343
2064.00,0.0345
2063.00,0.0346
2062.00,0.0346
2061.00,0.0347
2060.00,0.0349
2059.00,0.0350
2058.00,0.0350
2057.00,0.0350
2056.00,0.0351
2055.00,0.0353
2054.00,0.0355
2053.00,0.0358
2052.00,0.0361
2051.00,0.0362
2050.00,0.0361
2049.00,0.0363
2048.00,0.0366
2047.00,0.0369
2046.00,0.0371
2045.00,0.0373
2044.00,0.0376
2043.00,0.0377
2042.00,0.0377
2041.00,0.0378
2040.00,0.0380
2039.00,0.0382
2038.00,0.0384
2037.00,0.0386
2036.00,0.0390
2035.00,0.0394
2034.00,0.0396
2033.00,0.0399
2032.00,0.0403
2031.00,0.0406
2030.00,0.0409
2029.00,0.0414
2028.00,0.0420
2027.00,0.0424
2026.00,0.0427
2025.00,0.0430
2024.00,0.0434
2023.00,0.0439
2022.00,0.0443
2021.00,0.0448
2020.00,0.0454
2019.00,0.0459
2018.00,0.0461
2017.00,0.0464
2016.00,0.0467
2015.00,0.0470
2014.00,0.0472
2013.00,0.0474
2012.00,0.0478
2011.00,0.0480
2010.00,0.0481
2009.00,0.0482
2008.00,0.0486
2007.00,0.0489
2006.00,0.0491
2005.00,0.0495
2004.00,0.0500
2003.00,0.0504
2002.00,0.0507
2001.00,0.0510
2000.00,0.0514
1999.00,0.0516
1998.00,0.0517
1997.00,0.0519
1996.00,0.0523
1995.00,0.0526
1994.00,0.0529
1993.00,0.0533
1992.00,0.0539
1991.00,0.0544
1990.00,0.0548
1989.00,0.0552
1988.00,0.0557
1987.00,0.0560
1986.00,0.0561
1985.00,0.0563
1984.00,0.0565
1983.00,0.0568
1982.00,0.0568
1981.00,0.0569
1980.00,0.0569
1979.00,0.0568
1978.00,0.0567
1977.00,0.0569
1976.00,0.0572
1975.00,0.0574
1974.00,0.0573
1973.00,0.0573
1972.00,0.0575
1971.00,0.0576
1970.00,0.0575
1969.00,0.0576
1968.00,0.0579
1967.00,0.0580
1966.00,0.0579
1965.00,0.0578
1964.00,0.0579
1963.00,0.0579
1962.00,0.0578
1961.00,0.0578
1960.00,0.0579
1959.00,0.0581
1958.00,0.0582
1957.00,0.0584
1956.00,0.0588
1955.00,0.0590
1954.00,0.0592
1953.00,0.0593
1952.00,0.0594
1951.00,0.0595
1950.00,0.0595
1949.00,0.0596
1948.00,0.0598
1947.00,0.0599
1946.00,0.0598
1945.00,0.0597
1944.00,0.0597
1943.00,0.0595
1942.00,0.0593
1941.00,0.0590
1940.00,0.0589
1939.00,0.0587
1938.00,0.0585
1937.00,0.0583
1936.00,0.0583
1935.00,0.0582
1934.00,0.0579
1933.00,0.0576
1932.00,0.0573
1931.00,0.0570
1930.00,0.0566
1929.00,0.0564
1928.00,0.0562
1927.00,0.0561
1926.00,0.0559
1925.00,0.0558
1924.00,0.0559
1923.00,0.0560
1922.00,0.0559
1921.00,0.0558
1920.00,0.0558
1919.00,0.0557
1918.00,0.0557
1917.00,0.0558
1916.00,0.0560
1915.00,0.0561
1914.00,0.0561
1913.00,0.0562
1912.00,0.0562
1911.00,0.0562
1910.00,0.0560
1909.00,0.0557
1908.00,0.0554
1907.00,0.0550
1906.00,0.0546
1905.00,0.0543
1904.00,0.0541
1903.00,0.0540
1902.00,0.0538
1901.00,0.0536
1900.00,0.0536
1899.00,0.0534
1898.00,0.0533
1897.00,0.0531
1896.00,0.0531
1895.00,0.0529
1894.00,0.0526
1893.00,0.0524
1892.00,0.0522
1891.00,0.0520
1890.00,0.0518
1889.00,0.0515
1888.00,0.0513
1887.00,0.0511
1886.00,0.0508
1885.00,0.0505
1884.00,0.0503
1883.00,0.0501
1882.00,0.0498
1881.00,0.0496
1880.00,0.0495
1879.00,0.0494
1878.00,0.0492
1877.00,0.0490
1876.00,0.0489
1875.00,0.0488
1874.00,0.0485
1873.00,0.0482
1872.00,0.0479
1871.00,0.0477
1870.00,0.0474
1869.00,0.0473
1868.00,0.0471
1867.00,0.0469
1866.00,0.0465
1865.00,0.0461
1864.00,0.0459
1863.00,0.0457
1862.00,0.0454
1861.00,0.0451
1860.00,0.0449
1859.00,0.0447
1858.00,0.0444
1857.00,0.0440
1856.00,0.0438
1855.00,0.0435
1854.00,0.0431
1853.00,0.0428
1852.00,0.0426
1851.00,0.0423
1850.00,0.0421
1849.00,0.0419
1848.00,0.0417
1847.00,0.0413
1846.00,0.0408
1845.00,0.0404
1844.00,0.0402
1843.00,0.0401
1842.00,0.0400
1841.00,0.0399
1840.00,0.0398
1839.00,0.0397
1838.00,0.0395
1837.00,0.0393
1836.00,0.0391
1835.00,0.0389
1834.00,0.0386
1833.00,0.0384
1832.00,0.0383
1831.00,0.0383
1830.00,0.0383
1829.00,0.0382
1828.00,0.0382
1827.00,0.0381
1826.00,0.0381
1825.00,0.0380
1824.00,0.0381
1823.00,0.0382
1822.00,0.0382
1821.00,0.0382
1820.00,0.0382
1819.00,0.0382
1818.00,0.0382
1817.00,0.0380
1816.00,0.0380
1815.00,0.0378
1814.00,0.0376
1813.00,0.0374
1812.00,0.0374
1811.00,0.0373
1810.00,0.0371
1809.00,0.0369
1808.00,0.0369
1807.00,0.0369
1806.00,0.0368
1805.00,0.0367
1804.00,0.0368
1803.00,0.0368
1802.00,0.0368
1801.00,0.0367
1800.00,0.0366
1799.00,0.0365
1798.00,0.0364
1797.00,0.0363
1796.00,0.0362
1795.00,0.0360
1794.00,0.0356
1793.00,0.0354
1792.00,0.0355
1791.00,0.0354
1790.00,0.0353
1789.00,0.0353
1788.00,0.0352
1787.00,0.0352
1786.00,0.0350
1785.00,0.0349
1784.00,0.0350
1783.00,0.0351
1782.00,0.0351
1781.00,0.0350
1780.00,0.0350
1779.00,0.0349
1778.00,0.0348
1777.00,0.0347
1776.00,0.0347
1775.00,0.0347
1774.00,0.0345
1773.00,0.0345
1772.00,0.0345
1771.00,0.0344
1770.00,0.0342
1769.00,0.0341
1768.00,0.0342
1767.00,0.0342
1766.00,0.0341
1765.00,0.0340
1764.00,0.0340
1763.00,0.0339
1762.00,0.0339
1761.00,0.0339
1760.00,0.0341
1759.00,0.0341
1758.00,0.0340
1757.00,0.0339
1756.00,0.0340
1755.00,0.0341
1754.00,0.0340
1753.00,0.0340
1752.00,0.0342
1751.00,0.0345
1750.00,0.0347
1749.00,0.0348
1748.00,0.0350
1747.00,0.0350
1746.00,0.0349
1745.00,0.0349
1744.00,0.0350
1743.00,0.0350
1742.00,0.0347
1741.00,0.0346
1740.00,0.0348
1739.00,0.0351
1738.00,0.0353
1737.00,0.0354
1736.00,0.0356
1735.00,0.0359
1734.00,0.0365
1733.00,0.0372
1732.00,0.0380
1731.00,0.0384
1730.00,0.0385
1729.00,0.0389
1728.00,0.0398
1727.00,0.0409
1726.00,0.0421
1725.00,0.0437
1724.00,0.0457
1723.00,0.0476
1722.00,0.0490
1721.00,0.0502
1720.00,0.0517
1719.00,0.0535
1718.00,0.0557
1717.00,0.0588
1716.00,0.0630
1715.00,0.0687
1714.00,0.0766
1713.00,0.0883
1712.00,0.1045
1711.00,0.1255
1710.00,0.1501
1709.00,0.1762
1708.00,0.2015
1707.00,0.2249
1706.00,0.2457
1705.00,0.2622
1704.00,0.2725
1703.00,0.2776
1702.00,0.2794
1701.00,0.2789
1700.00,0.2768
1699.00,0.2743
1698.00,0.2714
1697.00,0.2677
1696.00,0.2633
1695.00,0.2594
1694.00,0.2563
1693.00,0.2533
1692.00,0.2503
1691.00,0.2473
1690.00,0.2442
1689.00,0.2405
1688.00,0.2365
1687.00,0.2326
1686.00,0.2291
1685.00,0.2263
1684.00,0.2246
1683.00,0.2242
1682.00,0.2249
1681.00,0.2259
1680.00,0.2272
1679.00,0.2285
1678.00,0.2296
1677.00,0.2303
1676.00,0.2309
1675.00,0.2316
1674.00,0.2317
1673.00,0.2305
1672.00,0.2283
1671.00,0.2256
1670.00,0.2225
1669.00,0.2189
1668.00,0.2147
1667.00,0.2104
1666.00,0.2058
1665.00,0.2005
1664.00,0.1948
1663.00,0.1888
1662.00,0.1831
1661.00,0.1777
1660.00,0.1726
1659.00,0.1680
1658.00,0.1637
1657.00,0.1597
1656.00,0.1558
1655.00,0.1520
1654.00,0.1481
1653.00,0.1436
1652.00,0.1394
1651.00,0.1361
1650.00,0.1328
1649.00,0.1292
1648.00,0.1254
1647.00,0.1215
1646.00,0.1178
1645.00,0.1146
1644.00,0.1119
1643.00,0.1095
1642.00,0.1073
1641.00,0.1054
1640.00,0.1037
1639.00,0.1023
1638.00,0.1013
1637.00,0.1008
1636.00,0.1010
1635.00,0.1020
1634.00,0.1039
1633.00,0.1060
1632.00,0.1083
1631.00,0.1111
1630.00,0.1146
1629.00,0.1186
1628.00,0.1228
1627.00,0.1265
1626.00,0.1293
1625.00,0.1309
1624.00,0.1313
1623.00,0.1306
1622.00,0.1287
1621.00,0.1257
1620.00,0.1220
1619.00,0.1180
1618.00,0.1140
1617.00,0.1098
1616.00,0.1057
1615.00,0.1022
1614.00,0.0989
1613.00,0.0955
1612.00,0.0920
1611.00,0.0886
1610.00,0.0854
1609.00,0.0825
1608.00,0.0800
1607.00,0.0783
1606.00,0.0780
1605.00,0.0795
1604.00,0.0834
1603.00,0.0895
1602.00,0.0967
1601.00,0.1026
1600.00,0.1056
1599.00,0.1053
1598.00,0.1021
1597.00,0.0970
1596.00,0.0910
1595.00,0.0850
1594.00,0.0797
1593.00,0.0751
1592.00,0.0712
1591.00,0.0680
1590.00,0.0655
1589.00,0.0635
1588.00,0.0620
1587.00,0.0612
1586.00,0.0614
1585.00,0.0633
1584.00,0.0677
1583.00,0.0748
1582.00,0.0837
1581.00,0.0916
1580.00,0.0958
1579.00,0.0952
1578.00,0.0900
1577.00,0.0814
1576.00,0.0720
1575.00,0.0646
1574.00,0.0600
1573.00,0.0570
1572.00,0.0547
1571.00,0.0530
1570.00,0.0517
1569.00,0.0508
1568.00,0.0500
1567.00,0.0495
1566.00,0.0491
1565.00,0.0486
1564.00,0.0480
1563.00,0.0473
1562.00,0.0465
1561.00,0.0453
1560.00,0.0445
1559.00,0.0440
1558.00,0.0436
1557.00,0.0434
1556.00,0.0433
1555.00,0.0430
1554.00,0.0426
1553.00,0.0422
1552.00,0.0418
1551.00,0.0415
1550.00,0.0411
1549.00,0.0406
1548.00,0.0400
1547.00,0.0395
1546.00,0.0392
1545.00,0.0390
1544.00,0.0388
1543.00,0.0385
1542.00,0.0384
1541.00,0.0385
1540.00,0.0384
1539.00,0.0382
1538.00,0.0382
1537.00,0.0382
1536.00,0.0380
1535.00,0.0378
1534.00,0.0379
1533.00,0.0382
1532.00,0.0384
1531.00,0.0385
1530.00,0.0386
1529.00,0.0387
1528.00,0.0390
1527.00,0.0394
1526.00,0.0401
1525.00,0.0409
1524.00,0.0422
1523.00,0.0443
1522.00,0.0480
1521.00,0.0533
1520.00,0.0590
1519.00,0.0645
1518.00,0.0700
1517.00,0.0748
1516.00,0.0776
1515.00,0.0781
1514.00,0.0768
1513.00,0.0746
1512.00,0.0723
1511.00,0.0703
1510.00,0.0688
1509.00,0.0678
1508.00,0.0668
1507.00,0.0651
1506.00,0.0628
1505.00,0.0609
1504.00,0.0593
1503.00,0.0575
1502.00,0.0552
1501.00,0.0524
1500.00,0.0496
1499.00,0.0468
1498.00,0.0445
1497.00,0.0424
1496.00,0.0406
1495.00,0.0392
1494.00,0.0381
1493.00,0.0372
1492.00,0.0364
1491.00,0.0359
1490.00,0.0356
1489.00,0.0352
1488.00,0.0347
1487.00,0.0344
1486.00,0.0342
1485.00,0.0341
1484.00,0.0341
1483.00,0.0341
1482.00,0.0342
1481.00,0.0342
1480.00,0.0341
1479.00,0.0340
1478.00,0.0340
1477.00,0.0342
1476.00,0.0346
1475.00,0.0350
1474.00,0.0357
1473.00,0.0368
1472.00,0.0382
1471.00,0.0403
1470.00,0.0432
1469.00,0.0469
1468.00,0.0518
1467.00,0.0582
1466.00,0.0658
1465.00,0.0737
1464.00,0.0799
1463.00,0.0830
1462.00,0.0835
1461.00,0.0822
1460.00,0.0799
1459.00,0.0768
1458.00,0.0730
1457.00,0.0688
1456.00,0.0659
1455.00,0.0649
1454.00,0.0649
1453.00,0.0650
1452.00,0.0649
1451.00,0.0645
1450.00,0.0638
1449.00,0.0628
1448.00,0.0617
1447.00,0.0604
1446.00,0.0587
1445.00,0.0569
1444.00,0.0553
1443.00,0.0542
1442.00,0.0539
1441.00,0.0543
1440.00,0.0553
1439.00,0.0570
1438.00,0.0602
1437.00,0.0654
1436.00,0.0725
1435.00,0.0802
1434.00,0.0879
1433.00,0.0961
1432.00,0.1053
1431.00,0.1157
1430.00,0.1262
1429.00,0.1358
1428.00,0.1428
1427.00,0.1466
1426.00,0.1472
1425.00,0.1448
1424.00,0.1395
1423.00,0.1323
1422.00,0.1242
1421.00,0.1159
1420.00,0.1073
1419.00,0.0992
1418.00,0.0927
1417.00,0.0883
1416.00,0.0855
1415.00,0.0841
1414.00,0.0842
1413.00,0.0863
1412.00,0.0907
1411.00,0.0979
1410.00,0.1082
1409.00,0.1216
1408.00,0.1377
1407.00,0.1559
1406.00,0.1752
1405.00,0.1938
1404.00,0.2096
1403.00,0.2209
1402.00,0.2281
1401.00,0.2320
1400.00,0.2327
1399.00,0.2292
1398.00,0.2215
1397.00,0.2100
1396.00,0.1950
1395.00,0.1772
1394.00,0.1592
1393.00,0.1431
1392.00,0.1296
1391.00,0.1180
1390.00,0.1083
1389.00,0.1002
1388.00,0.0938
1387.00,0.0893
1386.00,0.0871
1385.00,0.0873
1384.00,0.0897
1383.00,0.0942
1382.00,0.1002
1381.00,0.1062
1380.00,0.1102
1379.00,0.1109
1378.00,0.1084
1377.00,0.1045
1376.00,0.1008
1375.00,0.0975
1374.00,0.0942
1373.00,0.0901
1372.00,0.0857
1371.00,0.0822
1370.00,0.0811
1369.00,0.0833
1368.00,0.0884
1367.00,0.0942
1366.00,0.0979
1365.00,0.0974
1364.00,0.0922
1363.00,0.0839
1362.00,0.0753
1361.00,0.0683
1360.00,0.0634
1359.00,0.0600
1358.00,0.0578
1357.00,0.0564
1356.00,0.0555
1355.00,0.0549
1354.00,0.0547
1353.00,0.0548
1352.00,0.0551
1351.00,0.0557
1350.00,0.0566
1349.00,0.0578
1348.00,0.0595
1347.00,0.0619
1346.00,0.0651
1345.00,0.0692
1344.00,0.0740
1343.00,0.0795
1342.00,0.0850
1341.00,0.0894
1340.00,0.0909
1339.00,0.0887
1338.00,0.0839
1337.00,0.0786
1336.00,0.0745
1335.00,0.0723
1334.00,0.0718
1333.00,0.0725
1332.00,0.0740
1331.00,0.0761
1330.00,0.0786
1329.00,0.0817
1328.00,0.0851
1327.00,0.0892
1326.00,0.0938
1325.00,0.0991
1324.00,0.1049
1323.00,0.1112
1322.00,0.1175
1321.00,0.1237
1320.00,0.1291
1319.00,0.1333
1318.00,0.1361
1317.00,0.1372
1316.00,0.1367
1315.00,0.1347
1314.00,0.1313
1313.00,0.1270
1312.00,0.1219
1311.00,0.1165
1310.00,0.1113
1309.00,0.1064
1308.00,0.1018
1307.00,0.0975
1306.00,0.0934
1305.00,0.0894
1304.00,0.0855
1303.00,0.0819
1302.00,0.0785
1301.00,0.0756
1300.00,0.0731
1299.00,0.0710
1298.00,0.0693
1297.00,0.0681
1296.00,0.0673
1295.00,0.0668
1294.00,0.0666
1293.00,0.0666
1292.00,0.0667
1291.00,0.0667
1290.00,0.0666
1289.00,0.0661
1288.00,0.0651
1287.00,0.0637
1286.00,0.0619
1285.00,0.0599
1284.00,0.0581
1283.00,0.0566
1282.00,0.0555
1281.00,0.0548
1280.00,0.0545
1279.00,0.0546
1278.00,0.0551
1277.00,0.0557
1276.00,0.0565
1275.00,0.0574
1274.00,0.0583
1273.00,0.0593
1272.00,0.0602
1271.00,0.0611
1270.00,0.0620
1269.00,0.0629
1268.00,0.0637
1267.00,0.0645
1266.00,0.0656
1265.00,0.0671
1264.00,0.0694
1263.00,0.0725
1262.00,0.0766
1261.00,0.0815
1260.00,0.0867
1259.00,0.0915
1258.00,0.0954
1257.00,0.0981
1256.00,0.0996
1255.00,0.1001
1254.00,0.1000
1253.00,0.0996
1252.00,0.0990
1251.00,0.0984
1250.00,0.0979
1249.00,0.0975
1248.00,0.0973
1247.00,0.0974
1246.00,0.0981
1245.00,0.0999
1244.00,0.1033
1243.00,0.1090
1242.00,0.1173
1241.00,0.1283
1240.00,0.1416
1239.00,0.1565
1238.00,0.1719
1237.00,0.1867
1236.00,0.2002
1235.00,0.2120
1234.00,0.2220
1233.00,0.2301
1232.00,0.2361
1231.00,0.2398
1230.00,0.2409
1229.00,0.2389
1228.00,0.2340
1227.00,0.2261
1226.00,0.2160
1225.00,0.2045
1224.00,0.1922
1223.00,0.1799
1222.00,0.1681
1221.00,0.1570
1220.00,0.1465
1219.00,0.1366
1218.00,0.1273
1217.00,0.1185
1216.00,0.1103
1215.00,0.1027
1214.00,0.0959
1213.00,0.0899
1212.00,0.0848
1211.00,0.0807
1210.00,0.0777
1209.00,0.0763
1208.00,0.0772
1207.00,0.0817
1206.00,0.0907
1205.00,0.1044
1204.00,0.1209
1203.00,0.1368
1202.00,0.1482
1201.00,0.1525
1200.00,0.1498
1199.00,0.1420
1198.00,0.1319
1197.00,0.1220
1196.00,0.1139
1195.00,0.1086
1194.00,0.1069
1193.00,0.1093
1192.00,0.1165
1191.00,0.1285
1190.00,0.1441
1189.00,0.1605
1188.00,0.1740
1187.00,0.1815
1186.00,0.1821
1185.00,0.1773
1184.00,0.1691
1183.00,0.1589
1182.00,0.1480
1181.00,0.1373
1180.00,0.1275
1179.00,0.1189
1178.00,0.1119
1177.00,0.1062
1176.00,0.1018
1175.00,0.0987
1174.00,0.0967
1173.00,0.0958
1172.00,0.0960
1171.00,0.0967
1170.00,0.0976
1169.00,0.0979
1168.00,0.0972
1167.00,0.0954
1166.00,0.0930
1165.00,0.0905
1164.00,0.0884
1163.00,0.0871
1162.00,0.0868
1161.00,0.0876
1160.00,0.0895
1159.00,0.0922
1158.00,0.0956
1157.00,0.0989
1156.00,0.1015
1155.00,0.1028
1154.00,0.1023
1153.00,0.1000
1152.00,0.0961
1151.00,0.0915
1150.00,0.0867
1149.00,0.0822
1148.00,0.0781
1147.00,0.0747
1146.00,0.0719
1145.00,0.0697
1144.00,0.0679
1143.00,0.0665
1142.00,0.0653
1141.00,0.0645
1140.00,0.0638
1139.00,0.0634
1138.00,0.0633
1137.00,0.0636
1136.00,0.0642
1135.00,0.0654
1134.00,0.0671
1133.00,0.0695
1132.00,0.0726
1131.00,0.0767
1130.00,0.0818
1129.00,0.0878
1128.00,0.0947
1127.00,0.1023
1126.00,0.1102
1125.00,0.1174
1124.00,0.1227
1123.00,0.1248
1122.00,0.1234
1121.00,0.1192
1120.00,0.1132
1119.00,0.1068
1118.00,0.1006
1117.00,0.0946
1116.00,0.0889
1115.00,0.0832
1114.00,0.0778
1113.00,0.0727
1112.00,0.0681
1111.00,0.0643
1110.00,0.0612
1109.00,0.0588
1108.00,0.0571
1107.00,0.0561
1106.00,0.0557
1105.00,0.0557
1104.00,0.0561
1103.00,0.0569
1102.00,0.0580
1101.00,0.0594
1100.00,0.0612
1099.00,0.0636
1098.00,0.0666
1097.00,0.0698
1096.00,0.0724
1095.00,0.0739
1094.00,0.0740
1093.00,0.0729
1092.00,0.0714
1091.00,0.0703
1090.00,0.0701
1089.00,0.0709
1088.00,0.0726
1087.00,0.0748
1086.00,0.0772
1085.00,0.0793
1084.00,0.0808
1083.00,0.0815
1082.00,0.0814
1081.00,0.0804
1080.00,0.0787
1079.00,0.0768
1078.00,0.0751
1077.00,0.0739
1076.00,0.0733
1075.00,0.0730
1074.00,0.0730
1073.00,0.0732
1072.00,0.0739
1071.00,0.0759
1070.00,0.0801
1069.00,0.0865
1068.00,0.0943
1067.00,0.1013
1066.00,0.1050
1065.00,0.1037
1064.00,0.0978
1063.00,0.0894
1062.00,0.0809
1061.00,0.0733
1060.00,0.0671
1059.00,0.0622
1058.00,0.0584
1057.00,0.0555
1056.00,0.0531
1055.00,0.0513
1054.00,0.0501
1053.00,0.0493
1052.00,0.0491
1051.00,0.0495
1050.00,0.0508
1049.00,0.0529
1048.00,0.0561
1047.00,0.0604
1046.00,0.0663
1045.00,0.0735
1044.00,0.0822
1043.00,0.0921
1042.00,0.1030
1041.00,0.1139
1040.00,0.1239
1039.00,0.1320
1038.00,0.1377
1037.00,0.1411
1036.00,0.1431
1035.00,0.1445
1034.00,0.1456
1033.00,0.1459
1032.00,0.1445
1031.00,0.1411
1030.00,0.1358
1029.00,0.1288
1028.00,0.1209
1027.00,0.1128
1026.00,0.1055
1025.00,0.0995
1024.00,0.0958
1023.00,0.0951
1022.00,0.0973
1021.00,0.0998
1020.00,0.0995
1019.00,0.0950
1018.00,0.0878
1017.00,0.0805
1016.00,0.0747
1015.00,0.0707
1014.00,0.0680
1013.00,0.0662
1012.00,0.0653
1011.00,0.0656
1010.00,0.0676
1009.00,0.0714
1008.00,0.0765
1007.00,0.0823
1006.00,0.0874
1005.00,0.0899
1004.00,0.0889
1003.00,0.0844
1002.00,0.0777
1001.00,0.0705
1000.00,0.0640
999.00,0.0588
998.00,0.0550
997.00,0.0523
996.00,0.0504
995.00,0.0490
994.00,0.0479
993.00,0.0467
992.00,0.0452
991.00,0.0435
990.00,0.0419
989.00,0.0403
988.00,0.0390
987.00,0.0379
986.00,0.0370
985.00,0.0363
984.00,0.0358
983.00,0.0355
982.00,0.0354
981.00,0.0356
980.00,0.0359
979.00,0.0363
978.00,0.0366
977.00,0.0366
976.00,0.0362
975.00,0.0355
974.00,0.0348
973.00,0.0341
972.00,0.0336
971.00,0.0332
970.00,0.0328
969.00,0.0320
968.00,0.0311
967.00,0.0300
966.00,0.0291
965.00,0.0285
964.00,0.0280
963.00,0.0278
962.00,0.0278
961.00,0.0279
960.00,0.0280
959.00,0.0282
958.00,0.0285
957.00,0.0288
956.00,0.0292
955.00,0.0298
954.00,0.0304
953.00,0.0311
952.00,0.0316
951.00,0.0319
950.00,0.0320
949.00,0.0322
948.00,0.0328
947.00,0.0342
946.00,0.0369
945.00,0.0410
944.00,0.0462
943.00,0.0517
942.00,0.0562
941.00,0.0589
940.00,0.0600
939.00,0.0596
938.00,0.0575
937.00,0.0535
936.00,0.0482
935.00,0.0428
934.00,0.0383
933.00,0.0351
932.00,0.0329
931.00,0.0314
930.00,0.0305
929.00,0.0299
928.00,0.0295
927.00,0.0296
926.00,0.0300
925.00,0.0306
924.00,0.0311
923.00,0.0315
922.00,0.0316
921.00,0.0310
920.00,0.0299
919.00,0.0285
918.00,0.0271
917.00,0.0258
916.00,0.0248
915.00,0.0240
914.00,0.0234
913.00,0.0229
912.00,0.0225
911.00,0.0221
910.00,0.0218
909.00,0.0216
908.00,0.0213
907.00,0.0211
906.00,0.0209
905.00,0.0208
904.00,0.0206
903.00,0.0204
902.00,0.0202
901.00,0.0200
900.00,0.0197
899.00,0.0194
898.00,0.0192
897.00,0.0190
896.00,0.0189
895.00,0.0188
894.00,0.0189
893.00,0.0191
892.00,0.0194
891.00,0.0199
890.00,0.0206
889.00,0.0216
888.00,0.0229
887.00,0.0244
886.00,0.0264
885.00,0.0286
884.00,0.0310
883.00,0.0333
882.00,0.0348
881.00,0.0349
880.00,0.0334
879.00,0.0308
878.00,0.0280
877.00,0.0255
876.00,0.0237
875.00,0.0225
874.00,0.0220
873.00,0.0220
872.00,0.0224
871.00,0.0232
870.00,0.0247
869.00,0.0266
868.00,0.0288
867.00,0.0314
866.00,0.0345
865.00,0.0383
864.00,0.0432
863.00,0.0502
862.00,0.0602
861.00,0.0739
860.00,0.0903
859.00,0.1068
858.00,0.1194
857.00,0.1245
856.00,0.1212
855.00,0.1121
854.00,0.1008
853.00,0.0909
852.00,0.0838
851.00,0.0790
850.00,0.0755
849.00,0.0728
848.00,0.0716
847.00,0.0734
846.00,0.0786
845.00,0.0854
844.00,0.0908
843.00,0.0920
842.00,0.0879
841.00,0.0798
840.00,0.0701
839.00,0.0610
838.00,0.0537
837.00,0.0484
836.00,0.0446
835.00,0.0419
834.00,0.0402
833.00,0.0389
832.00,0.0376
831.00,0.0364
830.00,0.0353
829.00,0.0342
828.00,0.0331
827.00,0.0321
826.00,0.0315
825.00,0.0311
824.00,0.0308
823.00,0.0309
822.00,0.0312
821.00,0.0316
820.00,0.0320
819.00,0.0323
818.00,0.0327
817.00,0.0334
816.00,0.0342
815.00,0.0353
814.00,0.0369
813.00,0.0388
812.00,0.0411
811.00,0.0440
810.00,0.0477
809.00,0.0520
808.00,0.0571
807.00,0.0626
806.00,0.0683
805.00,0.0738
804.00,0.0792
803.00,0.0852
802.00,0.0925
801.00,0.1018
800.00,0.1128
799.00,0.1244
798.00,0.1341
797.00,0.1396
796.00,0.1400
795.00,0.1366
794.00,0.1318
793.00,0.1274
792.00,0.1238
791.00,0.1210
790.00,0.1187
789.00,0.1165
788.00,0.1141
787.00,0.1119
786.00,0.1100
785.00,0.1084
784.00,0.1073
783.00,0.1067
782.00,0.1063
781.00,0.1050
780.00,0.1018
779.00,0.0964
778.00,0.0892
777.00,0.0812
776.00,0.0733
775.00,0.0662
774.00,0.0604
773.00,0.0557
772.00,0.0517
771.00,0.0482
770.00,0.0452
769.00,0.0426
768.00,0.0404
767.00,0.0383
766.00,0.0364
765.00,0.0347
764.00,0.0331
763.00,0.0318
762.00,0.0307
761.00,0.0296
760.00,0.0286
759.00,0.0276
758.00,0.0268
757.00,0.0261
756.00,0.0253
755.00,0.0247
754.00,0.0243
753.00,0.0239
752.00,0.0236
751.00,0.0235
750.00,0.0235
749.00,0.0236
748.00,0.0235
747.00,0.0233
746.00,0.0230
745.00,0.0224
744.00,0.0219
743.00,0.0214
742.00,0.0212
741.00,0.0212
740.00,0.0212
739.00,0.0215
738.00,0.0221
737.00,0.0230
736.00,0.0243
735.00,0.0261
734.00,0.0288
733.00,0.0325
732.00,0.0375
731.00,0.0438
730.00,0.0509
729.00,0.0579
728.00,0.0639
727.00,0.0680
726.00,0.0703
725.00,0.0713
724.00,0.0724
723.00,0.0759
722.00,0.0847
721.00,0.1012
720.00,0.1263
719.00,0.1574
718.00,0.1872
717.00,0.2054
716.00,0.2050
715.00,0.1871
714.00,0.1599
713.00,0.1319
712.00,0.1078
711.00,0.0892
710.00,0.0758
709.00,0.0664
708.00,0.0600
707.00,0.0560
706.00,0.0539
705.00,0.0535
704.00,0.0545
703.00,0.0571
702.00,0.0617
701.00,0.0687
700.00,0.0781
699.00,0.0898
698.00,0.1029
697.00,0.1159
696.00,0.1273
695.00,0.1372
694.00,0.1462
693.00,0.1544
692.00,0.1603
691.00,0.1620
690.00,0.1578
689.00,0.1476
688.00,0.1332
687.00,0.1172
686.00,0.1021
685.00,0.0890
684.00,0.0781
683.00,0.0695
682.00,0.0628
681.00,0.0576
680.00,0.0535
679.00,0.0502
678.00,0.0478
677.00,0.0460
676.00,0.0446
675.00,0.0438
674.00,0.0435
673.00,0.0437
672.00,0.0439
671.00,0.0442
670.00,0.0447
669.00,0.0453
668.00,0.0457
667.00,0.0456
666.00,0.0449
665.00,0.0441
664.00,0.0432
663.00,0.0425
662.00,0.0421
661.00,0.0419
660.00,0.0420
659.00,0.0425
658.00,0.0442
657.00,0.0477
656.00,0.0541
655.00,0.0645
654.00,0.0790
653.00,0.0952
652.00,0.1090
651.00,0.1163
650.00,0.1164
649.00,0.1125
648.00,0.1094
647.00,0.1104
646.00,0.1168
645.00,0.1288
644.00,0.1464
643.00,0.1687
642.00,0.1925
641.00,0.2115
640.00,0.2188
639.00,0.2108
638.00,0.1902
637.00,0.1640
636.00,0.1385
635.00,0.1167
634.00,0.0994
633.00,0.0859
632.00,0.0758
631.00,0.0690
630.00,0.0651
629.00,0.0636
628.00,0.0640
627.00,0.0657
626.00,0.0685
625.00,0.0717
624.00,0.0750
623.00,0.0784
622.00,0.0817
621.00,0.0846
620.00,0.0869
619.00,0.0887
618.00,0.0901
617.00,0.0909
616.00,0.0913
615.00,0.0914
614.00,0.0915
613.00,0.0917
612.00,0.0922
611.00,0.0929
610.00,0.0942
609.00,0.0958
608.00,0.0978
607.00,0.1004
606.00,0.1034
605.00,0.1070
604.00,0.1108
603.00,0.1152
602.00,0.1201
601.00,0.1254
600.00,0.1311
599.00,0.1370
598.00,0.1431
597.00,0.1492
596.00,0.1553
595.00,0.1614
594.00,0.1673
593.00,0.1729
592.00,0.1782
591.00,0.1830
590.00,0.1871
589.00,0.1903
588.00,0.1925
587.00,0.1938
586.00,0.1940
585.00,0.1933
584.00,0.1916
583.00,0.1892
582.00,0.1861
581.00,0.1825
580.00,0.1782
579.00,0.1735
578.00,0.1687
577.00,0.1638
576.00,0.1586
575.00,0.1533
574.00,0.1483
573.00,0.1436
572.00,0.1394
571.00,0.1358
570.00,0.1334
569.00,0.1325
568.00,0.1334
567.00,0.1370
566.00,0.1439
565.00,0.1538
564.00,0.1656
563.00,0.1775
562.00,0.1867
561.00,0.1902
560.00,0.1867
559.00,0.1770
558.00,0.1636
557.00,0.1490
556.00,0.1351
555.00,0.1231
554.00,0.1134
553.00,0.1058
552.00,0.0996
551.00,0.0947
550.00,0.0909
549.00,0.0880
548.00,0.0857
547.00,0.0841
546.00,0.0832
545.00,0.0829
544.00,0.0826
543.00,0.0826
542.00,0.0829
541.00,0.0830
540.00,0.0827
539.00,0.0823
538.00,0.0820
537.00,0.0815
536.00,0.0808
535.00,0.0800
534.00,0.0795
533.00,0.0790
532.00,0.0786
531.00,0.0787
530.00,0.0794
529.00,0.0804
528.00,0.0813
527.00,0.0822
526.00,0.0831
525.00,0.0837
524.00,0.0838
523.00,0.0837
522.00,0.0838
521.00,0.0839
520.00,0.0838
519.00,0.0840
518.00,0.0851
517.00,0.0868
516.00,0.0890
515.00,0.0917
514.00,0.0948
513.00,0.0977
512.00,0.0999
511.00,0.1016
510.00,0.1027
509.00,0.1029
508.00,0.1018
507.00,0.0997
506.00,0.0969
505.00,0.0934
504.00,0.0891
503.00,0.0846
502.00,0.0803
501.00,0.0765
500.00,0.0732
499.00,0.0710
498.00,0.0702
497.00,0.0709
496.00,0.0729
495.00,0.0767
494.00,0.0829
493.00,0.0910
492.00,0.1001
491.00,0.1092
490.00,0.1166
489.00,0.1201
488.00,0.1187
487.00,0.1129
486.00,0.1043
485.00,0.0941
484.00,0.0836
483.00,0.0741
482.00,0.0664
481.00,0.0602
480.00,0.0548
479.00,0.0504
478.00,0.0470
477.00,0.0441
476.00,0.0413
475.00,0.0390
474.00,0.0374
473.00,0.0361
472.00,0.0345
471.00,0.0330
470.00,0.0321
469.00,0.0314
468.00,0.0302
467.00,0.0287
466.00,0.0275
465.00,0.0263
464.00,0.0253
463.00,0.0250
462.00,0.0254
461.00,0.0254
460.00,0.0244
459.00,0.0234
458.00,0.0233
457.00,0.0234
456.00,0.0231
455.00,0.0227
454.00,0.0227
453.00,0.0223
452.00,0.0213
451.00,0.0205
450.00,0.0204
449.00,0.0206
448.00,0.0206
447.00,0.0207
446.00,0.0212
445.00,0.0214
444.00,0.0209
443.00,0.0207
442.00,0.0210
441.00,0.0214
440.00,0.0213
439.00,0.0217
438.00,0.0228
437.00,0.0242
436.00,0.0253
435.00,0.0271
434.00,0.0301
433.00,0.0339
432.00,0.0380
431.00,0.0433
430.00,0.0505
429.00,0.0588
428.00,0.0670
427.00,0.0750
426.00,0.0818
425.00,0.0852
424.00,0.0837
423.00,0.0787
422.00,0.0727
421.00,0.0662
420.00,0.0588
419.00,0.0515
418.00,0.0461
417.00,0.0425
416.00,0.0393
415.00,0.0368
414.00,0.0352
413.00,0.0338
412.00,0.0315
411.00,0.0295
410.00,0.0286
409.00,0.0275
408.00,0.0253
407.00,0.0234
406.00,0.0233
405.00,0.0236
404.00,0.0228
403.00,0.0223
402.00,0.0237
401.00,0.0257
400.00,0.0264
